<?xml version="1.0" encoding="UTF-8" ?>
<OPUSDataFile><AB><Ydata ylabel="Absorbance Units"><values byteorder="INTEL" format="FLOAT32" numvalues="3497"> -0.07530801 -0.07532892 -0.07533783 -0.07533477 -0.07531788 -0.07529148 -0.07526449 -0.07523844 -0.0752206 -0.07520758
 -0.0751988 -0.07519043 -0.07517862 -0.0751645 -0.07514697 -0.07513022 -0.07511564 -0.07510509 -0.07509967 -0.07509723
 -0.07509789 -0.07509732 -0.07509524 -0.07508677 -0.07507171 -0.07504832 -0.07501727 -0.07498433 -0.07495095 -0.07492816
 -0.07491544 -0.0749181 -0.0749322 -0.07495214 -0.07497385 -0.07498776 -0.07499477 -0.07499109 -0.07498225 -0.07497098
 -0.07496171 -0.07495812 -0.07495937 -0.0749667 -0.07497507 -0.07498384 -0.07498758 -0.07498533 -0.07497463 -0.07495505
 -0.07492822 -0.07489427 -0.07485882 -0.0748224 -0.07479283 -0.07477036 -0.07476097 -0.07476326 -0.07477668 -0.07479775
 -0.07481866 -0.0748365 -0.07484211 -0.07483783 -0.07482094 -0.07479966 -0.07477905 -0.07476532 -0.07476471 -0.07477329
 -0.07479252 -0.07481159 -0.07482819 -0.07483523 -0.0748306 -0.07481676 -0.07479339 -0.0747683 -0.0747419 -0.07472134
 -0.07470658 -0.07469948 -0.07469926 -0.07470264 -0.07470883 -0.07471322 -0.07471626 -0.07471643 -0.0747154 -0.07471577
 -0.07471701 -0.07472092 -0.07472233 -0.07471813 -0.07470381 -0.07467449 -0.07463469 -0.07458328 -0.07453216 -0.07448389
 -0.07444703 -0.07442395 -0.07441354 -0.07441627 -0.07442436 -0.0744374 -0.07444878 -0.07445844 -0.07446406 -0.07446583
 -0.07446379 -0.07445792 -0.07444789 -0.07443424 -0.07441757 -0.07439956 -0.07438309 -0.07436968 -0.0743627 -0.07436128
 -0.07436672 -0.07437491 -0.07438447 -0.07439075 -0.07439128 -0.07438552 -0.07437247 -0.07435493 -0.07433322 -0.07430924
 -0.07428318 -0.07425614 -0.07422817 -0.07420518 -0.07418767 -0.07418433 -0.07419424 -0.07421795 -0.0742512 -0.07427964
 -0.07429855 -0.07428682 -0.07424907 -0.07418013 -0.07409482 -0.07400864 -0.07393071 -0.07387487 -0.07383948 -0.07382821
 -0.07383452 -0.07385762 -0.07388898 -0.07392725 -0.07396184 -0.07399112 -0.074006 -0.07400509 -0.07398716 -0.07395203
 -0.07390842 -0.07385702 -0.0738094 -0.07376585 -0.07373425 -0.07371391 -0.073707 -0.07371157 -0.07372454 -0.07374314
 -0.07376162 -0.0737777 -0.0737862 -0.07378694 -0.07377731 -0.07376041 -0.07373652 -0.07371081 -0.07368504 -0.07366366
 -0.07364844 -0.07364029 -0.07364009 -0.07364441 -0.07365328 -0.07366037 -0.07366532 -0.07366312 -0.07365379 -0.07363701
 -0.07361331 -0.073586 -0.07355534 -0.0735239 -0.07349159 -0.07345906 -0.07342684 -0.07339583 -0.07336718 -0.07334285
 -0.07332287 -0.07330824 -0.07329758 -0.07329054 -0.07328557 -0.07328215 -0.07327872 -0.0732749 -0.07326906 -0.07326093
 -0.07324891 -0.07323274 -0.07321208 -0.07318686 -0.07315867 -0.07312769 -0.07309727 -0.07306772 -0.07304308 -0.07302307
 -0.07300919 -0.07300021 -0.07299389 -0.07298911 -0.07298246 -0.07297465 -0.07296475 -0.07295497 -0.072947 -0.07294191
 -0.07294137 -0.07294366 -0.07294886 -0.07295375 -0.07295731 -0.07295816 -0.0729555 -0.07295181 -0.07294717 -0.07294513
 -0.07294598 -0.07294911 -0.07295427 -0.07295662 -0.07295605 -0.07294939 -0.07293674 -0.07291739 -0.07289014 -0.07285125
 -0.07280035 -0.07273269 -0.07265509 -0.07257243 -0.07249542 -0.0724361 -0.07239715 -0.07238659 -0.07239265 -0.07241458
 -0.07243367 -0.07244393 -0.07243716 -0.07240925 -0.07236912 -0.07231676 -0.07226649 -0.0722193 -0.07218245 -0.07215581
 -0.07213684 -0.07212456 -0.07211035 -0.07209408 -0.07206979 -0.07203971 -0.0720063 -0.07197238 -0.07194498 -0.07192356
 -0.07191158 -0.0719039 -0.07189768 -0.07188728 -0.07186737 -0.07183892 -0.07179989 -0.07175721 -0.07171234 -0.0716708
 -0.0716343 -0.07160275 -0.07157659 -0.07155202 -0.07152884 -0.07150364 -0.07147639 -0.07144728 -0.0714166 -0.07138684
 -0.0713577 -0.07132964 -0.0713015 -0.07127023 -0.07123515 -0.07119303 -0.07114517 -0.0710917 -0.07103468 -0.07097587
 -0.07091711 -0.0708596 -0.07080602 -0.07075778 -0.07071666 -0.07068429 -0.07065737 -0.07063631 -0.07061293 -0.07058637
 -0.07055001 -0.07050326 -0.07044441 -0.07037349 -0.07029167 -0.07019954 -0.07010178 -0.06999972 -0.06990192 -0.06980858
 -0.06972528 -0.06965 -0.0695819 -0.06951819 -0.06945475 -0.06938985 -0.06932041 -0.06924576 -0.06916436 -0.06907692
 -0.06898289 -0.06888514 -0.06878423 -0.06868307 -0.0685825 -0.06848294 -0.06838457 -0.06828681 -0.06818964 -0.06809275
 -0.06799607 -0.06789833 -0.06779936 -0.06769697 -0.06759131 -0.0674816 -0.06736874 -0.067255 -0.06714088 -0.06702897
 -0.06691801 -0.06680806 -0.06669588 -0.06657854 -0.06645346 -0.06631664 -0.06617232 -0.06601994 -0.06586941 -0.06572405
 -0.06558819 -0.06546445 -0.06534645 -0.06523399 -0.06511871 -0.06499977 -0.06487636 -0.06474852 -0.06462027 -0.06449137
 -0.06436138 -0.06422935 -0.06408989 -0.06394377 -0.06378968 -0.06363065 -0.06347229 -0.06331617 -0.06316774 -0.06302468
 -0.06288694 -0.06275143 -0.06261565 -0.06247918 -0.0623412 -0.06220199 -0.06206184 -0.06191923 -0.06177396 -0.06162437
 -0.06147013 -0.06131124 -0.06114772 -0.06097904 -0.06080518 -0.06062543 -0.06044038 -0.06025458 -0.06006959 -0.05989578
 -0.059733 -0.05958736 -0.05945515 -0.05933231 -0.05921409 -0.05909155 -0.05896318 -0.05882317 -0.05867501 -0.05851851
 -0.05835989 -0.05820217 -0.05804894 -0.05790314 -0.05776073 -0.05762243 -0.05747781 -0.05732555 -0.05715795 -0.05697384
 -0.05677861 -0.05657272 -0.05637142 -0.05617521 -0.05599551 -0.05583076 -0.0556797 -0.05553957 -0.0554011 -0.05526289
 -0.05511719 -0.05496494 -0.0548042 -0.05463627 -0.05446161 -0.05428174 -0.05409712 -0.05391123 -0.05372491 -0.05354417
 -0.05337119 -0.05320943 -0.0530609 -0.05292181 -0.05279251 -0.05266402 -0.05253569 -0.05239998 -0.05225656 -0.0521042
 -0.05194325 -0.05177697 -0.05160563 -0.05143213 -0.05125662 -0.05108064 -0.05090511 -0.05073254 -0.05056421 -0.05040342
 -0.05024993 -0.05010519 -0.04996695 -0.04983439 -0.04970459 -0.04957623 -0.0494464 -0.04931405 -0.04917669 -0.04903332
 -0.04888415 -0.04872873 -0.04857064 -0.04841004 -0.04825162 -0.04809559 -0.04794425 -0.04779745 -0.04765435 -0.04751458
 -0.04737562 -0.04723764 -0.04709949 -0.04696213 -0.04682719 -0.04669528 -0.0465689 -0.04644588 -0.04632546 -0.04620408
 -0.04607854 -0.0459479 -0.04580979 -0.04566863 -0.04552501 -0.04538435 -0.04524842 -0.04511802 -0.04499409 -0.04487149
 -0.04474991 -0.04462462 -0.04449542 -0.04436386 -0.04423032 -0.04409993 -0.04397232 -0.04384856 -0.0437271 -0.04360306
 -0.04347586 -0.04334106 -0.04320082 -0.04305606 -0.04291034 -0.04276781 -0.04263093 -0.04250326 -0.04238433 -0.04227543
 -0.0421731 -0.0420767 -0.04198235 -0.04188885 -0.04179477 -0.04169951 -0.04160431 -0.04150926 -0.04141485 -0.0413211
 -0.04122703 -0.04113259 -0.04103704 -0.04094047 -0.040843 -0.04074495 -0.04064734 -0.04055068 -0.04045679 -0.04036542
 -0.04027758 -0.04019113 -0.04010429 -0.04001488 -0.03992008 -0.03982075 -0.03971581 -0.0396094 -0.03950274 -0.03939879
 -0.03929863 -0.0392028 -0.03911141 -0.03902515 -0.03894396 -0.0388702 -0.03880399 -0.03874572 -0.03869499 -0.03864677
 -0.03860018 -0.03854738 -0.03848835 -0.03841846 -0.03833932 -0.03825203 -0.03815896 -0.03806429 -0.03796995 -0.0378796
 -0.0377945 -0.03771694 -0.03764675 -0.03758489 -0.03752924 -0.03747964 -0.03743263 -0.03738758 -0.03734078 -0.03729155
 -0.03723763 -0.03717852 -0.03711594 -0.03704994 -0.03698708 -0.03692767 -0.036878 -0.03683737 -0.03680509 -0.0367796
 -0.03675456 -0.03672968 -0.03670053 -0.03666896 -0.03663604 -0.03660352 -0.03657429 -0.03654794 -0.03652553 -0.03650476
 -0.03648472 -0.03646345 -0.0364395 -0.036414 -0.03638641 -0.03636114 -0.03633891 -0.03632235 -0.03631219 -0.03630445
 -0.03629898 -0.03628768 -0.03627047 -0.03624416 -0.03620991 -0.03617325 -0.03613554 -0.0361054 -0.03608197 -0.03606824
 -0.03606097 -0.03605597 -0.03605093 -0.03604056 -0.03602681 -0.03600903 -0.03599089 -0.03597492 -0.03596114 -0.03595073
 -0.0359404 -0.03592921 -0.03591645 -0.03590141 -0.0358876 -0.0358753 -0.03586714 -0.03586332 -0.03586232 -0.03586399
 -0.03586595 -0.03586828 -0.03587041 -0.03587238 -0.03587405 -0.03587516 -0.03587471 -0.03587309 -0.03587012 -0.03586729
 -0.03586661 -0.03586823 -0.03587403 -0.03588022 -0.03588576 -0.0358855 -0.03587652 -0.03585852 -0.03582991 -0.03579663
 -0.03575919 -0.03572424 -0.03569263 -0.03566736 -0.0356487 -0.0356364 -0.03563027 -0.03562766 -0.03562778 -0.03562418
 -0.03561621 -0.03559741 -0.03556886 -0.03552941 -0.03548187 -0.03543031 -0.03537762 -0.03532856 -0.03528606 -0.03525421
 -0.03523448 -0.03523021 -0.03523665 -0.03525473 -0.03527157 -0.03528427 -0.03528169 -0.03526013 -0.03522228 -0.03516705
 -0.03510978 -0.03505128 -0.03500802 -0.03498038 -0.03497518 -0.03499109 -0.0350226 -0.0350672 -0.03511174 -0.03515492
 -0.03518551 -0.03520617 -0.03521555 -0.03521921 -0.03522392 -0.0352327 -0.0352518 -0.03527792 -0.03531152 -0.03534681
 -0.03538089 -0.03541262 -0.03544024 -0.03546862 -0.03549827 -0.0355337 -0.0355757 -0.03562454 -0.03568035 -0.03574067
 -0.03580535 -0.03587164 -0.03593923 -0.03600463 -0.03606765 -0.03612516 -0.03617813 -0.03622713 -0.03627416 -0.03632383
 -0.03637567 -0.0364318 -0.03648876 -0.03654394 -0.03659558 -0.03664065 -0.03668299 -0.0367233 -0.03676552 -0.03681196
 -0.03685927 -0.03690771 -0.03695044 -0.03698631 -0.03701456 -0.03703493 -0.03705326 -0.03706987 -0.03709041 -0.03711493
 -0.03714618 -0.03718435 -0.03723184 -0.03728846 -0.0373561 -0.03743188 -0.03751228 -0.03759212 -0.03766286 -0.03772217
 -0.03776302 -0.03779129 -0.03780657 -0.03782156 -0.03784149 -0.03787541 -0.0379287 -0.03799727 -0.03808289 -0.03816946
 -0.03825553 -0.03832613 -0.03837983 -0.03841516 -0.03843249 -0.03844318 -0.03844807 -0.03845945 -0.03847655 -0.03850289
 -0.03853627 -0.03857194 -0.03860915 -0.03864345 -0.03867703 -0.03871066 -0.03874719 -0.03879034 -0.03883918 -0.03889549
 -0.03895332 -0.03901105 -0.03906199 -0.03910315 -0.03913382 -0.03915237 -0.03916617 -0.03917554 -0.03919034 -0.03921142
 -0.03924323 -0.03928572 -0.03933438 -0.03938847 -0.0394396 -0.03948769 -0.03952737 -0.03956012 -0.03958696 -0.03961019
 -0.03963478 -0.03966241 -0.03969805 -0.03974069 -0.03979216 -0.03984785 -0.03990591 -0.03996081 -0.04000909 -0.04004962
 -0.04008031 -0.04010658 -0.04012889 -0.04015341 -0.04018142 -0.04021269 -0.04024748 -0.04027973 -0.0403092 -0.04033218
 -0.04034927 -0.04036385 -0.040377 -0.04039584 -0.04042027 -0.04045441 -0.04049605 -0.04054338 -0.04059251 -0.04063721
 -0.04067509 -0.04070026 -0.04071624 -0.04072186 -0.04072668 -0.04073472 -0.04075294 -0.04078608 -0.04082913 -0.04088312
 -0.04093484 -0.04098249 -0.04101842 -0.04104143 -0.04105715 -0.04106596 -0.04107839 -0.0410942 -0.04111584 -0.04114144
 -0.04116287 -0.04117917 -0.04118182 -0.04117413 -0.04115782 -0.04113881 -0.041127 -0.04112431 -0.04113809 -0.0411624
 -0.04119634 -0.04123142 -0.04126257 -0.0412881 -0.04130521 -0.04131994 -0.04133288 -0.04135038 -0.04137376 -0.04140356
 -0.04144016 -0.04147836 -0.04151788 -0.04155299 -0.04158378 -0.04160858 -0.04162828 -0.0416465 -0.04166388 -0.04168462
 -0.04170799 -0.04173475 -0.04176333 -0.04179152 -0.0418188 -0.04184369 -0.04186651 -0.04188699 -0.04190575 -0.04192259
 -0.04193976 -0.04195727 -0.04198003 -0.04200904 -0.04204823 -0.04209879 -0.0421585 -0.0422276 -0.04229783 -0.04236878
 -0.0424326 -0.04248947 -0.04253812 -0.04257978 -0.04262012 -0.04266004 -0.04270583 -0.04275669 -0.04281434 -0.04287666
 -0.04294099 -0.04300627 -0.04306999 -0.04313308 -0.04319574 -0.04325785 -0.04332004 -0.04337952 -0.0434353 -0.04348629
 -0.04353117 -0.04357518 -0.04361866 -0.04366802 -0.0437242 -0.04378497 -0.04385015 -0.04390807 -0.04395857 -0.04399487
 -0.04401892 -0.04403731 -0.04405235 -0.04407602 -0.04410724 -0.04415022 -0.04420114 -0.04425539 -0.04431179 -0.04436647
 -0.04442195 -0.04447921 -0.04453923 -0.04460405 -0.04466888 -0.04473304 -0.04479031 -0.04483865 -0.04487705 -0.0449044
 -0.04492649 -0.04494356 -0.04496313 -0.04498559 -0.04501469 -0.0450501 -0.04508916 -0.04513115 -0.04517027 -0.0452069
 -0.04523858 -0.04526732 -0.04529643 -0.04532736 -0.04536467 -0.04540644 -0.04545329 -0.04550029 -0.04554399 -0.0455808
 -0.04560733 -0.04562435 -0.04563092 -0.0456306 -0.04562432 -0.04561326 -0.04559809 -0.04557594 -0.04554655 -0.04550802
 -0.04546026 -0.04540764 -0.04535055 -0.0452956 -0.04524215 -0.04519033 -0.04513814 -0.04507818 -0.04501009 -0.04492823
 -0.04483596 -0.04473593 -0.04463171 -0.04452933 -0.04442769 -0.04432878 -0.04422787 -0.04412264 -0.04401116 -0.04389125
 -0.04376671 -0.04363777 -0.04350925 -0.04338229 -0.043257 -0.04313367 -0.0430092 -0.04288341 -0.04275607 -0.04262755
 -0.04250291 -0.04238271 -0.04227296 -0.04217348 -0.04208661 -0.04201222 -0.04195086 -0.04190333 -0.04187129 -0.04185496
 -0.04185631 -0.04187177 -0.04190069 -0.04193518 -0.04197178 -0.04200169 -0.04202098 -0.04202409 -0.04200866 -0.0419735
 -0.04191766 -0.04184429 -0.04175342 -0.04165047 -0.04153574 -0.04141453 -0.04128692 -0.04115518 -0.04101923 -0.04087957
 -0.04073652 -0.04059144 -0.04044493 -0.0402995 -0.04015443 -0.04001 -0.03986445 -0.03971507 -0.03956297 -0.03940611
 -0.03925264 -0.03910391 -0.03897548 -0.03887094 -0.03881171 -0.03880168 -0.03886648 -0.03901052 -0.03925346 -0.03959918
 -0.04004156 -0.04058076 -0.04117441 -0.04181875 -0.04245102 -0.04306855 -0.04362134 -0.04411298 -0.04452831 -0.04487636
 -0.04517107 -0.0454208 -0.04564663 -0.04585117 -0.04604635 -0.04623024 -0.0464049 -0.04656876 -0.04672071 -0.04686241
 -0.0469938 -0.04711832 -0.04723703 -0.04735143 -0.04746232 -0.04756742 -0.04766668 -0.04775682 -0.04783762 -0.04790846
 -0.0479695 -0.04802333 -0.04807016 -0.04811276 -0.04815089 -0.04818502 -0.04821503 -0.04824028 -0.04826206 -0.04828166
 -0.04830188 -0.04832647 -0.04835786 -0.04840002 -0.0484519 -0.04851518 -0.04858397 -0.04865714 -0.04872691 -0.04879127
 -0.04884392 -0.04888371 -0.0489052 -0.04890792 -0.04888568 -0.0488381 -0.0487585 -0.0486468 -0.04850024 -0.04832098
 -0.04811941 -0.04790343 -0.04770616 -0.04754167 -0.04746318 -0.04747907 -0.04763498 -0.04791494 -0.04832633 -0.04882564
 -0.04938297 -0.0499513 -0.05049317 -0.05098778 -0.05141453 -0.05178274 -0.05208958 -0.05235379 -0.05257849 -0.05277512
 -0.05294546 -0.05309409 -0.05322138 -0.05333202 -0.05342631 -0.05350981 -0.05358282 -0.05365019 -0.05371214 -0.05377209
 -0.05383023 -0.05388886 -0.05394788 -0.05400832 -0.05406947 -0.05413107 -0.05419203 -0.05425131 -0.05430818 -0.05436166
 -0.05441225 -0.05445958 -0.05450563 -0.05455079 -0.05459698 -0.05464482 -0.05469408 -0.054745 -0.05479511 -0.0548443
 -0.0548894 -0.05493033 -0.05496569 -0.05499568 -0.05502078 -0.05504171 -0.05506155 -0.05508142 -0.05510605 -0.05513573
 -0.05517387 -0.05521841 -0.0552688 -0.05532102 -0.05537133 -0.05541693 -0.05545436 -0.05548485 -0.05550745 -0.0555264
 -0.05554266 -0.05555968 -0.05557857 -0.05559928 -0.05562214 -0.05564421 -0.05566528 -0.05568324 -0.05569807 -0.05571036
 -0.0557204 -0.05573095 -0.05574214 -0.05575609 -0.05577258 -0.05579223 -0.05581456 -0.05583906 -0.05586505 -0.0558915
 -0.05591773 -0.05594262 -0.05596627 -0.05598832 -0.05600935 -0.05602972 -0.05604912 -0.05606776 -0.05608422 -0.05609815
 -0.05610919 -0.05611707 -0.05612346 -0.05612845 -0.05613405 -0.05614034 -0.0561479 -0.05615674 -0.05616705 -0.05617895
 -0.05619312 -0.0562095 -0.0562286 -0.05624946 -0.0562707 -0.05629086 -0.05630714 -0.05631935 -0.05632567 -0.05632851
 -0.05632847 -0.05632898 -0.05633191 -0.05633855 -0.05635017 -0.0563647 -0.05638209 -0.05639968 -0.05641706 -0.05643326
 -0.05644814 -0.05646257 -0.05647659 -0.05649053 -0.05650423 -0.05651621 -0.05652647 -0.05653394 -0.05653944 -0.05654447
 -0.05655045 -0.05656126 -0.05657694 -0.05660011 -0.05662765 -0.05665805 -0.0566872 -0.05671155 -0.05673002 -0.05674036
 -0.05674624 -0.05674797 -0.05675025 -0.05675433 -0.0567617 -0.05677291 -0.05678662 -0.05680276 -0.05681977 -0.05683756
 -0.05685544 -0.05687333 -0.05689033 -0.05690642 -0.05692088 -0.05693389 -0.0569457 -0.05695631 -0.05696596 -0.05697425
 -0.05698054 -0.05698499 -0.05698701 -0.05698846 -0.05699021 -0.05699435 -0.05700252 -0.05701416 -0.05702992 -0.05704661
 -0.05706378 -0.05707833 -0.05708962 -0.05709722 -0.05710094 -0.05710326 -0.05710433 -0.05710753 -0.05711293 -0.0571227
 -0.05713629 -0.05715232 -0.05716967 -0.05718401 -0.05719476 -0.05719819 -0.05719537 -0.05718575 -0.05717194 -0.05715626
 -0.05714078 -0.05712796 -0.05711762 -0.05711063 -0.05710511 -0.05710063 -0.05709569 -0.05708969 -0.05708306 -0.0570757
 -0.05706901 -0.05706308 -0.05705911 -0.05705716 -0.0570573 -0.05705937 -0.05706182 -0.05706443 -0.05706504 -0.05706385
 -0.05706014 -0.05705458 -0.05704832 -0.05704163 -0.05703564 -0.0570296 -0.05702303 -0.05701566 -0.05700662 -0.05699782
 -0.05698965 -0.05698476 -0.05698438 -0.05698899 -0.05699934 -0.05701275 -0.05702909 -0.05704482 -0.05705958 -0.05707159
 -0.05708078 -0.05708775 -0.05709258 -0.0570962 -0.05709847 -0.05709901 -0.05709787 -0.05709457 -0.05708997 -0.05708542
 -0.05708224 -0.05708329 -0.05708843 -0.057099 -0.05711313 -0.05713013 -0.05714769 -0.05716446 -0.05717907 -0.05719057
 -0.05719928 -0.05720478 -0.05720967 -0.05721414 -0.05722164 -0.05723255 -0.05724802 -0.05726807 -0.05728909 -0.05731075
 -0.0573281 -0.05734128 -0.05734837 -0.0573501 -0.05734775 -0.05734206 -0.05733522 -0.05732787 -0.05732189 -0.05731778
 -0.05731686 -0.05731897 -0.05732479 -0.05733268 -0.05734219 -0.05735134 -0.05735927 -0.05736515 -0.05736848 -0.0573698
 -0.05736906 -0.05736727 -0.05736452 -0.05736129 -0.05735761 -0.05735361 -0.05734928 -0.05734455 -0.05733949 -0.05733434
 -0.05732926 -0.05732486 -0.05732118 -0.05731883 -0.05731733 -0.05731641 -0.05731503 -0.05731195 -0.0573064 -0.05729708
 -0.05728478 -0.05726917 -0.05725249 -0.05723542 -0.05721962 -0.05720579 -0.0571936 -0.0571832 -0.05717342 -0.0571641
 -0.0571553 -0.057147 -0.05713949 -0.05713263 -0.05712486 -0.057116 -0.05710384 -0.05708903 -0.05707221 -0.05705506
 -0.05704178 -0.05703346 -0.05703436 -0.05704299 -0.05706007 -0.05708176 -0.0571056 -0.05712803 -0.05714619 -0.05715941
 -0.05716644 -0.05716921 -0.05716789 -0.05716447 -0.05715935 -0.05715319 -0.05714611 -0.05713818 -0.05712943 -0.05712051
 -0.05711149 -0.05710339 -0.0570963 -0.05709127 -0.05708836 -0.05708845 -0.05709124 -0.05709655 -0.05710384 -0.05711225
 -0.05712102 -0.05712899 -0.05713546 -0.05713944 -0.05714073 -0.05713882 -0.05713431 -0.05712708 -0.05711865 -0.05710928
 -0.05710056 -0.05709286 -0.05708654 -0.05708171 -0.05707784 -0.05707489 -0.05707205 -0.0570693 -0.05706614 -0.05706266
 -0.057059 -0.05705544 -0.05705317 -0.05705234 -0.05705423 -0.05705808 -0.0570636 -0.05706891 -0.05707177 -0.05707069
 -0.05706332 -0.05705042 -0.0570312 -0.05700878 -0.05698398 -0.05695991 -0.05693765 -0.05691831 -0.05690239 -0.05688907
 -0.05687837 -0.05686884 -0.05686038 -0.05685148 -0.05684208 -0.05683137 -0.05681951 -0.05680709 -0.05679464 -0.05678437
 -0.05677673 -0.05677407 -0.05677614 -0.05678396 -0.0567962 -0.05681215 -0.05682924 -0.05684542 -0.05685795 -0.05686443
 -0.05686465 -0.05685734 -0.05684591 -0.05683089 -0.0568157 -0.05680135 -0.05678726 -0.05677358 -0.05675807 -0.05674055
 -0.05672158 -0.05670137 -0.05668354 -0.05666818 -0.0566577 -0.05665159 -0.05664918 -0.05664976 -0.05665132 -0.0566531
 -0.05665297 -0.05665028 -0.05664321 -0.05663207 -0.05661597 -0.05659721 -0.05657665 -0.05655682 -0.05653933 -0.05652404
 -0.05651165 -0.05649939 -0.05648684 -0.05647215 -0.05645484 -0.0564366 -0.05641746 -0.0564009 -0.05638697 -0.05637714
 -0.05637104 -0.05636711 -0.05636476 -0.05636079 -0.05635497 -0.0563448 -0.05633103 -0.0563135 -0.05629394 -0.05627438
 -0.05625633 -0.05624206 -0.05623139 -0.05622511 -0.05622184 -0.05622093 -0.05622244 -0.05622584 -0.05623356 -0.05624591
 -0.0562653 -0.0562923 -0.0563255 -0.05636495 -0.05640391 -0.05644186 -0.05646882 -0.05648482 -0.0564844 -0.05646983
 -0.05644694 -0.05641893 -0.05639858 -0.05638451 -0.05638192 -0.05638338 -0.05638163 -0.05637052 -0.05634031 -0.05629384
 -0.05622813 -0.05615386 -0.05607407 -0.05599941 -0.05593365 -0.05588229 -0.05584737 -0.05582863 -0.05582681 -0.05583557
 -0.0558547 -0.05587245 -0.05588835 -0.05589421 -0.05589103 -0.05588273 -0.05587061 -0.05586322 -0.0558592 -0.05585984
 -0.05586179 -0.05585914 -0.0558503 -0.05582976 -0.05580032 -0.05576184 -0.05571949 -0.05567652 -0.05563613 -0.05560127
 -0.0555699 -0.05554264 -0.05551428 -0.05548387 -0.05544797 -0.05540564 -0.05535911 -0.05530838 -0.05525905 -0.05521134
 -0.05516865 -0.05513065 -0.05509647 -0.05506553 -0.05503469 -0.05500394 -0.05497157 -0.05493817 -0.0549039 -0.0548698
 -0.05483724 -0.05480719 -0.05478125 -0.0547593 -0.05474223 -0.05472773 -0.05471544 -0.05470164 -0.05468504 -0.0546639
 -0.05463736 -0.05460689 -0.05457238 -0.05453708 -0.05450119 -0.05446744 -0.05443596 -0.05440837 -0.05438461 -0.05436505
 -0.05434934 -0.05433618 -0.05432501 -0.0543135 -0.05430128 -0.05428635 -0.05426912 -0.05424924 -0.05422744 -0.05420436
 -0.05418034 -0.05415589 -0.0541307 -0.05410463 -0.05407793 -0.05405043 -0.0540234 -0.05399706 -0.05397236 -0.05394959
 -0.05392781 -0.05390704 -0.0538851 -0.05386193 -0.05383643 -0.0538088 -0.05378023 -0.05375097 -0.05372307 -0.05369628
 -0.05367123 -0.05364703 -0.05362206 -0.0535959 -0.05356693 -0.05353608 -0.05350329 -0.05347069 -0.05343969 -0.05341169
 -0.05338797 -0.05336793 -0.05335192 -0.05333788 -0.05332554 -0.05331286 -0.05329957 -0.05328409 -0.05326628 -0.05324525
 -0.05322099 -0.05319396 -0.05316432 -0.05313366 -0.05310211 -0.05307127 -0.05304105 -0.05301202 -0.0529841 -0.05295745
 -0.05293179 -0.05290701 -0.05288236 -0.05285724 -0.05283054 -0.05280108 -0.05276924 -0.05273439 -0.05269916 -0.05266414
 -0.05263177 -0.05260295 -0.05257724 -0.05255489 -0.05253323 -0.05251203 -0.05249036 -0.05246821 -0.0524467 -0.05242583
 -0.05240597 -0.05238676 -0.05236641 -0.05234481 -0.05232037 -0.052294 -0.05226681 -0.05223972 -0.05221497 -0.05219197
 -0.05217121 -0.05215114 -0.05213074 -0.05210926 -0.052086 -0.05206103 -0.05203436 -0.05200541 -0.05197404 -0.05193965
 -0.05190185 -0.05186286 -0.0518227 -0.05178591 -0.05175269 -0.05172529 -0.05170337 -0.05168443 -0.05166795 -0.05164984
 -0.05163025 -0.05160733 -0.05158202 -0.05155538 -0.05152842 -0.05150332 -0.05148006 -0.05145976 -0.05144114 -0.05142381
 -0.05140608 -0.05138678 -0.05136586 -0.05134283 -0.05131906 -0.05129492 -0.05127055 -0.05124623 -0.05121994 -0.05119152
 -0.05115954 -0.05112398 -0.05108719 -0.05104946 -0.05101496 -0.05098355 -0.05095693 -0.05093419 -0.05091333 -0.05089351
 -0.05087181 -0.05084818 -0.05082102 -0.05079127 -0.05075917 -0.05072601 -0.0506925 -0.05066043 -0.05063093 -0.05060471
 -0.05058252 -0.05056328 -0.05054714 -0.05053152 -0.05051607 -0.05049887 -0.05047969 -0.05045789 -0.05043342 -0.05040631
 -0.05037664 -0.05034505 -0.05031184 -0.05027895 -0.05024669 -0.05021734 -0.05019054 -0.05016685 -0.05014517 -0.05012385
 -0.05010257 -0.05008005 -0.05005719 -0.05003421 -0.050012 -0.04999148 -0.04997154 -0.04995215 -0.04993155 -0.04990914
 -0.04988498 -0.04985877 -0.04983247 -0.04980622 -0.04978139 -0.04975803 -0.04973498 -0.0497121 -0.04968713 -0.04966015
 -0.0496303 -0.04959811 -0.04956495 -0.04953154 -0.04950035 -0.04947135 -0.04944593 -0.04942274 -0.04940104 -0.04937893
 -0.04935441 -0.04932737 -0.04929673 -0.04926468 -0.04923156 -0.04920008 -0.04917119 -0.04914524 -0.04912262 -0.04910142
 -0.0490815 -0.04906124 -0.04904055 -0.04901933 -0.04899764 -0.0489763 -0.04895532 -0.04893527 -0.0489161 -0.04889799
 -0.04888065 -0.04886363 -0.04884653 -0.04882852 -0.04880943 -0.04878842 -0.04876642 -0.04874359 -0.04872164 -0.04870158
 -0.04868425 -0.04867066 -0.04865892 -0.04864912 -0.04863738 -0.04862307 -0.04860366 -0.04857866 -0.04854938 -0.04851586
 -0.04848164 -0.04844686 -0.04841407 -0.04838308 -0.04835405 -0.04832678 -0.04830057 -0.04827553 -0.04825164 -0.04822894
 -0.04820761 -0.04818714 -0.04816704 -0.0481469 -0.04812605 -0.04810503 -0.04808385 -0.04806351 -0.04804461 -0.04802676
 -0.04801031 -0.04799293 -0.04797436 -0.04795237 -0.0479266 -0.04789717 -0.04786403 -0.04782984 -0.04779483 -0.04776276
 -0.04773367 -0.04771012 -0.04769146 -0.04767708 -0.04766554 -0.04765309 -0.04763861 -0.04761804 -0.0475922 -0.04755984
 -0.04752389 -0.04748609 -0.04744954 -0.04741671 -0.0473883 -0.04736557 -0.04734644 -0.04733075 -0.04731591 -0.04730146
 -0.04728571 -0.04726845 -0.0472486 -0.04722608 -0.04719993 -0.04717012 -0.04713611 -0.04709819 -0.04705796 -0.04701617
 -0.04697653 -0.04693942 -0.04690811 -0.0468814 -0.04685913 -0.04683892 -0.04681766 -0.04679433 -0.04676632 -0.04673586
 -0.04670322 -0.04667143 -0.04664221 -0.04661557 -0.04659234 -0.04656924 -0.04654586 -0.04651963 -0.04649003 -0.04645792
 -0.04642329 -0.04638874 -0.04635435 -0.04632166 -0.04629051 -0.0462607 -0.04623208 -0.04620391 -0.04617627 -0.04614905
 -0.04612216 -0.04609551 -0.04606868 -0.04604106 -0.04601249 -0.04598246 -0.04595155 -0.04591998 -0.04588818 -0.04585654
 -0.04582447 -0.04579183 -0.04575829 -0.04572355 -0.04568896 -0.04565457 -0.04562207 -0.04559162 -0.04556222 -0.04553377
 -0.04550372 -0.04547218 -0.04543839 -0.04540297 -0.04536808 -0.04533394 -0.04530261 -0.04527325 -0.04524532 -0.04521785
 -0.04518917 -0.04515933 -0.04512759 -0.0450949 -0.04506174 -0.04502837 -0.04499524 -0.04496147 -0.04492686 -0.04489081
 -0.04485306 -0.0448141 -0.04477393 -0.0447331 -0.04469166 -0.04464952 -0.04460668 -0.04456322 -0.04451927 -0.04447612
 -0.04443393 -0.04439418 -0.04435663 -0.0443215 -0.04428827 -0.04425608 -0.04422474 -0.04419359 -0.04416281 -0.0441325
 -0.04410229 -0.04407218 -0.04404108 -0.04400847 -0.0439738 -0.04393654 -0.0438977 -0.04385725 -0.04381705 -0.04377736
 -0.0437392 -0.04370271 -0.04366681 -0.04363138 -0.04359383 -0.04355416 -0.04351098 -0.04346498 -0.04341828 -0.04337153
 -0.04332795 -0.04328679 -0.04324849 -0.04321118 -0.04317221 -0.04313133 -0.0430867 -0.0430407 -0.0429943 -0.04294936
 -0.04290744 -0.04286728 -0.04282906 -0.04279034 -0.04275039 -0.04270951 -0.04266749 -0.04262669 -0.04258728 -0.04255015
 -0.04251523 -0.04248042 -0.04244552 -0.0424077 -0.04236713 -0.04232301 -0.04227593 -0.04222731 -0.04217732 -0.04212724
 -0.04207645 -0.04202459 -0.0419713 -0.04191564 -0.04185901 -0.04180156 -0.04174611 -0.04169396 -0.04164675 -0.04160586
 -0.04156889 -0.04153609 -0.04150185 -0.04146552 -0.04142276 -0.04137303 -0.04131776 -0.04125714 -0.04119635 -0.04113552
 -0.04107805 -0.04102336 -0.04097063 -0.04091925 -0.04086683 -0.04081353 -0.04075829 -0.04070212 -0.04064592 -0.04059061
 -0.04053762 -0.04048674 -0.04043868 -0.04039152 -0.04034471 -0.04029609 -0.04024462 -0.04019028 -0.04013258 -0.04007385
 -0.04001426 -0.03995633 -0.03990031 -0.03984633 -0.03979433 -0.03974221 -0.03968982 -0.03963472 -0.03957703 -0.03951602
 -0.03945186 -0.03938464 -0.03931449 -0.03924145 -0.03916622 -0.03908969 -0.0390127 -0.03893666 -0.03886114 -0.03878652
 -0.03871144 -0.03863504 -0.03855784 -0.03847931 -0.03840265 -0.03832858 -0.03825868 -0.03819373 -0.03812966 -0.03806636
 -0.03799726 -0.03792212 -0.03783842 -0.03774675 -0.03765173 -0.03755408 -0.03746013 -0.0373693 -0.03728345 -0.03720101
 -0.03711966 -0.03703824 -0.03695413 -0.03686674 -0.03677463 -0.03667744 -0.03657435 -0.03646571 -0.03635116 -0.03623249
 -0.03611019 -0.03598556 -0.03585917 -0.03573029 -0.03559891 -0.03546402 -0.03532542 -0.03518485 -0.03504242 -0.03490041
 -0.03475878 -0.03461776 -0.03447727 -0.03433694 -0.03419702 -0.03405854 -0.03392094 -0.03378418 -0.03364605 -0.03350314
 -0.03335433 -0.03319601 -0.03303174 -0.03286212 -0.03269295 -0.03252784 -0.03236777 -0.03221472 -0.03206401 -0.03191508
 -0.03176355 -0.03160863 -0.03144864 -0.0312834 -0.03111171 -0.03093349 -0.03074647 -0.03055087 -0.0303477 -0.03013794
 -0.02992776 -0.02971697 -0.02950891 -0.02930124 -0.02909033 -0.0288747 -0.02864991 -0.02841732 -0.02817699 -0.02792935
 -0.02767633 -0.02741257 -0.0271373 -0.02684104 -0.02651999 -0.02617004 -0.02578793 -0.02538207 -0.02495217 -0.02451449
 -0.02407032 -0.02363302 -0.02320327 -0.02278575 -0.02237982 -0.02198085 -0.02158682 -0.0211848 -0.02077319 -0.02033809
 -0.01988345 -0.01940907 -0.0189246 -0.01844615 -0.01797644 -0.01752723 -0.0170895 -0.01666065 -0.01623175 -0.01579634
 -0.01535411 -0.01490336 -0.01444641 -0.01398409 -0.01351457 -0.01303738 -0.01255353 -0.01206269 -0.01157269 -0.01108393
 -0.01060185 -0.0101265 -0.009659535 -0.009202014 -0.008760985 -0.00833725 -0.007939085 -0.007562462 -0.00720332 -0.006855355
 -0.006504592 -0.006153696 -0.005796967 -0.005448506 -0.005118315 -0.00481246 -0.0045399 -0.004289998 -0.004061184 -0.003843379
 -0.003632519 -0.0034307 -0.003236888 -0.003060387 -0.002901903 -0.002768938 -0.002661921 -0.002584544 -0.00253661 -0.002517083
 -0.002524966 -0.002554154 -0.00260364 -0.002666512 -0.002742856 -0.002829439 -0.002926813 -0.003034628 -0.003152898 -0.003282062
 -0.003420365 -0.003567605 -0.003719058 -0.003873095 -0.004023038 -0.004166369 -0.00429785 -0.004415418 -0.004518158 -0.004605224
 -0.004679985 -0.004742594 -0.004796972 -0.004843344 -0.004883668 -0.004918074 -0.004948412 -0.004975247 -0.005002871 -0.005031902
 -0.005067251 -0.005108195 -0.005155961 -0.005208398 -0.005262715 -0.00531678 -0.005366872 -0.005412475 -0.005452015 -0.005485517
 -0.005513131 -0.005532959 -0.005544647 -0.005545401 -0.005534123 -0.005510919 -0.005475193 -0.005430903 -0.00537816 -0.005322773
 -0.005265058 -0.005212341 -0.005165307 -0.005134714 -0.005121696 -0.005138685 -0.005186369 -0.005274641 -0.00540186 -0.005570376
 -0.005774944 -0.006008708 -0.006265319 -0.006535226 -0.006813041 -0.007092519 -0.007367034 -0.0076319 -0.007881149 -0.008110313
 -0.008321585 -0.008513106 -0.008696413 -0.008872626 -0.009054292 -0.009243246 -0.0094418 -0.00965028 -0.009859334 -0.01006866
 -0.01027193 -0.01047005 -0.01066598 -0.01086035 -0.0110575 -0.01125638 -0.0114566 -0.01165671 -0.01185347 -0.01204748
 -0.01223671 -0.01242651 -0.01261931 -0.01282337 -0.01304446 -0.01328593 -0.01355202 -0.01383645 -0.01413937 -0.01445025
 -0.01476801 -0.01508076 -0.01538755 -0.01567495 -0.01594209 -0.01617958 -0.01638755 -0.01656692 -0.01671891 -0.0168516
 -0.01696634 -0.01707224 -0.01717075 -0.01726923 -0.01737066 -0.01748241 -0.01760937 -0.01776008 -0.01793836 -0.01815151
 -0.01839695 -0.01867676 -0.0189821 -0.01931049 -0.01965338 -0.02000854 -0.02036843 -0.02073281 -0.02108689 -0.02142957
 -0.021743 -0.02202576 -0.02227778 -0.02249987 -0.02270769 -0.02290171 -0.02309298 -0.02327984 -0.02346149 -0.02363628
 -0.02379893 -0.02395011 -0.02408871 -0.02421535 -0.02433131 -0.02443409 -0.02452262 -0.02459287 -0.024642 -0.02466807
 -0.02466927 -0.02464645 -0.02459945 -0.02452948 -0.02443687 -0.02432154 -0.02418366 -0.02402151 -0.02383497 -0.02362284
 -0.0233855 -0.02312915 -0.02285603 -0.02258484 -0.02231819 -0.0220775 -0.02186214 -0.02168203 -0.02153375 -0.02141622
 -0.02132498 -0.02125485 -0.02120001 -0.02115438 -0.0211118 -0.0210663 -0.02101658 -0.02095905 -0.02090121 -0.02084387
 -0.02079611 -0.0207608 -0.02073624 -0.02072333 -0.02071099 -0.02069858 -0.02067597 -0.02064297 -0.02059711 -0.02053911
 -0.02047322 -0.02039978 -0.0203231 -0.02024158 -0.02015367 -0.02005637 -0.01994339 -0.01981276 -0.01965875 -0.01948226
 -0.01928204 -0.01905956 -0.01881629 -0.01854992 -0.01826048 -0.01794325 -0.01759615 -0.01721985 -0.01681306 -0.01638441
 -0.01593455 -0.01547238 -0.01499867 -0.01451502 -0.01402156 -0.01351905 -0.0130092 -0.01250477 -0.0120096 -0.01154725
 -0.01112028 -0.01074786 -0.01043054 -0.01017771 -0.009990322 -0.009873343 -0.009827263 -0.009855573 -0.009953778 -0.0101218
 -0.01034968 -0.0106343 -0.01096407 -0.01133574 -0.01173856 -0.01217071 -0.01262079 -0.01308784 -0.01355791 -0.01403013
 -0.01448911 -0.01493421 -0.01535535 -0.01575306 -0.01612713 -0.0164788 -0.01681379 -0.01713218 -0.01743761 -0.01772838
 -0.01800285 -0.01825952 -0.01849506 -0.01871031 -0.01890416 -0.01907999 -0.019239 -0.01938608 -0.01952319 -0.01965536
 -0.01978455 -0.01991354 -0.02004364 -0.02017331 -0.02030284 -0.02042735 -0.02054655 -0.02065617 -0.02075603 -0.02084341
 -0.02091817 -0.0209779 -0.02102252 -0.02105002 -0.02106117 -0.02105671 -0.02103851 -0.02101044 -0.02097439 -0.02093439
 -0.02089207 -0.02084984 -0.02081033 -0.02077536 -0.0207487 -0.02073253 -0.020729 -0.02074001 -0.02076249 -0.0207968
 -0.02083604 -0.02087955 -0.02092085 -0.02095938 -0.02099115 -0.02101598 -0.02103133 -0.02103737 -0.02103421 -0.0210227
 -0.02100689 -0.02098785 -0.02097128 -0.02095686 -0.02094717 -0.02093995 -0.02093329 -0.02092466 -0.0209106 -0.02089053
 -0.02086237 -0.02082851 -0.02078901 -0.02074813 -0.02070717 -0.02066926 -0.02063545 -0.02060623 -0.02058177 -0.02056235
 -0.02054794 -0.02054068 -0.02054067 -0.02054908 -0.02056547 -0.02058603 -0.02060998 -0.02063108 -0.02064972 -0.02066336
 -0.0206737 -0.02068303 -0.02069271 -0.02070578 -0.02072264 -0.02074465 -0.02077216 -0.02080604 -0.02084554 -0.02089123
 -0.02093956 -0.02098994 -0.02103768 -0.02108143 -0.02111973 -0.02115197 -0.02117989 -0.02120363 -0.02122399 -0.02124096
 -0.0212519 -0.02125663 -0.02125212 -0.02123863 -0.02121579 -0.02118438 -0.02114653 -0.0211031 -0.02105686 -0.02100855
 -0.02096052 -0.02091289 -0.02086695 -0.02082173 -0.02077726 -0.0207315 -0.02068357 -0.02063158 -0.02057455 -0.02051209
 -0.02044352 -0.02037154 -0.02029612 -0.02022218 -0.02015016 -0.0200835 -0.02002231 -0.01996511 -0.01991144 -0.01985587
 -0.01979832 -0.01973504 -0.01966726 -0.01959666 -0.01952501 -0.01945717 -0.01939384 -0.01933858 -0.01929031 -0.01924939
 -0.01921415 -0.01918359 -0.01915633 -0.01913155 -0.01910803 -0.01908515 -0.0190623 -0.01903893 -0.01901657 -0.01899531
 -0.0189771 -0.01896229 -0.0189494 -0.01893834 -0.0189244 -0.01890758 -0.01888591 -0.01886028 -0.01883448 -0.01880947
 -0.01879087 -0.01877801 -0.01877278 -0.01877277 -0.01877533 -0.01877797 -0.0187768 -0.01877099 -0.01875814 -0.01874014
 -0.01871682 -0.01869193 -0.01866678 -0.0186436 -0.01862358 -0.01860529 -0.01858899 -0.01857073 -0.01855015 -0.0185248
 -0.01849456 -0.01846035 -0.01842242 -0.01838386 -0.0183447 -0.01830698 -0.01826977 -0.01823139 -0.01818998 -0.01814045
 -0.0180816 -0.01800851 -0.01792292 -0.01782423 -0.01771625 -0.01760185 -0.01748308 -0.01736272 -0.01723784 -0.01710861
 -0.01696962 -0.01681951 -0.0166553 -0.01647596 -0.01628278 -0.01607563 -0.01585819 -0.01563068 -0.01539676 -0.01515658
 -0.01491276 -0.0146653 -0.01441558 -0.01416344 -0.01390921 -0.01365244 -0.01339224 -0.01312829 -0.01285929 -0.01258611
 -0.01230869 -0.01202949 -0.01175014 -0.01147328 -0.01120085 -0.0109339 -0.01067319 -0.01041929 -0.01017221 -0.009933746
 -0.009704232 -0.009484606 -0.009275276 -0.009072651 -0.008876557 -0.00868045 -0.008484165 -0.008283985 -0.008080238 -0.007873224
 -0.007662932 -0.007449663 -0.007232763 -0.007010723 -0.006783238 -0.006548758 -0.006308283 -0.006062105 -0.005811912 -0.005559237
 -0.005304846 -0.005049803 -0.004793442 -0.004535769 -0.004276016 -0.004013707 -0.003749899 -0.003484342 -0.003220698 -0.002959239
 -0.002703551 -0.002453862 -0.002211441 -0.001976286 -0.001748361 -0.001527857 -0.001316107 -0.001113135 -0.0009200415 -0.0007360568
 -0.0005598232 -0.0003907361 -0.0002264845 -6.872016E-05 8.205324E-05 0.0002227182 0.0003501397 0.0004637642 0.0005615842 0.0006470264
 0.0007206019 0.000786526 0.0008461128 0.0009011974 0.0009522561 0.001000218 0.001045076 0.001089355 0.001133194 0.001179551
 0.001228514 0.001281758 0.001339282 0.001401925 0.001469661 0.001543285 0.001621845 0.001703961 0.001787318 0.001867571
 0.001942358 0.002007049 0.002060648 0.002100874 0.002127336 0.002139387 0.002136346 0.002117659 0.002083586 0.002033572
 0.001970778 0.001895354 0.001811994 0.001721309 0.001625263 0.001524065 0.00141541 0.001299175 0.001172666 0.001036417
 0.0008923959 0.0007419465 0.0005914566 0.0004416585 0.0002979591 0.0001596474 2.805563E-05 -9.805472E-05 -0.0002194715 -0.0003377788
 -0.0004541775 -0.0005710291 -0.0006899458 -0.000812698 -0.0009409512 -0.001072957 -0.001208929 -0.001345191 -0.00148076 -0.001615678
 -0.001749414 -0.001887611 -0.002030565 -0.002184303 -0.0023489 -0.002525737 -0.002714168 -0.002910565 -0.003113904 -0.003318249
 -0.003522855 -0.003722488 -0.003917641 -0.004106557 -0.004290627 -0.004471208 -0.00464843 -0.004823595 -0.004994147 -0.005159106
 -0.005315857 -0.00546223 -0.005600462 -0.00572963 -0.005857753 -0.005985769 -0.006122118 -0.00626815 -0.006426014 -0.006596085
 -0.006773019 -0.006956466 -0.007139569 -0.00732234 -0.00750162 -0.007677873 -0.007851514 -0.008022523 -0.008191159 -0.008356946
 -0.008519034 -0.008677294 -0.008830805 -0.008980828 -0.009127628 -0.009273983 -0.009421312 -0.009572736 -0.00973025 -0.009894109
 -0.01006535 -0.01024064 -0.01041973 -0.01059856 -0.01077658 -0.01095147 -0.01112301 -0.01129015 -0.01145279 -0.01160908
 -0.01175891 -0.01190037 -0.01203353 -0.01215737 -0.01227263 -0.01238028 -0.0124822 -0.01258191 -0.01268179 -0.01278672
 -0.01289715 -0.01301622 -0.01314019 -0.01326847 -0.0133949 -0.01351685 -0.01362966 -0.01373123 -0.01382022 -0.01389587
 -0.01395903 -0.01400953 -0.01405019 -0.01408114 -0.01410635 -0.01412606 -0.01414422 -0.01416091 -0.01417856 -0.01419693
 -0.01421647 -0.01423637 -0.01425492 -0.01427055 -0.01427945 -0.01428054 -0.01427013 -0.0142498 -0.01421878 -0.0141817
 -0.01414093 -0.01410108 -0.01406507 -0.01403415 -0.01400967 -0.01398965 -0.01397423 -0.01395988 -0.01394645 -0.01392893
 -0.01390703 -0.01387471 -0.01383181 -0.0137768 -0.01371065 -0.01364041 -0.01356761 -0.01350348 -0.01344767 -0.01340597
 -0.01337515 -0.01335209 -0.01333268 -0.01330985 -0.01328135 -0.01324184 -0.0131928 -0.01313273 -0.01306663 -0.01299606
 -0.01292592 -0.01285863 -0.01279407 -0.01273328 -0.01267107 -0.01260689 -0.01253676 -0.01246016 -0.01237942 -0.01229475
 -0.01221209 -0.01213139 -0.01205483 -0.0119815 -0.01190803 -0.01183408 -0.01175607 -0.01167587 -0.01159509 -0.01151658
 -0.01144554 -0.01138219 -0.01132975 -0.01128418 -0.01124456 -0.01120483 -0.01116227 -0.01111193 -0.01105127 -0.01097968
 -0.01089565 -0.0108055 -0.01070919 -0.01061821 -0.01053346 -0.01046333 -0.01040799 -0.01036415 -0.01033073 -0.01029577
 -0.01025908 -0.01021261 -0.01015889 -0.01010123 -0.01004246 -0.009991175 -0.009945767 -0.009908877 -0.00987461 -0.009837562
 -0.009794978 -0.009741664 -0.009682649 -0.009618588 -0.0095555 -0.009496664 -0.009439809 -0.009385662 -0.009327392 -0.009263672
 -0.009194276 -0.009118734 -0.009044919 -0.008973213 -0.008910592 -0.008856792 -0.008812091 -0.008775531 -0.008742499 -0.008712387
 -0.008680418 -0.008647649 -0.008613295 -0.008580357 -0.008553132 -0.008533088 -0.008524875 -0.008523856 -0.008529532 -0.008533397
 -0.008530865 -0.008517933 -0.008490924 -0.008455045 -0.008409969 -0.008365471 -0.00832312 -0.008287537 -0.008259677 -0.008233644
 -0.008209071 -0.008174659 -0.008130446 -0.008072031 -0.008001301 -0.007925656 -0.007846843 -0.007775115 -0.007709167 -0.007651596
 -0.007599441 -0.007548928 -0.007499208 -0.007447557 -0.007395305 -0.007342658 -0.007290555 -0.007239842 -0.00718975 -0.00714049
 -0.007089989 -0.00703802 -0.006981896 -0.006921133 -0.006854453 -0.006781496 -0.006705288 -0.006626011 -0.00654936 -0.006475415
 -0.006407396 -0.006344382 -0.006283267 -0.006222881 -0.006157343 -0.006087074 -0.006009662 -0.005927151 -0.005841803 -0.005754692
 -0.005668134 -0.005581541 -0.005494725 -0.005408654 -0.005322729 -0.005241792 -0.005167163 -0.005103208 -0.00505167 -0.00501205
 -0.004984951 -0.004965809 -0.004954468 -0.004944393 -0.004935216 -0.004919643 -0.004897531 -0.004864353 -0.004821207 -0.004771498
 -0.004716945 -0.004665578 -0.004617318 -0.004576465 -0.00454087 -0.00450888 -0.004479173 -0.004449495 -0.004419788 -0.00438992
 -0.004357987 -0.004323603 -0.004283015 -0.004234603 -0.004176932 -0.004108582 -0.004033724 -0.00395235 -0.003871494 -0.003791831
 -0.003717916 -0.003650001 -0.003586598 -0.003527274 -0.003466058 -0.003402885 -0.003333679 -0.003260055 -0.003185158 -0.003111133
 -0.003045312 -0.002986736 -0.002938435 -0.002895156 -0.00285258 -0.00280553 -0.002747718 -0.0026795 -0.002598163 -0.002509907
 -0.002415883 -0.002322949 -0.002233012 -0.002150017 -0.002074989 -0.002008938 -0.001952231 -0.001902898 -0.001860849 -0.00181996
 -0.001779748 -0.001732115 -0.001677219 -0.001611187 -0.00153583 -0.001454934 -0.001371325 -0.00129367 -0.001223332 -0.001167176
 -0.001123122 -0.001092208 -0.001069871 -0.001053016 -0.001037944 -0.001021534 -0.001003101 -0.0009817574 -0.0009574524 -0.0009302321
 -0.0008989077 -0.0008631212 -0.0008233504 -0.0007793834 -0.0007350445 -0.000690543 -0.0006486307 -0.0006090947 -0.0005695464 -0.0005293774
 -0.0004835865 -0.0004320056 -0.0003710329 -0.0003016204 -0.0002234514 -0.0001395023 -5.372377E-05 2.925143E-05 0.0001016095 0.0001632974
 0.0002091099 0.0002489821 0.0002856475 0.000331794 0.0003952016 0.0004730401 0.0005698886 0.0006595222 0.0007379086 0.000788274
 0.0008065219 0.0008108995 0.0008022109 0.0008022465 0.0008109133 0.000829941 0.0008575189 0.0008823966 0.0009046366 0.0009174234
 0.0009244207 0.0009314076 0.0009411721 0.0009624283 0.0009926098 0.001032857 0.00107801 0.001123476 0.00116818 0.001209502
 0.00125048 0.001292213 0.001334899 0.001379507 0.001421746 0.001460754 0.001495311 0.001524696 0.001555176 0.001587075
 0.001626704 0.001673907 0.001727022 0.001784864 0.001838814 0.001887954 0.001923732 0.001946998 0.001954352 0.00195005
 0.001938941 0.001927178 0.001925793 0.001933514 0.00195579 0.001980708 0.002001218 0.002014902 0.002014156 0.00202141
 0.00203998 0.002093903 0.002191063 0.002323066 0.0024922 0.002660021 0.002824256 0.002955802 0.003054857 0.003124902
 0.003168416 0.003204296 0.003233193 0.003267318 0.003306413 0.003355524 0.003415257 0.00348956 0.003577211 0.00368
 0.003791337 0.003907636 0.004019254 0.004119042 0.004202928 0.00426572 0.004314426 0.004348395 0.004382011 0.004417501
 0.004466673 0.004531748 0.004612518 0.004709395 0.004807875 0.004906947 0.004986953 0.005048214 0.005082265 0.005092952
 0.005090646 0.005080326 0.005081204 0.005094059 0.005130679 0.005185761 0.005258095 0.00534054 0.005425933 0.005511253
 0.005591763 0.005669987 0.005746159 0.005821632 0.005898152 0.005969458 0.006035245 0.006086294 0.006120742 0.006140821
 0.006146163 0.006155093 0.006168514 0.006204512 0.006261387 0.006336058 0.006423699 0.006501463 0.006568112 0.006606045
 0.006622665 0.006622971 0.006615343 0.006615941 0.006619957 0.006632318 0.006635464 0.006619361 0.006573855 0.00648826
 0.0063752 0.006233766 0.006087751 0.005942156 0.005808668 0.005690529 0.005579804 0.005476452 0.005363679 0.005240791
 0.005095491 0.004928592 0.004739458 0.004531649 0.004318425 0.004106177 0.003918999 0.003762 0.003659026 0.003604059
 0.003604428 0.003636824 0.003685571 0.003723347 0.00372571 0.00368679 0.003592825 0.003467494 0.003312183 0.003160392
 0.003019254 0.002908008 0.002831357 0.002784204 0.002767117 0.002754591 0.002746229</values></Ydata></AB><ScSm><Ydata ylabel="Single channel"><values byteorder="INTEL" format="FLOAT32" numvalues="1814"> 0.08329663 0.08340938 0.08353797 0.08368526 0.08384418 0.08400124 0.08414393 0.08426887 0.08438112 0.08448296
 0.08457362 0.08466347 0.08477482 0.08491939 0.08508295 0.08523685 0.08536035 0.08545648 0.08555318 0.08567753
 0.08581808 0.0859215 0.08594081 0.0858876 0.0858281 0.08582377 0.08588955 0.08602662 0.08626214 0.08658662
 0.08686474 0.08692175 0.08676095 0.08659704 0.08661863 0.08679983 0.08698512 0.08706169 0.08700503 0.08686922
 0.08681197 0.08704308 0.08763372 0.08836193 0.08878185 0.08848174 0.08735943 0.08576916 0.08443376 0.08406551
 0.08485316 0.08625141 0.0873892 0.08777198 0.08754845 0.08713546 0.08678311 0.0865714 0.08660541 0.08699633
 0.0876804 0.08834716 0.08856086 0.08804601 0.08699865 0.08605367 0.08576706 0.08618313 0.08702733 0.08803906
 0.08872699 0.0881221 0.08563507 0.08235846 0.08072692 0.08226825 0.08600421 0.08946742 0.09094852 0.09040168
 0.08873012 0.0869882 0.08610225 0.08655529 0.08807305 0.08989672 0.09138484 0.09218273 0.09206334 0.09103543
 0.08955657 0.0883386 0.08795081 0.0886544 0.09029701 0.09215323 0.0932143 0.0929819 0.09184191 0.09056532
 0.08974001 0.08974117 0.09076278 0.09258808 0.09460924 0.09627496 0.09737644 0.09792847 0.09803629 0.0978736
 0.09759596 0.09731759 0.09722857 0.09749772 0.09794032 0.09805677 0.09758966 0.09687457 0.09650153 0.09670749
 0.09717348 0.09740947 0.09724027 0.0967145 0.09560587 0.0935223 0.09070866 0.08817488 0.08671039 0.08632956
 0.0869106 0.08853009 0.09069055 0.0920857 0.09191555 0.09096643 0.09075984 0.09190629 0.09372328 0.0952265
 0.09608454 0.09666979 0.09747805 0.09856869 0.09942663 0.09934412 0.09814567 0.09663736 0.09607232 0.0969386
 0.09848176 0.09962812 0.1001108 0.100435 0.1009873 0.1014765 0.10119 0.09975995 0.09780166 0.09669356
 0.09743899 0.09967259 0.1018557 0.1024407 0.1009694 0.09831694 0.09595969 0.0949166 0.09535502 0.09701514
 0.09957328 0.1024791 0.1048659 0.1059912 0.1057512 0.1046628 0.1032979 0.1017494 0.0998373 0.09794144
 0.09721848 0.09851933 0.101296 0.1040377 0.1056643 0.1061256 0.1057879 0.1047021 0.1026983 0.1001395
 0.09825987 0.0982492 0.09989592 0.1016419 0.1022382 0.101913 0.1016612 0.1018881 0.1021893 0.1021803
 0.1020709 0.1023652 0.1032162 0.1042291 0.1048786 0.1049908 0.1047821 0.1045515 0.1043986 0.1041662
 0.1036856 0.1031565 0.1031334 0.1039424 0.1052418 0.1063643 0.1069737 0.1071998 0.1072354 0.1070089
 0.1063086 0.1052005 0.1042293 0.104032 0.1047187 0.1057907 0.1066712 0.107134 0.1072441 0.1071405
 0.1069434 0.1067229 0.1065152 0.1064041 0.1065064 0.1068171 0.1071636 0.1073769 0.1074289 0.1073704
 0.1072224 0.10698 0.1066824 0.1064337 0.1063385 0.1064187 0.1066095 0.1068257 0.106998 0.1070641
 0.1069903 0.1068159 0.1066272 0.1064792 0.1063765 0.1063212 0.1063327 0.1064113 0.1065131 0.106581
 0.1065908 0.1065545 0.1064892 0.1064009 0.1062985 0.1062059 0.106153 0.106157 0.1062045 0.1062571
 0.1062937 0.1063374 0.1064104 0.1064785 0.1064805 0.1064087 0.1063204 0.1062741 0.1062831 0.1063247
 0.1063665 0.1063772 0.1063311 0.1062248 0.1061003 0.106034 0.1060804 0.1062322 0.1064444 0.1066716
 0.1068709 0.1070068 0.1070807 0.1071313 0.1071878 0.1072428 0.1072788 0.1073033 0.1073517 0.1074597
 0.1076282 0.1078175 0.1079821 0.1081034 0.1081881 0.108259 0.1083518 0.1084848 0.1086215 0.1087013
 0.1087192 0.1087412 0.1088246 0.1089523 0.1090602 0.1091119 0.1091308 0.1091679 0.1092476 0.1093529
 0.1094553 0.1095493 0.109653 0.1097774 0.1098988 0.1099673 0.1099569 0.1098997 0.1098555 0.1098524
 0.1098771 0.1099159 0.1099758 0.1100601 0.1101448 0.110196 0.1102043 0.1101944 0.110197 0.1102131
 0.1102145 0.1101794 0.1101172 0.1100576 0.1100218 0.1100075 0.1099964 0.1099689 0.1099163 0.1098421
 0.1097566 0.1096689 0.1095816 0.1094948 0.1094224 0.1093912 0.1094058 0.109417 0.109352 0.1091856
 0.1089674 0.108771 0.1086296 0.1085229 0.1084118 0.1082755 0.1081211 0.1079678 0.1078275 0.1076985
 0.1075742 0.1074541 0.1073488 0.1072777 0.1072523 0.1072533 0.1072338 0.1071588 0.1070403 0.1069233
 0.1068417 0.1067958 0.106768 0.1067442 0.1067241 0.1067187 0.1067368 0.1067696 0.1067956 0.1068055
 0.1068129 0.1068395 0.106901 0.1070041 0.107137 0.1072647 0.1073542 0.107411 0.1074746 0.1075737
 0.1077018 0.1078392 0.1079821 0.1081408 0.1083193 0.1085103 0.108708 0.1089177 0.109149 0.1094034
 0.1096692 0.1099302 0.1101801 0.1104307 0.1107033 0.1110102 0.1113429 0.1116779 0.1119961 0.1122979
 0.1125993 0.112913 0.1132371 0.1135638 0.1138952 0.1142416 0.1146068 0.1149837 0.115363 0.1157401
 0.1161138 0.1164836 0.1168502 0.1172195 0.1176033 0.1180113 0.1184349 0.1188437 0.11921 0.1195374
 0.1198579 0.1202023 0.1205783 0.1209703 0.1213503 0.1216954 0.1220079 0.1223168 0.1226473 0.1229942
 0.1233365 0.1236743 0.1240331 0.1244286 0.1248362 0.1252058 0.1255083 0.1257636 0.1260192 0.1263002
 0.1265878 0.1268519 0.1270919 0.1273344 0.1275955 0.1278668 0.1281412 0.1284299 0.1287422 0.1290621
 0.1293603 0.1296252 0.1298686 0.1301046 0.1303328 0.1305393 0.1307107 0.1308504 0.1309839 0.1311395
 0.131321 0.1315102 0.1316956 0.1318867 0.1320976 0.1323307 0.1325847 0.1328639 0.1331682 0.1334817
 0.1337875 0.134093 0.1344213 0.1347734 0.1351124 0.1354029 0.1356514 0.1358922 0.1361444 0.1364055
 0.1366794 0.1369836 0.1373251 0.1376867 0.1380421 0.1383776 0.1387011 0.1390352 0.1393927 0.1397547
 0.1400797 0.1403448 0.1405684 0.1407917 0.1410448 0.1413317 0.1416363 0.1419368 0.1422163 0.1424634
 0.142664 0.1428019 0.1428762 0.1429087 0.1429185 0.1428935 0.1427956 0.1425934 0.1422767 0.1418407
 0.1412719 0.1405625 0.1397385 0.1388726 0.1380693 0.1374346 0.1370485 0.1369531 0.1371527 0.1376124
 0.138256 0.1389747 0.1396503 0.1401755 0.1404638 0.140458 0.1401461 0.1395655 0.1387849 0.1378763
 0.1369016 0.1359094 0.134937 0.1340274 0.1332628 0.1327773 0.1327243 0.1332217 0.1343146 0.1359569
 0.1380005 0.1402119 0.1423448 0.144231 0.1458222 0.1471601 0.1483181 0.1493624 0.1503382 0.1512654
 0.1521434 0.1529656 0.1537333 0.1544534 0.1551241 0.1557308 0.1562517 0.1566663 0.1569652 0.1571598
 0.1572797 0.1573551 0.1574058 0.1574449 0.1574775 0.157483 0.1574078 0.1571879 0.1567852 0.1562097
 0.1555299 0.1548813 0.1544698 0.1545378 0.1552757 0.156708 0.1586463 0.1607706 0.1627813 0.1645002
 0.1658742 0.1669339 0.1677555 0.1684257 0.1690106 0.1695452 0.1700451 0.1705188 0.1709712 0.1714067
 0.1718312 0.172251 0.1726706 0.1730925 0.1735153 0.1739336 0.1743433 0.1747475 0.1751557 0.1755751
 0.1760014 0.176422 0.1768324 0.1772441 0.1776689 0.1780979 0.1785088 0.178892 0.1792607 0.1796358
 0.1800279 0.1804333 0.1808381 0.1812256 0.1815888 0.1819355 0.1822796 0.1826263 0.1829701 0.1833055
 0.1836335 0.1839589 0.1842846 0.1846117 0.1849421 0.1852756 0.1856052 0.1859199 0.1862163 0.1865032
 0.1867933 0.1870907 0.1873895 0.1876826 0.1879702 0.1882606 0.1885635 0.1888812 0.1892058 0.1895246
 0.1898306 0.1901252 0.1904143 0.1907032 0.1909954 0.1912928 0.1915937 0.1918926 0.1921852 0.1924734
 0.1927646 0.1930633 0.1933669 0.1936679 0.1939623 0.1942515 0.1945393 0.1948285 0.1951206 0.1954158
 0.1957127 0.1960083 0.1962994 0.196585 0.1968654 0.197141 0.1974118 0.1976799 0.1979496 0.1982232
 0.1984995 0.1987755 0.1990493 0.1993205 0.1995901 0.1998596 0.2001298 0.2004001 0.2006695 0.2009374
 0.2012047 0.2014734 0.2017459 0.2020222 0.2022989 0.2025725 0.2028421 0.2031089 0.2033751 0.2036411
 0.203905 0.2041666 0.2044306 0.2047029 0.2049831 0.2052656 0.2055449 0.2058198 0.2060913 0.2063609
 0.2066282 0.2068922 0.2071552 0.2074223 0.2076961 0.2079737 0.2082505 0.2085237 0.2087956 0.2090711
 0.2093524 0.2096339 0.2099086 0.2101767 0.2104435 0.2107117 0.2109823 0.2112571 0.2115363 0.2118161
 0.2120924 0.2123643 0.2126333 0.2129017 0.2131712 0.2134417 0.2137115 0.2139815 0.2142536 0.2145284
 0.2148061 0.2150853 0.2153619 0.2156323 0.2158995 0.2161692 0.2164439 0.2167252 0.2170146 0.2173088
 0.2175997 0.2178823 0.2181588 0.218435 0.2187148 0.2189951 0.2192666 0.219525 0.2197776 0.2200324
 0.2202873 0.2205377 0.2207862 0.2210388 0.2212996 0.2215704 0.2218495 0.2221309 0.2224114 0.2226925
 0.2229752 0.2232593 0.223545 0.2238309 0.2241139 0.2243967 0.2246853 0.2249787 0.2252714 0.2255629
 0.2258555 0.2261489 0.2264432 0.2267387 0.2270305 0.2273153 0.2275985 0.2278864 0.2281769 0.2284681
 0.2287625 0.22906 0.2293571 0.2296539 0.2299521 0.2302511 0.2305543 0.2308652 0.2311783 0.2314852
 0.2317851 0.2320803 0.2323708 0.2326626 0.2329634 0.2332707 0.2335782 0.2338863 0.2341948 0.2344977
 0.2347944 0.2350883 0.235377 0.2356601 0.2359474 0.2362423 0.2365358 0.2368242 0.2371099 0.2373831
 0.2376188 0.2377638 0.2376763 0.2370524 0.2353812 0.2319532 0.2259974 0.2169848 0.2049411 0.1905442
 0.1749415 0.1593934 0.1449262 0.1321851 0.1215131 0.1130888 0.1070222 0.1034349 0.1025249 0.1046627
 0.1105213 0.1206735 0.1341185 0.1470161 0.15413 0.1527924 0.1453193 0.1369094 0.1314166 0.1294663
 0.1297628 0.1310193 0.1327181 0.1349741 0.1380963 0.1421307 0.1468095 0.1519919 0.157922 0.1648481
 0.1725319 0.1803348 0.1877499 0.1947251 0.201477 0.2081 0.214417 0.220149 0.2251312 0.2293653
 0.2329598 0.236064 0.2388128 0.2412979 0.2435821 0.2457021 0.2476233 0.2492227 0.2503625 0.2510002
 0.2512378 0.2512734 0.2512936 0.2513946 0.2515913 0.2518747 0.2522372 0.252668 0.2531561 0.2536931
 0.2542638 0.2548476 0.2554315 0.256007 0.256561 0.2570847 0.2575809 0.2580552 0.2585087 0.2589438
 0.259362 0.2597615 0.2601441 0.2605172 0.2608854 0.2612476 0.2616043 0.2619547 0.2622926 0.2626128
 0.2629148 0.2631974 0.2634618 0.2637184 0.2639776 0.2642395 0.2644998 0.2647601 0.2650226 0.2652835
 0.265537 0.2657794 0.2660132 0.2662469 0.2664881 0.2667339 0.2669763 0.2672136 0.2674484 0.2676812
 0.2679133 0.2681493 0.26839 0.2686298 0.2688641 0.2690944 0.2693286 0.2695769 0.2698425 0.270115
 0.2703819 0.2706448 0.2709121 0.2711842 0.2714548 0.2717225 0.2719919 0.2722677 0.2725504 0.2728341
 0.2731065 0.2733561 0.2735811 0.273791 0.2740024 0.2742292 0.2744721 0.27472 0.2749641 0.2752051
 0.2754461 0.2756871 0.275928 0.2761695 0.2764128 0.2766636 0.2769308 0.2772158 0.2775099 0.2778057
 0.2781036 0.2784041 0.2787047 0.2790036 0.2792979 0.2795819 0.2798517 0.2801159 0.2803961 0.2807135
 0.2810675 0.2814301 0.2817704 0.282084 0.28239 0.282707 0.2830403 0.283379 0.2836938 0.2839557
 0.2841785 0.2844247 0.2847499 0.285149 0.2855689 0.2859628 0.2863212 0.2866589 0.2869886 0.2873066
 0.2875986 0.2878548 0.2880877 0.2883401 0.2886577 0.2890429 0.2894464 0.2898175 0.2901457 0.2904456
 0.2907312 0.2910133 0.2912845 0.2914999 0.2916222 0.2917067 0.2918932 0.2922754 0.2927994 0.2933191
 0.2937386 0.2940721 0.294376 0.2946759 0.2949694 0.2952323 0.2953826 0.2953241 0.2951142 0.2950223
 0.2953086 0.2959606 0.2967263 0.2973735 0.2978422 0.2981876 0.2984767 0.2987452 0.2989762 0.2990985
 0.2990617 0.2989553 0.2989998 0.2993468 0.2999074 0.3004497 0.3008443 0.301138 0.3014225 0.3017289
 0.3020114 0.3021285 0.3019059 0.3013754 0.3009315 0.3010733 0.3019226 0.3030844 0.3040403 0.3046079
 0.3049447 0.3051856 0.3052465 0.3049823 0.3043674 0.3035075 0.3026871 0.3024077 0.3030581 0.3044153
 0.3057395 0.3065148 0.3068918 0.3073098 0.3079293 0.3085651 0.3089891 0.3091347 0.3090615 0.308821
 0.3084288 0.308015 0.3079182 0.3084463 0.3095182 0.3106806 0.3115343 0.3120474 0.3123772 0.3124088
 0.3116329 0.3097486 0.3074608 0.3063073 0.3072945 0.3098384 0.3123959 0.3139901 0.314749 0.3151851
 0.3155267 0.3156511 0.3150758 0.3131201 0.3098325 0.3067971 0.3061703 0.3085561 0.3123302 0.3152143
 0.3160118 0.3148491 0.3126032 0.3104999 0.3096774 0.3105645 0.3126988 0.3151984 0.3172934 0.3185387
 0.3188411 0.3184103 0.3176719 0.3171574 0.31717 0.3173294 0.3168096 0.3154119 0.3139476 0.3129883
 0.3118179 0.3096048 0.307256 0.3068551 0.3090853 0.3122423 0.3142096 0.3146257 0.3145051 0.3141958
 0.312542 0.3084069 0.3027755 0.2987336 0.2988265 0.3025152 0.3067104 0.3088092 0.3087548 0.3081527
 0.3080101 0.3076725 0.305804 0.3022797 0.2989252 0.2978866 0.2992268 0.3008326 0.3007539 0.2985791
 0.2944175 0.2883997 0.2822729 0.2797365 0.2831783 0.2906998 0.2977909 0.3012201 0.300049 0.2942953
 0.2852613 0.2769195 0.2741252 0.2781405 0.2851595 0.2899902 0.290149 0.2859682 0.2784731 0.2689254
 0.2599107 0.255022 0.2565671 0.2637098 0.272643 0.2782452 0.276693 0.2685174 0.2593543 0.2557032
 0.2588245 0.263917 0.2657693 0.2636614 0.2602794 0.2580466 0.2577812 0.2591661 0.2611123 0.262612
 0.2635152 0.263122 0.2587564 0.2487367 0.2368168 0.2301974 0.2320983 0.239169 0.2469486 0.2543496
 0.2611759 0.2649186 0.263436 0.2592179 0.2577932 0.2618301 0.2685952 0.2734346 0.2744898 0.2734515
 0.2724766 0.2716064 0.2698397 0.2679227 0.2683925 0.272413 0.2779501 0.2819808 0.2835332 0.2836898
 0.2835502 0.2833059 0.2828025 0.281997 0.2809233 0.2797122 0.2785791 0.2775837 0.276587 0.2755325
 0.2743701 0.272441 0.2685372 0.2624964 0.2565528 0.2537973 0.2549333 0.2578359 0.2605807 0.2628204
 0.2632536 0.2585929 0.2478531 0.2361872 0.2313472 0.2362019 0.2464554 0.2554695 0.2595072 0.258198
 0.2523006 0.2433566 0.2352849 0.2337015 0.2415988 0.2562256 0.2715642 0.2834177 0.2910046 0.2946405
 0.2941518 0.2900731 0.2849827 0.2824832 0.2847488 0.2911183 0.2986122 0.3033024 0.3020149 0.2949449
 0.2874116 0.2866279 0.2945144 0.3051225 0.3111973 0.3117839 0.3111508 0.312029 0.3132753 0.3136268
 0.3143317 0.3170399 0.3210829 0.3240267 0.3238515 0.3198025 0.3123735 0.3038891 0.2981432 0.2974186
 0.2999978 0.302161 0.3020185 0.299553 0.2942796 0.2862705 0.2790999 0.277927 0.2836297 0.2914785
 0.2965261 0.2982128 0.2988486 0.2994411 0.2985047 0.2945489 0.288723 0.2843196 0.283541 0.2854134
 0.2873729 0.2880341 0.2874147 0.2853433 0.281456 0.2768808 0.2743868 0.2759459 0.2806512 0.2856253
 0.2886873 0.2896978 0.2897106 0.2896241 0.2896956 0.289717 0.2894702 0.2893522 0.2904029 0.2931659
 0.2966966 0.2994118 0.3009108 0.3022979 0.3046277 0.3076141 0.3100651 0.3112052 0.3113644 0.3115759
 0.3126541 0.3145259 0.316299 0.3170451 0.3167052 0.3162545 0.3168214 0.3186142 0.320843 0.322634
 0.3237687 0.3245592 0.3253452 0.3262076 0.3269283 0.3271704 0.3269144 0.3267253 0.3273268 0.3288472
 0.3306696 0.3320611 0.332776 0.3330137 0.3330004 0.3327699 0.3322898 0.3316498 0.3310617 0.3307022
 0.3305944 0.3306379 0.330714 0.3307525 0.3307445 0.3307334 0.3307838 0.3309289 0.331154 0.3314297
 0.3317329 0.3320259 0.3322596 0.3324215 0.332548 0.3326613 0.3327178 0.3326374 0.3323554 0.3318318
 0.3310321 0.3299275 0.3284985 0.3267178 0.3245525 0.3220641 0.3195802 0.3177378 0.317221 0.3183221
 0.3207064 0.3236045 0.3262565 0.328241 0.3295091 0.3302175 0.3305569 0.3306701 0.3306416 0.3305095
 0.3302866 0.3299851 0.3296254 0.3292286 0.328815 0.3284115 0.3280476 0.3277363 0.327461 0.327181
 0.3268487 0.3264309 0.3259206 0.3253312 0.3246777 0.3239577 0.3231454 0.3222116 0.3211579 0.320035
 0.318917 0.3178541 0.3168428 0.3158389 0.3147962 0.3136827 0.3124528 0.3110307 0.3093846 0.3076325
 0.3060119 0.3046865 0.3035996 0.3025446 0.3013512 0.2999752 0.2984515 0.2968289 0.29515 0.2934461
 0.2917256 0.2899743 0.2881698 0.2862961 0.2843478 0.2823257 0.28023 0.2780642 0.2758447 0.2735936
 0.2713006 0.2688881 0.2662194 0.2631404 0.2595204 0.2552712 0.2503657 0.2448648 0.2389318 0.2328014
 0.2267141 0.220869 0.2154213 0.210503 0.2062318 0.2027044 0.1999888 0.1981231 0.1971204 0.1969781
 0.1976805 0.1991907 0.2014357 0.2042968 0.2076114 0.2111878 0.2148231 0.2183277 0.2215704 0.2245224
 0.2272482 0.229827 0.2322777 0.2345616 0.2366371 0.2384904 0.2401221 0.2415309 0.2427216 0.2437185
 0.2445648 0.2453059 0.2459717 0.2465674 0.2470808 0.247504 0.247848 0.2481421 0.2484213 0.248718
 0.2490573 0.2494529 0.2499066 0.2504191 0.2509988 0.2516583 0.2524038 0.2532295 0.2541177 0.2550448
 0.2559965 0.2569826 0.2580388 0.259214 0.2605516 0.2620719 0.2637637 0.2655854 0.2674686 0.2693191
 0.2710274 0.2724966 0.2736716 0.2745457 0.2751442 0.2755009 0.275645 0.2756017 0.2753954 0.2750499
 0.2745875 0.2740307 0.2734001 0.272705 0.2719416 0.2711059 0.2702113 0.2692921 0.2683854 0.2675049
 0.2666382 0.2657696 0.2648982 0.2640318 0.2631775 0.2623419 0.2615322 0.2607535 0.2600086 0.2592964
 0.2586043 0.2579064 0.2571681 0.2563506 0.2554146 0.2543321 0.2530926 0.2516928 0.250129 0.2484064
 0.2465482 0.2445884 0.242554 0.240452 0.2382722 0.236001 0.2336306 0.2311595 0.2286076 0.2260377
 0.2235436 0.221203 0.2190443 0.2170533 0.2151955 0.2134372 0.2117605 0.210162 0.2086381 0.2071829
 0.2057935 0.204467 0.2031977 0.2019878 0.2008553 0.1998253 0.1989186 0.1981424 0.1974831 0.1969146
 0.1964198 0.1959956 0.1956481 0.1954008 0.1952881 0.1953109 0.1954035 0.1954668 0.195434 0.1953059
 0.1951377 0.1949947 0.1949112 0.1948855 0.1948943 0.1948843 0.1947628 0.1944214 0.1937684 0.192734
 0.191279 0.1894244 0.1872612 0.1849308 0.1826027 0.1804434 0.1785741 0.1770535 0.1758882 0.1750302
 0.1743842 0.1738665 0.1734675 0.1732476 0.1732787 0.1735625 0.1739672 0.174282 0.1744024 0.1744489
 0.1746621 0.1751984 0.1760397 0.1770433 0.1780404 0.1789137 0.179616 0.1801421 0.180511 0.1807624
 0.1809264 0.1809957 0.180948 0.1807745 0.180476 0.1800661 0.1795768 0.1790226 0.1783794 0.1776258
 0.1767702 0.1758186 0.1747648 0.1736085 0.1723339 0.1709069 0.1693743 0.1679471 0.1669286 0.1665518
 0.166857 0.1676735 0.1687374 0.1698669 0.1709854 0.1719984 0.1727956 0.1734391 0.1742422 0.1755617
 0.1774977 0.1797877 0.1819835 0.1837379 0.1849207 0.1855249 0.1855824 0.1851599 0.1843033 0.1829904
 0.18123 0.1791449 0.176886 0.1745733 0.1723497 0.1703501 0.1686237 0.1671803 0.1660239 0.1651502
 0.16462 0.1641676 0.1622404 0.1565331 0.1472535 0.139253 0.1383711 0.1451443 0.1540687 0.1595148
 0.1605151 0.159427 0.1582091 0.157276 0.1565476 0.1560987 0.1559937 0.1561352 0.1563058 0.1562775
 0.1559555 0.1553578 0.1543618 0.1524729 0.1488166 0.1424523 0.1330718 0.1216388 0.1101733 0.1006748
 0.0941409 0.09036835 0.08838165 0.08710496 0.08598154 0.08517274 0.08519214 0.08637718 0.08870135 0.09193989
 0.09583312 0.1000513 0.1041354 0.1076434 0.1103876 0.1124475 0.1139492 0.1149313 0.1154104 0.1154496
 0.1151294 0.114526 0.113717 0.1127459 0.1115888 0.1102113 0.1086774 0.10719 0.1059988 0.1052342
 0.104831 0.104631 0.1045284 0.1044938 0.1045158 0.1045792 0.1046791 0.1048243 0.1050365 0.1053361
 0.1057003 0.1060554 0.1063355 0.10653 0.1066608 0.1067317 0.1067046 0.1065308 0.10623 0.1059049
 0.1056003 0.1051673 0.1043791 0.1032153 0.1019752 0.1010872 0.1008191 0.1011247 0.1017069 0.1022321
 0.1025313 0.1026398 0.1026693 0.1026471</values></Ydata></ScSm><ScRf><Ydata ylabel="Single channel"><values byteorder="INTEL" format="FLOAT32" numvalues="1820"> 0.06960554 0.06974143 0.06985892 0.06995544 0.07003884 0.0701265 0.07023466 0.07036576 0.07050765 0.07064448
 0.07076715 0.07087623 0.07097606 0.07106598 0.07114382 0.07121939 0.07131404 0.07144046 0.07158747 0.07172728
 0.07183592 0.07191348 0.07198814 0.07208952 0.07220979 0.07230017 0.07231706 0.07226992 0.07221748 0.07221498
 0.07227667 0.07240259 0.07261221 0.07289282 0.07312711 0.07316908 0.07302757 0.07288957 0.07291396 0.07307228
 0.07322748 0.07328583 0.07323353 0.07312103 0.07308011 0.07328287 0.07378506 0.07439871 0.07475051 0.07449672
 0.07355198 0.07221279 0.07108758 0.07078015 0.07145375 0.0726476 0.07362077 0.07395029 0.07376129 0.07340947
 0.07310955 0.07293043 0.07296072 0.07329413 0.0738762 0.07444288 0.07462436 0.07418834 0.0733031 0.07250728
 0.07227023 0.07262786 0.07334771 0.07420929 0.07479477 0.07428226 0.07217613 0.06940802 0.06804162 0.06936494
 0.07254149 0.0754784 0.07672967 0.07625983 0.07483755 0.07335979 0.07261336 0.07300633 0.07430278 0.07585591
 0.07711935 0.07779227 0.07768582 0.07681258 0.07556321 0.07453977 0.07422063 0.07482247 0.07621342 0.07778008
 0.07867289 0.07847532 0.07751624 0.0764464 0.07575977 0.07577153 0.07664511 0.07819679 0.07991166 0.08132327
 0.08225599 0.08272358 0.08281627 0.0826821 0.08245361 0.08222755 0.08216339 0.08240154 0.08278329 0.08288556
 0.08249268 0.08189087 0.08157912 0.08175568 0.08214945 0.08234712 0.08220303 0.0817595 0.08082375 0.07906206
 0.07668196 0.07454017 0.0733059 0.07299212 0.07349867 0.07489271 0.07674766 0.07794578 0.07780331 0.0769929
 0.07681604 0.07779641 0.07935221 0.08064136 0.08137792 0.08187869 0.08256925 0.08350363 0.08424303 0.08418205
 0.08317007 0.08189481 0.08142431 0.08217309 0.08349743 0.08448276 0.08490206 0.08518596 0.08566476 0.08609129
 0.08585934 0.0846566 0.08300726 0.08208338 0.08273653 0.08465522 0.08653089 0.08704571 0.08580746 0.0835615
 0.08156829 0.0806986 0.08109661 0.08254161 0.08475597 0.08726591 0.0893293 0.0903141 0.0901353 0.08923601
 0.08810505 0.086821 0.08522758 0.08364642 0.08306526 0.08421309 0.08662379 0.08900751 0.09044139 0.09088136
 0.09063803 0.08975215 0.08807786 0.08592939 0.08436885 0.08441651 0.08588585 0.08743477 0.08799215 0.08775875
 0.08759138 0.08783717 0.08814844 0.08819729 0.08816446 0.08848032 0.08927356 0.09020443 0.09082136 0.09097446
 0.0908504 0.09070934 0.09063897 0.09050303 0.09015499 0.08976819 0.08982159 0.09059262 0.09178078 0.09280916
 0.09339298 0.09365019 0.09374678 0.09361371 0.09306109 0.09214842 0.09136054 0.09126206 0.09194742 0.09296928
 0.09381282 0.09427977 0.09443474 0.09440635 0.09430161 0.09418122 0.09407529 0.09405409 0.09421565 0.09455222
 0.0949138 0.09515756 0.09526429 0.09527998 0.09522066 0.09507921 0.09488866 0.09473898 0.0947201 0.09485118
 0.09507678 0.0953241 0.09553467 0.09565502 0.09565504 0.09556693 0.0954641 0.09539397 0.09536146 0.09537043
 0.0954391 0.09556609 0.0957104 0.09582284 0.09588595 0.09591252 0.09591447 0.0958923 0.09585294 0.09582147
 0.0958286 0.09588881 0.09598626 0.09608592 0.09617302 0.0962716 0.09639995 0.09652151 0.09657653 0.0965572
 0.09651823 0.0965164 0.09656534 0.09664389 0.09672219 0.09677254 0.09677207 0.09671734 0.09664552 0.09662473
 0.09670439 0.09688064 0.09711584 0.09736872 0.09759651 0.09776367 0.09787056 0.09795179 0.0980323 0.09810524
 0.09815888 0.09820658 0.09828426 0.09842281 0.09861855 0.09883062 0.09901423 0.0991517 0.09925097 0.0993362
 0.09944348 0.09959164 0.09974593 0.09984528 0.09988037 0.0999127 0.1000005 0.1001315 0.1002453 0.1003051
 0.1003322 0.1003754 0.1004595 0.1005684 0.100672 0.1007632 0.1008616 0.1009838 0.10111 0.1011897
 0.1011915 0.1011431 0.1011046 0.1011072 0.101138 0.1011806 0.1012405 0.1013232 0.1014078 0.1014602
 0.1014696 0.10146 0.1014614 0.1014753 0.1014761 0.1014443 0.1013883 0.1013333 0.1012975 0.1012829
 0.1012779 0.1012657 0.1012337 0.1011792 0.1011088 0.1010311 0.100951 0.1008745 0.1008193 0.1008106
 0.1008475 0.1008783 0.1008303 0.100677 0.1004681 0.1002832 0.1001634 0.1000888 0.1000111 0.09989758
 0.09974951 0.09958997 0.09944152 0.09931195 0.09919477 0.09908104 0.09897417 0.09889363 0.09885553 0.09884411
 0.09881261 0.09872479 0.09859124 0.09845555 0.09835112 0.09828125 0.09823194 0.09818926 0.09814858 0.09811889
 0.09811218 0.09812313 0.09812911 0.09811796 0.09810431 0.09811345 0.09816074 0.09824771 0.09835908 0.09846011
 0.09851851 0.09853873 0.09856194 0.09862442 0.09872651 0.09884575 0.09896602 0.09908652 0.09921286 0.0993512
 0.09950884 0.09969206 0.09990074 0.1001263 0.1003556 0.100578 0.1007915 0.101005 0.1012338 0.1014888
 0.1017679 0.1020566 0.1023391 0.1026098 0.1028751 0.1031427 0.1034146 0.1036908 0.1039774 0.1042823
 0.1046034 0.1049291 0.1052502 0.1055675 0.1058869 0.10621 0.1065333 0.1068565 0.1071903 0.1075483
 0.1079257 0.1082915 0.108614 0.1088933 0.1091618 0.1094555 0.1097877 0.1101421 0.1104825 0.1107792
 0.1110378 0.1112964 0.1115855 0.1118958 0.1121994 0.1124945 0.1128123 0.1131743 0.1135541 0.1138938
 0.1141595 0.1143742 0.1145917 0.1148386 0.1150929 0.1153206 0.1155203 0.1157209 0.1159422 0.116178
 0.1164181 0.1166687 0.116938 0.117214 0.1174724 0.1177026 0.1179147 0.118119 0.1183097 0.1184702
 0.1185899 0.1186799 0.1187707 0.1188889 0.1190321 0.1191775 0.1193134 0.1194521 0.1196095 0.1197873
 0.1199846 0.1202081 0.1204593 0.1207189 0.1209653 0.1212074 0.121477 0.1217808 0.1220782 0.1223248
 0.1225232 0.1227105 0.1229082 0.123112 0.1233237 0.1235641 0.1238467 0.1241578 0.1244682 0.1247579
 0.1250304 0.1253087 0.1256103 0.1259198 0.1261957 0.1264122 0.1265871 0.1267652 0.12698 0.1272355
 0.1275138 0.1277936 0.1280624 0.1283117 0.1285243 0.1286792 0.1287762 0.1288432 0.1289026 0.1289387
 0.1289088 0.1287833 0.1285586 0.1282335 0.1277923 0.1272222 0.1265459 0.125832 0.1251752 0.1246663
 0.1243721 0.1243286 0.1245389 0.1249691 0.1255489 0.126184 0.1267782 0.1272468 0.1275197 0.1275473
 0.1273154 0.1268521 0.1262137 0.1254627 0.1246544 0.1238313 0.1230246 0.1222741 0.1216579 0.1212984
 0.1213261 0.1218299 0.122825 0.1242385 0.1259091 0.1276248 0.1292029 0.1305581 0.1317037 0.1326953
 0.1335817 0.1343947 0.1351589 0.1358899 0.1365887 0.1372478 0.1378645 0.1384427 0.1389833 0.1394769
 0.1399049 0.1402462 0.1404894 0.1406441 0.1407369 0.140792 0.1408199 0.1408258 0.1408141 0.1407741
 0.1406686 0.1404493 0.1400896 0.1396058 0.1390661 0.138593 0.138354 0.1385203 0.1391916 0.1403331
 0.1417805 0.14332 0.1447749 0.1460378 0.1470628 0.1478568 0.1484728 0.1489813 0.149435 0.1498578
 0.1502574 0.1506366 0.1509968 0.1513405 0.151674 0.1520052 0.1523401 0.1526804 0.1530224 0.1533585
 0.1536853 0.1540084 0.15434 0.1546885 0.1550489 0.1554056 0.1557477 0.1560813 0.1564195 0.1567637
 0.1571011 0.1574232 0.157736 0.1580526 0.1583818 0.1587239 0.1590693 0.1594027 0.1597141 0.1600078
 0.1602952 0.1605819 0.1608654 0.1611428 0.1614157 0.1616874 0.1619606 0.1622384 0.162523 0.1628123
 0.1630973 0.1633675 0.1636195 0.1638601 0.1641002 0.1643464 0.1645986 0.1648525 0.165105 0.1653571
 0.1656142 0.1658805 0.1661529 0.1664218 0.1666801 0.1669287 0.1671747 0.1674239 0.1676761 0.1679269
 0.168172 0.168412 0.1686522 0.1688984 0.1691523 0.1694109 0.1696686 0.1699208 0.1701657 0.170406
 0.1706462 0.1708897 0.1711376 0.1713898 0.1716462 0.1719041 0.1721573 0.1724007 0.1726345 0.1728635
 0.1730926 0.1733246 0.1735598 0.1737956 0.1740279 0.1742569 0.1744877 0.1747258 0.1749714 0.1752198
 0.175466 0.1757081 0.1759479 0.1761876 0.1764275 0.1766676 0.1769082 0.1771491 0.1773898 0.1776304
 0.1778707 0.1781098 0.178348 0.1785868 0.1788253 0.1790603 0.1792911 0.1795214 0.1797544 0.1799906
 0.1802281 0.180465 0.1807011 0.1809381 0.1811758 0.1814103 0.1816382 0.1818625 0.1820886 0.182319
 0.1825529 0.1827879 0.183022 0.1832543 0.1834851 0.1837146 0.1839442 0.1841767 0.1844142 0.1846551
 0.1848963 0.1851367 0.1853759 0.1856134 0.1858494 0.1860853 0.1863216 0.186559 0.1867982 0.1870388
 0.1872794 0.1875202 0.1877619 0.1880042 0.1882485 0.1884968 0.188748 0.1889984 0.1892467 0.1894944
 0.189744 0.1899985 0.1902592 0.1905231 0.1907857 0.1910455 0.1913023 0.191553 0.1917939 0.1920232
 0.1922413 0.1924538 0.1926702 0.192895 0.1931229 0.1933485 0.1935738 0.1938029 0.1940377 0.194278
 0.194521 0.1947621 0.1950005 0.1952407 0.1954861 0.1957376 0.1959946 0.1962532 0.1965079 0.1967601
 0.1970158 0.1972756 0.1975352 0.1977939 0.1980515 0.1983061 0.1985593 0.1988176 0.1990821 0.1993498
 0.1996199 0.1998915 0.2001602 0.2004252 0.2006913 0.2009607 0.2012317 0.2015032 0.2017722 0.2020342
 0.2022909 0.2025488 0.2028103 0.2030758 0.2033465 0.2036188 0.2038867 0.2041555 0.2044353 0.2047229
 0.2050068 0.2052836 0.2055546 0.205819 0.2060809 0.2063473 0.2066165 0.2068836 0.2071514 0.2074218
 0.2076916 0.2079606 0.2082286 0.2084814 0.2086947 0.2088247 0.2087529 0.2082165 0.2067658 0.2037716
 0.1985506 0.1906369 0.1800558 0.1674037 0.1536865 0.1400105 0.1272809 0.1160722 0.1066931 0.09930125
 0.09398519 0.09084141 0.09004219 0.09192237 0.09708396 0.1060342 0.1178889 0.1292615 0.1355357 0.1343604
 0.127779 0.1203763 0.1155477 0.1138384 0.1141016 0.1152056 0.1167027 0.1186997 0.1214672 0.1250391
 0.1291747 0.1337511 0.138989 0.1451121 0.1519097 0.1588133 0.1653718 0.1715398 0.1775121 0.1833743
 0.1889694 0.1940481 0.1984609 0.2022078 0.2053884 0.2081417 0.2105907 0.2128145 0.2148628 0.2167629
 0.2184813 0.2199086 0.2209259 0.2215005 0.2217263 0.2217783 0.2218193 0.2219328 0.2221324 0.2224095
 0.2227554 0.2231584 0.2236104 0.224108 0.2246393 0.225184 0.2257271 0.2262603 0.2267758 0.2272689
 0.2277408 0.2281903 0.2286142 0.2290149 0.2293976 0.229765 0.2301218 0.2304766 0.2308322 0.2311848
 0.2315316 0.2318708 0.2321968 0.2325057 0.2327998 0.2330815 0.2333519 0.2336146 0.2338736 0.2341291
 0.234382 0.2346356 0.23489 0.2351416 0.2353885 0.2356304 0.2358661 0.2360983 0.2363336 0.2365734
 0.2368135 0.2370527 0.2372947 0.237541 0.2377885 0.2380328 0.2382706 0.2385017 0.2387303 0.2389608
 0.2391972 0.2394434 0.2397001 0.2399607 0.240219 0.2404773 0.2407407 0.241009 0.2412803 0.2415559
 0.2418354 0.2421147 0.2423917 0.2426658 0.2429328 0.2431857 0.2434211 0.2436436 0.2438624 0.2440875
 0.2443213 0.2445592 0.2447976 0.2450388 0.2452854 0.2455357 0.2457854 0.2460307 0.246272 0.2465187
 0.2467817 0.2470605 0.247345 0.2476304 0.247921 0.2482176 0.2485143 0.2488068 0.2490949 0.2493778
 0.2496535 0.2499261 0.2502092 0.2505193 0.2508596 0.2512116 0.2515502 0.2518666 0.2521715 0.2524799
 0.2528002 0.253126 0.2534314 0.2536891 0.2539099 0.2541497 0.2544596 0.2548373 0.2552369 0.2556146
 0.2559566 0.2562735 0.2565801 0.2568819 0.2571717 0.2574384 0.2576861 0.2579476 0.2582635 0.2586372
 0.2590249 0.259381 0.2596979 0.2599905 0.2602703 0.2605444 0.2608066 0.2610219 0.2611616 0.2612752
 0.2614822 0.2618586 0.2623511 0.2628313 0.2632234 0.2635498 0.2638623 0.2641749 0.2644747 0.264736
 0.2648892 0.2648542 0.2646867 0.2646309 0.2649226 0.2655513 0.2662871 0.2669126 0.2673669 0.2677019
 0.267988 0.2682637 0.2685098 0.2686535 0.2686483 0.2685814 0.2686569 0.2690096 0.2695543 0.2700793
 0.2704688 0.2707663 0.2710545 0.2713623 0.2716503 0.2717923 0.2716302 0.2711912 0.2708313 0.2710006
 0.2718061 0.2728891 0.2737848 0.2743343 0.2746802 0.274939 0.2750306 0.2748263 0.2743078 0.2735719
 0.2728727 0.2726612 0.2732901 0.2745602 0.2758037 0.2765541 0.2769468 0.2773779 0.2779892 0.2786104
 0.2790353 0.279206 0.2791783 0.2789986 0.2786819 0.2783492 0.2783081 0.2788353 0.2798532 0.28095
 0.2817668 0.2822804 0.2826356 0.2827228 0.2820731 0.2804145 0.2783928 0.2774041 0.2783548 0.2807108
 0.2830762 0.2845715 0.285312 0.2857571 0.2861116 0.2862692 0.2857984 0.2840828 0.2811619 0.2784698
 0.2779658 0.2802017 0.2837004 0.2863844 0.28716 0.2861461 0.2841523 0.2823027 0.2816295 0.2825121
 0.2845234 0.2868638 0.2888385 0.290044 0.2903913 0.2900659 0.2894546 0.2890466 0.2891251 0.2893445
 0.2889465 0.2877432 0.286474 0.2856654 0.2846697 0.2827287 0.2806701 0.2803965 0.2825308 0.2855127
 0.287407 0.2878855 0.2878748 0.2876853 0.286254 0.2825477 0.2774812 0.2738868 0.2740896 0.2775858
 0.2815397 0.2835688 0.283627 0.2831927 0.283194 0.2830293 0.2814639 0.278377 0.275449 0.2746608
 0.2760707 0.2777268 0.2778276 0.2759901 0.2723101 0.2669072 0.2614065 0.2592431 0.2626304 0.2698019
 0.2765707 0.2799417 0.2790462 0.2738968 0.2656994 0.2581527 0.2557842 0.2597736 0.2665751 0.2713486
 0.2717736 0.2681478 0.2614184 0.2527724 0.2446562 0.2404665 0.2423848 0.2496222 0.2585705 0.2643616
 0.2633497 0.2560342 0.2477905 0.2448243 0.2483348 0.2537202 0.2559879 0.2544518 0.2516932 0.2500486
 0.2503222 0.2522151 0.2546602 0.2566644 0.258072 0.2581764 0.2543253 0.2448598 0.2334893 0.227319
 0.2295223 0.2367929 0.2447409 0.2523098 0.2593008 0.2631987 0.2618498 0.2577148 0.2562948 0.2602568
 0.2668956 0.2715917 0.2725022 0.2713103 0.270164 0.2691189 0.2672024 0.2651693 0.2655332 0.2694359
 0.2748554 0.2787976 0.2802979 0.2804166 0.2802297 0.2799251 0.2793604 0.2785054 0.2773995 0.2761731
 0.2750439 0.2740779 0.2731381 0.2721597 0.2710795 0.2692284 0.2653875 0.2593694 0.2533659 0.2504313
 0.2512766 0.2538283 0.2562145 0.2581193 0.2582875 0.2535002 0.2427797 0.2311574 0.2262124 0.2307455
 0.2405494 0.2491317 0.2528464 0.2513472 0.2453935 0.2364953 0.2284507 0.2266832 0.2340612 0.2478967
 0.2623686 0.2734518 0.2804412 0.2836805 0.2830131 0.2789412 0.2739234 0.2713996 0.27343 0.2793421
 0.2862437 0.2903666 0.2887076 0.2815041 0.2738742 0.2727177 0.2798702 0.28966 0.2951686 0.2954785
 0.2946475 0.2952756 0.2962818 0.2964703 0.2970304 0.2995355 0.3033634 0.3062157 0.306181 0.3025411
 0.2957587 0.2880259 0.2829177 0.2825637 0.2852948 0.2875551 0.2875497 0.2852809 0.2803137 0.2727417
 0.2659778 0.2649243 0.2704007 0.2779009 0.2827312 0.284381 0.2850583 0.2857144 0.2849225 0.2812644
 0.2758524 0.2718454 0.2713542 0.2734521 0.2756943 0.2767634 0.2766711 0.2752267 0.2720488 0.2682127
 0.2663966 0.2685 0.2736066 0.2788709 0.2821282 0.283216 0.2831529 0.2828283 0.2825235 0.2820698
 0.2812867 0.2805913 0.2810236 0.2831382 0.2860392 0.2882005 0.2892284 0.2901805 0.2920746 0.2946436
 0.2967466 0.2976336 0.2976065 0.2976377 0.2984954 0.3001112 0.3016446 0.3022221 0.3017965 0.3013038
 0.3018233 0.3035497 0.3057179 0.3074809 0.3086185 0.3094155 0.3101815 0.3109848 0.311624 0.3117958
 0.3114999 0.3112856 0.3118489 0.3133109 0.3150722 0.3164192 0.3171119 0.3173493 0.3173603 0.3171835
 0.3167819 0.316228 0.3157133 0.3154039 0.3153205 0.3153621 0.3154134 0.3154182 0.3153838 0.3153573
 0.3153919 0.3155091 0.3156892 0.3159013 0.3161251 0.3163348 0.3164976 0.3166069 0.3166941 0.3167785
 0.3168254 0.3167657 0.3165383 0.316098 0.3154028 0.3144172 0.3131187 0.3114836 0.309487 0.3071939
 0.3049181 0.3032608 0.3028634 0.3039978 0.3063491 0.3091965 0.3118227 0.3138186 0.3151219 0.3158716
 0.3162498 0.3163991 0.3164061 0.3163119 0.3161309 0.3158714 0.315548 0.3151847 0.3148121 0.3144603
 0.3141466 0.3138686 0.3136078 0.3133358 0.3130223 0.312643 0.3121873 0.3116567 0.3110579 0.3103914
 0.3096424 0.3087888 0.3078299 0.3068066 0.3057857 0.3048216 0.3039266 0.3030714 0.3022095 0.3012961
 0.3002774 0.2990862 0.2977058 0.296258 0.2949687 0.2939872 0.29325 0.2925514 0.2917233 0.2907216
 0.2895824 0.2883554 0.2870791 0.2857748 0.2844408 0.2830584 0.2816034 0.2800559 0.2784089 0.2766712
 0.2748577 0.2729796 0.2710529 0.2690988 0.2671109 0.2650156 0.2626747 0.2599292 0.2566444 0.252732
 0.2481645 0.2429977 0.2373846 0.2315502 0.2257318 0.2201284 0.2148943 0.2101622 0.206055 0.202675
 0.2000893 0.1983297 0.1974078 0.1973279 0.1980833 0.1996416 0.2019322 0.2048406 0.2082094 0.2118498
 0.2155603 0.219152 0.2224888 0.2255303 0.2283283 0.2309544 0.233424 0.2356949 0.2377248 0.2395056
 0.241047 0.2423518 0.243421 0.2442746 0.244961 0.2455399 0.2460532 0.2465084 0.2468904 0.2471852
 0.2473965 0.2475479 0.247677 0.2478236 0.2480132 0.2482482 0.2485184 0.2488219 0.2491748 0.2496029
 0.2501237 0.2507347 0.2514144 0.2521376 0.2528965 0.2537084 0.2546048 0.2556166 0.2567675 0.2580715
 0.2595274 0.2611082 0.2627532 0.2643695 0.2658494 0.2671008 0.2680719 0.2687532 0.269161 0.2693191
 0.2692543 0.2689984 0.2685853 0.2680444 0.2674006 0.2666802 0.2659074 0.2650928 0.2642288 0.2633002
 0.2623057 0.2612725 0.2602454 0.2592545 0.2583016 0.257376 0.2564752 0.2556007 0.2547504 0.2539222
 0.253118 0.2523422 0.2516029 0.250909 0.2502568 0.2496189 0.248949 0.2481956 0.2473151 0.246284
 0.2450994 0.2437688 0.2423002 0.2407 0.2389753 0.2371364 0.2351999 0.2331832 0.2310957 0.2289376
 0.2267009 0.2243732 0.2219619 0.2195266 0.2171672 0.2149663 0.2129476 0.2110877 0.2093499 0.2077076
 0.2061487 0.2046646 0.2032411 0.2018676 0.2005491 0.1992964 0.198115 0.1970094 0.195987 0.1950538
 0.1942173 0.1934903 0.1928782 0.1923672 0.1919335 0.1915595 0.1912499 0.1910417 0.1909787 0.191055
 0.1911952 0.1913042 0.1913268 0.1912645 0.1911598 0.1910661 0.1910167 0.1910179 0.1910541 0.1910728
 0.1909735 0.1906428 0.1899982 0.188989 0.1875865 0.1858042 0.1837159 0.1814526 0.1791892 0.1771048
 0.175323 0.17389 0.1727974 0.1719958 0.1713991 0.1709298 0.1705772 0.1703991 0.1704674 0.1707868
 0.1712318 0.171597 0.1717754 0.1718776 0.1721365 0.1727118 0.1735943 0.1746465 0.1756975 0.1766272
 0.1773887 0.1779747 0.1783958 0.1786834 0.1788666 0.1789448 0.1789059 0.1787519 0.1784894 0.178126
 0.1776806 0.1771619 0.1765494 0.1758267 0.1750036 0.1740898 0.1730855 0.1719933 0.1707917 0.1694367
 0.1679681 0.1665975 0.1656337 0.165313 0.1656704 0.1665263 0.1676167 0.1687721 0.1699303 0.1710006
 0.1718646 0.1725721 0.173428 0.1747852 0.1767465 0.1790596 0.1812902 0.1830973 0.1843435 0.1850057
 0.1851036 0.184704 0.1838626 0.1825667 0.1808282 0.1787701 0.1765444 0.1742698 0.1720838 0.1701175
 0.1684237 0.1670196 0.1659137 0.1651005 0.1646321 0.1642286 0.1623318 0.1566492 0.1474068 0.139456
 0.1386176 0.1454155 0.154353 0.1598151 0.1608354 0.1597611 0.1585468 0.1576179 0.1569063 0.1564861
 0.1564122 0.1565828 0.1567831 0.1567853 0.1564888 0.1559101 0.1549331 0.1530689 0.1494357 0.1430763
 0.1336706 0.122186 0.1106632 0.101124 0.09457079 0.0907883 0.08879329 0.08752145 0.08643167 0.08568114
 0.08576129 0.08699338 0.08935351 0.09262873 0.09656744 0.100843 0.1049978 0.1085865 0.1114114 0.1135378
 0.1150841 0.1160939 0.1165979 0.1166719 0.1163972 0.1158367 0.1150505 0.1140762 0.1129017 0.1115125
 0.1099837 0.1085159 0.1073507 0.106614 0.1062414 0.106074 0.1059994 0.1059802 0.1060064 0.106078
 0.1062048 0.1063916 0.1066396 0.106955 0.1073227 0.1076844 0.1079729 0.1081573 0.108245 0.1082491
 0.1081531 0.1079202 0.1075648 0.1071765 0.1067902 0.1062565 0.1053611 0.1041093 0.1028245 0.1019372
 0.1016869 0.101989 0.1025293 0.1029889 0.1032287 0.1033039 0.1033241 0.1032978 0.1031081 0.1026484
</values></Ydata></ScRf><Data_Parameters_AB><parameter name="DPF">1</parameter><parameter name="NPT">3497</parameter><parameter name="FXV">3996</parameter><parameter name="LXV">500</parameter><parameter name="CSF">1</parameter><parameter name="MXY">0.00663546426221728</parameter><parameter name="MNY">-0.0753378346562386</parameter><parameter name="DAT">17/01/2024</parameter><parameter name="TIM">13:14:37.140 (GMT+1)</parameter><parameter name="DXU">WN</parameter></Data_Parameters_AB><AB__Qtest><MainReport name="Quality Test Report"><Header><Line><Legend>Test result ok/not ok [1/0]: </Legend><Value>0</Value></Line><Line><Legend>Method file: </Legend><Value>C:\Users\Public\Documents\Bruker\OPUS_8.2.28\QT\IRBT_v3_default.QT</Value></Line></Header><Matrix><Line><Legend></Legend><Legend>min</Legend><Legend>max</Legend><Legend>measured</Legend></Line><Line><Value>Absorption (X-Range 1):</Value><Value>0.400000</Value><Value>2.000000</Value><Value>0.047218</Value></Line><Line><Value>Noise (X-Range 4):</Value><Value></Value><Value>0.000300</Value><Value>0.000019</Value></Line><Line><Value>Signal/Noise (X-Range 2):</Value><Value>200.000000</Value><Value></Value><Value>32.600519</Value></Line><Line><Value>Signal/Noise (X-Range 3):</Value><Value>40.000000</Value><Value></Value><Value>24.582950</Value></Line><Line><Value>Water vapour (X-Range 5):</Value><Value></Value><Value>0.000300</Value><Value>0.000014</Value></Line><Line><Value>Signal/Water (X-Range 2):</Value><Value>100.000000</Value><Value></Value><Value>46.553354</Value></Line><Line><Value>Signal/Water (X-Range 3):</Value><Value>20.000000</Value><Value></Value><Value>35.104312</Value></Line><Line><Value>Fringes (X-Range 6):</Value><Value></Value><Value>0.000100</Value><Value>0.000020</Value></Line></Matrix></MainReport></AB__Qtest><Data_Parameters_ScSm><parameter name="DPF">1</parameter><parameter name="NPT">1814</parameter><parameter name="FXV">3996.63438082617</parameter><parameter name="LXV">499.579297603271</parameter><parameter name="CSF">1</parameter><parameter name="MXY">0.33301368355751</parameter><parameter name="MNY">0.0807269215583801</parameter><parameter name="DAT">17/01/2024</parameter><parameter name="TIM">13:14:37.140 (GMT+1)</parameter><parameter name="DXU">WN</parameter></Data_Parameters_ScSm><Data_Parameters_ScRf><parameter name="DPF">1</parameter><parameter name="NPT">1820</parameter><parameter name="FXV">4004.34989121387</parameter><parameter name="LXV">495.721542409425</parameter><parameter name="CSF">1</parameter><parameter name="MXY">0.317360281944275</parameter><parameter name="MNY">0.0680416226387024</parameter><parameter name="DAT">17/01/2024</parameter><parameter name="TIM">13:14:11.279 (GMT+1)</parameter><parameter name="DXU">WN</parameter></Data_Parameters_ScRf><Optic_Parameters_Rf><parameter name="APR">0</parameter><parameter name="APT">Open</parameter><parameter name="BMS">KBr</parameter><parameter name="DTC">RT-DLaTGS_IR-Biotyper [Microplate reader]</parameter><parameter name="HPF">0</parameter><parameter name="LPF">10.0</parameter><parameter name="LPV">4000</parameter><parameter name="PGR">0</parameter><parameter name="RCH">Module port</parameter><parameter name="RDX">0</parameter><parameter name="SRC">MIR</parameter><parameter name="VEL">10.0</parameter><parameter name="SON">Off</parameter></Optic_Parameters_Rf><Acquisition_Parameters_Rf><parameter name="ADT">1</parameter><parameter name="AQM">DD</parameter><parameter name="CFE">0</parameter><parameter name="COR">0</parameter><parameter name="DEL">0</parameter><parameter name="DLY">0</parameter><parameter name="HFW">8000</parameter><parameter name="LFW">0</parameter><parameter name="NSR">32</parameter><parameter name="PLF">AB</parameter><parameter name="RES">6</parameter><parameter name="RGN">-1</parameter><parameter name="STR">0</parameter><parameter name="TCL">MakeCompatibleScalar (0, {WSV=1.000000, ARV=0});</parameter><parameter name="TDL">37</parameter><parameter name="RPO">0</parameter></Acquisition_Parameters_Rf><FT_-_Parameters_Rf><parameter name="APF">B3</parameter><parameter name="HFQ">500</parameter><parameter name="LFQ">4000</parameter><parameter name="NLI">0</parameter><parameter name="PHR">24</parameter><parameter name="PHZ">ML</parameter><parameter name="SPZ">NO</parameter><parameter name="ZFF">1</parameter></FT_-_Parameters_Rf><Optic_Parameters_><parameter name="APR">0</parameter><parameter name="APT">Open</parameter><parameter name="BMS">KBr</parameter><parameter name="CHN">Module port</parameter><parameter name="DTC">RT-DLaTGS_IR-Biotyper [Microplate reader]</parameter><parameter name="HPF">0</parameter><parameter name="LPF">10.0</parameter><parameter name="LPV">4000</parameter><parameter name="PGN">0</parameter><parameter name="RDX">0</parameter><parameter name="SRC">MIR</parameter><parameter name="VEL">10.0</parameter><parameter name="SON">Off</parameter></Optic_Parameters_><FT_-_Parameters_><parameter name="APF">B3</parameter><parameter name="HFQ">500</parameter><parameter name="LFQ">4000</parameter><parameter name="NLI">0</parameter><parameter name="PHR">24</parameter><parameter name="PHZ">ML</parameter><parameter name="SPZ">NO</parameter><parameter name="ZFF">1</parameter></FT_-_Parameters_><Acquisition_Parameters_><parameter name="ADT">1</parameter><parameter name="AQM">DD</parameter><parameter name="CFE">0</parameter><parameter name="COR">0</parameter><parameter name="DEL">0</parameter><parameter name="DLY">0</parameter><parameter name="HFW">8000</parameter><parameter name="LFW">0</parameter><parameter name="NSS">32</parameter><parameter name="PLF">AB</parameter><parameter name="RES">6</parameter><parameter name="SOT">0</parameter><parameter name="TCL">MakeCompatibleScalar (0, {WSV=1.000000, ARV=0});</parameter><parameter name="TDL">37</parameter><parameter name="SPO">0</parameter><parameter name="SGN">-1</parameter></Acquisition_Parameters_><Instrument_Parameters_Rf><parameter name="HFL">15801.365274</parameter><parameter name="LFL">0</parameter><parameter name="LWN">15801.365274</parameter><parameter name="ABP">32157</parameter><parameter name="SSP">1</parameter><parameter name="ARG">2</parameter><parameter name="ASG">2</parameter><parameter name="ASS">32</parameter><parameter name="GFW">16</parameter><parameter name="GBW">16</parameter><parameter name="BFW">0</parameter><parameter name="BBW">0</parameter><parameter name="PKA">9108</parameter><parameter name="PKL">4987</parameter><parameter name="PRA">9120</parameter><parameter name="PRL">5010</parameter><parameter name="P2A">1</parameter><parameter name="P2L">1</parameter><parameter name="P2R">1</parameter><parameter name="P2K">1</parameter><parameter name="DAQ">0</parameter><parameter name="AG2">1</parameter><parameter name="SSM">1</parameter><parameter name="RSN">46326</parameter><parameter name="CRR">0</parameter><parameter name="SRT">1705497251.279</parameter><parameter name="DUR">19.6449890136719</parameter><parameter name="TSC">30.9</parameter><parameter name="MVD">0.347888499498367</parameter><parameter name="AN1">0.22601521502759</parameter><parameter name="AN2">0</parameter><parameter name="VSN">2.485 Apr  4 2017</parameter><parameter name="SRN">0085</parameter><parameter name="CAM">0</parameter><parameter name="INS">IR-Biotyper</parameter><parameter name="FOC">69</parameter><parameter name="RDY">1</parameter><parameter name="ARS">32</parameter></Instrument_Parameters_Rf><Sample_Parameters_><parameter name="BLD"></parameter><parameter name="CNM">Admin</parameter><parameter name="CPY"></parameter><parameter name="DPM"></parameter><parameter name="EXP">IRBT_v3_32Scans.XPM</parameter><parameter name="LCT"></parameter><parameter name="SFM">Microplate, HTS-XT</parameter><parameter name="SNM">240117-1222-Cdiff_SCFA_1_C10_232107724_B7_1f62e543-990b-429f-a33e-7f9da568fb1d.0</parameter><parameter name="XPP">C:\Users\Public\Documents\Bruker\OPUS_8.2.28\XPM</parameter><parameter name="IST">OK</parameter><parameter name="CPG">1252</parameter><parameter name="UID">0059c2f9-8302-402f-b55e-c054a14d9ecd</parameter></Sample_Parameters_><Instrument_Parameters_><parameter name="HFL">15801.365274</parameter><parameter name="LFL">0</parameter><parameter name="LWN">15801.365274</parameter><parameter name="ABP">32157</parameter><parameter name="SSP">1</parameter><parameter name="ASG">2</parameter><parameter name="ARG">2</parameter><parameter name="ASS">32</parameter><parameter name="GFW">16</parameter><parameter name="GBW">16</parameter><parameter name="BFW">0</parameter><parameter name="BBW">0</parameter><parameter name="PKA">9907</parameter><parameter name="PKL">4987</parameter><parameter name="PRA">10014</parameter><parameter name="PRL">5010</parameter><parameter name="P2A">1</parameter><parameter name="P2L">1</parameter><parameter name="P2R">1</parameter><parameter name="P2K">1</parameter><parameter name="DAQ">0</parameter><parameter name="AG2">1</parameter><parameter name="SSM">1</parameter><parameter name="RSN">23856</parameter><parameter name="CRR">0</parameter><parameter name="SRT">1705497277.14</parameter><parameter name="DUR">19.6449890136719</parameter><parameter name="TSC">30.9</parameter><parameter name="MVD">0.280032157897949</parameter><parameter name="AN1">0.226028294264424</parameter><parameter name="AN2">0</parameter><parameter name="VSN">2.485 Apr  4 2017</parameter><parameter name="SRN">0085</parameter><parameter name="CAM">0</parameter><parameter name="INS">IR-Biotyper</parameter><parameter name="FOC">69</parameter><parameter name="RDY">1</parameter></Instrument_Parameters_><History/></OPUSDataFile>
