<?xml version="1.0" encoding="UTF-8" ?>
<OPUSDataFile><AB><Ydata ylabel="Absorbance Units"><values byteorder="INTEL" format="FLOAT32" numvalues="3497"> -0.07101051 -0.07103889 -0.07106607 -0.07108956 -0.07110051 -0.07110056 -0.07108872 -0.07106776 -0.07104123 -0.07101145
 -0.07098199 -0.07095442 -0.0709308 -0.07091226 -0.07090009 -0.07089381 -0.07089408 -0.0708976 -0.07090414 -0.07090895
 -0.07091136 -0.07090816 -0.07089888 -0.07088415 -0.07086401 -0.07084189 -0.07081789 -0.07079481 -0.07077237 -0.07075055
 -0.07072939 -0.0707087 -0.07068942 -0.07067364 -0.07066192 -0.07065674 -0.0706562 -0.07065957 -0.07066409 -0.0706668
 -0.07066841 -0.07066789 -0.07066874 -0.07067251 -0.07067904 -0.07068935 -0.070698 -0.07070443 -0.07070389 -0.07069573
 -0.07068065 -0.0706587 -0.07063325 -0.07060447 -0.07057481 -0.07054441 -0.07051526 -0.07048765 -0.07046384 -0.07044352
 -0.07042751 -0.07041429 -0.07040179 -0.07038897 -0.07037333 -0.07035641 -0.07033775 -0.07032152 -0.07030948 -0.07030525
 -0.07031113 -0.07032594 -0.07035083 -0.07037839 -0.07040799 -0.0704316 -0.07044821 -0.07045602 -0.07045491 -0.07044901
 -0.07043843 -0.07042591 -0.07041118 -0.07039381 -0.07037431 -0.07035385 -0.0703338 -0.07031839 -0.07030702 -0.07030127
 -0.07029814 -0.07029442 -0.07028934 -0.07028009 -0.07027069 -0.07026244 -0.07025854 -0.07026163 -0.07026767 -0.07027705
 -0.07028122 -0.07027887 -0.07026453 -0.07023718 -0.07019989 -0.0701528 -0.07010681 -0.07006249 -0.07003047 -0.07000982
 -0.07000118 -0.07000202 -0.0700036 -0.07000466 -0.06999691 -0.06998321 -0.06996399 -0.06994348 -0.06992726 -0.0699159
 -0.06991265 -0.06991366 -0.06991828 -0.06992132 -0.06992045 -0.0699138 -0.06990001 -0.06988127 -0.06985765 -0.06983133
 -0.06980253 -0.06977179 -0.06973913 -0.06970794 -0.06967877 -0.06965949 -0.06965037 -0.06965812 -0.06968035 -0.0697135
 -0.06975199 -0.06978033 -0.06979586 -0.0697846 -0.06975397 -0.06970601 -0.06965071 -0.06959725 -0.06954978 -0.06951343
 -0.06948761 -0.06947373 -0.06946801 -0.06947049 -0.06947432 -0.06947862 -0.06947682 -0.06946785 -0.069452 -0.0694292
 -0.06940696 -0.06938563 -0.0693715 -0.06936406 -0.0693633 -0.06936827 -0.06937552 -0.0693844 -0.06939178 -0.06939701
 -0.06939781 -0.06939332 -0.06938137 -0.06936248 -0.06933567 -0.06930397 -0.06926858 -0.06923239 -0.069197 -0.06916278
 -0.06912991 -0.0690994 -0.06907099 -0.06904911 -0.06903411 -0.06903055 -0.06903876 -0.06905619 -0.06908218 -0.06910606
 -0.06912713 -0.06913493 -0.06913068 -0.0691129 -0.06908428 -0.06905095 -0.06901428 -0.06898019 -0.06894689 -0.06891482
 -0.0688815 -0.06884404 -0.06880412 -0.06876057 -0.06872004 -0.06868473 -0.06865966 -0.06864782 -0.06864482 -0.06865125
 -0.06865615 -0.06865831 -0.06865123 -0.06863434 -0.06861109 -0.06858185 -0.06855384 -0.06852702 -0.06850477 -0.06848641
 -0.06847123 -0.06845849 -0.068446 -0.06843333 -0.06841856 -0.06840195 -0.06838266 -0.06836227 -0.06834168 -0.06832264
 -0.06830668 -0.06829378 -0.06828459 -0.06827728 -0.06827149 -0.06826577 -0.06825958 -0.06825379 -0.06824834 -0.06824535
 -0.06824499 -0.06824775 -0.0682535 -0.0682594 -0.06826509 -0.06826684 -0.06826454 -0.06825574 -0.06824054 -0.06821759
 -0.06818771 -0.06815101 -0.06811021 -0.06806829 -0.06802874 -0.06799585 -0.06797076 -0.06795643 -0.0679488 -0.06794813
 -0.06794605 -0.06794049 -0.06792499 -0.06789719 -0.0678598 -0.06781237 -0.06776356 -0.06771388 -0.06767056 -0.06763373
 -0.06760541 -0.06758505 -0.06756993 -0.067559 -0.06754657 -0.06753212 -0.06751092 -0.06748427 -0.06745199 -0.06741652
 -0.06738146 -0.06734668 -0.06731427 -0.06728046 -0.06724299 -0.06720099 -0.06715184 -0.0671028 -0.06705495 -0.06701633
 -0.06698954 -0.066973 -0.06696758 -0.06696261 -0.0669575 -0.06694258 -0.06691778 -0.06688316 -0.06683972 -0.06679487
 -0.06674916 -0.06670932 -0.06667425 -0.06664488 -0.06661878 -0.06659165 -0.06656217 -0.06652629 -0.06648521 -0.06643818
 -0.06638797 -0.06633614 -0.0662845 -0.06623455 -0.06618569 -0.06613847 -0.06608984 -0.06603922 -0.06598494 -0.06592636
 -0.06586695 -0.0658069 -0.06575046 -0.06569752 -0.06564479 -0.06559147 -0.0655292 -0.06545832 -0.06537525 -0.06528235
 -0.06518418 -0.06508315 -0.06498639 -0.06489427 -0.06481081 -0.0647336 -0.06466213 -0.06459323 -0.06452414 -0.06445511
 -0.06438517 -0.06431693 -0.06425177 -0.06418757 -0.06412527 -0.06405527 -0.06397629 -0.06388333 -0.06377551 -0.06366293
 -0.06354623 -0.06343916 -0.06334115 -0.06325401 -0.06317536 -0.06309526 -0.06301256 -0.0629177 -0.06281346 -0.06270017
 -0.06258218 -0.06246651 -0.06235325 -0.06224638 -0.06214036 -0.06203258 -0.06191944 -0.06179697 -0.06167058 -0.06154069
 -0.06141398 -0.0612927 -0.06117561 -0.06106325 -0.06094964 -0.06083428 -0.06071512 -0.06059221 -0.06046936 -0.0603467
 -0.06022732 -0.06011026 -0.05999291 -0.05987401 -0.05974814 -0.05961555 -0.0594734 -0.05932458 -0.05917148 -0.05901773
 -0.05886793 -0.05872339 -0.05858693 -0.05845663 -0.0583328 -0.05821167 -0.05809237 -0.057971 -0.05784657 -0.05771687
 -0.05758126 -0.05744081 -0.05729549 -0.05714803 -0.05699857 -0.05684941 -0.05670064 -0.05655392 -0.05640928 -0.05626784
 -0.05612946 -0.05599448 -0.05586232 -0.055732 -0.05560303 -0.05547436 -0.05534558 -0.05521601 -0.05508524 -0.05495264
 -0.05481859 -0.05468275 -0.05454705 -0.05441205 -0.05427909 -0.05414913 -0.05401922 -0.05388958 -0.0537531 -0.05360923
 -0.05345294 -0.05328414 -0.05310612 -0.05291976 -0.05273473 -0.05255166 -0.05237903 -0.05221592 -0.05206426 -0.05192216
 -0.0517866 -0.05165624 -0.0515281 -0.05140086 -0.05127253 -0.05114117 -0.05100468 -0.05086248 -0.05071285 -0.05055941
 -0.05040253 -0.05024717 -0.05009479 -0.04994658 -0.04980317 -0.04966222 -0.04952356 -0.04938615 -0.04924996 -0.04911568
 -0.04898319 -0.04885155 -0.04872038 -0.04858714 -0.04845194 -0.04831371 -0.04817318 -0.04803163 -0.04788903 -0.04774614
 -0.04760199 -0.04745564 -0.04730712 -0.04715558 -0.0470032 -0.04685048 -0.04670032 -0.04655388 -0.0464124 -0.04627652
 -0.04614571 -0.04602 -0.04589866 -0.0457817 -0.04566739 -0.0455556 -0.04544217 -0.04532683 -0.04520489 -0.04507682
 -0.04494222 -0.04480266 -0.04466304 -0.0445243 -0.04439155 -0.04426324 -0.04413953 -0.04401787 -0.04389528 -0.04377121
 -0.04364369 -0.04351503 -0.04338565 -0.04325831 -0.04313431 -0.04301412 -0.04289841 -0.04278516 -0.04267424 -0.04256344
 -0.04245245 -0.04234139 -0.04223027 -0.04212114 -0.04201403 -0.04191004 -0.04180882 -0.04170894 -0.04161 -0.04150978
 -0.04140833 -0.04130439 -0.04119873 -0.04109163 -0.04098475 -0.04088006 -0.04077849 -0.04068204 -0.04058863 -0.04049838
 -0.04040687 -0.04031227 -0.04021297 -0.04010764 -0.03999947 -0.03988861 -0.03977868 -0.03967008 -0.03956377 -0.03945983
 -0.03935889 -0.03926098 -0.0391667 -0.03907592 -0.03898824 -0.03890338 -0.0388203 -0.03873871 -0.03865757 -0.03857626
 -0.03849318 -0.03840834 -0.03832038 -0.0382319 -0.03814418 -0.03806005 -0.03798217 -0.03790884 -0.03784062 -0.03777305
 -0.03770471 -0.0376353 -0.03756421 -0.03749506 -0.03742826 -0.03736442 -0.03730359 -0.03724179 -0.03717896 -0.03711281
 -0.03704395 -0.03697466 -0.03690546 -0.03683965 -0.03677679 -0.03671763 -0.03666117 -0.03660602 -0.03655178 -0.03649736
 -0.036443 -0.03638855 -0.03633428 -0.03628044 -0.03622683 -0.03617374 -0.03611963 -0.03606435 -0.03600577 -0.03594328
 -0.03587735 -0.03580762 -0.03573954 -0.03567338 -0.03561634 -0.03556842 -0.03553142 -0.03550423 -0.03548105 -0.03546093
 -0.0354369 -0.03540977 -0.03537779 -0.03534266 -0.03530642 -0.03527026 -0.0352363 -0.03520519 -0.03517807 -0.03515538
 -0.03513803 -0.03512478 -0.03511582 -0.0351082 -0.03510132 -0.03509267 -0.03508165 -0.03506776 -0.03505077 -0.03503203
 -0.03501159 -0.03499171 -0.03497252 -0.03495631 -0.03494312 -0.03493446 -0.03493008 -0.03493011 -0.03493351 -0.03493798
 -0.03494221 -0.03494265 -0.03493946 -0.03493103 -0.03491924 -0.03490559 -0.03488991 -0.03487341 -0.03485209 -0.03482432
 -0.03478879 -0.03474335 -0.03469613 -0.03464741 -0.03460964 -0.03458448 -0.03457581 -0.03458405 -0.03460139 -0.03462721
 -0.03465037 -0.03467105 -0.03468454 -0.0346923 -0.03469729 -0.03470066 -0.03470716 -0.03471612 -0.034729 -0.03474367
 -0.03475813 -0.03477073 -0.03477944 -0.03478346 -0.03478207 -0.03477396 -0.03475828 -0.03473496 -0.03470294 -0.03466729
 -0.03462813 -0.03459383 -0.0345655 -0.0345465 -0.03453722 -0.03453124 -0.03452806 -0.03451799 -0.03450126 -0.03447451
 -0.03443892 -0.03439738 -0.03435059 -0.03430163 -0.0342509 -0.03419958 -0.03415038 -0.03410652 -0.03407168 -0.0340511
 -0.03404353 -0.03405176 -0.03406619 -0.03408445 -0.03409594 -0.03409649 -0.03408433 -0.03405741 -0.03402376 -0.03398366
 -0.03394764 -0.03391639 -0.03389657 -0.03388822 -0.03389245 -0.03390865 -0.03393346 -0.03396594 -0.03400078 -0.0340371
 -0.03406994 -0.03409885 -0.0341203 -0.03413558 -0.03414447 -0.03414952 -0.03415314 -0.03415605 -0.03415986 -0.03416267
 -0.03416329 -0.03416355 -0.0341622 -0.03416901 -0.03418539 -0.03421997 -0.03427481 -0.03434467 -0.0344296 -0.03451374
 -0.03459653 -0.03466743 -0.03472736 -0.03477821 -0.03482101 -0.03486127 -0.03489858 -0.03493432 -0.03496824 -0.035
 -0.03503097 -0.03506253 -0.03509661 -0.03513567 -0.03518004 -0.03523123 -0.03528678 -0.03534657 -0.03540632 -0.03546482
 -0.03551906 -0.03556785 -0.03561267 -0.0356534 -0.03569356 -0.03573349 -0.03577229 -0.03580981 -0.03584218 -0.03586984
 -0.03589422 -0.03591684 -0.03594564 -0.0359804 -0.03602576 -0.03607788 -0.03613167 -0.03618389 -0.03622685 -0.03626291
 -0.03629037 -0.03631577 -0.03634306 -0.03637555 -0.03641663 -0.0364633 -0.03651616 -0.03656825 -0.0366185 -0.03666087
 -0.03669425 -0.03671744 -0.0367301 -0.03673778 -0.03674089 -0.03674853 -0.03676077 -0.03678259 -0.03681282 -0.03684898
 -0.03689013 -0.03693179 -0.036975 -0.03701964 -0.03706697 -0.03711943 -0.03717539 -0.03723496 -0.03729426 -0.0373507
 -0.03740221 -0.03744693 -0.03748537 -0.03751725 -0.03754359 -0.03756431 -0.03758151 -0.03759511 -0.03761006 -0.03762669
 -0.03764972 -0.03767923 -0.03771539 -0.03775778 -0.03780295 -0.03785056 -0.03789752 -0.0379434 -0.03798544 -0.03802324
 -0.03805415 -0.03807933 -0.03809838 -0.03811498 -0.03813233 -0.03815351 -0.03818214 -0.03821726 -0.03825996 -0.0383063
 -0.03835526 -0.03840408 -0.03845192 -0.038498 -0.03854229 -0.03858264 -0.03861897 -0.03864759 -0.03866841 -0.0386802
 -0.03868362 -0.03868349 -0.03868086 -0.03868361 -0.03869165 -0.03870927 -0.03873486 -0.03876736 -0.0388051 -0.03884526
 -0.03888699 -0.03892853 -0.03896945 -0.039009 -0.03904693 -0.03908296 -0.03911699 -0.03914912 -0.03917841 -0.03920472
 -0.03922702 -0.03924486 -0.0392603 -0.03927332 -0.03928872 -0.03930664 -0.03932858 -0.03935389 -0.03937711 -0.03939742
 -0.03940756 -0.03940843 -0.03939817 -0.03938008 -0.03935955 -0.0393405 -0.03933098 -0.0393327 -0.03935167 -0.03938372
 -0.03942942 -0.03947932 -0.03952942 -0.03957208 -0.03960273 -0.03962344 -0.03963279 -0.03964043 -0.03964748 -0.03966101
 -0.03968192 -0.03970965 -0.03974413 -0.03978068 -0.03981908 -0.03985568 -0.03989024 -0.03991982 -0.03994408 -0.03996008
 -0.03996842 -0.03996824 -0.03996222 -0.03995353 -0.03994532 -0.03994224 -0.03994527 -0.03995707 -0.03997574 -0.04000088
 -0.04003136 -0.0400664 -0.04010692 -0.04015306 -0.0402053 -0.04026401 -0.04032664 -0.04039313 -0.04045946 -0.04052544
 -0.04058938 -0.04065134 -0.04071152 -0.04076978 -0.04082547 -0.04087855 -0.04092809 -0.0409753 -0.04102188 -0.04106994
 -0.04112392 -0.04118344 -0.04125113 -0.04132176 -0.04139303 -0.04145875 -0.04151431 -0.04155993 -0.04159328 -0.04162246
 -0.04164869 -0.04167934 -0.04171624 -0.04175839 -0.04180621 -0.04185201 -0.04189544 -0.04193093 -0.04195883 -0.04198094
 -0.04199837 -0.04201802 -0.04204045 -0.04207162 -0.04211025 -0.04215689 -0.04220903 -0.042263 -0.04231731 -0.04236858
 -0.04241762 -0.04246396 -0.04250856 -0.04255211 -0.04259392 -0.04263378 -0.04267149 -0.04270656 -0.04274128 -0.04277598
 -0.04281218 -0.04285019 -0.04288806 -0.04292567 -0.04295979 -0.04299049 -0.04301734 -0.04304087 -0.04306365 -0.04308634
 -0.04311244 -0.04314218 -0.04317816 -0.04321915 -0.04326506 -0.04331287 -0.04335953 -0.04340205 -0.04343676 -0.04346363
 -0.04348128 -0.04349196 -0.04349627 -0.04349549 -0.04349035 -0.04347951 -0.04346282 -0.04343961 -0.04340963 -0.04337557
 -0.0433376 -0.04330017 -0.04326329 -0.04322851 -0.04319497 -0.04315858 -0.04311851 -0.04306915 -0.04301167 -0.04294537
 -0.04287318 -0.04279977 -0.04272627 -0.0426567 -0.04258806 -0.04251959 -0.04244778 -0.04236987 -0.04228648 -0.04219668
 -0.04210394 -0.04200915 -0.04191337 -0.04181716 -0.04171862 -0.04161753 -0.04151356 -0.04140668 -0.0413011 -0.04119715
 -0.04110013 -0.04101009 -0.04092985 -0.04085946 -0.04080037 -0.04075338 -0.04072124 -0.04070406 -0.04070406 -0.04071879
 -0.04074728 -0.04078459 -0.0408272 -0.04086964 -0.04090852 -0.04093901 -0.04095875 -0.04096462 -0.04095506 -0.04093054
 -0.04089044 -0.04083924 -0.0407772 -0.04070925 -0.0406357 -0.04055778 -0.04047539 -0.04038714 -0.04029335 -0.04019484
 -0.04009278 -0.03999186 -0.03989304 -0.03980146 -0.03971626 -0.03963877 -0.0395667 -0.03949756 -0.03943093 -0.03936455
 -0.03930227 -0.03924415 -0.03919858 -0.03916727 -0.03916221 -0.03918554 -0.03925157 -0.03936261 -0.03953084 -0.03975832
 -0.04004531 -0.04039209 -0.04077881 -0.04120326 -0.0416296 -0.04205533 -0.04244569 -0.04280175 -0.0431075 -0.04336865
 -0.04359061 -0.04377964 -0.04394936 -0.04410205 -0.04424625 -0.04438055 -0.04450625 -0.04462249 -0.04472833 -0.04482612
 -0.04491605 -0.04500213 -0.04508542 -0.04516856 -0.04525249 -0.04533626 -0.04542015 -0.04549968 -0.04557461 -0.04563982
 -0.04569522 -0.04573818 -0.04576926 -0.0457907 -0.04580353 -0.04581278 -0.04581925 -0.04582744 -0.04583782 -0.0458529
 -0.04587363 -0.04590184 -0.04593898 -0.04598731 -0.04604613 -0.04611691 -0.04619401 -0.04627658 -0.04635597 -0.04642992
 -0.04649173 -0.04653968 -0.04657158 -0.04658689 -0.04658606 -0.04656906 -0.04653575 -0.0464861 -0.04641879 -0.04633465
 -0.04623672 -0.04612963 -0.04603087 -0.04594962 -0.04591837 -0.04594314 -0.04605356 -0.04624005 -0.04650807 -0.046831
 -0.04719074 -0.04755883 -0.04791256 -0.04823946 -0.04852724 -0.04878088 -0.04899863 -0.04919071 -0.04935884 -0.04950913
 -0.04964254 -0.04976153 -0.04986626 -0.0499596 -0.05004171 -0.05011542 -0.05018072 -0.05023875 -0.05028962 -0.05033399
 -0.05037287 -0.05040903 -0.05044383 -0.05048134 -0.05052138 -0.05056584 -0.05061262 -0.05066063 -0.05070785 -0.05075255
 -0.0507945 -0.05083296 -0.05086914 -0.05090319 -0.05093637 -0.05096899 -0.05100154 -0.05103419 -0.05106653 -0.05109854
 -0.05112945 -0.05115924 -0.05118783 -0.05121541 -0.05124332 -0.05127167 -0.05130186 -0.05133341 -0.05136595 -0.05139844
 -0.05142866 -0.05145636 -0.05147978 -0.05150064 -0.05151959 -0.05153891 -0.05156045 -0.05158468 -0.0516127 -0.05164246
 -0.05167368 -0.05170421 -0.05173353 -0.05176068 -0.05178553 -0.05180688 -0.05182463 -0.05183799 -0.05184706 -0.05185415
 -0.05185971 -0.05186861 -0.05188061 -0.05189776 -0.05191844 -0.05193932 -0.05195888 -0.05197204 -0.05197981 -0.05198057
 -0.05197805 -0.05197494 -0.05197445 -0.05198003 -0.0519908 -0.05200797 -0.05202686 -0.05204638 -0.05206284 -0.05207486
 -0.05208351 -0.05208854 -0.05209379 -0.05209955 -0.05210776 -0.05211841 -0.05213001 -0.05214243 -0.05215368 -0.05216398
 -0.05217308 -0.05218143 -0.05219037 -0.0521997 -0.05220992 -0.0522199 -0.05222839 -0.0522344 -0.05223611 -0.05223463
 -0.05222958 -0.05222412 -0.05221962 -0.05221794 -0.0522203 -0.05222555 -0.05223378 -0.05224311 -0.05225317 -0.05226417
 -0.05227609 -0.05228955 -0.05230449 -0.05231889 -0.0523325 -0.05234217 -0.05234827 -0.05235048 -0.05235008 -0.05235069
 -0.05235306 -0.05236109 -0.05237328 -0.05238976 -0.05240735 -0.0524228 -0.0524346 -0.05243999 -0.05244144 -0.05243896
 -0.05243662 -0.05243592 -0.05243836 -0.05244475 -0.05245388 -0.05246574 -0.05247888 -0.05249321 -0.05250737 -0.05252128
 -0.05253321 -0.05254325 -0.05255149 -0.0525586 -0.05256813 -0.05258024 -0.05259797 -0.0526195 -0.05264294 -0.05266593
 -0.05268376 -0.0526967 -0.05270268 -0.05270455 -0.05270379 -0.05270205 -0.05270087 -0.05269939 -0.05269759 -0.05269489
 -0.05269093 -0.05268704 -0.0526833 -0.05268108 -0.05268054 -0.05268138 -0.05268356 -0.05268584 -0.05268816 -0.05268914
 -0.05268898 -0.05268773 -0.05268595 -0.05268534 -0.05268628 -0.05269073 -0.05269783 -0.05270763 -0.05271807 -0.05272714
 -0.05273341 -0.05273489 -0.05273242 -0.05272559 -0.05271649 -0.05270571 -0.05269478 -0.05268421 -0.05267427 -0.05266503
 -0.05265664 -0.05264909 -0.05264325 -0.05263915 -0.05263801 -0.05263972 -0.05264417 -0.05265089 -0.05265764 -0.05266371
 -0.0526656 -0.05266321 -0.05265427 -0.05263992 -0.05262053 -0.05259822 -0.05257507 -0.05255339 -0.05253553 -0.05252235
 -0.05251512 -0.05251296 -0.0525162 -0.05252231 -0.05253095 -0.05253934 -0.05254702 -0.05255251 -0.05255557 -0.05255715
 -0.05255732 -0.05255838 -0.05256039 -0.0525648 -0.05257136 -0.05257951 -0.05258877 -0.05259728 -0.05260476 -0.05260973
 -0.05261215 -0.05261108 -0.05260727 -0.05260075 -0.05259355 -0.05258686 -0.05258304 -0.05258398 -0.05258938 -0.05260022
 -0.05261268 -0.05262626 -0.05263689 -0.0526436 -0.05264634 -0.05264482 -0.05264292 -0.05264083 -0.05264161 -0.05264512
 -0.05265098 -0.05265874 -0.05266568 -0.05267175 -0.05267521 -0.05267641 -0.0526752 -0.0526722 -0.05266829 -0.052664
 -0.05266037 -0.05265723 -0.052655 -0.05265268 -0.05264984 -0.05264592 -0.05264033 -0.05263422 -0.05262761 -0.05262244
 -0.05261921 -0.05261747 -0.05261739 -0.05261591 -0.05261288 -0.05260587 -0.05259504 -0.0525815 -0.05256576 -0.05255148
 -0.05253867 -0.0525296 -0.05252334 -0.05251892 -0.05251553 -0.05251122 -0.05250636 -0.05250043 -0.05249447 -0.05248931
 -0.0524849 -0.05248173 -0.05247834 -0.05247426 -0.0524687 -0.05246121 -0.05245256 -0.05244279 -0.05243244 -0.05242163
 -0.05240975 -0.05239679 -0.05238264 -0.05236746 -0.0523532 -0.05234011 -0.05233075 -0.05232492 -0.05232353 -0.0523256
 -0.05232954 -0.05233382 -0.05233517 -0.05233303 -0.05232487 -0.05231266 -0.05229653 -0.05228015 -0.05226567 -0.05225481
 -0.0522493 -0.05224692 -0.05224769 -0.05224821 -0.05224778 -0.05224549 -0.05224105 -0.05223627 -0.05223124 -0.05222801
 -0.05222663 -0.05222841 -0.05223311 -0.05224021 -0.05224909 -0.05225728 -0.05226425 -0.05226732 -0.05226688 -0.05226208
 -0.05225425 -0.05224449 -0.0522341 -0.05222455 -0.05221633 -0.05221016 -0.05220583 -0.05220359 -0.05220235 -0.05220198
 -0.05220118 -0.05219966 -0.05219713 -0.05219344 -0.05218984 -0.0521864 -0.05218469 -0.0521847 -0.05218681 -0.05219074
 -0.05219507 -0.0521993 -0.0522008 -0.0521992 -0.05219199 -0.05217965 -0.05216133 -0.05213911 -0.05211475 -0.0520909
 -0.05207054 -0.05205436 -0.05204429 -0.05203742 -0.05203336 -0.05202842 -0.0520212 -0.05201136 -0.05199828 -0.05198506
 -0.05197197 -0.05196108 -0.05195255 -0.05194528 -0.05193914 -0.05193149 -0.05192243 -0.05191109 -0.05189791 -0.05188407
 -0.05186995 -0.05185717 -0.05184579 -0.05183674 -0.05182961 -0.0518243 -0.05182029 -0.05181726 -0.05181442 -0.05181146
 -0.05180704 -0.05180064 -0.05179108 -0.05177779 -0.05176103 -0.05174054 -0.05171855 -0.05169524 -0.05167263 -0.05165086
 -0.05163053 -0.05161161 -0.05159401 -0.05157785 -0.05156399 -0.05155246 -0.05154395 -0.05153808 -0.05153436 -0.05153199
 -0.05152932 -0.05152572 -0.05151978 -0.05151119 -0.05149905 -0.05148395 -0.05146568 -0.05144596 -0.05142536 -0.05140549
 -0.05138701 -0.05137012 -0.05135503 -0.05134116 -0.05132852 -0.05131644 -0.0513049 -0.05129299 -0.05128063 -0.05126636
 -0.05125022 -0.0512317 -0.05121136 -0.05119096 -0.05117122 -0.05115516 -0.05114252 -0.05113466 -0.05113 -0.05112721
 -0.05112468 -0.05112025 -0.05111412 -0.05110527 -0.05109624 -0.05108772 -0.05108202 -0.05108029 -0.05108186 -0.05108724
 -0.05109235 -0.05109682 -0.05109739 -0.05109374 -0.05108738 -0.05107853 -0.05107193 -0.05106757 -0.05106762 -0.05107139
 -0.05107716 -0.05108441 -0.05109106 -0.05109658 -0.05109981 -0.05109827 -0.05108871 -0.05106816 -0.05103143 -0.05098172
 -0.0509176 -0.05084927 -0.05078053 -0.05071887 -0.05066803 -0.0506274 -0.0505978 -0.05057514 -0.05055893 -0.0505476
 -0.05054096 -0.050541 -0.05054766 -0.0505597 -0.05057594 -0.05058664 -0.05059081 -0.05057785 -0.05055013 -0.05050749
 -0.05045534 -0.05040401 -0.05035644 -0.05032212 -0.05029771 -0.05028447 -0.05027574 -0.05026752 -0.05025606 -0.05023829
 -0.05021474 -0.05018479 -0.05015044 -0.05011192 -0.05007102 -0.05002791 -0.0499847 -0.04994154 -0.04990102 -0.04986326
 -0.04983047 -0.04980256 -0.04978009 -0.04976244 -0.04974747 -0.04973416 -0.04971844 -0.04969988 -0.04967535 -0.04964586
 -0.04961108 -0.04957321 -0.04953405 -0.04949547 -0.04945927 -0.04942605 -0.04939664 -0.04937053 -0.04934794 -0.04932729
 -0.04930836 -0.04928957 -0.0492707 -0.04925075 -0.04922959 -0.04920742 -0.04918428 -0.04916139 -0.04913873 -0.04911682
 -0.04909549 -0.04907419 -0.04905279 -0.04903047 -0.04900748 -0.04898383 -0.04896 -0.04893664 -0.04891399 -0.04889248
 -0.04887217 -0.04885321 -0.04883551 -0.04881926 -0.04880359 -0.04878852 -0.04877229 -0.04875455 -0.04873411 -0.0487106
 -0.04868491 -0.04865701 -0.04862943 -0.04860227 -0.04857691 -0.04855324 -0.04853072 -0.04850916 -0.04848748 -0.04846553
 -0.04844234 -0.04841779 -0.04839109 -0.04836242 -0.04833133 -0.04829916 -0.04826685 -0.04823599 -0.04820793 -0.04818344
 -0.04816355 -0.04814705 -0.04813407 -0.04812204 -0.04811063 -0.04809686 -0.04808031 -0.04805905 -0.04803279 -0.04800266
 -0.04796876 -0.04793423 -0.04789918 -0.04786605 -0.04783469 -0.04780554 -0.04777854 -0.04775355 -0.04773081 -0.04771095
 -0.04769356 -0.04767866 -0.04766488 -0.04765093 -0.04763573 -0.04761794 -0.04759775 -0.0475748 -0.0475499 -0.04752335
 -0.04749524 -0.04746571 -0.04743436 -0.04740107 -0.04736627 -0.04732994 -0.04729377 -0.04725788 -0.04722394 -0.04719191
 -0.04716201 -0.04713405 -0.04710699 -0.0470809 -0.04705544 -0.04703095 -0.04700818 -0.04698683 -0.04696719 -0.04694776
 -0.04692725 -0.04690406 -0.04687631 -0.0468445 -0.04680784 -0.04676935 -0.04672961 -0.04669186 -0.04665707 -0.04662631
 -0.04660003 -0.04657704 -0.04655733 -0.04653891 -0.04652169 -0.04650411 -0.04648615 -0.04646695 -0.04644654 -0.04642444
 -0.04640074 -0.04637526 -0.04634837 -0.04632069 -0.04629275 -0.04626574 -0.04623959 -0.04621498 -0.04619078 -0.04616665
 -0.04614092 -0.04611241 -0.04608108 -0.04604618 -0.04601026 -0.04597357 -0.0459391 -0.04590745 -0.04587926 -0.04585474
 -0.04583224 -0.04581168 -0.04579155 -0.04577181 -0.04575177 -0.04573128 -0.04570939 -0.04568591 -0.04565968 -0.04563091
 -0.04559918 -0.04556552 -0.04553117 -0.04549733 -0.04546579 -0.04543705 -0.04541248 -0.0453907 -0.04537158 -0.04535309
 -0.04533435 -0.04531488 -0.04529418 -0.04527349 -0.04525302 -0.04523287 -0.04521318 -0.04519195 -0.04516908 -0.04514372
 -0.04511609 -0.04508854 -0.04506116 -0.04503599 -0.04501235 -0.04498898 -0.04496524 -0.04493868 -0.04491011 -0.04487956
 -0.04484842 -0.04481833 -0.04478978 -0.04476379 -0.04473999 -0.04471845 -0.04469881 -0.04468115 -0.04466436 -0.04464855
 -0.04463085 -0.04461084 -0.04458639 -0.04455706 -0.04452501 -0.04449037 -0.04445854 -0.04442964 -0.04440689 -0.04438952
 -0.04437498 -0.04436224 -0.04434608 -0.04432682 -0.0443022 -0.0442739 -0.04424368 -0.04421273 -0.04418346 -0.04415509
 -0.04412802 -0.04410065 -0.04407189 -0.0440421 -0.04401072 -0.04398036 -0.04395146 -0.0439264 -0.04390594 -0.04388872
 -0.04387483 -0.04386028 -0.04384485 -0.04382521 -0.04380144 -0.04377345 -0.04374172 -0.04370893 -0.04367553 -0.04364473
 -0.04361638 -0.04359205 -0.04357078 -0.04355187 -0.04353397 -0.04351507 -0.04349486 -0.04347216 -0.04344809 -0.04342274
 -0.04339773 -0.04337373 -0.04335146 -0.04333138 -0.04331297 -0.04329644 -0.04327966 -0.04326251 -0.04324243 -0.04321927
 -0.04319176 -0.04316005 -0.04312587 -0.04308955 -0.04305401 -0.04301926 -0.04298688 -0.04295665 -0.04292872 -0.04290324
 -0.04288059 -0.04286078 -0.04284433 -0.04282999 -0.04281719 -0.04280423 -0.04278985 -0.04277371 -0.04275509 -0.04273551
 -0.04271524 -0.04269531 -0.04267615 -0.04265644 -0.04263619 -0.04261287 -0.04258634 -0.04255616 -0.04252253 -0.04248805
 -0.04245306 -0.04242117 -0.04239225 -0.04236795 -0.04234765 -0.0423308 -0.04231654 -0.04230335 -0.04229019 -0.04227545
 -0.04225798 -0.04223637 -0.04220977 -0.04217692 -0.04213911 -0.04209581 -0.04205139 -0.04200644 -0.04196655 -0.04193291
 -0.04190801 -0.0418926 -0.04188334 -0.04188014 -0.04187604 -0.04187076 -0.04185919 -0.04184166 -0.04181765 -0.04178783
 -0.04175448 -0.04171793 -0.04168018 -0.0416412 -0.04160173 -0.04156208 -0.04152275 -0.04148449 -0.04144829 -0.04141405
 -0.0413822 -0.04135172 -0.04132215 -0.04129338 -0.04126505 -0.04123854 -0.04121407 -0.04119231 -0.04117357 -0.04115544
 -0.0411378 -0.04111744 -0.04109435 -0.04106785 -0.04103829 -0.04100768 -0.04097625 -0.0409461 -0.04091699 -0.04088951
 -0.04086319 -0.04083753 -0.04081216 -0.04078646 -0.04076011 -0.04073266 -0.04070388 -0.04067356 -0.04064141 -0.04060707
 -0.04057114 -0.04053338 -0.04049611 -0.04045962 -0.04042629 -0.0403966 -0.04037006 -0.04034673 -0.04032295 -0.04029859
 -0.04027098 -0.04024046 -0.04020799 -0.0401741 -0.04014154 -0.04011019 -0.04008132 -0.04005419 -0.04002812 -0.04000236
 -0.03997565 -0.03994768 -0.03991766 -0.03988577 -0.03985169 -0.03981647 -0.03978039 -0.03974447 -0.03970918 -0.03967433
 -0.03964003 -0.0396053 -0.03957 -0.03953376 -0.03949654 -0.03945875 -0.03942038 -0.03938142 -0.03934189 -0.03930179
 -0.03926142 -0.03922195 -0.03918356 -0.03914757 -0.03911338 -0.03908044 -0.03904831 -0.03901579 -0.03898384 -0.03895285
 -0.03892383 -0.03889813 -0.03887405 -0.03885186 -0.03882731 -0.03879913 -0.03876494 -0.03872364 -0.03867729 -0.03862575
 -0.03857343 -0.03852059 -0.03847115 -0.03842522 -0.03838405 -0.03834737 -0.03831369 -0.03828261 -0.03825158 -0.03822048
 -0.03818768 -0.03815326 -0.0381167 -0.03807799 -0.03803672 -0.03799338 -0.03794781 -0.03790198 -0.03785682 -0.03781449
 -0.03777654 -0.03774258 -0.03771333 -0.03768548 -0.03765859 -0.03762944 -0.03759743 -0.03756215 -0.03752347 -0.03748362
 -0.03744269 -0.03740197 -0.03736127 -0.03731965 -0.03727704 -0.03723246 -0.03718634 -0.03713931 -0.0370919 -0.03704559
 -0.03700026 -0.0369564 -0.03691361 -0.03687166 -0.03683037 -0.03678976 -0.03674895 -0.03670774 -0.03666481 -0.0366196
 -0.03657204 -0.03652181 -0.0364705 -0.03641822 -0.03636659 -0.03631576 -0.03626602 -0.03621737 -0.03616995 -0.03612377
 -0.03607902 -0.03603556 -0.03599292 -0.03595069 -0.03590745 -0.03586297 -0.03581601 -0.03576688 -0.03571532 -0.03566221
 -0.03560826 -0.03555429 -0.03550116 -0.03544888 -0.0353978 -0.03534727 -0.03529713 -0.03524702 -0.03519684 -0.03514641
 -0.03509571 -0.0350443 -0.03499214 -0.034939 -0.03488489 -0.03483058 -0.03477613 -0.03472244 -0.03466924 -0.03461576
 -0.03456151 -0.03450439 -0.03444467 -0.03438148 -0.0343162 -0.03425053 -0.03418521 -0.03412209 -0.03405984 -0.03399827
 -0.03393578 -0.03387118 -0.03380515 -0.03373742 -0.03366993 -0.03360328 -0.03353735 -0.03347235 -0.03340664 -0.03334009
 -0.03327181 -0.03320175 -0.03312952 -0.03305501 -0.03297667 -0.03289466 -0.03280864 -0.03271949 -0.03262973 -0.03254005
 -0.03245346 -0.03236922 -0.03228786 -0.03220759 -0.0321269 -0.03204415 -0.03195778 -0.03186674 -0.03176999 -0.03166777
 -0.03155969 -0.03144718 -0.03133033 -0.03121113 -0.03108991 -0.03096765 -0.03084449 -0.03072042 -0.03059545 -0.03046968
 -0.03034311 -0.03021565 -0.03008731 -0.02995797 -0.02982774 -0.02969679 -0.02956541 -0.02943431 -0.02930356 -0.02917355
 -0.02904425 -0.0289159 -0.02878807 -0.02866091 -0.0285328 -0.02840324 -0.0282702 -0.02813281 -0.02799039 -0.02784228
 -0.02769056 -0.02753526 -0.02737983 -0.02722461 -0.02707091 -0.02691875 -0.02676575 -0.02661171 -0.02645357 -0.02629156
 -0.02612546 -0.02595536 -0.02578181 -0.02560399 -0.0254205 -0.02523042 -0.02503151 -0.02482399 -0.02460755 -0.02438154
 -0.02414653 -0.02389808 -0.023635 -0.02335085 -0.0230424 -0.02270938 -0.02234948 -0.02197379 -0.02158289 -0.02119135
 -0.02080064 -0.02041801 -0.02004381 -0.01967743 -0.01931834 -0.01896128 -0.01860495 -0.01823967 -0.01786439 -0.01746879
 -0.01705645 -0.01662831 -0.01619296 -0.01576541 -0.01534756 -0.01494984 -0.01456277 -0.01418316 -0.01380132 -0.0134102
 -0.01300939 -0.01259627 -0.01217667 -0.01175152 -0.011325 -0.01089788 -0.01047245 -0.01004902 -0.009628536 -0.009211035
 -0.008792412 -0.008372686 -0.007949614 -0.007525263 -0.007110024 -0.006705935 -0.006327333 -0.005970454 -0.005635119 -0.005313944
 -0.004993344 -0.004673822 -0.004347354 -0.004026861 -0.00372005 -0.003434866 -0.00318021 -0.002948768 -0.002740258 -0.002546229
 -0.002363735 -0.002192693 -0.002032305 -0.001886576 -0.001755773 -0.001643177 -0.001548978 -0.001476547 -0.001426054 -0.001400968
 -0.001400784 -0.001424769 -0.001471567 -0.001536013 -0.001617309 -0.001710992 -0.001817102 -0.001934037 -0.002061279 -0.002198391
 -0.002342731 -0.002493131 -0.002644383 -0.002794129 -0.002936388 -0.003068385 -0.003187074 -0.003290533 -0.003381361 -0.003459169
 -0.00353069 -0.003596608 -0.003660553 -0.003722761 -0.003781539 -0.003836811 -0.003886836 -0.003932172 -0.003975208 -0.004016765
 -0.004061452 -0.004108769 -0.004160326 -0.004214082 -0.004267588 -0.004318794 -0.004364024 -0.004403356 -0.004435257 -0.004461644
 -0.004483055 -0.004501351 -0.004517583 -0.004531738 -0.004544227 -0.004553492 -0.004559331 -0.004560608 -0.00455707 -0.00454951
 -0.004537937 -0.004527333 -0.004518287 -0.004519852 -0.004532894 -0.004567275 -0.004623457 -0.004708925 -0.004822414 -0.004965705
 -0.005134668 -0.005323847 -0.005528298 -0.005740376 -0.005956413 -0.006171667 -0.006382178 -0.006584836 -0.006776345 -0.006953702
 -0.007120078 -0.007274379 -0.007427087 -0.007579513 -0.007741352 -0.007914293 -0.008096831 -0.008289044 -0.008480374 -0.00867066
 -0.008855732 -0.009036535 -0.009217503 -0.009398759 -0.009583509 -0.009770355 -0.009957457 -0.01014351 -0.01032477 -0.01050251
 -0.01067544 -0.01084915 -0.01102693 -0.01121588 -0.01142215 -0.01164511 -0.01188786 -0.01214 -0.01239976 -0.01265761
 -0.01291161 -0.01315644 -0.01339146 -0.0136122 -0.01381836 -0.01400654 -0.01417673 -0.01432885 -0.01446321 -0.01458142
 -0.01468423 -0.01477438 -0.01485437 -0.01493076 -0.0150083 -0.01509775 -0.01520351 -0.01533579 -0.01549498 -0.01568598
 -0.01590399 -0.01614851 -0.01641221 -0.016692 -0.0169836 -0.01728532 -0.01759526 -0.01791418 -0.01823165 -0.01854759
 -0.0188419 -0.0191132 -0.01935257 -0.0195605 -0.01974647 -0.01991166 -0.02006902 -0.02021811 -0.02036418 -0.02050569
 -0.02064118 -0.02076981 -0.02088926 -0.02099961 -0.02110055 -0.02119081 -0.0212699 -0.02133463 -0.02138335 -0.02141269
 -0.02142067 -0.02140641 -0.0213691 -0.02130965 -0.02122812 -0.02112515 -0.02100087 -0.02085464 -0.02068639 -0.02049675
 -0.02028617 -0.02006243 -0.01982739 -0.01959813 -0.01937625 -0.0191782 -0.01900277 -0.01885564 -0.01873357 -0.01863358
 -0.01855209 -0.01848395 -0.01842519 -0.01837088 -0.01831774 -0.01826199 -0.01820368 -0.01814106 -0.01807874 -0.01801734
 -0.01796209 -0.01791453 -0.01787444 -0.0178423 -0.01781354 -0.01778792 -0.01776049 -0.01773106 -0.01769614 -0.01765592
 -0.01761004 -0.01755882 -0.01750382 -0.01744439 -0.01738029 -0.0173091 -0.01722661 -0.0171298 -0.01701286 -0.01687445
 -0.01671132 -0.01652321 -0.01630966 -0.0160686 -0.01579903 -0.01549971 -0.01516899 -0.01481192 -0.01442827 -0.01402831
 -0.01361326 -0.01318964 -0.01275805 -0.01231956 -0.01187445 -0.01142819 -0.01098251 -0.01055331 -0.01014261 -0.009767987
 -0.009429504 -0.009135954 -0.008887373 -0.008687037 -0.008537184 -0.008441982 -0.008403359 -0.008425663 -0.008506062 -0.008645379
 -0.008836097 -0.009076138 -0.009356281 -0.009674232 -0.0100202 -0.01039267 -0.01078085 -0.01118366 -0.01158984 -0.0119986
 -0.01239965 -0.01279255 -0.01317085 -0.01353464 -0.01388187 -0.01421271 -0.01452699 -0.01482434 -0.01510367 -0.01536439
 -0.01560467 -0.01582455 -0.01602294 -0.01620108 -0.01635907 -0.01650007 -0.01662506 -0.01673996 -0.0168469 -0.01695277
 -0.01706027 -0.01717263 -0.01729172 -0.01741381 -0.01753916 -0.01765949 -0.01777421 -0.01787701 -0.01796767 -0.01804453
 -0.01810762 -0.01815686 -0.01819192 -0.01821113 -0.01821455 -0.0182006 -0.01817171 -0.01813115 -0.01808319 -0.01803507
 -0.01798971 -0.01795299 -0.01792462 -0.01790637 -0.01789642 -0.01789423 -0.01789902 -0.01791059 -0.017928 -0.01795138
 -0.01797783 -0.01800722 -0.0180351 -0.01806111 -0.01808194 -0.0180975 -0.01810713 -0.01811105 -0.01811082 -0.01810666
 -0.01810025 -0.01809167 -0.01808186 -0.01807107 -0.01806023 -0.01804947 -0.01803991 -0.01802997 -0.01801908 -0.01800418
 -0.0179826 -0.01795394 -0.01791604 -0.01787461 -0.01783024 -0.01779109 -0.01775935 -0.01773796 -0.01772814 -0.01772589
 -0.01773109 -0.01773812 -0.01774671 -0.0177537 -0.01775921 -0.01776316 -0.01776575 -0.01776767 -0.0177693 -0.01777195
 -0.01777619 -0.01778375 -0.0177951 -0.01781182 -0.01783357 -0.01786094 -0.01789248 -0.01792751 -0.01796436 -0.01800201
 -0.01803965 -0.01807691 -0.01811308 -0.01814829 -0.0181801 -0.01820834 -0.01822988 -0.01824436 -0.01825122 -0.0182505
 -0.01824613 -0.01823835 -0.01823121 -0.01822407 -0.01821619 -0.0182061 -0.01818845 -0.01816309 -0.01812628 -0.01808051
 -0.01802761 -0.0179705 -0.01791328 -0.01785651 -0.01780202 -0.01774906 -0.01769739 -0.01764757 -0.01759985 -0.01755417
 -0.01751115 -0.01746702 -0.0174215 -0.01736999 -0.01731185 -0.01724827 -0.01717937 -0.01711174 -0.01704562 -0.01698613
 -0.01693262 -0.01688443 -0.01684067 -0.01679797 -0.01675631 -0.01671364 -0.01667108 -0.01662931 -0.01658961 -0.0165538
 -0.01652183 -0.01649478 -0.01647035 -0.01644798 -0.01642485 -0.01639949 -0.01637199 -0.01634172 -0.01631162 -0.016282
 -0.0162554 -0.01623215 -0.01621214 -0.01619536 -0.01618051 -0.01616766 -0.0161572 -0.01614928 -0.01614529 -0.01614484
 -0.01614768 -0.01615267 -0.01615717 -0.01616029 -0.01615925 -0.0161543 -0.01614441 -0.01613092 -0.01611447 -0.01609618
 -0.01607694 -0.01605678 -0.016036 -0.01601389 -0.01599014 -0.01596524 -0.01593903 -0.01591366 -0.01588935 -0.01586733
 -0.01584764 -0.01582742 -0.01580634 -0.01577924 -0.01574622 -0.01570478 -0.01565596 -0.01560201 -0.01554374 -0.0154845
 -0.0154234 -0.01536094 -0.01529497 -0.01522319 -0.01514435 -0.01505644 -0.01496014 -0.01485497 -0.014743 -0.014625
 -0.01450192 -0.01437443 -0.01424114 -0.0141022 -0.01395409 -0.01379654 -0.01362621 -0.01344291 -0.01324636 -0.01303693
 -0.012819 -0.0125934 -0.01236724 -0.0121408 -0.01191932 -0.01170143 -0.01148696 -0.01127338 -0.01105639 -0.01083467
 -0.01060417 -0.01036737 -0.01012396 -0.009879386 -0.009636344 -0.009399022 -0.009169975 -0.008949377 -0.008738039 -0.008533666
 -0.008336043 -0.008143175 -0.007954856 -0.007769811 -0.007587962 -0.007407124 -0.007227145 -0.007045479 -0.006862087 -0.00667545
 -0.006485614 -0.006291857 -0.00609443 -0.005893367 -0.005689392 -0.005483584 -0.005276835 -0.005071086 -0.004865296 -0.004659784
 -0.004451799 -0.004239469 -0.004022647 -0.003799573 -0.003576402 -0.003353567 -0.003140176 -0.002938034 -0.002751255 -0.002580941
 -0.002422301 -0.002275158 -0.002128869 -0.001983008 -0.001829076 -0.001667843 -0.001499207 -0.001325436 -0.001154646 -0.0009889177
 -0.0008378745 -0.0007011546 -0.0005830526 -0.0004808741 -0.000393407 -0.0003174988 -0.0002503258 -0.0001894755 -0.0001332747 -7.893888E-05
 -2.566812E-05 3.093549E-05 9.196963E-05 0.0001612455 0.0002398654 0.0003278017 0.0004254344 0.0005287318 0.0006374812 0.0007477677
 0.0008596065 0.0009729345 0.001087921 0.001206029 0.001326548 0.001447906 0.001568535 0.001683638 0.001792376 0.001890974
 0.001979694 0.0020577 0.002124479 0.002179893 0.002221733 0.002248628 0.002259398 0.002252594 0.002230737 0.00219387
 0.002145998 0.002088042 0.002020957 0.001945101 0.001858643 0.001761471 0.001653279 0.001534303 0.001408478 0.001276387
 0.001143916 0.001011339 0.0008830205 0.0007585226 0.0006391756 0.00052384 0.0004112145 0.0003001552 0.0001885645 7.63214E-05
 -3.772266E-05 -0.0001522382 -0.0002668219 -0.000380204 -0.0004915225 -0.0006011698 -0.0007087987 -0.0008164041 -0.0009240331 -0.001034907
 -0.00114924 -0.001270966 -0.001400344 -0.001540487 -0.001691396 -0.001853113 -0.002025181 -0.00220455 -0.002390619 -0.002579497
 -0.002770621 -0.002960741 -0.00314914 -0.003333228 -0.003512122 -0.003683701 -0.003847474 -0.004001908 -0.004148213 -0.004285965
 -0.004418869 -0.004547653 -0.00467787 -0.004811203 -0.004951223 -0.005099477 -0.005253376 -0.005413251 -0.005571397 -0.005727307
 -0.005875934 -0.00601738 -0.006154501 -0.006287979 -0.006424561 -0.006563876 -0.006708482 -0.006856462 -0.007003868 -0.007149409
 -0.007288071 -0.007421599 -0.007549485 -0.007675672 -0.007803653 -0.007935624 -0.008074574 -0.008218947 -0.008369091 -0.008522115
 -0.008677215 -0.008832726 -0.008988254 -0.009142682 -0.009295985 -0.009445797 -0.009591955 -0.009732668 -0.009867917 -0.009997814
 -0.01012241 -0.01024224 -0.01035717 -0.01046674 -0.01057135 -0.01067164 -0.0107687 -0.0108651 -0.01096094 -0.011058
 -0.01115437 -0.01124887 -0.01134028 -0.01142682 -0.01151039 -0.01159141 -0.01167152 -0.011752 -0.01183022 -0.0119063
 -0.01197514 -0.01203593 -0.01208743 -0.01212939 -0.01216486 -0.01219395 -0.01221868 -0.01223868 -0.01225189 -0.01225805
 -0.01225438 -0.01224202 -0.01222236 -0.01219745 -0.01217187 -0.01214684 -0.01212632 -0.01210942 -0.01209706 -0.01208687
 -0.01207779 -0.01206747 -0.01205438 -0.01203819 -0.01201824 -0.01199591 -0.01197138 -0.01194552 -0.01191862 -0.0118893
 -0.01185748 -0.01182171 -0.01178201 -0.01173984 -0.01169543 -0.01165157 -0.011608 -0.01156504 -0.01152227 -0.01147831
 -0.01143364 -0.01138845 -0.01134359 -0.01130087 -0.01125918 -0.01121847 -0.01117661 -0.01113189 -0.01108409 -0.01103231
 -0.0109783 -0.01092275 -0.01086527 -0.01080626 -0.0107427 -0.0106741 -0.01059959 -0.01051889 -0.01043579 -0.01035049
 -0.01026712 -0.01018555 -0.01010645 -0.0100295 -0.009953255 -0.00987815 -0.009804587 -0.009733412 -0.009666909 -0.009604604
 -0.009547362 -0.009492913 -0.009439213 -0.009385066 -0.009328291 -0.009271186 -0.009213866 -0.009159955 -0.009110949 -0.009067529
 -0.009030562 -0.008996969 -0.008966582 -0.008935836 -0.008904433 -0.008870147 -0.008832884 -0.008791705 -0.008746703 -0.00869817
 -0.008646535 -0.008594014 -0.00854097 -0.008489744 -0.00844025 -0.008393401 -0.008349066 -0.008307519 -0.008268382 -0.008232003
 -0.008196049 -0.008159687 -0.008118928 -0.008071303 -0.008015895 -0.007950694 -0.007881623 -0.007809082 -0.007740989 -0.007678813
 -0.007624541 -0.007578713 -0.007536544 -0.007497797 -0.007457537 -0.007415957 -0.007372999 -0.007329312 -0.007288122 -0.00724974
 -0.007217083 -0.007189478 -0.007167254 -0.007148822 -0.007131959 -0.007115643 -0.007097797 -0.007078699 -0.007058007 -0.00703586
 -0.00701274 -0.006986725 -0.006957283 -0.006922984 -0.006882818 -0.006839806 -0.006793947 -0.006750441 -0.006709864 -0.006673086
 -0.006640091 -0.00660655 -0.006572351 -0.006534475 -0.006493633 -0.006451888 -0.006410062 -0.006372226 -0.006337868 -0.006308407
 -0.006281646 -0.006255087 -0.006226524 -0.006192314 -0.006152564 -0.006105644 -0.00605419 -0.005998987 -0.005942452 -0.005885877
 -0.005829128 -0.005772417 -0.005715157 -0.005657122 -0.005599465 -0.005542291 -0.005486114 -0.005430931 -0.005374423 -0.005316432
 -0.005254172 -0.005188069 -0.005118902 -0.005047343 -0.004976291 -0.004905443 -0.004835539 -0.004766077 -0.004695966 -0.004626703
 -0.004559183 -0.004495539 -0.004438376 -0.004386317 -0.004340253 -0.004295133 -0.004249251 -0.004199772 -0.00414473 -0.004088821
 -0.004031922 -0.003982657 -0.003941848 -0.003914632 -0.003901249 -0.00389818 -0.003904581 -0.003909616 -0.003912474 -0.003902414
 -0.003880688 -0.003845244 -0.003799036 -0.003747836 -0.003693413 -0.00364163 -0.003591447 -0.003544003 -0.003497764 -0.003451867
 -0.003405418 -0.003358177 -0.003307913 -0.003253784 -0.003194258 -0.003127794 -0.003059691 -0.002989953 -0.002927911 -0.002874753
 -0.002831925 -0.00279951 -0.002766566 -0.002732553 -0.002686921 -0.002631097 -0.002567376 -0.002498495 -0.002435783 -0.002379392
 -0.002336447 -0.002302937 -0.002275848 -0.002251027 -0.002221886 -0.002188532 -0.002148318 -0.002104396 -0.002058269 -0.002010308
 -0.001961577 -0.001909132 -0.001852314 -0.001789677 -0.001720513 -0.001647312 -0.001570174 -0.001492109 -0.001413287 -0.00133437
 -0.001255359 -0.001176389 -0.001097522 -0.001019177 -0.0009415094 -0.0008650353 -0.0007904312 -0.000719304 -0.0006527854 -0.0005937203
 -0.0005419839 -0.0004991142 -0.0004628683 -0.0004320905 -0.0004047021 -0.0003789093 -0.0003549955 -0.0003325946 -0.0003126411 -0.0002956475
 -0.0002803037 -0.0002666466 -0.000252196 -0.0002366554 -0.0002191982 -0.0001997605 -0.0001786954 -0.0001558677 -0.0001293786 -9.905323E-05
 -6.221264E-05 -2.001528E-05 2.52533E-05 7.125436E-05 0.0001102052 0.0001431069 0.0001661895 0.0001865305 0.000210747 0.0002446765
 0.0002973925 0.0003643067 0.0004472525 0.0005342864 0.0006214938 0.00069983 0.0007652499 0.0008185598 0.0008585829 0.0008928398
 0.0009220678 0.000950422 0.0009782152 0.001004312 0.001028688 0.00105057 0.001070345 0.001090014 0.00111018 0.001134569
 0.001162613 0.001195386 0.001230621 0.001264945 0.001296643 0.001321476 0.001341354 0.001355488 0.001368966 0.001384316
 0.001405507 0.001435432 0.001472679 0.001518297 0.001565705 0.001613993 0.001657861 0.001696169 0.001732066 0.001765618
 0.001804975 0.001850068 0.001901287 0.001956853 0.002004899 0.002044264 0.002062697 0.00206347 0.002046758 0.00202071
 0.001999104 0.001989064 0.002007165 0.002049291 0.002121376 0.002205507 0.002294397 0.002369927 0.00242107 0.002447126
 0.00244303 0.002426257 0.002397921 0.002379892 0.002374891 0.002394637 0.002440228 0.002507257 0.002594845 0.002686987
 0.002782711 0.002866909 0.002940893 0.003001017 0.003050775 0.003097466 0.003143317 0.003196221 0.003255325 0.003322795
 0.003397046 0.003476853 0.003562941 0.003655251 0.003755073 0.003864098 0.003978127 0.004098418 0.004210617 0.004313466
 0.004388372 0.004432344 0.004441459 0.004414698 0.004377602 0.004332223 0.00431896 0.004337113 0.004403829 0.004510812
 0.004633996 0.004764941 0.004865688 0.004940817 0.004977525 0.004992595 0.005002588 0.005019064 0.005061119 0.005123413
 0.005209846 0.005307408 0.005411139 0.005514085 0.005613366 0.005705618 0.00579045 0.005861454 0.005917832 0.00595524
 0.005973158 0.005975961 0.005964056 0.005945584 0.005920974 0.005896813 0.005873745 0.005857992 0.005849977 0.005854931
 0.005870725 0.005896289 0.005928413 0.005961724 0.005996488 0.006031017 0.006066428 0.006104955 0.006140078 0.006171744
 0.006185782 0.006178012 0.006139497 0.00606643 0.00596411 0.005831776 0.005684678 0.005523713 0.005363752 0.00520525
 0.005054808 0.004911532 0.004771539 0.004633756 0.00449066 0.004343726 0.004192259 0.004040315 0.003895416 0.003760099
 0.00364183 0.00353852 0.003451113 0.003376458 0.003311953 0.003258684 0.003216231 0.003187071 0.003172993 0.003169987
 0.003179162 0.003186454 0.003190871 0.003175887 0.003140034 0.003079098 0.002992985</values></Ydata></AB><ScSm><Ydata ylabel="Single channel"><values byteorder="INTEL" format="FLOAT32" numvalues="1814"> 0.08253564 0.08264823 0.08277464 0.0829192 0.0830761 0.08323137 0.08337139 0.0834931 0.08360313 0.08370506
 0.08379805 0.08389135 0.08400546 0.08415037 0.08431087 0.08445825 0.08457264 0.08466041 0.08475419 0.08488286
 0.08503082 0.08513816 0.0851551 0.08509561 0.08502985 0.08502163 0.08508678 0.08522649 0.08546634 0.08579351
 0.08606951 0.08611988 0.08595227 0.08578599 0.08580934 0.08599132 0.08617325 0.08624508 0.08618726 0.08605438
 0.08599994 0.0862292 0.08681177 0.08752773 0.08793691 0.08763427 0.08651948 0.0849413 0.0836153 0.08325154
 0.08404134 0.08544146 0.08657962 0.08695851 0.08672582 0.08630118 0.08593985 0.08572525 0.08576109 0.0861546
 0.0868393 0.08750464 0.08771636 0.08720107 0.08615576 0.08521248 0.08492266 0.08532959 0.08616212 0.0871632
 0.08784454 0.08724266 0.08477336 0.08152392 0.07991175 0.08144999 0.08516304 0.08860001 0.09006565 0.08951709
 0.08785319 0.08612226 0.08524421 0.08569734 0.08720781 0.08902149 0.09050117 0.09129418 0.09117461 0.09015117
 0.08867875 0.08746557 0.08707851 0.08777645 0.08940464 0.09124024 0.09228446 0.09204914 0.09092095 0.08966252
 0.08885173 0.08885741 0.08987179 0.09168068 0.09368125 0.09532701 0.09641272 0.09695591 0.09706249 0.09690267
 0.09662661 0.09634602 0.09625297 0.09652026 0.0969657 0.09708931 0.09663014 0.09591888 0.09554259 0.09573953
 0.0961957 0.09642567 0.09625433 0.0957282 0.09462325 0.09255344 0.08976379 0.08725417 0.08580364 0.08542563
 0.08600307 0.08761501 0.08976509 0.09115121 0.09097738 0.0900277 0.08981796 0.09095675 0.09276515 0.0942622
 0.09511563 0.09569483 0.0964947 0.09757704 0.09843058 0.0983507 0.09716108 0.09566079 0.0950931 0.09594303
 0.09746522 0.09859935 0.09908328 0.09941539 0.09997276 0.1004613 0.1001744 0.09875217 0.09680934 0.09571321
 0.0964558 0.09867276 0.1008378 0.1014147 0.0999461 0.09730113 0.0949517 0.09391709 0.09436531 0.09603122
 0.09858195 0.1014648 0.103824 0.1049335 0.1046965 0.1036233 0.102276 0.1007446 0.09885164 0.09697412
 0.09625746 0.09754516 0.1002973 0.1030216 0.1046486 0.1051228 0.104798 0.1037203 0.1017247 0.09917979
 0.09731685 0.09731723 0.09896656 0.1007122 0.1013118 0.1009936 0.1007481 0.1009782 0.1012809 0.1012737
 0.1011655 0.1014584 0.1023064 0.1033182 0.1039707 0.1040892 0.1038885 0.1036672 0.103525 0.1033039
 0.1028346 0.1023159 0.1022998 0.103109 0.1044017 0.1055162 0.1061238 0.1063575 0.1064073 0.1061964
 0.1055106 0.1044166 0.1034592 0.1032731 0.1039658 0.105039 0.1059192 0.1063839 0.1065006 0.1064089
 0.1062278 0.1060237 0.1058281 0.1057223 0.1058253 0.1061352 0.1064816 0.1066967 0.1067549 0.1067072
 0.1065715 0.1063392 0.1060499 0.10581 0.105724 0.1058114 0.1060057 0.106223 0.1063981 0.1064708
 0.1064064 0.1062413 0.1060608 0.1059204 0.1058244 0.1057735 0.1057878 0.1058692 0.1059745 0.1060465
 0.1060614 0.1060319 0.1059754 0.1058968 0.1058033 0.105717 0.1056683 0.1056762 0.1057293 0.1057912
 0.1058419 0.1059034 0.1059934 0.1060737 0.106083 0.1060158 0.1059313 0.1058884 0.1059006 0.1059452
 0.10599 0.1060039 0.10596 0.1058538 0.1057286 0.1056648 0.1057186 0.1058806 0.1061031 0.1063395
 0.1065465 0.106688 0.1067654 0.1068177 0.1068747 0.1069295 0.1069657 0.1069923 0.1070457 0.1071611
 0.1073386 0.1075365 0.1077064 0.1078276 0.1079081 0.1079741 0.1080646 0.1082 0.1083448 0.1084364
 0.1084652 0.1084925 0.1085751 0.1086985 0.108801 0.1088489 0.1088692 0.1089131 0.1090013 0.1091117
 0.1092139 0.1093042 0.109404 0.1095286 0.1096564 0.1097364 0.1097376 0.1096879 0.1096459 0.1096416
 0.1096633 0.1096978 0.1097522 0.1098303 0.1099089 0.1099544 0.1099585 0.1099477 0.109953 0.1099735
 0.1099791 0.1099477 0.1098887 0.1098295 0.1097898 0.1097697 0.1097541 0.1097257 0.1096763 0.1096101
 0.1095352 0.1094542 0.1093641 0.1092676 0.1091862 0.109151 0.1091656 0.1091792 0.1091191 0.108958
 0.1087417 0.1085446 0.1084047 0.1083035 0.1081978 0.108062 0.1079035 0.1077471 0.1076099 0.1074904
 0.1073753 0.1072563 0.1071432 0.1070613 0.1070273 0.1070231 0.107001 0.1069267 0.1068117 0.1066977
 0.1066146 0.106563 0.106529 0.1065013 0.1064783 0.1064691 0.1064831 0.1065128 0.1065371 0.1065462
 0.1065547 0.1065855 0.1066533 0.1067603 0.1068922 0.1070155 0.1071003 0.1071514 0.1072055 0.1072922
 0.1074112 0.1075474 0.1076939 0.1078529 0.1080246 0.1082046 0.1083929 0.1085976 0.1088286 0.1090858
 0.1093556 0.1096198 0.109871 0.11012 0.1103866 0.1106832 0.1110042 0.1113312 0.1116474 0.1119507
 0.1122528 0.1125644 0.1128843 0.1132077 0.113539 0.113887 0.114251 0.11462 0.1149861 0.1153509
 0.1157188 0.1160903 0.1164628 0.1168374 0.1172232 0.1176299 0.1180499 0.1184537 0.1188135 0.119133
 0.1194455 0.1197849 0.1201607 0.1205558 0.120938 0.1212802 0.1215835 0.1218792 0.1221978 0.122539
 0.122882 0.1232232 0.1235854 0.1239843 0.1243963 0.1247706 0.1250775 0.1253374 0.125596 0.1258752
 0.1261568 0.1264146 0.1266518 0.1268949 0.1271587 0.1274331 0.1277073 0.1279891 0.1282888 0.1285949
 0.1288833 0.1291445 0.1293892 0.1296277 0.1298545 0.1300535 0.1302149 0.1303493 0.1304867 0.1306529
 0.1308445 0.1310364 0.1312175 0.1314037 0.1316139 0.1318476 0.1320971 0.1323655 0.1326581 0.1329633
 0.1332639 0.1335661 0.1338956 0.1342537 0.1345977 0.1348851 0.135121 0.1353451 0.1355827 0.1358342
 0.1361032 0.1364055 0.1367467 0.1371084 0.137463 0.1377959 0.1381147 0.1384429 0.1387958 0.1391564
 0.139484 0.1397525 0.1399761 0.1401948 0.1404417 0.1407237 0.1410252 0.1413236 0.1416029 0.1418535
 0.1420614 0.1422094 0.1422948 0.1423369 0.1423554 0.142341 0.1422581 0.1420738 0.1417741 0.1413533
 0.1408019 0.1401158 0.13932 0.1384812 0.1376998 0.1370835 0.136717 0.1366436 0.1368636 0.1373371
 0.1379859 0.1387039 0.1393775 0.1399031 0.1401948 0.1401959 0.139896 0.1393346 0.1385803 0.1377048
 0.1367689 0.1358193 0.1348911 0.1340275 0.1333122 0.1328787 0.1328747 0.1334099 0.134519 0.1361424
 0.1381189 0.1402147 0.1422036 0.1439511 0.1454364 0.1467069 0.1478221 0.1488309 0.1497703 0.1506621
 0.1515092 0.1523055 0.153051 0.1537517 0.1544061 0.1549989 0.1555066 0.155908 0.1561952 0.156381
 0.1564938 0.1565617 0.1566055 0.1566425 0.1566803 0.1566963 0.1566318 0.1564208 0.1560307 0.1554824
 0.1548529 0.1542767 0.1539453 0.1540751 0.1548249 0.156198 0.1580125 0.1599823 0.1618492 0.1634599
 0.164765 0.1657846 0.1665809 0.1672297 0.1677926 0.1683063 0.1687877 0.1692441 0.1696795 0.1701002
 0.1705135 0.1709245 0.1713357 0.1717483 0.17216 0.1725648 0.1729587 0.1733471 0.1737417 0.1741508
 0.174571 0.1749904 0.1754009 0.1758069 0.1762154 0.1766222 0.1770151 0.1773911 0.1777604 0.1781361
 0.1785246 0.1789241 0.1793255 0.1797132 0.1800755 0.1804136 0.180739 0.1810615 0.1813846 0.1817088
 0.182035 0.1823628 0.1826897 0.1830144 0.1833378 0.1836604 0.1839775 0.1842823 0.1845731 0.1848574
 0.1851463 0.1854446 0.1857473 0.1860448 0.186333 0.1866186 0.1869122 0.1872167 0.187524 0.1878242
 0.1881147 0.1883993 0.1886824 0.1889666 0.1892544 0.1895471 0.1898422 0.190134 0.19042 0.1907045
 0.1909947 0.1912927 0.1915936 0.191891 0.1921819 0.1924662 0.192746 0.1930258 0.1933093 0.1935965
 0.1938854 0.1941746 0.194462 0.1947431 0.1950147 0.1952773 0.1955344 0.1957906 0.1960508 0.1963178
 0.1965893 0.1968618 0.1971346 0.197409 0.1976838 0.1979553 0.1982206 0.1984819 0.1987452 0.1990136
 0.1992846 0.199554 0.1998216 0.2000898 0.2003585 0.2006253 0.2008876 0.2011445 0.2013991 0.2016566
 0.2019198 0.2021871 0.2024547 0.2027214 0.2029877 0.2032549 0.2035232 0.2037905 0.2040545 0.2043159
 0.2045773 0.2048398 0.2051032 0.2053683 0.2056358 0.2059053 0.2061757 0.2064457 0.2067137 0.2069805
 0.2072487 0.2075193 0.2077902 0.2080597 0.2083273 0.208592 0.2088554 0.2091208 0.2093883 0.2096543
 0.2099173 0.2101795 0.2104432 0.2107089 0.2109756 0.2112405 0.2115026 0.2117662 0.2120361 0.2123108
 0.2125853 0.2128575 0.2131281 0.2133983 0.2136694 0.2139424 0.2142165 0.2144916 0.2147693 0.21505
 0.215333 0.2156185 0.2159041 0.2161836 0.2164524 0.2167109 0.2169611 0.2172065 0.2174521 0.2177002
 0.2179482 0.2181955 0.2184467 0.2187049 0.2189711 0.2192458 0.2195252 0.2198001 0.2200666 0.2203303
 0.2205978 0.2208722 0.221154 0.2214395 0.2217211 0.2219975 0.2222755 0.2225593 0.2228474 0.2231384
 0.2234309 0.2237202 0.2240044 0.2242861 0.2245667 0.2248476 0.2251335 0.2254244 0.2257143 0.2260017
 0.2262912 0.2265834 0.226875 0.227167 0.2274601 0.2277508 0.22804 0.2283331 0.2286306 0.2289281
 0.2292243 0.2295167 0.2298 0.2300788 0.2303643 0.2306594 0.23096 0.2312652 0.2315714 0.2318712
 0.2321645 0.2324567 0.2327455 0.2330279 0.2333101 0.2335957 0.2338799 0.2341629 0.234448 0.2347232
 0.2349596 0.2351008 0.2350055 0.2343754 0.2327081 0.2293 0.2233828 0.2144309 0.2024759 0.1881985
 0.1727389 0.1573405 0.1430133 0.1303975 0.1198389 0.1115156 0.1055291 0.1019909 0.1010942 0.1032079
 0.1089992 0.1190343 0.132324 0.1450711 0.1520961 0.1507612 0.1433623 0.1350471 0.1296251 0.127704
 0.1279944 0.1292275 0.1309033 0.1331415 0.1362422 0.14024 0.1448639 0.1499792 0.1558387 0.1626954
 0.1703093 0.1780373 0.185372 0.1922677 0.1989493 0.2055155 0.2117853 0.217473 0.2224101 0.2266011
 0.230161 0.2332428 0.2359791 0.2384558 0.2407296 0.2428358 0.244744 0.2463346 0.2474692 0.2481022
 0.2483353 0.2483682 0.2483876 0.2484871 0.2486817 0.2489637 0.2493264 0.2497571 0.2502429 0.2507756
 0.2513413 0.2519202 0.2524986 0.2530671 0.2536139 0.2541311 0.2546207 0.2550849 0.2555254 0.2559485
 0.2563596 0.2567555 0.2571336 0.2575002 0.2578621 0.258221 0.2585778 0.2589316 0.2592755 0.259602
 0.259908 0.2601928 0.2604603 0.2607203 0.2609799 0.2612364 0.2614868 0.2617331 0.261977 0.2622179
 0.2624575 0.2626984 0.26294 0.2631816 0.2634236 0.2636628 0.2638953 0.2641239 0.2643542 0.2645885
 0.264827 0.2650694 0.2653117 0.2655489 0.2657809 0.266011 0.2662438 0.2664867 0.2667441 0.2670096
 0.2672714 0.2675272 0.2677838 0.2680456 0.2683125 0.2685844 0.2688614 0.2691418 0.2694237 0.269702
 0.2699669 0.2702102 0.270434 0.2706493 0.2708676 0.2710958 0.2713324 0.2715707 0.2718062 0.2720396
 0.2722734 0.2725111 0.2727557 0.2730054 0.273255 0.2735076 0.2737742 0.2740589 0.2743537 0.2746491
 0.2749408 0.2752255 0.2755033 0.2757823 0.2760704 0.2763643 0.2766533 0.2769352 0.2772235 0.2775372
 0.2778786 0.2782255 0.2785518 0.2788551 0.2791545 0.2794678 0.2797998 0.2801378 0.2804495 0.2807041
 0.2809175 0.2811567 0.2814792 0.281877 0.2822918 0.2826747 0.2830189 0.283344 0.2836653 0.283981
 0.2842773 0.2845417 0.2847796 0.2850278 0.285333 0.2857041 0.2860973 0.2864638 0.2867931 0.2870987
 0.2873916 0.2876792 0.2879537 0.2881719 0.2882944 0.2883716 0.2885422 0.2889045 0.2894095 0.289914
 0.2903264 0.2906647 0.2909828 0.2912956 0.2915888 0.291835 0.2919603 0.2918831 0.2916708 0.2915924
 0.2918981 0.2925645 0.2933331 0.2939697 0.2944182 0.2947423 0.2950185 0.2952845 0.2955184 0.2956422
 0.2956055 0.2955018 0.2955538 0.2959099 0.2964763 0.2970188 0.2974092 0.2976967 0.2979735 0.2982697
 0.2985402 0.29865 0.2984312 0.297913 0.2974791 0.2976216 0.2984654 0.2996235 0.300581 0.3011526
 0.3014894 0.3017229 0.3017721 0.3015001 0.3008871 0.3000372 0.2992265 0.2989487 0.2995908 0.3009349
 0.3022493 0.303023 0.303404 0.3038258 0.3044453 0.3050796 0.3055039 0.3056518 0.3055803 0.3053394
 0.3049466 0.3045333 0.3044353 0.3049566 0.3060166 0.3071669 0.308013 0.3085257 0.3088618 0.3089045
 0.308144 0.3062795 0.3040113 0.3028657 0.3038419 0.3063623 0.3088989 0.3104841 0.3112423 0.3116791
 0.3120201 0.3121451 0.3115754 0.3096343 0.3063686 0.3033524 0.3027303 0.3051048 0.3088614 0.3117321
 0.3125252 0.3113697 0.3091415 0.3070582 0.3062455 0.3071269 0.3092476 0.3117382 0.3138351 0.3150907
 0.3154056 0.314986 0.3142565 0.313747 0.3137596 0.3139177 0.3134015 0.312013 0.3105585 0.3096098
 0.3084595 0.3062783 0.3039603 0.3035713 0.3057926 0.3089362 0.310903 0.3113333 0.3112308 0.3109355
 0.3092979 0.3051962 0.299617 0.2956233 0.2957305 0.2993951 0.3035539 0.3056337 0.3055843 0.3050005
 0.3048808 0.3045719 0.3027419 0.2992651 0.2959574 0.2949519 0.2963081 0.2979242 0.2978653 0.2957255
 0.2916144 0.2856619 0.2796055 0.2771212 0.2805784 0.2880841 0.2951527 0.2985752 0.2974259 0.2917299
 0.282784 0.274533 0.2717953 0.2758201 0.2828263 0.2876585 0.2878481 0.2837182 0.2762846 0.2668078
 0.2578713 0.2530579 0.2546635 0.261847 0.2708059 0.2764339 0.2749287 0.266829 0.2577537 0.2541746
 0.257343 0.2624722 0.2643691 0.2623177 0.2589982 0.2568309 0.2566344 0.2580893 0.2601007 0.2616569
 0.2626096 0.2622632 0.2579466 0.2479791 0.2361085 0.2295239 0.231439 0.23851 0.2462923 0.25371
 0.2605639 0.2643318 0.2628633 0.258651 0.2572308 0.2612725 0.2680402 0.2728803 0.2739378 0.2729047
 0.2719337 0.2710612 0.2692845 0.2673539 0.2678126 0.2718294 0.2773702 0.2814093 0.2829725 0.283142
 0.2830167 0.2827853 0.2822896 0.2814858 0.2804115 0.2792048 0.2780906 0.2771332 0.2761887 0.2751886
 0.2740728 0.2721791 0.2682996 0.2622696 0.256318 0.25353 0.2546076 0.2574337 0.2601001 0.2622755
 0.2626644 0.2579767 0.2472192 0.2355344 0.2306642 0.2354775 0.2456899 0.2546754 0.2586989 0.2573832
 0.2514813 0.2425339 0.2344571 0.2328534 0.2406956 0.2552244 0.2704372 0.2821662 0.2896551 0.2932298
 0.2927135 0.2886283 0.283534 0.2810174 0.2832469 0.2895641 0.2969955 0.3016205 0.3002751 0.2931609
 0.2855889 0.2847523 0.2925614 0.3030823 0.3090864 0.3096299 0.3089683 0.3098155 0.3110259 0.3113483
 0.3120399 0.3147488 0.3187991 0.321754 0.3215994 0.3175899 0.3102267 0.3018315 0.2961821 0.2955415
 0.2981815 0.300383 0.3002588 0.2977962 0.2925239 0.2845288 0.2773798 0.2762112 0.2818856 0.2896875
 0.2946995 0.2963791 0.2970309 0.297649 0.2967417 0.2928225 0.287044 0.2826937 0.2819633 0.283873
 0.2858615 0.2865542 0.2859809 0.2839748 0.2801637 0.2756639 0.2732416 0.2748746 0.2796578 0.2847056
 0.2878252 0.2888693 0.2888874 0.2887759 0.288796 0.2887488 0.2884248 0.2882235 0.2891851 0.2918602
 0.2953154 0.297972 0.299422 0.3007598 0.303038 0.3059741 0.3083778 0.3094735 0.3095923 0.3097702
 0.3108223 0.3126744 0.3144319 0.3151634 0.3148071 0.3143362 0.3148781 0.3166403 0.3188371 0.3206059
 0.3217379 0.3225423 0.3233424 0.3242056 0.3249136 0.3251383 0.3248682 0.3246699 0.3252672 0.326789
 0.3286165 0.330012 0.3307264 0.3309624 0.3309509 0.3307261 0.3302523 0.329619 0.3290415 0.3286963
 0.3285986 0.328639 0.3286989 0.3287198 0.3287037 0.3286949 0.3287502 0.3288976 0.3291212 0.3293904
 0.3296795 0.3299525 0.3301661 0.3303117 0.3304266 0.3305354 0.330599 0.3305373 0.3302791 0.3297751
 0.3289873 0.3278893 0.3264651 0.3246882 0.3225282 0.3200547 0.3176014 0.3157969 0.3153061 0.3164123
 0.318791 0.3216895 0.3243529 0.3263515 0.3276269 0.3283362 0.3286765 0.3287935 0.3287663 0.3286266
 0.3283891 0.3280738 0.3277091 0.3273219 0.3269336 0.3265646 0.3262314 0.3259352 0.3256565 0.325361
 0.3250138 0.3245937 0.3240964 0.3235276 0.3228905 0.3221785 0.3213726 0.3204515 0.3194157 0.3183061
 0.3171907 0.3161269 0.3151261 0.3141506 0.3131459 0.312067 0.3108646 0.309472 0.3078662 0.3061625
 0.3045859 0.3032917 0.3022286 0.301205 0.3000637 0.2987611 0.2973207 0.2957758 0.2941596 0.292506
 0.2908341 0.2891367 0.2873889 0.2855649 0.2836523 0.2816564 0.2795892 0.2774607 0.2752831 0.2730711
 0.270816 0.26845 0.2658411 0.2628268 0.2592621 0.2550563 0.250196 0.2447585 0.2389105 0.2328761
 0.2268804 0.22111 0.2157148 0.2108314 0.2065897 0.2030953 0.2004147 0.198578 0.1975938 0.1974585
 0.1981545 0.1996409 0.2018445 0.204652 0.2079092 0.2114311 0.2150211 0.2184961 0.2217257 0.2246729
 0.2273893 0.2299494 0.2323788 0.2346471 0.2367123 0.2385553 0.2401739 0.2415679 0.2427419 0.2437198
 0.2445455 0.2452663 0.2459117 0.2464875 0.2469856 0.2473999 0.2477367 0.2480178 0.2482762 0.2485474
 0.248859 0.2492242 0.2496453 0.2501276 0.2506866 0.2513387 0.2520835 0.2529011 0.2537655 0.2546597
 0.2555836 0.2565543 0.2576044 0.2587764 0.2601088 0.2616186 0.2632939 0.2650949 0.2669536 0.2687733
 0.2704436 0.2718722 0.2730111 0.2738583 0.2744372 0.2747752 0.2748967 0.2748269 0.2745922 0.274216
 0.2737194 0.2731266 0.2724624 0.2717411 0.2709636 0.2701272 0.2692382 0.2683182 0.267395 0.2664844
 0.2655849 0.2646932 0.2638162 0.2629611 0.262125 0.2613001 0.2604834 0.25968 0.2589031 0.2581661
 0.2574667 0.25678 0.256064 0.2552682 0.2543455 0.2532672 0.2520268 0.250627 0.249073 0.2473762
 0.2455534 0.2436181 0.2415817 0.2394594 0.2372671 0.2350102 0.2326778 0.230252 0.2277388 0.2251963
 0.2227191 0.2203866 0.2182299 0.2162387 0.2143843 0.212637 0.2109796 0.2094036 0.2078971 0.2064487
 0.2050603 0.2037422 0.2025 0.2013333 0.2002444 0.1992399 0.1983337 0.1975419 0.1968686 0.1962996
 0.1958148 0.195399 0.1950521 0.194803 0.1946935 0.1947232 0.19482 0.1948842 0.1948541 0.1947334
 0.1945763 0.1944469 0.1943776 0.1943616 0.1943709 0.1943554 0.194229 0.1938874 0.1932377 0.1922061
 0.1907498 0.1888891 0.1867201 0.184392 0.1820781 0.1799414 0.1780976 0.1766028 0.1754636 0.1746311
 0.1740052 0.1734962 0.173092 0.1728568 0.1728702 0.1731412 0.1735438 0.1738704 0.1740125 0.1740808
 0.1743088 0.1748535 0.1756991 0.1767014 0.1776924 0.1785644 0.1792798 0.179829 0.1802147 0.1804655
 0.1806138 0.180665 0.1806135 0.1804592 0.1801935 0.1798071 0.1793177 0.1787474 0.1780884 0.1773261
 0.1764678 0.1755201 0.174479 0.1733431 0.172092 0.1706886 0.1691768 0.1677629 0.1667471 0.1663656
 0.1666684 0.1674906 0.1685646 0.1697007 0.170821 0.171836 0.1726356 0.1732754 0.1740661 0.1753709
 0.1772987 0.1795887 0.1817883 0.1835444 0.184725 0.1853267 0.1853865 0.1849734 0.1841312 0.1828343
 0.1810891 0.1790175 0.1767693 0.1744619 0.1722354 0.1702254 0.1684873 0.1670384 0.1658888 0.1650366
 0.1645371 0.1641087 0.1621845 0.1564641 0.147175 0.1391802 0.1383118 0.145093 0.1540163 0.1594574
 0.1604505 0.1593503 0.1581167 0.157176 0.1564596 0.1560393 0.1559629 0.1561203 0.1562961 0.1562744
 0.1559694 0.1553976 0.1544244 0.1525418 0.1488742 0.1424956 0.1331114 0.1216823 0.110218 0.1007156
 0.09417503 0.09039176 0.08839206 0.08711337 0.08601069 0.08523633 0.08527967 0.08646517 0.08877689 0.09200937
 0.09591126 0.1001479 0.1042535 0.1077829 0.1105459 0.1126146 0.1141087 0.1150698 0.1155316 0.1155791
 0.1153009 0.1147538 0.1139799 0.1130043 0.1118197 0.1104207 0.1088782 0.1073801 0.106167 0.1053788
 0.1049632 0.1047621 0.1046624 0.1046323 0.104666 0.1047551 0.1048932 0.1050755 0.1053064 0.1056006
 0.1059467 0.1062857 0.1065538 0.106732 0.106837 0.106879 0.1068309 0.1066476 0.1063414 0.1060058
 0.1056856 0.1052409 0.1044525 0.1033019 0.1020868 0.1012328 0.1009968 0.1013115 0.1018628 0.1023223
 0.1025528 0.1026266 0.1026679 0.1026834</values></Ydata></ScSm><ScRf><Ydata ylabel="Single channel"><values byteorder="INTEL" format="FLOAT32" numvalues="1820"> 0.06965823 0.06978582 0.06990053 0.07000075 0.07008907 0.07017571 0.07027555 0.07039721 0.0705359 0.07067664
 0.07080454 0.0709147 0.07101138 0.07109766 0.0711748 0.0712536 0.07135352 0.07148279 0.07162661 0.07175899
 0.07186297 0.07194383 0.07202777 0.07213795 0.07226241 0.07235291 0.0723673 0.07231532 0.07225635 0.07224773
 0.07230581 0.07243139 0.07264431 0.07293214 0.07317581 0.07322557 0.07308769 0.0729504 0.07297552 0.07313604
 0.07329381 0.07335223 0.07329495 0.07317285 0.07312141 0.07331646 0.07381502 0.07442854 0.07478277 0.07453204
 0.07358812 0.07224717 0.07112071 0.07081424 0.07148819 0.07267797 0.07364358 0.07396733 0.07377842 0.07343192
 0.07313849 0.07296309 0.07299417 0.07332879 0.07391535 0.0744883 0.07467313 0.07423495 0.07334375 0.07254157
 0.07229955 0.07265367 0.0733719 0.07423493 0.07482463 0.07431528 0.07220586 0.0694269 0.0680479 0.06936465
 0.07254349 0.07548826 0.07674813 0.07628465 0.07486595 0.07338998 0.07264478 0.07303794 0.07433207 0.0758808
 0.07714085 0.07781393 0.07770996 0.0768384 0.0755886 0.07456408 0.07424587 0.0748526 0.07625198 0.07782689
 0.07872236 0.0785189 0.0775483 0.07646801 0.07577714 0.07579053 0.0766678 0.0782226 0.07994109 0.08135939
 0.08230151 0.08277704 0.08287178 0.08273341 0.08249749 0.08226393 0.08219467 0.08243266 0.08282015 0.0829307
 0.08254312 0.08194131 0.08162707 0.08180257 0.08219776 0.08239744 0.08225316 0.08180577 0.08086331 0.07909459
 0.07670884 0.07456244 0.07332344 0.0730048 0.07350725 0.074898 0.07674992 0.07794528 0.07780074 0.07698907
 0.07681251 0.07779644 0.07935958 0.08065762 0.08140122 0.08190478 0.08259386 0.0835255 0.08426543 0.08420983
 0.08320417 0.08193138 0.08145933 0.08220526 0.08352629 0.0845077 0.08492498 0.0852122 0.0856992 0.08613388
 0.08590507 0.0846991 0.08304281 0.08211294 0.0827642 0.08468471 0.08656277 0.08707716 0.08583437 0.08358191
 0.08158486 0.08071718 0.08112171 0.08257365 0.08479311 0.08730765 0.08937739 0.09037016 0.09019819 0.0893015
 0.08816738 0.08687399 0.08526633 0.08367077 0.08308225 0.08423352 0.08665423 0.08904698 0.09048583 0.09092911
 0.09068897 0.08980265 0.08811958 0.08595568 0.08438228 0.08442894 0.08590898 0.08747114 0.08803611 0.08780473
 0.0876389 0.08788684 0.08819637 0.0882366 0.0881934 0.08850627 0.08930692 0.09024923 0.09087321 0.09102657
 0.09089947 0.09075648 0.09068671 0.09055136 0.09019966 0.08980392 0.08984764 0.09061429 0.09180462 0.09283797
 0.09342593 0.09368585 0.09378518 0.09365574 0.09310649 0.09219438 0.09140235 0.09129671 0.09197761 0.0930032
 0.09385873 0.09433971 0.09450407 0.09447828 0.09437095 0.09424391 0.094128 0.0940969 0.09425397 0.09459366
 0.09496277 0.09521332 0.09532283 0.09533651 0.09527083 0.09512007 0.0949202 0.09476535 0.09474871 0.09488912
 0.09512752 0.09538685 0.0956056 0.09572834 0.09572368 0.09562486 0.09551007 0.09543271 0.09540004 0.09541272
 0.09548448 0.09561312 0.09576032 0.09587787 0.09594581 0.09597401 0.09597522 0.09595318 0.09591576 0.09588481
 0.09588782 0.09594068 0.09603231 0.09613083 0.09622019 0.09632096 0.09644868 0.09656598 0.09661526 0.09659303
 0.09655714 0.09656339 0.09662184 0.09670908 0.09679461 0.09684949 0.09684867 0.09678832 0.09670915 0.09668568
 0.09677096 0.0969573 0.09719827 0.09744781 0.09766708 0.09782663 0.09792825 0.09800521 0.09808429 0.09816203
 0.09822503 0.09827962 0.09835647 0.09848765 0.09867467 0.09888048 0.0990606 0.09919581 0.09929343 0.09937893
 0.09948999 0.09964511 0.09980725 0.09991311 0.09995257 0.09998718 0.1000751 0.1002038 0.1003145 0.1003732
 0.1004032 0.1004507 0.100536 0.1006411 0.1007405 0.1008314 0.1009325 0.1010559 0.1011799 0.101256
 0.1012561 0.1012083 0.1011704 0.1011709 0.1011975 0.1012375 0.1013012 0.1013937 0.101487 0.1015396
 0.1015401 0.1015194 0.1015151 0.1015299 0.1015333 0.1015006 0.1014398 0.1013792 0.1013395 0.1013226
 0.1013163 0.1013047 0.101276 0.1012271 0.1011626 0.1010899 0.1010139 0.1009398 0.1008849 0.1008748
 0.1009108 0.100941 0.1008921 0.1007384 0.1005313 0.1003502 0.100233 0.1001566 0.1000721 0.09995041
 0.09979749 0.09963931 0.09949671 0.09937291 0.09925865 0.09914558 0.09903958 0.09896235 0.0989307 0.09892631
 0.09889713 0.09880406 0.09866168 0.0985208 0.09841717 0.09834999 0.09830198 0.0982613 0.09822641 0.09820367
 0.0981985 0.09820287 0.0981992 0.09818263 0.09816939 0.09817985 0.09822493 0.09830733 0.09841636 0.09851961
 0.09858301 0.09860829 0.09863484 0.09869738 0.09879529 0.09890772 0.0990236 0.09914682 0.09928331 0.09943451
 0.09960157 0.09978768 0.09999446 0.100218 0.1004482 0.1006719 0.1008819 0.101086 0.101304 0.1015516
 0.1018268 0.1021129 0.1023936 0.1026652 0.1029343 0.1032066 0.1034809 0.1037557 0.1040381 0.1043388
 0.1046596 0.1049895 0.1053159 0.1056353 0.1059517 0.1062688 0.1065873 0.1069094 0.1072456 0.1076076
 0.1079895 0.1083596 0.1086854 0.1089665 0.1092351 0.1095255 0.1098489 0.1101911 0.110523 0.1108203
 0.1110849 0.1113462 0.1116305 0.1119332 0.1122344 0.1125359 0.1128651 0.1132373 0.1136235 0.1139671
 0.1142347 0.1144479 0.1146598 0.1149004 0.1151524 0.1153834 0.1155889 0.1157936 0.1160149 0.1162473
 0.1164843 0.1167358 0.1170111 0.1172948 0.1175579 0.1177886 0.1179976 0.118196 0.1183779 0.1185283
 0.1186407 0.1187285 0.1188208 0.1189413 0.1190872 0.1192365 0.1193761 0.1195152 0.1196696 0.1198454
 0.1200443 0.1202708 0.1205219 0.1207791 0.121027 0.1212785 0.1215622 0.121877 0.1221774 0.1224185
 0.1226053 0.1227791 0.1229672 0.1231703 0.1233907 0.1236432 0.1239331 0.1242415 0.124542 0.124823
 0.1250946 0.1253784 0.1256852 0.1259956 0.1262704 0.126487 0.1266641 0.1268443 0.1270591 0.1273125
 0.1275889 0.1278688 0.1281386 0.1283866 0.1285957 0.1287492 0.1288491 0.1289188 0.1289757 0.1290047
 0.1289692 0.128842 0.1286158 0.1282856 0.1278391 0.1272708 0.1266049 0.125902 0.1252491 0.1247388
 0.1244452 0.1244063 0.1246192 0.1250456 0.1256179 0.1262477 0.1268406 0.12731 0.1275827 0.127607
 0.127369 0.1268991 0.1262583 0.1255123 0.1247153 0.123904 0.123105 0.1223572 0.1217409 0.1213799
 0.1214051 0.1219067 0.1229018 0.1243185 0.1259937 0.1277106 0.1292825 0.130626 0.1317617 0.1327511
 0.133641 0.1344575 0.1352226 0.1359544 0.1366562 0.1373202 0.1379413 0.1385212 0.1390595 0.1395475
 0.1399699 0.1403107 0.1405599 0.1407224 0.1408178 0.1408675 0.1408865 0.1408866 0.1408749 0.1408384
 0.1407362 0.1405184 0.1401592 0.1396773 0.1391419 0.1386743 0.1384402 0.1386091 0.13928 0.1404186
 0.1418627 0.1433992 0.1448511 0.1461125 0.1471401 0.1479416 0.1485647 0.1490737 0.1495203 0.1499337
 0.1503276 0.1507069 0.151071 0.1514193 0.1517564 0.15209 0.1524263 0.1527677 0.1531109 0.1534486
 0.1537766 0.1541001 0.1544304 0.1547749 0.1551289 0.15548 0.1558222 0.156163 0.1565105 0.1568585
 0.1571917 0.1575057 0.1578119 0.1581252 0.1584528 0.1587951 0.1591445 0.1594842 0.1597975 0.1600836
 0.1603581 0.1606372 0.1609246 0.1612136 0.1614976 0.1617758 0.1620524 0.1623321 0.162615 0.1628967
 0.1631705 0.163432 0.1636823 0.1639282 0.1641776 0.1644348 0.1646979 0.1649615 0.1652209 0.1654768
 0.1657349 0.1659988 0.1662637 0.166521 0.1667677 0.1670101 0.1672561 0.1675077 0.1677614 0.168013
 0.1682618 0.1685101 0.1687607 0.1690146 0.1692716 0.1695306 0.1697883 0.1700413 0.1702887 0.1705328
 0.170775 0.1710141 0.1712498 0.1714866 0.1717308 0.171984 0.1722394 0.1724894 0.1727315 0.1729671
 0.1731974 0.1734247 0.1736538 0.1738885 0.174129 0.1743716 0.1746128 0.1748511 0.1750866 0.175321
 0.175556 0.1757934 0.1760349 0.1762809 0.176528 0.1767724 0.1770126 0.1772491 0.1774822 0.1777139
 0.177947 0.1781844 0.1784266 0.1786725 0.1789185 0.1791597 0.1793938 0.1796235 0.1798536 0.1800878
 0.1803251 0.1805603 0.1807892 0.1810137 0.1812391 0.1814689 0.1817043 0.1819447 0.1821862 0.182423
 0.1826536 0.1828824 0.1831148 0.1833519 0.1835909 0.1838279 0.184062 0.1842957 0.1845312 0.1847676
 0.1850043 0.1852421 0.185481 0.1857193 0.1859569 0.1861944 0.1864305 0.1866664 0.1869054 0.1871487
 0.1873934 0.1876379 0.187883 0.1881295 0.1883766 0.1886228 0.1888667 0.1891089 0.1893529 0.1896013
 0.1898525 0.1901056 0.1903626 0.190624 0.1908859 0.1911445 0.1913968 0.1916411 0.19188 0.1921178
 0.1923535 0.1925823 0.1928041 0.1930237 0.1932442 0.1934672 0.1936939 0.193924 0.1941564 0.1943928
 0.1946342 0.1948773 0.1951193 0.1953618 0.1956069 0.195855 0.1961066 0.1963602 0.1966114 0.1968596
 0.1971089 0.1973607 0.197613 0.1978675 0.1981276 0.1983934 0.1986636 0.1989348 0.1992001 0.1994573
 0.1997147 0.1999798 0.2002483 0.2005146 0.2007792 0.2010443 0.2013111 0.2015815 0.2018541 0.2021227
 0.2023865 0.2026509 0.2029175 0.2031847 0.2034543 0.2037265 0.2039966 0.204265 0.204538 0.2048173
 0.2050991 0.205381 0.205659 0.2059279 0.2061913 0.2064574 0.2067263 0.2069944 0.2072638 0.2075343
 0.2078005 0.2080637 0.2083279 0.208584 0.2088088 0.2089528 0.2088864 0.2083391 0.2068625 0.2038352
 0.1985797 0.1906293 0.1800074 0.1673151 0.1535676 0.1398759 0.1271409 0.1159294 0.1065444 0.09914318
 0.09381808 0.09067018 0.08987281 0.09175811 0.09692521 0.1058796 0.1177353 0.1291048 0.135374 0.1341954
 0.127613 0.120208 0.1153743 0.1136621 0.1139326 0.1150552 0.1165726 0.1185811 0.1213487 0.1249147
 0.1290445 0.1336195 0.1388638 0.1450012 0.1518158 0.1587311 0.1652914 0.1714543 0.1774236 0.1832937
 0.1889087 0.1940135 0.1984522 0.2022233 0.2054261 0.2081972 0.2106576 0.2128865 0.2149367 0.2168394
 0.2185653 0.2200067 0.221041 0.2216289 0.2218605 0.2219126 0.2219505 0.2220577 0.2222474 0.2225148
 0.222857 0.2232655 0.2237271 0.2242302 0.2247599 0.2252994 0.2258386 0.2263714 0.2268887 0.2273834
 0.2278534 0.2282959 0.2287093 0.2291011 0.2294813 0.2298534 0.2302187 0.230581 0.2309407 0.2312946
 0.2316425 0.2319836 0.2323107 0.232618 0.2329071 0.2331817 0.2334459 0.2337069 0.2339706 0.2342354
 0.2344975 0.2347555 0.2350079 0.2352536 0.2354962 0.2357382 0.235978 0.2362153 0.2364553 0.2367008
 0.2369488 0.2371952 0.2374378 0.2376757 0.2379109 0.2381472 0.238384 0.2386186 0.2388518 0.2390867
 0.2393256 0.2395721 0.2398295 0.2400947 0.2403615 0.240629 0.2408984 0.2411672 0.2414337 0.2417008
 0.2419714 0.2422459 0.2425245 0.2428053 0.2430793 0.2433352 0.2435694 0.2437887 0.2440059 0.244232
 0.2444675 0.2447045 0.2449385 0.2451738 0.245414 0.245658 0.2459049 0.2461558 0.2464113 0.246673
 0.2469457 0.24723 0.2475189 0.2478047 0.2480859 0.2483657 0.2486487 0.2489378 0.2492297 0.2495154
 0.2497912 0.2500662 0.2503565 0.2506739 0.2510145 0.2513581 0.2516854 0.2519943 0.2522961 0.2526019
 0.2529182 0.2532417 0.2535498 0.2538149 0.2540452 0.2542942 0.2546113 0.2549919 0.2553892 0.255762
 0.2561022 0.2564231 0.2567364 0.2570413 0.2573298 0.2575957 0.2578468 0.2581125 0.2584289 0.2588004
 0.2591869 0.2595432 0.2598593 0.260151 0.2604338 0.2607162 0.2609884 0.2612085 0.2613437 0.2614446
 0.2616377 0.2620064 0.2624986 0.2629813 0.2633732 0.2636955 0.2640029 0.2643146 0.2646213 0.2648959
 0.2650608 0.2650285 0.2648538 0.2647877 0.2650722 0.2656972 0.2664289 0.2670493 0.2675025 0.2678441
 0.2681413 0.2684252 0.2686752 0.2688228 0.2688227 0.268757 0.268827 0.2691727 0.2697155 0.2702438
 0.2706363 0.2709332 0.2712174 0.2715177 0.2717954 0.2719292 0.2717674 0.2713373 0.2709873 0.2711602
 0.2719646 0.2730489 0.2739515 0.2745091 0.2748569 0.2751085 0.2751871 0.2749707 0.274445 0.2737073
 0.2730096 0.2727997 0.2734284 0.2746971 0.2759403 0.2766923 0.2770875 0.2775213 0.2781369 0.2787641
 0.279195 0.2793705 0.279345 0.2791622 0.2788342 0.2784848 0.2784318 0.2789606 0.2799938 0.2811113
 0.2819431 0.2824594 0.282807 0.2828853 0.2822313 0.2805707 0.2785453 0.2775521 0.2785012 0.2808571
 0.2832192 0.2847074 0.2854438 0.2858931 0.2862577 0.2864242 0.2859554 0.2842316 0.2812929 0.27858
 0.2780622 0.2802951 0.2837975 0.2864884 0.2872756 0.2862774 0.2842945 0.2824423 0.2817557 0.2826247
 0.2846315 0.2869779 0.2889648 0.2901831 0.2905408 0.2902238 0.2896196 0.2892154 0.2892914 0.2895018
 0.289091 0.287877 0.2866037 0.2857971 0.2848028 0.2828569 0.2807896 0.2805105 0.2826453 0.2856306
 0.287528 0.2880092 0.2880008 0.2878126 0.2863798 0.2826657 0.2775848 0.2739754 0.2741738 0.2776801
 0.2816494 0.2836863 0.2837422 0.2833028 0.2833026 0.2831395 0.2815747 0.2784858 0.2755561 0.2747702
 0.2761868 0.2778493 0.2779525 0.2761152 0.2724354 0.2670296 0.2615187 0.2593427 0.2627268 0.2699117
 0.2767048 0.2800982 0.2792122 0.2740535 0.2658297 0.2582503 0.2558584 0.2598423 0.2666516 0.2714335
 0.2718582 0.2682209 0.2614724 0.252807 0.2446814 0.2405007 0.2424456 0.2497158 0.2586894 0.2644887
 0.2634664 0.2561288 0.2478654 0.2448938 0.2484119 0.2538051 0.2560716 0.2545301 0.2517724 0.2501374
 0.2504201 0.2523135 0.2547525 0.256755 0.2581747 0.2582994 0.2544582 0.2449805 0.2335851 0.2273977
 0.2295987 0.2368729 0.2448244 0.2523999 0.2594004 0.2633025 0.2619489 0.2578107 0.2563996 0.2603804
 0.2670347 0.2717341 0.2726385 0.2714405 0.2702936 0.2692505 0.2673334 0.2652978 0.2656614 0.2695665
 0.2749855 0.2789212 0.2804129 0.2805284 0.2803463 0.2800511 0.2794953 0.2786471 0.2775472 0.276328
 0.2752061 0.2742444 0.2733035 0.2723183 0.2712269 0.2693624 0.2655084 0.2594812 0.2534741 0.2505392
 0.2513829 0.2539314 0.2563187 0.2582345 0.2584172 0.253631 0.2428879 0.2312295 0.2262567 0.2307835
 0.240598 0.2491964 0.2529241 0.2514296 0.2454687 0.2365532 0.2284903 0.2267135 0.234094 0.2479393
 0.2624238 0.2735218 0.2805251 0.2837711 0.2830993 0.2790166 0.2739908 0.2714657 0.2734993 0.2794181
 0.2863309 0.2904652 0.2888062 0.2815841 0.2739245 0.2727442 0.2798887 0.2896823 0.295199 0.2955196
 0.2947013 0.2953374 0.2963411 0.2965225 0.297085 0.2996089 0.3034626 0.306333 0.3063012 0.3026521
 0.2958563 0.2881163 0.2830148 0.2826813 0.2854361 0.2877104 0.2877052 0.2854256 0.2804392 0.272843
 0.2660614 0.2650107 0.2705107 0.2780377 0.2828815 0.2845314 0.2852073 0.2858644 0.2850668 0.2813879
 0.2759465 0.271919 0.2714266 0.2735369 0.2757942 0.2768763 0.2767958 0.2753612 0.2721867 0.2683434
 0.2665105 0.2685953 0.2736912 0.2789574 0.2822272 0.2833335 0.28329 0.2829807 0.2826834 0.2822306
 0.281446 0.2807482 0.2811763 0.2832833 0.2861725 0.288319 0.2893342 0.2902828 0.2921856 0.2947708
 0.2968885 0.2977832 0.2977563 0.2977833 0.2986364 0.3002507 0.3017864 0.3023665 0.3019381 0.3014362
 0.301946 0.3036682 0.3058362 0.3075967 0.308728 0.3095204 0.3102881 0.3110986 0.3117452 0.311921
 0.3116269 0.311415 0.3119815 0.3134457 0.3152098 0.316563 0.3172635 0.3175037 0.3175105 0.3173292
 0.3169293 0.3163815 0.3158687 0.3155505 0.3154505 0.315478 0.3155276 0.3155437 0.3155257 0.3155119
 0.3155512 0.3156654 0.3158388 0.3160469 0.3162714 0.3164815 0.316638 0.3167394 0.3168299 0.316934
 0.3170049 0.3169559 0.3167221 0.3162712 0.315575 0.314599 0.3133119 0.3116812 0.3096779 0.3073674
 0.3050704 0.3033999 0.3030068 0.3041614 0.3065373 0.3093993 0.3120233 0.3140046 0.3152914 0.316031
 0.3164063 0.3165555 0.3165612 0.3164631 0.3162766 0.3160136 0.3156946 0.3153455 0.3149895 0.3146455
 0.3143263 0.3140349 0.3137613 0.313481 0.3131628 0.3127819 0.3123299 0.311811 0.31123 0.3105795
 0.3098357 0.3089753 0.3080063 0.3069803 0.3059686 0.3050195 0.3041354 0.3032807 0.3024117 0.3014922
 0.3004739 0.2992865 0.2979038 0.2964402 0.2951218 0.2941071 0.2933468 0.292644 0.2918279 0.2908437
 0.2897167 0.2884925 0.287214 0.2859091 0.2845793 0.2832033 0.2817541 0.2802112 0.2785673 0.2768312
 0.2750196 0.2731482 0.2712322 0.2692876 0.2673045 0.2652121 0.2628748 0.2601327 0.2568484 0.252932
 0.248355 0.243173 0.2375423 0.2316956 0.2258777 0.2202895 0.2150787 0.2103655 0.206263 0.2028722
 0.2002672 0.1984886 0.1975535 0.197466 0.1982175 0.1997754 0.202068 0.204977 0.2083426 0.21198
 0.2156942 0.2192975 0.2226486 0.2257012 0.2285034 0.2311269 0.2335906 0.2358591 0.2378937 0.2396828
 0.2412266 0.2425219 0.2435732 0.2444125 0.2450966 0.2456821 0.2462009 0.246655 0.2470306 0.2473194
 0.2475306 0.2476895 0.247829 0.2479802 0.2481638 0.2483844 0.2486381 0.24893 0.2492821 0.2497193
 0.2502492 0.2508591 0.2515292 0.2522464 0.2530088 0.2538238 0.2547099 0.2556996 0.2568349 0.2581479
 0.2596369 0.2612567 0.2629261 0.2645456 0.266017 0.2672612 0.2682296 0.268907 0.2693068 0.2694578
 0.2693913 0.2691373 0.2687252 0.2681833 0.2675365 0.2668086 0.2660229 0.2651938 0.2643198 0.2633914
 0.2624118 0.261407 0.2604088 0.259429 0.2584616 0.2575087 0.2565874 0.2557078 0.2548612 0.2540362
 0.253234 0.2524642 0.2517347 0.2510462 0.2503869 0.2497316 0.2490458 0.2482873 0.2474124 0.2463905
 0.2452135 0.2438864 0.2424165 0.2408119 0.2390838 0.2372447 0.235308 0.2332874 0.2311949 0.2290377
 0.2268108 0.2244984 0.2221034 0.2196823 0.2173326 0.2151332 0.2131079 0.2112401 0.2095006 0.2078626
 0.2063084 0.2048254 0.2034022 0.2020334 0.2007254 0.199485 0.1983105 0.1972001 0.1961604 0.195204
 0.1943483 0.1936108 0.1929945 0.1924819 0.1920491 0.1916799 0.1913738 0.1911601 0.1910849 0.1911566
 0.1913077 0.1914312 0.1914535 0.1913743 0.1912535 0.1911615 0.1911302 0.1911474 0.1911814 0.191183
 0.1910726 0.1907523 0.190131 0.1891363 0.1877289 0.1859311 0.1838328 0.1815732 0.1793214 0.1772443
 0.1754594 0.1740189 0.1729236 0.1721244 0.1715285 0.1710547 0.1706931 0.1705033 0.1705594 0.1708699
 0.1713112 0.1716772 0.1718599 0.1719718 0.172247 0.1728396 0.1737302 0.1747753 0.1758099 0.1767243
 0.1774757 0.1780555 0.1784747 0.1787667 0.1789572 0.1790393 0.1789995 0.1788432 0.1785782 0.1782104
 0.1777592 0.1772358 0.1766222 0.1759028 0.1750872 0.1741842 0.1731939 0.1721171 0.1709264 0.1695719
 0.1680955 0.1667168 0.165747 0.1654171 0.1657609 0.166606 0.1676935 0.1688471 0.1699933 0.1710389
 0.1718728 0.1725543 0.1733952 0.1747546 0.1767374 0.179083 0.1813398 0.1831548 0.1843944 0.185051
 0.185156 0.1847758 0.1839584 0.1826831 0.1809568 0.1789 0.1766642 0.1743705 0.17216 0.1701683
 0.1684532 0.1670348 0.1659188 0.1650921 0.1646082 0.1642005 0.1623177 0.1566513 0.1474062 0.1394378
 0.1385923 0.1454064 0.154368 0.1598389 0.1608489 0.1597603 0.1585425 0.1576234 0.1569278 0.1565218
 0.1564548 0.1566248 0.1568234 0.1568334 0.1565601 0.1560128 0.1550598 0.1531999 0.1495521 0.1431702
 0.1337449 0.1222492 0.1107241 0.1011916 0.09465274 0.09088415 0.08889084 0.08760264 0.08648428 0.0857051
 0.08576587 0.08699064 0.08935358 0.09263823 0.09658946 0.1008768 0.1050386 0.1086289 0.1114544 0.1135881
 0.1151515 0.116182 0.1166984 0.1167675 0.1164746 0.1159017 0.1151281 0.114192 0.113059 0.1116859
 0.1101373 0.1086281 0.1074253 0.1066706 0.1062986 0.1061409 0.1060785 0.1060735 0.1061163 0.106202
 0.1063311 0.1065051 0.1067344 0.1070384 0.1074033 0.1077632 0.1080519 0.1082505 0.1083694 0.1084045
 0.1083185 0.1080693 0.1076831 0.1072682 0.1068756 0.1063603 0.1054951 0.1042628 0.1029727 0.1020612
 0.1017864 0.1020763 0.1026143 0.1030718 0.1033075 0.1033821 0.1034065 0.1033831 0.1031922 0.1027296
</values></Ydata></ScRf><Data_Parameters_AB><parameter name="DPF">1</parameter><parameter name="NPT">3497</parameter><parameter name="FXV">3996</parameter><parameter name="LXV">500</parameter><parameter name="CSF">1</parameter><parameter name="MXY">0.00618578167632222</parameter><parameter name="MNY">-0.0711005628108978</parameter><parameter name="DAT">17/01/2024</parameter><parameter name="TIM">13:36:28.075 (GMT+1)</parameter><parameter name="DXU">WN</parameter></Data_Parameters_AB><AB__Qtest><MainReport name="Quality Test Report"><Header><Line><Legend>Test result ok/not ok [1/0]: </Legend><Value>0</Value></Line><Line><Legend>Method file: </Legend><Value>C:\Users\Public\Documents\Bruker\OPUS_8.2.28\QT\IRBT_v3_default.QT</Value></Line></Header><Matrix><Line><Legend></Legend><Legend>min</Legend><Legend>max</Legend><Legend>measured</Legend></Line><Line><Value>Absorption (X-Range 1):</Value><Value>0.400000</Value><Value>2.000000</Value><Value>0.043058</Value></Line><Line><Value>Noise (X-Range 4):</Value><Value></Value><Value>0.000300</Value><Value>0.000025</Value></Line><Line><Value>Signal/Noise (X-Range 2):</Value><Value>200.000000</Value><Value></Value><Value>23.107887</Value></Line><Line><Value>Signal/Noise (X-Range 3):</Value><Value>40.000000</Value><Value></Value><Value>17.286380</Value></Line><Line><Value>Water vapour (X-Range 5):</Value><Value></Value><Value>0.000300</Value><Value>0.000005</Value></Line><Line><Value>Signal/Water (X-Range 2):</Value><Value>100.000000</Value><Value></Value><Value>118.730737</Value></Line><Line><Value>Signal/Water (X-Range 3):</Value><Value>20.000000</Value><Value></Value><Value>88.819225</Value></Line><Line><Value>Fringes (X-Range 6):</Value><Value></Value><Value>0.000100</Value><Value>0.000024</Value></Line></Matrix></MainReport></AB__Qtest><Data_Parameters_ScSm><parameter name="DPF">1</parameter><parameter name="NPT">1814</parameter><parameter name="FXV">3996.63438082617</parameter><parameter name="LXV">499.579297603271</parameter><parameter name="CSF">1</parameter><parameter name="MXY">0.33096244931221</parameter><parameter name="MNY">0.0799117460846901</parameter><parameter name="DAT">17/01/2024</parameter><parameter name="TIM">13:36:28.075 (GMT+1)</parameter><parameter name="DXU">WN</parameter></Data_Parameters_ScSm><Data_Parameters_ScRf><parameter name="DPF">1</parameter><parameter name="NPT">1820</parameter><parameter name="FXV">4004.34989121387</parameter><parameter name="LXV">495.721542409425</parameter><parameter name="CSF">1</parameter><parameter name="MXY">0.317510545253754</parameter><parameter name="MNY">0.068047896027565</parameter><parameter name="DAT">17/01/2024</parameter><parameter name="TIM">13:36:01.635 (GMT+1)</parameter><parameter name="DXU">WN</parameter></Data_Parameters_ScRf><Optic_Parameters_Rf><parameter name="APR">0</parameter><parameter name="APT">Open</parameter><parameter name="BMS">KBr</parameter><parameter name="DTC">RT-DLaTGS_IR-Biotyper [Microplate reader]</parameter><parameter name="HPF">0</parameter><parameter name="LPF">10.0</parameter><parameter name="LPV">4000</parameter><parameter name="PGR">0</parameter><parameter name="RCH">Module port</parameter><parameter name="RDX">0</parameter><parameter name="SRC">MIR</parameter><parameter name="VEL">10.0</parameter><parameter name="SON">Off</parameter></Optic_Parameters_Rf><Acquisition_Parameters_Rf><parameter name="ADT">1</parameter><parameter name="AQM">DD</parameter><parameter name="CFE">0</parameter><parameter name="COR">0</parameter><parameter name="DEL">0</parameter><parameter name="DLY">0</parameter><parameter name="HFW">8000</parameter><parameter name="LFW">0</parameter><parameter name="NSR">32</parameter><parameter name="PLF">AB</parameter><parameter name="RES">6</parameter><parameter name="RGN">-1</parameter><parameter name="STR">0</parameter><parameter name="TCL">MakeCompatibleScalar (0, {WSV=1.000000, ARV=0});</parameter><parameter name="TDL">37</parameter><parameter name="RPO">0</parameter></Acquisition_Parameters_Rf><FT_-_Parameters_Rf><parameter name="APF">B3</parameter><parameter name="HFQ">500</parameter><parameter name="LFQ">4000</parameter><parameter name="NLI">0</parameter><parameter name="PHR">24</parameter><parameter name="PHZ">ML</parameter><parameter name="SPZ">NO</parameter><parameter name="ZFF">1</parameter></FT_-_Parameters_Rf><Optic_Parameters_><parameter name="APR">0</parameter><parameter name="APT">Open</parameter><parameter name="BMS">KBr</parameter><parameter name="CHN">Module port</parameter><parameter name="DTC">RT-DLaTGS_IR-Biotyper [Microplate reader]</parameter><parameter name="HPF">0</parameter><parameter name="LPF">10.0</parameter><parameter name="LPV">4000</parameter><parameter name="PGN">0</parameter><parameter name="RDX">0</parameter><parameter name="SRC">MIR</parameter><parameter name="VEL">10.0</parameter><parameter name="SON">Off</parameter></Optic_Parameters_><FT_-_Parameters_><parameter name="APF">B3</parameter><parameter name="HFQ">500</parameter><parameter name="LFQ">4000</parameter><parameter name="NLI">0</parameter><parameter name="PHR">24</parameter><parameter name="PHZ">ML</parameter><parameter name="SPZ">NO</parameter><parameter name="ZFF">1</parameter></FT_-_Parameters_><Acquisition_Parameters_><parameter name="ADT">1</parameter><parameter name="AQM">DD</parameter><parameter name="CFE">0</parameter><parameter name="COR">0</parameter><parameter name="DEL">0</parameter><parameter name="DLY">0</parameter><parameter name="HFW">8000</parameter><parameter name="LFW">0</parameter><parameter name="NSS">32</parameter><parameter name="PLF">AB</parameter><parameter name="RES">6</parameter><parameter name="SOT">0</parameter><parameter name="TCL">MakeCompatibleScalar (0, {WSV=1.000000, ARV=0});</parameter><parameter name="TDL">37</parameter><parameter name="SPO">0</parameter><parameter name="SGN">-1</parameter></Acquisition_Parameters_><Instrument_Parameters_Rf><parameter name="HFL">15801.365274</parameter><parameter name="LFL">0</parameter><parameter name="LWN">15801.365274</parameter><parameter name="ABP">32157</parameter><parameter name="SSP">1</parameter><parameter name="ARG">2</parameter><parameter name="ASG">2</parameter><parameter name="ASS">32</parameter><parameter name="GFW">16</parameter><parameter name="GBW">16</parameter><parameter name="BFW">0</parameter><parameter name="BBW">0</parameter><parameter name="PKA">9115</parameter><parameter name="PKL">4987</parameter><parameter name="PRA">9125</parameter><parameter name="PRL">5010</parameter><parameter name="P2A">1</parameter><parameter name="P2L">1</parameter><parameter name="P2R">1</parameter><parameter name="P2K">1</parameter><parameter name="DAQ">0</parameter><parameter name="AG2">1</parameter><parameter name="SSM">1</parameter><parameter name="RSN">46374</parameter><parameter name="CRR">0</parameter><parameter name="SRT">1705498561.636</parameter><parameter name="DUR">19.6449890136719</parameter><parameter name="TSC">30.9</parameter><parameter name="MVD">0.272676020860672</parameter><parameter name="AN1">0.226003073095307</parameter><parameter name="AN2">0</parameter><parameter name="VSN">2.485 Apr  4 2017</parameter><parameter name="SRN">0085</parameter><parameter name="CAM">0</parameter><parameter name="INS">IR-Biotyper</parameter><parameter name="FOC">69</parameter><parameter name="RDY">1</parameter><parameter name="ARS">32</parameter></Instrument_Parameters_Rf><Sample_Parameters_><parameter name="BLD"></parameter><parameter name="CNM">Admin</parameter><parameter name="CPY"></parameter><parameter name="DPM"></parameter><parameter name="EXP">IRBT_v3_32Scans.XPM</parameter><parameter name="LCT"></parameter><parameter name="SFM">Microplate, HTS-XT</parameter><parameter name="SNM">240117-1222-Cdiff_SCFA_1_C10_232107724_B10_75b4e098-8906-4087-a449-9de02f4d482d.0</parameter><parameter name="XPP">C:\Users\Public\Documents\Bruker\OPUS_8.2.28\XPM</parameter><parameter name="IST">OK</parameter><parameter name="CPG">1252</parameter><parameter name="UID">c3f3da56-ac24-4632-9dbb-5ba163d4f4d0</parameter></Sample_Parameters_><Instrument_Parameters_><parameter name="HFL">15801.365274</parameter><parameter name="LFL">0</parameter><parameter name="LWN">15801.365274</parameter><parameter name="ABP">32157</parameter><parameter name="SSP">1</parameter><parameter name="ASG">2</parameter><parameter name="ARG">2</parameter><parameter name="ASS">32</parameter><parameter name="GFW">16</parameter><parameter name="GBW">16</parameter><parameter name="BFW">0</parameter><parameter name="BBW">0</parameter><parameter name="PKA">9832</parameter><parameter name="PKL">4987</parameter><parameter name="PRA">9945</parameter><parameter name="PRL">5010</parameter><parameter name="P2A">1</parameter><parameter name="P2L">1</parameter><parameter name="P2R">1</parameter><parameter name="P2K">1</parameter><parameter name="DAQ">0</parameter><parameter name="AG2">1</parameter><parameter name="SSM">1</parameter><parameter name="RSN">23880</parameter><parameter name="CRR">0</parameter><parameter name="SRT">1705498588.076</parameter><parameter name="DUR">19.6449890136719</parameter><parameter name="TSC">30.9</parameter><parameter name="MVD">1.27425312995911</parameter><parameter name="AN1">0.22601263547277</parameter><parameter name="AN2">0</parameter><parameter name="VSN">2.485 Apr  4 2017</parameter><parameter name="SRN">0085</parameter><parameter name="CAM">0</parameter><parameter name="INS">IR-Biotyper</parameter><parameter name="FOC">69</parameter><parameter name="RDY">1</parameter></Instrument_Parameters_><History/></OPUSDataFile>
