<?xml version="1.0" encoding="UTF-8" ?>
<OPUSDataFile><AB><Ydata ylabel="Absorbance Units"><values byteorder="INTEL" format="FLOAT32" numvalues="3497"> -0.1117579 -0.1117288 -0.1116982 -0.1116685 -0.1116471 -0.1116334 -0.1116296 -0.1116342 -0.111646 -0.1116637
 -0.1116862 -0.1117111 -0.1117372 -0.1117597 -0.1117761 -0.1117827 -0.111777 -0.1117608 -0.1117334 -0.1117007
 -0.1116635 -0.1116263 -0.1115895 -0.1115539 -0.1115192 -0.1114847 -0.1114506 -0.1114177 -0.1113868 -0.1113613
 -0.1113415 -0.1113308 -0.1113283 -0.111334 -0.1113458 -0.1113606 -0.1113769 -0.1113917 -0.111405 -0.111416
 -0.111424 -0.1114286 -0.1114279 -0.1114204 -0.1114075 -0.1113884 -0.111369 -0.1113499 -0.1113366 -0.1113297
 -0.1113271 -0.1113285 -0.1113255 -0.1113179 -0.1112992 -0.1112705 -0.1112329 -0.1111886 -0.111145 -0.1111044
 -0.1110754 -0.1110581 -0.111057 -0.1110685 -0.111091 -0.1111184 -0.111146 -0.1111691 -0.1111836 -0.1111891
 -0.1111842 -0.1111711 -0.11115 -0.1111237 -0.1110928 -0.1110598 -0.1110248 -0.1109905 -0.1109568 -0.1109273
 -0.110902 -0.1108836 -0.1108719 -0.1108672 -0.1108692 -0.1108767 -0.1108892 -0.1109049 -0.1109216 -0.1109357
 -0.1109436 -0.1109392 -0.110924 -0.1108945 -0.1108608 -0.1108266 -0.1108012 -0.1107903 -0.1107903 -0.1108026
 -0.1108136 -0.1108211 -0.1108162 -0.1107972 -0.1107676 -0.1107278 -0.1106883 -0.1106494 -0.1106181 -0.1105935
 -0.110574 -0.1105582 -0.1105403 -0.1105211 -0.1104985 -0.1104757 -0.1104571 -0.1104449 -0.1104445 -0.1104523
 -0.1104684 -0.1104843 -0.1104952 -0.110497 -0.1104855 -0.1104663 -0.1104394 -0.1104136 -0.1103907 -0.1103707
 -0.1103541 -0.1103368 -0.1103187 -0.1103057 -0.1102988 -0.1103118 -0.1103435 -0.1103958 -0.110462 -0.1105193
 -0.1105608 -0.1105539 -0.1105076 -0.1104176 -0.1103064 -0.110201 -0.1101095 -0.1100507 -0.1100139 -0.1099988
 -0.1099946 -0.1099965 -0.1100003 -0.1100047 -0.1100048 -0.1100004 -0.1099837 -0.1099534 -0.1099107 -0.1098555
 -0.1098011 -0.1097479 -0.1097064 -0.1096755 -0.109654 -0.1096411 -0.1096329 -0.1096301 -0.1096331 -0.1096411
 -0.1096541 -0.1096685 -0.1096803 -0.1096857 -0.1096795 -0.1096616 -0.1096296 -0.1095867 -0.1095328 -0.1094744
 -0.1094123 -0.1093571 -0.1093104 -0.10928 -0.1092674 -0.1092709 -0.1092904 -0.1093148 -0.1093432 -0.1093622
 -0.1093712 -0.1093607 -0.1093322 -0.1092852 -0.1092235 -0.109156 -0.1090863 -0.1090255 -0.1089719 -0.1089287
 -0.1088905 -0.108853 -0.1088157 -0.1087757 -0.1087384 -0.1087054 -0.1086799 -0.1086639 -0.1086536 -0.1086489
 -0.1086449 -0.1086411 -0.1086354 -0.1086276 -0.1086168 -0.1086029 -0.1085867 -0.1085688 -0.1085542 -0.1085428
 -0.1085385 -0.1085384 -0.1085378 -0.108533 -0.1085139 -0.1084817 -0.1084317 -0.1083716 -0.1083058 -0.1082428
 -0.1081899 -0.1081468 -0.1081164 -0.1080912 -0.1080692 -0.1080479 -0.1080252 -0.1080106 -0.1080049 -0.108016
 -0.1080448 -0.1080817 -0.1081259 -0.1081573 -0.1081765 -0.1081757 -0.108157 -0.108126 -0.108082 -0.1080254
 -0.1079563 -0.1078722 -0.1077813 -0.1076925 -0.1076135 -0.1075572 -0.1075168 -0.107494 -0.1074735 -0.1074481
 -0.1074139 -0.1073661 -0.1073174 -0.1072696 -0.1072318 -0.1072064 -0.1071855 -0.107169 -0.1071437 -0.1071094
 -0.1070632 -0.1070064 -0.1069475 -0.1068875 -0.1068353 -0.1067898 -0.1067531 -0.1067233 -0.106698 -0.106675
 -0.1066512 -0.1066229 -0.1065861 -0.1065391 -0.1064782 -0.1064105 -0.1063372 -0.1062679 -0.1062071 -0.1061534
 -0.1061083 -0.1060604 -0.1060084 -0.1059448 -0.1058689 -0.1057872 -0.1057003 -0.1056229 -0.105555 -0.105505
 -0.1054701 -0.1054438 -0.1054211 -0.1053838 -0.1053303 -0.1052459 -0.1051397 -0.1050149 -0.1048859 -0.1047681
 -0.1046665 -0.104591 -0.1045343 -0.1044972 -0.1044666 -0.1044396 -0.1044024 -0.1043521 -0.1042802 -0.1041847
 -0.1040679 -0.1039294 -0.1037762 -0.1036085 -0.1034319 -0.1032471 -0.1030622 -0.1028785 -0.1027064 -0.102545
 -0.1023978 -0.1022612 -0.1021296 -0.1020012 -0.1018704 -0.1017387 -0.1016053 -0.1014731 -0.1013442 -0.1012196
 -0.1011015 -0.1009835 -0.1008662 -0.1007339 -0.1005837 -0.1004045 -0.1001924 -0.0999613 -0.09971134 -0.09947165
 -0.09924318 -0.09903872 -0.09885654 -0.09868768 -0.09853047 -0.09837233 -0.09821419 -0.09805194 -0.09788767 -0.09772445
 -0.09756134 -0.09740052 -0.09723424 -0.09705684 -0.09685977 -0.09663226 -0.0963826 -0.0961074 -0.09583306 -0.09556781
 -0.09532511 -0.09511217 -0.09491419 -0.094731 -0.09454116 -0.09434266 -0.09413153 -0.09390799 -0.09368371 -0.09345897
 -0.09324156 -0.09302966 -0.09281903 -0.09260776 -0.09238726 -0.09215892 -0.09192057 -0.09167644 -0.09143185 -0.09118897
 -0.0909531 -0.09072074 -0.09049143 -0.09026089 -0.09002598 -0.08978838 -0.08954701 -0.08930869 -0.08907468 -0.08884989
 -0.08863572 -0.08842931 -0.0882309 -0.08802962 -0.0878249 -0.08760526 -0.0873713 -0.08712275 -0.08686224 -0.08660274
 -0.08634507 -0.08609989 -0.08586321 -0.0856324 -0.08540267 -0.08516511 -0.08491967 -0.0846616 -0.08439662 -0.08412635
 -0.08385821 -0.08359657 -0.08334389 -0.08310335 -0.08286809 -0.08263814 -0.08240165 -0.08215664 -0.08189858 -0.08162647
 -0.08134875 -0.0810659 -0.08078954 -0.08051964 -0.08026043 -0.08001082 -0.07976802 -0.07953066 -0.07929308 -0.07905446
 -0.07881025 -0.07856082 -0.07830463 -0.07804281 -0.07777597 -0.07750481 -0.07722963 -0.07695211 -0.07667217 -0.07639481
 -0.07612144 -0.07585645 -0.07560183 -0.07535491 -0.07511628 -0.07487682 -0.07463582 -0.07438696 -0.07413006 -0.07386791
 -0.07360111 -0.07333724 -0.07307603 -0.07282053 -0.07256909 -0.07231783 -0.07206605 -0.0718095 -0.07155046 -0.07129019
 -0.07103162 -0.07077908 -0.07053173 -0.07029137 -0.07005309 -0.06981492 -0.06957336 -0.06932585 -0.06907517 -0.06882093
 -0.06856933 -0.06832147 -0.06807934 -0.0678435 -0.06760973 -0.06737786 -0.06714444 -0.0669098 -0.06667627 -0.06644417
 -0.06621676 -0.0659932 -0.06577248 -0.06555357 -0.06533328 -0.06511216 -0.06488965 -0.06466658 -0.06444407 -0.06422131
 -0.06399797 -0.06377373 -0.06354757 -0.06332251 -0.06309886 -0.06288136 -0.06267154 -0.06247004 -0.0622778 -0.06208903
 -0.06190342 -0.06171416 -0.06152095 -0.06132329 -0.06112164 -0.06092134 -0.06072238 -0.06052785 -0.06033636 -0.06014473
 -0.05995213 -0.05975425 -0.05955309 -0.0593491 -0.05914641 -0.05894939 -0.05876165 -0.05858807 -0.05842756 -0.05828238
 -0.05814486 -0.05801372 -0.05787918 -0.05773837 -0.05758729 -0.05742426 -0.05725338 -0.05707463 -0.05689511 -0.05671522
 -0.05654137 -0.05637373 -0.0562167 -0.05606961 -0.05593166 -0.05580106 -0.0556712 -0.05554112 -0.05540482 -0.05526374
 -0.05511728 -0.05496773 -0.05481754 -0.05466786 -0.05452017 -0.05437561 -0.0542349 -0.05409969 -0.05397098 -0.05384863
 -0.05373317 -0.05362192 -0.05351462 -0.05340879 -0.05330413 -0.05319964 -0.05309526 -0.05299105 -0.05288711 -0.0527845
 -0.05268333 -0.05258493 -0.05248916 -0.05239635 -0.052306 -0.05221697 -0.05212925 -0.05204232 -0.05195637 -0.05187175
 -0.05178766 -0.05170383 -0.05161884 -0.05153167 -0.05144217 -0.05134977 -0.0512559 -0.05116079 -0.05106553 -0.05097013
 -0.0508766 -0.05078486 -0.05070029 -0.05062316 -0.05055823 -0.05050511 -0.05045981 -0.05042096 -0.05037747 -0.05032981
 -0.05027287 -0.05021024 -0.05014827 -0.05008912 -0.05004081 -0.04999959 -0.04996501 -0.04993135 -0.04989288 -0.0498496
 -0.04979879 -0.04974616 -0.04969322 -0.04964432 -0.04960174 -0.04956285 -0.04952824 -0.04948994 -0.04944723 -0.04939386
 -0.04932936 -0.04925693 -0.04917732 -0.04910231 -0.04903246 -0.04897797 -0.04893709 -0.04890933 -0.04889155 -0.0488755
 -0.04886028 -0.04884003 -0.04881682 -0.04879107 -0.04876392 -0.04873759 -0.04870883 -0.04867686 -0.0486376 -0.04858812
 -0.04853134 -0.04846613 -0.04840281 -0.04834299 -0.04829392 -0.04825724 -0.04822776 -0.04820536 -0.04817699 -0.04814225
 -0.04809262 -0.04802924 -0.04795489 -0.04787181 -0.04778985 -0.04771036 -0.04764244 -0.04758431 -0.04753824 -0.04749875
 -0.04746067 -0.04741826 -0.04736408 -0.04729811 -0.04721683 -0.04712707 -0.04703016 -0.04693378 -0.04684056 -0.04675319
 -0.04667295 -0.04659773 -0.04652766 -0.04645818 -0.04638906 -0.04631504 -0.04623595 -0.04614814 -0.04605192 -0.04594743
 -0.04583486 -0.04571532 -0.04558806 -0.04545106 -0.04530521 -0.04514894 -0.04498947 -0.04483322 -0.04469126 -0.04457637
 -0.04449115 -0.04444421 -0.0444219 -0.04442289 -0.04442687 -0.04442751 -0.04441462 -0.04438394 -0.04434136 -0.04428613
 -0.04423473 -0.04418808 -0.04416358 -0.04416173 -0.04419145 -0.04425129 -0.04433594 -0.04444255 -0.04455654 -0.04467676
 -0.0447919 -0.04490434 -0.04501248 -0.04512069 -0.04523396 -0.04535493 -0.0454885 -0.04563271 -0.04578861 -0.04595094
 -0.04611708 -0.04628634 -0.04645626 -0.04663653 -0.04682801 -0.04704198 -0.04728067 -0.04754188 -0.04782595 -0.04811458
 -0.04840672 -0.04868246 -0.04894213 -0.04917806 -0.04939301 -0.04959362 -0.0497835 -0.04997626 -0.05017274 -0.05038256
 -0.05060029 -0.05082408 -0.05104549 -0.05125538 -0.05145166 -0.05162834 -0.05179353 -0.05194847 -0.05210301 -0.05226101
 -0.05242437 -0.05259514 -0.05276592 -0.05293668 -0.05309503 -0.05324017 -0.05336183 -0.05346001 -0.05353627 -0.05359266
 -0.05364549 -0.05369683 -0.05376529 -0.05384911 -0.0539542 -0.05407489 -0.05420355 -0.05433509 -0.05445892 -0.05457469
 -0.05467739 -0.05477137 -0.05485744 -0.05494089 -0.05502482 -0.05510982 -0.0551977 -0.05528268 -0.05536407 -0.0554364
 -0.05549838 -0.05555224 -0.05559785 -0.05564329 -0.0556889 -0.05574041 -0.05579734 -0.05585857 -0.05592322 -0.05598668
 -0.05604874 -0.05610607 -0.05615983 -0.05621042 -0.05625965 -0.05631028 -0.05636316 -0.05642052 -0.05648103 -0.05654459
 -0.05660945 -0.05667434 -0.05674001 -0.05680614 -0.05687522 -0.05694795 -0.05702445 -0.05710522 -0.05718587 -0.05726615
 -0.0573411 -0.05741062 -0.05747472 -0.05753393 -0.05759258 -0.05765089 -0.05771226 -0.05777616 -0.05784268 -0.05791159
 -0.05798237 -0.05805531 -0.05813095 -0.05820841 -0.05828765 -0.058366 -0.05844168 -0.05851293 -0.05857785 -0.05863851
 -0.05869475 -0.05875053 -0.05880674 -0.05886534 -0.05892705 -0.05898923 -0.05905182 -0.05911037 -0.05916479 -0.05921468
 -0.0592608 -0.05930954 -0.05936163 -0.05942454 -0.05949665 -0.05957777 -0.05966422 -0.05974844 -0.05982797 -0.0598954
 -0.05995196 -0.05999544 -0.06002997 -0.0600569 -0.06008196 -0.06010774 -0.06013935 -0.0601794 -0.06022834 -0.06028765
 -0.06035082 -0.06041759 -0.06047897 -0.06053416 -0.06057848 -0.0606118 -0.0606355 -0.06064982 -0.06065771 -0.06065878
 -0.06065246 -0.0606385 -0.06061465 -0.06058342 -0.06054747 -0.06051278 -0.0604893 -0.0604804 -0.0604955 -0.06052778
 -0.06057768 -0.06063108 -0.06068091 -0.06072001 -0.06074263 -0.06075561 -0.06075894 -0.06076219 -0.06076735 -0.0607742
 -0.06078313 -0.06078732 -0.06078655 -0.06078022 -0.06076906 -0.0607602 -0.06075366 -0.06075417 -0.06075931 -0.06076428
 -0.06076636 -0.06075643 -0.06073585 -0.06070121 -0.06065878 -0.06061305 -0.06057081 -0.06053905 -0.06051862 -0.06051294
 -0.06051631 -0.06052778 -0.06054188 -0.06055648 -0.06057317 -0.0605914 -0.06061755 -0.06065226 -0.06069778 -0.06075412
 -0.06081442 -0.06087799 -0.06093468 -0.06098503 -0.06102579 -0.06105952 -0.06109236 -0.06112703 -0.06117298 -0.06122985
 -0.06130238 -0.06138577 -0.06147764 -0.06157139 -0.06166127 -0.06174435 -0.0618166 -0.0618816 -0.06193892 -0.06199548
 -0.06205286 -0.0621153 -0.06218402 -0.06225806 -0.0623376 -0.06241848 -0.06250052 -0.06258164 -0.06266215 -0.06274477
 -0.06283 -0.06292263 -0.06302159 -0.06312653 -0.06323463 -0.06333926 -0.06343909 -0.06352805 -0.06360923 -0.06368306
 -0.06375435 -0.06382744 -0.06390314 -0.06398368 -0.06406588 -0.06414883 -0.06423137 -0.06431254 -0.06439526 -0.06448
 -0.06456751 -0.06465829 -0.06474554 -0.06482888 -0.0648984 -0.06495414 -0.06499286 -0.06501619 -0.065031 -0.06503965
 -0.06505398 -0.06507468 -0.06510992 -0.06515736 -0.06521787 -0.06528661 -0.06535928 -0.06543041 -0.06549462 -0.06554849
 -0.06558845 -0.06561477 -0.06562674 -0.0656254 -0.06561109 -0.06558344 -0.0655425 -0.06548721 -0.06541732 -0.0653348
 -0.06523978 -0.06513815 -0.06503011 -0.06492017 -0.06480772 -0.06469195 -0.06457152 -0.06444129 -0.06430058 -0.06414471
 -0.06397513 -0.06379135 -0.06359699 -0.06339566 -0.06319067 -0.06298615 -0.06278221 -0.06258055 -0.06237838 -0.06217472
 -0.06196902 -0.06176025 -0.06155248 -0.06134589 -0.06114599 -0.06095331 -0.06077119 -0.06059983 -0.06044303 -0.06030135
 -0.0601829 -0.06008843 -0.0600271 -0.05999826 -0.060005 -0.06004506 -0.060115 -0.06021215 -0.06033114 -0.06046904
 -0.06062151 -0.06078384 -0.06095199 -0.06111968 -0.06128302 -0.06143634 -0.06157658 -0.06170147 -0.06180964 -0.06190189
 -0.0619779 -0.0620406 -0.06209017 -0.06213014 -0.0621607 -0.0621854 -0.06220455 -0.06222298 -0.06224139 -0.06226628
 -0.06229859 -0.06234521 -0.06240642 -0.06248668 -0.0625849 -0.06270181 -0.06283474 -0.06298134 -0.06313832 -0.0633018
 -0.06347157 -0.06364518 -0.06382817 -0.0640213 -0.06423236 -0.06446365 -0.06471911 -0.06500021 -0.06530531 -0.06563459
 -0.06598426 -0.06635414 -0.06673833 -0.06713609 -0.06753619 -0.06793726 -0.06832497 -0.06869892 -0.06904938 -0.06937809
 -0.06968421 -0.06997018 -0.07023989 -0.07049465 -0.07073738 -0.0709692 -0.07119143 -0.07140643 -0.07161594 -0.07182124
 -0.07202417 -0.07222088 -0.0724114 -0.07258857 -0.07275099 -0.07289535 -0.07302079 -0.07313032 -0.07322403 -0.07330527
 -0.07337391 -0.07342821 -0.07346785 -0.07348894 -0.07349262 -0.07348014 -0.07345499 -0.07342563 -0.07339716 -0.07338174
 -0.07338401 -0.07341452 -0.07347508 -0.07357164 -0.0737011 -0.07386494 -0.07405411 -0.07426688 -0.07449032 -0.07472152
 -0.07494758 -0.07516576 -0.07536869 -0.07555502 -0.07572389 -0.07587514 -0.07601117 -0.07613222 -0.07624207 -0.07634176
 -0.07643913 -0.0765367 -0.07664808 -0.07677598 -0.07693517 -0.07712463 -0.07735148 -0.07760756 -0.07788797 -0.07817887
 -0.07846762 -0.07874241 -0.07899138 -0.07921386 -0.07940501 -0.0795747 -0.0797243 -0.07986361 -0.07999516 -0.0801209
 -0.08024156 -0.08035484 -0.08046058 -0.08055893 -0.08065005 -0.0807373 -0.08082088 -0.0809038 -0.08098595 -0.08106852
 -0.08115122 -0.08123397 -0.08131619 -0.08139683 -0.08147534 -0.08155044 -0.08162239 -0.08169065 -0.08175658 -0.08182074
 -0.08188466 -0.0819492 -0.08201496 -0.08208244 -0.08215099 -0.08222058 -0.08229058 -0.08236084 -0.08243208 -0.08250432
 -0.08257918 -0.08265666 -0.08273668 -0.08281907 -0.08290244 -0.0829869 -0.08307224 -0.08315854 -0.08324643 -0.08333464
 -0.08342139 -0.08350483 -0.08358122 -0.08365121 -0.08371314 -0.08377087 -0.08382624 -0.08388215 -0.0839406 -0.08400167
 -0.08406588 -0.08413233 -0.08420099 -0.08427078 -0.08434176 -0.08441091 -0.08447804 -0.08454031 -0.08459774 -0.08465119
 -0.08470107 -0.08475082 -0.08480024 -0.08485037 -0.0849006 -0.08494944 -0.08499721 -0.08504366 -0.0850895 -0.08513597
 -0.08518232 -0.08522853 -0.08527312 -0.08531474 -0.08535384 -0.08538987 -0.08542516 -0.08546037 -0.0854967 -0.08553478
 -0.08557311 -0.0856117 -0.08564816 -0.0856823 -0.08571307 -0.08574049 -0.08576588 -0.08578947 -0.08581389 -0.08583938
 -0.08586863 -0.0859015 -0.0859393 -0.08598117 -0.08602627 -0.08607323 -0.08611993 -0.08616507 -0.08620665 -0.08624417
 -0.08627635 -0.08630451 -0.08632853 -0.08635122 -0.08637317 -0.0863974 -0.08642458 -0.08645678 -0.08649448 -0.08653723
 -0.08658512 -0.08663465 -0.08668563 -0.08673367 -0.08677881 -0.08681934 -0.08685572 -0.08688922 -0.08692039 -0.08695147
 -0.08698266 -0.08701523 -0.08704956 -0.08708674 -0.08712696 -0.0871712 -0.08721802 -0.08726732 -0.08731595 -0.08736246
 -0.08740491 -0.08744198 -0.08747501 -0.08750378 -0.08753146 -0.08755842 -0.08758711 -0.08761781 -0.08765073 -0.0876858
 -0.08772135 -0.08775716 -0.08779051 -0.0878216 -0.08784958 -0.08787522 -0.08790047 -0.08792573 -0.08795319 -0.0879816
 -0.08801034 -0.0880376 -0.0880608 -0.08808071 -0.08809615 -0.08811126 -0.0881277 -0.08814839 -0.08817558 -0.08820603
 -0.08824018 -0.08827043 -0.0882957 -0.08831177 -0.08831795 -0.08831766 -0.08831112 -0.08830522 -0.08829997 -0.08829828
 -0.08829954 -0.08830213 -0.08830597 -0.08830991 -0.0883144 -0.08832017 -0.0883267 -0.08833386 -0.08834015 -0.08834375
 -0.08834451 -0.08834133 -0.08833586 -0.08832874 -0.08832081 -0.0883128 -0.08830357 -0.08829292 -0.08828029 -0.08826531
 -0.08825017 -0.08823496 -0.08822261 -0.08821321 -0.08820704 -0.08820383 -0.08820081 -0.08819771 -0.08819146 -0.08818277
 -0.08817196 -0.08816062 -0.08815246 -0.08814824 -0.08815138 -0.08816002 -0.08817399 -0.08819014 -0.08820594 -0.08822031
 -0.08823155 -0.08824158 -0.0882507 -0.08826063 -0.088272 -0.08828461 -0.08829854 -0.0883131 -0.08832815 -0.08834434
 -0.0883617 -0.08838139 -0.08840337 -0.08842783 -0.08845451 -0.08848232 -0.08851082 -0.0885381 -0.08856366 -0.08858522
 -0.08860321 -0.08861672 -0.08862792 -0.08863837 -0.08865083 -0.08866794 -0.08869062 -0.08872063 -0.08875562 -0.08879558
 -0.08883663 -0.08887801 -0.08891647 -0.08895134 -0.08898163 -0.08900709 -0.08902907 -0.08904762 -0.08906467 -0.08908022
 -0.08909523 -0.08910972 -0.08912433 -0.08913932 -0.08915595 -0.08917421 -0.08919507 -0.08921755 -0.0892407 -0.08926331
 -0.08928362 -0.0893013 -0.08931547 -0.08932649 -0.08933432 -0.08933955 -0.08934223 -0.08934358 -0.08934376 -0.08934442
 -0.08934588 -0.08934883 -0.08935343 -0.08935907 -0.08936576 -0.08937303 -0.08938088 -0.08938935 -0.08939817 -0.08940587
 -0.08941221 -0.0894152 -0.08941565 -0.08941412 -0.08941223 -0.08941321 -0.08941703 -0.08942574 -0.08943627 -0.08944719
 -0.08945539 -0.08945809 -0.08945655 -0.08944982 -0.08944316 -0.08943757 -0.08943722 -0.0894433 -0.08945478 -0.08947188
 -0.08949012 -0.08950928 -0.08952588 -0.08953997 -0.08955144 -0.08956064 -0.08956955 -0.08957839 -0.08958904 -0.08960128
 -0.08961566 -0.0896315 -0.08964794 -0.08966459 -0.08968035 -0.08969615 -0.08971187 -0.08972993 -0.08975161 -0.08977849
 -0.08981191 -0.08985048 -0.08989461 -0.08994019 -0.08998678 -0.09003019 -0.09006991 -0.09010438 -0.0901335 -0.09015944
 -0.09018243 -0.09020602 -0.09023014 -0.09025642 -0.09028429 -0.09031244 -0.09034056 -0.09036689 -0.09039211 -0.09041635
 -0.09044082 -0.09046718 -0.09049562 -0.09052717 -0.09056049 -0.09059554 -0.09062954 -0.09066167 -0.09068915 -0.09071092
 -0.09072664 -0.09073564 -0.09074158 -0.09074458 -0.09074992 -0.0907579 -0.09077097 -0.09078897 -0.09080979 -0.09083296
 -0.09085447 -0.09087417 -0.09088933 -0.09090047 -0.09090732 -0.09091068 -0.09091181 -0.0909111 -0.09090962 -0.09090723
 -0.09090394 -0.09090021 -0.09089596 -0.09089284 -0.09089146 -0.09089296 -0.09089804 -0.09090558 -0.09091559 -0.0909261
 -0.09093685 -0.09094721 -0.09095713 -0.09096665 -0.09097578 -0.09098418 -0.09099191 -0.09099908 -0.0910059 -0.09101339
 -0.09102119 -0.09102909 -0.09103627 -0.091041 -0.09104345 -0.09104253 -0.09104051 -0.09103882 -0.09103952 -0.09104457
 -0.09105361 -0.09106742 -0.09108315 -0.09110037 -0.09111609 -0.09112975 -0.0911392 -0.0911441 -0.0911441 -0.09113915
 -0.09113076 -0.09111912 -0.09110719 -0.09109513 -0.09108552 -0.09107819 -0.091074 -0.09107248 -0.09107284 -0.09107477
 -0.0910773 -0.09108034 -0.09108354 -0.09108645 -0.09108884 -0.09108957 -0.0910878 -0.0910833 -0.09107532 -0.09106584
 -0.09105496 -0.09104569 -0.09103873 -0.09103495 -0.09103473 -0.09103561 -0.09103751 -0.09103662 -0.09103281 -0.09102391
 -0.09101018 -0.09099208 -0.09097024 -0.09094721 -0.09092364 -0.09090246 -0.0908841 -0.09087064 -0.09086237 -0.09086049
 -0.090865 -0.09087631 -0.09089429 -0.09091913 -0.09095013 -0.09098726 -0.09102911 -0.09107568 -0.09112396 -0.09117365
 -0.09122087 -0.09126515 -0.09130408 -0.09133741 -0.09136556 -0.09138864 -0.09140889 -0.09142645 -0.09144343 -0.09145948
 -0.09147481 -0.09148782 -0.09149505 -0.09149354 -0.09147653 -0.09144142 -0.09138117 -0.09129751 -0.09118685 -0.09106023
 -0.09092041 -0.0907861 -0.09066547 -0.09057147 -0.09051113 -0.0904817 -0.09048533 -0.09050736 -0.09054708 -0.09058531
 -0.09062072 -0.09063809 -0.09063725 -0.09061712 -0.09057926 -0.09053518 -0.09048586 -0.09044185 -0.09040219 -0.09037008
 -0.0903431 -0.0903186 -0.09029373 -0.09026336 -0.09022684 -0.09018055 -0.09012885 -0.09007289 -0.09001796 -0.08996739
 -0.08992112 -0.08988052 -0.0898409 -0.08980136 -0.08976013 -0.08971657 -0.08967395 -0.0896325 -0.08959432 -0.08955932
 -0.08952425 -0.08948876 -0.08944799 -0.08940256 -0.08935232 -0.08929879 -0.08924643 -0.08919582 -0.08915067 -0.08910956
 -0.08907218 -0.08903687 -0.0890016 -0.08896673 -0.08893152 -0.08889785 -0.08886659 -0.08883808 -0.08881304 -0.08878917
 -0.08876621 -0.08874168 -0.08871517 -0.08868594 -0.08865388 -0.08861925 -0.08858208 -0.08854268 -0.08850133 -0.08846016
 -0.08841977 -0.08838404 -0.08835292 -0.08832878 -0.08830983 -0.0882941 -0.08827899 -0.08825985 -0.08823591 -0.08820412
 -0.08816672 -0.08812377 -0.08807892 -0.08803367 -0.08799095 -0.0879522 -0.0879177 -0.08788803 -0.0878613 -0.08783747
 -0.08781356 -0.08778933 -0.087763 -0.08773451 -0.08770368 -0.08767062 -0.08763619 -0.08760045 -0.08756433 -0.08752773
 -0.08749098 -0.08745378 -0.08741568 -0.08737652 -0.08733567 -0.08729374 -0.08725094 -0.08720826 -0.08716647 -0.08712591
 -0.08708712 -0.08704936 -0.0870126 -0.08697581 -0.08693878 -0.08690072 -0.08686147 -0.08682097 -0.08677917 -0.08673631
 -0.08669239 -0.08664791 -0.08660291 -0.08655768 -0.0865123 -0.08646734 -0.08642296 -0.08638013 -0.08633856 -0.08629837
 -0.08625858 -0.08621778 -0.08617547 -0.08613022 -0.08608335 -0.08603498 -0.08598749 -0.08594233 -0.08589979 -0.08586089
 -0.08582234 -0.08578381 -0.08574156 -0.08569476 -0.08564353 -0.08558764 -0.08553082 -0.08547328 -0.0854185 -0.08536638
 -0.08531702 -0.08527012 -0.0852244 -0.08517981 -0.08513559 -0.0850919 -0.08504892 -0.08500617 -0.08496307 -0.08491917
 -0.08487374 -0.08482675 -0.08477785 -0.08472738 -0.08467532 -0.08462229 -0.08456827 -0.08451483 -0.08446218 -0.08441216
 -0.08436519 -0.08432136 -0.08428085 -0.08424106 -0.08420186 -0.08415969 -0.08411462 -0.08406556 -0.08401293 -0.08395822
 -0.08390182 -0.08384582 -0.08379027 -0.08373636 -0.08368392 -0.08363321 -0.08358397 -0.0835361 -0.08348913 -0.08344278
 -0.08339633 -0.08334915 -0.08330146 -0.08325301 -0.08320502 -0.08315778 -0.0831119 -0.08306769 -0.08302408 -0.08298101
 -0.08293711 -0.08289234 -0.08284758 -0.08280303 -0.08276131 -0.08272228 -0.08268692 -0.08265435 -0.08262229 -0.08258975
 -0.08255324 -0.08251291 -0.08246715 -0.08241748 -0.08236465 -0.08231075 -0.08225743 -0.08220643 -0.08215909 -0.08211617
 -0.08207846 -0.08204488 -0.08201567 -0.08198783 -0.08196115 -0.08193176 -0.08189923 -0.08186199 -0.08181997 -0.08177525
 -0.08172806 -0.08168217 -0.08163757 -0.08159629 -0.08155792 -0.08152227 -0.08148876 -0.08145627 -0.08142383 -0.08138956
 -0.08135252 -0.08131056 -0.08126453 -0.08121364 -0.08116137 -0.08110915 -0.0810601 -0.08101632 -0.0809762 -0.08094028
 -0.08090358 -0.08086547 -0.08082222 -0.08077329 -0.08071872 -0.08065849 -0.08059455 -0.08052693 -0.08045671 -0.0803837
 -0.08030725 -0.08022714 -0.08014208 -0.08005211 -0.07995664 -0.07985584 -0.07974982 -0.07963841 -0.07952156 -0.07939873
 -0.07926942 -0.07913361 -0.07899082 -0.07884245 -0.07868846 -0.07853185 -0.07837311 -0.07821559 -0.07805979 -0.07790861
 -0.0777624 -0.07762233 -0.07748849 -0.07736085 -0.07723952 -0.07712553 -0.07701936 -0.07692438 -0.07684097 -0.07677247
 -0.07671846 -0.07667992 -0.0766555 -0.07664345 -0.07664263 -0.0766509 -0.07666807 -0.07669323 -0.07672676 -0.07676859
 -0.07681917 -0.07687882 -0.07694706 -0.07702397 -0.07710845 -0.07720049 -0.07729815 -0.07740134 -0.07750703 -0.07761506
 -0.07772278 -0.0778301 -0.07793517 -0.078038 -0.07813767 -0.07823399 -0.07832583 -0.07841297 -0.07849421 -0.07856961
 -0.0786387 -0.07870178 -0.07875898 -0.07881069 -0.07885718 -0.07889897 -0.07893624 -0.07896996 -0.07900055 -0.07902841
 -0.07905383 -0.0790762 -0.07909558 -0.0791105 -0.07912077 -0.07912592 -0.0791259 -0.07912207 -0.07911454 -0.07910521
 -0.079094 -0.07908136 -0.07906707 -0.07905053 -0.07903182 -0.07901078 -0.07898773 -0.07896337 -0.07893743 -0.07890999
 -0.07888038 -0.07884787 -0.07881279 -0.07877474 -0.07873551 -0.0786957 -0.07865652 -0.07861864 -0.0785814 -0.07854493
 -0.07850755 -0.07846909 -0.07842851 -0.07838573 -0.07834099 -0.07829437 -0.07824697 -0.07819892 -0.07815149 -0.07810469
 -0.07805923 -0.07801473 -0.07797071 -0.07792664 -0.07788131 -0.07783443 -0.07778477 -0.07773325 -0.07767991 -0.0776266
 -0.07757444 -0.07752447 -0.07747771 -0.07743309 -0.0773908 -0.0773483 -0.07730513 -0.07725979 -0.077212 -0.07716159
 -0.07710854 -0.07705334 -0.07699604 -0.07693742 -0.07687763 -0.07681798 -0.0767587 -0.07670144 -0.07664608 -0.07659335
 -0.0765425 -0.07649276 -0.07644295 -0.07639123 -0.07633729 -0.07627992 -0.07622027 -0.07615858 -0.0760962 -0.07603379
 -0.07597186 -0.07591069 -0.07585035 -0.07579078 -0.07573269 -0.07567619 -0.07562166 -0.07556918 -0.07551755 -0.07546671
 -0.07541499 -0.07536241 -0.07530817 -0.07525256 -0.07519637 -0.07513978 -0.07508388 -0.07502814 -0.07497244 -0.07491557
 -0.07485583 -0.07479272 -0.07472468 -0.07465343 -0.07457909 -0.07450489 -0.0744322 -0.07436296 -0.07429833 -0.07423729
 -0.07418005 -0.07412408 -0.07406915 -0.0740129 -0.07395514 -0.07389426 -0.07383019 -0.07376189 -0.07368944 -0.07361277
 -0.07353225 -0.07344911 -0.07336406 -0.07327951 -0.07319635 -0.07311751 -0.07304305 -0.07297473 -0.0729108 -0.07285077
 -0.07279173 -0.07273179 -0.07266904 -0.07260191 -0.07253078 -0.07245522 -0.0723769 -0.07229604 -0.07221391 -0.07213063
 -0.07204751 -0.07196463 -0.0718841 -0.07180598 -0.07173133 -0.07165991 -0.07159053 -0.07152291 -0.071455 -0.071387
 -0.0713185 -0.07124947 -0.07118005 -0.07110924 -0.07103578 -0.07095906 -0.07087754 -0.07079271 -0.0707047 -0.07061604
 -0.07052817 -0.0704414 -0.07035635 -0.07027156 -0.07018671 -0.07010154 -0.07001584 -0.06993113 -0.06984753 -0.06976514
 -0.06968389 -0.06960156 -0.06951806 -0.06943148 -0.06934225 -0.06925144 -0.06915931 -0.0690674 -0.06897516 -0.06888215
 -0.06878826 -0.06869265 -0.06859673 -0.0685015 -0.06840799 -0.06831771 -0.06822909 -0.06814206 -0.06805423 -0.06796471
 -0.06787287 -0.06777842 -0.06768134 -0.0675816 -0.06747942 -0.06737477 -0.06726909 -0.06716254 -0.06705835 -0.06695651
 -0.06685865 -0.06676411 -0.06667094 -0.06657842 -0.06648329 -0.06638545 -0.06628279 -0.06617635 -0.0660664 -0.06595452
 -0.06584242 -0.0657308 -0.06562105 -0.06551177 -0.06540273 -0.06529239 -0.06517989 -0.065066 -0.06495066 -0.06483531
 -0.06472029 -0.06460481 -0.06448888 -0.06437068 -0.06425019 -0.06412815 -0.06400476 -0.06388193 -0.06375934 -0.06363656
 -0.06351285 -0.06338552 -0.0632548 -0.06311931 -0.06298096 -0.06284184 -0.06270347 -0.06256876 -0.06243631 -0.06230676
 -0.06217615 -0.06204265 -0.06190412 -0.06175877 -0.06160951 -0.06145628 -0.06130414 -0.06115404 -0.06100696 -0.06086332
 -0.06071753 -0.06056928 -0.06041101 -0.06024287 -0.06006306 -0.05987296 -0.05967842 -0.05948035 -0.05928501 -0.05909133
 -0.05890036 -0.05871013 -0.05851813 -0.05832338 -0.0581239 -0.05791957 -0.05770974 -0.05749449 -0.05727377 -0.05704738
 -0.0568155 -0.05657664 -0.05633052 -0.05607576 -0.0558116 -0.05554175 -0.05526621 -0.0549932 -0.05472304 -0.05445835
 -0.05419842 -0.05393681 -0.05367327 -0.05340279 -0.05312677 -0.05284781 -0.05256566 -0.0522825 -0.05199388 -0.05169396
 -0.05137993 -0.05104465 -0.05069377 -0.0503283 -0.04995568 -0.04958124 -0.04920343 -0.0488236 -0.04843567 -0.04803796
 -0.04762974 -0.04721056 -0.04678224 -0.04634533 -0.04589339 -0.04542598 -0.04492874 -0.04440206 -0.04384338 -0.0432566
 -0.04266156 -0.04205981 -0.04146904 -0.04088309 -0.04029766 -0.03970562 -0.03909341 -0.03845954 -0.03779798 -0.03710736
 -0.03638799 -0.03562858 -0.03482556 -0.03396346 -0.0330338 -0.0320388 -0.03097299 -0.02986741 -0.02872385 -0.02758221
 -0.02644621 -0.02534076 -0.0242671 -0.02323075 -0.02223012 -0.02125139 -0.02028995 -0.01931387 -0.01832011 -0.01727685
 -0.01619539 -0.01508048 -0.0139552 -0.01286174 -0.01180211 -0.01080148 -0.009833134 -0.008885967 -0.007936231 -0.00696602
 -0.005974126 -0.004955605 -0.003916879 -0.002859797 -0.001781757 -0.0006818303 0.0004360532 0.001572619 0.002707585 0.003839893
 0.004952095 0.006042973 0.007096174 0.008106397 0.009036415 0.009879884 0.0105938 0.01117959 0.01161888 0.0119168
 0.01207231 0.012093 0.0119808 0.01175997 0.01144418 0.01106774 0.0106515 0.01021704 0.009775745 0.009340749
 0.008916377 0.008513735 0.008136109 0.007781789 0.007451869 0.007129125 0.006812648 0.006481091 0.006133792 0.005756403
 0.005349862 0.004912135 0.004444432 0.003950413 0.003429318 0.002881075 0.002304912 0.001697596 0.001064315 0.0004061665
 -0.0002617906 -0.0009301734 -0.001580093 -0.00219947 -0.002776084 -0.003302773 -0.003774551 -0.004189215 -0.004543444 -0.004836419
 -0.005066302 -0.005232628 -0.005337598 -0.005381312 -0.005367725 -0.005297074 -0.005173048 -0.004996191 -0.004771373 -0.004499503
 -0.004186379 -0.0038326 -0.003442783 -0.003016231 -0.002554492 -0.002054909 -0.001515764 -0.0009327737 -0.0003023363 0.000379345
 0.001115657 0.001907098 0.002755967 0.003655884 0.004607898 0.005594885 0.006616105 0.007645259 0.008680466 0.009693171
 0.01068168 0.01162074 0.01250956 0.01333145 0.01408776 0.01477746 0.01540393 0.01597922 0.01650491 0.01699131
 0.01743718 0.01784373 0.018213 0.01854676 0.01884998 0.01912859 0.01938107 0.01960947 0.01980686 0.0199706
 0.02009813 0.02018832 0.02024054 0.02025562 0.02022483 0.02014775 0.02001236 0.0198179 0.01956162 0.01924352
 0.0188643 0.0184227 0.01791122 0.0173279 0.01666119 0.0159106 0.01506882 0.01413704 0.01311467 0.01200116
 0.01079642 0.009497507 0.00809606 0.006610026 0.005034746 0.003431556 0.001819851 0.0002561597 -0.00123489 -0.002655965
 -0.004001388 -0.005299642 -0.006554185 -0.007771836 -0.008953392 -0.01008741 -0.01117372 -0.0122081 -0.01319176 -0.01413125
 -0.01502722 -0.01588456 -0.01670545 -0.01749437 -0.01826159 -0.01902306 -0.01979759 -0.02061369 -0.02148559 -0.02243873
 -0.0234661 -0.02457548 -0.02573992 -0.02695145 -0.02818678 -0.02943802 -0.03069359 -0.03195392 -0.03318709 -0.03439226
 -0.03551305 -0.03654542 -0.03747186 -0.03829446 -0.03905255 -0.03974963 -0.04043007 -0.04109122 -0.04174704 -0.04239106
 -0.0430132 -0.04360974 -0.0441696 -0.04469108 -0.04516909 -0.04559882 -0.04597535 -0.04629274 -0.04654577 -0.04673265
 -0.04685075 -0.04690307 -0.04688937 -0.04681509 -0.04668083 -0.04649268 -0.04625133 -0.04596146 -0.04562338 -0.0452403
 -0.04481302 -0.04435484 -0.04386974 -0.04339248 -0.04292709 -0.04251125 -0.04214061 -0.04182513 -0.04155346 -0.04130933
 -0.04108462 -0.04086121 -0.04063896 -0.04041145 -0.04018106 -0.03994726 -0.03971303 -0.03947724 -0.03925157 -0.03903781
 -0.03885111 -0.03869644 -0.03857038 -0.0384749 -0.03838545 -0.03830076 -0.03819353 -0.03806289 -0.03789479 -0.0376907
 -0.03745477 -0.03718929 -0.03690713 -0.03660716 -0.03629505 -0.03596358 -0.03560343 -0.03520487 -0.03475099 -0.03423717
 -0.03365256 -0.03299892 -0.03227502 -0.03148073 -0.03061558 -0.02967986 -0.02867061 -0.02760335 -0.02647761 -0.02532501
 -0.02414855 -0.02297748 -0.02181409 -0.02067505 -0.01956129 -0.01848833 -0.01745836 -0.01649588 -0.01560282 -0.01480183
 -0.01409086 -0.01347605 -0.01295422 -0.01252081 -0.01217736 -0.01192313 -0.01176275 -0.01170172 -0.01173837 -0.01187609
 -0.0121026 -0.01241498 -0.01279765 -0.01324534 -0.01374886 -0.01430467 -0.01491413 -0.01557634 -0.01630019 -0.01708628
 -0.01794114 -0.01886483 -0.01985583 -0.02091338 -0.02203164 -0.02320853 -0.02443444 -0.02570235 -0.02699034 -0.02828588
 -0.0295552 -0.03078804 -0.03195541 -0.03305621 -0.03407819 -0.03502704 -0.03590197 -0.03671175 -0.03745889 -0.03815434
 -0.03880102 -0.03941006 -0.03998425 -0.04052969 -0.04104805 -0.04153724 -0.04199753 -0.04241995 -0.04280395 -0.04313761
 -0.0434204 -0.0436421 -0.04380381 -0.04390369 -0.04394598 -0.04394063 -0.04389466 -0.04382562 -0.04374116 -0.04365833
 -0.04358374 -0.04352961 -0.04349936 -0.04349985 -0.04352802 -0.04358591 -0.04366296 -0.04375776 -0.04385569 -0.04395398
 -0.04404033 -0.04411266 -0.044165 -0.04419661 -0.04420723 -0.04419689 -0.044168 -0.04412104 -0.04406095 -0.04398851
 -0.04391035 -0.04382648 -0.04374089 -0.04365198 -0.0435589 -0.04345902 -0.04334814 -0.04322472 -0.0430853 -0.04293053
 -0.04275901 -0.04257464 -0.04237768 -0.04217595 -0.041971 -0.04177279 -0.04158352 -0.04141041 -0.04125524 -0.04111728
 -0.04099702 -0.04088484 -0.04078014 -0.04066813 -0.04054811 -0.0404074 -0.04024611 -0.04005798 -0.03984378 -0.03960231
 -0.03933477 -0.0390417 -0.03872753 -0.03839577 -0.03805889 -0.03772651 -0.03742073 -0.03715662 -0.03695888 -0.03684303
 -0.0368229 -0.03690905 -0.03709367 -0.03738029 -0.03773968 -0.03817039 -0.03863262 -0.03912352 -0.03960565 -0.04007709
 -0.04051097 -0.040907 -0.0412518 -0.04154687 -0.04179176 -0.04198951 -0.04214878 -0.04227309 -0.04237393 -0.04245353
 -0.04252046 -0.04257443 -0.04261863 -0.04265084 -0.04267022 -0.04267558 -0.04266541 -0.04264214 -0.0426058 -0.04256051
 -0.04250738 -0.04244793 -0.0423828 -0.04230986 -0.04222897 -0.04213844 -0.04203823 -0.04193003 -0.04181416 -0.04169443
 -0.04157105 -0.04144716 -0.04132255 -0.04119833 -0.04107409 -0.04094943 -0.04082413 -0.0406976 -0.04056996 -0.04044105
 -0.04031133 -0.040181 -0.04005084 -0.03992125 -0.03979287 -0.03966588 -0.03954109 -0.03941846 -0.03929998 -0.03918565
 -0.0390792 -0.03898085 -0.03889491 -0.03882159 -0.03876388 -0.03872175 -0.03869611 -0.03868667 -0.03869259 -0.0387133
 -0.03874655 -0.03879172 -0.0388464 -0.0389101 -0.03898123 -0.03905893 -0.03914239 -0.03922885 -0.03931677 -0.03940175
 -0.03948163 -0.03955184 -0.03961031 -0.03965453 -0.03968317 -0.03969726 -0.03969645 -0.03968466 -0.03966218 -0.03963245
 -0.03959564 -0.03955128 -0.03949914 -0.03943623 -0.03936262 -0.03927702 -0.03918001 -0.03907292 -0.03895619 -0.03883143
 -0.0386991 -0.03856041 -0.03841618 -0.03826778 -0.03811578 -0.03796132 -0.03780366 -0.03764286 -0.03747769 -0.03730766
 -0.03713223 -0.03695108 -0.03676456 -0.03657259 -0.03637597 -0.03617467 -0.03597055 -0.03576374 -0.03555851 -0.03535538
 -0.03516185 -0.03497867 -0.03481459 -0.03466917 -0.03454661 -0.03444365 -0.03435595 -0.034278 -0.03419928 -0.03411537
 -0.03401675 -0.03390306 -0.03377004 -0.03362175 -0.03345827 -0.03328666 -0.03310873 -0.03293274 -0.03276068 -0.03259965
 -0.03245121 -0.03231826 -0.03220151 -0.03209855 -0.03200927 -0.03192766 -0.0318533 -0.03177967 -0.03170625 -0.03162709
 -0.03154134 -0.03144276 -0.03133085 -0.03120067 -0.03105386 -0.03088992 -0.03071321 -0.03052823 -0.03033915 -0.03015122
 -0.02996498 -0.02978273 -0.02960152 -0.02942093 -0.02923785 -0.02905122 -0.02886018 -0.02866416 -0.02846497 -0.02826251
 -0.02806128 -0.02786151 -0.02766861 -0.02748265 -0.02730605 -0.02713815 -0.02697592 -0.02681896 -0.02666335 -0.02651096
 -0.0263637 -0.02622512 -0.02610266 -0.02599711 -0.02591398 -0.02584781 -0.02579705 -0.0257537 -0.02571234 -0.0256701
 -0.02562398 -0.0255764 -0.02552787 -0.02547817 -0.02542803 -0.02537163 -0.02530847 -0.02523402 -0.02514792 -0.02505247
 -0.02494802 -0.02484013 -0.02472892 -0.02461773 -0.02450651 -0.02439653 -0.02428818 -0.02418292 -0.0240815 -0.02398583
 -0.02389665 -0.0238153 -0.023743 -0.02368083 -0.02363065 -0.02359363 -0.02357162 -0.02356577 -0.02357648 -0.02360451
 -0.02364753 -0.02370567 -0.02377409 -0.02385239 -0.02393577 -0.02402386 -0.02411459 -0.02420798 -0.02430464 -0.0244047
 -0.02450925 -0.02461822 -0.02473196 -0.02485007 -0.02497192 -0.02509665 -0.02522255 -0.0253488 -0.02547351 -0.02559686
 -0.02571793 -0.02583867 -0.02595991 -0.02608332 -0.02621002 -0.02633984 -0.02647331 -0.0266081 -0.02674405 -0.02687816
 -0.02701021 -0.02713701 -0.02725836 -0.02737112 -0.02747515 -0.02756775 -0.02764915 -0.02771933 -0.02777927 -0.0278326
 -0.0278808 -0.02792955 -0.02797979 -0.02803611 -0.02809804 -0.02816723 -0.02824179 -0.02832121 -0.02840195 -0.02848239
 -0.02855797 -0.02862667 -0.02868474 -0.02873034 -0.0287636 -0.02878384 -0.02879473 -0.02879653 -0.02879298 -0.02878439
 -0.0287713 -0.02875365 -0.02872951 -0.02869896 -0.02866137 -0.02861734 -0.02856898 -0.02851692 -0.02846401 -0.02841024
 -0.02835698 -0.02830398 -0.02825158 -0.02819923 -0.02814667 -0.02809315 -0.02803803 -0.02798125 -0.0279221 -0.02786297
 -0.02780407 -0.02774891 -0.02769831 -0.02765344 -0.02761472 -0.0275803 -0.02755006 -0.02752252 -0.02749774 -0.02747757
 -0.02746252 -0.02745709 -0.02746186 -0.02748181 -0.02751678 -0.02756964 -0.02763833 -0.02772128 -0.02781407 -0.02791094
 -0.02800678 -0.02809499 -0.02817252 -0.02823526 -0.02828321 -0.02831472 -0.02833329 -0.02833869 -0.02833834 -0.028333
 -0.02833208 -0.02833692 -0.02835274 -0.02838022 -0.02841529 -0.0284575 -0.02849665 -0.02853229 -0.02855606 -0.02856826
 -0.02856587 -0.0285493 -0.02851823 -0.02847262 -0.02841185 -0.02833687 -0.02824816 -0.02814815 -0.02803903 -0.02792313
 -0.0278025 -0.02767858 -0.02755233 -0.02742498 -0.0272969 -0.02716971 -0.02704387 -0.02691979 -0.02679756 -0.02667731
 -0.02655902 -0.02644394 -0.02633203 -0.02622218 -0.02611365 -0.02599938 -0.02587895 -0.02574544 -0.02560186 -0.02545208
 -0.02530215 -0.02516608 -0.0250473 -0.02495785 -0.02489432 -0.02485912 -0.02484399 -0.024845 -0.02485373 -0.02486623
 -0.02487451 -0.024876 -0.02486292 -0.02483326 -0.02478257 -0.02470949 -0.02461696 -0.02450488 -0.02438151 -0.02424725
 -0.02410882 -0.02396594 -0.02381903 -0.02366733 -0.0235073 -0.02333897 -0.02316023 -0.02297236 -0.02277694 -0.02257505
 -0.02236909 -0.02215897 -0.02194515 -0.02172824 -0.02150806 -0.02128758 -0.02106769 -0.02085225 -0.02064269 -0.02044122
 -0.02024855 -0.02006556 -0.01989243 -0.01972949 -0.01957677 -0.0194344 -0.01930248 -0.01918382 -0.01907919 -0.01899697
 -0.01893766 -0.01890941 -0.0189093 -0.01893424 -0.01897782 -0.01902537 -0.01907251 -0.01910575 -0.01912632 -0.01913077
 -0.0191208 -0.01909809 -0.01905863 -0.0190017 -0.01892118 -0.01881401 -0.01868089 -0.01852028 -0.01834086 -0.01814314
 -0.0179376 -0.01772503 -0.01751368 -0.01730402 -0.017105 -0.0169173 -0.01675121 -0.01660712 -0.01649311 -0.01640791
 -0.01635282 -0.01632426 -0.01631619 -0.01632364 -0.01633726 -0.01635254 -0.01636143 -0.01636204 -0.01635014 -0.01632726
 -0.01629254 -0.0162498 -0.01619989 -0.01614645 -0.01609058 -0.0160335 -0.01597573 -0.01591615 -0.01585472 -0.01579065
 -0.01572395 -0.01565661 -0.01558866 -0.01552135 -0.0154539 -0.01538308 -0.01530803 -0.01522351 -0.01513096 -0.01503034
 -0.01492478 -0.0148194 -0.01471512 -0.01461535 -0.01451839 -0.01442359 -0.01433102 -0.0142399 -0.01415297 -0.01407165
 -0.01399468 -0.01392311 -0.01384897 -0.0137714 -0.0136833 -0.01358368 -0.01347402 -0.01335444 -0.01323217 -0.01310735
 -0.01298424 -0.0128621 -0.01273922 -0.01261467 -0.01248415 -0.01234799 -0.01220451 -0.01205502 -0.01190084 -0.01174277
 -0.01158232 -0.01141937 -0.01125398 -0.01108711 -0.01091824 -0.01075203 -0.01058895 -0.01043693 -0.01029754 -0.01017799
 -0.01007983 -0.01000536 -0.009955307 -0.009924481 -0.009912563 -0.009907092 -0.00990706 -0.00989693 -0.00987629 -0.009833975
 -0.009771897 -0.009689768 -0.009591398 -0.009485424 -0.009373873 -0.009264828 -0.009155556 -0.009046794 -0.008933659 -0.008811767
 -0.008681086 -0.008538912 -0.008392127 -0.008242112 -0.008096153 -0.007956875 -0.007824782 -0.007700754 -0.007580386 -0.007463179
 -0.007348425 -0.007236095 -0.007133106 -0.00703987 -0.006964174 -0.006904921 -0.006860724 -0.00682843 -0.006796672 -0.00676262
 -0.006713478 -0.006649815 -0.006565711 -0.006466053 -0.006352866 -0.006233803 -0.006115368 -0.006002477 -0.005901178 -0.005806739
 -0.005720536 -0.005629977 -0.005532275 -0.005418526 -0.005285805 -0.005138364 -0.004975783 -0.004810383 -0.004642826 -0.004481752
 -0.004327103 -0.004180226 -0.004040426 -0.003904709 -0.003771936 -0.003636696 -0.003497891 -0.003349456 -0.00319295 -0.003026563
 -0.002856699 -0.0026886 -0.00253121 -0.002393448 -0.002279936 -0.002196958 -0.002140536 -0.002112151 -0.002100828 -0.002105008
 -0.002112044 -0.002119888 -0.00211895 -0.002107996 -0.002082479 -0.00204207 -0.001986472 -0.001915781 -0.001831248 -0.001733075
 -0.001622726 -0.00150099 -0.001371251 -0.001234724 -0.00109621 -0.000955945 -0.0008166012 -0.0006775886 -0.0005384061 -0.0004010908
 -0.0002665293 -0.0001382243 -1.978528E-05 9.209225E-05 0.0001947302 0.0003053222 0.0004271565 0.0005763455 0.0007591969 0.0009606056
 0.001180994 0.001389342 0.001583793 0.001749162 0.001885347 0.001989189 0.002060758 0.002098231 0.002102223 0.002072776
 0.00201318 0.001930064 0.001829777 0.001725539 0.001623081 0.001535781 0.00146204 0.00140674 0.001361057 0.001321311
 0.001281034 0.001235342 0.001187752 0.001137206 0.001093234 0.001057447 0.001035481 0.001028604 0.001033572 0.001050345
 0.001069251 0.001089836 0.00110335 0.001110463 0.001110583 0.001106031 0.001105539 0.001110552 0.001130789 0.001162349
 0.001204825 0.001248983 0.001282542 0.001301875 0.001296326 0.001276928 0.001245825 0.001216916 0.001198009 0.001189598
 0.001194929 0.001203389 0.001213921 0.001216133 0.001208352 0.001188837 0.001157158 0.001125344 0.001094661 0.001088459
 0.001107284 0.001168175 0.001266844 0.001397484 0.001551304 0.001702593 0.001845627 0.001955985 0.002038745 0.002087654
 0.002117332 0.002137925 0.002161034 0.002198783 0.002247881 0.002311555 0.002377418 0.002441753 0.002500774 0.00255198
 0.002603455 0.002655971 0.002714232 0.002778762 0.002843847 0.002909285 0.002970929 0.003029539 0.003089113 0.003149819
 0.003214833 0.003282907 0.003351248 0.003421383 0.003493856 0.00357284 0.003665288 0.003769677 0.003889512 0.004014569
 0.004139524 0.004257629 0.00436305 0.004460348 0.004549323 0.004636272 0.004722896 0.004809059 0.004894847 0.004980383
 0.005065524 0.005157007 0.005255062 0.005364528 0.005484175 0.005607306 0.005731861 0.005844714 0.005946734 0.006032307
 0.00610623 0.006175156 0.00624196 0.006315209 0.006389626 0.006465371 0.006531327 0.006580668 0.006606125 0.006602413
 0.006568756 0.006504358 0.006407448 0.006277764 0.006112423 0.005910163 0.005678403 0.005417106 0.005148004 0.004872268
 0.004612312 0.004367664 0.004145616 0.003943299 0.00375245 0.003570423 0.003384951 0.003196676 0.002999593 0.002799303
 0.002599696 0.002408513 0.002234747 0.002081454 0.001954639 0.001849503 0.001766511 0.00169673 0.001638131 0.001582191
 0.00152703 0.001466703 0.001399786 0.001327699 0.00125018 0.001177613 0.00111016</values></Ydata></AB><ScSm><Ydata ylabel="Single channel"><values byteorder="INTEL" format="FLOAT32" numvalues="1814"> 0.09062764 0.09073825 0.09086598 0.09101962 0.09119299 0.09136952 0.09153291 0.09167646 0.09180133 0.09190716
 0.09199524 0.09208336 0.09220152 0.09236325 0.09254864 0.09271979 0.09285015 0.0929462 0.09304605 0.09318352
 0.0933433 0.09346113 0.09348156 0.09341671 0.09334186 0.093329 0.09339796 0.09354934 0.09380915 0.09416385
 0.09446415 0.09451954 0.09433698 0.09415649 0.09418653 0.09439388 0.09460047 0.09468004 0.09460992 0.09445398
 0.09438476 0.09462946 0.09526636 0.09605627 0.09651485 0.0961926 0.09497473 0.09324194 0.09177823 0.091363
 0.09221166 0.09373758 0.09498937 0.09541812 0.09517755 0.0947217 0.09432888 0.09409122 0.09412344 0.09454533
 0.09528836 0.09601576 0.09625068 0.09568818 0.09453981 0.09350027 0.09318002 0.09362997 0.09455056 0.09565641
 0.09641249 0.0957645 0.09306736 0.08950193 0.08771339 0.08937155 0.09342444 0.0971916 0.09880629 0.09821104
 0.09638675 0.09448189 0.09350641 0.09399028 0.09563982 0.09762858 0.09925209 0.1001194 0.09998418 0.09885988
 0.09724756 0.09592271 0.09550255 0.09626666 0.09804698 0.1000578 0.1012074 0.1009563 0.09972149 0.09833656
 0.0974362 0.09742779 0.09852734 0.1005055 0.1027014 0.1045104 0.1057027 0.1062968 0.1064096 0.1062292
 0.1059229 0.1056149 0.1055135 0.1058044 0.1062889 0.1064227 0.1059202 0.1051392 0.1047193 0.1049228
 0.1054107 0.1056546 0.1054626 0.104886 0.1036809 0.101422 0.09836982 0.09561551 0.09401736 0.0935941
 0.09421323 0.09595907 0.09829704 0.09980953 0.09961818 0.0985693 0.09832258 0.09955501 0.1015288 0.103165
 0.1040937 0.1047181 0.1055836 0.1067624 0.107697 0.1076139 0.1063134 0.1046636 0.1040263 0.1049407
 0.1065972 0.1078323 0.1083508 0.108695 0.1092834 0.1098024 0.1094819 0.1079219 0.1057827 0.1045532
 0.1053257 0.1077175 0.11007 0.1107023 0.1091044 0.1062142 0.1036321 0.10247 0.102914 0.1046804
 0.1074152 0.1105243 0.1130746 0.1142644 0.1139784 0.1127715 0.1112632 0.1095592 0.1074657 0.105384
 0.1045547 0.1059017 0.1088472 0.1117679 0.1134934 0.1139619 0.1135659 0.1123634 0.1101732 0.1073825
 0.1053144 0.1052513 0.1069761 0.1088181 0.1094274 0.10904 0.1087247 0.1089231 0.1092048 0.1091566
 0.1090003 0.1092737 0.1101405 0.1111794 0.1118286 0.1119029 0.111637 0.1113549 0.1111625 0.1108854
 0.1103352 0.1097231 0.1096474 0.1104645 0.1118111 0.1129692 0.1135749 0.113768 0.113758 0.113471
 0.1126805 0.1114546 0.1103721 0.1101126 0.1107969 0.1118956 0.112792 0.1132417 0.1133126 0.1131524
 0.1128901 0.1126033 0.1123319 0.1121639 0.1122232 0.1125054 0.112827 0.1130054 0.1130077 0.1128892
 0.1126769 0.11237 0.1120112 0.1117083 0.1115669 0.1116058 0.111755 0.1119263 0.1120516 0.1120701
 0.1119478 0.1117246 0.1114878 0.1112925 0.1111413 0.1110359 0.1109985 0.1110326 0.1110941 0.1111228
 0.1110911 0.1110109 0.1109018 0.1107725 0.1106322 0.1105023 0.1104114 0.1103788 0.110395 0.1104217
 0.1104344 0.1104529 0.1104991 0.1105387 0.1105105 0.1104068 0.1102861 0.1102076 0.1101848 0.1101955
 0.1102084 0.110193 0.1101227 0.1099917 0.1098406 0.109748 0.1097726 0.1099084 0.1101074 0.1103217
 0.1105088 0.110635 0.1107017 0.1107457 0.1107932 0.1108355 0.1108563 0.110866 0.1109026 0.1110035
 0.1111707 0.1113634 0.1115309 0.1116474 0.1117155 0.1117615 0.1118307 0.1119506 0.1120874 0.1121748
 0.1121985 0.1122177 0.112291 0.1124084 0.112511 0.11256 0.1125737 0.112601 0.11267 0.1127675
 0.1128638 0.1129476 0.1130328 0.1131342 0.1132367 0.113296 0.1132828 0.1132233 0.113175 0.1131664
 0.1131824 0.1132061 0.1132443 0.1133047 0.1133681 0.1134008 0.1133905 0.1133597 0.1133377 0.1133256
 0.1132973 0.1132344 0.1131475 0.1130612 0.1129905 0.1129338 0.1128799 0.1128154 0.1127317 0.1126281
 0.1125091 0.1123806 0.1122471 0.1121137 0.1119954 0.1119151 0.1118755 0.1118353 0.1117333 0.1115466
 0.1113165 0.1111095 0.1109601 0.1108519 0.1107464 0.1106214 0.1104839 0.1103547 0.1102471 0.11016
 0.1100858 0.110021 0.1099743 0.109965 0.110006 0.1100806 0.1101458 0.1101679 0.1101541 0.1101382
 0.1101451 0.1101746 0.1102164 0.1102655 0.1103261 0.1104062 0.110506 0.1106087 0.1106914 0.1107509
 0.1108086 0.1108896 0.1110039 0.1111487 0.1113097 0.1114594 0.1115739 0.1116603 0.1117538 0.1118806
 0.1120356 0.1122012 0.112372 0.1125526 0.1127431 0.1129412 0.1131523 0.1133873 0.1136509 0.1139351
 0.1142241 0.1145037 0.1147722 0.1150448 0.1153431 0.1156761 0.1160319 0.1163886 0.1167327 0.1170662
 0.1173998 0.1177407 0.1180879 0.1184415 0.1188093 0.1192008 0.119613 0.1200313 0.1204419 0.1208424
 0.121238 0.1216345 0.122034 0.1224383 0.1228543 0.123291 0.1237425 0.1241825 0.1245849 0.1249512
 0.1253093 0.1256871 0.1260915 0.1265085 0.1269124 0.1272826 0.1276221 0.1279579 0.128312 0.1286773
 0.1290337 0.1293827 0.1297512 0.1301553 0.1305708 0.1309501 0.1312669 0.1315406 0.1318144 0.1321094
 0.1324083 0.1326829 0.1329294 0.1331688 0.1334187 0.133679 0.1339475 0.1342314 0.1345337 0.1348372
 0.1351175 0.1353683 0.1356017 0.1358267 0.1360371 0.1362214 0.136377 0.1365174 0.1366668 0.1368415
 0.1370344 0.1372263 0.1374155 0.1376214 0.137858 0.1381183 0.1383933 0.1386898 0.1390156 0.1393584
 0.1396981 0.1400388 0.140407 0.1408072 0.1412002 0.141541 0.1418284 0.1420976 0.1423745 0.1426623
 0.1429669 0.1433063 0.1436888 0.1440972 0.1445003 0.1448756 0.1452243 0.1455703 0.1459365 0.1463149
 0.1466684 0.1469686 0.1472249 0.1474735 0.1477449 0.1480451 0.1483574 0.1486575 0.148927 0.1491545
 0.1493253 0.1494235 0.1494513 0.1494334 0.1493891 0.1493043 0.1491399 0.1488657 0.1484721 0.1479549
 0.147303 0.1465127 0.1456155 0.1446904 0.1438502 0.143209 0.1428512 0.1428178 0.1431074 0.1436764
 0.1444386 0.1452771 0.1460683 0.1467015 0.1470854 0.147159 0.1469113 0.1463858 0.1456591 0.14481
 0.1439058 0.1429992 0.1421304 0.1413458 0.1407308 0.1404203 0.1405645 0.1412741 0.1425778 0.1443999
 0.146558 0.1488048 0.1509163 0.1527705 0.1543604 0.1557422 0.1569787 0.1581162 0.1591861 0.1602064
 0.1611802 0.1621013 0.1629646 0.1637671 0.1645008 0.16515 0.1656945 0.1661163 0.1664088 0.1665886
 0.1666929 0.1667627 0.1668295 0.1669159 0.16703 0.1671435 0.1671862 0.1670792 0.1667819 0.1663158
 0.165766 0.1652831 0.1650767 0.1653699 0.1663029 0.1678436 0.169783 0.1718358 0.1737626 0.1754284
 0.1767884 0.1778612 0.1787077 0.1794062 0.1800207 0.1805882 0.1811253 0.181639 0.1821326 0.1826094
 0.1830747 0.1835351 0.183998 0.1844676 0.184941 0.1854095 0.1858682 0.1863233 0.186788 0.1872699
 0.1877635 0.1882544 0.1887348 0.1892111 0.1896927 0.1901745 0.1906404 0.1910819 0.1915081 0.1919371
 0.1923835 0.1928501 0.1933239 0.193782 0.1942082 0.1946059 0.1949918 0.1953785 0.1957658 0.1961472
 0.1965201 0.1968876 0.1972546 0.1976239 0.1979963 0.1983698 0.1987379 0.1990922 0.1994303 0.1997596
 0.2000919 0.2004335 0.2007816 0.2011292 0.2014714 0.2018106 0.2021545 0.2025085 0.2028685 0.2032242
 0.2035687 0.2039034 0.2042348 0.204568 0.2049048 0.2052435 0.2055828 0.2059236 0.2062675 0.2066142
 0.2069604 0.2073025 0.2076389 0.207971 0.2083019 0.2086336 0.2089651 0.2092949 0.2096234 0.2099517
 0.2102793 0.2106034 0.2109219 0.2112358 0.2115473 0.2118559 0.2121574 0.2124496 0.2127375 0.2130288
 0.213327 0.2136291 0.2139308 0.2142294 0.214524 0.2148149 0.2151031 0.2153906 0.2156778 0.2159629
 0.2162445 0.2165251 0.21681 0.2171009 0.2173932 0.2176813 0.2179644 0.2182476 0.2185365 0.2188325
 0.2191316 0.2194293 0.2197258 0.2200255 0.2203313 0.2206417 0.220953 0.2212614 0.2215657 0.2218691
 0.2221745 0.2224819 0.22279 0.2231005 0.2234153 0.2237352 0.2240587 0.2243826 0.2247013 0.2250125
 0.225319 0.2256242 0.2259291 0.2262355 0.2265452 0.2268565 0.2271647 0.2274669 0.2277638 0.2280579
 0.2283524 0.228649 0.2289475 0.2292487 0.2295534 0.2298586 0.2301606 0.2304598 0.2307602 0.2310656
 0.2313778 0.2316952 0.2320102 0.2323153 0.2326134 0.232915 0.2332267 0.2335488 0.2338774 0.2342075
 0.2345364 0.2348655 0.2351948 0.2355192 0.2358345 0.236142 0.2364459 0.2367499 0.2370583 0.2373712
 0.2376838 0.2379941 0.238305 0.2386191 0.2389364 0.2392583 0.2395839 0.2399087 0.2402309 0.2405545
 0.2408823 0.241215 0.2415525 0.2418904 0.2422206 0.2425428 0.2428654 0.2431937 0.2435259 0.2438598
 0.2441935 0.2445241 0.2448539 0.2451874 0.2455214 0.2458506 0.2461772 0.2465057 0.2468343 0.2471626
 0.2474943 0.2478297 0.2481666 0.2485062 0.2488474 0.2491847 0.249519 0.2498578 0.2502024 0.2505483
 0.2508939 0.251236 0.2515678 0.251891 0.2522156 0.2525465 0.2528835 0.2532291 0.25358 0.2539256
 0.2542631 0.2545972 0.2549255 0.2552454 0.2555642 0.2558851 0.2562021 0.2565154 0.2568296 0.2571331
 0.2573959 0.2575573 0.2574617 0.256779 0.2549551 0.2512209 0.2447418 0.2349473 0.22187 0.2062475
 0.1893216 0.1724536 0.1567535 0.142925 0.1313454 0.1222095 0.115631 0.1117351 0.1107329 0.1130249
 0.1193397 0.1303023 0.1448433 0.1588191 0.1665565 0.1651426 0.1570627 0.1479463 0.1419822 0.1398569
 0.140166 0.1415138 0.1433422 0.1457771 0.149151 0.153511 0.1585659 0.1641647 0.1705782 0.178083
 0.1864205 0.1948873 0.2029221 0.2104687 0.2177746 0.2249557 0.2318213 0.2380579 0.2434748 0.2480709
 0.2519696 0.255339 0.2583272 0.2610311 0.2635142 0.2658123 0.2678876 0.2696105 0.2708356 0.2715181
 0.2717676 0.2717981 0.271812 0.2719125 0.2721159 0.2724139 0.2727994 0.2732587 0.2737755 0.2743396
 0.2749382 0.2755531 0.2761698 0.2767767 0.2773611 0.2779164 0.2784458 0.2789493 0.2794224 0.2798675
 0.2802907 0.2806941 0.2810826 0.2814662 0.2818489 0.2822263 0.2825958 0.2829565 0.2833019 0.2836242
 0.2839223 0.2841999 0.2844651 0.2847289 0.2849954 0.2852573 0.2855086 0.2857522 0.2859924 0.2862307
 0.2864695 0.286709 0.286944 0.2871703 0.2873915 0.2876115 0.287832 0.2880556 0.2882862 0.2885232
 0.2887625 0.2889993 0.2892285 0.2894488 0.2896644 0.2898811 0.2901047 0.2903432 0.2906007 0.2908691
 0.2911352 0.2913954 0.2916549 0.2919162 0.2921794 0.2924478 0.2927244 0.2930082 0.2932963 0.2935829
 0.2938567 0.2941061 0.2943282 0.2945325 0.2947369 0.2949578 0.2951981 0.2954467 0.2956914 0.2959298
 0.2961655 0.2964029 0.2966456 0.2968934 0.2971438 0.2973996 0.2976686 0.2979513 0.29824 0.2985302
 0.2988223 0.2991142 0.2994 0.2996776 0.2999446 0.3001927 0.3004141 0.300614 0.3008124 0.3010301
 0.3012693 0.3015068 0.3017143 0.3018864 0.3020423 0.3022075 0.3024001 0.3026187 0.3028334 0.3030101
 0.3031638 0.3033682 0.303691 0.3041295 0.3046232 0.3051159 0.3055919 0.306065 0.3065477 0.3070359
 0.3075117 0.307959 0.3083844 0.3088268 0.3093311 0.3098978 0.3104742 0.3110066 0.3114833 0.3119176
 0.3123216 0.3127057 0.3130633 0.3133481 0.3135204 0.3136406 0.3138617 0.3142858 0.3148516 0.3154009
 0.3158384 0.3161912 0.316523 0.3168513 0.3171614 0.317423 0.3175524 0.3174539 0.3171948 0.3170673
 0.3173511 0.318032 0.3188367 0.3195112 0.319988 0.3203277 0.3206068 0.3208664 0.3210885 0.3211944
 0.3211292 0.3209888 0.3210107 0.3213582 0.3219349 0.3224885 0.3228776 0.3231533 0.3234167 0.3237036
 0.3239666 0.3240559 0.3237833 0.3231771 0.3226567 0.3227624 0.3236333 0.3248485 0.325847 0.3264271
 0.3267542 0.3269726 0.3269934 0.3266637 0.3259564 0.3249836 0.3240497 0.3236964 0.3243473 0.3257659
 0.3271551 0.3279548 0.3283224 0.3287289 0.3293463 0.3299755 0.3303739 0.330475 0.3303447 0.3300354
 0.3295592 0.3290551 0.328889 0.3293944 0.3304841 0.3316712 0.3325295 0.3330289 0.3333379 0.3333297
 0.3324544 0.3303881 0.3278838 0.3265862 0.327574 0.330227 0.3328978 0.3345423 0.3352956 0.3357046
 0.3360123 0.3360868 0.335411 0.3332552 0.3296669 0.3263382 0.3255823 0.3280567 0.3320281 0.3350519
 0.33584 0.334529 0.3320602 0.3297431 0.32879 0.3296593 0.3318607 0.3344556 0.3366218 0.3378794
 0.3381233 0.3375771 0.3366995 0.3360597 0.33598 0.3360565 0.3354116 0.3338328 0.332182 0.3310699
 0.3297383 0.3272994 0.3247114 0.3241861 0.3264528 0.3297065 0.3317021 0.3320512 0.3318238 0.3313892
 0.3295304 0.3250508 0.3189897 0.3145987 0.3145599 0.3183081 0.3225915 0.3246663 0.3244665 0.3236814
 0.3233764 0.3228686 0.3207503 0.3168823 0.3131777 0.3118972 0.31312 0.3146324 0.3143791 0.31192
 0.3073724 0.3008748 0.2942468 0.2913471 0.2946701 0.3022316 0.3093169 0.3125545 0.310981 0.3046325
 0.2948613 0.2857751 0.2824021 0.286063 0.2928319 0.297334 0.296989 0.2921409 0.2838617 0.2734515
 0.2635434 0.2577932 0.2585481 0.264959 0.2731781 0.278064 0.2758058 0.2669466 0.2571068 0.2527586
 0.2551686 0.2595783 0.2608073 0.2581199 0.2541583 0.2513044 0.2503469 0.2509706 0.252137 0.2529019
 0.2531649 0.2523229 0.2478815 0.2382717 0.2270976 0.221234 0.2237073 0.2312287 0.2394667 0.2473513
 0.2546455 0.2588548 0.2578788 0.2541883 0.2532519 0.2577246 0.2649306 0.2702817 0.2719327 0.2715338
 0.2711819 0.2708662 0.2695502 0.2679672 0.2686605 0.2728013 0.2783483 0.282264 0.2835733 0.2833691
 0.2827631 0.2819549 0.2807927 0.279232 0.2773044 0.2751428 0.2729715 0.2708694 0.2687327 0.2665498
 0.2643228 0.2614641 0.2568421 0.2502913 0.2439021 0.2405793 0.2409804 0.2430928 0.2451008 0.2466997
 0.2466999 0.2420285 0.2317519 0.2206932 0.2161235 0.2207534 0.2305933 0.2394535 0.2438387 0.2433814
 0.2387497 0.2313484 0.224874 0.2246875 0.2336558 0.2491184 0.2652613 0.2780271 0.2866423 0.2913608
 0.2919461 0.2888812 0.2847088 0.2830473 0.28615 0.2934585 0.3020487 0.3079423 0.3078209 0.3017741
 0.2952 0.2955112 0.3046826 0.3165509 0.3236108 0.3249121 0.3249279 0.3264986 0.3283953 0.329265
 0.330407 0.3335556 0.3380016 0.3411688 0.3409278 0.3365009 0.3284388 0.3192232 0.3128836 0.3118591
 0.3143639 0.3164708 0.3161474 0.3133431 0.3075604 0.298908 0.2911566 0.2897244 0.2955385 0.3036382
 0.308813 0.3104397 0.310915 0.311295 0.3100407 0.3056036 0.2991721 0.2941507 0.2928035 0.294098
 0.2953635 0.295177 0.2936064 0.2905524 0.2857123 0.2802821 0.2771002 0.2781665 0.2825407 0.2872808
 0.2901581 0.2910259 0.2909552 0.2908564 0.2909817 0.291113 0.2910342 0.2911734 0.2926356 0.2960357
 0.3004594 0.3042963 0.3070899 0.3098834 0.3136589 0.3180367 0.3217317 0.3239163 0.3249336 0.3258814
 0.3276404 0.3301589 0.3325084 0.3337 0.3336454 0.333352 0.3340154 0.3358874 0.3381786 0.3400129
 0.341201 0.3420945 0.3430404 0.3440852 0.3449543 0.3452624 0.3449841 0.3447307 0.3452882 0.3468051
 0.3486305 0.349983 0.3505958 0.3506761 0.3504631 0.3499941 0.3492396 0.3483094 0.3474504 0.3468656
 0.3465738 0.3464429 0.3463171 0.3460997 0.3457661 0.3453503 0.3449164 0.344523 0.3442206 0.3440817
 0.344192 0.3445864 0.3452159 0.345994 0.3468402 0.3476617 0.3483331 0.3487359 0.3488072 0.3485308
 0.3478997 0.3469033 0.3455307 0.3437557 0.3415441 0.3389654 0.336371 0.3344311 0.3338565 0.3349506
 0.3373703 0.3403223 0.343015 0.3450034 0.3462319 0.3468642 0.3470992 0.3470838 0.3469055 0.3466089
 0.3462186 0.3457608 0.3452687 0.3447733 0.3443015 0.3438837 0.3435482 0.3433014 0.3431178 0.3429495
 0.3427437 0.3424577 0.3420694 0.3415749 0.3409754 0.3402627 0.3394157 0.3384158 0.3372726 0.3360378
 0.3347858 0.3335742 0.3324151 0.3312765 0.3301108 0.328874 0.3275103 0.3259477 0.3241678 0.3223038
 0.320604 0.3192385 0.3181542 0.3171487 0.3160555 0.3148246 0.3134698 0.31201 0.3104633 0.3088517
 0.3071907 0.3054812 0.3037128 0.301871 0.2999486 0.2979521 0.2958935 0.2937776 0.291604 0.2893725
 0.2870633 0.2846056 0.2818692 0.2786955 0.2749421 0.2705165 0.2653968 0.259649 0.2534359 0.2469943
 0.2405804 0.2344171 0.2286765 0.2234963 0.2189997 0.2152941 0.212456 0.210521 0.2094944 0.20937
 0.2101334 0.2117444 0.2141204 0.2171319 0.2206103 0.224361 0.2281772 0.2318638 0.2352813 0.2383943
 0.2412668 0.2439835 0.2465669 0.2489729 0.2511513 0.2530862 0.2547826 0.2562421 0.25747 0.2584929
 0.2593579 0.2601134 0.2607919 0.2614033 0.2619393 0.2623881 0.262756 0.2630724 0.2633766 0.2636976
 0.264048 0.264426 0.2648252 0.2652471 0.2657113 0.2662484 0.2668814 0.2676111 0.2684183 0.2692783
 0.2701758 0.2711121 0.272106 0.2731938 0.2744192 0.2758106 0.2773624 0.2790328 0.2807508 0.2824209
 0.2839341 0.2851943 0.2861462 0.2867811 0.2871221 0.2872045 0.2870668 0.2867467 0.2862764 0.2856777
 0.2849697 0.2841818 0.2833518 0.2825066 0.2816491 0.2807637 0.2798352 0.278864 0.2778654 0.2768539
 0.2758402 0.274842 0.2738848 0.2729809 0.2721166 0.2712672 0.270417 0.2695642 0.2687159 0.2678807
 0.2670595 0.2662368 0.265379 0.2644388 0.263368 0.2621354 0.2607338 0.2591719 0.2574622 0.2556146
 0.2536356 0.2515375 0.2493476 0.2470999 0.2448163 0.2424986 0.2401293 0.2376769 0.2351253 0.2325145
 0.2299396 0.2274949 0.2252256 0.2231256 0.2211591 0.2192856 0.2174814 0.2157391 0.2140507 0.2124075
 0.2108146 0.2092879 0.2078393 0.2064771 0.2052153 0.2040728 0.2030692 0.2022211 0.2015325 0.2009871
 0.2005534 0.2001975 0.1999033 0.1996906 0.1995947 0.1996078 0.1996538 0.199637 0.1995066 0.1992753
 0.1990008 0.1987526 0.1985794 0.1984965 0.1984863 0.1984865 0.1983839 0.1980491 0.1973791 0.1963061
 0.1948015 0.1928937 0.1906745 0.1882839 0.1858954 0.1836827 0.1817684 0.1802044 0.1789917 0.1780858
 0.1773962 0.1768355 0.1763873 0.1761179 0.176115 0.1763855 0.1767825 0.1770771 0.1771628 0.1771726
 0.1773559 0.177865 0.1786706 0.1796229 0.1805567 0.181365 0.1820072 0.1824738 0.1827769 0.1829598
 0.1830663 0.1831013 0.1830455 0.1828825 0.1825955 0.1821764 0.1816455 0.1810257 0.1803098 0.179486
 0.1785629 0.1775476 0.1764364 0.1752277 0.1738988 0.1724117 0.170821 0.1693539 0.1683212 0.1679458
 0.1682508 0.1690574 0.1701059 0.1712195 0.1723231 0.173322 0.1741023 0.1747181 0.1754759 0.1767336
 0.1785995 0.1808209 0.182958 0.1846648 0.1858027 0.1863518 0.1863404 0.1858464 0.184934 0.1835914
 0.1818238 0.1797424 0.177487 0.1751676 0.1729165 0.1708632 0.1690641 0.1675451 0.1663221 0.1653911
 0.1648058 0.164293 0.1623009 0.1565339 0.1472062 0.1391578 0.1382071 0.1448868 0.1537158 0.1590927
 0.1600601 0.1589728 0.1577894 0.1569263 0.1562929 0.1559424 0.155925 0.1561456 0.1563944 0.156441
 0.1561792 0.1556193 0.1546413 0.1527596 0.149108 0.1427484 0.1333654 0.121914 0.1104192 0.1008994
 0.09436403 0.09060261 0.08862774 0.08736438 0.08626291 0.08548243 0.08552647 0.08672881 0.08906845 0.09232556
 0.0962401 0.1004833 0.104602 0.1081555 0.110945 0.1130347 0.1145468 0.1155278 0.1160028 0.1160397
 0.1157244 0.1151347 0.1143363 0.1133568 0.1121718 0.1107631 0.1092057 0.107698 0.1064799 0.1056781
 0.10523 0.1049833 0.1048423 0.1047864 0.1048027 0.1048651 0.1049567 0.1050787 0.1052524 0.1055065
 0.1058326 0.1061655 0.1064309 0.1066009 0.1066932 0.1067308 0.1067019 0.1065648 0.1063198 0.1060436
 0.1057697 0.105355 0.1045845 0.1034485 0.1022527 0.1014234 0.1012115 0.1015451 0.102113 0.1025951
 0.1028578 0.1029651 0.1030252 0.1030356</values></Ydata></ScSm><ScRf><Ydata ylabel="Single channel"><values byteorder="INTEL" format="FLOAT32" numvalues="1820"> 0.06963256 0.06976177 0.06987392 0.06997159 0.07006229 0.07015688 0.07026488 0.07038869 0.07052232 0.07065411
 0.07077301 0.07087624 0.07096864 0.0710531 0.07113003 0.07120977 0.07131272 0.07144883 0.07160307 0.07174535
 0.07185291 0.07192884 0.07200307 0.07210444 0.07222356 0.07231157 0.07232648 0.07227914 0.07222724 0.072223
 0.0722786 0.07239574 0.07259937 0.07288261 0.07312879 0.07318508 0.07305075 0.07290906 0.0729242 0.07307638
 0.07323258 0.07329648 0.07324933 0.07313862 0.07309623 0.07329652 0.07379813 0.07441424 0.07476938 0.07451613
 0.07356735 0.0722217 0.07109101 0.07077921 0.07144654 0.07263143 0.07359771 0.07392827 0.07374819 0.07340738
 0.0731153 0.07293943 0.0729699 0.07330312 0.07388666 0.07445568 0.07463662 0.07419513 0.07330218 0.07250051
 0.07226056 0.07261673 0.07333627 0.07419963 0.07478803 0.07427584 0.07216413 0.06938562 0.06800878 0.06932598
 0.07250167 0.07544173 0.07669894 0.07623613 0.07481901 0.07334261 0.07259536 0.07298821 0.07428629 0.07584195
 0.07710829 0.07778357 0.07767642 0.07679823 0.07554279 0.07451732 0.07420273 0.07481468 0.07621855 0.07779671
 0.07869466 0.07849324 0.07752413 0.07644428 0.07575268 0.0757654 0.0766439 0.07820235 0.07992539 0.08134672
 0.082289 0.08276276 0.08285613 0.08271751 0.08248052 0.08224362 0.08216961 0.08240245 0.08278409 0.08288884
 0.08249874 0.08190018 0.08159313 0.08177518 0.08217347 0.08237418 0.08223252 0.08179044 0.08085196 0.07908085
 0.07668698 0.07453319 0.07329223 0.07297537 0.07347924 0.0748702 0.07672298 0.07792055 0.07777876 0.07696944
 0.07679294 0.07777122 0.07932222 0.08060728 0.08134522 0.08185303 0.08255127 0.08349038 0.08423332 0.08417726
 0.08316953 0.08189395 0.08141825 0.0821601 0.08347902 0.08446366 0.08489008 0.08518818 0.08568153 0.08611448
 0.08587773 0.08466333 0.08300296 0.08207372 0.08272691 0.08464712 0.08652209 0.08703278 0.08578805 0.08353584
 0.08154027 0.08067523 0.08108462 0.08254335 0.08476872 0.08728588 0.08935562 0.09034786 0.09017427 0.08927213
 0.08812793 0.08682385 0.08521083 0.08361809 0.08303836 0.08419988 0.08662909 0.08902693 0.0904658 0.0909031
 0.09065309 0.08975822 0.08807259 0.08591273 0.08434645 0.08439872 0.08588057 0.08744139 0.08800377 0.08776994
 0.08760232 0.08784948 0.08816009 0.08820402 0.08816615 0.08848227 0.08928074 0.0902167 0.09083612 0.09099171
 0.0908724 0.09073623 0.09066549 0.09051985 0.09015327 0.08974577 0.08978644 0.09055903 0.09176053 0.09280574
 0.0934036 0.09367105 0.09377503 0.09364594 0.09309252 0.09217468 0.0913796 0.0912746 0.09195658 0.09297986
 0.09382944 0.09430364 0.09446261 0.09443276 0.09432245 0.09419524 0.09408347 0.09405927 0.09422239 0.09456569
 0.09493703 0.09518945 0.09529981 0.09531221 0.09524349 0.09509065 0.0948931 0.09474505 0.09473416 0.09487252
 0.09510043 0.09534751 0.09555961 0.0956829 0.09568343 0.09559289 0.09548885 0.09542076 0.09538942 0.09539402
 0.09545493 0.0955779 0.09572558 0.09584505 0.09591295 0.09593982 0.09593998 0.09591676 0.0958772 0.09584407
 0.09584743 0.09590465 0.09600344 0.09610873 0.09620196 0.09630358 0.09643096 0.0965481 0.09659552 0.0965661
 0.09651731 0.09650996 0.09656009 0.0966458 0.09673394 0.0967924 0.09679455 0.09673642 0.09665939 0.09663774
 0.09672303 0.09690718 0.09714586 0.09739496 0.09761517 0.09777641 0.09788208 0.09796652 0.09805399 0.09813669
 0.09819928 0.09824986 0.09832205 0.09845006 0.09863624 0.09884424 0.09902996 0.09917212 0.09927351 0.09935632
 0.09945976 0.09960645 0.09976202 0.09986402 0.09990326 0.09994122 0.1000335 0.1001648 0.1002759 0.1003348
 0.100365 0.1004122 0.1004968 0.1006026 0.1007045 0.1007991 0.1009038 0.1010291 0.1011519 0.1012245
 0.1012222 0.101176 0.1011427 0.1011469 0.1011735 0.1012102 0.1012675 0.1013504 0.1014331 0.1014789
 0.1014808 0.1014692 0.1014771 0.1015026 0.1015132 0.1014846 0.1014256 0.1013663 0.1013296 0.1013168
 0.1013118 0.1012951 0.1012558 0.1011945 0.101119 0.1010392 0.1009618 0.1008914 0.100841 0.1008326
 0.1008678 0.1008984 0.1008521 0.1007006 0.1004923 0.1003068 0.1001861 0.1001119 0.100036 0.09992393
 0.09977517 0.09961377 0.09946447 0.09933587 0.09922127 0.09911136 0.09900842 0.09893048 0.09889395 0.0988851
 0.09885751 0.09877193 0.09863618 0.09849542 0.09838751 0.09831801 0.09827087 0.09822936 0.09818976 0.09816384
 0.09816363 0.09817962 0.09818546 0.09816866 0.09814568 0.09814407 0.09818283 0.09826739 0.09838327 0.09849243
 0.09855852 0.09858429 0.09860976 0.09866917 0.09876254 0.09887115 0.09898465 0.09910543 0.09923816 0.09938543
 0.09955047 0.09973669 0.09994359 0.1001652 0.1003915 0.1006127 0.1008263 0.1010425 0.1012781 0.1015416
 0.1018244 0.1021071 0.1023756 0.1026315 0.1028877 0.1031544 0.103431 0.1037137 0.1040066 0.1043176
 0.1046449 0.1049751 0.1052973 0.1056127 0.1059286 0.1062485 0.1065705 0.1068944 0.1072282 0.1075832
 0.1079545 0.1083134 0.1086307 0.1089091 0.1091818 0.109481 0.1098141 0.1101645 0.1105026 0.110804
 0.1110702 0.1113303 0.1116116 0.1119125 0.1122147 0.1125171 0.1128437 0.1132095 0.1135887 0.1139267
 0.1141905 0.1144025 0.1146171 0.1148632 0.1151211 0.115357 0.1155673 0.1157758 0.1159981 0.1162279
 0.1164593 0.1167047 0.1169761 0.1172604 0.1175272 0.1177596 0.1179642 0.1181536 0.1183287 0.1184786
 0.1185952 0.1186883 0.1187855 0.1189103 0.119059 0.1192076 0.119344 0.1194811 0.1196371 0.1198166
 0.1200179 0.1202443 0.1204954 0.1207554 0.1210072 0.1212583 0.1215335 0.1218338 0.122121 0.1223575
 0.1225507 0.1227372 0.1229367 0.1231447 0.1233632 0.1236106 0.1238956 0.1242008 0.1244987 0.1247767
 0.1250455 0.1253287 0.125638 0.1259532 0.1262334 0.1264551 0.1266351 0.1268151 0.1270286 0.127282
 0.1275602 0.1278425 0.1281143 0.1283636 0.1285716 0.1287202 0.1288126 0.1288761 0.1289321 0.1289675
 0.1289419 0.1288216 0.1285963 0.1282646 0.1278176 0.1272478 0.1265761 0.1258674 0.1252154 0.124711
 0.1244192 0.1243734 0.1245773 0.1250006 0.1255758 0.1262105 0.126808 0.1272808 0.1275545 0.1275762
 0.1273335 0.1268604 0.1262192 0.1254728 0.1246721 0.1238552 0.1230525 0.1223047 0.1216905 0.1213324
 0.1213616 0.1218667 0.1228621 0.1242751 0.1259475 0.1276691 0.1292536 0.1306097 0.1317486 0.1327305
 0.1336103 0.1344225 0.1351895 0.1359238 0.1366237 0.1372819 0.1378984 0.1384793 0.1390228 0.1395131
 0.13993 0.1402605 0.1405028 0.1406679 0.1407739 0.1408362 0.140864 0.1408675 0.1408556 0.1408164
 0.1407091 0.1404848 0.1401198 0.1396342 0.1390969 0.1386288 0.1383952 0.1385646 0.1392356 0.1403733
 0.141815 0.1433493 0.1448029 0.1460709 0.1471068 0.1479134 0.1485383 0.1490489 0.1494983 0.1499134
 0.1503043 0.1506752 0.1510294 0.1513714 0.1517076 0.1520437 0.1523838 0.1527287 0.1530746 0.1534149
 0.1537463 0.1540732 0.1544044 0.1547464 0.1550963 0.1554424 0.155778 0.1561124 0.156459 0.1568146
 0.1571599 0.1574824 0.1577883 0.1580935 0.1584117 0.1587489 0.1590981 0.1594393 0.1597547 0.1600462
 0.1603293 0.1606144 0.1608996 0.1611805 0.1614578 0.161734 0.1620098 0.1622857 0.1625641 0.1628462
 0.1631282 0.1634016 0.1636606 0.1639075 0.1641506 0.164397 0.164649 0.164905 0.1651631 0.1654237
 0.1656889 0.1659582 0.1662251 0.1664815 0.1667265 0.1669671 0.1672107 0.1674599 0.1677123 0.1679645
 0.1682132 0.168458 0.1687026 0.1689522 0.1692082 0.1694662 0.1697205 0.1699687 0.1702129 0.170457
 0.170704 0.1709535 0.1712025 0.1714493 0.1716955 0.1719436 0.1721919 0.1724344 0.1726674 0.1728941
 0.1731218 0.1733553 0.1735943 0.1738359 0.1740787 0.1743225 0.1745654 0.1748042 0.1750394 0.1752749
 0.1755133 0.1757536 0.1759945 0.1762358 0.1764772 0.1767177 0.1769576 0.1771981 0.1774393 0.1776808
 0.1779207 0.1781563 0.1783873 0.1786169 0.178849 0.1790833 0.1793178 0.1795531 0.1797915 0.1800326
 0.1802726 0.1805068 0.180734 0.1809588 0.181187 0.181422 0.1816635 0.1819074 0.1821485 0.1823836
 0.1826149 0.1828459 0.1830778 0.1833106 0.1835449 0.1837806 0.184017 0.1842543 0.1844919 0.1847275
 0.1849597 0.1851901 0.1854212 0.1856549 0.1858927 0.1861338 0.1863754 0.1866168 0.1868593 0.1871013
 0.1873399 0.187578 0.1878215 0.1880715 0.1883235 0.1885738 0.1888219 0.1890691 0.1893172 0.1895662
 0.1898143 0.1900624 0.1903141 0.1905707 0.1908301 0.1910902 0.1913481 0.191599 0.1918414 0.1920781
 0.192311 0.1925382 0.1927592 0.1929758 0.1931907 0.1934092 0.1936365 0.1938713 0.1941083 0.1943461
 0.1945863 0.1948279 0.1950685 0.1953075 0.1955456 0.1957856 0.1960327 0.1962891 0.1965493 0.1968074
 0.1970618 0.197313 0.1975628 0.1978162 0.1980761 0.1983402 0.1986077 0.1988798 0.1991539 0.1994243
 0.1996897 0.1999512 0.200209 0.2004657 0.2007259 0.2009898 0.2012561 0.2015252 0.2017951 0.2020619
 0.2023299 0.202606 0.2028861 0.2031607 0.203428 0.2036903 0.2039477 0.2042057 0.2044732 0.2047514
 0.2050354 0.2053227 0.2056093 0.2058882 0.2061593 0.2064273 0.206692 0.2069539 0.20722 0.2074898
 0.2077528 0.2080072 0.2082608 0.2085105 0.2087358 0.2088861 0.2088302 0.2082942 0.2068243 0.2037938
 0.1985253 0.1905574 0.1799201 0.1672166 0.1534605 0.1397606 0.1270181 0.1158006 0.1064101 0.0990014
 0.09366661 0.09051024 0.0897094 0.09159568 0.09676386 0.1057173 0.1175733 0.1289484 0.1352273 0.1340572
 0.1274798 0.1200805 0.1152574 0.1135561 0.1138276 0.1149368 0.1164346 0.1184301 0.1211973 0.1247709
 0.1289076 0.1334833 0.1387228 0.1448538 0.1516633 0.1585765 0.1651407 0.1713161 0.1773043 0.1831924
 0.1888192 0.1939302 0.1983739 0.2021497 0.2053545 0.2081235 0.210581 0.2128105 0.2148656 0.216775
 0.2185071 0.2199518 0.2209828 0.22156 0.2217787 0.221825 0.2218702 0.2219953 0.2222051 0.2224857
 0.2228296 0.2232288 0.2236753 0.2241645 0.2246862 0.2252242 0.2257648 0.2262982 0.226815 0.227311
 0.2277873 0.228241 0.2286672 0.2290689 0.2294533 0.2298237 0.2301846 0.2305435 0.2309031 0.2312588
 0.2316073 0.2319461 0.2322704 0.2325777 0.2328697 0.2331471 0.2334106 0.2336675 0.2339272 0.2341914
 0.2344554 0.2347148 0.2349668 0.2352121 0.2354553 0.235698 0.2359361 0.2361678 0.2363982 0.2366312
 0.2368677 0.2371084 0.237353 0.2375973 0.2378375 0.2380745 0.238311 0.2385475 0.2387844 0.2390221
 0.2392628 0.2395125 0.2397754 0.2400464 0.2403165 0.2405829 0.2408474 0.2411105 0.2413743 0.2416439
 0.24192 0.2421969 0.242471 0.242743 0.2430114 0.2432693 0.2435108 0.2437365 0.2439553 0.2441779
 0.2444085 0.2446442 0.2448827 0.2451255 0.2453713 0.2456167 0.2458604 0.2461031 0.2463463 0.2465976
 0.2468687 0.2471597 0.2474554 0.2477433 0.2480258 0.2483113 0.248603 0.2488996 0.2491957 0.2494823
 0.2497543 0.2500188 0.2502937 0.2505962 0.2509288 0.2512738 0.2516084 0.2519248 0.2522322 0.2525437
 0.2528682 0.2532015 0.2535181 0.2537866 0.254012 0.254249 0.254553 0.254927 0.2553264 0.2557068
 0.2560547 0.2563804 0.2566953 0.2569984 0.257279 0.2575302 0.2577633 0.2580149 0.258325 0.2586967
 0.2590886 0.2594572 0.2597921 0.2601029 0.2603981 0.2606838 0.2609533 0.2611691 0.2613013 0.2614013
 0.2615937 0.2619598 0.2624477 0.2629267 0.2633176 0.2636412 0.2639513 0.2642646 0.2645684 0.2648332
 0.2649856 0.2649467 0.264776 0.2647198 0.2650113 0.2656363 0.2663639 0.2669805 0.2674312 0.2677701
 0.2680637 0.2683443 0.2685913 0.268735 0.2687312 0.2686658 0.2687414 0.2690957 0.2696469 0.270182
 0.2705792 0.2708773 0.2711602 0.2714607 0.271745 0.2718904 0.2717364 0.2713027 0.2709392 0.2710993
 0.2718987 0.2729836 0.2738848 0.2744364 0.2747789 0.2750315 0.2751172 0.2749086 0.2743883 0.2736537
 0.2729574 0.2727466 0.2733725 0.274638 0.275877 0.2766227 0.2770115 0.2774432 0.2780626 0.2786983
 0.2791384 0.2793184 0.2792901 0.2791024 0.2787752 0.2784333 0.2783869 0.2789149 0.2799408 0.2810494
 0.2818745 0.2823879 0.2827355 0.282814 0.2821576 0.2804914 0.2784582 0.2774585 0.2784068 0.2807707
 0.2831485 0.2846546 0.2854038 0.285858 0.2862238 0.2863935 0.2859302 0.2842082 0.2812631 0.2785388
 0.2780119 0.2802423 0.2837479 0.2864431 0.2872318 0.2862312 0.284245 0.2823924 0.2817089 0.2825816
 0.2845891 0.2869326 0.2889155 0.29013 0.2904827 0.2901576 0.2895442 0.2891345 0.2892108 0.2894248
 0.2890171 0.2878053 0.2865351 0.285732 0.2847378 0.282787 0.2807126 0.2804294 0.2825642 0.2855499
 0.2874441 0.2879194 0.2879092 0.2877271 0.2863035 0.2825929 0.2775074 0.2738909 0.2740856 0.2775942
 0.2815724 0.2836233 0.2836924 0.2832596 0.2832593 0.2830942 0.281529 0.2784402 0.2755083 0.2747163
 0.2761241 0.2777797 0.2778813 0.2760442 0.2723594 0.2669415 0.2614178 0.259236 0.2626221 0.2698109
 0.2766052 0.2799972 0.279108 0.2739434 0.2657096 0.2581218 0.2557337 0.2597392 0.2665799 0.2713881
 0.2718255 0.2681915 0.2614439 0.2527782 0.2446457 0.2404491 0.2423762 0.2496366 0.2586102 0.264414
 0.2633956 0.25606 0.247796 0.2448216 0.2483387 0.2537375 0.2560145 0.2544791 0.2517153 0.2500648
 0.2503339 0.2522244 0.2546707 0.2566831 0.2581091 0.2582358 0.2543937 0.244912 0.2335095 0.227313
 0.229506 0.2367779 0.2447362 0.252324 0.2593328 0.2632314 0.2618664 0.2577202 0.2563123 0.2603058
 0.2669749 0.2716835 0.2725889 0.2713884 0.2702422 0.2692041 0.2672888 0.2652453 0.265596 0.2694949
 0.27492 0.2788689 0.2803722 0.2804954 0.2803208 0.2800331 0.2794779 0.2786175 0.2774967 0.2762594
 0.2751318 0.2741774 0.2732491 0.2722718 0.2711796 0.2693095 0.2654499 0.2594168 0.253402 0.2504614
 0.2513086 0.2538702 0.2562714 0.2581922 0.2583682 0.253568 0.2428096 0.2311381 0.2261559 0.2306789
 0.2404975 0.2491081 0.252852 0.251371 0.2454129 0.2364861 0.2284043 0.2266141 0.2339948 0.2478503
 0.2623443 0.2734442 0.2804442 0.2836854 0.2830068 0.2789119 0.2738704 0.2713366 0.273376 0.2793094
 0.2862298 0.2903545 0.2886746 0.2814358 0.2737772 0.2726194 0.2797993 0.2896237 0.2951514 0.2954627
 0.2946292 0.2952587 0.2962659 0.2964529 0.2970183 0.2995447 0.3034046 0.3062846 0.3062615 0.3026137
 0.2958073 0.2880474 0.2829269 0.2825835 0.2853372 0.2876156 0.2876186 0.2853495 0.2803681 0.272764
 0.2659648 0.2648996 0.2703961 0.2779276 0.2827766 0.2844322 0.28512 0.2857969 0.2850186 0.2813455
 0.2758932 0.2718473 0.2713433 0.273453 0.2757134 0.2767929 0.2767021 0.2752533 0.2720659 0.268217
 0.2663905 0.268492 0.2736046 0.2788785 0.282147 0.2832486 0.2832008 0.2828887 0.2825911 0.2821407
 0.2813574 0.2806565 0.2810792 0.2831848 0.2860802 0.2882382 0.2892663 0.290227 0.2921399 0.2947316
 0.2968498 0.2977397 0.2977067 0.2977301 0.2985807 0.3001882 0.3017106 0.3022763 0.3018415 0.3013452
 0.301868 0.3036036 0.305781 0.3075471 0.308681 0.3094737 0.3102416 0.3110555 0.3117095 0.3118918
 0.3115978 0.3113818 0.3119468 0.3134143 0.315179 0.3165253 0.3172164 0.3174548 0.3174686 0.3172925
 0.3168876 0.3163282 0.3158084 0.3154917 0.3153962 0.3154274 0.315482 0.3155057 0.3154929 0.3154767
 0.3155088 0.315618 0.3157901 0.315996 0.3162153 0.3164213 0.3165803 0.3166888 0.3167805 0.3168725
 0.3169238 0.3168631 0.3166331 0.3161919 0.3154964 0.3145093 0.3132113 0.3115833 0.3095986 0.3073136
 0.305035 0.303365 0.3029536 0.304081 0.3064339 0.3092833 0.3119026 0.3138838 0.3151766 0.3159305
 0.3163261 0.3164952 0.3165142 0.3164211 0.3162356 0.3159758 0.3156621 0.3153115 0.3149407 0.3145754
 0.3142446 0.313961 0.313709 0.313451 0.3131447 0.3127628 0.3123021 0.3117751 0.3111923 0.3105443
 0.3098022 0.30894 0.3079672 0.306938 0.3059226 0.3049696 0.3040847 0.3032341 0.3023688 0.3014444
 0.3004109 0.2992055 0.2978126 0.2963533 0.2950539 0.2940662 0.2933308 0.2926427 0.2918275 0.2908314
 0.2896849 0.2884403 0.2871455 0.2858319 0.2845047 0.283144 0.2817166 0.2801899 0.2785492 0.2768062
 0.2749863 0.2731097 0.2711911 0.2692452 0.2672637 0.2651772 0.2628461 0.2601027 0.2568071 0.2528771
 0.2482981 0.2431325 0.2375273 0.2316946 0.2258647 0.220244 0.2150016 0.2102742 0.2061732 0.2027862
 0.2001793 0.1983979 0.1974669 0.1973905 0.1981532 0.1997181 0.2020171 0.2049364 0.2083149 0.2119604
 0.2156721 0.2192625 0.2225958 0.2256331 0.2284297 0.2310603 0.2335396 0.2358196 0.2378499 0.2396193
 0.2411418 0.2424287 0.2434895 0.2443486 0.2450486 0.2456349 0.2461403 0.2465792 0.2469487 0.2472391
 0.2474515 0.2476092 0.2477484 0.2479013 0.2480861 0.2483081 0.2485679 0.2488723 0.2492389 0.2496875
 0.2502257 0.2508434 0.2515196 0.2522358 0.2529882 0.2537912 0.2546732 0.2556697 0.2568144 0.2581264
 0.259599 0.261197 0.2628549 0.2644784 0.2659586 0.267202 0.2681562 0.2688144 0.2692007 0.2693487
 0.2692886 0.2690476 0.2686523 0.2681266 0.2674913 0.2667698 0.2659868 0.2651567 0.2642775 0.2633428
 0.2623594 0.261352 0.26035 0.2593705 0.2584156 0.2574848 0.2565806 0.2557031 0.2548478 0.2540126
 0.2532007 0.2524167 0.251668 0.2509631 0.250299 0.2496524 0.2489827 0.2482401 0.2473753 0.2463548
 0.2451704 0.2438295 0.2423418 0.2407197 0.2389832 0.2371545 0.2352461 0.2332557 0.2311777 0.2290153
 0.2267736 0.2244468 0.2220397 0.2196071 0.2172473 0.2150438 0.2130244 0.2111716 0.2094509 0.2078301
 0.2062896 0.2048182 0.2034033 0.2020349 0.200716 0.1994558 0.1982578 0.1971254 0.1960705 0.1951108
 0.1942648 0.1935438 0.1929385 0.1924226 0.1919755 0.1915946 0.1912906 0.191089 0.1910222 0.1910897
 0.1912303 0.191353 0.1913957 0.1913533 0.1912664 0.1911871 0.1911454 0.1911437 0.1911654 0.1911643
 0.1910529 0.1907263 0.1900947 0.1890928 0.1876856 0.1858938 0.1838024 0.1815477 0.1792975 0.1772167
 0.1754225 0.1739705 0.1728689 0.1720732 0.1714867 0.1710195 0.1706572 0.1704644 0.1705223 0.1708393
 0.1712844 0.171646 0.1718194 0.1719236 0.172195 0.1727848 0.1736711 0.174711 0.1757412 0.1766547
 0.177411 0.1779986 0.1784208 0.1787063 0.1788858 0.1789595 0.1789163 0.1787589 0.1784943 0.1781302
 0.1776847 0.1771645 0.1765494 0.1758292 0.1750225 0.1741384 0.1731628 0.1720818 0.1708708 0.1694977
 0.1680169 0.1666428 0.1656722 0.1653289 0.165654 0.1664914 0.1675931 0.1687773 0.1699529 0.1710133
 0.1718503 0.1725359 0.1733876 0.1747554 0.1767307 0.1790521 0.1812818 0.1830818 0.1843228 0.1849938
 0.1851209 0.1847639 0.1839611 0.1826853 0.1809457 0.1788713 0.1766224 0.1743241 0.1721148 0.1701235
 0.168404 0.1669791 0.1658592 0.1650331 0.1645507 0.1641395 0.1622443 0.1565601 0.1472998 0.1393259
 0.1384872 0.1453195 0.1543062 0.1598014 0.1608273 0.1597427 0.1585179 0.1575849 0.1568767 0.156469
 0.1564161 0.1566096 0.156827 0.1568399 0.1565543 0.1559887 0.1550189 0.1531456 0.1494901 0.1431123
 0.1337077 0.1222418 0.1107376 0.1012023 0.09464237 0.09085764 0.08887098 0.08760627 0.08650494 0.08571888
 0.08575175 0.08694661 0.08929894 0.09260172 0.09659077 0.1009147 0.105095 0.1086839 0.1114977 0.1136189
 0.1151716 0.1161904 0.116695 0.1167599 0.1164756 0.1159154 0.115142 0.1141863 0.1130264 0.1116415
 0.110109 0.1086363 0.107466 0.1067148 0.1063109 0.1061035 0.1060018 0.1059857 0.1060428 0.1061523
 0.1063006 0.1064825 0.106708 0.1070027 0.1073657 0.1077388 0.1080424 0.1082344 0.1083219 0.1083253
 0.1082307 0.1079937 0.107622 0.1072127 0.1068192 0.1063028 0.1054388 0.1042066 0.102911 0.1019879
 0.1017004 0.1019819 0.1025162 0.1029735 0.1032113 0.1032881 0.1033135 0.1032928 0.1031112 0.1026661
</values></Ydata></ScRf><Data_Parameters_AB><parameter name="DPF">1</parameter><parameter name="NPT">3497</parameter><parameter name="FXV">3996</parameter><parameter name="LXV">500</parameter><parameter name="CSF">1</parameter><parameter name="MXY">0.0202556233853102</parameter><parameter name="MNY">-0.11178269982338</parameter><parameter name="DAT">17/01/2024</parameter><parameter name="TIM">13:44:43.762 (GMT+1)</parameter><parameter name="DXU">WN</parameter></Data_Parameters_AB><AB__Qtest><MainReport name="Quality Test Report"><Header><Line><Legend>Test result ok/not ok [1/0]: </Legend><Value>0</Value></Line><Line><Legend>Method file: </Legend><Value>C:\Users\Public\Documents\Bruker\OPUS_8.2.28\QT\IRBT_v3_default.QT</Value></Line></Header><Matrix><Line><Legend></Legend><Legend>min</Legend><Legend>max</Legend><Legend>measured</Legend></Line><Line><Value>Absorption (X-Range 1):</Value><Value>0.400000</Value><Value>2.000000</Value><Value>0.092688</Value></Line><Line><Value>Noise (X-Range 4):</Value><Value></Value><Value>0.000300</Value><Value>0.000260</Value></Line><Line><Value>Signal/Noise (X-Range 2):</Value><Value>200.000000</Value><Value></Value><Value>6.767765</Value></Line><Line><Value>Signal/Noise (X-Range 3):</Value><Value>40.000000</Value><Value></Value><Value>1.284282</Value></Line><Line><Value>Water vapour (X-Range 5):</Value><Value></Value><Value>0.000300</Value><Value>0.000005</Value></Line><Line><Value>Signal/Water (X-Range 2):</Value><Value>100.000000</Value><Value></Value><Value>385.288163</Value></Line><Line><Value>Signal/Water (X-Range 3):</Value><Value>20.000000</Value><Value></Value><Value>73.114028</Value></Line><Line><Value>Fringes (X-Range 6):</Value><Value></Value><Value>0.000100</Value><Value>0.000172</Value></Line></Matrix></MainReport></AB__Qtest><Data_Parameters_ScSm><parameter name="DPF">1</parameter><parameter name="NPT">1814</parameter><parameter name="FXV">3996.63438082617</parameter><parameter name="LXV">499.579297603271</parameter><parameter name="CSF">1</parameter><parameter name="MXY">0.350676119327545</parameter><parameter name="MNY">0.0854824259877205</parameter><parameter name="DAT">17/01/2024</parameter><parameter name="TIM">13:44:43.762 (GMT+1)</parameter><parameter name="DXU">WN</parameter></Data_Parameters_ScSm><Data_Parameters_ScRf><parameter name="DPF">1</parameter><parameter name="NPT">1820</parameter><parameter name="FXV">4004.34989121387</parameter><parameter name="LXV">495.721542409425</parameter><parameter name="CSF">1</parameter><parameter name="MXY">0.317468583583832</parameter><parameter name="MNY">0.0680087804794312</parameter><parameter name="DAT">17/01/2024</parameter><parameter name="TIM">13:44:16.670 (GMT+1)</parameter><parameter name="DXU">WN</parameter></Data_Parameters_ScRf><Optic_Parameters_Rf><parameter name="APR">0</parameter><parameter name="APT">Open</parameter><parameter name="BMS">KBr</parameter><parameter name="DTC">RT-DLaTGS_IR-Biotyper [Microplate reader]</parameter><parameter name="HPF">0</parameter><parameter name="LPF">10.0</parameter><parameter name="LPV">4000</parameter><parameter name="PGR">0</parameter><parameter name="RCH">Module port</parameter><parameter name="RDX">0</parameter><parameter name="SRC">MIR</parameter><parameter name="VEL">10.0</parameter><parameter name="SON">Off</parameter></Optic_Parameters_Rf><Acquisition_Parameters_Rf><parameter name="ADT">1</parameter><parameter name="AQM">DD</parameter><parameter name="CFE">0</parameter><parameter name="COR">0</parameter><parameter name="DEL">0</parameter><parameter name="DLY">0</parameter><parameter name="HFW">8000</parameter><parameter name="LFW">0</parameter><parameter name="NSR">32</parameter><parameter name="PLF">AB</parameter><parameter name="RES">6</parameter><parameter name="RGN">-1</parameter><parameter name="STR">0</parameter><parameter name="TCL">MakeCompatibleScalar (0, {WSV=1.000000, ARV=0});</parameter><parameter name="TDL">37</parameter><parameter name="RPO">0</parameter></Acquisition_Parameters_Rf><FT_-_Parameters_Rf><parameter name="APF">B3</parameter><parameter name="HFQ">500</parameter><parameter name="LFQ">4000</parameter><parameter name="NLI">0</parameter><parameter name="PHR">24</parameter><parameter name="PHZ">ML</parameter><parameter name="SPZ">NO</parameter><parameter name="ZFF">1</parameter></FT_-_Parameters_Rf><Optic_Parameters_><parameter name="APR">0</parameter><parameter name="APT">Open</parameter><parameter name="BMS">KBr</parameter><parameter name="CHN">Module port</parameter><parameter name="DTC">RT-DLaTGS_IR-Biotyper [Microplate reader]</parameter><parameter name="HPF">0</parameter><parameter name="LPF">10.0</parameter><parameter name="LPV">4000</parameter><parameter name="PGN">0</parameter><parameter name="RDX">0</parameter><parameter name="SRC">MIR</parameter><parameter name="VEL">10.0</parameter><parameter name="SON">Off</parameter></Optic_Parameters_><FT_-_Parameters_><parameter name="APF">B3</parameter><parameter name="HFQ">500</parameter><parameter name="LFQ">4000</parameter><parameter name="NLI">0</parameter><parameter name="PHR">24</parameter><parameter name="PHZ">ML</parameter><parameter name="SPZ">NO</parameter><parameter name="ZFF">1</parameter></FT_-_Parameters_><Acquisition_Parameters_><parameter name="ADT">1</parameter><parameter name="AQM">DD</parameter><parameter name="CFE">0</parameter><parameter name="COR">0</parameter><parameter name="DEL">0</parameter><parameter name="DLY">0</parameter><parameter name="HFW">8000</parameter><parameter name="LFW">0</parameter><parameter name="NSS">32</parameter><parameter name="PLF">AB</parameter><parameter name="RES">6</parameter><parameter name="SOT">0</parameter><parameter name="TCL">MakeCompatibleScalar (0, {WSV=1.000000, ARV=0});</parameter><parameter name="TDL">37</parameter><parameter name="SPO">0</parameter><parameter name="SGN">-1</parameter></Acquisition_Parameters_><Instrument_Parameters_Rf><parameter name="HFL">15801.365274</parameter><parameter name="LFL">0</parameter><parameter name="LWN">15801.365274</parameter><parameter name="ABP">32157</parameter><parameter name="SSP">1</parameter><parameter name="ARG">2</parameter><parameter name="ASG">2</parameter><parameter name="ASS">32</parameter><parameter name="GFW">16</parameter><parameter name="GBW">16</parameter><parameter name="BFW">0</parameter><parameter name="BBW">0</parameter><parameter name="PKA">9109</parameter><parameter name="PKL">4987</parameter><parameter name="PRA">9125</parameter><parameter name="PRL">5010</parameter><parameter name="P2A">1</parameter><parameter name="P2L">1</parameter><parameter name="P2R">1</parameter><parameter name="P2K">1</parameter><parameter name="DAQ">0</parameter><parameter name="AG2">1</parameter><parameter name="SSM">1</parameter><parameter name="RSN">46392</parameter><parameter name="CRR">0</parameter><parameter name="SRT">1705499056.67</parameter><parameter name="DUR">19.6439971923828</parameter><parameter name="TSC">30.9</parameter><parameter name="MVD">0.328224807977676</parameter><parameter name="AN1">0.226008947613552</parameter><parameter name="AN2">0</parameter><parameter name="VSN">2.485 Apr  4 2017</parameter><parameter name="SRN">0085</parameter><parameter name="CAM">0</parameter><parameter name="INS">IR-Biotyper</parameter><parameter name="FOC">69</parameter><parameter name="RDY">1</parameter><parameter name="ARS">32</parameter></Instrument_Parameters_Rf><Sample_Parameters_><parameter name="BLD"></parameter><parameter name="CNM">Admin</parameter><parameter name="CPY"></parameter><parameter name="DPM"></parameter><parameter name="EXP">IRBT_v3_32Scans.XPM</parameter><parameter name="LCT"></parameter><parameter name="SFM">Microplate, HTS-XT</parameter><parameter name="SNM">240117-1222-Cdiff_SCFA_1_C11_232109641_C11_d75e986e-43b8-4743-ba7a-b279953db506.0</parameter><parameter name="XPP">C:\Users\Public\Documents\Bruker\OPUS_8.2.28\XPM</parameter><parameter name="IST">OK</parameter><parameter name="CPG">1252</parameter><parameter name="UID">4b7eb580-cdfd-4571-b263-c7c2856e05cf</parameter></Sample_Parameters_><Instrument_Parameters_><parameter name="HFL">15801.365274</parameter><parameter name="LFL">0</parameter><parameter name="LWN">15801.365274</parameter><parameter name="ABP">32157</parameter><parameter name="SSP">1</parameter><parameter name="ASG">2</parameter><parameter name="ARG">2</parameter><parameter name="ASS">32</parameter><parameter name="GFW">16</parameter><parameter name="GBW">16</parameter><parameter name="BFW">0</parameter><parameter name="BBW">0</parameter><parameter name="PKA">10423</parameter><parameter name="PKL">4987</parameter><parameter name="PRA">10570</parameter><parameter name="PRL">5010</parameter><parameter name="P2A">1</parameter><parameter name="P2L">1</parameter><parameter name="P2R">1</parameter><parameter name="P2K">1</parameter><parameter name="DAQ">0</parameter><parameter name="AG2">1</parameter><parameter name="SSM">1</parameter><parameter name="RSN">23889</parameter><parameter name="CRR">0</parameter><parameter name="SRT">1705499083.762</parameter><parameter name="DUR">19.6449890136719</parameter><parameter name="TSC">30.9</parameter><parameter name="MVD">0.288415163755417</parameter><parameter name="AN1">0.225978187217154</parameter><parameter name="AN2">0</parameter><parameter name="VSN">2.485 Apr  4 2017</parameter><parameter name="SRN">0085</parameter><parameter name="CAM">0</parameter><parameter name="INS">IR-Biotyper</parameter><parameter name="FOC">69</parameter><parameter name="RDY">1</parameter></Instrument_Parameters_><History/></OPUSDataFile>
