<?xml version="1.0" encoding="UTF-8" ?>
<OPUSDataFile><AB><Ydata ylabel="Absorbance Units"><values byteorder="INTEL" format="FLOAT32" numvalues="3497"> -0.1045193 -0.1045074 -0.1044997 -0.1044952 -0.1044918 -0.1044885 -0.1044815 -0.1044713 -0.1044571 -0.1044403
 -0.1044229 -0.104404 -0.1043843 -0.1043616 -0.1043342 -0.1043033 -0.1042681 -0.1042344 -0.1042034 -0.1041796
 -0.1041643 -0.1041561 -0.1041554 -0.1041571 -0.1041609 -0.1041628 -0.1041627 -0.1041596 -0.1041536 -0.1041442
 -0.1041313 -0.1041133 -0.1040905 -0.1040622 -0.1040301 -0.1039963 -0.1039637 -0.1039366 -0.1039159 -0.1039046
 -0.103899 -0.103899 -0.1038981 -0.1038942 -0.1038831 -0.1038629 -0.1038365 -0.1038036 -0.1037728 -0.103745
 -0.1037245 -0.1037116 -0.103701 -0.1036923 -0.1036779 -0.1036587 -0.1036358 -0.1036115 -0.1035942 -0.1035835
 -0.1035838 -0.1035912 -0.1036018 -0.1036125 -0.1036173 -0.1036172 -0.1036105 -0.1036 -0.1035871 -0.1035725
 -0.103557 -0.1035392 -0.1035188 -0.1034952 -0.1034681 -0.1034399 -0.103411 -0.1033848 -0.1033616 -0.103342
 -0.1033259 -0.1033109 -0.1032973 -0.1032855 -0.1032763 -0.1032736 -0.1032771 -0.103289 -0.1033059 -0.103324
 -0.1033391 -0.1033444 -0.1033392 -0.1033195 -0.1032907 -0.1032536 -0.1032151 -0.1031784 -0.1031457 -0.1031186
 -0.1030942 -0.1030722 -0.1030499 -0.103027 -0.1030064 -0.1029883 -0.1029782 -0.1029758 -0.1029806 -0.1029913
 -0.1029997 -0.1030046 -0.1029972 -0.1029785 -0.102946 -0.1029037 -0.1028564 -0.1028088 -0.1027685 -0.102736
 -0.1027153 -0.1027012 -0.1026922 -0.1026837 -0.102673 -0.102662 -0.1026507 -0.1026412 -0.1026348 -0.1026253
 -0.1026123 -0.1025911 -0.1025614 -0.1025347 -0.102512 -0.1025114 -0.1025313 -0.1025725 -0.102628 -0.1026742
 -0.1027056 -0.102693 -0.1026458 -0.1025626 -0.1024625 -0.1023693 -0.102289 -0.1022368 -0.1022048 -0.1021929
 -0.1021926 -0.102201 -0.1022122 -0.102225 -0.1022312 -0.1022295 -0.1022119 -0.1021767 -0.1021288 -0.1020683
 -0.1020115 -0.1019587 -0.101918 -0.101888 -0.1018623 -0.1018398 -0.1018125 -0.1017818 -0.1017467 -0.1017096
 -0.1016739 -0.1016411 -0.1016143 -0.1015938 -0.1015816 -0.1015739 -0.1015702 -0.1015632 -0.1015489 -0.101527
 -0.1014949 -0.1014641 -0.1014361 -0.1014209 -0.1014206 -0.1014293 -0.1014469 -0.1014586 -0.1014641 -0.1014567
 -0.1014376 -0.101412 -0.1013803 -0.1013468 -0.1013104 -0.101269 -0.1012231 -0.1011715 -0.1011174 -0.1010637
 -0.1010127 -0.1009678 -0.1009295 -0.1008994 -0.1008767 -0.1008621 -0.100852 -0.1008462 -0.1008378 -0.1008256
 -0.1008047 -0.100774 -0.1007354 -0.1006891 -0.1006423 -0.1005955 -0.1005558 -0.100523 -0.100499 -0.1004822
 -0.1004681 -0.1004554 -0.1004374 -0.1004157 -0.1003889 -0.1003608 -0.1003365 -0.1003164 -0.1003043 -0.1002941
 -0.1002836 -0.1002663 -0.1002379 -0.100201 -0.1001538 -0.1001088 -0.1000676 -0.1000415 -0.1000328 -0.1000383
 -0.1000584 -0.1000743 -0.1000853 -0.1000739 -0.1000416 -0.0999903 -0.09992293 -0.0998537 -0.09978174 -0.09971168
 -0.09964188 -0.09956913 -0.0994989 -0.09943596 -0.09938688 -0.09936178 -0.099355 -0.09936952 -0.09938665 -0.09939991
 -0.09939441 -0.09936193 -0.09930965 -0.09923557 -0.09916164 -0.09909034 -0.09903456 -0.09899561 -0.09896829 -0.09895197
 -0.09893406 -0.09891447 -0.09888614 -0.09885062 -0.09881041 -0.09876712 -0.09872665 -0.09868877 -0.09865683 -0.09862752
 -0.09859902 -0.09856541 -0.09852035 -0.09846178 -0.09838384 -0.09829661 -0.09820165 -0.09811229 -0.09803417 -0.09796739
 -0.09791428 -0.097863 -0.09781236 -0.09775431 -0.097688 -0.09761678 -0.09754105 -0.09746882 -0.09740012 -0.09733945
 -0.09728537 -0.09723506 -0.09718527 -0.09712555 -0.09705408 -0.09696017 -0.09684995 -0.0967247 -0.09659686 -0.09647891
 -0.0963765 -0.09629911 -0.09623957 -0.09619892 -0.09616282 -0.09612812 -0.09608108 -0.09601805 -0.09593432 -0.09582803
 -0.09570673 -0.09557074 -0.0954294 -0.09528289 -0.09513215 -0.09497692 -0.09481497 -0.09464724 -0.09447651 -0.09430413
 -0.09413537 -0.0939709 -0.09381448 -0.09366632 -0.09352868 -0.09340011 -0.09328108 -0.09316693 -0.09305514 -0.09294149
 -0.09282354 -0.09269899 -0.09256754 -0.09242371 -0.09226669 -0.09209035 -0.09189272 -0.09168152 -0.09145671 -0.09123807
 -0.09102623 -0.09083081 -0.09065039 -0.09047731 -0.09031013 -0.09013762 -0.08996106 -0.08977778 -0.08959088 -0.08940582
 -0.08922327 -0.08904844 -0.088875 -0.08870041 -0.08851444 -0.08830769 -0.08808114 -0.08782882 -0.08757056 -0.08731066
 -0.08706612 -0.08684322 -0.08663737 -0.08644987 -0.08626389 -0.08607817 -0.08588334 -0.08567931 -0.08547106 -0.08525921
 -0.08505172 -0.08484731 -0.08464451 -0.08444083 -0.08422733 -0.08400439 -0.08376681 -0.0835204 -0.08327062 -0.08302333
 -0.08278751 -0.08256195 -0.08234993 -0.0821443 -0.08194268 -0.08173944 -0.08153176 -0.0813195 -0.08110169 -0.0808823
 -0.08066168 -0.08044358 -0.08022848 -0.08001458 -0.07980163 -0.07958215 -0.07935602 -0.07911849 -0.07887101 -0.07861804
 -0.07836122 -0.07810845 -0.07785895 -0.07761519 -0.07737498 -0.07713595 -0.07689715 -0.07665644 -0.07641461 -0.07617121
 -0.07592843 -0.0756871 -0.07544904 -0.07521567 -0.07498465 -0.07475652 -0.07452419 -0.0742868 -0.07403907 -0.07378019
 -0.07351386 -0.07324038 -0.07296931 -0.07270098 -0.07244257 -0.07219349 -0.07195487 -0.07172532 -0.07150144 -0.07128176
 -0.0710616 -0.07084023 -0.07061464 -0.07038467 -0.07014941 -0.06990799 -0.06965952 -0.06940339 -0.06913853 -0.06886676
 -0.0685877 -0.06830633 -0.0680233 -0.06774436 -0.06747045 -0.06720444 -0.0669468 -0.0666958 -0.06645132 -0.06620895
 -0.06596859 -0.06572721 -0.06548522 -0.06524297 -0.06500097 -0.06476115 -0.06452346 -0.06428886 -0.0640567 -0.0638266
 -0.0635975 -0.06336832 -0.06313796 -0.06290531 -0.06266978 -0.06243062 -0.06218842 -0.06194299 -0.06169619 -0.06144824
 -0.06120149 -0.0609563 -0.0607142 -0.06047546 -0.06023926 -0.06000552 -0.0597714 -0.05953683 -0.05930001 -0.05906155
 -0.0588236 -0.05858708 -0.05835642 -0.05813137 -0.05791397 -0.05770243 -0.05749487 -0.05729008 -0.05708548 -0.05688236
 -0.05668065 -0.05648216 -0.05628819 -0.05609812 -0.05591229 -0.05572867 -0.05554684 -0.05536576 -0.05518537 -0.05500407
 -0.05482183 -0.05463562 -0.05444532 -0.05425125 -0.05405395 -0.05385968 -0.05366872 -0.05348662 -0.05331166 -0.05314139
 -0.05297333 -0.05279996 -0.0526219 -0.05243582 -0.05224606 -0.05205588 -0.05186919 -0.05169079 -0.05151981 -0.05135759
 -0.0512005 -0.0510473 -0.05089664 -0.05074779 -0.05060159 -0.05045837 -0.05031637 -0.05017562 -0.05003202 -0.04988537
 -0.04973648 -0.04958584 -0.04943991 -0.04929866 -0.04916562 -0.04903939 -0.04891687 -0.04879707 -0.04867595 -0.04855387
 -0.04842992 -0.04830379 -0.04817506 -0.04804267 -0.04790504 -0.04776384 -0.04761876 -0.04747443 -0.0473325 -0.04719577
 -0.04706562 -0.04694086 -0.04682156 -0.04670576 -0.04659317 -0.04648431 -0.04637919 -0.04628003 -0.04618681 -0.0461001
 -0.04601935 -0.04594196 -0.04586705 -0.04579012 -0.04571073 -0.04562523 -0.04553463 -0.04543847 -0.04533913 -0.0452388
 -0.04514018 -0.04504622 -0.04495809 -0.04487748 -0.04480363 -0.04473699 -0.04467515 -0.04461796 -0.04456164 -0.04450568
 -0.04444675 -0.04438427 -0.04431945 -0.04425234 -0.04418854 -0.04412809 -0.04407322 -0.04402276 -0.04397046 -0.0439157
 -0.0438517 -0.04378133 -0.04370751 -0.04363431 -0.04357079 -0.04351653 -0.04347598 -0.04344334 -0.04341571 -0.04338781
 -0.04335527 -0.04331797 -0.04327429 -0.04322773 -0.04317893 -0.04313023 -0.04308252 -0.04303388 -0.04298441 -0.04292944
 -0.04286867 -0.04280109 -0.04272727 -0.04265518 -0.04258597 -0.0425316 -0.04249129 -0.04246964 -0.04246257 -0.04246267
 -0.04246584 -0.04246061 -0.04244814 -0.04242391 -0.04239429 -0.04236332 -0.04233458 -0.04231299 -0.04229324 -0.04227512
 -0.04225076 -0.04221688 -0.04217491 -0.04212354 -0.04207307 -0.04202456 -0.04198416 -0.04195239 -0.04192268 -0.04189437
 -0.04185568 -0.04180697 -0.04174402 -0.04166938 -0.04159029 -0.04150931 -0.04143731 -0.04137336 -0.04132211 -0.04127818
 -0.04123758 -0.04119401 -0.04114009 -0.04107488 -0.04099433 -0.04090479 -0.0408071 -0.04070938 -0.04061425 -0.04052513
 -0.04044353 -0.04036704 -0.04029578 -0.0402247 -0.04015353 -0.04007783 -0.03999749 -0.03991024 -0.03981604 -0.03971359
 -0.03960267 -0.03948152 -0.03935026 -0.03920697 -0.03905499 -0.03889729 -0.03874225 -0.0386004 -0.03848046 -0.03839539
 -0.038343 -0.03832955 -0.03833673 -0.03836061 -0.03837928 -0.03838475 -0.03837041 -0.03833171 -0.03828256 -0.03822318
 -0.03817454 -0.03813804 -0.03812569 -0.03813748 -0.03817273 -0.03823046 -0.03830342 -0.03839111 -0.0384876 -0.03859327
 -0.03870622 -0.0388269 -0.03895568 -0.03909175 -0.03923473 -0.03938246 -0.03953284 -0.03968476 -0.0398359 -0.03998986
 -0.04014655 -0.0403132 -0.04049201 -0.04068676 -0.04089948 -0.04112498 -0.04136341 -0.04160463 -0.04184796 -0.04208665
 -0.04232061 -0.04254944 -0.04277337 -0.04299378 -0.04321072 -0.04342498 -0.04363676 -0.0438473 -0.0440559 -0.04426273
 -0.04446455 -0.04465744 -0.04483843 -0.04500195 -0.04515178 -0.04528682 -0.04541731 -0.04554732 -0.04568351 -0.04583003
 -0.04598251 -0.04614178 -0.04629695 -0.04644696 -0.04658276 -0.04670354 -0.04680658 -0.04689213 -0.04696606 -0.04702973
 -0.04709632 -0.04716653 -0.04725155 -0.04734884 -0.04745801 -0.04757439 -0.04768855 -0.04779862 -0.04789712 -0.04798711
 -0.04806844 -0.04814516 -0.04822033 -0.04829457 -0.04836936 -0.04844239 -0.04851321 -0.04858043 -0.04864333 -0.04870386
 -0.04876204 -0.048821 -0.04888103 -0.04894283 -0.04900634 -0.04906913 -0.04913108 -0.04919006 -0.04924641 -0.04930068
 -0.04935311 -0.04940482 -0.04945556 -0.04950504 -0.04955389 -0.04960221 -0.04965242 -0.04970682 -0.04976702 -0.04983548
 -0.04991014 -0.04999149 -0.05007422 -0.05015704 -0.05023528 -0.05030757 -0.0503726 -0.05042965 -0.05048221 -0.05053033
 -0.05058073 -0.05063376 -0.05069585 -0.05076665 -0.05084658 -0.05093412 -0.05102273 -0.0511111 -0.05119139 -0.05126461
 -0.05132848 -0.05138591 -0.05144015 -0.0514929 -0.05154741 -0.05160281 -0.05165934 -0.05171645 -0.05177329 -0.05183237
 -0.05189426 -0.05196105 -0.05203405 -0.05210923 -0.0521868 -0.05225766 -0.05232109 -0.05237137 -0.05240846 -0.05243579
 -0.05245436 -0.05247415 -0.05249583 -0.05252809 -0.05257017 -0.05262499 -0.05269013 -0.05276283 -0.05283946 -0.052914
 -0.05298364 -0.05304262 -0.05309244 -0.05313098 -0.0531651 -0.05319712 -0.05323332 -0.05327706 -0.05332728 -0.05338514
 -0.05344363 -0.05350199 -0.05355494 -0.05360188 -0.05364273 -0.05367749 -0.0537071 -0.0537314 -0.05374916 -0.05376013
 -0.05376212 -0.05375574 -0.05374097 -0.05372017 -0.05369742 -0.05367656 -0.05366494 -0.05366449 -0.05368132 -0.05371096
 -0.05375379 -0.05380027 -0.05384576 -0.05388501 -0.05391404 -0.05393717 -0.05395431 -0.05397185 -0.05399131 -0.05401073
 -0.05403034 -0.05404224 -0.05404615 -0.05403979 -0.0540239 -0.05400509 -0.05398385 -0.05396662 -0.05395195 -0.0539389
 -0.05392531 -0.0539058 -0.05388027 -0.05384541 -0.05380445 -0.05375868 -0.05371317 -0.05367152 -0.05363803 -0.05361605
 -0.05360625 -0.05361007 -0.05362464 -0.05364966 -0.05368232 -0.05372203 -0.05376857 -0.05382194 -0.05388128 -0.05394648
 -0.05401218 -0.05407785 -0.05413555 -0.05418566 -0.05422521 -0.05425645 -0.05428474 -0.05431249 -0.05434825 -0.05439122
 -0.05444483 -0.05450483 -0.05456788 -0.0546313 -0.0546908 -0.05474976 -0.05480796 -0.05487156 -0.05494333 -0.05502385
 -0.05511459 -0.05520999 -0.05530973 -0.05540732 -0.05550216 -0.0555902 -0.05567123 -0.05574371 -0.05580803 -0.05586751
 -0.05592335 -0.05598401 -0.05604956 -0.05612578 -0.05620952 -0.056297 -0.0563846 -0.05646385 -0.05653648 -0.05659977
 -0.0566603 -0.05672234 -0.05678952 -0.05686604 -0.05694835 -0.05703657 -0.05712537 -0.05721309 -0.05729895 -0.0573824
 -0.05746527 -0.05754787 -0.05762827 -0.05770634 -0.05777587 -0.05783675 -0.05788526 -0.05792251 -0.05795219 -0.05797623
 -0.05800338 -0.05803395 -0.05807376 -0.05812027 -0.05817261 -0.05822709 -0.05827923 -0.05832712 -0.05836783 -0.05840107
 -0.05842621 -0.05844245 -0.05844975 -0.05844602 -0.05843082 -0.0584024 -0.05836031 -0.05830472 -0.05823544 -0.05815508
 -0.05806378 -0.05796725 -0.05786583 -0.05776597 -0.05766715 -0.05757047 -0.05747367 -0.05736974 -0.05725656 -0.05712479
 -0.05697607 -0.05680769 -0.05662521 -0.05643338 -0.05623761 -0.05604402 -0.05585387 -0.05566978 -0.05549008 -0.05531475
 -0.05514228 -0.05497211 -0.05480435 -0.05463879 -0.05447682 -0.05431841 -0.05416659 -0.0540215 -0.05388885 -0.05376908
 -0.05366962 -0.05359078 -0.05353848 -0.05351206 -0.05351272 -0.05353899 -0.05358809 -0.05365869 -0.0537475 -0.05385347
 -0.05397476 -0.05410898 -0.05425505 -0.05440677 -0.05456184 -0.05471126 -0.05485132 -0.05497586 -0.05508182 -0.05517101
 -0.05524269 -0.05530389 -0.05535521 -0.05540188 -0.05544423 -0.05548349 -0.05551973 -0.05555417 -0.0555873 -0.05562275
 -0.05566103 -0.05570572 -0.05575721 -0.05581759 -0.05588843 -0.05597294 -0.05607323 -0.05619371 -0.05633338 -0.05649409
 -0.05667038 -0.05686002 -0.05705801 -0.05726084 -0.05747071 -0.05768628 -0.05791686 -0.05816352 -0.05843491 -0.05873248
 -0.05905572 -0.05940477 -0.05976705 -0.06014149 -0.06051015 -0.06087247 -0.0612155 -0.06154023 -0.06184323 -0.06212618
 -0.06239143 -0.06264021 -0.06287554 -0.0630984 -0.06331099 -0.06351424 -0.06370959 -0.06389753 -0.0640787 -0.0642533
 -0.06442166 -0.06458341 -0.06473882 -0.06488568 -0.06502384 -0.06515013 -0.06526415 -0.06536466 -0.06545153 -0.06552591
 -0.06558782 -0.06563769 -0.06567518 -0.06569804 -0.0657065 -0.06569918 -0.06567902 -0.06565128 -0.06562188 -0.06560274
 -0.06559986 -0.06562582 -0.06568182 -0.06577443 -0.0658983 -0.06605334 -0.06623045 -0.06642669 -0.06663319 -0.06684757
 -0.06706179 -0.0672745 -0.0674779 -0.06767107 -0.06784842 -0.06800953 -0.06815304 -0.06827915 -0.06839106 -0.06848974
 -0.0685828 -0.06867228 -0.06876998 -0.0688779 -0.06900771 -0.06915879 -0.06933653 -0.06953627 -0.06975576 -0.069987
 -0.07022356 -0.0704563 -0.07067857 -0.07088345 -0.07106584 -0.07122592 -0.07136141 -0.07148103 -0.07158533 -0.07168565
 -0.0717835 -0.07188427 -0.07198854 -0.07209302 -0.07219737 -0.07229494 -0.07238578 -0.07246692 -0.07253946 -0.07260619
 -0.07266834 -0.07273077 -0.07279343 -0.07285864 -0.07292536 -0.07299303 -0.07306121 -0.07312904 -0.07319725 -0.07326608
 -0.07333592 -0.07340704 -0.07347931 -0.07355276 -0.07362719 -0.07370255 -0.07377868 -0.07385564 -0.07393221 -0.07400834
 -0.07408185 -0.07415268 -0.07421986 -0.07428374 -0.07434636 -0.0744081 -0.07447204 -0.0745377 -0.07460573 -0.07467461
 -0.07474153 -0.07480612 -0.07486604 -0.07492346 -0.07497922 -0.07503612 -0.07509691 -0.07516048 -0.07522778 -0.07529431
 -0.07535884 -0.07541876 -0.07547275 -0.07552395 -0.07557238 -0.07562306 -0.0756764 -0.07573386 -0.07579535 -0.075858
 -0.0759216 -0.07598279 -0.07604188 -0.07609823 -0.07615224 -0.07620473 -0.0762556 -0.07630511 -0.07635288 -0.0763984
 -0.07644168 -0.07648262 -0.07652112 -0.07655741 -0.07659026 -0.07661919 -0.07664338 -0.07666185 -0.07667761 -0.07669053
 -0.0767066 -0.07672655 -0.07675444 -0.07679076 -0.07683329 -0.07688175 -0.0769302 -0.07697841 -0.07702177 -0.07706064
 -0.07709409 -0.07712267 -0.07714744 -0.07716884 -0.07718791 -0.07720563 -0.07722336 -0.07724293 -0.07726654 -0.07729523
 -0.07733107 -0.07737156 -0.07741693 -0.07746159 -0.07750396 -0.07753993 -0.0775679 -0.07758903 -0.07760286 -0.07761476
 -0.07762501 -0.07763901 -0.07765699 -0.07768176 -0.07771321 -0.07775177 -0.07779699 -0.07784744 -0.07790211 -0.07795742
 -0.07801239 -0.07806305 -0.07810979 -0.07815096 -0.07818899 -0.07822566 -0.07826273 -0.07830263 -0.07834333 -0.07838484
 -0.07842397 -0.07845914 -0.07849139 -0.0785201 -0.0785502 -0.07858241 -0.07861855 -0.07865902 -0.07869944 -0.07873957
 -0.07877385 -0.07880244 -0.0788245 -0.07884074 -0.07885414 -0.07886517 -0.07887682 -0.07888902 -0.07890311 -0.07891852
 -0.07893508 -0.07895225 -0.07896929 -0.07898634 -0.07900299 -0.07902043 -0.07903913 -0.0790599 -0.07908348 -0.07910836
 -0.0791346 -0.07915924 -0.07918186 -0.07920095 -0.07921629 -0.07922878 -0.07923849 -0.07924617 -0.07925168 -0.07925366
 -0.07925204 -0.07924534 -0.07923437 -0.07922065 -0.07920546 -0.07919232 -0.07918163 -0.0791758 -0.07917376 -0.07917552
 -0.07917941 -0.07918431 -0.07918894 -0.07919239 -0.07919415 -0.07919373 -0.07919165 -0.07918786 -0.07918344 -0.07917856
 -0.07917387 -0.07916947 -0.07916548 -0.07916193 -0.07915869 -0.07915577 -0.07915296 -0.07915009 -0.07914598 -0.07914066
 -0.07913331 -0.07912485 -0.07911658 -0.07911012 -0.07910874 -0.07911271 -0.0791242 -0.07914064 -0.07916121 -0.07918258
 -0.07920267 -0.0792205 -0.07923483 -0.07924767 -0.07925921 -0.07927124 -0.07928418 -0.079298 -0.07931277 -0.079328
 -0.07934368 -0.07936009 -0.07937721 -0.07939497 -0.07941313 -0.07943047 -0.07944694 -0.07946154 -0.07947498 -0.07948807
 -0.07950203 -0.0795191 -0.07953996 -0.07956664 -0.07959787 -0.0796339 -0.07967171 -0.07971013 -0.0797461 -0.07977793
 -0.07980564 -0.07982852 -0.0798495 -0.07986886 -0.07988932 -0.07991128 -0.07993389 -0.07995707 -0.07997743 -0.07999495
 -0.0800078 -0.08001658 -0.08002356 -0.08002969 -0.08003971 -0.08005344 -0.08007339 -0.08009732 -0.08012323 -0.08014837
 -0.08016867 -0.08018359 -0.08019078 -0.08019273 -0.08018962 -0.08018544 -0.08018148 -0.08018091 -0.08018484 -0.08019432
 -0.08020996 -0.08022967 -0.0802535 -0.08027641 -0.08029816 -0.08031389 -0.08032367 -0.08032656 -0.08032331 -0.08031766
 -0.08031029 -0.08030579 -0.08030365 -0.08030524 -0.08030894 -0.08031272 -0.08031555 -0.08031515 -0.08031209 -0.0803059
 -0.08029789 -0.08028849 -0.08027909 -0.08026994 -0.08026328 -0.08025953 -0.08026103 -0.08026839 -0.08028141 -0.08030035
 -0.08032142 -0.08034443 -0.08036514 -0.08038352 -0.08039824 -0.0804096 -0.08041862 -0.08042567 -0.08043241 -0.08043941
 -0.08044873 -0.08046102 -0.08047841 -0.08050068 -0.08052879 -0.08056086 -0.08059609 -0.08063181 -0.08066642 -0.08069811
 -0.08072564 -0.08074915 -0.08076821 -0.08078469 -0.08079863 -0.08081269 -0.08082704 -0.08084437 -0.08086481 -0.08089022
 -0.08092059 -0.08095631 -0.08099701 -0.08104094 -0.0810874 -0.08113294 -0.081177 -0.0812164 -0.08125135 -0.0812806
 -0.08130505 -0.08132523 -0.08134184 -0.08135553 -0.08136688 -0.08137617 -0.08138464 -0.08139253 -0.08140175 -0.08141279
 -0.08142705 -0.08144501 -0.08146603 -0.08149015 -0.08151589 -0.08154316 -0.08156995 -0.08159608 -0.08161815 -0.081636
 -0.08164629 -0.08164974 -0.08164675 -0.08163925 -0.08163218 -0.08162675 -0.08162778 -0.08163395 -0.08164605 -0.08166129
 -0.08167744 -0.08169314 -0.08170667 -0.08171885 -0.08172957 -0.08173996 -0.08175043 -0.08176106 -0.08177201 -0.08178258
 -0.08179271 -0.08180214 -0.08181085 -0.08181908 -0.08182684 -0.0818342 -0.08184109 -0.08184718 -0.08185264 -0.08185787
 -0.08186328 -0.08187024 -0.08187855 -0.08188889 -0.0819 -0.08191059 -0.08191977 -0.08192609 -0.0819302 -0.08193197
 -0.0819324 -0.08193197 -0.08193077 -0.08192889 -0.08192649 -0.0819235 -0.08192108 -0.08191935 -0.08191915 -0.08192056
 -0.08192262 -0.08192525 -0.08192675 -0.08192725 -0.08192659 -0.08192525 -0.08192499 -0.08192599 -0.08192988 -0.08193595
 -0.08194399 -0.08195253 -0.08195972 -0.08196449 -0.08196496 -0.08196177 -0.0819544 -0.0819449 -0.08193371 -0.08192326
 -0.08191431 -0.08190835 -0.08190593 -0.08190659 -0.08191052 -0.08191487 -0.08191948 -0.08192062 -0.0819182 -0.0819109
 -0.08189916 -0.08188535 -0.08187018 -0.08185785 -0.08184846 -0.08184459 -0.08184554 -0.08185136 -0.08186128 -0.08187427
 -0.08189016 -0.08190844 -0.08192904 -0.08195188 -0.08197654 -0.08200271 -0.08203061 -0.08205982 -0.08209285 -0.08212993
 -0.08217415 -0.08222619 -0.08228493 -0.08235047 -0.08241577 -0.08248033 -0.08253498 -0.08257943 -0.0826071 -0.08261827
 -0.08261014 -0.08258402 -0.08254146 -0.08248483 -0.08241948 -0.08234635 -0.08226953 -0.08218695 -0.08209704 -0.08200172
 -0.08189866 -0.08180075 -0.08171175 -0.08164524 -0.08160717 -0.08159838 -0.08162157 -0.08166438 -0.0817265 -0.08178911
 -0.08185102 -0.08189494 -0.0819205 -0.08192288 -0.08190347 -0.08187059 -0.08182554 -0.08177808 -0.08172839 -0.08168203
 -0.0816384 -0.08159964 -0.0815632 -0.08152679 -0.08148796 -0.08144262 -0.08139294 -0.08133805 -0.081284 -0.0812337
 -0.0811891 -0.08115235 -0.08111861 -0.08108748 -0.08105399 -0.0810172 -0.0809773 -0.08093416 -0.08089031 -0.08084575
 -0.08080042 -0.08075418 -0.08070567 -0.0806554 -0.08060458 -0.08055416 -0.08050776 -0.08046529 -0.08042867 -0.08039638
 -0.08036716 -0.0803399 -0.08031284 -0.08028636 -0.08026017 -0.08023486 -0.08021099 -0.08018734 -0.08016379 -0.08013865
 -0.08011132 -0.08008225 -0.0800513 -0.08002062 -0.07999039 -0.07996178 -0.07993481 -0.0799088 -0.07988385 -0.07986032
 -0.07983834 -0.07981892 -0.07980169 -0.07978661 -0.07977238 -0.0797563 -0.07973769 -0.07971392 -0.07968618 -0.07965426
 -0.07962058 -0.07958656 -0.07955407 -0.07952444 -0.07949802 -0.07947545 -0.07945528 -0.07943763 -0.07941914 -0.07939947
 -0.07937527 -0.07934617 -0.07931173 -0.07927202 -0.07923044 -0.07918724 -0.07914611 -0.07910694 -0.07907104 -0.07903814
 -0.07900808 -0.07898081 -0.07895628 -0.07893415 -0.07891437 -0.07889543 -0.07887606 -0.07885459 -0.0788294 -0.07879992
 -0.07876515 -0.0787264 -0.07868361 -0.07863907 -0.0785931 -0.07854804 -0.0785042 -0.07846346 -0.07842603 -0.0783922
 -0.07836191 -0.07833327 -0.07830602 -0.07827711 -0.07824655 -0.07821255 -0.07817571 -0.07813683 -0.07809642 -0.07805598
 -0.07801551 -0.07797564 -0.07793634 -0.07789762 -0.07786013 -0.07782435 -0.07779066 -0.07775963 -0.0777301 -0.07770208
 -0.0776734 -0.07764363 -0.07761098 -0.07757499 -0.07753586 -0.0774935 -0.07744983 -0.07740494 -0.07736055 -0.07731659
 -0.07727293 -0.07722946 -0.07718521 -0.07714067 -0.07709665 -0.07705389 -0.07701474 -0.07697863 -0.07694622 -0.07691522
 -0.0768836 -0.07684959 -0.07681081 -0.0767683 -0.07672167 -0.07667329 -0.07662408 -0.07657461 -0.0765253 -0.07647532
 -0.07642443 -0.07637358 -0.0763227 -0.0762753 -0.07623157 -0.07619447 -0.07616377 -0.0761383 -0.07611721 -0.07609577
 -0.07607332 -0.07604509 -0.07601135 -0.07596999 -0.07592256 -0.07587002 -0.0758148 -0.07575954 -0.07570642 -0.075658
 -0.07561458 -0.07557743 -0.07554439 -0.07551534 -0.07548705 -0.07545886 -0.07542799 -0.07539389 -0.07535542 -0.07531235
 -0.07526548 -0.07521489 -0.07516299 -0.07510998 -0.07505861 -0.07500897 -0.07496312 -0.07492089 -0.07488306 -0.07484911
 -0.07481854 -0.07479037 -0.07476305 -0.07473555 -0.07470603 -0.07467442 -0.07463975 -0.0746035 -0.07456588 -0.07452916
 -0.07449422 -0.07446218 -0.07443376 -0.07440766 -0.07438402 -0.07435987 -0.07433497 -0.07430718 -0.0742764 -0.07424309
 -0.0742074 -0.07417119 -0.07413444 -0.07409798 -0.07406145 -0.07402398 -0.07398558 -0.07394543 -0.07390454 -0.07386395
 -0.073825 -0.07378978 -0.07375833 -0.07373202 -0.07370835 -0.07368686 -0.07366384 -0.07363777 -0.07360686 -0.07356999
 -0.07352901 -0.07348391 -0.07343743 -0.07338999 -0.07334074 -0.07328963 -0.07323282 -0.07317026 -0.07309978 -0.07302201
 -0.07293941 -0.07285245 -0.07276436 -0.07267427 -0.07258202 -0.07248616 -0.07238395 -0.07227547 -0.07215936 -0.07203743
 -0.07191058 -0.07178037 -0.07164807 -0.07151364 -0.07137736 -0.07123885 -0.07109792 -0.07095505 -0.07081015 -0.0706646
 -0.0705184 -0.07037413 -0.07023194 -0.07009595 -0.06996641 -0.06984735 -0.06973874 -0.06964237 -0.06955814 -0.06948648
 -0.06942771 -0.06938273 -0.06935183 -0.06933622 -0.06933495 -0.06934773 -0.06937265 -0.069408 -0.06945308 -0.06950688
 -0.06957009 -0.06964298 -0.06972502 -0.0698165 -0.06991472 -0.07001943 -0.07012755 -0.07023873 -0.07035106 -0.0704644
 -0.07057767 -0.07069078 -0.07080279 -0.07091366 -0.07102268 -0.07112965 -0.07123362 -0.07133403 -0.071429 -0.07151841
 -0.07160091 -0.07167742 -0.07174839 -0.0718149 -0.07187832 -0.07193802 -0.07199435 -0.07204534 -0.0720902 -0.07212812
 -0.0721584 -0.07218268 -0.07220103 -0.07221557 -0.07222659 -0.07223471 -0.07223995 -0.07224178 -0.07224026 -0.07223593
 -0.07222902 -0.07222142 -0.07221311 -0.07220526 -0.07219724 -0.07218804 -0.07217713 -0.07216286 -0.07214569 -0.07212532
 -0.07210298 -0.0720797 -0.07205587 -0.07203225 -0.07200795 -0.07198288 -0.0719559 -0.07192658 -0.07189499 -0.07186094
 -0.07182583 -0.07178979 -0.07175408 -0.07171879 -0.07168429 -0.07165054 -0.07161663 -0.07158254 -0.07154766 -0.07151224
 -0.07147704 -0.07144224 -0.0714088 -0.07137639 -0.07134494 -0.07131394 -0.07128274 -0.07125096 -0.07121823 -0.07118395
 -0.07114772 -0.071109 -0.07106715 -0.07102316 -0.07097688 -0.07093065 -0.07088492 -0.07084107 -0.07079941 -0.07075914
 -0.07072023 -0.07068108 -0.07064163 -0.07060111 -0.07055951 -0.07051649 -0.07047204 -0.07042597 -0.0703782 -0.07032829
 -0.07027654 -0.07022304 -0.07016883 -0.0701149 -0.07006291 -0.07001488 -0.06997097 -0.06993242 -0.06989678 -0.06986373
 -0.06982962 -0.06979327 -0.06975299 -0.06970803 -0.06965951 -0.06960732 -0.06955396 -0.06949956 -0.06944651 -0.06939486
 -0.06934553 -0.06929823 -0.06925147 -0.06920496 -0.06915648 -0.06910642 -0.06905446 -0.06900159 -0.0689496 -0.06889887
 -0.06885102 -0.06880496 -0.06876054 -0.068716 -0.06867031 -0.06862216 -0.06857041 -0.06851604 -0.06845886 -0.06840111
 -0.06834332 -0.06828614 -0.06822992 -0.06817216 -0.06811272 -0.06804931 -0.06798202 -0.06791293 -0.06784262 -0.06777655
 -0.06771472 -0.06766061 -0.06761263 -0.06756856 -0.06752606 -0.06747936 -0.06742799 -0.06736819 -0.0673025 -0.06723131
 -0.06715856 -0.06708717 -0.06701814 -0.06695318 -0.06688989 -0.06682802 -0.06676492 -0.06669978 -0.06663284 -0.06656384
 -0.06649547 -0.06642791 -0.06636331 -0.0663017 -0.06624299 -0.06618694 -0.06613151 -0.06607664 -0.06602092 -0.06596458
 -0.06590777 -0.06585025 -0.06579192 -0.06573185 -0.0656687 -0.06560212 -0.06553082 -0.06545642 -0.06537931 -0.06530164
 -0.06522456 -0.06514885 -0.06507511 -0.06500265 -0.06493133 -0.06486091 -0.06479131 -0.06472273 -0.06465521 -0.06458855
 -0.06452268 -0.06445677 -0.06439079 -0.06432417 -0.064257 -0.0641895 -0.06412119 -0.06405081 -0.06397768 -0.06389941
 -0.06381688 -0.06372955 -0.06364061 -0.06355307 -0.06346852 -0.06338968 -0.06331416 -0.06324185 -0.0631695 -0.06309586
 -0.06302035 -0.06294268 -0.06286263 -0.06278026 -0.06269416 -0.0626042 -0.06250997 -0.06241154 -0.06231159 -0.06221028
 -0.06211029 -0.06201142 -0.06191411 -0.0618182 -0.06172333 -0.06162977 -0.06153794 -0.06144805 -0.06136079 -0.06127549
 -0.06119227 -0.06110889 -0.06102412 -0.06093565 -0.06084153 -0.06074298 -0.06063922 -0.06053545 -0.06043271 -0.06033402
 -0.06024037 -0.06014856 -0.06005852 -0.05996519 -0.05986838 -0.05976718 -0.05966181 -0.05955428 -0.05944433 -0.05933182
 -0.05921619 -0.05909516 -0.05896951 -0.05883916 -0.05870649 -0.05857505 -0.05844598 -0.05832241 -0.05820214 -0.05808517
 -0.05796749 -0.05784688 -0.05772231 -0.05759228 -0.05746023 -0.05732651 -0.0571946 -0.05706533 -0.05693783 -0.05681225
 -0.05668397 -0.05655276 -0.05641459 -0.05626971 -0.0561189 -0.05596292 -0.05580613 -0.0556484 -0.05549213 -0.05533565
 -0.05517673 -0.05501371 -0.0548428 -0.05466437 -0.05447705 -0.05428274 -0.05408229 -0.05387723 -0.05366858 -0.05345693
 -0.05324281 -0.05302566 -0.05280559 -0.05258095 -0.05235141 -0.05211702 -0.05187766 -0.05163644 -0.05139349 -0.05115052
 -0.05090728 -0.05066165 -0.05041382 -0.05016343 -0.04991134 -0.04966117 -0.04941111 -0.0491604 -0.0489035 -0.04863149
 -0.04834167 -0.04802554 -0.04769018 -0.04733699 -0.0469753 -0.04661136 -0.04624528 -0.04587914 -0.04550787 -0.04513018
 -0.04474558 -0.04435378 -0.04395566 -0.04355169 -0.04313425 -0.04270285 -0.04224288 -0.04175482 -0.04123694 -0.04069309
 -0.04014317 -0.03958866 -0.03904708 -0.03851234 -0.03798031 -0.03744397 -0.03689016 -0.03631691 -0.03571787 -0.03509124
 -0.03443667 -0.03374341 -0.03300815 -0.03221525 -0.03135663 -0.03043232 -0.02943687 -0.02839711 -0.02731429 -0.02622512
 -0.02513293 -0.02406185 -0.0230131 -0.02199386 -0.02100295 -0.02003133 -0.01907508 -0.01810859 -0.01712899 -0.01610896
 -0.01505827 -0.01398068 -0.01289746 -0.0118472 -0.01083198 -0.009875925 -0.008952009 -0.008049642 -0.007141287 -0.006207486
 -0.005243463 -0.004241442 -0.003211827 -0.002155913 -0.001080467 1.388699E-05 0.00111878 0.002234057 0.003343017 0.004444758
 0.005525237 0.006583216 0.007602843 0.008579011 0.009475661 0.01028707 0.01097344 0.01153558 0.01195577 0.0122374
 0.01237653 0.01238086 0.01225047 0.01201291 0.01168397 0.01129966 0.01088315 0.01045332 0.01002132 0.009597208
 0.009184544 0.008792587 0.008424425 0.008075873 0.007747989 0.007418473 0.007086143 0.006725301 0.006335665 0.005905902
 0.005438537 0.004942348 0.004419458 0.003882781 0.003330642 0.002765174 0.002185002 0.001586618 0.0009756061 0.0003540021
 -0.0002646743 -0.0008706022 -0.001450643 -0.001994855 -0.002497972 -0.002956056 -0.003367139 -0.003730872 -0.004041969 -0.004299785
 -0.00449874 -0.004637935 -0.004718248 -0.00473968 -0.004708601 -0.004625575 -0.00449941 -0.004330656 -0.004127423 -0.003889201
 -0.003619035 -0.003314916 -0.002973705 -0.002593572 -0.002169869 -0.001702392 -0.001189193 -0.0006303687 -2.573551E-05 0.0006256915
 0.001324525 0.002071329 0.002867552 0.003708564 0.00459538 0.005513949 0.006463781 0.007422528 0.008388636 0.009337428
 0.01026744 0.01115691 0.01200519 0.0127985 0.01353812 0.01422427 0.01485956 0.01545439 0.01600863 0.01652805
 0.01700941 0.0174484 0.01784654 0.01820224 0.0185226 0.01881371 0.01907753 0.01931835 0.01953043 0.01971244
 0.01986041 0.01997285 0.02004901 0.02008908 0.02008885 0.0200482 0.01996022 0.01982447 0.01963676 0.01939663
 0.01909747 0.01873756 0.01830284 0.01779148 0.01718847 0.01649446 0.01570255 0.01481649 0.0138403 0.01277505
 0.01162518 0.01038594 0.009049617 0.007630297 0.006121123 0.004581567 0.003029666 0.001521821 8.260887E-05 -0.001291784
 -0.002595927 -0.003858882 -0.005084432 -0.006276668 -0.00743627 -0.008547247 -0.009609309 -0.01061599 -0.01156872 -0.01247409
 -0.01333303 -0.01415134 -0.01493137 -0.0156785 -0.01640303 -0.01712189 -0.01785232 -0.01862172 -0.01944168 -0.02033474
 -0.02129327 -0.02232298 -0.02340045 -0.02451799 -0.02565794 -0.02681396 -0.02797841 -0.0291527 -0.03030685 -0.03144049
 -0.03249673 -0.03347159 -0.034345 -0.03511887 -0.03582934 -0.03647996 -0.03711374 -0.03772864 -0.03834008 -0.03894233
 -0.03952802 -0.04009359 -0.0406295 -0.04113397 -0.04160238 -0.04203001 -0.04241233 -0.04274293 -0.04301665 -0.04323031
 -0.043381 -0.0434695 -0.04349523 -0.04346059 -0.04336572 -0.04321363 -0.04300444 -0.04274251 -0.04242803 -0.04206825
 -0.04166416 -0.0412331 -0.04077857 -0.0403341 -0.03990288 -0.03951803 -0.03917571 -0.03888461 -0.03863484 -0.03841273
 -0.03821006 -0.03801004 -0.03781104 -0.03760553 -0.03739561 -0.0371799 -0.03696277 -0.03674371 -0.0365345 -0.03633762
 -0.03616517 -0.03602159 -0.03590155 -0.03580637 -0.03571461 -0.03562503 -0.03551714 -0.03539038 -0.03523622 -0.03505564
 -0.03485203 -0.03462625 -0.03438466 -0.03412528 -0.0338475 -0.0335452 -0.0332076 -0.03282776 -0.03239174 -0.03189734
 -0.03133759 -0.03071318 -0.03002391 -0.02926614 -0.02843793 -0.0275381 -0.02656235 -0.02552871 -0.02443671 -0.02332194
 -0.022188 -0.02106522 -0.0199561 -0.01887529 -0.01782363 -0.01681379 -0.01584776 -0.0149474 -0.01411435 -0.01336863
 -0.01270796 -0.01213641 -0.01165079 -0.01124557 -0.01092222 -0.0106796 -0.01052207 -0.01045451 -0.01047584 -0.01058906
 -0.01078429 -0.0110593 -0.01140142 -0.01180642 -0.01226675 -0.01277951 -0.01334584 -0.01396504 -0.01464397 -0.0153831
 -0.01618647 -0.01705405 -0.01798301 -0.01897283 -0.02001882 -0.02111947 -0.02226808 -0.0234583 -0.02467137 -0.02589544
 -0.02709949 -0.02827364 -0.02939076 -0.03044913 -0.0314367 -0.03235795 -0.03321123 -0.03400494 -0.03474112 -0.03543084
 -0.03607762 -0.03668957 -0.03726954 -0.03781743 -0.0383339 -0.03881431 -0.03925836 -0.039662 -0.04002495 -0.04034213
 -0.04061293 -0.04082934 -0.04099181 -0.04109668 -0.04114791 -0.04115377 -0.04112105 -0.04106631 -0.04099621 -0.04092627
 -0.04086185 -0.04081326 -0.04078377 -0.04077912 -0.0407981 -0.04084265 -0.04090633 -0.04098873 -0.04107918 -0.04117618
 -0.04126789 -0.04135272 -0.04142191 -0.04147455 -0.04150752 -0.04152072 -0.04151484 -0.04149012 -0.04144869 -0.04139136
 -0.04132279 -0.04124439 -0.04116323 -0.04107914 -0.04099623 -0.04091081 -0.04081994 -0.0407188 -0.04060078 -0.04046543
 -0.04030903 -0.04013751 -0.03995144 -0.03976054 -0.03956741 -0.03938114 -0.03920408 -0.03904156 -0.03889505 -0.03876321
 -0.03864633 -0.03853652 -0.03843329 -0.03832581 -0.03821339 -0.03808543 -0.03794112 -0.0377709 -0.03757431 -0.03734391
 -0.03708206 -0.03678793 -0.03646958 -0.03613561 -0.03579999 -0.03547717 -0.03518488 -0.03493736 -0.03475311 -0.03464371
 -0.03462211 -0.03469671 -0.03486529 -0.03513205 -0.03547326 -0.03588858 -0.03633909 -0.03682217 -0.03729898 -0.03776755
 -0.03820075 -0.03859836 -0.03894781 -0.03925036 -0.03950493 -0.03971392 -0.03988361 -0.04001721 -0.04012414 -0.04020732
 -0.04027501 -0.0403289 -0.04037388 -0.0404099 -0.04043852 -0.04045878 -0.04047061 -0.04047314 -0.04046604 -0.04044893
 -0.04042169 -0.04038389 -0.04033541 -0.04027608 -0.04020583 -0.04012546 -0.04003504 -0.03993641 -0.03982978 -0.0397179
 -0.03960108 -0.03948241 -0.03936194 -0.03924166 -0.03912118 -0.03900061 -0.03887948 -0.03875678 -0.03863327 -0.03850886
 -0.03838594 -0.03826607 -0.03815128 -0.03804357 -0.03794166 -0.03784605 -0.03775297 -0.03766146 -0.03756989 -0.03747739
 -0.0373877 -0.0373009 -0.03722303 -0.03715441 -0.03709805 -0.03705386 -0.03702168 -0.03700163 -0.03699425 -0.03700013
 -0.03702178 -0.0370592 -0.03711424 -0.03718499 -0.03727015 -0.03736581 -0.037468 -0.03757185 -0.03767289 -0.03776705
 -0.03785111 -0.03792321 -0.03798184 -0.03802718 -0.03805887 -0.03807815 -0.03808514 -0.03808087 -0.03806543 -0.03803981
 -0.03800407 -0.0379595 -0.03790621 -0.03784569 -0.03777799 -0.03770424 -0.03762432 -0.03753851 -0.0374465 -0.03734785
 -0.03724201 -0.03712786 -0.03700508 -0.03687265 -0.03673122 -0.03658075 -0.03642264 -0.03625766 -0.03608662 -0.03591003
 -0.03572797 -0.03554017 -0.03534866 -0.03515332 -0.03495886 -0.03476562 -0.0345786 -0.03439809 -0.03422733 -0.0340664
 -0.03391766 -0.03378103 -0.03365792 -0.03354719 -0.03344627 -0.03335264 -0.03325933 -0.03316423 -0.03306056 -0.0329483
 -0.03282453 -0.03269093 -0.03254752 -0.03239697 -0.03224008 -0.03208103 -0.03192093 -0.03176515 -0.03161508 -0.03147471
 -0.03134506 -0.03122685 -0.03112045 -0.03102341 -0.03093562 -0.03085347 -0.03077674 -0.03070186 -0.03062846 -0.03055274
 -0.03047398 -0.03038789 -0.03029348 -0.0301862 -0.03006584 -0.02992964 -0.02977891 -0.02961349 -0.02943659 -0.02925013
 -0.02905823 -0.02886339 -0.02866898 -0.02847683 -0.02828851 -0.028105 -0.02792552 -0.02775034 -0.02757659 -0.02740415
 -0.02722874 -0.02705009 -0.02686558 -0.02667544 -0.02648264 -0.02628824 -0.02610052 -0.02592002 -0.02575377 -0.02560049
 -0.02546078 -0.02533289 -0.02521345 -0.02510326 -0.02500122 -0.02491053 -0.0248339 -0.02477202 -0.0247276 -0.02469445
 -0.02467213 -0.02464997 -0.02462511 -0.02459073 -0.0245447 -0.02448776 -0.02441968 -0.02434331 -0.02425885 -0.02416519
 -0.02406229 -0.02394837 -0.02382435 -0.02369501 -0.02356213 -0.02343551 -0.02331533 -0.02320767 -0.02311011 -0.02302115
 -0.02293872 -0.02285872 -0.02278313 -0.02271104 -0.02264838 -0.02259795 -0.02256512 -0.02255332 -0.02256237 -0.02259391
 -0.02264133 -0.02270417 -0.02277445 -0.02285116 -0.02293056 -0.02301231 -0.02309661 -0.0231835 -0.02327343 -0.0233664
 -0.02346224 -0.02356129 -0.02366463 -0.0237729 -0.02388869 -0.02401146 -0.02414211 -0.02427809 -0.02441692 -0.02455574
 -0.024691 -0.02482208 -0.02494698 -0.02506842 -0.02518647 -0.02530569 -0.02542731 -0.02555452 -0.0256886 -0.02582756
 -0.02597182 -0.02611336 -0.02625175 -0.02637824 -0.02649266 -0.02659185 -0.02667651 -0.02674977 -0.02681254 -0.02686991
 -0.02692266 -0.02697512 -0.02702833 -0.02708615 -0.02714916 -0.02722017 -0.02729766 -0.02738198 -0.02746947 -0.02755832
 -0.02764505 -0.02772801 -0.02780443 -0.02787354 -0.02793215 -0.02797963 -0.02801364 -0.02803366 -0.0280406 -0.02803443
 -0.02801867 -0.02799347 -0.02796153 -0.02792291 -0.02787919 -0.02783064 -0.02777917 -0.02772511 -0.02767044 -0.02761494
 -0.02755924 -0.02750268 -0.02744453 -0.02738465 -0.02732253 -0.02725855 -0.0271928 -0.02712557 -0.02705691 -0.02698738
 -0.02691681 -0.02684738 -0.0267791 -0.02671621 -0.02665917 -0.02661129 -0.02657288 -0.02654422 -0.02652529 -0.02651519
 -0.02651419 -0.02652397 -0.02654492 -0.02658016 -0.02662882 -0.02669083 -0.02676369 -0.02684286 -0.02692593 -0.02700791
 -0.02708728 -0.02716123 -0.02722828 -0.02728654 -0.02733607 -0.0273756 -0.02740918 -0.02743709 -0.02746578 -0.02749673
 -0.02753279 -0.02757491 -0.0276197 -0.02766708 -0.02771104 -0.02775129 -0.0277834 -0.02780728 -0.02782026 -0.02782224
 -0.0278113 -0.02778745 -0.02774937 -0.02769784 -0.02763321 -0.02755743 -0.02747311 -0.02738192 -0.0272866 -0.02718704
 -0.02708409 -0.02697672 -0.02686433 -0.02674758 -0.02662615 -0.02650249 -0.02637704 -0.02625126 -0.02612544 -0.0259998
 -0.02587437 -0.02574983 -0.02562623 -0.02550513 -0.02538658 -0.02527171 -0.02516069 -0.0250547 -0.0249543 -0.02486179
 -0.02477751 -0.02470341 -0.02463907 -0.02458469 -0.02453987 -0.02450429 -0.02447777 -0.02446098 -0.02445068 -0.02444717
 -0.02444161 -0.02443212 -0.02440877 -0.02436859 -0.0243097 -0.02423077 -0.02413895 -0.0240346 -0.02392547 -0.02381178
 -0.02369491 -0.02357459 -0.0234489 -0.02331782 -0.02318041 -0.02303643 -0.02288483 -0.02272501 -0.0225548 -0.02237505
 -0.0221855 -0.0219886 -0.02178713 -0.02158119 -0.02137257 -0.02115756 -0.02093444 -0.02070226 -0.02045831 -0.02021263
 -0.01996526 -0.019734 -0.01952123 -0.01933869 -0.01918792 -0.01906633 -0.01897365 -0.01889954 -0.01884383 -0.01880052
 -0.01877049 -0.01875529 -0.01875486 -0.01877083 -0.01880034 -0.01883929 -0.01888268 -0.01892232 -0.0189529 -0.01896633
 -0.01895936 -0.01892657 -0.01886973 -0.01878709 -0.01868579 -0.01856736 -0.01843874 -0.01830213 -0.01815873 -0.01800925
 -0.01785093 -0.01768345 -0.01750802 -0.0173249 -0.01714371 -0.01696556 -0.01680492 -0.01666254 -0.01655046 -0.01646741
 -0.01641694 -0.01639485 -0.01639515 -0.01641165 -0.01643341 -0.01645461 -0.01646538 -0.01646272 -0.01644086 -0.01640155
 -0.01634308 -0.01627203 -0.01618947 -0.01610371 -0.01601687 -0.01593364 -0.01585533 -0.0157811 -0.01571104 -0.01564284
 -0.01557642 -0.01551265 -0.01545158 -0.0153947 -0.015341 -0.01528633 -0.01522902 -0.01516064 -0.01508233 -0.01499122
 -0.01489223 -0.01479137 -0.01469272 -0.01460388 -0.01452341 -0.01445352 -0.014389 -0.01432829 -0.01426588 -0.01420001
 -0.01412517 -0.01403964 -0.01394107 -0.01382806 -0.01370705 -0.01357816 -0.0134527 -0.01333116 -0.01321665 -0.01310819
 -0.01299558 -0.01287808 -0.01274523 -0.0125995 -0.01244297 -0.01227943 -0.0121192 -0.0119623 -0.01181456 -0.0116711
 -0.011529 -0.01138396 -0.01123041 -0.01107127 -0.0109047 -0.01074115 -0.0105828 -0.01044175 -0.01032143 -0.01022786
 -0.01016329 -0.01012327 -0.01010822 -0.01010413 -0.01011026 -0.01010979 -0.01010231 -0.01007754 -0.01003655 -0.009979508
 -0.009908142 -0.009828548 -0.009741287 -0.009651023 -0.009556486 -0.009457955 -0.009353497 -0.009240673 -0.009119545 -0.008988434
 -0.008851049 -0.008708229 -0.008565238 -0.008424499 -0.008287465 -0.008155514 -0.008025244 -0.007896157 -0.007766737 -0.007636345
 -0.007511397 -0.007392226 -0.007288629 -0.007200653 -0.007132086 -0.007081607 -0.007044105 -0.007017484 -0.006992281 -0.006966299
 -0.006930031 -0.006881929 -0.006814734 -0.006729775 -0.006624257 -0.006504626 -0.006373915 -0.006240377 -0.006109938 -0.005984429
 -0.005867171 -0.005751709 -0.005637264 -0.005517495 -0.005390522 -0.00525882 -0.005122133 -0.004987961 -0.004856711 -0.004729617
 -0.004606109 -0.004478638 -0.004346834 -0.004203841 -0.004051571 -0.003892659 -0.003730242 -0.003573342 -0.003423089 -0.0032857
 -0.003160092 -0.003046981 -0.002946418 -0.002858009 -0.002784046 -0.002726046 -0.002684126 -0.002660102 -0.002647198 -0.002645271
 -0.00264245 -0.002636993 -0.002619509 -0.002588672 -0.002542059 -0.002479453 -0.00240324 -0.002313524 -0.002212229 -0.002099273
 -0.00197472 -0.001839151 -0.001694187 -0.001541638 -0.001386544 -0.001230555 -0.001078598 -0.0009316481 -0.0007923157 -0.0006622041
 -0.0005435573 -0.0004368265 -0.0003448418 -0.0002600025 -0.0001832367 -9.44753E-05 1.095776E-05 0.0001487931 0.0003258494 0.0005234362
 0.0007417293 0.0009461318 0.001134547 0.0012912 0.001416159 0.001508536 0.001569001 0.001600714 0.001604678 0.001585703
 0.001545645 0.001490982 0.001424168 0.001352403 0.001276721 0.001201867 0.001125695 0.001047736 0.0009668697 0.0008804749
 0.0007950313 0.0007110556 0.0006396712 0.0005843369 0.0005498343 0.0005387935 0.000543425 0.0005636957 0.0005866673 0.0006115258
 0.0006310533 0.000645377 0.0006561574 0.00066394 0.0006733855 0.0006841125 0.0006975061 0.0007120143 0.0007248175 0.0007337149
 0.0007335285 0.000723122 0.0006975505 0.0006612461 0.0006134065 0.0005674059 0.000530161 0.0005128898 0.0005247677 0.0005577814
 0.0006144727 0.0006708148 0.0007224171 0.0007564511 0.0007694464 0.0007748624 0.0007732133 0.0007838148 0.0008066442 0.0008414185
 0.0008866712 0.0009312156 0.0009760419 0.001019303 0.0010627 0.00111074 0.001161936 0.00121554 0.001270329 0.00132336
 0.001377398 0.001434037 0.001494823 0.001562759 0.001632365 0.00170282 0.001766809 0.001821535 0.001865888 0.001898758
 0.001923759 0.001941111 0.001954046 0.001962739 0.001971484 0.001980636 0.001996771 0.002020205 0.002056473 0.002105344
 0.002168591 0.002246343 0.00233996 0.002449367 0.002576169 0.002717146 0.002870502 0.00302871 0.00318537 0.003332799
 0.003463737 0.003577167 0.003669132 0.003748279 0.00381469 0.003883416 0.003957202 0.004046639 0.004154246 0.004275153
 0.004409538 0.004539146 0.004663184 0.004766475 0.004850385 0.004917195 0.004970477 0.005026756 0.005087617 0.005167462
 0.005261995 0.005371443 0.00548737 0.00559906 0.005700252 0.005781078 0.005840436 0.005874852 0.005885024 0.00587079
 0.005831633 0.005767352 0.005677727 0.005562597 0.005422535 0.005257678 0.005067061 0.004850483 0.004611148 0.004349795
 0.00408284 0.003812002 0.003559615 0.003324161 0.003112659 0.00291895 0.002728888 0.002539256 0.002333621 0.002121391
 0.001904926 0.001702844 0.001534186 0.001407664 0.001339647 0.001313196 0.001329259 0.001354982 0.001381014 0.001384876
 0.001358904 0.001303208 0.001215982 0.00110942 0.0009841692 0.0008528878 0.0007157886</values></Ydata></AB><ScSm><Ydata ylabel="Single channel"><values byteorder="INTEL" format="FLOAT32" numvalues="1814"> 0.08912857 0.08924058 0.08936857 0.08951961 0.08968583 0.08985049 0.08999938 0.09012963 0.0902466 0.09035215
 0.09044559 0.09053919 0.09065829 0.09081645 0.09099731 0.09116523 0.09129216 0.09138133 0.09146988 0.09159429
 0.09174296 0.0918539 0.09187225 0.09180932 0.09173775 0.09172633 0.09179369 0.09194143 0.0921965 0.09254614
 0.09284378 0.09290153 0.09272414 0.09254553 0.09257062 0.09276899 0.09296773 0.09304322 0.09297252 0.09281796
 0.09274988 0.09299257 0.09362186 0.09439975 0.0948482 0.09452616 0.09332365 0.09161812 0.09018174 0.08977813
 0.09061391 0.09210981 0.09333301 0.09374772 0.09350687 0.09305726 0.09267277 0.0924436 0.0924817 0.09290329
 0.09363744 0.09434904 0.09456997 0.09400658 0.09287214 0.09184885 0.09153289 0.09197205 0.09287181 0.09395279
 0.09469137 0.09405328 0.0914044 0.08790355 0.0861494 0.08778303 0.09177004 0.09547496 0.09706344 0.09648071
 0.09469181 0.0928235 0.09186409 0.09233175 0.09393968 0.09588038 0.09746575 0.09831361 0.09818188 0.09708183
 0.09550248 0.09420301 0.09378894 0.09453614 0.09628169 0.09825534 0.09938431 0.0991357 0.09791747 0.09655073
 0.09566352 0.09565638 0.09673684 0.09867604 0.1008272 0.1026004 0.1037703 0.1043527 0.1044622 0.1042844
 0.103983 0.1036781 0.1035749 0.1038586 0.1043335 0.1044615 0.1039613 0.1031899 0.1027821 0.1029946
 0.1034857 0.1037278 0.1035318 0.1029539 0.1017605 0.09953734 0.09654053 0.09383892 0.09227182 0.09185666
 0.09246507 0.09418106 0.09647866 0.09796464 0.09777703 0.09674715 0.09650332 0.09770988 0.09964485 0.1012523
 0.1021692 0.1027885 0.1036419 0.1047982 0.1057106 0.1056218 0.1043388 0.102715 0.1020858 0.1029802
 0.1046056 0.1058214 0.1063352 0.1066743 0.1072464 0.1077455 0.1074192 0.1058774 0.1037702 0.1025616
 0.1033239 0.1056783 0.1079921 0.108613 0.1070416 0.1041998 0.1016593 0.1005135 0.1009482 0.1026856
 0.1053742 0.1084255 0.1109233 0.1120858 0.1118058 0.1106283 0.1091557 0.1074867 0.1054322 0.1033919
 0.1025848 0.1039117 0.1068007 0.1096618 0.1113531 0.1118157 0.1114316 0.1102546 0.1081069 0.1053696
 0.1033403 0.1032747 0.1049596 0.1067601 0.1073574 0.1069828 0.1066793 0.1068754 0.1071502 0.1071023
 0.1069512 0.1072238 0.1080797 0.1091058 0.1097516 0.1098352 0.1095843 0.1093132 0.1091239 0.1088479
 0.1083066 0.1077106 0.1076439 0.1084495 0.1097691 0.1109028 0.111499 0.111694 0.1116889 0.1114097
 0.1106378 0.1094422 0.1083888 0.1081405 0.1088147 0.1098939 0.1107753 0.1112201 0.1112953 0.1111463
 0.1108986 0.1106256 0.1103658 0.1102065 0.1102686 0.1105443 0.1108531 0.1110211 0.1110235 0.1109162
 0.1107206 0.1104305 0.1100851 0.1097903 0.109651 0.1096881 0.1098363 0.1100112 0.1101444 0.1101715
 0.1100557 0.1098356 0.1096001 0.109407 0.1092612 0.1091643 0.1091356 0.1091749 0.1092384 0.1092703
 0.1092485 0.1091856 0.1090956 0.10898 0.1088451 0.1087153 0.1086233 0.10859 0.1086059 0.1086346
 0.108654 0.108683 0.1087404 0.1087898 0.1087692 0.1086702 0.1085512 0.1084739 0.108455 0.1084722
 0.1084902 0.1084763 0.1084066 0.1082796 0.1081376 0.108056 0.1080886 0.1082269 0.1084251 0.1086393
 0.1088283 0.1089556 0.1090196 0.1090578 0.1091014 0.1091453 0.1091717 0.1091867 0.1092256 0.1093255
 0.109488 0.1096721 0.1098299 0.1099417 0.1100155 0.1100765 0.1101633 0.1102956 0.1104364 0.1105221
 0.1105427 0.1105599 0.1106307 0.1107432 0.1108393 0.1108849 0.1109008 0.1109325 0.1110019 0.1110933
 0.1111823 0.1112648 0.1113573 0.1114702 0.1115809 0.111641 0.1116232 0.1115568 0.1115011 0.1114862
 0.1115016 0.1115339 0.111587 0.11166 0.1117273 0.1117576 0.1117449 0.1117151 0.1116963 0.111687
 0.11166 0.1115972 0.1115108 0.1114271 0.1113612 0.11131 0.1112609 0.1112001 0.1111192 0.1110173
 0.1108996 0.1107725 0.110639 0.1105035 0.1103836 0.1103064 0.1102768 0.1102516 0.1101651 0.109991
 0.1097685 0.1095639 0.1094142 0.1093073 0.1092069 0.1090878 0.108952 0.1088194 0.1087086 0.1086252
 0.1085631 0.1085135 0.1084768 0.108468 0.1085022 0.1085676 0.1086229 0.1086334 0.1086057 0.1085774
 0.1085769 0.1086062 0.1086529 0.1087064 0.1087634 0.1088289 0.1089079 0.1089917 0.1090622 0.1091142
 0.1091649 0.109237 0.1093425 0.1094818 0.1096406 0.1097877 0.1098954 0.1099704 0.1100505 0.1101651
 0.1103115 0.1104722 0.1106401 0.1108183 0.111008 0.1112081 0.1114217 0.1116555 0.1119124 0.1121871
 0.1124682 0.1127429 0.1130068 0.1132722 0.1135611 0.1138863 0.1142386 0.1145949 0.1149369 0.1152635
 0.1155867 0.1159172 0.1162574 0.1166074 0.1169734 0.1173611 0.1177638 0.1181657 0.1185567 0.1189399
 0.1193241 0.1197153 0.1201136 0.1205185 0.1209347 0.121369 0.1218148 0.1222446 0.1226308 0.1229759
 0.1233131 0.1236753 0.1240703 0.1244808 0.1248795 0.1252459 0.1255827 0.125915 0.1262644 0.1266256
 0.1269793 0.1273262 0.1276927 0.1280957 0.1285114 0.1288902 0.1292027 0.1294672 0.1297273 0.1300073
 0.1302941 0.1305633 0.1308119 0.1310572 0.1313109 0.1315691 0.1318297 0.1321046 0.1324001 0.1326979
 0.1329708 0.1332129 0.1334405 0.1336662 0.1338826 0.1340732 0.1342309 0.134369 0.1345148 0.1346872
 0.1348776 0.1350644 0.1352443 0.1354383 0.135663 0.1359145 0.1361864 0.1364852 0.1368143 0.1371563
 0.1374908 0.1378236 0.1381802 0.1385629 0.1389343 0.1392554 0.1395283 0.1397858 0.1400511 0.1403279
 0.1406238 0.1409573 0.1413352 0.1417391 0.1421376 0.1425095 0.1428584 0.1432098 0.1435832 0.1439633
 0.1443069 0.1445872 0.1448216 0.1450535 0.1453154 0.1456091 0.1459146 0.1462077 0.1464741 0.1467041
 0.1468815 0.1469878 0.1470245 0.1470164 0.1469828 0.1469091 0.1467575 0.1464994 0.1461266 0.1456355
 0.1450139 0.1442553 0.143388 0.1424901 0.1416745 0.1410537 0.1407084 0.1406754 0.1409516 0.1414974
 0.1422337 0.1430489 0.1438209 0.1444378 0.1448101 0.1448811 0.1446424 0.1441357 0.1434312 0.1426023
 0.1417134 0.1408162 0.1399503 0.1391636 0.1385452 0.1382319 0.1383694 0.1390587 0.1403224 0.1420879
 0.1441822 0.1463651 0.1484147 0.1502107 0.1517486 0.1530861 0.1542841 0.1553865 0.156426 0.1574216
 0.1583731 0.1592697 0.1601057 0.160881 0.1615898 0.1622166 0.1627433 0.1631548 0.1634452 0.1636259
 0.163728 0.1637902 0.163847 0.1639238 0.1640274 0.1641282 0.1641598 0.1640497 0.1637594 0.1633063
 0.1627707 0.1622984 0.1620929 0.162369 0.1632628 0.1647451 0.1666176 0.1686061 0.1704784 0.1720988
 0.1734191 0.1744572 0.1752768 0.175957 0.1765567 0.1771062 0.1776208 0.1781116 0.1785853 0.1790453
 0.1794955 0.1799429 0.1803949 0.1808542 0.1813165 0.1817742 0.1822251 0.1826749 0.1831329 0.1836034
 0.1840806 0.1845521 0.1850116 0.1854673 0.1859301 0.1863961 0.1868497 0.1872828 0.1877036 0.1881263
 0.1885606 0.1890081 0.1894603 0.1898997 0.1903115 0.1906976 0.1910719 0.1914455 0.1918194 0.1921901
 0.1925556 0.1929161 0.1932728 0.1936291 0.1939896 0.194355 0.1947182 0.1950681 0.1953999 0.1957199
 0.1960399 0.1963673 0.1967013 0.1970364 0.1973688 0.1977006 0.1980369 0.1983797 0.1987236 0.1990598
 0.1993846 0.1997035 0.2000256 0.2003558 0.2006916 0.2010279 0.2013636 0.2017006 0.2020387 0.2023744
 0.2027046 0.2030308 0.2033563 0.2036826 0.2040082 0.2043311 0.20465 0.2049651 0.2052782 0.2055928
 0.2059128 0.2062383 0.2065635 0.2068805 0.2071856 0.2074791 0.207763 0.2080406 0.2083179 0.2085992
 0.2088837 0.2091688 0.2094547 0.2097435 0.2100357 0.2103299 0.2106232 0.2109131 0.2111985 0.2114797
 0.2117586 0.212038 0.2123206 0.2126063 0.2128922 0.213176 0.2134578 0.2137398 0.2140255 0.2143173
 0.214612 0.2149046 0.2151944 0.2154856 0.2157806 0.2160778 0.2163758 0.216675 0.2169755 0.217276
 0.2175761 0.2178759 0.2181773 0.2184826 0.2187916 0.2191008 0.2194072 0.2197105 0.2200119 0.2203134
 0.2206161 0.2209187 0.2212193 0.221519 0.2218203 0.2221231 0.2224245 0.222722 0.2230143 0.2233036
 0.2235951 0.2238913 0.2241897 0.2244866 0.2247804 0.2250698 0.2253553 0.2256428 0.2259373 0.2262373
 0.2265379 0.2268379 0.227138 0.2274369 0.2277342 0.2280328 0.2283372 0.2286513 0.2289745 0.2293005
 0.2296233 0.2299428 0.2302612 0.2305772 0.2308893 0.2311982 0.2315025 0.2318008 0.2320953 0.2323899
 0.2326853 0.2329822 0.2332833 0.2335898 0.233902 0.2342207 0.2345433 0.2348635 0.2351808 0.2355004
 0.2358233 0.2361446 0.236463 0.2367814 0.2371013 0.2374234 0.2377491 0.2380762 0.2384004 0.2387206
 0.2390375 0.2393532 0.2396744 0.2400058 0.2403411 0.2406716 0.2409986 0.2413272 0.2416574 0.241988
 0.2423186 0.2426449 0.2429642 0.2432832 0.2436091 0.2439418 0.2442791 0.2446181 0.2449523 0.2452794
 0.2456065 0.245938 0.2462688 0.2465985 0.2469323 0.2472698 0.2476078 0.2479488 0.2482911 0.2486257
 0.2489513 0.2492747 0.249596 0.2499128 0.2502305 0.2505505 0.2508652 0.2511728 0.2514757 0.2517645
 0.2520164 0.2521777 0.2520958 0.2514436 0.249676 0.2460384 0.2397104 0.2301286 0.2173232 0.2020209
 0.1854476 0.1689426 0.1535903 0.140069 0.1287394 0.1197909 0.1133396 0.1095142 0.1085263 0.1107725
 0.1169675 0.12772 0.1419751 0.1556688 0.163246 0.1618613 0.1539546 0.1450374 0.1392051 0.1371256
 0.137425 0.1387422 0.1405355 0.1429283 0.1462427 0.1505204 0.1554753 0.1609618 0.1672473 0.1746031
 0.1827744 0.191072 0.1989475 0.2063471 0.2135112 0.2205501 0.2272756 0.2333829 0.2386876 0.2431892
 0.247007 0.2503054 0.2532308 0.2558802 0.2583163 0.2605735 0.262615 0.2643135 0.2655238 0.2661979
 0.2664426 0.266472 0.2664898 0.2665992 0.2668136 0.2671203 0.2675088 0.2679645 0.2684734 0.2690282
 0.269618 0.2702246 0.2708331 0.2714342 0.2720174 0.2725762 0.2731083 0.2736088 0.2740737 0.2745098
 0.2749285 0.2753349 0.2757326 0.2761258 0.2765123 0.2768861 0.2772484 0.2776031 0.2779458 0.2782707
 0.2785784 0.2788715 0.2791511 0.2794207 0.2796847 0.279943 0.2801968 0.2804497 0.2807007 0.2809455
 0.2811853 0.281426 0.2816691 0.2819111 0.2821485 0.2823793 0.2826061 0.2828346 0.2830661 0.2832951
 0.2835193 0.2837446 0.2839771 0.2842161 0.2844567 0.2846931 0.2849248 0.2851605 0.2854102 0.2856722
 0.2859373 0.286202 0.2864692 0.2867389 0.2870089 0.2872804 0.2875552 0.2878342 0.288119 0.2884078
 0.288689 0.2889471 0.2891759 0.2893851 0.2895942 0.2898202 0.2900652 0.2903183 0.2905691 0.2908161
 0.2910611 0.291305 0.2915497 0.2917961 0.2920442 0.2922996 0.2925731 0.2928663 0.2931677 0.2934653
 0.2937559 0.2940411 0.2943223 0.2945993 0.2948664 0.2951123 0.2953312 0.2955321 0.2957348 0.295957
 0.2962003 0.2964438 0.2966602 0.296841 0.2970029 0.2971706 0.2973611 0.297571 0.2977719 0.2979347
 0.2980779 0.298275 0.2985921 0.2990257 0.2995146 0.3000021 0.3004753 0.3009513 0.3014425 0.3019404
 0.3024238 0.3028775 0.3033094 0.3037584 0.3042696 0.304845 0.3054317 0.3059728 0.3064544 0.3068924
 0.3073024 0.3076942 0.3080583 0.3083479 0.3085254 0.3086524 0.3088802 0.3093095 0.3098812 0.3104399
 0.3108899 0.3112547 0.3115963 0.3119343 0.3122554 0.3125282 0.3126682 0.3125805 0.3123336 0.3122202
 0.3125205 0.3132195 0.3140409 0.3147268 0.31521 0.3155553 0.3158439 0.3161163 0.3163487 0.3164577
 0.3163913 0.3162525 0.3162812 0.3166374 0.3172218 0.3177842 0.3181842 0.3184692 0.3187355 0.3190192
 0.3192801 0.3193789 0.3191326 0.3185656 0.3180835 0.3182115 0.319083 0.320285 0.3212723 0.3218533
 0.3221908 0.3224205 0.3224508 0.3221355 0.3214558 0.3205243 0.3196339 0.3193083 0.3199617 0.3213671
 0.3227456 0.3235441 0.3239127 0.3243179 0.3249403 0.3255914 0.3260239 0.3261533 0.3260347 0.3257275
 0.32526 0.3247774 0.3246362 0.3251575 0.3262525 0.3274426 0.3283073 0.3288159 0.3291357 0.3291438
 0.328299 0.3262802 0.3238296 0.3225706 0.3235676 0.3262061 0.3288583 0.3304944 0.3312498 0.3316647
 0.3319796 0.3320665 0.331419 0.3293185 0.325809 0.3225552 0.3218367 0.3243036 0.3282473 0.3312544
 0.3320513 0.330773 0.3283518 0.3260821 0.3251598 0.3260344 0.3282195 0.3307897 0.3329385 0.3341974
 0.3344634 0.3339527 0.3331127 0.3325041 0.3324471 0.3325452 0.3319325 0.3303987 0.3287942 0.3277214
 0.3264291 0.3240387 0.3214983 0.3209987 0.3232635 0.3265052 0.328499 0.3288613 0.3286563 0.3282505
 0.3264337 0.3220161 0.3160313 0.3117096 0.3117115 0.3154718 0.3197601 0.3218532 0.3216864 0.3209355
 0.3206573 0.3201757 0.318099 0.3142945 0.3106613 0.3094357 0.3106871 0.3122157 0.311988 0.3095744
 0.3050936 0.2986805 0.2921371 0.2892925 0.2926235 0.3001625 0.3072301 0.310478 0.3089493 0.3026826
 0.2930261 0.2840602 0.2807726 0.2844666 0.2912413 0.2957635 0.2954742 0.2907137 0.2825459 0.2722653
 0.262491 0.2568534 0.2576776 0.2641139 0.2723348 0.2772258 0.2749962 0.2661926 0.25642 0.2521293
 0.254579 0.2590207 0.2602855 0.2576358 0.2537065 0.2508788 0.2499464 0.2505962 0.2517879 0.2525791
 0.252872 0.2520612 0.2476485 0.2380649 0.2269153 0.2210714 0.2235557 0.2310807 0.2393164 0.2471915
 0.2544723 0.2586784 0.2577238 0.2540798 0.2531996 0.2577196 0.2649524 0.2703064 0.2719358 0.2714894
 0.2710671 0.2706704 0.2692798 0.2676396 0.2682909 0.2723966 0.2779112 0.2818035 0.2831104 0.2829313
 0.2823701 0.2816091 0.2804871 0.2789658 0.2770893 0.2749956 0.2729038 0.2708846 0.2688264 0.2667144
 0.2645485 0.2617347 0.2571305 0.2505656 0.2441401 0.2407757 0.241142 0.2432292 0.2452188 0.2468016
 0.2467847 0.2420931 0.2317916 0.2207002 0.2160855 0.2206537 0.230413 0.2391799 0.2434731 0.2429396
 0.238253 0.2308139 0.2243066 0.2240734 0.2329667 0.2483287 0.2643655 0.2770391 0.2855827 0.2902491
 0.290801 0.2877178 0.2835302 0.2818374 0.2848761 0.2920811 0.3005349 0.3062824 0.3060386 0.2999105
 0.2932695 0.2934757 0.302487 0.3141872 0.3211303 0.3223721 0.3223453 0.323865 0.325716 0.3265637
 0.3276993 0.3308404 0.3352806 0.3384638 0.3382735 0.3339309 0.3259799 0.3168873 0.3106525 0.3096861
 0.3122053 0.3143154 0.3140129 0.3112566 0.3055483 0.2969887 0.2893192 0.2879207 0.2937126 0.3017654
 0.3069064 0.3085259 0.3090144 0.3094235 0.3082178 0.3038504 0.2974978 0.292545 0.2912456 0.2925748
 0.2938766 0.2937385 0.2922327 0.2892632 0.2845248 0.2791988 0.2761026 0.2772246 0.2816298 0.2863908
 0.2892867 0.2901649 0.2900844 0.2899499 0.2900211 0.2900932 0.2899587 0.2900434 0.2914407 0.2947565
 0.2990794 0.30281 0.305499 0.3081895 0.3118627 0.316145 0.319761 0.3218884 0.322868 0.3237904
 0.325527 0.3280187 0.3303381 0.3315073 0.3314463 0.3311568 0.3318223 0.3336924 0.3359852 0.3378265
 0.3390162 0.3398941 0.34081 0.3418293 0.3426974 0.3430339 0.3427999 0.3425874 0.3431695 0.3446925
 0.3465129 0.3478635 0.3484875 0.3485901 0.348401 0.3479546 0.3472262 0.3463259 0.3454927 0.3449222
 0.3446342 0.3445042 0.3443842 0.3441811 0.3438661 0.3434648 0.3430399 0.3426595 0.3423816 0.3422715
 0.3423983 0.3427874 0.3433945 0.3441437 0.3449631 0.3457654 0.3464282 0.3468329 0.3469138 0.346653
 0.3460432 0.3450711 0.3437219 0.3419687 0.339782 0.3372341 0.3346737 0.3327649 0.3322161 0.3333311
 0.3357672 0.3387316 0.3414347 0.3434324 0.3446666 0.3452992 0.3455344 0.34553 0.3453797 0.3451228
 0.3447692 0.3443337 0.3438501 0.3433578 0.3428888 0.3424717 0.342133 0.341883 0.3417017 0.3415408
 0.3413423 0.3410608 0.3406751 0.3401838 0.3395913 0.3388928 0.3380685 0.3370963 0.3359812 0.3347735
 0.3335502 0.3323706 0.3312446 0.3301349 0.32899 0.3277678 0.3264177 0.3248685 0.3230981 0.3212386
 0.3195449 0.3181947 0.3171368 0.3161629 0.3150974 0.3138834 0.3125342 0.311076 0.3095371 0.3079439
 0.3063073 0.3046207 0.3028702 0.3010412 0.2991279 0.2971385 0.2950876 0.2929834 0.2908287 0.2886226
 0.2863399 0.2839018 0.2811749 0.2780055 0.2742605 0.2698516 0.264755 0.2590336 0.2528481 0.2464314
 0.2400323 0.2338705 0.2281268 0.2229516 0.2184697 0.2147774 0.2119408 0.2099997 0.2089727 0.208859
 0.2096343 0.2112459 0.2136082 0.2165989 0.2200556 0.2237844 0.2275795 0.2312508 0.2346636 0.2377805
 0.2406563 0.2433668 0.2459338 0.2483214 0.2504882 0.2524191 0.2541138 0.2555701 0.2567919 0.2578056
 0.2586606 0.2594109 0.2600931 0.2607133 0.2612553 0.2617046 0.2620704 0.2623867 0.262695 0.2630255
 0.2633886 0.2637768 0.2641788 0.2645981 0.2650592 0.2655933 0.2662213 0.266946 0.2677527 0.2686176
 0.2695236 0.270474 0.2714915 0.272607 0.2738516 0.2752486 0.2768004 0.2784749 0.2802004 0.2818728
 0.2833799 0.2846303 0.2855734 0.2862012 0.2865346 0.2866062 0.286451 0.286106 0.2856083 0.2849891
 0.284273 0.2834896 0.282674 0.2818485 0.2810062 0.2801212 0.2791791 0.2781933 0.2771927 0.2761984
 0.275219 0.2742622 0.273338 0.2724466 0.2715778 0.270722 0.2698734 0.269027 0.2681824 0.2673476
 0.2665276 0.2657095 0.2648599 0.2639323 0.2628787 0.2616651 0.260278 0.2587204 0.2570041 0.2551482
 0.2531776 0.2511168 0.2489843 0.2467898 0.2445359 0.2422229 0.2398435 0.2373768 0.2348133 0.2321973
 0.2296269 0.2271969 0.2249476 0.2228647 0.2209094 0.2190458 0.2172536 0.215523 0.2138464 0.2122193
 0.2106438 0.2091225 0.2076591 0.2062723 0.2049958 0.2038588 0.2028762 0.2020512 0.2013755 0.2008309
 0.2003955 0.2000453 0.1997611 0.1995493 0.1994402 0.1994379 0.1994829 0.1994819 0.1993712 0.1991531
 0.1988879 0.1986545 0.1985039 0.1984443 0.1984492 0.1984521 0.1983429 0.1979989 0.1973202 0.1962366
 0.1947157 0.1927886 0.1905542 0.188157 0.1857679 0.1835575 0.1816486 0.1800937 0.1788895 0.1779869
 0.1773002 0.1767536 0.1763341 0.1760936 0.1760995 0.1763538 0.1767264 0.1770097 0.1771023 0.1771235
 0.1773087 0.1778107 0.1786122 0.1795719 0.180521 0.1813437 0.1819934 0.1824612 0.1827631 0.1829467
 0.1830586 0.1831025 0.1830537 0.1828911 0.1826005 0.182181 0.1816551 0.1810397 0.1803221 0.1794918
 0.1785623 0.1775407 0.176422 0.1752071 0.1738785 0.1724013 0.1708273 0.1693754 0.1683502 0.1679763
 0.1682845 0.1690982 0.1701524 0.1712666 0.1723679 0.1733617 0.1741291 0.1747234 0.1754641 0.1767265
 0.1786223 0.1808815 0.1830427 0.1847547 0.1858908 0.1864429 0.1864373 0.1859447 0.1850303 0.1836904
 0.1819323 0.1798584 0.1775981 0.1752623 0.1729952 0.170938 0.1691467 0.1676365 0.1664153 0.1654809
 0.1648941 0.1643859 0.1624013 0.1566397 0.1473145 0.1392715 0.1383328 0.1450262 0.1538621 0.1592369
 0.1601968 0.1590997 0.1579051 0.1570334 0.156399 0.156055 0.1560443 0.156265 0.1565064 0.1565441
 0.1562781 0.1557215 0.1547518 0.1528757 0.1492188 0.1428418 0.1334371 0.1219678 0.1104587 0.1009247
 0.09437712 0.09061094 0.08864069 0.08738962 0.08630629 0.08554485 0.08559892 0.08679606 0.0891219 0.09237012
 0.09628601 0.1005331 0.1046479 0.1081891 0.1109668 0.1130535 0.1145733 0.1155708 0.1160707 0.116141
 0.1158633 0.1153045 0.1145198 0.1135325 0.112323 0.1108812 0.1092903 0.1077554 0.1065215 0.105719
 0.1052852 0.1050619 0.10494 0.1048869 0.1048912 0.1049419 0.1050352 0.1051696 0.1053524 0.1056027
 0.1059153 0.1062352 0.1064967 0.1066743 0.1067823 0.1068332 0.1068005 0.1066372 0.1063588 0.1060636
 0.1057877 0.1053716 0.1045903 0.1034451 0.1022571 0.1014514 0.1012634 0.1016086 0.1021744 0.102647
 0.1028983 0.1029936 0.1030425 0.1030471</values></Ydata></ScSm><ScRf><Ydata ylabel="Single channel"><values byteorder="INTEL" format="FLOAT32" numvalues="1820"> 0.06961894 0.06974678 0.06986436 0.06996903 0.07006292 0.07015486 0.07025716 0.07037696 0.07051045 0.07064481
 0.07076757 0.07087657 0.07097754 0.07107146 0.07115422 0.07123248 0.0713266 0.07145004 0.07159235 0.07172625
 0.07183 0.07190696 0.07198645 0.07209499 0.07221974 0.07230995 0.07232453 0.07227691 0.07222737 0.07222857
 0.07229024 0.07241104 0.07261506 0.07289638 0.07313846 0.07318804 0.07304676 0.07290258 0.07292154 0.07308049
 0.07324144 0.07330617 0.07325732 0.0731443 0.07309985 0.07329865 0.07380013 0.07441787 0.07477459 0.07452014
 0.07356721 0.07221744 0.07108514 0.07077438 0.07144515 0.07263607 0.07360938 0.07394376 0.07376114 0.07341211
 0.0731098 0.07292609 0.07295446 0.07329206 0.07388395 0.07446117 0.07464764 0.07420883 0.07331619 0.07251183
 0.07226587 0.07261498 0.07332994 0.07419261 0.07478279 0.0742733 0.07216518 0.06939049 0.06801628 0.06933475
 0.0725119 0.07545395 0.07671202 0.07624847 0.0748311 0.07335617 0.07260938 0.07299779 0.07428619 0.07583168
 0.07709365 0.07777458 0.07768293 0.07682418 0.07558233 0.07455729 0.07423119 0.07482804 0.07622024 0.07779139
 0.07868536 0.07848321 0.07751703 0.07644086 0.07574857 0.07575491 0.07662566 0.07818013 0.07990304 0.0813235
 0.08226084 0.08272746 0.08281673 0.08268093 0.08245331 0.082228 0.08216292 0.08240022 0.08278382 0.08289032
 0.08250091 0.08189882 0.08158317 0.08175594 0.08215046 0.08235391 0.08221514 0.08176994 0.08082495 0.07905322
 0.07667007 0.07453425 0.07331013 0.07300329 0.07350963 0.07489758 0.07674384 0.07793175 0.07777719 0.07695548
 0.07677402 0.07775882 0.07932277 0.08061656 0.08135328 0.0818537 0.08254576 0.08348237 0.08422363 0.08416428
 0.08315335 0.08187775 0.08140564 0.08215272 0.08347736 0.08446777 0.08489764 0.08519328 0.08567848 0.08610351
 0.08586398 0.08465048 0.08299071 0.08206186 0.08271845 0.08464506 0.08652547 0.08703831 0.08579366 0.08354078
 0.0815427 0.08067186 0.08107335 0.08252545 0.08474876 0.0872694 0.08934557 0.09034273 0.09017023 0.08926684
 0.08812262 0.08682147 0.08521296 0.08362363 0.08304382 0.08420083 0.08662291 0.08901573 0.09045652 0.09090318
 0.09066568 0.08978114 0.08810028 0.08593814 0.08436328 0.08440483 0.08587919 0.08743789 0.08800095 0.08776694
 0.08759692 0.08784011 0.08814618 0.08818658 0.08814829 0.08846834 0.08927305 0.09021318 0.09083167 0.09098253
 0.09085895 0.09072188 0.09065329 0.09051053 0.09014605 0.08973999 0.08978222 0.09055687 0.09176074 0.09280798
 0.09340599 0.09366965 0.09376657 0.09363203 0.0930795 0.09216759 0.09137741 0.09127282 0.09195284 0.09297533
 0.09382541 0.09429922 0.0944557 0.09442186 0.09430684 0.09417427 0.09405808 0.09403381 0.09420358 0.09455743
 0.09493643 0.09518918 0.09529504 0.0953048 0.09523906 0.09509158 0.09489457 0.0947385 0.09471478 0.09484355
 0.09507037 0.09532337 0.09554297 0.09567162 0.09567493 0.09558488 0.09547926 0.09541044 0.09538408 0.09539971
 0.09547067 0.09559581 0.09573895 0.09585364 0.09591985 0.09594674 0.09594659 0.09592226 0.09588045 0.09584397
 0.09584378 0.09589796 0.09599335 0.09609415 0.0961834 0.09628448 0.09641595 0.09654059 0.09659748 0.09657838
 0.09653797 0.09653278 0.09657742 0.0966534 0.09673237 0.09678437 0.096783 0.0967246 0.09664954 0.09662889
 0.09671172 0.0968916 0.09712911 0.09738356 0.09761378 0.09778401 0.09789319 0.09797634 0.09806117 0.09814147
 0.0982009 0.09824741 0.09831683 0.09844556 0.09863484 0.0988444 0.09902686 0.09916213 0.09925745 0.09933781
 0.09944116 0.09958819 0.09974471 0.0998489 0.09989046 0.09993015 0.1000246 0.1001589 0.1002718 0.1003293
 0.100356 0.1004 0.1004826 0.1005871 0.1006891 0.1007864 0.1008975 0.1010322 0.1011633 0.1012371
 0.1012261 0.1011651 0.1011187 0.1011174 0.1011449 0.1011836 0.1012409 0.101323 0.1014068 0.1014555
 0.1014588 0.1014452 0.1014497 0.1014736 0.101485 0.101458 0.1014006 0.1013434 0.1013099 0.101301
 0.1013001 0.1012868 0.1012496 0.101189 0.1011141 0.1010342 0.1009544 0.1008797 0.1008278 0.1008239
 0.1008669 0.1009025 0.100855 0.1006983 0.1004849 0.1002974 0.1001777 0.1001047 0.100028 0.09991427
 0.09976591 0.09960721 0.09946021 0.09933183 0.09921643 0.09910704 0.09900701 0.09893206 0.09889302 0.09887242
 0.09882867 0.09873401 0.09860277 0.09847457 0.09837593 0.09830736 0.0982569 0.09821396 0.09817652 0.09815419
 0.09815674 0.09817411 0.09818 0.09816243 0.09813932 0.09813979 0.09818226 0.09826921 0.09838273 0.09848396
 0.0985394 0.09855683 0.09857967 0.09864111 0.09873745 0.09884848 0.09896608 0.0990947 0.09923674 0.09938972
 0.09955399 0.09973496 0.09993698 0.100157 0.1003843 0.1006067 0.1008202 0.1010349 0.101267 0.1015249
 0.1018021 0.1020827 0.1023551 0.10262 0.1028852 0.1031547 0.1034254 0.1036973 0.1039821 0.1042918
 0.1046218 0.104954 0.1052756 0.1055891 0.1059031 0.1062205 0.1065394 0.1068626 0.1072019 0.1075687
 0.107954 0.1083243 0.1086472 0.1089231 0.1091854 0.1094711 0.109794 0.1101393 0.1104756 0.1107775
 0.111047 0.1113126 0.1115983 0.1119001 0.1122004 0.1125009 0.1128269 0.1131924 0.1135706 0.1139083
 0.1141729 0.1143841 0.1145918 0.114825 0.1150693 0.1152972 0.1155073 0.115722 0.1159534 0.1161918
 0.1164299 0.1166797 0.1169527 0.1172357 0.1175007 0.1177347 0.1179452 0.1181413 0.1183189 0.118466
 0.1185772 0.1186653 0.11876 0.1188851 0.1190355 0.1191854 0.1193229 0.1194636 0.1196282 0.1198184
 0.1200261 0.1202499 0.120491 0.1207392 0.1209832 0.1212325 0.1215108 0.1218163 0.1221078 0.1223458
 0.1225379 0.1227228 0.122922 0.1231299 0.1233466 0.1235906 0.123874 0.1241819 0.1244856 0.1247685
 0.12504 0.1253256 0.125638 0.125954 0.1262299 0.126445 0.1266217 0.1268034 0.1270198 0.1272742
 0.1275514 0.1278326 0.128105 0.1283576 0.12857 0.1287196 0.1288073 0.1288636 0.1289157 0.1289521
 0.1289301 0.1288131 0.1285896 0.1282569 0.1278057 0.1272303 0.1265539 0.125842 0.1251882 0.1246846
 0.1243971 0.1243576 0.1245671 0.1249947 0.1255738 0.1262103 0.1268052 0.1272726 0.1275425 0.1275648
 0.1273254 0.1268553 0.1262148 0.1254666 0.1246635 0.1238469 0.1230487 0.1223063 0.1216924 0.1213269
 0.1213438 0.1218373 0.1228248 0.1242316 0.1258952 0.1276044 0.1291783 0.1305315 0.1316757 0.1326661
 0.1335532 0.1343713 0.1351454 0.1358895 0.1366023 0.1372742 0.1379008 0.1384848 0.1390252 0.1395106
 0.1399246 0.1402541 0.1404966 0.1406622 0.1407679 0.1408275 0.1408506 0.1408501 0.1408371 0.1407992
 0.1406927 0.140467 0.1400994 0.1396121 0.1390753 0.1386094 0.1383779 0.1385486 0.1392223 0.1403674
 0.1418206 0.1433634 0.1448165 0.1460789 0.1471131 0.1479249 0.1485547 0.1490624 0.1495017 0.1499061
 0.150292 0.1506647 0.1510234 0.151368 0.1517028 0.152035 0.1523701 0.1527096 0.1530498 0.1533848
 0.1537128 0.1540404 0.154378 0.1547303 0.1550897 0.1554419 0.1557815 0.1561197 0.1564686 0.1568216
 0.1571601 0.1574775 0.1577869 0.1581045 0.1584348 0.158773 0.1591098 0.1594341 0.1597377 0.160023
 0.1603004 0.1605792 0.1608612 0.1611435 0.1614249 0.1617075 0.1619935 0.1622821 0.1625689 0.1628489
 0.163119 0.1633775 0.1636266 0.1638727 0.1641243 0.1643851 0.164651 0.1649125 0.1651632 0.1654077
 0.1656592 0.1659262 0.1662033 0.1664762 0.1667343 0.1669781 0.1672149 0.1674512 0.1676909 0.1679359
 0.1681868 0.1684408 0.168693 0.1689427 0.1691925 0.1694427 0.1696896 0.1699318 0.1701737 0.170421
 0.1706737 0.1709276 0.1711796 0.1714306 0.1716845 0.1719429 0.172201 0.1724504 0.1726865 0.1729114
 0.173131 0.1733505 0.173574 0.173804 0.1740419 0.1742871 0.1745367 0.1747863 0.1750328 0.1752758
 0.1755165 0.1757558 0.1759942 0.1762316 0.1764677 0.1767039 0.1769423 0.1771828 0.1774234 0.1776639
 0.1779051 0.1781457 0.1783827 0.1786149 0.1788439 0.1790724 0.1793027 0.1795359 0.1797713 0.1800071
 0.1802428 0.1804784 0.1807142 0.1809511 0.1811899 0.1814286 0.1816641 0.1818951 0.1821225 0.1823495
 0.1825796 0.1828135 0.1830482 0.1832812 0.1835146 0.183752 0.1839941 0.184238 0.1844782 0.1847116
 0.1849413 0.185174 0.1854129 0.1856563 0.185901 0.1861431 0.186378 0.1866056 0.1868324 0.1870645
 0.1873035 0.187548 0.1877952 0.1880421 0.1882891 0.1885399 0.1887952 0.1890515 0.1893056 0.189556
 0.1898023 0.1900477 0.1902974 0.1905528 0.1908109 0.19107 0.1913286 0.1915816 0.1918238 0.1920547
 0.1922773 0.1924963 0.1927182 0.1929469 0.1931799 0.1934136 0.1936457 0.1938743 0.1940991 0.1943241
 0.1945534 0.1947874 0.1950276 0.1952767 0.1955334 0.195792 0.1960487 0.1963024 0.1965516 0.1967977
 0.197044 0.1972926 0.1975454 0.1978063 0.1980742 0.1983411 0.1986037 0.1988662 0.1991299 0.1993922
 0.1996536 0.1999165 0.2001804 0.2004454 0.2007114 0.2009747 0.201233 0.2014921 0.2017572 0.2020257
 0.2022953 0.2025672 0.2028391 0.2031088 0.2033803 0.2036565 0.203933 0.2042074 0.2044827 0.20476
 0.2050393 0.2053227 0.2056055 0.2058777 0.2061396 0.2064019 0.206669 0.2069388 0.2072119 0.2074844
 0.2077469 0.2079983 0.2082454 0.2084868 0.2087055 0.2088526 0.2087941 0.2082546 0.206783 0.2037573
 0.1984997 0.1905453 0.1799211 0.16723 0.1534846 0.1397918 0.1270522 0.1158346 0.1064439 0.09903885
 0.09371403 0.09057181 0.08978273 0.09167346 0.09684004 0.1057898 0.1176399 0.1290043 0.1352684 0.1340854
 0.1275022 0.1201034 0.1152819 0.1135809 0.1138536 0.1149676 0.1164729 0.1184758 0.1212487 0.1248256
 0.1289624 0.1335347 0.138769 0.1448961 0.151706 0.1586244 0.1651965 0.1713787 0.1773684 0.1832514
 0.188868 0.1939674 0.1983999 0.2021649 0.2053604 0.2081248 0.210583 0.2128153 0.21487 0.2167737
 0.2184963 0.2199312 0.2209557 0.2215309 0.2217519 0.2218019 0.221849 0.221973 0.2221798 0.222457
 0.2227984 0.2231983 0.2236513 0.2241524 0.2246863 0.2252311 0.2257721 0.2263015 0.226811 0.2272964
 0.2277606 0.2282052 0.2286295 0.2290372 0.229433 0.2298163 0.2301863 0.2305461 0.2308972 0.2312405
 0.2315803 0.2319177 0.2322457 0.232558 0.2328546 0.2331358 0.2334012 0.233656 0.2339084 0.2341622
 0.2344184 0.2346764 0.2349324 0.2351828 0.2354299 0.2356766 0.2359192 0.2361551 0.2363882 0.236624
 0.2368636 0.237107 0.2373532 0.2375987 0.2378398 0.2380747 0.2383031 0.2385272 0.2387529 0.2389854
 0.2392279 0.2394834 0.2397509 0.2400204 0.2402813 0.2405348 0.2407903 0.2410541 0.2413274 0.2416095
 0.241897 0.2421852 0.2424712 0.2427521 0.2430202 0.243267 0.2434926 0.243707 0.2439235 0.2441509
 0.2443877 0.244627 0.244866 0.2451075 0.2453524 0.245598 0.2458442 0.2460936 0.2463472 0.2466062
 0.2468736 0.2471487 0.2474272 0.2477086 0.2479953 0.2482857 0.2485757 0.2488668 0.2491615 0.2494539
 0.2497341 0.2500033 0.2502798 0.2505855 0.2509241 0.2512735 0.2516056 0.2519121 0.2522076 0.2525125
 0.2528378 0.2531754 0.2534921 0.2537546 0.2539746 0.254213 0.254524 0.2549021 0.2552975 0.2556682
 0.2560065 0.2563262 0.2566389 0.256943 0.2572276 0.2574841 0.2577219 0.2579763 0.2582873 0.2586592
 0.2590519 0.2594197 0.2597487 0.2600485 0.260333 0.2606153 0.26089 0.2611144 0.261252 0.2613536
 0.2615478 0.2619187 0.2624123 0.2628948 0.2632879 0.2636155 0.2639299 0.2642438 0.2645438 0.2648051
 0.2649589 0.2649246 0.2647575 0.2647028 0.2649973 0.2656303 0.2663686 0.2669917 0.2674405 0.2677706
 0.2680529 0.268324 0.2685655 0.2687087 0.2687074 0.2686435 0.2687176 0.269067 0.269611 0.2701387
 0.2705318 0.270831 0.2711191 0.2714254 0.2717113 0.2718512 0.2716869 0.2712444 0.2708789 0.2710425
 0.2718476 0.2729371 0.2738412 0.2743946 0.2747393 0.2749958 0.2750859 0.2748794 0.2743566 0.2736156
 0.272912 0.2726976 0.273325 0.2745959 0.2758431 0.2765991 0.2769964 0.2774286 0.2780381 0.2786567
 0.2790803 0.2792524 0.2792289 0.2790549 0.2787417 0.2784079 0.2783639 0.2788918 0.2799163 0.2810212
 0.2818407 0.2823482 0.282692 0.2827695 0.2821155 0.2804546 0.2784285 0.2774356 0.2783887 0.2807543
 0.2831293 0.2846279 0.2853665 0.2858097 0.2861649 0.2863238 0.2858506 0.284125 0.2811873 0.2784791
 0.2779677 0.2802056 0.2837108 0.286402 0.2871855 0.2861792 0.284189 0.2823377 0.2816615 0.2825456
 0.2845644 0.2869154 0.2888997 0.2901089 0.290451 0.2901148 0.2894959 0.2890895 0.2891728 0.289389
 0.2889762 0.2877569 0.2864828 0.2856809 0.2846928 0.2827523 0.2806904 0.2804182 0.2825601 0.2855484
 0.2874417 0.2879145 0.2879017 0.2877164 0.2862881 0.2825723 0.2774829 0.2738635 0.2740535 0.2775535
 0.2815218 0.2835679 0.2836413 0.2832189 0.2832277 0.2830658 0.2814984 0.2784048 0.2754678 0.2746725
 0.2760806 0.2777391 0.2778418 0.2760005 0.272308 0.2668855 0.2613655 0.2591947 0.2625948 0.2697968
 0.2766007 0.2799958 0.2791034 0.2739353 0.2657067 0.2581327 0.2557555 0.259757 0.2665781 0.2713611
 0.2717761 0.2681254 0.2613691 0.2527049 0.2445825 0.240397 0.2423276 0.2495831 0.2585522 0.264361
 0.2633566 0.2560353 0.2477789 0.2448054 0.2483185 0.2537081 0.2559731 0.2544321 0.2516772 0.2500456
 0.2503304 0.2522244 0.2546643 0.2566671 0.2580851 0.2582058 0.2543609 0.2448793 0.2334766 0.2272785
 0.2294732 0.2367544 0.2447254 0.252321 0.259331 0.26323 0.261867 0.257719 0.256301 0.2602789
 0.2669337 0.2716335 0.2725368 0.2713406 0.2702034 0.2691737 0.2672624 0.265219 0.2655702 0.269472
 0.2748995 0.278846 0.2803404 0.2804498 0.2802597 0.2799592 0.2793998 0.2785465 0.2774413 0.2762216
 0.2751068 0.2741558 0.2732216 0.272235 0.2711374 0.2692675 0.2654102 0.2593781 0.2533627 0.2504212
 0.2512656 0.2538209 0.2562148 0.2581327 0.2583124 0.2535193 0.242768 0.2311051 0.2261356 0.2306726
 0.2404979 0.2490989 0.2528182 0.2513105 0.2453403 0.2364219 0.2283603 0.2265884 0.2339785 0.2478339
 0.2623194 0.2734051 0.2803921 0.2836298 0.2829593 0.2788808 0.273858 0.2713385 0.2733821 0.2793088
 0.2862189 0.2903393 0.2886641 0.281434 0.2737781 0.2726108 0.2797727 0.2895836 0.2951129 0.2954395
 0.2946227 0.2952601 0.2962658 0.2964469 0.2970031 0.2995153 0.3033571 0.3062208 0.3061894 0.302545
 0.2957531 0.2880134 0.282909 0.2825698 0.2853158 0.2875811 0.2875732 0.2853013 0.2803272 0.272736
 0.2659474 0.264886 0.2703829 0.2779163 0.2827681 0.2844208 0.2850953 0.2857531 0.2849618 0.2812913
 0.2758542 0.2718241 0.2713255 0.273431 0.2756867 0.2767694 0.27669 0.2752553 0.2720793 0.2682353
 0.2664044 0.2684919 0.2735864 0.2788475 0.2821133 0.2832186 0.2831742 0.2828611 0.2825592 0.2821053
 0.2813216 0.2806227 0.2810474 0.2831557 0.2860578 0.2882276 0.289269 0.2902399 0.292156 0.2947423
 0.296849 0.2977242 0.2976745 0.2976793 0.2985134 0.3001147 0.301644 0.3022231 0.3017986 0.3013048
 0.3018228 0.3035507 0.3057233 0.3074906 0.3086281 0.309421 0.3101851 0.3109971 0.3116553 0.3118477
 0.3115638 0.3113514 0.3119115 0.3133711 0.3151318 0.3164768 0.3171634 0.3173925 0.3173979 0.31722
 0.3168195 0.3162661 0.3157491 0.3154308 0.3153324 0.3153606 0.3154094 0.3154228 0.315401 0.3153856
 0.3154282 0.3155478 0.3157248 0.315935 0.3161647 0.3163852 0.3165534 0.31666 0.3167423 0.3168249
 0.3168696 0.316803 0.316567 0.3161253 0.3154399 0.3144699 0.3131838 0.3115514 0.3095472 0.3072394
 0.3049464 0.3032742 0.3028691 0.3040069 0.3063723 0.309236 0.3118699 0.3138623 0.3151594 0.3159106
 0.3162996 0.3164611 0.3164722 0.3163703 0.3161748 0.3159042 0.3155803 0.315224 0.3148566 0.3145043
 0.3141891 0.3139139 0.313657 0.3133825 0.313057 0.3126623 0.3121979 0.3116715 0.3110881 0.3104405
 0.3097073 0.3088651 0.307915 0.3068988 0.305884 0.3049244 0.3040307 0.3031723 0.3023046 0.3013872
 0.3003686 0.2991795 0.2977981 0.2963405 0.2950296 0.294018 0.2932506 0.2925297 0.2916911 0.2906912
 0.2895632 0.2883512 0.2870887 0.2857968 0.2844769 0.28311 0.2816678 0.2801261 0.278477 0.2767336
 0.2749183 0.2730477 0.271134 0.2691875 0.2671957 0.2650907 0.2627442 0.2600006 0.2567199 0.2528073
 0.248234 0.2430588 0.2374374 0.2315958 0.2257717 0.220165 0.2149311 0.2102017 0.2060971 0.2027166
 0.200125 0.198354 0.1974194 0.1973318 0.1980885 0.1996535 0.2019475 0.2048519 0.2082159 0.2118589
 0.2155777 0.2191738 0.2225083 0.225549 0.2283558 0.2309975 0.2334797 0.2357524 0.2377729 0.2395386
 0.2410649 0.2423584 0.2434233 0.2442837 0.2449867 0.2455806 0.2460948 0.2465352 0.2468953 0.2471733
 0.2473829 0.2475512 0.2477065 0.2478699 0.2480545 0.2482692 0.248521 0.2488194 0.2491808 0.2496228
 0.2501541 0.2507673 0.251442 0.2521581 0.2529097 0.2537104 0.2545896 0.2555844 0.2567297 0.258046
 0.2595288 0.2611424 0.2628158 0.2644471 0.2659262 0.2671663 0.2681218 0.2687864 0.2691787 0.2693284
 0.2692665 0.2690222 0.2686208 0.2680838 0.2674333 0.2666986 0.2659088 0.2650792 0.2642058 0.2632784
 0.2622989 0.2612905 0.2602872 0.25931 0.2583578 0.257423 0.2565077 0.2556185 0.2547584 0.2539279
 0.2531276 0.2523568 0.2516172 0.2509134 0.2502416 0.2495814 0.248899 0.2481525 0.2472958 0.2462912
 0.2451225 0.2437912 0.2423066 0.2406837 0.2389433 0.2371054 0.2351827 0.2331804 0.2311014 0.2289475
 0.2267128 0.2243855 0.2219756 0.2195452 0.2171915 0.2149918 0.2129704 0.211111 0.2093799 0.207745
 0.2061891 0.2047066 0.2032889 0.2019245 0.2006135 0.1993646 0.1981841 0.1970732 0.1960346 0.1950772
 0.194219 0.1934793 0.19286 0.1923419 0.1919034 0.1915327 0.1912309 0.1910248 0.1909562 0.1910292
 0.1911747 0.1912907 0.1913126 0.1912456 0.1911448 0.1910704 0.191048 0.1910669 0.191098 0.1910921
 0.1909686 0.1906336 0.1900045 0.1890135 0.1876177 0.1858316 0.1837414 0.1814865 0.1792349 0.1771504
 0.1753507 0.1738938 0.1727888 0.1719904 0.1714028 0.1709387 0.1705843 0.1703981 0.1704557 0.1707686
 0.1712156 0.171587 0.1717691 0.1718738 0.1721434 0.1727402 0.1736431 0.1746987 0.1757354 0.1766487
 0.1774043 0.177991 0.1784068 0.178677 0.1788354 0.1788914 0.1788411 0.1786889 0.1784354 0.178079
 0.1776319 0.1771032 0.1764809 0.1757596 0.1749533 0.1740627 0.1730733 0.171982 0.1707759 0.1694222
 0.1679632 0.1666014 0.1656324 0.1652864 0.1656088 0.1664419 0.167537 0.1687185 0.1699029 0.1709802
 0.1718264 0.1725016 0.1733309 0.1746832 0.1766598 0.1789933 0.1812381 0.1830551 0.1843126 0.1849853
 0.1850872 0.1846858 0.1838449 0.182556 0.1808257 0.1787667 0.1765266 0.1742298 0.1720236 0.1700448
 0.1683459 0.1669416 0.165836 0.1650189 0.1645426 0.1641337 0.1622341 0.1565406 0.1472742 0.1393034
 0.1384742 0.1453117 0.1542921 0.1597719 0.1607817 0.1596877 0.1584649 0.1575464 0.1568584 0.1564609
 0.1563952 0.1565565 0.1567428 0.1567454 0.1564724 0.1559283 0.1549735 0.1531047 0.1494481 0.143068
 0.1336568 0.1221741 0.1106426 0.1010787 0.09450133 0.09071814 0.08875258 0.08752139 0.08645478 0.08569732
 0.08575203 0.08695988 0.08930711 0.09258042 0.09652385 0.1008038 0.1049551 0.1085325 0.1113479 0.1134762
 0.1150366 0.1160651 0.1165836 0.1166633 0.1163892 0.1158331 0.1150566 0.1140883 0.1129099 0.1115121
 0.1099781 0.1085087 0.1073391 0.1065892 0.1061935 0.1060002 0.1059136 0.1059109 0.1059771 0.1060859
 0.106221 0.1063839 0.1065974 0.1068932 0.1072636 0.1076384 0.1079375 0.1081296 0.1082286 0.1082464
 0.108156 0.1079104 0.1075253 0.107104 0.1066984 0.1061664 0.1052861 0.1040454 0.1027548 0.1018504
 0.1015941 0.1019167 0.1024925 0.1029755 0.1032133 0.1032687 0.1032609 0.1032029 0.1029889 0.1025259
</values></Ydata></ScRf><Data_Parameters_AB><parameter name="DPF">1</parameter><parameter name="NPT">3497</parameter><parameter name="FXV">3996</parameter><parameter name="LXV">500</parameter><parameter name="CSF">1</parameter><parameter name="MXY">0.0200890768319368</parameter><parameter name="MNY">-0.10451927036047</parameter><parameter name="DAT">17/01/2024</parameter><parameter name="TIM">13:37:22.753 (GMT+1)</parameter><parameter name="DXU">WN</parameter></Data_Parameters_AB><AB__Qtest><MainReport name="Quality Test Report"><Header><Line><Legend>Test result ok/not ok [1/0]: </Legend><Value>0</Value></Line><Line><Legend>Method file: </Legend><Value>C:\Users\Public\Documents\Bruker\OPUS_8.2.28\QT\IRBT_v3_default.QT</Value></Line></Header><Matrix><Line><Legend></Legend><Legend>min</Legend><Legend>max</Legend><Legend>measured</Legend></Line><Line><Value>Absorption (X-Range 1):</Value><Value>0.400000</Value><Value>2.000000</Value><Value>0.085614</Value></Line><Line><Value>Noise (X-Range 4):</Value><Value></Value><Value>0.000300</Value><Value>0.000256</Value></Line><Line><Value>Signal/Noise (X-Range 2):</Value><Value>200.000000</Value><Value></Value><Value>6.641985</Value></Line><Line><Value>Signal/Noise (X-Range 3):</Value><Value>40.000000</Value><Value></Value><Value>1.275953</Value></Line><Line><Value>Water vapour (X-Range 5):</Value><Value></Value><Value>0.000300</Value><Value>0.000009</Value></Line><Line><Value>Signal/Water (X-Range 2):</Value><Value>100.000000</Value><Value></Value><Value>182.752051</Value></Line><Line><Value>Signal/Water (X-Range 3):</Value><Value>20.000000</Value><Value></Value><Value>35.107416</Value></Line><Line><Value>Fringes (X-Range 6):</Value><Value></Value><Value>0.000100</Value><Value>0.000179</Value></Line></Matrix></MainReport></AB__Qtest><Data_Parameters_ScSm><parameter name="DPF">1</parameter><parameter name="NPT">1814</parameter><parameter name="FXV">3996.63438082617</parameter><parameter name="LXV">499.579297603271</parameter><parameter name="CSF">1</parameter><parameter name="MXY">0.348590135574341</parameter><parameter name="MNY">0.0855448469519615</parameter><parameter name="DAT">17/01/2024</parameter><parameter name="TIM">13:37:22.753 (GMT+1)</parameter><parameter name="DXU">WN</parameter></Data_Parameters_ScSm><Data_Parameters_ScRf><parameter name="DPF">1</parameter><parameter name="NPT">1820</parameter><parameter name="FXV">4004.34989121387</parameter><parameter name="LXV">495.721542409425</parameter><parameter name="CSF">1</parameter><parameter name="MXY">0.317397922277451</parameter><parameter name="MNY">0.0680162757635117</parameter><parameter name="DAT">17/01/2024</parameter><parameter name="TIM">13:36:56.400 (GMT+1)</parameter><parameter name="DXU">WN</parameter></Data_Parameters_ScRf><Optic_Parameters_Rf><parameter name="APR">0</parameter><parameter name="APT">Open</parameter><parameter name="BMS">KBr</parameter><parameter name="DTC">RT-DLaTGS_IR-Biotyper [Microplate reader]</parameter><parameter name="HPF">0</parameter><parameter name="LPF">10.0</parameter><parameter name="LPV">4000</parameter><parameter name="PGR">0</parameter><parameter name="RCH">Module port</parameter><parameter name="RDX">0</parameter><parameter name="SRC">MIR</parameter><parameter name="VEL">10.0</parameter><parameter name="SON">Off</parameter></Optic_Parameters_Rf><Acquisition_Parameters_Rf><parameter name="ADT">1</parameter><parameter name="AQM">DD</parameter><parameter name="CFE">0</parameter><parameter name="COR">0</parameter><parameter name="DEL">0</parameter><parameter name="DLY">0</parameter><parameter name="HFW">8000</parameter><parameter name="LFW">0</parameter><parameter name="NSR">32</parameter><parameter name="PLF">AB</parameter><parameter name="RES">6</parameter><parameter name="RGN">-1</parameter><parameter name="STR">0</parameter><parameter name="TCL">MakeCompatibleScalar (0, {WSV=1.000000, ARV=0});</parameter><parameter name="TDL">37</parameter><parameter name="RPO">0</parameter></Acquisition_Parameters_Rf><FT_-_Parameters_Rf><parameter name="APF">B3</parameter><parameter name="HFQ">500</parameter><parameter name="LFQ">4000</parameter><parameter name="NLI">0</parameter><parameter name="PHR">24</parameter><parameter name="PHZ">ML</parameter><parameter name="SPZ">NO</parameter><parameter name="ZFF">1</parameter></FT_-_Parameters_Rf><Optic_Parameters_><parameter name="APR">0</parameter><parameter name="APT">Open</parameter><parameter name="BMS">KBr</parameter><parameter name="CHN">Module port</parameter><parameter name="DTC">RT-DLaTGS_IR-Biotyper [Microplate reader]</parameter><parameter name="HPF">0</parameter><parameter name="LPF">10.0</parameter><parameter name="LPV">4000</parameter><parameter name="PGN">0</parameter><parameter name="RDX">0</parameter><parameter name="SRC">MIR</parameter><parameter name="VEL">10.0</parameter><parameter name="SON">Off</parameter></Optic_Parameters_><FT_-_Parameters_><parameter name="APF">B3</parameter><parameter name="HFQ">500</parameter><parameter name="LFQ">4000</parameter><parameter name="NLI">0</parameter><parameter name="PHR">24</parameter><parameter name="PHZ">ML</parameter><parameter name="SPZ">NO</parameter><parameter name="ZFF">1</parameter></FT_-_Parameters_><Acquisition_Parameters_><parameter name="ADT">1</parameter><parameter name="AQM">DD</parameter><parameter name="CFE">0</parameter><parameter name="COR">0</parameter><parameter name="DEL">0</parameter><parameter name="DLY">0</parameter><parameter name="HFW">8000</parameter><parameter name="LFW">0</parameter><parameter name="NSS">32</parameter><parameter name="PLF">AB</parameter><parameter name="RES">6</parameter><parameter name="SOT">0</parameter><parameter name="TCL">MakeCompatibleScalar (0, {WSV=1.000000, ARV=0});</parameter><parameter name="TDL">37</parameter><parameter name="SPO">0</parameter><parameter name="SGN">-1</parameter></Acquisition_Parameters_><Instrument_Parameters_Rf><parameter name="HFL">15801.365274</parameter><parameter name="LFL">0</parameter><parameter name="LWN">15801.365274</parameter><parameter name="ABP">32157</parameter><parameter name="SSP">1</parameter><parameter name="ARG">2</parameter><parameter name="ASG">2</parameter><parameter name="ASS">32</parameter><parameter name="GFW">16</parameter><parameter name="GBW">16</parameter><parameter name="BFW">0</parameter><parameter name="BBW">0</parameter><parameter name="PKA">9109</parameter><parameter name="PKL">4987</parameter><parameter name="PRA">9119</parameter><parameter name="PRL">5010</parameter><parameter name="P2A">1</parameter><parameter name="P2L">1</parameter><parameter name="P2R">1</parameter><parameter name="P2K">1</parameter><parameter name="DAQ">0</parameter><parameter name="AG2">1</parameter><parameter name="SSM">1</parameter><parameter name="RSN">46376</parameter><parameter name="CRR">0</parameter><parameter name="SRT">1705498616.4</parameter><parameter name="DUR">19.6449890136719</parameter><parameter name="TSC">30.9</parameter><parameter name="MVD">0.603329122066498</parameter><parameter name="AN1">0.225996799720498</parameter><parameter name="AN2">0</parameter><parameter name="VSN">2.485 Apr  4 2017</parameter><parameter name="SRN">0085</parameter><parameter name="CAM">0</parameter><parameter name="INS">IR-Biotyper</parameter><parameter name="FOC">69</parameter><parameter name="RDY">1</parameter><parameter name="ARS">32</parameter></Instrument_Parameters_Rf><Sample_Parameters_><parameter name="BLD"></parameter><parameter name="CNM">Admin</parameter><parameter name="CPY"></parameter><parameter name="DPM"></parameter><parameter name="EXP">IRBT_v3_32Scans.XPM</parameter><parameter name="LCT"></parameter><parameter name="SFM">Microplate, HTS-XT</parameter><parameter name="SNM">240117-1222-Cdiff_SCFA_1_C11_232109641_C10_56afdf79-a621-4a35-b000-4f9eda8775a4.0</parameter><parameter name="XPP">C:\Users\Public\Documents\Bruker\OPUS_8.2.28\XPM</parameter><parameter name="IST">OK</parameter><parameter name="CPG">1252</parameter><parameter name="UID">0609dc84-b9b7-4faf-a496-5bfbc03237fc</parameter></Sample_Parameters_><Instrument_Parameters_><parameter name="HFL">15801.365274</parameter><parameter name="LFL">0</parameter><parameter name="LWN">15801.365274</parameter><parameter name="ABP">32157</parameter><parameter name="SSP">1</parameter><parameter name="ASG">2</parameter><parameter name="ARG">2</parameter><parameter name="ASS">32</parameter><parameter name="GFW">16</parameter><parameter name="GBW">16</parameter><parameter name="BFW">0</parameter><parameter name="BBW">0</parameter><parameter name="PKA">10288</parameter><parameter name="PKL">4987</parameter><parameter name="PRA">10441</parameter><parameter name="PRL">5010</parameter><parameter name="P2A">1</parameter><parameter name="P2L">1</parameter><parameter name="P2R">1</parameter><parameter name="P2K">1</parameter><parameter name="DAQ">0</parameter><parameter name="AG2">1</parameter><parameter name="SSM">1</parameter><parameter name="RSN">23881</parameter><parameter name="CRR">0</parameter><parameter name="SRT">1705498642.753</parameter><parameter name="DUR">19.6449890136719</parameter><parameter name="TSC">30.9</parameter><parameter name="MVD">0.437658131122589</parameter><parameter name="AN1">0.226013047799255</parameter><parameter name="AN2">0</parameter><parameter name="VSN">2.485 Apr  4 2017</parameter><parameter name="SRN">0085</parameter><parameter name="CAM">0</parameter><parameter name="INS">IR-Biotyper</parameter><parameter name="FOC">69</parameter><parameter name="RDY">1</parameter></Instrument_Parameters_><History/></OPUSDataFile>
