<?xml version="1.0" encoding="UTF-8" ?>
<OPUSDataFile><AB><Ydata ylabel="Absorbance Units"><values byteorder="INTEL" format="FLOAT32" numvalues="3497"> -0.1016935 -0.1016908 -0.1016817 -0.1016677 -0.1016533 -0.1016403 -0.1016355 -0.1016379 -0.1016505 -0.1016672
 -0.1016838 -0.101693 -0.1016871 -0.1016667 -0.1016278 -0.1015815 -0.1015301 -0.1014846 -0.1014488 -0.1014214
 -0.1014036 -0.1013866 -0.1013697 -0.1013499 -0.1013273 -0.1013078 -0.1012915 -0.1012831 -0.1012819 -0.1012869
 -0.1012973 -0.1013098 -0.1013237 -0.1013358 -0.1013453 -0.101349 -0.1013475 -0.1013397 -0.1013286 -0.1013157
 -0.1013046 -0.1012978 -0.1012949 -0.1012967 -0.1012998 -0.1013033 -0.1013052 -0.101305 -0.1013044 -0.1013037
 -0.1013056 -0.1013101 -0.1013168 -0.1013254 -0.1013317 -0.1013353 -0.1013324 -0.1013235 -0.1013085 -0.1012893
 -0.1012693 -0.1012506 -0.1012382 -0.1012323 -0.101236 -0.1012453 -0.1012593 -0.1012711 -0.1012766 -0.1012728
 -0.1012567 -0.1012334 -0.1012029 -0.1011742 -0.101149 -0.1011322 -0.1011247 -0.1011238 -0.1011295 -0.1011331
 -0.1011342 -0.1011242 -0.101104 -0.1010733 -0.1010349 -0.1009989 -0.100968 -0.1009541 -0.1009565 -0.1009802
 -0.1010192 -0.1010703 -0.1011239 -0.1011731 -0.1012087 -0.1012234 -0.1012169 -0.1011853 -0.1011412 -0.1010856
 -0.1010362 -0.1009965 -0.1009734 -0.1009687 -0.1009716 -0.1009814 -0.1009816 -0.1009723 -0.1009498 -0.1009163
 -0.1008826 -0.1008504 -0.1008314 -0.1008227 -0.1008244 -0.1008311 -0.1008337 -0.1008305 -0.1008144 -0.1007908
 -0.1007605 -0.100732 -0.1007107 -0.1006996 -0.1007025 -0.1007131 -0.1007315 -0.1007472 -0.1007584 -0.1007591
 -0.1007481 -0.1007276 -0.1006974 -0.1006654 -0.100632 -0.1006064 -0.1005888 -0.1005857 -0.1005958 -0.1006198
 -0.1006523 -0.1006821 -0.1007032 -0.1006977 -0.1006695 -0.1006138 -0.1005434 -0.1004673 -0.1003944 -0.1003331
 -0.1002835 -0.100248 -0.100223 -0.1002082 -0.1002013 -0.1002022 -0.1002073 -0.1002166 -0.1002225 -0.1002246
 -0.1002186 -0.1002048 -0.1001863 -0.1001635 -0.1001401 -0.1001151 -0.1000866 -0.1000545 -0.1000164 -0.09997484
 -0.09993271 -0.09989308 -0.09986154 -0.0998371 -0.09982208 -0.09981062 -0.09980082 -0.09978573 -0.09976212 -0.09972665
 -0.09967684 -0.09961701 -0.09954641 -0.09947722 -0.09941027 -0.09935888 -0.09932392 -0.09930895 -0.0993133 -0.09932725
 -0.09934962 -0.09936757 -0.09938141 -0.09938563 -0.09938098 -0.0993667 -0.09934298 -0.09930902 -0.0992669 -0.09921789
 -0.0991664 -0.09911667 -0.09907097 -0.09903265 -0.0989991 -0.09897055 -0.09894248 -0.09891365 -0.09888158 -0.09884541
 -0.09880575 -0.0987624 -0.09871837 -0.09867381 -0.09863231 -0.09859392 -0.09855961 -0.09852897 -0.09849979 -0.09847175
 -0.09844223 -0.09841166 -0.09837969 -0.09834721 -0.09831551 -0.09828532 -0.09825841 -0.09823384 -0.09821183 -0.09818998
 -0.09816677 -0.09814129 -0.09811265 -0.09808137 -0.09804773 -0.09801048 -0.09796944 -0.09792358 -0.09787223 -0.09782159
 -0.09777194 -0.09773342 -0.09770598 -0.09768981 -0.09768313 -0.09767345 -0.09766012 -0.09763333 -0.09759509 -0.09754613
 -0.09748723 -0.09741998 -0.09734511 -0.09726238 -0.09717772 -0.09709509 -0.09702209 -0.09696595 -0.09692493 -0.0969028
 -0.09688461 -0.09686736 -0.09683785 -0.09679149 -0.09673315 -0.09666198 -0.09659389 -0.09652995 -0.09647807 -0.09643792
 -0.09640229 -0.09636988 -0.09632742 -0.0962754 -0.09620797 -0.09612823 -0.09604112 -0.09595011 -0.09586399 -0.09578417
 -0.09571707 -0.09565953 -0.09561266 -0.09556791 -0.09552084 -0.0954641 -0.09539185 -0.09530777 -0.09521065 -0.09511021
 -0.09500845 -0.09490927 -0.09481387 -0.09471819 -0.09462209 -0.09452062 -0.09441379 -0.09430233 -0.09418672 -0.09407102
 -0.09395546 -0.09384338 -0.0937343 -0.0936292 -0.09352613 -0.09342297 -0.09331547 -0.09319778 -0.09306534 -0.09291105
 -0.09273573 -0.09253577 -0.09232061 -0.09209193 -0.09186305 -0.09163834 -0.09142535 -0.09122741 -0.09104001 -0.09086377
 -0.09068581 -0.09050538 -0.09031043 -0.09010062 -0.08987119 -0.08962269 -0.08935731 -0.0890758 -0.08878285 -0.08847827
 -0.08816366 -0.08783901 -0.08750422 -0.08716151 -0.08681341 -0.08646266 -0.08611329 -0.08576488 -0.08541912 -0.08507228
 -0.08472363 -0.0843684 -0.08400568 -0.08362912 -0.08323745 -0.08282539 -0.0823914 -0.08194011 -0.08147141 -0.08099833
 -0.08052135 -0.08004852 -0.07957919 -0.07911179 -0.07864508 -0.07817271 -0.07769398 -0.077203 -0.07670142 -0.07618906
 -0.07566937 -0.0751479 -0.07462417 -0.0741017 -0.0735727 -0.07303321 -0.07247707 -0.07189833 -0.07130333 -0.07069169
 -0.07007464 -0.06945483 -0.06883654 -0.06822097 -0.06760661 -0.06699356 -0.06637824 -0.0657604 -0.06513446 -0.06450013
 -0.06385262 -0.06319207 -0.06251656 -0.06182651 -0.06112164 -0.06040359 -0.05967483 -0.05893834 -0.05819978 -0.05745958
 -0.05672121 -0.05598098 -0.05523726 -0.05448793 -0.05373071 -0.05296836 -0.052201 -0.05143237 -0.05066331 -0.04989584
 -0.04913039 -0.0483676 -0.04760775 -0.04684667 -0.04608399 -0.04531058 -0.0445264 -0.04372697 -0.04291388 -0.0420927
 -0.04126441 -0.04043559 -0.03960447 -0.03877063 -0.03793206 -0.03708514 -0.03623033 -0.03536593 -0.03449539 -0.03362001
 -0.03274418 -0.03187108 -0.03100001 -0.03013285 -0.02926105 -0.02838328 -0.02749209 -0.02658539 -0.02566749 -0.02473824
 -0.0238086 -0.02287899 -0.02195389 -0.02103279 -0.02011241 -0.0191923 -0.01826832 -0.01734112 -0.01641008 -0.01547716
 -0.01454629 -0.01361847 -0.01269843 -0.01178179 -0.01086725 -0.009946725 -0.009013046 -0.008065107 -0.007098211 -0.006122699
 -0.005140086 -0.004162476 -0.003193382 -0.002236403 -0.001293204 -0.0003584978 0.0005677923 0.001494446 0.002421862 0.003355064
 0.004293669 0.005235531 0.006180264 0.007124366 0.00806878 0.009014978 0.009963281 0.0109156 0.01187055 0.01282653
 0.0137835 0.01474038 0.01569875 0.01666042 0.01762299 0.01858673 0.01954579 0.02049815 0.0214405 0.02237127
 0.02329195 0.0242023 0.02510568 0.02600222 0.02689688 0.02778994 0.02868636 0.02958615 0.03049112 0.031401
 0.03231554 0.03323437 0.03415694 0.03508136 0.0360035 0.03692116 0.03782838 0.03872634 0.03961346 0.04049329
 0.04136813 0.04223979 0.04310964 0.04397902 0.04484848 0.04571974 0.04659428 0.04746727 0.0483389 0.04919877
 0.05004565 0.05087784 0.05169532 0.05250877 0.05331869 0.05413444 0.05495529 0.05578194 0.0566134 0.05744673
 0.05828139 0.05911496 0.05994697 0.06077534 0.0616008 0.06242349 0.06324369 0.06406276 0.06487705 0.06568553
 0.06648371 0.067269 0.06804249 0.06880356 0.06955614 0.0703008 0.07103963 0.07177284 0.07250224 0.07322793
 0.07395227 0.07467525 0.07539727 0.07611834 0.07683858 0.07755838 0.07827973 0.07900204 0.07972564 0.08044799
 0.08116503 0.08187544 0.08257585 0.08326707 0.08394887 0.08462143 0.08528481 0.08593894 0.08658324 0.08722034
 0.0878505 0.08847716 0.08910105 0.08972316 0.09034371 0.09096218 0.09157856 0.09219245 0.09280374 0.09341096
 0.09401391 0.09461051 0.09520097 0.09578497 0.09636293 0.0969357 0.09750351 0.09806704 0.09862632 0.0991821
 0.09973272 0.1002775 0.1008138 0.1013395 0.1018547 0.1023582 0.1028539 0.1033427 0.1038277 0.1043099
 0.1047873 0.1052602 0.1057225 0.1061738 0.1066085 0.1070268 0.1074294 0.1078177 0.1082012 0.1085805
 0.1089642 0.1093483 0.1097287 0.1101 0.1104502 0.1107801 0.1110842 0.1113697 0.1116404 0.1119036
 0.1121646 0.1124266 0.112692 0.1129614 0.1132354 0.1135132 0.1137948 0.1140799 0.1143686 0.1146627
 0.1149625 0.1152662 0.1155731 0.1158702 0.116156 0.1164119 0.1166387 0.1168278 0.1169844 0.117117
 0.1172317 0.1173441 0.117455 0.1175725 0.1176916 0.1178101 0.1179268 0.1180383 0.1181519 0.1182697
 0.1183963 0.1185355 0.1186767 0.1188197 0.1189488 0.1190618 0.1191566 0.1192328 0.1193034 0.1193689
 0.119441 0.1195185 0.1196006 0.1196849 0.1197608 0.1198269 0.1198734 0.1199026 0.1199127 0.119911
 0.1199045 0.1199012 0.1199108 0.1199366 0.1199844 0.1200496 0.1201336 0.1202241 0.120319 0.1204044
 0.1204773 0.1205315 0.120565 0.1205842 0.1205891 0.1205914 0.1205915 0.1205975 0.1206098 0.1206355
 0.1206768 0.1207461 0.120844 0.1209818 0.1211504 0.1213434 0.1215404 0.1217148 0.1218493 0.1219155
 0.1219206 0.1218543 0.1217513 0.1216203 0.1215001 0.1214047 0.1213485 0.1213397 0.1213598 0.1214095
 0.1214509 0.1214815 0.1214676 0.1214087 0.1212979 0.1211392 0.1209569 0.1207548 0.1205631 0.1203789
 0.1202113 0.1200527 0.1198927 0.1197284 0.1195503 0.1193645 0.1191725 0.1189825 0.1188014 0.1186277
 0.1184657 0.1182974 0.1181212 0.1179109 0.1176608 0.1173588 0.1170009 0.1166044 0.1161701 0.1157314
 0.1152897 0.1148674 0.1144629 0.1140769 0.1137066 0.113342 0.1129809 0.1126122 0.112235 0.1118411
 0.1114346 0.1110159 0.1105936 0.1101769 0.1097668 0.1093703 0.1089736 0.1085733 0.1081555 0.107713
 0.1072498 0.1067636 0.1062733 0.1057804 0.1053029 0.1048423 0.1044068 0.1039963 0.1036042 0.1032277
 0.1028427 0.1024463 0.1020113 0.101542 0.1010338 0.1004984 0.09995656 0.0994162 0.09889877 0.09840031
 0.09792573 0.0974661 0.09701665 0.09657311 0.09613246 0.09569317 0.09525495 0.09481344 0.09436809 0.0939137
 0.09344941 0.09297328 0.09248494 0.09198817 0.09148332 0.09097872 0.09047475 0.08997885 0.08948986 0.0890072
 0.08852816 0.08804426 0.08755511 0.08705451 0.08654696 0.08603543 0.08552518 0.08502332 0.08452923 0.08404597
 0.08356682 0.08308969 0.08260918 0.08212249 0.08163045 0.08113247 0.08063174 0.08012872 0.07962407 0.07911792
 0.07860897 0.07809723 0.07758297 0.07706641 0.07654949 0.0760323 0.0755162 0.07500117 0.07448775 0.07397608
 0.07346699 0.07295985 0.07245454 0.07194946 0.07144267 0.07093433 0.07042303 0.06991266 0.06940439 0.06890209
 0.06840817 0.06791992 0.06743757 0.06695588 0.06647343 0.06599441 0.06551871 0.06505912 0.06461594 0.06419116
 0.06378259 0.06337147 0.0629557 0.06251351 0.06204876 0.0615599 0.06105551 0.06055226 0.06005581 0.05958237
 0.05913036 0.0587057 0.0583002 0.05791179 0.05752828 0.05714377 0.05674963 0.05634005 0.05592011 0.05548822
 0.05506048 0.05463906 0.05423316 0.05384414 0.05346617 0.05309898 0.05273632 0.05237933 0.05203605 0.05170847
 0.05141197 0.05114437 0.05090953 0.05069869 0.0504971 0.05029448 0.05006859 0.04981748 0.04952747 0.04921169
 0.04887223 0.04852964 0.04819503 0.04787759 0.04758531 0.04730805 0.04704573 0.04678446 0.04652135 0.04625656
 0.04598947 0.04573027 0.04547932 0.04523962 0.04501034 0.04478376 0.04455964 0.04433214 0.04410311 0.04387547
 0.04365038 0.04343275 0.04322002 0.04301127 0.04280202 0.04258722 0.04236453 0.04213019 0.04188562 0.04163052
 0.0413667 0.04109564 0.04081395 0.04052237 0.04021059 0.03987749 0.03951326 0.03911644 0.0386906 0.03823618
 0.03777401 0.03730569 0.03685607 0.0364242 0.03601976 0.03563759 0.035267 0.03490224 0.03452489 0.03413425
 0.03371976 0.03328738 0.03283832 0.03238132 0.03192292 0.031469 0.03102473 0.03059029 0.03016767 0.02975195
 0.02934301 0.02893312 0.02852094 0.02810303 0.02767848 0.02725434 0.026831 0.02642049 0.02602239 0.02563715
 0.02526199 0.02488177 0.02449548 0.02408988 0.02367019 0.02324078 0.02280837 0.02238681 0.02197537 0.0215801
 0.02119368 0.02081192 0.02043171 0.02004892 0.01966834 0.01929075 0.01892011 0.01855826 0.01820254 0.0178528
 0.01750641 0.01716273 0.01682651 0.01649805 0.01618766 0.01589564 0.01562939 0.01538761 0.01516801 0.01496704
 0.01477211 0.01457961 0.01437412 0.0141569 0.01392081 0.01367487 0.01342446 0.01318209 0.01295887 0.01276236
 0.01260042 0.0124718 0.01237813 0.01231511 0.01228145 0.01227747 0.01230265 0.01236138 0.01245425 0.01258127
 0.01274241 0.01292728 0.01313496 0.0133506 0.01357473 0.01380161 0.01403471 0.01428294 0.01454913 0.01484611
 0.01517001 0.01552277 0.0158932 0.01627026 0.01664387 0.01700142 0.0173423 0.01766143 0.01796613 0.01825782
 0.01854273 0.01882312 0.01909973 0.01937301 0.01964257 0.01990821 0.02017246 0.02043545 0.0207002 0.0209666
 0.02123431 0.02150265 0.02176757 0.02202825 0.02227968 0.0225213 0.02274962 0.02296372 0.0231605 0.02333966
 0.02349819 0.02364075 0.02376701 0.02389087 0.02401744 0.02416488 0.02434177 0.02455555 0.02481214 0.02509996
 0.02541941 0.0257495 0.02608821 0.02642129 0.02674782 0.0270639 0.02736934 0.02766194 0.02794056 0.02819755
 0.02843113 0.02863069 0.02879555 0.02891801 0.02900005 0.02904059 0.02904426 0.02901605 0.02895924 0.02887983
 0.02877353 0.02864281 0.02847168 0.02825859 0.027975 0.0276168 0.02714625 0.02655712 0.02581968 0.02492804
 0.0238925 0.02271287 0.02145614 0.02012805 0.01882518 0.01755114 0.01637959 0.01530499 0.0143482 0.01349744
 0.01273474 0.01205045 0.01141999 0.01083881 0.01029274 0.009778205 0.009289007 0.008819586 0.008365552 0.00792256
 0.007487122 0.00706093 0.006642993 0.006239669 0.005851888 0.005484258 0.005137634 0.00481122 0.004505053 0.004215038
 0.003940959 0.003678817 0.003428695 0.003189133 0.002960448 0.002743708 0.002537776 0.002342285 0.002151233 0.001956142
 0.001746558 0.001506614 0.001229179 0.0009006697 0.0005260101 0.0001010988 -0.0003565372 -0.0008427927 -0.001337133 -0.001833678
 -0.002317987 -0.002786555 -0.003232511 -0.003654923 -0.004048313 -0.004412389 -0.004736902 -0.005021453 -0.005256353 -0.005444713
 -0.005598241 -0.005729451 -0.005889534 -0.006098148 -0.00643311 -0.006903249 -0.00756874 -0.008404956 -0.009417289 -0.01054574
 -0.01174789 -0.0129582 -0.01412505 -0.01521665 -0.01620307 -0.01709633 -0.01789111 -0.01861797 -0.01928149 -0.01990387
 -0.02048845 -0.02104389 -0.02157098 -0.02207306 -0.02255025 -0.02300422 -0.02343507 -0.02384388 -0.02423165 -0.02460246
 -0.02495845 -0.02530752 -0.0256508 -0.02599473 -0.02633736 -0.02667944 -0.027017 -0.02734668 -0.02766623 -0.0279725
 -0.02826771 -0.02855146 -0.02882844 -0.02909999 -0.02936868 -0.02963556 -0.02989935 -0.0301601 -0.03041587 -0.03066653
 -0.03091139 -0.03115044 -0.03138347 -0.03161066 -0.0318328 -0.03205062 -0.03226764 -0.03248423 -0.03270395 -0.03292502
 -0.03314618 -0.03336481 -0.03357609 -0.0337813 -0.03397886 -0.03417382 -0.03436929 -0.03456713 -0.03477029 -0.03497326
 -0.03517558 -0.03536993 -0.03555442 -0.03572724 -0.03588756 -0.03603955 -0.03618336 -0.0363245 -0.03646317 -0.03660252
 -0.03674243 -0.03688334 -0.03702502 -0.03716657 -0.03730812 -0.03744947 -0.03759096 -0.0377335 -0.03787632 -0.03801925
 -0.03816008 -0.0382966 -0.03842761 -0.03855103 -0.03866884 -0.0387811 -0.03889088 -0.03899949 -0.03910702 -0.03921403
 -0.03931792 -0.03941831 -0.0395146 -0.03960662 -0.03969768 -0.03978794 -0.03988063 -0.03997555 -0.04007262 -0.04017143
 -0.04027007 -0.04036865 -0.04046645 -0.04056389 -0.04066159 -0.0407596 -0.04085823 -0.04095755 -0.04105744 -0.04115888
 -0.04126238 -0.04136897 -0.04147965 -0.04159326 -0.0417101 -0.04182675 -0.04194246 -0.04205562 -0.04216554 -0.04227557
 -0.04238583 -0.04250099 -0.04262112 -0.04274589 -0.04287469 -0.04300189 -0.04312731 -0.04324683 -0.04336174 -0.0434737
 -0.04358388 -0.04369611 -0.04380907 -0.04392282 -0.04403529 -0.04414362 -0.0442493 -0.04435155 -0.04445508 -0.04456225
 -0.0446746 -0.04479427 -0.04491564 -0.0450382 -0.04515558 -0.04526638 -0.04537152 -0.04547073 -0.04557078 -0.04567192
 -0.04577778 -0.0458879 -0.04599966 -0.04611262 -0.04622313 -0.04633175 -0.04643841 -0.04654358 -0.04664855 -0.04675246
 -0.04685462 -0.04695418 -0.04704945 -0.04714189 -0.04723129 -0.04732143 -0.04741406 -0.04751147 -0.04761533 -0.04772394
 -0.04783773 -0.04795179 -0.04806554 -0.04817507 -0.0482799 -0.04838057 -0.04847718 -0.04857356 -0.04866976 -0.04876792
 -0.0488674 -0.04896604 -0.0490633 -0.04915588 -0.0492449 -0.04933073 -0.04941538 -0.04950238 -0.04959159 -0.04968479
 -0.0497794 -0.04987395 -0.04996729 -0.05005766 -0.05014822 -0.05023942 -0.05033484 -0.05043586 -0.05054124 -0.05065135
 -0.05076123 -0.05087046 -0.05097645 -0.05107915 -0.05118028 -0.05128009 -0.05138172 -0.05148518 -0.0515923 -0.05170274
 -0.05181667 -0.05193313 -0.05205038 -0.0521671 -0.05228048 -0.05239004 -0.05249381 -0.05259328 -0.05268844 -0.05278207
 -0.05287554 -0.0529705 -0.05306809 -0.05316757 -0.05326917 -0.0533709 -0.05347251 -0.05357256 -0.05367084 -0.05376774
 -0.05386328 -0.05395883 -0.05405445 -0.05415108 -0.0542487 -0.05434764 -0.05444782 -0.05454926 -0.05465176 -0.05475517
 -0.05485875 -0.05496142 -0.05506227 -0.05515968 -0.05525388 -0.05534383 -0.05543244 -0.05552042 -0.05561189 -0.05570875
 -0.05581195 -0.05592287 -0.0560366 -0.05615295 -0.0562652 -0.05637258 -0.05647323 -0.05656708 -0.05665785 -0.0567458
 -0.05683526 -0.05692584 -0.05701778 -0.05711036 -0.05720114 -0.05729017 -0.05737602 -0.05745991 -0.05754311 -0.05762671
 -0.05771278 -0.05780047 -0.05789021 -0.05797961 -0.05806753 -0.05815239 -0.05823311 -0.0583103 -0.05838369 -0.05845525
 -0.05852518 -0.05859527 -0.05866573 -0.05873711 -0.05880944 -0.05888113 -0.05895202 -0.05901949 -0.05908382 -0.05914484
 -0.05920376 -0.05926472 -0.05932849 -0.05939955 -0.05947616 -0.05955828 -0.05964216 -0.05972353 -0.05980019 -0.05986837
 -0.05992979 -0.05998386 -0.0600343 -0.06008251 -0.06013009 -0.06017797 -0.06022522 -0.06027175 -0.06031743 -0.06036212
 -0.06040781 -0.06045462 -0.06050453 -0.06055748 -0.06061291 -0.06067067 -0.06072956 -0.06078972 -0.06085095 -0.06091359
 -0.06097835 -0.06104539 -0.06111537 -0.06118819 -0.0612642 -0.06134275 -0.06142345 -0.06150581 -0.06158924 -0.06167437
 -0.06176105 -0.06185097 -0.06194469 -0.06204247 -0.0621448 -0.0622489 -0.06235468 -0.06245811 -0.06255899 -0.06265493
 -0.06274609 -0.06283338 -0.06291728 -0.0630009 -0.0630845 -0.06317095 -0.0632596 -0.06335061 -0.06344242 -0.06353246
 -0.06361987 -0.06370236 -0.06378067 -0.06385443 -0.06392522 -0.06399381 -0.06406138 -0.06412858 -0.06419586 -0.06426336
 -0.06433173 -0.06440103 -0.06447199 -0.06454469 -0.0646195 -0.06469644 -0.06477543 -0.06485646 -0.0649392 -0.06502349
 -0.06510817 -0.0651929 -0.06527581 -0.06535678 -0.06543446 -0.06550929 -0.06558137 -0.0656512 -0.0657195 -0.06578618
 -0.06585111 -0.06591501 -0.0659777 -0.06604175 -0.06610804 -0.06617857 -0.0662545 -0.06633422 -0.06641798 -0.06650165
 -0.06658481 -0.06666505 -0.06674219 -0.0668167 -0.06688868 -0.06695939 -0.06702897 -0.06709892 -0.06716959 -0.06724333
 -0.06731994 -0.06740084 -0.06748392 -0.06756672 -0.06764621 -0.06771726 -0.06777975 -0.06783057 -0.06787482 -0.0679137
 -0.06795432 -0.06800015 -0.06805358 -0.06811673 -0.06818581 -0.0682607 -0.06833637 -0.06841215 -0.06848624 -0.06855848
 -0.06862881 -0.06869718 -0.0687629 -0.06882598 -0.06888608 -0.0689435 -0.06899936 -0.06905369 -0.06910733 -0.06915981
 -0.06921048 -0.06925962 -0.06930684 -0.06935398 -0.0694024 -0.06945375 -0.0695098 -0.06956974 -0.06963405 -0.0697
 -0.06976704 -0.06983276 -0.06989661 -0.06995738 -0.07001481 -0.07006928 -0.07012077 -0.07017095 -0.07021995 -0.07027027
 -0.07032196 -0.07037659 -0.07043402 -0.07049441 -0.07055791 -0.07062475 -0.07069593 -0.07077327 -0.07085787 -0.0709521
 -0.07105576 -0.07116994 -0.07129274 -0.07142365 -0.07156011 -0.07170102 -0.07184455 -0.07198984 -0.07213672 -0.07228483
 -0.07243562 -0.07258932 -0.07274652 -0.07290742 -0.07306732 -0.07322572 -0.07337261 -0.07350758 -0.07362249 -0.07371831
 -0.0737945 -0.07385244 -0.07389626 -0.07392515 -0.07394099 -0.07393882 -0.07391361 -0.07386004 -0.07376731 -0.07364703
 -0.07349529 -0.07335106 -0.0732276 -0.07316052 -0.07316682 -0.07324394 -0.07339844 -0.0735933 -0.07382693 -0.07405005
 -0.07425918 -0.07441968 -0.07453136 -0.07459778 -0.07462259 -0.07463587 -0.07463876 -0.07465255 -0.07467446 -0.07470812
 -0.07474999 -0.07479565 -0.07484146 -0.07488075 -0.07491191 -0.07493021 -0.0749386 -0.07493729 -0.07493004 -0.07491883
 -0.07490463 -0.07488782 -0.07487005 -0.07485107 -0.07483619 -0.07482585 -0.07482541 -0.07483539 -0.0748559 -0.07488675
 -0.07492302 -0.07496412 -0.07500315 -0.07504011 -0.07507096 -0.07509704 -0.07511981 -0.07514094 -0.07516462 -0.07519086
 -0.0752217 -0.07525592 -0.07529292 -0.07533235 -0.07537359 -0.0754175 -0.07546446 -0.07551443 -0.07556783 -0.07562265
 -0.07567871 -0.07573341 -0.07578634 -0.07583646 -0.07588362 -0.07592864 -0.07597163 -0.076015 -0.07605883 -0.07610513
 -0.07615364 -0.07620448 -0.07625704 -0.07630961 -0.07636178 -0.07641166 -0.07645971 -0.07650545 -0.07655045 -0.07659592
 -0.07664334 -0.07669425 -0.07674847 -0.07680659 -0.07686692 -0.07692903 -0.07699174 -0.07705475 -0.07711743 -0.07717979
 -0.07724018 -0.07729849 -0.07735252 -0.0774022 -0.07744723 -0.07748792 -0.07752687 -0.07756449 -0.07760406 -0.07764542
 -0.07768999 -0.077737 -0.07778559 -0.07783512 -0.07788415 -0.07793285 -0.07798067 -0.07802843 -0.07807656 -0.07812559
 -0.07817613 -0.07822727 -0.07827904 -0.07832981 -0.07837918 -0.07842653 -0.07847153 -0.07851581 -0.07855938 -0.07860465
 -0.07865163 -0.07870009 -0.07874966 -0.07879684 -0.07884155 -0.07888111 -0.07891675 -0.07895059 -0.07898419 -0.07902224
 -0.07906435 -0.07911254 -0.0791641 -0.07921713 -0.07926934 -0.07931809 -0.07936405 -0.07940626 -0.07944811 -0.07949036
 -0.07953601 -0.07958616 -0.07964035 -0.07969899 -0.07975847 -0.07981857 -0.07987519 -0.07992817 -0.07997658 -0.08002073
 -0.08006331 -0.08010484 -0.08014943 -0.08019713 -0.0802505 -0.08030844 -0.0803701 -0.08043395 -0.08049718 -0.08055949
 -0.08061923 -0.08067765 -0.08073515 -0.08079273 -0.08085134 -0.08091 -0.08096889 -0.0810258 -0.08108026 -0.081131
 -0.08117758 -0.0812213 -0.0812621 -0.08130365 -0.08134614 -0.08139322 -0.08144482 -0.08150169 -0.08156336 -0.08162792
 -0.08169492 -0.08176193 -0.08182879 -0.0818941 -0.08195772 -0.08201875 -0.08207746 -0.08213349 -0.08218817 -0.08224222
 -0.08229682 -0.08235296 -0.08241029 -0.08246913 -0.08252791 -0.08258619 -0.08264381 -0.08270053 -0.08275774 -0.08281556
 -0.08287468 -0.08293512 -0.08299521 -0.08305477 -0.08311151 -0.08316559 -0.08321664 -0.08326527 -0.08331329 -0.08336136
 -0.08341185 -0.08346501 -0.08352242 -0.08358356 -0.08364894 -0.08371656 -0.08378545 -0.08385306 -0.08391766 -0.08397856
 -0.08403473 -0.0840881 -0.08413881 -0.08418921 -0.0842397 -0.08429153 -0.08434485 -0.08440007 -0.0844572 -0.08451582
 -0.08457578 -0.08463494 -0.08469319 -0.08474869 -0.08480193 -0.08485349 -0.08490431 -0.0849569 -0.08501137 -0.08506926
 -0.0851296 -0.08519202 -0.08525538 -0.08531878 -0.08538122 -0.08544194 -0.08550046 -0.08555626 -0.08561003 -0.08566152
 -0.08571327 -0.08576556 -0.08582071 -0.08587908 -0.08594038 -0.08600458 -0.08606905 -0.08613371 -0.08619685 -0.08625874
 -0.08632004 -0.08638105 -0.0864433 -0.08650664 -0.08657152 -0.0866376 -0.08670443 -0.08677204 -0.08684023 -0.08690915
 -0.08697879 -0.08704938 -0.08712104 -0.08719385 -0.08726801 -0.08734287 -0.08741849 -0.08749323 -0.08756686 -0.08763801
 -0.08770642 -0.087773 -0.08783782 -0.08790302 -0.08796864 -0.08803602 -0.08810496 -0.08817496 -0.088246 -0.08831768
 -0.08839013 -0.08846363 -0.08853789 -0.08861271 -0.0886872 -0.08876017 -0.08883133 -0.08889968 -0.08896633 -0.08903143
 -0.08909653 -0.0891623 -0.08922952 -0.08929849 -0.08936951 -0.08944269 -0.08951791 -0.08959521 -0.08967416 -0.08975474
 -0.08983612 -0.08991832 -0.09000139 -0.09008545 -0.09017143 -0.09025913 -0.09034843 -0.09043876 -0.09052865 -0.09061777
 -0.09070465 -0.09078979 -0.09087315 -0.09095533 -0.09103683 -0.09111802 -0.09119925 -0.09128057 -0.09136209 -0.0914437
 -0.09152548 -0.09160679 -0.09168753 -0.0917671 -0.09184537 -0.0919227 -0.09199911 -0.092076 -0.0921535 -0.09223332
 -0.09231541 -0.09240063 -0.09248856 -0.09257814 -0.0926686 -0.09275751 -0.09284463 -0.09292813 -0.09300908 -0.09308793
 -0.093166 -0.0932447 -0.09332421 -0.09340519 -0.09348677 -0.09356868 -0.09365062 -0.09373243 -0.09381425 -0.09389617
 -0.09397749 -0.0940582 -0.09413693 -0.09421359 -0.09428736 -0.09435829 -0.09442693 -0.09449351 -0.09455958 -0.09462554
 -0.09469371 -0.0947643 -0.09483929 -0.09491792 -0.09500006 -0.09508426 -0.09516864 -0.09525263 -0.0953348 -0.09541599
 -0.09549632 -0.09557649 -0.09565711 -0.09573727 -0.09581698 -0.09589477 -0.09597023 -0.0960436 -0.09611475 -0.0961855
 -0.09625594 -0.0963275 -0.09640013 -0.09647325 -0.09654661 -0.09661838 -0.0966887 -0.09675708 -0.09682421 -0.09689157
 -0.09695952 -0.09702957 -0.09710138 -0.0971751 -0.09725051 -0.09732747 -0.09740577 -0.09748562 -0.09756547 -0.09764513
 -0.09772187 -0.09779461 -0.09786321 -0.09792694 -0.09798999 -0.09805264 -0.09811945 -0.09819077 -0.09826624 -0.09834559
 -0.09842381 -0.09850071 -0.09857217 -0.09863897 -0.09870199 -0.09876248 -0.0988244 -0.09888808 -0.09895631 -0.09902792
 -0.09910294 -0.09917915 -0.09925482 -0.09932788 -0.09939633 -0.09945999 -0.09951755 -0.09957256 -0.09962524 -0.09968101
 -0.09974129 -0.09980694 -0.09987866 -0.09995154 -0.1000253 -0.100095 -0.1001606 -0.1002228 -0.1002819 -0.1003417
 -0.100402 -0.1004644 -0.1005276 -0.1005899 -0.1006502 -0.1007058 -0.1007574 -0.1008046 -0.1008505 -0.1008978
 -0.1009488 -0.1010067 -0.101069 -0.1011361 -0.1012022 -0.1012651 -0.1013221 -0.1013717 -0.1014169 -0.1014576
 -0.1014994 -0.1015427 -0.10159 -0.1016411 -0.1016943 -0.1017492 -0.101803 -0.1018562 -0.1019092 -0.1019627
 -0.1020199 -0.1020796 -0.1021423 -0.1022045 -0.102262 -0.1023129 -0.1023526 -0.1023846 -0.102409 -0.1024319
 -0.1024562 -0.1024846 -0.1025191 -0.1025581 -0.1026019 -0.1026478 -0.1026955 -0.102743 -0.10279 -0.1028351
 -0.1028783 -0.1029197 -0.1029595 -0.1030003 -0.1030421 -0.1030871 -0.1031339 -0.1031799 -0.1032225 -0.1032546
 -0.1032764 -0.1032835 -0.1032822 -0.1032764 -0.1032731 -0.1032789 -0.1032939 -0.1033206 -0.1033533 -0.103391
 -0.1034278 -0.1034625 -0.1034917 -0.1035146 -0.1035307 -0.1035398 -0.1035451 -0.1035471 -0.1035503 -0.1035546
 -0.1035607 -0.1035682 -0.103575 -0.1035816 -0.103588 -0.1035944 -0.1036018 -0.1036089 -0.1036149 -0.1036188
 -0.103619 -0.103616 -0.1036095 -0.1036002 -0.1035882 -0.1035742 -0.1035583 -0.1035422 -0.1035264 -0.1035108
 -0.1034958 -0.1034773 -0.1034551 -0.1034255 -0.1033886 -0.1033463 -0.1032987 -0.1032499 -0.1031992 -0.1031455
 -0.1030871 -0.1030182 -0.1029388 -0.1028448 -0.1027402 -0.1026283 -0.1025131 -0.102401 -0.1022903 -0.1021828
 -0.1020722 -0.1019555 -0.1018305 -0.1016947 -0.1015543 -0.1014101 -0.1012679 -0.1011293 -0.1009902 -0.1008507
 -0.1006991 -0.100535 -0.1003487 -0.1001413 -0.09991628 -0.09967618 -0.09943593 -0.09919596 -0.09896693 -0.09874427
 -0.09852421 -0.09830132 -0.0980652 -0.09781552 -0.0975472 -0.09726459 -0.09696942 -0.09666428 -0.09635188 -0.09602923
 -0.09569696 -0.09534734 -0.09497897 -0.09458522 -0.09416401 -0.09372036 -0.09325395 -0.09278186 -0.09230483 -0.0918318
 -0.09136178 -0.09088735 -0.09040838 -0.08991963 -0.08942376 -0.08892845 -0.08843131 -0.08793444 -0.08742601 -0.08688871
 -0.08631608 -0.08568934 -0.085025 -0.08432624 -0.08361631 -0.08291047 -0.08220991 -0.08152034 -0.08082867 -0.08013213
 -0.07942638 -0.07871024 -0.07798439 -0.07724976 -0.07648888 -0.07570064 -0.07485056 -0.07393934 -0.07295834 -0.07191617
 -0.07085486 -0.06977827 -0.06872628 -0.06768515 -0.06664593 -0.06559181 -0.06449158 -0.06334105 -0.0621251 -0.06084175
 -0.05949187 -0.05805152 -0.05651552 -0.05484179 -0.05301301 -0.05101175 -0.04882334 -0.04648786 -0.04400447 -0.04144573
 -0.03881729 -0.03617896 -0.03353379 -0.03091152 -0.02830932 -0.02571215 -0.0231065 -0.02041447 -0.01762093 -0.01462065
 -0.01144002 -0.008066583 -0.004579414 -0.001104121 0.002330297 0.005621315 0.008842056 0.01200974 0.01520316 0.01847897
 0.0218356 0.02529188 0.02879981 0.0323499 0.03591765 0.03949933 0.04307217 0.04663514 0.05014835 0.05360989
 0.05701805 0.06037359 0.06369327 0.06696528 0.07013176 0.07318012 0.0760214 0.07868689 0.08119343 0.08359881
 0.08601925 0.08844049 0.09092008 0.09334117 0.09562467 0.0977169 0.09954368 0.1011872 0.1026613 0.1040312
 0.1053269 0.1065152 0.1075968 0.1085233 0.1092876 0.1098996 0.1103598 0.1106985 0.1109148 0.1110047
 0.1109642 0.1107664 0.110415 0.1099069 0.1092535 0.108479 0.1075952 0.1066293 0.1055948 0.1045145
 0.1034041 0.1022822 0.1011594 0.1000468 0.09894639 0.0978613 0.09679053 0.09573436 0.09469182 0.09366321
 0.09264467 0.09163611 0.09063091 0.0896287 0.08862533 0.08762092 0.0866164 0.08561207 0.08461064 0.08361118
 0.08261237 0.08161184 0.08060291 0.0795849 0.07855294 0.07750938 0.07645547 0.07539191 0.07432077 0.07323852
 0.07214339 0.07103433 0.06990902 0.06877426 0.0676302 0.06648809 0.06534876 0.06422706 0.06312375 0.06205991
 0.06103676 0.06007212 0.05916569 0.05831714 0.0575237 0.05676883 0.05604916 0.05534448 0.05465133 0.05395176
 0.05324305 0.05251218 0.05175983 0.05098126 0.05017966 0.04935554 0.0485134 0.04765584 0.04678588 0.04590733
 0.04501235 0.04410286 0.04315468 0.0421651 0.04110857 0.03998084 0.03878378 0.03751708 0.03620923 0.03486073
 0.03348406 0.03207663 0.03062672 0.02913424 0.02759128 0.02600281 0.02437645 0.02271833 0.02104403 0.01935243
 0.01765153 0.01592885 0.01417579 0.012386 0.01054656 0.008681613 0.006795167 0.004916803 0.003058342 0.001218972
 -0.0005995888 -0.002403094 -0.004193785 -0.005952052 -0.007676988 -0.009340644 -0.01094265 -0.01247506 -0.01393914 -0.01534026
 -0.0166774 -0.01794891 -0.01915399 -0.02028606 -0.02135409 -0.02236536 -0.02334267 -0.02431384 -0.02530341 -0.02634369
 -0.02744005 -0.02860921 -0.0298318 -0.03110659 -0.03240629 -0.03372513 -0.03503655 -0.03633817 -0.03759049 -0.03878968
 -0.03989849 -0.04091372 -0.04184445 -0.04269286 -0.04350059 -0.04426886 -0.04502637 -0.04577056 -0.0465064 -0.04723139
 -0.04794174 -0.04863597 -0.04931148 -0.04996265 -0.05058412 -0.05116376 -0.05169133 -0.05215224 -0.05253583 -0.05283093
 -0.05303083 -0.05312916 -0.05312301 -0.05300895 -0.05278595 -0.05245235 -0.05200811 -0.05144927 -0.05077561 -0.04997918
 -0.04906068 -0.04802996 -0.04689497 -0.04571612 -0.04450447 -0.04334177 -0.04222436 -0.04118705 -0.04021423 -0.03929151
 -0.03841136 -0.03755792 -0.03672944 -0.03592427 -0.03512532 -0.03432433 -0.03350016 -0.03263359 -0.03174912 -0.03084179
 -0.02997676 -0.02916841 -0.02843994 -0.02779989 -0.02720971 -0.02666771 -0.02612962 -0.02559422 -0.02504436 -0.02448122
 -0.02390642 -0.02331954 -0.02272131 -0.0221068 -0.02146464 -0.02078675 -0.02005152 -0.01925737 -0.01838874 -0.01746101
 -0.01648018 -0.01546688 -0.01443808 -0.01339711 -0.01235044 -0.01129217 -0.01021876 -0.00914106 -0.008057935 -0.006996299
 -0.005959339 -0.004964587 -0.004013923 -0.003102797 -0.002230966 -0.001390719 -0.0005845763 0.0001722644 0.0008741843 0.001487804
 0.00201139 0.002422054 0.002723126 0.002911043 0.002987416 0.002954111 0.002808601 0.002549024 0.002173979 0.00168083
 0.001073379 0.0003513377 -0.0004768526 -0.001410334 -0.002435633 -0.003551686 -0.004738771 -0.005995818 -0.007295116 -0.008635194
 -0.009979803 -0.01132697 -0.01264071 -0.0139201 -0.01514154 -0.01630543 -0.01740116 -0.01842896 -0.01938305 -0.0202658
 -0.02107582 -0.02182404 -0.02251997 -0.02318592 -0.02384197 -0.02451657 -0.02523199 -0.02601164 -0.02687258 -0.02782095
 -0.0288659 -0.02998838 -0.03118964 -0.03243099 -0.03370918 -0.03498275 -0.0362485 -0.0374761 -0.03866413 -0.03979174
 -0.04085778 -0.04184313 -0.04274693 -0.04355335 -0.0442654 -0.04488143 -0.04540985 -0.04586504 -0.0462574 -0.04660641
 -0.04692112 -0.0472159 -0.04749906 -0.04777879 -0.04806421 -0.04836059 -0.04867605 -0.04901444 -0.04937878 -0.04977144
 -0.05018628 -0.05062396 -0.05106872 -0.05151989 -0.05195511 -0.05237314 -0.05275083 -0.05308747 -0.05336678 -0.05358956
 -0.05375045 -0.05385152 -0.05389536 -0.05388526 -0.05382783 -0.05372885 -0.05359759 -0.05344282 -0.05327503 -0.05310415
 -0.05293884 -0.05278866 -0.05265904 -0.05255948 -0.05249307 -0.05246997 -0.05249236 -0.05256934 -0.05270245 -0.05289684
 -0.05315321 -0.05347097 -0.05384991 -0.05428237 -0.05476707 -0.05528957 -0.05584789 -0.05642494 -0.05701897 -0.05761578
 -0.05821448 -0.05880673 -0.05939158 -0.05996513 -0.06052412 -0.06106523 -0.06158212 -0.06207032 -0.06252279 -0.06293523
 -0.06330319 -0.06362426 -0.06389676 -0.06411978 -0.06429341 -0.06441718 -0.06449462 -0.06452569 -0.06451895 -0.0644749
 -0.06440417 -0.06430727 -0.06419291 -0.06406148 -0.06391916 -0.06376684 -0.06361026 -0.06345066 -0.06329351 -0.06313965
 -0.06299301 -0.06285286 -0.06272058 -0.06259301 -0.06246883 -0.06234397 -0.06221612 -0.06208299 -0.06194306 -0.06179674
 -0.06164368 -0.06148558 -0.06132258 -0.06115644 -0.06098726 -0.06081718 -0.06064634 -0.06047778 -0.06031189 -0.0601534
 -0.06000326 -0.05986877 -0.05975099 -0.05965735 -0.05958802 -0.05954738 -0.05953424 -0.05954893 -0.05958972 -0.05965523
 -0.05974324 -0.05985222 -0.05997917 -0.06012245 -0.0602795 -0.06044892 -0.0606303 -0.06082318 -0.06102842 -0.06124619
 -0.06147642 -0.06171925 -0.06197212 -0.06223485 -0.06250282 -0.06277566 -0.06304786 -0.06331901 -0.06358396 -0.06384272
 -0.06409241 -0.06433363 -0.06456627 -0.06479104 -0.06500921 -0.06522065 -0.06542581 -0.06562412 -0.06581503 -0.06599905
 -0.0661756 -0.06634767 -0.06651552 -0.06668425 -0.06685454 -0.06703309 -0.06722052 -0.06742518 -0.06764779 -0.06789535
 -0.06816822 -0.06846543 -0.06878588 -0.06911683 -0.06945582 -0.06978286 -0.07009552 -0.07037544 -0.07062058 -0.07081836
 -0.07096554 -0.07105283 -0.07107489 -0.07102332 -0.07089199 -0.07067423 -0.07036473 -0.0699598 -0.06945398 -0.0688455
 -0.06812701 -0.06729686 -0.06634815 -0.065279 -0.06408966 -0.06277926 -0.06135905 -0.0598296 -0.05821168 -0.05650717
 -0.05474386 -0.05292549 -0.05108634 -0.04923241 -0.04740178 -0.04560048 -0.04386161 -0.04218709 -0.04059581 -0.03908348
 -0.03765376 -0.03629784 -0.03501084 -0.03378367 -0.03261041 -0.03148491 -0.03040356 -0.02936388 -0.02836481 -0.02740473
 -0.02648381 -0.02559691 -0.02474412 -0.02391412 -0.02310632 -0.02230543 -0.02151044 -0.02070466 -0.01988654 -0.01903877
 -0.0181591 -0.01723013 -0.01625091 -0.01520941 -0.01410865 -0.012947 -0.0117311 -0.01046743 -0.009162534 -0.007823427
 -0.006454756 -0.005059964 -0.003644618 -0.002209499 -0.0007668197 0.0006823662 0.002118071 0.003538135 0.004919851 0.006261088
 0.007542397 0.008762556 0.009906974 0.01097514 0.01195693 0.0128528 0.01365919 0.01437895 0.01501917 0.01558554
 0.01609419 0.01655227 0.01697757 0.01737851 0.01776936 0.01816257 0.01856982 0.01900847 0.01948964 0.02002951
 0.02063686 0.02131957 0.02208163 0.02292426 0.02384805 0.02485448 0.02594379 0.02711701 0.02837427 0.02971053
 0.03112531 0.03260984 0.03416398 0.03578323 0.0374666 0.03921116 0.04100923 0.04284573 0.04470062 0.04653924
 0.04832898 0.05002332 0.05158252 0.05296235 0.05412709 0.0550445 0.05569695 0.05606671 0.05616369 0.05598214
 0.05555976 0.05489792 0.05405449 0.05303355 0.05190139 0.05066204 0.04937816 0.0480527 0.04673793 0.04543591
 0.04418625 0.04298988 0.04187202 0.04083198 0.03988067 0.03901704 0.03824369 0.03756095 0.03697061 0.03647177
 0.03606702 0.03574631 0.03550981 0.03533059 0.03520428 0.03508534 0.03496581 0.03478893 0.03454604 0.03418298
 0.03369326 0.03303831 0.03221513 0.03120607 0.03001122 0.02863275 0.02707333 0.02535095 0.02347085 0.02146141
 0.01933104 0.01711292 0.0148203 0.0124885 0.01013572 0.007796593 0.005488349 0.003238969 0.001052058 -0.001057304
 -0.003109984 -0.005105116 -0.007084972 -0.00905866 -0.01106764 -0.01312277 -0.01523617 -0.01741327 -0.01962629 -0.02187448
 -0.02410576 -0.02631733 -0.02845855 -0.0305282 -0.03249279 -0.03435408 -0.03609956 -0.03773502 -0.03926699 -0.04070621
 -0.04207277 -0.04338129 -0.04465675 -0.04591366 -0.04717348 -0.04844327 -0.04973582 -0.05104374 -0.05237034 -0.05369387
 -0.0550112 -0.05629479 -0.05753976 -0.05872336 -0.05984203 -0.06088578 -0.06185338 -0.06274994 -0.06357618 -0.06434694
 -0.06506343 -0.06574157 -0.06638162 -0.06699352 -0.06757597 -0.0681314 -0.06865627 -0.06914576 -0.06959525 -0.06999585
 -0.07034727 -0.07064255 -0.07089438 -0.07110339 -0.07129867 -0.07148914 -0.07170957 -0.07197218 -0.07229628 -0.07269052
 -0.07314409 -0.07365918 -0.07419949 -0.07476319 -0.07530666 -0.07582781 -0.07629113 -0.07669615 -0.07702199 -0.07727107
 -0.07744036 -0.07753697 -0.07757645 -0.07757098 -0.07754921 -0.07752443 -0.07752623 -0.0775616 -0.07764976 -0.07778449
 -0.0779711 -0.07818922 -0.07843418 -0.07867905 -0.07891614 -0.07912222 -0.07929124 -0.07941151 -0.0794802 -0.07949826
 -0.07946529 -0.07939027 -0.07927367 -0.0791242 -0.07894205 -0.07873211 -0.07849485 -0.07823441 -0.07795238 -0.07765516
 -0.07734469 -0.07702767 -0.07670537 -0.07638195 -0.07605884 -0.07573824 -0.07542277 -0.07511466 -0.07481599 -0.07452913
 -0.07425149 -0.07398457 -0.07371732 -0.0734494 -0.07316224 -0.07285405 -0.07250599 -0.0721163 -0.07167678 -0.07118752
 -0.07065806 -0.07009089 -0.06951094 -0.0689216 -0.06835164 -0.06780317 -0.06729734 -0.06683425 -0.06642459 -0.06606635
 -0.06576266 -0.06550684 -0.06529622 -0.0651169 -0.0649611 -0.06481163 -0.06465932 -0.06449177 -0.06430304 -0.06408802
 -0.06384446 -0.06357159 -0.06326851 -0.06293985 -0.0625855 -0.06221807 -0.06183832 -0.06146168 -0.0610883 -0.06072617
 -0.06037403 -0.06002985 -0.05969295 -0.05935945 -0.05903114 -0.05870915 -0.05839708 -0.05810015 -0.05782204 -0.05756803
 -0.05734105 -0.05714492 -0.0569801 -0.05684924 -0.05674597 -0.05667098 -0.05660865 -0.05655733 -0.05649655 -0.05642376
 -0.05632158 -0.05618824 -0.05601628 -0.0558055 -0.05555998 -0.05528059 -0.05497759 -0.05465117 -0.05430799 -0.05394696
 -0.0535675 -0.05317017 -0.05275474 -0.05232501 -0.05188617 -0.0514418 -0.05099816 -0.05055489 -0.05011371 -0.04967331
 -0.04923285 -0.04879386 -0.04835669 -0.04792254 -0.0474925 -0.04706262 -0.04663289 -0.04619668 -0.04575334 -0.0453
 -0.04483657 -0.0443669 -0.04389141 -0.04341632 -0.04294121 -0.04246717 -0.04199342 -0.04151665 -0.04103937 -0.04056377
 -0.04009634 -0.03964792 -0.0392224 -0.0388296 -0.0384653 -0.0381306 -0.03781744 -0.03752245 -0.03723902 -0.03696492
 -0.03669322 -0.03642282 -0.03614439 -0.03585641 -0.03555313 -0.03523365 -0.03489985 -0.03455181 -0.03419237 -0.03382095
 -0.03343223 -0.03302471 -0.0325865 -0.0321184 -0.03161468 -0.03108169 -0.03052923 -0.0299661 -0.02941043 -0.02886637
 -0.02834578 -0.02784744 -0.02737318 -0.02692399 -0.02649896 -0.02610594 -0.0257466 -0.02543025 -0.02515972 -0.0249385
 -0.02476842 -0.02464321 -0.02456317 -0.02451175 -0.02448802 -0.02447104 -0.02446006 -0.0244399 -0.02441109 -0.0243684
 -0.02431286 -0.02424526 -0.02416587 -0.02407603 -0.02397491 -0.02386256 -0.02373602 -0.02359246 -0.02342853 -0.02323999
 -0.02302787 -0.02279025 -0.02253396 -0.02226019 -0.02197746 -0.02168776 -0.02139755 -0.021108 -0.02082356 -0.02054483
 -0.02027309 -0.02000842 -0.0197488 -0.01949389 -0.0192396 -0.01898513 -0.01872437 -0.01845581 -0.01817114 -0.01786908
 -0.01754229 -0.01719124 -0.01681306 -0.0164098 -0.01598238 -0.0155333 -0.01506414 -0.01457862 -0.01407783 -0.01356893
 -0.01305341 -0.01254194 -0.01203721 -0.01154717 -0.01107449 -0.01061514 -0.01016968 -0.009723331 -0.009275301 -0.008815244
 -0.008343635 -0.007863979 -0.007377938 -0.006896872 -0.006422087 -0.005964209 -0.0055235 -0.005106498 -0.004711151 -0.004337548
 -0.00398224 -0.003639718 -0.00331273 -0.002999025 -0.002710292 -0.002452211 -0.002233034 -0.00206041 -0.00192331 -0.001823576
 -0.001733791 -0.001650823 -0.001547724 -0.001421235 -0.001258112 -0.001057384 -0.0008236861 -0.0005581309 -0.0002773548 1.758498E-05
 0.000311503 0.0006051678 0.0008934168 0.00117731 0.001457526 0.001732982 0.002003033 0.002264182 0.002512861 0.002744282
 0.002953186 0.00313762 0.00329311 0.003426783 0.003537201 0.003644149 0.003751229 0.003879062 0.004034029 0.004209738
 0.004407592 0.004601253 0.004789223 0.004954708 0.005097843 0.0052176 0.005316185 0.005406483 0.005491187 0.00558856
 0.005696815 0.005822286 0.005958246 0.006095332 0.006230521 0.006353998 0.00647274 0.00658775 0.006710073 0.006847251
 0.007002399 0.007180634 0.007372556 0.007577848 0.00778246 0.00798375 0.008174217 0.008352631 0.008517876 0.008669948
 0.008799692 0.008905433 0.008959712 0.008959545 0.008870332 0.008693018 0.008409008 0.008029184 0.007565542 0.00704246
 0.006502692 0.005977231 0.005521493 0.005150549 0.004901823 0.00475749 0.004722638 0.004760455 0.004859048 0.004986874
 0.005132452 0.005282219 0.005430354 0.005583989 0.005742579 0.005921922 0.006123085 0.006350949 0.00660524 0.006879895
 0.00717544 0.00749258 0.00783279 0.008204001 0.008603607 0.00903073 0.009477902 0.009932216 0.01038618 0.01082539
 0.01124565 0.01163814 0.01200296 0.01233724 0.01264425 0.01292462 0.01318108 0.01341462 0.01362614 0.01381562
 0.0139858 0.01413678 0.0142727 0.01439385 0.01450115 0.01459471 0.01467565 0.0147452 0.01481254 0.01487917
 0.01495743 0.01504525 0.01514482 0.01525021 0.01535172 0.01544467 0.01551731 0.01557335 0.01560867 0.01563859
 0.01566947 0.01571862 0.01579716 0.01590458 0.01604667 0.01620025 0.01636324 0.01650915 0.01663406 0.01672838
 0.01679091 0.01682892 0.01684298 0.01684525 0.01683568 0.01682015 0.01679671 0.01676013 0.01670908 0.01663564
 0.01654352 0.01643519 0.01631618 0.01619713 0.01607412 0.01595053 0.01581158 0.01564946 0.01545257 0.01521189
 0.01493102 0.01460729 0.01425532 0.01387722 0.01348516 0.01308138 0.01266686 0.01224194 0.01180145 0.0113455
 0.01087697 0.01039738 0.009920093 0.009446429 0.008989453 0.008548706 0.008129511 0.007731079 0.007354434 0.006998777
 0.006663093 0.006347959 0.006052052 0.005780893 0.005537114 0.0053264 0.005154361 0.005013559 0.004905532 0.004810323
 0.004724123 0.004634152 0.004536934 0.004440776 0.004345636 0.004271698 0.004219282</values></Ydata></AB><ScSm><Ydata ylabel="Single channel"><values byteorder="INTEL" format="FLOAT32" numvalues="1814"> 0.08854385 0.08864976 0.08877411 0.08892602 0.0890999 0.08927844 0.08944192 0.08957963 0.08969358 0.08979017
 0.08987719 0.08997105 0.09009381 0.09025341 0.09043259 0.09059943 0.09072932 0.09082521 0.09092121 0.09105098
 0.09120262 0.09131545 0.09133607 0.09127609 0.09120812 0.0912017 0.09127665 0.09143512 0.09170192 0.09205851
 0.09235317 0.09240063 0.09221555 0.09203872 0.09207177 0.09227587 0.09247464 0.09254803 0.0924784 0.09233023
 0.09227173 0.09252214 0.09315243 0.09392413 0.09436475 0.09404072 0.09284593 0.09115615 0.08973914 0.08935346
 0.09019971 0.09169449 0.09290817 0.09331509 0.09307525 0.09263211 0.09225164 0.0920213 0.09205642 0.09247693
 0.09321213 0.09392472 0.09414509 0.09358245 0.0924562 0.09145021 0.09115241 0.09160009 0.09249756 0.09357117
 0.09429923 0.09364741 0.09099172 0.08750588 0.08578448 0.08744067 0.09141783 0.09508921 0.0966465 0.09604871
 0.09425852 0.09239945 0.09145911 0.09194863 0.09356995 0.0955119 0.09709117 0.09792911 0.09778453 0.09667309
 0.09509075 0.09379817 0.09339504 0.09414892 0.09588963 0.09784479 0.09894999 0.0986875 0.09747289 0.09612122
 0.09525122 0.09525962 0.09635091 0.09829073 0.1004319 0.102192 0.1033511 0.1039225 0.1040175 0.103824
 0.1035119 0.1032056 0.1031088 0.1033988 0.1038726 0.1039934 0.1034883 0.1027194 0.1023168 0.1025293
 0.1030126 0.1032445 0.1030423 0.1024602 0.1012582 0.09902416 0.09602615 0.09333825 0.09179102 0.09139276
 0.09201345 0.09373228 0.09601409 0.0974706 0.09726298 0.09623801 0.09601141 0.0972219 0.0991377 0.1007154
 0.1016088 0.102215 0.1030573 0.104195 0.1050805 0.1049664 0.1036735 0.1020599 0.1014486 0.1023456
 0.1039476 0.1051245 0.1056026 0.1059178 0.1064735 0.1069568 0.1066145 0.1050639 0.1029616 0.1017631
 0.1025178 0.1048278 0.1070642 0.1076011 0.1059683 0.1030988 0.1005501 0.09938979 0.09978558 0.1014554
 0.1040508 0.1069887 0.1093629 0.1104064 0.1100236 0.1087611 0.1072147 0.1054784 0.103363 0.1012596
 0.1003616 0.1015449 0.1042422 0.1068968 0.1083999 0.1087011 0.1081744 0.1068717 0.1046262 0.1018183
 0.09970765 0.09949637 0.1009584 0.102509 0.1028891 0.1023384 0.1018621 0.1018614 0.1019241 0.1016667
 0.1013029 0.1013366 0.1019179 0.1026518 0.1030167 0.1028444 0.1023565 0.1018531 0.1014313 0.1009325
 0.1001873 0.09938757 0.09907169 0.09955344 0.1004982 0.1012605 0.1015217 0.1014133 0.1011252 0.1005937
 0.09961998 0.0982638 0.09703465 0.0965289 0.09684679 0.09751667 0.09799825 0.09808578 0.0978485 0.09742197
 0.09691824 0.09639665 0.09588249 0.09544846 0.09520276 0.09514385 0.09511811 0.09497474 0.09468864 0.09430489
 0.0938437 0.09330279 0.09271682 0.09217563 0.09176816 0.09150985 0.09134202 0.09119471 0.09101629 0.09075768
 0.09038872 0.08993911 0.08947888 0.08905371 0.08866815 0.08832242 0.08802874 0.08778641 0.08756348 0.08731793
 0.08703245 0.08671793 0.08638595 0.08603635 0.08567575 0.08532867 0.08502173 0.08476335 0.08453698 0.08431313
 0.08408099 0.08386279 0.08367404 0.08347967 0.08322574 0.08290951 0.08258471 0.08230173 0.08206924 0.08186649
 0.08166659 0.08144487 0.08118135 0.08087319 0.08055348 0.08028348 0.08010674 0.08001542 0.07997173 0.07994193
 0.07989663 0.07980883 0.07967603 0.07952407 0.07937406 0.07922196 0.07905807 0.07889125 0.07874866 0.07865569
 0.07861109 0.07858267 0.07853562 0.07845837 0.07835861 0.07825349 0.07816933 0.0781224 0.07808959 0.07802632
 0.07792372 0.07782245 0.07776139 0.07773362 0.07770152 0.07764229 0.0775694 0.07751288 0.07748552 0.07747282
 0.07745426 0.07742634 0.07740249 0.07739471 0.07739528 0.07737762 0.07732283 0.077244 0.07717419 0.07713211
 0.07711199 0.07710359 0.07710622 0.07711998 0.07713489 0.07713517 0.07711487 0.07708573 0.07706439 0.07705125
 0.07702997 0.07698963 0.07693855 0.07689299 0.07686003 0.07683423 0.07680516 0.07676633 0.07671821 0.07666437
 0.07660656 0.07654465 0.07647842 0.07640749 0.07633535 0.07627369 0.0762326 0.07620224 0.07615472 0.07607057
 0.07595943 0.07584926 0.07575906 0.07568654 0.07561962 0.07555297 0.07549042 0.0754357 0.07538868 0.0753491
 0.07531792 0.07529449 0.07527867 0.07527745 0.07530203 0.07535331 0.07541516 0.0754685 0.07550988 0.07555243
 0.07560974 0.07568434 0.07577075 0.07586575 0.07597322 0.07609909 0.07624136 0.07638766 0.07652747 0.07666493
 0.07681453 0.07698546 0.07717624 0.07738158 0.07759543 0.07780829 0.07801227 0.07821171 0.07842199 0.07865348
 0.07890163 0.079155 0.07940882 0.07966733 0.07993667 0.08022068 0.08052284 0.08084568 0.08118776 0.08154313
 0.08190423 0.08226494 0.08262284 0.08298214 0.08335291 0.08374371 0.08415366 0.08457245 0.08498894 0.08540057
 0.08581387 0.08623502 0.08666331 0.08709676 0.08753982 0.08799835 0.08846881 0.0889409 0.08940978 0.08987855
 0.09034973 0.09082142 0.09129335 0.09177025 0.09225725 0.09275413 0.09325357 0.09374313 0.09421247 0.09466202
 0.09510412 0.09555373 0.09601729 0.09648845 0.09695099 0.0973901 0.09780647 0.09821825 0.09864228 0.09907493
 0.09949876 0.099908 0.1003177 0.1007435 0.1011779 0.1015934 0.1019703 0.1023156 0.1026537 0.1029992
 0.1033442 0.1036724 0.1039813 0.1042842 0.104593 0.1049082 0.1052283 0.1055598 0.1059075 0.1062604
 0.1065989 0.1069164 0.1072242 0.1075347 0.1078473 0.1081539 0.1084507 0.1087439 0.1090452 0.1093594
 0.1096793 0.109997 0.1103201 0.110666 0.1110406 0.1114328 0.1118338 0.1122488 0.1126841 0.1131312
 0.1135764 0.1140227 0.1144878 0.1149741 0.1154542 0.1158961 0.1162977 0.1166829 0.1170714 0.1174689
 0.117881 0.1183181 0.1187816 0.1192567 0.1197218 0.1201622 0.1205775 0.1209824 0.1213924 0.1218038
 0.1221928 0.1225387 0.1228448 0.1231319 0.1234187 0.1237077 0.1239865 0.1242362 0.124442 0.1245955
 0.124689 0.1247158 0.1246803 0.1245986 0.1244823 0.1243215 0.1240936 0.123784 0.1233905 0.1229097
 0.1223292 0.1216408 0.1208625 0.1200486 0.1192817 0.1186515 0.1182308 0.1180608 0.1181473 0.1184607
 0.1189343 0.1194699 0.1199568 0.1202945 0.1204095 0.1202645 0.1198647 0.1192522 0.1184895 0.1176411
 0.1167652 0.1159083 0.1151052 0.1143933 0.1138389 0.1135485 0.1136463 0.1142344 0.1153635 0.1170105
 0.1190604 0.1213098 0.123524 0.1255233 0.1272394 0.1286996 0.1299705 0.1311123 0.1321681 0.1331667
 0.1341227 0.1350368 0.1359017 0.1367096 0.1374533 0.1381232 0.1387064 0.13919 0.1395689 0.1398524
 0.1400664 0.1402467 0.140432 0.140653 0.1409173 0.1411911 0.1414037 0.1414806 0.1413808 0.1411137
 0.1407405 0.140382 0.1402302 0.1405272 0.1414774 0.1431251 0.1452945 0.1476629 0.1499176 0.1518731
 0.1534824 0.1547837 0.1558487 0.1567507 0.1575472 0.1582745 0.1589547 0.1596028 0.1602297 0.1608419
 0.1614423 0.1620307 0.1626077 0.1631766 0.1637401 0.1642964 0.1648419 0.1653783 0.1659135 0.1664546
 0.1669997 0.16754 0.1680695 0.1685915 0.1691119 0.1696299 0.1701382 0.1706327 0.1711172 0.1715986
 0.1720822 0.1725675 0.1730476 0.173512 0.1739554 0.1743837 0.1748085 0.1752359 0.1756614 0.1760767
 0.1764794 0.1768737 0.1772648 0.1776541 0.1780405 0.1784224 0.1787982 0.1791649 0.1795213 0.1798718
 0.1802241 0.1805832 0.1809476 0.1813128 0.1816769 0.1820432 0.1824175 0.1828009 0.1831878 0.183571
 0.1839477 0.1843193 0.1846883 0.1850566 0.1854262 0.185798 0.1861689 0.1865347 0.1868959 0.1872583
 0.1876273 0.1880006 0.1883724 0.1887408 0.1891096 0.1894804 0.1898497 0.1902144 0.1905765 0.1909386
 0.1913006 0.1916601 0.1920156 0.1923676 0.1927176 0.1930679 0.1934183 0.1937665 0.194112 0.194457
 0.1948042 0.195154 0.1955054 0.1958582 0.1962129 0.196569 0.1969241 0.1972763 0.1976274 0.1979819
 0.1983417 0.198705 0.1990691 0.1994325 0.1997945 0.2001559 0.2005179 0.2008807 0.201243 0.2016034
 0.201961 0.2023169 0.202674 0.2030337 0.2033935 0.2037491 0.2040992 0.2044469 0.2047965 0.2051503
 0.2055075 0.205865 0.2062207 0.2065744 0.2069263 0.2072783 0.2076344 0.2079972 0.208363 0.2087264
 0.209085 0.2094389 0.2097886 0.2101373 0.2104883 0.2108427 0.2111998 0.2115592 0.2119177 0.2122697
 0.2126128 0.2129494 0.2132837 0.2136206 0.2139623 0.2143054 0.2146444 0.2149811 0.2153233 0.2156741
 0.216028 0.2163769 0.2167168 0.21705 0.2173833 0.2177208 0.2180604 0.2184011 0.2187464 0.2190993
 0.2194584 0.2198206 0.2201816 0.2205361 0.2208839 0.2212299 0.2215768 0.2219227 0.2222664 0.2226089
 0.2229514 0.2232973 0.2236496 0.2240063 0.2243627 0.2247194 0.2250788 0.2254404 0.2258034 0.2261694
 0.2265371 0.2269032 0.227269 0.227637 0.2280063 0.2283769 0.2287514 0.229129 0.2295059 0.2298821
 0.2302592 0.2306366 0.2310163 0.2314017 0.231789 0.2321721 0.2325523 0.2329339 0.2333155 0.2336956
 0.2340759 0.2344562 0.2348359 0.2352197 0.2356107 0.2360053 0.2363995 0.2367911 0.2371752 0.2375515
 0.237929 0.2383122 0.2386961 0.2390793 0.2394673 0.239859 0.240249 0.2406375 0.2410244 0.2414042
 0.2417789 0.2421562 0.2425362 0.2429147 0.2432939 0.2436718 0.2440411 0.2444035 0.2447665 0.2451228
 0.2454475 0.2456832 0.2456782 0.2451154 0.2434699 0.2400134 0.2339478 0.224718 0.2123409 0.1975114
 0.1814156 0.1653599 0.1504098 0.1372383 0.1262039 0.1174918 0.1112138 0.1074963 0.1065506 0.1087647
 0.1148331 0.1253546 0.1393227 0.1527936 0.1603312 0.1591046 0.1514489 0.1427476 0.1370404 0.1350168
 0.1353456 0.1366886 0.138503 0.140901 0.1441968 0.1484365 0.1533433 0.1587742 0.1649923 0.1722687
 0.1803594 0.1885902 0.1964192 0.2037862 0.21092 0.2179255 0.2246199 0.2307077 0.236011 0.2405293
 0.2443791 0.2477207 0.2506982 0.2534062 0.2559047 0.2582263 0.2603347 0.2621045 0.2633916 0.2641487
 0.2644808 0.2645989 0.2647039 0.2648984 0.2651966 0.2655877 0.2660643 0.2666153 0.2672257 0.2678819
 0.2685661 0.2692596 0.2699535 0.2706442 0.2713215 0.271975 0.2726009 0.2731953 0.2737558 0.2742902
 0.2748105 0.2753197 0.2758178 0.2763087 0.2767932 0.2772667 0.27773 0.2781894 0.2786434 0.2790816
 0.2794954 0.279884 0.2802559 0.2806232 0.2809927 0.2813633 0.2817339 0.2821056 0.2824757 0.28284
 0.2832004 0.2835613 0.2839218 0.2842804 0.2846397 0.2850015 0.2853644 0.2857264 0.2860834 0.2864301
 0.2867697 0.2871147 0.2874732 0.287841 0.2882086 0.2885715 0.2889338 0.2893058 0.2896937 0.290091
 0.2904872 0.2908815 0.2912801 0.2916856 0.2920961 0.2925083 0.2929165 0.2933168 0.2937142 0.2941142
 0.2945107 0.2948903 0.2952486 0.2955939 0.2959399 0.2962956 0.2966602 0.2970254 0.2973873 0.29775
 0.298117 0.2984873 0.2988595 0.2992337 0.299611 0.299998 0.3004048 0.3008309 0.3012629 0.3016901
 0.3021125 0.302535 0.3029626 0.3034002 0.3038454 0.3042856 0.3047104 0.3051258 0.3055541 0.3060178
 0.3065194 0.3070345 0.3075331 0.308008 0.3084746 0.3089492 0.3094386 0.3099363 0.3104132 0.3108353
 0.3112125 0.3116124 0.3120984 0.3126655 0.3132527 0.3138063 0.3143175 0.3148083 0.3152983 0.3157859
 0.3162524 0.3166815 0.3170834 0.3175057 0.3180032 0.3185812 0.3191846 0.3197545 0.320277 0.3207669
 0.3212384 0.3217027 0.3221534 0.3225431 0.3228316 0.3230788 0.3234382 0.3240115 0.3247368 0.3254525
 0.3260588 0.3265805 0.3270835 0.3275881 0.3280781 0.328521 0.3288313 0.3289092 0.328819 0.3288597
 0.3293241 0.3302029 0.3312143 0.3320932 0.332769 0.3333052 0.3337802 0.3342365 0.3346552 0.334953
 0.3350698 0.335106 0.3353126 0.3358628 0.3366561 0.3374276 0.3380279 0.3385094 0.3389784 0.3394733
 0.3399448 0.3402354 0.3401477 0.3397107 0.3393615 0.3396647 0.3407681 0.342235 0.3434807 0.3442929
 0.3448411 0.3452713 0.345488 0.345334 0.3447878 0.3439683 0.3431874 0.3430071 0.3438789 0.3455681
 0.3472401 0.3482964 0.3488938 0.3495295 0.3503895 0.3512639 0.3518924 0.3521985 0.3522494 0.3521058
 0.3517901 0.3514543 0.3514836 0.3522284 0.3535966 0.3550706 0.3561923 0.3569257 0.3574521 0.3576415
 0.3569089 0.354903 0.3524219 0.3512251 0.3524755 0.3555151 0.3585795 0.3605466 0.3615593 0.3622001
 0.3627256 0.3629951 0.3624621 0.3603468 0.3566915 0.3533001 0.3526577 0.3554875 0.3599415 0.3633898
 0.3644348 0.363211 0.3607261 0.3583937 0.3575342 0.3586527 0.3612184 0.3642094 0.3667349 0.3682773
 0.3687209 0.3683031 0.3675183 0.3669855 0.3670593 0.367304 0.3667613 0.3651898 0.3635235 0.3624334
 0.3610985 0.358545 0.3558067 0.3552946 0.3578164 0.3614134 0.3636309 0.3640344 0.3637941 0.3633261
 0.3613039 0.3564054 0.3497506 0.3448921 0.3447755 0.348802 0.3534229 0.3556252 0.3553181 0.3543437
 0.3538751 0.3531693 0.3506828 0.3462548 0.3419678 0.3402935 0.3413334 0.3426829 0.3420985 0.3391033
 0.3338429 0.3264709 0.3189307 0.3153729 0.3185027 0.3261993 0.3333816 0.3364117 0.3342659 0.3270067
 0.3160805 0.3058465 0.3016504 0.3049126 0.3114704 0.3155929 0.3145086 0.3085783 0.2989572 0.2870161
 0.2754788 0.2681075 0.2672873 0.2720981 0.2785849 0.2815619 0.2772542 0.2662397 0.2540982 0.2472386
 0.2469768 0.2487281 0.2474475 0.2423851 0.2360933 0.2308795 0.2274833 0.2256033 0.2243069 0.222723
 0.2207227 0.2178374 0.2120239 0.2019282 0.1904792 0.1834206 0.1833849 0.1877161 0.1927768 0.1976236
 0.2021511 0.2045003 0.2030285 0.1996265 0.1985635 0.2019406 0.2076699 0.2121189 0.2137717 0.213862
 0.2140156 0.2142386 0.2137356 0.2130987 0.21436 0.2184819 0.2238669 0.2280886 0.2303389 0.2314635
 0.2323415 0.233138 0.2337428 0.2341278 0.2343224 0.234442 0.2346703 0.2350449 0.2354202 0.2357103
 0.2358256 0.2351537 0.2326218 0.2280808 0.2234907 0.2215972 0.2230871 0.2261545 0.2291339 0.2317288
 0.2327945 0.2294105 0.2206741 0.2111489 0.2077771 0.2132066 0.2236662 0.2331949 0.2383492 0.2386817
 0.2347706 0.2279659 0.2219284 0.2220161 0.2311711 0.2468732 0.2634157 0.2767375 0.285987 0.2913505
 0.2925596 0.2900712 0.2863988 0.2851436 0.2885612 0.296107 0.3048771 0.31091 0.3108868 0.3048813
 0.298295 0.2985913 0.3078126 0.3198121 0.3270332 0.3284752 0.3286206 0.3303495 0.3324451 0.3335367
 0.3349066 0.3382686 0.342866 0.3460571 0.345656 0.3408558 0.3322038 0.322203 0.3149264 0.3128774
 0.3143418 0.3154452 0.3141845 0.31054 0.3040398 0.2947515 0.2863172 0.2840489 0.2889127 0.2961026
 0.3005275 0.3015577 0.3015169 0.3014295 0.2997904 0.2950731 0.2884 0.2830635 0.2812983 0.2821782
 0.2831763 0.2829326 0.2815014 0.2787637 0.2743856 0.2694581 0.2666615 0.2679126 0.272342 0.2771621
 0.2802482 0.2814523 0.2817926 0.282149 0.2827895 0.2835295 0.2841561 0.285037 0.2871644 0.291042
 0.2956877 0.2994671 0.3019249 0.3041388 0.3071849 0.3108406 0.3140031 0.3159917 0.3172142 0.3187414
 0.3213642 0.3249241 0.3284054 0.3307619 0.3318624 0.3326692 0.334335 0.3370858 0.3401285 0.3425936
 0.3443004 0.3456206 0.346945 0.3483862 0.3497331 0.3506255 0.3510072 0.3514228 0.3525885 0.3546003
 0.3567743 0.3583183 0.3589851 0.3590343 0.3587759 0.3583134 0.3576597 0.3569406 0.3564087 0.356277
 0.3565831 0.3572149 0.3580277 0.358918 0.3598354 0.360777 0.3617646 0.3628003 0.3638443 0.3648421
 0.3657455 0.3664974 0.3670388 0.3673615 0.3675197 0.3675614 0.3674676 0.3671796 0.3666554 0.3658749
 0.3648142 0.3634437 0.3617365 0.3596537 0.3571509 0.3542926 0.3514369 0.3492761 0.3485508 0.3495813
 0.3520183 0.3550484 0.3578681 0.360033 0.3614915 0.362407 0.3629774 0.3633474 0.3635985 0.3637667
 0.3638681 0.3639198 0.3639422 0.3639504 0.3639564 0.3639771 0.3640283 0.3641075 0.3641886 0.3642291
 0.3641852 0.3640285 0.3637598 0.3634053 0.3629958 0.3625468 0.3620546 0.3615074 0.3609028 0.3602541
 0.3595787 0.3588746 0.358099 0.3571678 0.3559859 0.3544742 0.3525568 0.3501447 0.347203 0.3438571
 0.3403673 0.3369335 0.333548 0.3300771 0.3264535 0.3227471 0.3190839 0.3155566 0.3122063 0.3090347
 0.3060139 0.3030986 0.3002418 0.2974034 0.2945529 0.2916687 0.2887311 0.2857155 0.282598 0.2793598
 0.2759716 0.2723659 0.2684302 0.2640349 0.2590735 0.2534926 0.2473144 0.2406544 0.2337178 0.2267592
 0.2200226 0.2137012 0.2079342 0.202821 0.1984318 0.1948099 0.1919718 0.1899083 0.1885927 0.1879903
 0.1880631 0.1887604 0.1900031 0.1916749 0.1936237 0.1956701 0.1976242 0.1993235 0.2006967 0.2018117
 0.2028529 0.2040263 0.2054647 0.2072016 0.2092045 0.2114087 0.2137246 0.2160408 0.2182487 0.2202717
 0.2220765 0.2236596 0.2250253 0.2261671 0.2270653 0.2277072 0.2281187 0.2283856 0.2286453 0.2290522
 0.2297369 0.2307834 0.2322323 0.2340955 0.2363626 0.2389983 0.2419363 0.2450746 0.248287 0.2514635
 0.2545648 0.2576486 0.2608432 0.2642831 0.2680426 0.2721009 0.276352 0.2806435 0.2848128 0.2887149
 0.2922467 0.2953667 0.2980987 0.3005106 0.3026713 0.3046083 0.3062971 0.3076887 0.3087462 0.3094642
 0.3098747 0.3100391 0.3100241 0.3098697 0.3095754 0.3091121 0.3084586 0.3076382 0.3067307 0.3058477
 0.3050927 0.3045267 0.3041424 0.3038577 0.303551 0.3031178 0.3025099 0.3017423 0.3008815 0.3000231
 0.299253 0.2986073 0.2980478 0.2974673 0.2967299 0.2957269 0.2944074 0.2927715 0.2908494 0.2886834
 0.286313 0.2837709 0.2810882 0.2782945 0.2754113 0.2724515 0.2694189 0.2663095 0.2631328 0.2599372
 0.2567935 0.25375 0.2508205 0.2480132 0.2453483 0.2428489 0.240531 0.2383996 0.2364449 0.2346432
 0.2329603 0.2313535 0.2297848 0.228242 0.2267398 0.2253022 0.2239569 0.2227342 0.2216501 0.2206953
 0.2198505 0.2191075 0.2184829 0.2180251 0.2177882 0.2177678 0.2178667 0.2179421 0.2178865 0.2176739
 0.2173519 0.2169951 0.2166494 0.2163163 0.2159712 0.2155692 0.2150321 0.2142585 0.2131508 0.2116309
 0.2096574 0.2072545 0.2045192 0.2016035 0.1986923 0.1959697 0.1935709 0.1915591 0.1899407 0.1886717
 0.1876657 0.1868398 0.1861739 0.185719 0.1855467 0.1856566 0.1859016 0.186049 0.1859783 0.1858035
 0.185762 0.1860093 0.1865318 0.1872003 0.1878647 0.1884246 0.1888427 0.1891162 0.1892665 0.1893419
 0.1893837 0.1893854 0.1893114 0.1891341 0.1888376 0.1884181 0.1878894 0.1872576 0.1865 0.185597
 0.1845581 0.1833997 0.1821345 0.1807754 0.1793054 0.177681 0.1759434 0.1743066 0.1730797 0.1724959
 0.1725897 0.1731845 0.1740139 0.1748938 0.1757446 0.1764688 0.1769567 0.1772804 0.1777725 0.1788021
 0.1804592 0.1824608 0.1843537 0.1858041 0.1866991 0.1870378 0.1868472 0.186188 0.1851146 0.1836267
 0.1817464 0.1795816 0.1772498 0.1748402 0.1724803 0.1703094 0.1683971 0.1667744 0.1654536 0.1644271
 0.1637505 0.1631598 0.1611234 0.15537 0.1461131 0.1381473 0.1372303 0.1438738 0.1526308 0.1579472
 0.1588767 0.1577447 0.1564782 0.1554919 0.1547173 0.1542234 0.1540561 0.1541117 0.154186 0.1540693
 0.1536748 0.153019 0.1519816 0.1500925 0.1465264 0.1403874 0.1313599 0.1203334 0.1092303 0.0999892
 0.09359923 0.0898771 0.08787619 0.08655725 0.08539503 0.08455472 0.08452987 0.08564191 0.08786281 0.09096703
 0.0946909 0.0987113 0.1025891 0.1058998 0.108462 0.1103562 0.111715 0.1125872 0.1129944 0.1129952
 0.1126633 0.1120694 0.111281 0.110326 0.1091729 0.1077958 0.10627 0.1047991 0.1036249 0.1028676
 0.1024546 0.1022281 0.102095 0.1020431 0.1020688 0.1021539 0.1022849 0.1024628 0.1027068 0.1030403
 0.103445 0.1038489 0.1041869 0.1044482 0.1046553 0.1048146 0.1048905 0.1048325 0.1046571 0.104468
 0.1043103 0.1040285 0.1033859 0.1023604 0.1012551 0.1004963 0.100336 0.1007075 0.1013074 0.101822
 0.1021176 0.1022504 0.1023212 0.1023285</values></Ydata></ScSm><ScRf><Ydata ylabel="Single channel"><values byteorder="INTEL" format="FLOAT32" numvalues="1820"> 0.0696498 0.06977688 0.06988633 0.06997824 0.07005933 0.0701437 0.070246 0.07037035 0.07050806 0.07064465
 0.07076983 0.07088247 0.07098562 0.07107764 0.07115735 0.07123754 0.07134028 0.07147354 0.07162054 0.07175346
 0.07185348 0.07192516 0.07199782 0.07210031 0.07222343 0.0723167 0.0723348 0.07228664 0.07223183 0.07222678
 0.07228621 0.0724103 0.07261904 0.07290021 0.07313599 0.07317936 0.073039 0.0729018 0.07292588 0.07308328
 0.07323994 0.07330388 0.07325834 0.07314864 0.07310472 0.07330175 0.07380102 0.07441854 0.07477961 0.07453346
 0.07358769 0.07223801 0.07109848 0.07077919 0.07144716 0.07264232 0.07362119 0.07395574 0.07376748 0.07341394
 0.07311532 0.07294278 0.07298096 0.07331814 0.07389942 0.07446456 0.07464588 0.07420953 0.07332221 0.07252286
 0.0722812 0.07263324 0.07334857 0.07420942 0.07479747 0.07428645 0.0721775 0.06940329 0.06803071 0.0693498
 0.07252449 0.07546222 0.07671754 0.07625408 0.07483726 0.07336089 0.0726117 0.07299989 0.07429135 0.07584055
 0.07710303 0.07777922 0.07767829 0.07680929 0.07556148 0.07453881 0.07422233 0.07483046 0.07623147 0.07780972
 0.07871102 0.07851419 0.07754725 0.07646513 0.07576823 0.07577567 0.07665069 0.07820732 0.07992889 0.08134704
 0.08228305 0.0827485 0.08283504 0.08269442 0.08246157 0.08223364 0.08217055 0.08241315 0.08280125 0.08290866
 0.0825178 0.0819159 0.08160418 0.08178167 0.0821759 0.08237168 0.08222296 0.0817736 0.08083241 0.0790659
 0.07668172 0.07453832 0.07330705 0.07300039 0.07351427 0.07491139 0.07676362 0.07795529 0.07780672 0.07699409
 0.07681989 0.07780495 0.07936247 0.08064786 0.08137832 0.08187626 0.08256951 0.08350926 0.08425246 0.08419186
 0.08317773 0.08189984 0.08142763 0.08217521 0.08349755 0.08448084 0.08490123 0.08519123 0.08567874 0.08611149
 0.08587988 0.08467214 0.08301613 0.08208831 0.08274315 0.08466907 0.08655447 0.08707681 0.08583985 0.08358833
 0.08158643 0.0807104 0.08110736 0.08255482 0.08477131 0.08728164 0.08934591 0.09033451 0.09016126 0.08926492
 0.08813113 0.08683902 0.08523606 0.0836484 0.08306695 0.08422083 0.08664073 0.08903272 0.09047221 0.09091616
 0.09067598 0.08978987 0.08810762 0.08594331 0.08436605 0.08440584 0.08587943 0.0874385 0.08800301 0.08777085
 0.08760276 0.08784917 0.08816065 0.08820646 0.08816993 0.08848701 0.08928734 0.0902261 0.09084722 0.0910015
 0.09087902 0.09074128 0.0906731 0.09053254 0.0901695 0.08976158 0.08979888 0.09056728 0.09176452 0.09280489
 0.09339669 0.09365703 0.09375483 0.0936242 0.09307635 0.09216909 0.09138376 0.09128283 0.09196206 0.09297805
 0.09381998 0.09429096 0.09445314 0.09443024 0.09432582 0.09420113 0.0940904 0.09406868 0.09423614 0.09458297
 0.09495413 0.09520241 0.09530771 0.09531768 0.09525005 0.09509908 0.09490043 0.09474708 0.09472983 0.09486578
 0.09509726 0.09535046 0.09556611 0.09568854 0.09568544 0.09558963 0.09547879 0.09540559 0.09537684 0.095393
 0.09546668 0.09559339 0.09573345 0.09584033 0.09589833 0.09592158 0.09592429 0.0959076 0.095875 0.09584602
 0.0958494 0.0959031 0.09599604 0.09609552 0.09618663 0.09629244 0.09642915 0.09655679 0.09661306 0.09659065
 0.09654705 0.09654139 0.09658739 0.09666307 0.09673851 0.09678625 0.09678262 0.09672405 0.09665112 0.09663689
 0.09673015 0.09691898 0.09715816 0.09740715 0.09763012 0.09779596 0.09790409 0.09798697 0.09807022 0.09814841
 0.0982082 0.0982589 0.09833418 0.09846689 0.09865662 0.0988636 0.09904221 0.09917445 0.0992692 0.09935121
 0.09945676 0.09960535 0.09976292 0.09986807 0.09991021 0.09994923 0.1000412 0.100172 0.1002814 0.1003361
 0.1003611 0.1004044 0.1004879 0.1005941 0.1006961 0.1007892 0.1008922 0.1010187 0.1011477 0.1012291
 0.1012321 0.1011833 0.101142 0.10114 0.1011665 0.1012059 0.1012636 0.1013441 0.1014266 0.1014771
 0.1014857 0.1014777 0.1014841 0.1015043 0.1015072 0.1014699 0.101404 0.1013416 0.1013056 0.1012959
 0.101296 0.1012862 0.1012539 0.1011978 0.1011245 0.1010434 0.1009616 0.1008854 0.1008306 0.1008198
 0.1008531 0.1008822 0.100837 0.10069 0.1004863 0.1003024 0.1001805 0.1001043 0.1000267 0.09991312
 0.09976388 0.09960482 0.09946063 0.09933703 0.09922431 0.09911322 0.09900825 0.09892821 0.09888826 0.09887408
 0.09884131 0.09875353 0.09861951 0.09848319 0.09838013 0.09831369 0.09826758 0.09822728 0.09819122 0.09817027
 0.09817319 0.09818844 0.09819095 0.09817219 0.098152 0.09815688 0.09819983 0.09828074 0.09838571 0.09848216
 0.0985386 0.09856001 0.09858778 0.09865616 0.09876207 0.09888262 0.09900589 0.09913459 0.09927232 0.09941921
 0.09957764 0.09975366 0.09995209 0.1001712 0.1004004 0.1006244 0.1008359 0.1010448 0.1012718 0.1015292
 0.1018097 0.1020949 0.1023709 0.1026371 0.1029021 0.1031724 0.1034475 0.1037264 0.1040157 0.104323
 0.1046444 0.104967 0.1052828 0.1055949 0.10591 0.1062303 0.1065537 0.1068814 0.1072229 0.1075882
 0.1079696 0.1083358 0.1086563 0.1089331 0.1091995 0.1094908 0.1098191 0.1101687 0.1105064 0.110804
 0.1110654 0.1113258 0.1116133 0.1119196 0.1122205 0.1125174 0.1128412 0.11321 0.1135961 0.1139414
 0.1142107 0.1144241 0.1146346 0.1148731 0.1151232 0.1153538 0.1155612 0.1157688 0.1159925 0.1162258
 0.1164622 0.116712 0.1169849 0.1172658 0.1175253 0.1177506 0.1179544 0.118152 0.1183397 0.1184983
 0.1186138 0.1186968 0.1187802 0.1188931 0.1190355 0.1191859 0.1193314 0.1194801 0.1196435 0.1198229
 0.1200188 0.1202391 0.120486 0.1207423 0.1209895 0.1212378 0.1215166 0.1218281 0.1221274 0.1223689
 0.122558 0.122737 0.1229321 0.1231409 0.1233634 0.1236144 0.1239 0.1242026 0.1244975 0.1247741
 0.1250427 0.1253256 0.1256353 0.1259527 0.1262354 0.126457 0.1266339 0.1268103 0.1270207 0.1272699
 0.127541 0.1278149 0.1280806 0.1283292 0.1285419 0.1286966 0.1287926 0.1288577 0.1289171 0.1289582
 0.1289368 0.1288155 0.1285854 0.1282495 0.1278024 0.1272373 0.1265726 0.1258674 0.1252113 0.124698
 0.1244002 0.1243561 0.1245685 0.1250026 0.1255863 0.126222 0.1268119 0.1272749 0.1275451 0.127572
 0.127338 0.1268708 0.1262307 0.1254827 0.12468 0.123861 0.1230556 0.1223051 0.1216893 0.1213299
 0.1213559 0.121857 0.1228512 0.1242662 0.1259385 0.1276539 0.1292297 0.1305825 0.1317265 0.1327178
 0.1336049 0.1344188 0.1351827 0.1359136 0.1366161 0.137283 0.1379083 0.1384915 0.1390316 0.139519
 0.1399366 0.1402675 0.1405051 0.1406599 0.1407546 0.1408087 0.1408327 0.1408362 0.1408274 0.1407955
 0.1406993 0.1404858 0.1401256 0.1396361 0.13909 0.1386149 0.1383792 0.13855 0.1392242 0.1403677
 0.1418176 0.1433587 0.1448133 0.1460788 0.1471155 0.147929 0.1485614 0.1490716 0.1495108 0.1499118
 0.1502939 0.1506654 0.1510253 0.1513715 0.1517074 0.1520405 0.1523773 0.1527191 0.1530622 0.1534007
 0.1537323 0.154061 0.1543955 0.1547422 0.1550981 0.15545 0.1557887 0.1561201 0.1564573 0.1567998
 0.1571326 0.1574473 0.157754 0.1580698 0.1584027 0.1587474 0.1590906 0.1594184 0.1597255 0.1600181
 0.1603072 0.1605973 0.1608858 0.1611702 0.1614518 0.1617323 0.162012 0.1622912 0.1625719 0.1628538
 0.163131 0.1633968 0.1636504 0.1638981 0.164148 0.1644036 0.1646629 0.1649216 0.165176 0.165427
 0.1656812 0.1659446 0.1662144 0.16648 0.1667327 0.1669748 0.1672159 0.167463 0.1677149 0.1679671
 0.1682179 0.1684683 0.1687174 0.1689629 0.1692057 0.1694512 0.1697032 0.1699595 0.1702147 0.1704655
 0.1707125 0.1709576 0.1712027 0.1714485 0.1716967 0.1719476 0.172198 0.1724414 0.1726746 0.1729013
 0.1731284 0.1733594 0.1735935 0.1738275 0.1740613 0.1742984 0.1745423 0.1747912 0.1750392 0.1752838
 0.175527 0.1757703 0.1760109 0.1762469 0.1764813 0.1767192 0.1769621 0.1772062 0.1774464 0.1776808
 0.1779107 0.1781401 0.1783732 0.1786119 0.1788536 0.1790941 0.179332 0.1795693 0.1798067 0.1800424
 0.1802751 0.1805054 0.1807358 0.1809678 0.1812006 0.1814324 0.1816638 0.1818979 0.1821355 0.182373
 0.1826064 0.1828352 0.1830631 0.1832954 0.1835333 0.1837715 0.1840045 0.1842347 0.1844691 0.1847102
 0.1849546 0.1851979 0.1854379 0.1856742 0.1859085 0.1861423 0.1863765 0.1866123 0.186851 0.1870919
 0.1873339 0.1875781 0.1878241 0.1880678 0.1883068 0.1885446 0.188786 0.1890318 0.1892817 0.1895353
 0.1897919 0.1900504 0.190311 0.1905735 0.1908373 0.1911014 0.1913623 0.1916142 0.1918553 0.1920899
 0.1923215 0.1925499 0.1927731 0.192989 0.1931982 0.1934076 0.1936263 0.1938562 0.1940916 0.1943278
 0.1945626 0.194796 0.1950329 0.1952793 0.1955338 0.1957904 0.1960475 0.1963059 0.1965636 0.1968193
 0.1970748 0.1973292 0.1975801 0.1978297 0.1980825 0.1983404 0.1986044 0.1988761 0.1991519 0.1994251
 0.1996918 0.1999514 0.2002048 0.2004574 0.2007148 0.2009763 0.2012393 0.2015049 0.2017719 0.2020359
 0.2023007 0.2025757 0.2028611 0.2031473 0.2034266 0.2036962 0.2039567 0.2042158 0.2044817 0.2047539
 0.205029 0.2053077 0.2055877 0.2058633 0.2061373 0.2064158 0.206694 0.2069638 0.2072273 0.2074879
 0.2077439 0.2079996 0.2082606 0.208518 0.2087463 0.208894 0.2088315 0.2082886 0.2068155 0.2037896
 0.1985354 0.1905901 0.1799794 0.1673017 0.1535664 0.1398797 0.1271429 0.115928 0.1065428 0.09914413
 0.0938202 0.09067048 0.08987066 0.09175436 0.09691893 0.105869 0.1177209 0.1290901 0.1353635 0.1341928
 0.1276209 0.1202274 0.1154037 0.1136963 0.1139631 0.1150739 0.1165777 0.1185776 0.1213438 0.1249135
 0.1290496 0.1336302 0.1388746 0.1450047 0.1518081 0.158715 0.1652746 0.1714452 0.1774254 0.1833007
 0.1889103 0.1940021 0.198428 0.2021889 0.2053813 0.2081401 0.2105899 0.212815 0.2148682 0.2167757
 0.2185029 0.2199413 0.2209703 0.221554 0.2217845 0.221839 0.2218813 0.2219929 0.2221848 0.222451
 0.2227879 0.2231879 0.2236414 0.224141 0.2246721 0.2252141 0.2257534 0.2262846 0.2268013 0.2272983
 0.2277731 0.2282206 0.2286372 0.2290312 0.2294158 0.2297949 0.2301656 0.2305273 0.2308812 0.23123
 0.2315786 0.2319268 0.2322635 0.2325771 0.2328673 0.2331418 0.2334079 0.2336689 0.2339238 0.2341716
 0.2344182 0.2346723 0.2349333 0.2351923 0.2354428 0.2356837 0.2359173 0.2361495 0.2363859 0.2366258
 0.2368655 0.2371046 0.2373443 0.237583 0.2378209 0.2380615 0.2383045 0.238545 0.2387795 0.2390091
 0.2392409 0.2394854 0.2397475 0.2400184 0.2402859 0.2405493 0.2408167 0.241091 0.2413682 0.2416442
 0.2419176 0.2421897 0.2424647 0.242743 0.2430139 0.2432629 0.2434865 0.2436973 0.2439139 0.2441469
 0.2443921 0.2446378 0.2448777 0.2451142 0.2453515 0.2455927 0.2458402 0.2460921 0.2463435 0.2465968
 0.2468622 0.2471432 0.2474322 0.2477222 0.2480121 0.2483006 0.248587 0.2488755 0.2491693 0.2494615
 0.2497419 0.2500124 0.2502903 0.2505953 0.2509297 0.2512732 0.2516006 0.251906 0.2522032 0.2525092
 0.2528324 0.2531658 0.2534812 0.2537485 0.2539766 0.2542214 0.2545342 0.2549122 0.2553092 0.2556835
 0.256026 0.2563504 0.2566702 0.2569833 0.2572746 0.2575316 0.2577643 0.2580114 0.2583155 0.2586816
 0.2590687 0.2594323 0.2597607 0.2600641 0.2603523 0.2606343 0.2609048 0.261127 0.2612697 0.2613808
 0.2615812 0.2619497 0.2624343 0.2629075 0.2632946 0.2636198 0.263934 0.2642483 0.2645481 0.264809
 0.2649628 0.2649293 0.2647622 0.2647049 0.2649949 0.265623 0.2663583 0.2669821 0.2674335 0.2677652
 0.2680466 0.2683156 0.268556 0.2686989 0.2686981 0.2686374 0.2687179 0.2690743 0.269623 0.2701531
 0.2705489 0.270853 0.2711467 0.2714569 0.2717439 0.2718825 0.271716 0.2712721 0.2709069 0.2710719
 0.2718756 0.2729595 0.2738576 0.2744117 0.2747659 0.2750338 0.2751293 0.2749208 0.2743937 0.273651
 0.2729489 0.2727365 0.2733645 0.2746326 0.2758741 0.2766237 0.2770171 0.2774481 0.2780561 0.2786722
 0.2790952 0.279272 0.2792548 0.2790803 0.2787563 0.2784078 0.2783551 0.2788841 0.2799158 0.281028
 0.2818523 0.2823644 0.2827138 0.2827964 0.2821434 0.2804798 0.2784521 0.2774619 0.2784202 0.2807893
 0.2831649 0.2846628 0.2854021 0.2858487 0.2862083 0.2863697 0.2858962 0.2841695 0.2812324 0.2785264
 0.2780169 0.2802538 0.2837534 0.2864355 0.2872118 0.2862049 0.2842188 0.2823693 0.2816887 0.2825645
 0.284577 0.2869249 0.2889062 0.290112 0.2904551 0.2901275 0.2895191 0.2891156 0.2891941 0.2894073
 0.2889999 0.287791 0.2865242 0.2857241 0.2847356 0.2827942 0.2807294 0.2804505 0.2825838 0.2855659
 0.2874567 0.2879283 0.2879131 0.2877259 0.2863014 0.2825975 0.2775243 0.2739182 0.2741131 0.2776094
 0.2815681 0.2836019 0.2836634 0.2832314 0.2832329 0.2830648 0.281493 0.2784001 0.2754706 0.2746876
 0.2761096 0.2777818 0.2778981 0.2760699 0.2723874 0.2669694 0.2614486 0.2592736 0.2626659 0.2698558
 0.2766447 0.2800268 0.2791288 0.2739642 0.2657442 0.258177 0.255801 0.2598001 0.2666217 0.2714115
 0.2718371 0.2681939 0.2614372 0.2527656 0.244634 0.2404408 0.2423652 0.2496154 0.2585808 0.2643869
 0.263379 0.2560529 0.2477927 0.2448203 0.2483415 0.2537457 0.2560269 0.2544956 0.2517377 0.2500922
 0.2503601 0.2522424 0.2546785 0.2566833 0.2581043 0.2582282 0.2543898 0.24492 0.2335308 0.2273407
 0.2295333 0.236803 0.2447557 0.2523312 0.2593263 0.2632222 0.2618693 0.2577398 0.2563415 0.2603343
 0.2669963 0.2716964 0.2725941 0.2713853 0.2702296 0.269183 0.2672646 0.2652243 0.2655792 0.2694754
 0.27489 0.2788275 0.2803253 0.2804456 0.2802617 0.2799578 0.2793924 0.2785397 0.2774424 0.2762311
 0.2751187 0.2741627 0.2732195 0.2722258 0.2711275 0.2692637 0.2654162 0.2593942 0.253388 0.2504552
 0.2513083 0.2538713 0.2562672 0.258179 0.2583504 0.2535574 0.2428188 0.2311719 0.2262084 0.2307381
 0.240553 0.2491536 0.252885 0.2513924 0.2454301 0.2365117 0.2284461 0.2266678 0.2340488 0.2478967
 0.2623824 0.2734745 0.2804641 0.2836949 0.2830137 0.2789287 0.273905 0.2713869 0.2734333 0.2793654
 0.2862828 0.2904107 0.2887413 0.2815143 0.2738591 0.2726894 0.2798456 0.2896479 0.2951682 0.2954871
 0.2946638 0.2952949 0.2962965 0.2964778 0.2970373 0.2995521 0.3033953 0.3062613 0.3062335 0.3025911
 0.2957979 0.2880545 0.282947 0.2826074 0.2853559 0.2876256 0.2876203 0.2853469 0.2803712 0.272785
 0.2660065 0.264949 0.2704371 0.277956 0.2827981 0.2844468 0.2851187 0.2857771 0.2849951 0.2813419
 0.2759215 0.2719004 0.2714025 0.273504 0.2757547 0.2768344 0.276755 0.2753211 0.2721432 0.2682958
 0.2664663 0.2685618 0.2736646 0.2789257 0.2821833 0.2832796 0.2832294 0.282912 0.282605 0.2821455
 0.2813582 0.2806583 0.2810823 0.2831854 0.2860742 0.2882245 0.2892446 0.2901953 0.2920975 0.2946832
 0.2968048 0.2977041 0.2976785 0.2977029 0.2985507 0.3001565 0.3016801 0.3022484 0.3018156 0.3013194
 0.3018402 0.3035717 0.305745 0.3075094 0.3086449 0.3094406 0.310209 0.3110206 0.3116743 0.3118643
 0.3115846 0.311379 0.3119419 0.3133984 0.3151573 0.316511 0.3172166 0.3174634 0.3174739 0.3172891
 0.3168784 0.3163183 0.3158004 0.3154867 0.315395 0.3154269 0.3154747 0.3154867 0.3154668 0.3154535
 0.3154925 0.3156017 0.3157659 0.3159661 0.3161896 0.3164059 0.3165726 0.3166837 0.316777 0.3168712
 0.3169215 0.3168531 0.316611 0.3161595 0.3154601 0.3144748 0.3131784 0.3115473 0.3095575 0.3072732
 0.305005 0.3033494 0.3029466 0.3040722 0.3064171 0.3092617 0.3118857 0.3138792 0.3151836 0.315941
 0.3163309 0.3164897 0.3165005 0.3164043 0.316218 0.3159551 0.3156337 0.3152741 0.314899 0.3145384
 0.3142195 0.3139479 0.3137003 0.3134366 0.313118 0.3127219 0.3122482 0.3117108 0.3111211 0.3104734
 0.3097421 0.3089002 0.30795 0.3069384 0.305935 0.3049904 0.3041072 0.303248 0.3023658 0.3014244
 0.3003804 0.2991734 0.2977885 0.2963436 0.2950549 0.2940632 0.2933066 0.2925926 0.2917654 0.2907793
 0.2896548 0.2884274 0.2871363 0.2858164 0.2844801 0.283112 0.2816808 0.2801563 0.2785242 0.2767916
 0.2749765 0.2730951 0.2711658 0.2692101 0.2672231 0.2651324 0.2627961 0.2600498 0.256757 0.2528342
 0.2482601 0.2430946 0.2374908 0.2316693 0.2258598 0.2202569 0.2150174 0.2102785 0.2061635 0.2027704
 0.2001642 0.1983828 0.1974486 0.1973689 0.1981304 0.1996934 0.2019888 0.2049066 0.2082886 0.2119384
 0.2156481 0.2192309 0.2225605 0.2256044 0.2284133 0.2310514 0.2335302 0.2358081 0.2378418 0.2396195
 0.2411487 0.2424354 0.2434866 0.2443296 0.2450163 0.245603 0.2461235 0.2465819 0.2469641 0.2472581
 0.2474678 0.247619 0.2477505 0.2478973 0.2480771 0.2482916 0.2485403 0.2488333 0.2491915 0.2496356
 0.2501733 0.2507934 0.2514718 0.252188 0.2529411 0.2537505 0.2546426 0.2556447 0.2567867 0.2580946
 0.2595722 0.2611852 0.2628607 0.2644987 0.2659908 0.2672447 0.2682052 0.2688615 0.2692378 0.2693709
 0.2692957 0.2690421 0.2686386 0.2681095 0.2674751 0.2667569 0.2659771 0.2651486 0.264268 0.2633273
 0.2623334 0.2613158 0.2603091 0.2593284 0.2583686 0.2574278 0.2565177 0.2556454 0.2548018 0.253976
 0.2531705 0.2523977 0.2516666 0.2509751 0.2503096 0.2496481 0.2489605 0.2482063 0.2473402 0.2463296
 0.2451613 0.2438346 0.242356 0.2407412 0.2390104 0.237179 0.2352563 0.2332497 0.2311649 0.2290041
 0.2267615 0.2244273 0.222014 0.2195838 0.2172315 0.2150315 0.2130082 0.2111487 0.2094235 0.2077996
 0.2062522 0.2047684 0.2033402 0.2019663 0.2006543 0.1994098 0.1982299 0.1971168 0.1960851 0.1951475
 0.1943073 0.1935667 0.1929276 0.1923859 0.1919305 0.1915505 0.191248 0.191052 0.1910001 0.1910857
 0.1912342 0.1913469 0.1913646 0.1912934 0.191188 0.1911072 0.1910757 0.1910844 0.1911117 0.1911158
 0.1910142 0.1907022 0.1900882 0.1891019 0.1877019 0.1859056 0.1838037 0.1815411 0.1792876 0.1772038
 0.1754043 0.1739471 0.1728433 0.1720478 0.171462 0.1709952 0.1706325 0.170436 0.1704851 0.1707928
 0.171239 0.1716185 0.1718182 0.1719398 0.1722113 0.1727942 0.1736832 0.174739 0.1757877 0.1767113
 0.1774687 0.1780528 0.1784694 0.1787473 0.1789179 0.1789838 0.1789358 0.1787789 0.1785209 0.1781659
 0.1777258 0.1772045 0.1765818 0.1758465 0.1750163 0.1741064 0.1731172 0.1720463 0.170866 0.1695273
 0.1680672 0.166693 0.1657073 0.1653446 0.165653 0.1664767 0.1675657 0.168741 0.1699208 0.171003
 0.1718676 0.1725657 0.1734073 0.1747586 0.1767308 0.1790648 0.1813117 0.1831245 0.184371 0.1850365
 0.1851463 0.1847677 0.1839501 0.1826697 0.1809302 0.1788542 0.1766012 0.1743017 0.1721019 0.1701328
 0.1684403 0.1670347 0.1659218 0.1650955 0.1646098 0.1641911 0.1622848 0.1565927 0.147335 0.1393724
 0.1385441 0.1453765 0.1543519 0.1598308 0.1608448 0.1597605 0.1585521 0.1576453 0.1569548 0.1565378
 0.15645 0.1566063 0.1568084 0.1568319 0.1565686 0.1560231 0.1550687 0.1532116 0.1495739 0.1432052
 0.1337869 0.1222838 0.1107388 0.101184 0.09463233 0.09086567 0.08888464 0.08760719 0.08648828 0.0856989
 0.08575072 0.08697613 0.08934778 0.09264259 0.09660299 0.1009016 0.1050772 0.1086755 0.1114929 0.1136035
 0.1151421 0.1161589 0.1166757 0.1167544 0.1164741 0.1159088 0.1151302 0.1141765 0.113026 0.1116515
 0.1101183 0.1086251 0.1074236 0.1066564 0.1062693 0.1061019 0.1060382 0.1060411 0.1060976 0.1061941
 0.1063267 0.1065011 0.1067322 0.107038 0.1074036 0.1077651 0.1080532 0.1082399 0.1083328 0.108339
 0.1082349 0.1079808 0.1075965 0.1071854 0.1067972 0.106285 0.1054201 0.1041867 0.1028951 0.1019767
 0.1016854 0.1019571 0.1024905 0.1029627 0.1032213 0.1033114 0.1033407 0.1033237 0.1031537 0.1027246
</values></Ydata></ScRf><Data_Parameters_AB><parameter name="DPF">1</parameter><parameter name="NPT">3497</parameter><parameter name="FXV">3996</parameter><parameter name="LXV">500</parameter><parameter name="CSF">1</parameter><parameter name="MXY">0.121920645236969</parameter><parameter name="MNY">-0.103619039058685</parameter><parameter name="DAT">17/01/2024</parameter><parameter name="TIM">13:30:58.707 (GMT+1)</parameter><parameter name="DXU">WN</parameter></Data_Parameters_AB><AB__Qtest><MainReport name="Quality Test Report"><Header><Line><Legend>Test result ok/not ok [1/0]: </Legend><Value>0</Value></Line><Line><Legend>Method file: </Legend><Value>C:\Users\Public\Documents\Bruker\OPUS_8.2.28\QT\IRBT_v3_default.QT</Value></Line></Header><Matrix><Line><Legend></Legend><Legend>min</Legend><Legend>max</Legend><Legend>measured</Legend></Line><Line><Value>Absorption (X-Range 1):</Value><Value>0.400000</Value><Value>2.000000</Value><Value>0.214624</Value></Line><Line><Value>Noise (X-Range 4):</Value><Value></Value><Value>0.000300</Value><Value>0.000026</Value></Line><Line><Value>Signal/Noise (X-Range 2):</Value><Value>200.000000</Value><Value></Value><Value>177.871593</Value></Line><Line><Value>Signal/Noise (X-Range 3):</Value><Value>40.000000</Value><Value></Value><Value>157.001736</Value></Line><Line><Value>Water vapour (X-Range 5):</Value><Value></Value><Value>0.000300</Value><Value>0.000027</Value></Line><Line><Value>Signal/Water (X-Range 2):</Value><Value>100.000000</Value><Value></Value><Value>175.040146</Value></Line><Line><Value>Signal/Water (X-Range 3):</Value><Value>20.000000</Value><Value></Value><Value>154.502505</Value></Line><Line><Value>Fringes (X-Range 6):</Value><Value></Value><Value>0.000100</Value><Value>0.000021</Value></Line></Matrix></MainReport></AB__Qtest><Data_Parameters_ScSm><parameter name="DPF">1</parameter><parameter name="NPT">1814</parameter><parameter name="FXV">3996.63438082617</parameter><parameter name="LXV">499.579297603271</parameter><parameter name="CSF">1</parameter><parameter name="MXY">0.368720948696136</parameter><parameter name="MNY">0.0752774477005005</parameter><parameter name="DAT">17/01/2024</parameter><parameter name="TIM">13:30:58.707 (GMT+1)</parameter><parameter name="DXU">WN</parameter></Data_Parameters_ScSm><Data_Parameters_ScRf><parameter name="DPF">1</parameter><parameter name="NPT">1820</parameter><parameter name="FXV">4004.34989121387</parameter><parameter name="LXV">495.721542409425</parameter><parameter name="CSF">1</parameter><parameter name="MXY">0.317473888397217</parameter><parameter name="MNY">0.0680307149887085</parameter><parameter name="DAT">17/01/2024</parameter><parameter name="TIM">13:30:31.614 (GMT+1)</parameter><parameter name="DXU">WN</parameter></Data_Parameters_ScRf><Optic_Parameters_Rf><parameter name="APR">0</parameter><parameter name="APT">Open</parameter><parameter name="BMS">KBr</parameter><parameter name="DTC">RT-DLaTGS_IR-Biotyper [Microplate reader]</parameter><parameter name="HPF">0</parameter><parameter name="LPF">10.0</parameter><parameter name="LPV">4000</parameter><parameter name="PGR">0</parameter><parameter name="RCH">Module port</parameter><parameter name="RDX">0</parameter><parameter name="SRC">MIR</parameter><parameter name="VEL">10.0</parameter><parameter name="SON">Off</parameter></Optic_Parameters_Rf><Acquisition_Parameters_Rf><parameter name="ADT">1</parameter><parameter name="AQM">DD</parameter><parameter name="CFE">0</parameter><parameter name="COR">0</parameter><parameter name="DEL">0</parameter><parameter name="DLY">0</parameter><parameter name="HFW">8000</parameter><parameter name="LFW">0</parameter><parameter name="NSR">32</parameter><parameter name="PLF">AB</parameter><parameter name="RES">6</parameter><parameter name="RGN">-1</parameter><parameter name="STR">0</parameter><parameter name="TCL">MakeCompatibleScalar (0, {WSV=1.000000, ARV=0});</parameter><parameter name="TDL">37</parameter><parameter name="RPO">0</parameter></Acquisition_Parameters_Rf><FT_-_Parameters_Rf><parameter name="APF">B3</parameter><parameter name="HFQ">500</parameter><parameter name="LFQ">4000</parameter><parameter name="NLI">0</parameter><parameter name="PHR">24</parameter><parameter name="PHZ">ML</parameter><parameter name="SPZ">NO</parameter><parameter name="ZFF">1</parameter></FT_-_Parameters_Rf><Optic_Parameters_><parameter name="APR">0</parameter><parameter name="APT">Open</parameter><parameter name="BMS">KBr</parameter><parameter name="CHN">Module port</parameter><parameter name="DTC">RT-DLaTGS_IR-Biotyper [Microplate reader]</parameter><parameter name="HPF">0</parameter><parameter name="LPF">10.0</parameter><parameter name="LPV">4000</parameter><parameter name="PGN">0</parameter><parameter name="RDX">0</parameter><parameter name="SRC">MIR</parameter><parameter name="VEL">10.0</parameter><parameter name="SON">Off</parameter></Optic_Parameters_><FT_-_Parameters_><parameter name="APF">B3</parameter><parameter name="HFQ">500</parameter><parameter name="LFQ">4000</parameter><parameter name="NLI">0</parameter><parameter name="PHR">24</parameter><parameter name="PHZ">ML</parameter><parameter name="SPZ">NO</parameter><parameter name="ZFF">1</parameter></FT_-_Parameters_><Acquisition_Parameters_><parameter name="ADT">1</parameter><parameter name="AQM">DD</parameter><parameter name="CFE">0</parameter><parameter name="COR">0</parameter><parameter name="DEL">0</parameter><parameter name="DLY">0</parameter><parameter name="HFW">8000</parameter><parameter name="LFW">0</parameter><parameter name="NSS">32</parameter><parameter name="PLF">AB</parameter><parameter name="RES">6</parameter><parameter name="SOT">0</parameter><parameter name="TCL">MakeCompatibleScalar (0, {WSV=1.000000, ARV=0});</parameter><parameter name="TDL">37</parameter><parameter name="SPO">0</parameter><parameter name="SGN">-1</parameter></Acquisition_Parameters_><Instrument_Parameters_Rf><parameter name="HFL">15801.365274</parameter><parameter name="LFL">0</parameter><parameter name="LWN">15801.365274</parameter><parameter name="ABP">32157</parameter><parameter name="SSP">1</parameter><parameter name="ARG">2</parameter><parameter name="ASG">2</parameter><parameter name="ASS">32</parameter><parameter name="GFW">16</parameter><parameter name="GBW">16</parameter><parameter name="BFW">0</parameter><parameter name="BBW">0</parameter><parameter name="PKA">9113</parameter><parameter name="PKL">4987</parameter><parameter name="PRA">9121</parameter><parameter name="PRL">5010</parameter><parameter name="P2A">1</parameter><parameter name="P2L">1</parameter><parameter name="P2R">1</parameter><parameter name="P2K">1</parameter><parameter name="DAQ">0</parameter><parameter name="AG2">1</parameter><parameter name="SSM">1</parameter><parameter name="RSN">46362</parameter><parameter name="CRR">0</parameter><parameter name="SRT">1705498231.614</parameter><parameter name="DUR">19.6439971923828</parameter><parameter name="TSC">30.9</parameter><parameter name="MVD">0.319142878055573</parameter><parameter name="AN1">0.225987050910267</parameter><parameter name="AN2">0</parameter><parameter name="VSN">2.485 Apr  4 2017</parameter><parameter name="SRN">0085</parameter><parameter name="CAM">0</parameter><parameter name="INS">IR-Biotyper</parameter><parameter name="FOC">69</parameter><parameter name="RDY">1</parameter><parameter name="ARS">32</parameter></Instrument_Parameters_Rf><Sample_Parameters_><parameter name="BLD"></parameter><parameter name="CNM">Admin</parameter><parameter name="CPY"></parameter><parameter name="DPM"></parameter><parameter name="EXP">IRBT_v3_32Scans.XPM</parameter><parameter name="LCT"></parameter><parameter name="SFM">Microplate, HTS-XT</parameter><parameter name="SNM">240117-1222-Cdiff_SCFA_1_C12_232104490_D9_358c0afb-1387-4342-bdea-21d6b7b25ba7.0</parameter><parameter name="XPP">C:\Users\Public\Documents\Bruker\OPUS_8.2.28\XPM</parameter><parameter name="IST">OK</parameter><parameter name="CPG">1252</parameter><parameter name="UID">34b1a8d6-e923-435c-bf43-dfc444cbc5df</parameter></Sample_Parameters_><Instrument_Parameters_><parameter name="HFL">15801.365274</parameter><parameter name="LFL">0</parameter><parameter name="LWN">15801.365274</parameter><parameter name="ABP">32157</parameter><parameter name="SSP">1</parameter><parameter name="ASG">2</parameter><parameter name="ARG">2</parameter><parameter name="ASS">32</parameter><parameter name="GFW">16</parameter><parameter name="GBW">16</parameter><parameter name="BFW">0</parameter><parameter name="BBW">0</parameter><parameter name="PKA">10016</parameter><parameter name="PKL">4979</parameter><parameter name="PRA">10139</parameter><parameter name="PRL">5002</parameter><parameter name="P2A">1</parameter><parameter name="P2L">1</parameter><parameter name="P2R">1</parameter><parameter name="P2K">1</parameter><parameter name="DAQ">0</parameter><parameter name="AG2">1</parameter><parameter name="SSM">1</parameter><parameter name="RSN">23874</parameter><parameter name="CRR">0</parameter><parameter name="SRT">1705498258.707</parameter><parameter name="DUR">19.6439971923828</parameter><parameter name="TSC">30.9</parameter><parameter name="MVD">0.482227176427841</parameter><parameter name="AN1">0.22601781660721</parameter><parameter name="AN2">0</parameter><parameter name="VSN">2.485 Apr  4 2017</parameter><parameter name="SRN">0085</parameter><parameter name="CAM">0</parameter><parameter name="INS">IR-Biotyper</parameter><parameter name="FOC">69</parameter><parameter name="RDY">1</parameter></Instrument_Parameters_><History/></OPUSDataFile>
