<?xml version="1.0" encoding="UTF-8" ?>
<OPUSDataFile><AB><Ydata ylabel="Absorbance Units"><values byteorder="INTEL" format="FLOAT32" numvalues="3497"> -0.09650876 -0.09651674 -0.0965263 -0.09653495 -0.09653442 -0.09652493 -0.09650197 -0.09646928 -0.09643005 -0.09638835
 -0.09635002 -0.09631574 -0.0962884 -0.09626544 -0.09624619 -0.09622934 -0.09621401 -0.09620105 -0.09619059 -0.09618299
 -0.09617857 -0.09617534 -0.0961732 -0.09616947 -0.09616402 -0.09615605 -0.0961458 -0.09613559 -0.09612569 -0.09611897
 -0.09611487 -0.0961135 -0.09611344 -0.09611177 -0.09610747 -0.09609766 -0.09608226 -0.09605975 -0.09603159 -0.09599753
 -0.09596161 -0.09592506 -0.09589349 -0.09586976 -0.0958541 -0.09584823 -0.09584433 -0.09584177 -0.09583206 -0.09581394
 -0.0957902 -0.09576102 -0.09573615 -0.09571552 -0.09570146 -0.09569259 -0.09568206 -0.09566983 -0.0956513 -0.0956292
 -0.09560739 -0.09558806 -0.09557718 -0.09557305 -0.09557665 -0.09558426 -0.09559339 -0.09560151 -0.09560665 -0.09560768
 -0.09560355 -0.09559486 -0.09558108 -0.09556567 -0.09554888 -0.09553488 -0.09552427 -0.09551679 -0.09551242 -0.09550507
 -0.09549443 -0.09547446 -0.09544593 -0.09540945 -0.09536695 -0.09532511 -0.09528574 -0.09525638 -0.0952372 -0.09523268
 -0.09523947 -0.09525719 -0.09527782 -0.09529586 -0.09530362 -0.0952941 -0.09526938 -0.09522674 -0.0951783 -0.09512609
 -0.09508087 -0.09504526 -0.09501973 -0.09500492 -0.09499434 -0.09498762 -0.09497961 -0.09497023 -0.09495753 -0.09494148
 -0.09492069 -0.09489553 -0.09486611 -0.09483393 -0.0948025 -0.09477282 -0.09474836 -0.09472855 -0.09471397 -0.09470414
 -0.09469888 -0.09469789 -0.09470174 -0.09470732 -0.09471432 -0.09471712 -0.0947139 -0.09470342 -0.09468471 -0.09466213
 -0.0946362 -0.09460698 -0.0945745 -0.09453417 -0.09448636 -0.09443359 -0.09437792 -0.09433359 -0.0943011 -0.09429242
 -0.09430096 -0.09431857 -0.09433573 -0.09432995 -0.09430464 -0.09425192 -0.09418648 -0.09411792 -0.09405521 -0.0940071
 -0.0939726 -0.09395403 -0.09394567 -0.09394693 -0.09395123 -0.0939579 -0.09395894 -0.09395359 -0.09393526 -0.0939035
 -0.09385908 -0.09380252 -0.0937412 -0.09367561 -0.09361256 -0.09355188 -0.09349646 -0.09344608 -0.09340163 -0.09336322
 -0.09333164 -0.09330647 -0.0932879 -0.09327431 -0.09326471 -0.09325717 -0.09325048 -0.09324301 -0.09323422 -0.09322178
 -0.0932053 -0.09318175 -0.09315032 -0.09311079 -0.09306271 -0.09301086 -0.09295543 -0.09290339 -0.09285495 -0.09281471
 -0.09278227 -0.09275761 -0.09273944 -0.09272336 -0.09270752 -0.09268494 -0.09265497 -0.09261234 -0.09255994 -0.09249816
 -0.09243254 -0.09236778 -0.09230751 -0.09225593 -0.09221131 -0.09217509 -0.09214011 -0.09210505 -0.09206317 -0.09201231
 -0.09195431 -0.09188844 -0.09182578 -0.09176695 -0.09172094 -0.09168752 -0.09166327 -0.09164713 -0.09162951 -0.09161112
 -0.0915893 -0.09156618 -0.09154662 -0.09153014 -0.09151937 -0.09150987 -0.0914975 -0.09147815 -0.09144592 -0.09140213
 -0.09134466 -0.09128026 -0.09121085 -0.09114245 -0.09107745 -0.09101696 -0.09096155 -0.09091089 -0.09086483 -0.09082561
 -0.0907934 -0.0907681 -0.09074922 -0.09072782 -0.09070322 -0.09066515 -0.0906156 -0.09055676 -0.09049126 -0.09042831
 -0.09036633 -0.09030676 -0.09024746 -0.09018471 -0.09012202 -0.09006035 -0.09000519 -0.08996142 -0.08992738 -0.08990533
 -0.08988532 -0.08986542 -0.08983649 -0.08979598 -0.08974298 -0.08967688 -0.08960074 -0.08951467 -0.08942261 -0.08932482
 -0.08922687 -0.08912922 -0.08903841 -0.08895408 -0.08887877 -0.08881082 -0.08874672 -0.08868606 -0.08862567 -0.08856796
 -0.08851535 -0.08846785 -0.08842882 -0.08838945 -0.08834653 -0.08828925 -0.08821011 -0.08811258 -0.08799392 -0.08787045
 -0.08774481 -0.08762826 -0.08752333 -0.08742598 -0.08733631 -0.08724202 -0.08714273 -0.08703225 -0.08691147 -0.08678433
 -0.08665177 -0.0865202 -0.08638911 -0.08626062 -0.0861332 -0.08600504 -0.0858749 -0.08574029 -0.08560098 -0.08545575
 -0.08530523 -0.08514933 -0.08498923 -0.08482561 -0.08465841 -0.08448827 -0.08431227 -0.08412993 -0.08393928 -0.08373979
 -0.08353319 -0.08331958 -0.08309983 -0.08287377 -0.08263712 -0.08238962 -0.08212686 -0.08184941 -0.08155747 -0.08125191
 -0.08093476 -0.08060785 -0.08027492 -0.07993896 -0.07960588 -0.0792762 -0.07895374 -0.07863399 -0.07831544 -0.0779937
 -0.07766601 -0.07733192 -0.07699133 -0.07664146 -0.07628241 -0.07590739 -0.07551499 -0.07510652 -0.07468165 -0.07425214
 -0.0738184 -0.07338732 -0.07295801 -0.07252605 -0.07209033 -0.07164307 -0.07118482 -0.07071231 -0.07022836 -0.06973701
 -0.06924019 -0.068744 -0.06824401 -0.06773978 -0.06722233 -0.06668372 -0.06612542 -0.06554262 -0.06495284 -0.06436051
 -0.06377791 -0.06321022 -0.06265043 -0.06209891 -0.06154272 -0.06098074 -0.06040941 -0.05982875 -0.05924353 -0.05865359
 -0.05806027 -0.0574619 -0.05685104 -0.05622672 -0.05558061 -0.05491639 -0.0542362 -0.05354674 -0.05285928 -0.05217505
 -0.05150109 -0.05083101 -0.05016268 -0.04949077 -0.04881166 -0.04812515 -0.04743027 -0.04672853 -0.04601962 -0.04530777
 -0.04459322 -0.04388233 -0.04317595 -0.04247103 -0.04176704 -0.04104697 -0.04031052 -0.03954647 -0.0387584 -0.03795726
 -0.03714704 -0.03634685 -0.03555505 -0.03477848 -0.03401129 -0.03324831 -0.03248415 -0.03171083 -0.03092784 -0.03013059
 -0.02932661 -0.02851761 -0.02771226 -0.02691555 -0.02612345 -0.02533778 -0.02454256 -0.02373561 -0.02290806 -0.02205843
 -0.0211951 -0.02031859 -0.01944275 -0.01856769 -0.01770008 -0.01683897 -0.01598341 -0.01513238 -0.01428223 -0.01343262
 -0.01258091 -0.01172767 -0.01087295 -0.01001638 -0.009158254 -0.008296322 -0.00742905 -0.006555131 -0.005672585 -0.004784783
 -0.00389139 -0.003000044 -0.002112139 -0.001234284 -0.0003682417 0.0004880131 0.001334048 0.00218137 0.003030529 0.003890954
 0.004761932 0.00563966 0.006522927 0.007402906 0.008280616 0.009154662 0.01002663 0.01090012 0.01177383 0.0126473
 0.01351934 0.01438772 0.01525447 0.01612053 0.0169869 0.01785513 0.01872244 0.01958834 0.02045015 0.02130679
 0.02215916 0.02300693 0.0238541 0.02470087 0.02555234 0.02640871 0.02727085 0.02813811 0.02900374 0.02986706
 0.03072028 0.03156439 0.03239825 0.03322355 0.03404363 0.03485918 0.0356725 0.03648429 0.03729628 0.03810816
 0.0389209 0.03973174 0.04053953 0.04134234 0.04213869 0.04293043 0.04371781 0.04450194 0.04528319 0.04606027
 0.0468329 0.04760318 0.04837121 0.04914187 0.04991493 0.0506897 0.05146536 0.05223672 0.05300399 0.0537651
 0.05452063 0.0552712 0.05601617 0.05675444 0.05748655 0.05821194 0.05893331 0.05965246 0.06037121 0.06109135
 0.06181222 0.06253427 0.06325532 0.06397539 0.06469032 0.06539967 0.06609876 0.06678691 0.0674651 0.0681334
 0.06879728 0.0694569 0.07011581 0.07077366 0.07143013 0.07208519 0.07273872 0.0733906 0.07404076 0.07468813
 0.07533097 0.07596856 0.07659935 0.0772234 0.0778402 0.07845024 0.07905302 0.07965125 0.08024524 0.08083943
 0.08143545 0.08203322 0.0826336 0.08323038 0.08382307 0.08440666 0.08498085 0.08554691 0.08610512 0.08665949
 0.08721001 0.08775876 0.088305 0.08884764 0.08938542 0.08991473 0.09043536 0.0909446 0.09144484 0.09193757
 0.09242535 0.09291147 0.0933947 0.09387577 0.09435135 0.0948201 0.09528103 0.09573332 0.09617856 0.09661696
 0.09704903 0.09747498 0.09789271 0.0983021 0.09869952 0.09908504 0.09945846 0.0998206 0.1001766 0.1005265
 0.1008749 0.1012191 0.1015554 0.1018813 0.1021897 0.1024823 0.1027576 0.1030206 0.1032748 0.1035243
 0.1037725 0.104022 0.1042749 0.1045318 0.1047942 0.1050583 0.1053239 0.1055856 0.1058425 0.1060943
 0.1063412 0.1065853 0.1068265 0.1070609 0.1072875 0.1074972 0.1076902 0.1078609 0.1080116 0.108145
 0.1082635 0.1083728 0.1084746 0.1085726 0.1086683 0.1087635 0.108862 0.1089657 0.1090796 0.1092072
 0.1093464 0.1094996 0.109652 0.1098024 0.1099337 0.1100434 0.110128 0.1101869 0.1102327 0.1102664
 0.1103031 0.1103426 0.1103908 0.1104459 0.1105039 0.1105625 0.1106137 0.1106567 0.1106858 0.1107033
 0.110709 0.1107077 0.1107026 0.1106987 0.1106998 0.1107083 0.1107267 0.110753 0.110788 0.110826
 0.1108663 0.1109037 0.1109373 0.1109662 0.1109902 0.1110126 0.1110337 0.1110592 0.1110902 0.1111351
 0.1111955 0.1112826 0.1113962 0.1115441 0.1117182 0.1119124 0.1121081 0.1122817 0.112415 0.1124803
 0.1124821 0.1124078 0.1122936 0.1121473 0.1120122 0.1119039 0.111836 0.1118172 0.111823 0.1118531
 0.1118699 0.1118709 0.1118332 0.1117567 0.1116418 0.1114906 0.1113185 0.1111273 0.1109327 0.1107342
 0.1105392 0.1103463 0.110156 0.1099685 0.1097835 0.1096034 0.1094298 0.1092644 0.1091107 0.108962
 0.1088202 0.1086647 0.1084923 0.1082775 0.1080137 0.1076963 0.1073218 0.1069172 0.1064839 0.1060572
 0.1056379 0.1052402 0.1048624 0.104498 0.1041454 0.1037951 0.1034462 0.1030919 0.1027313 0.1023588
 0.1019776 0.1015884 0.1011973 0.1008117 0.1004301 0.100057 0.09967888 0.09929136 0.09888457 0.09845228
 0.09800246 0.09753374 0.0970664 0.09660233 0.09615961 0.09573977 0.09534956 0.09498845 0.09464416 0.09431338
 0.09396503 0.09359687 0.0931799 0.09272037 0.09221783 0.09168571 0.09114963 0.09061737 0.0901124 0.08962905
 0.08917148 0.08872927 0.08829607 0.0878683 0.08744221 0.08701985 0.08660169 0.08618657 0.08577497 0.08536144
 0.0849454 0.08452282 0.08409327 0.08365723 0.0832148 0.08276869 0.08231888 0.08186656 0.08141127 0.08095146
 0.08048698 0.08001618 0.07954036 0.0790607 0.07857987 0.07810179 0.07762871 0.07716447 0.07670887 0.07626382
 0.0758252 0.07539275 0.07495869 0.07452101 0.07407276 0.07361156 0.07313783 0.07265064 0.07215833 0.07166138
 0.07116798 0.07067837 0.07019388 0.06971418 0.06923693 0.06876233 0.06829005 0.06782063 0.06735592 0.06689539
 0.06643938 0.06598607 0.06553334 0.06507916 0.06462086 0.06415728 0.06368642 0.06320962 0.06272627 0.06224059
 0.06175328 0.06126951 0.06079012 0.06032025 0.05986039 0.05941643 0.05898892 0.05858092 0.05819222 0.0578138
 0.05744371 0.0570605 0.0566635 0.05623623 0.05578363 0.0553101 0.05482431 0.05434627 0.05388043 0.0534435
 0.05303032 0.05264376 0.05227218 0.0519091 0.05154474 0.05117197 0.05078997 0.05039537 0.04999738 0.04959665
 0.04920491 0.04882422 0.04845806 0.04810718 0.04776521 0.04743188 0.04710153 0.04677508 0.04645837 0.04615337
 0.04587366 0.04561836 0.04539408 0.04519385 0.04500807 0.04482705 0.04463215 0.04441946 0.04417578 0.04390888
 0.04361819 0.04331759 0.04301391 0.04271444 0.04242408 0.04214023 0.04186297 0.04159027 0.04132104 0.04106195
 0.04081338 0.040582 0.04036791 0.04016495 0.03997193 0.03977383 0.03957086 0.0393553 0.03913036 0.03890201
 0.03867295 0.03845305 0.03824018 0.0380366 0.03783632 0.03763407 0.03742558 0.03720542 0.03697449 0.03673156
 0.03647947 0.03621981 0.03595022 0.03567155 0.03537496 0.03505937 0.03471778 0.03434898 0.03395852 0.03354686
 0.03313287 0.03271763 0.03232041 0.03193989 0.03158073 0.0312382 0.03089985 0.03056159 0.03020735 0.0298387
 0.02944988 0.02904715 0.0286351 0.02821809 0.02780136 0.02738471 0.02696898 0.02655465 0.0261414 0.02573263
 0.02532925 0.02493232 0.02454259 0.02415607 0.02377245 0.02338946 0.02300704 0.02262865 0.0222542 0.02188466
 0.02151864 0.02114873 0.02077436 0.02038835 0.01999411 0.01959516 0.01919601 0.01880631 0.01842534 0.01805733
 0.01769621 0.01733871 0.01698078 0.01661848 0.01625396 0.01588654 0.0155212 0.01515872 0.01480393 0.01445733
 0.01412443 0.01380562 0.01350706 0.01322906 0.01297383 0.01274076 0.01252422 0.01232265 0.01212474 0.01192914
 0.01172479 0.01151258 0.011288 0.01105535 0.0108182 0.01058329 0.01035874 0.01015072 0.009966682 0.009808845
 0.009680806 0.009580632 0.009508409 0.009462157 0.009441044 0.009446133 0.00947753 0.009536001 0.009622034 0.009729674
 0.009858599 0.009997576 0.01014651 0.01030034 0.01046079 0.01063493 0.01082469 0.01104134 0.01128353 0.01155503
 0.01185044 0.01216357 0.0124881 0.01281493 0.01313952 0.01345531 0.01376108 0.01405422 0.0143361 0.01460637
 0.01486765 0.01512033 0.01536715 0.01560835 0.01584764 0.0160853 0.01632534 0.01656799 0.01681543 0.01706747
 0.0173225 0.0175798 0.0178346 0.01808572 0.01832696 0.01855666 0.01876798 0.01895973 0.01912605 0.01926918
 0.01938704 0.01948931 0.01958015 0.01967577 0.01978512 0.01992173 0.02009421 0.02030213 0.02054894 0.02082069
 0.02111628 0.02142034 0.02173108 0.0220411 0.02234987 0.02265492 0.02295593 0.02324832 0.0235311 0.0237963
 0.02404256 0.02426104 0.02445029 0.02460212 0.02471649 0.02478878 0.02482211 0.02481773 0.02478015 0.02471447
 0.02461984 0.02449984 0.02434288 0.0241491 0.02389365 0.02357379 0.02315307 0.02262602 0.02196052 0.02115078
 0.02020151 0.01911219 0.01794369 0.01670149 0.01547739 0.01427502 0.0131654 0.01214333 0.01122901 0.01041183
 0.009675929 0.009013418 0.008403827 0.007843249 0.007320468 0.006830221 0.006366032 0.005920364 0.005487057 0.005062761
 0.004643572 0.004234053 0.003834236 0.003450524 0.003084417 0.002736987 0.002408761 0.002096499 0.001800036 0.001516798
 0.001246739 0.0009890138 0.0007436178 0.0005100343 0.0002882923 7.866319E-05 -0.0001197646 -0.0003074347 -0.0004894273 -0.0006724803
 -0.0008668434 -0.001087085 -0.00134151 -0.001643973 -0.001991455 -0.002389355 -0.00282088 -0.003282963 -0.003753293 -0.004226058
 -0.004683481 -0.005121452 -0.005530946 -0.005910394 -0.006257159 -0.006571002 -0.00684958 -0.00709275 -0.007296234 -0.007462108
 -0.007598069 -0.007714523 -0.007851637 -0.00802898 -0.008317508 -0.008729495 -0.009327759 -0.01009163 -0.01103266 -0.01209264
 -0.01323271 -0.01438779 -0.01550723 -0.01656005 -0.01751702 -0.01838982 -0.01917398 -0.01989514 -0.02055766 -0.02117616
 -0.02175306 -0.02229271 -0.02279545 -0.02326792 -0.02371057 -0.02413229 -0.02453321 -0.02491833 -0.02528756 -0.02564257
 -0.02598447 -0.02631661 -0.02664092 -0.02696278 -0.02728258 -0.02760372 -0.02792369 -0.02824205 -0.02855463 -0.02885864
 -0.02915204 -0.02943246 -0.02970281 -0.02996265 -0.03021852 -0.0304715 -0.03072648 -0.03098457 -0.03124383 -0.03150433
 -0.03175848 -0.03200603 -0.0322419 -0.03246691 -0.03268475 -0.03289672 -0.03311101 -0.03332669 -0.03354629 -0.0337662
 -0.03398038 -0.0341875 -0.03438164 -0.03456782 -0.03474778 -0.03492814 -0.03511471 -0.03530706 -0.03550784 -0.0357094
 -0.03591014 -0.03610413 -0.03628941 -0.03646662 -0.03663542 -0.03679926 -0.03695837 -0.03711462 -0.03726809 -0.03742004
 -0.03757062 -0.03772181 -0.03787345 -0.03802618 -0.0381792 -0.03833054 -0.03847966 -0.03862439 -0.03876513 -0.03890146
 -0.03903397 -0.03916326 -0.03928924 -0.03941193 -0.03953158 -0.03964803 -0.03976258 -0.03987563 -0.03998797 -0.04010005
 -0.04021057 -0.04031941 -0.04042562 -0.04052905 -0.04063184 -0.04073413 -0.04083877 -0.04094556 -0.04105411 -0.04116395
 -0.04127261 -0.04138041 -0.04148693 -0.04159306 -0.04170061 -0.04180942 -0.04192043 -0.04203225 -0.04214381 -0.04225437
 -0.04236268 -0.04246998 -0.04257627 -0.04268366 -0.04279291 -0.04290493 -0.04302033 -0.04313741 -0.04325618 -0.0433737
 -0.04348968 -0.04360434 -0.04371784 -0.04383472 -0.04395513 -0.04408279 -0.04421682 -0.04435536 -0.04449696 -0.04463624
 -0.04477295 -0.04490367 -0.0450297 -0.0451514 -0.04526994 -0.04538653 -0.04550201 -0.04561716 -0.04573279 -0.04584929
 -0.04596772 -0.04608859 -0.04621215 -0.04633879 -0.04646696 -0.04659662 -0.04672549 -0.04685337 -0.04697904 -0.04710245
 -0.04722308 -0.04734093 -0.04745546 -0.04756666 -0.04767386 -0.04777765 -0.0478793 -0.04797975 -0.04808168 -0.04818509
 -0.04829133 -0.04839923 -0.04850813 -0.04861709 -0.04872493 -0.04883235 -0.0489392 -0.04904695 -0.04915597 -0.04926771
 -0.0493826 -0.04950116 -0.04962366 -0.04974902 -0.04987731 -0.05000431 -0.05012979 -0.05024859 -0.05036076 -0.05046445
 -0.05056059 -0.05065261 -0.05074164 -0.05083303 -0.05092697 -0.05102671 -0.05113123 -0.05124054 -0.05135338 -0.05146842
 -0.05158496 -0.05170215 -0.05181944 -0.05193627 -0.05205275 -0.05216867 -0.05228493 -0.05240173 -0.05251962 -0.05263887
 -0.05275849 -0.05287848 -0.05299692 -0.05311374 -0.05322861 -0.05334178 -0.05345553 -0.05356991 -0.05368662 -0.05380495
 -0.05392367 -0.05404173 -0.054156 -0.05426665 -0.05437205 -0.05447429 -0.05457461 -0.05467556 -0.05477951 -0.05488729
 -0.05500024 -0.05511701 -0.05523762 -0.05535996 -0.05548359 -0.05560709 -0.0557302 -0.05585236 -0.05597352 -0.05609333
 -0.05621176 -0.0563281 -0.05644234 -0.05655414 -0.05666362 -0.05677118 -0.05687691 -0.05698128 -0.05708432 -0.05718616
 -0.057287 -0.05738687 -0.0574868 -0.05758782 -0.05769084 -0.05779711 -0.05790617 -0.05801844 -0.05813223 -0.05824718
 -0.05836155 -0.05847489 -0.05858615 -0.05869507 -0.05880136 -0.05890489 -0.05900689 -0.05910744 -0.05920866 -0.05931057
 -0.05941411 -0.05951926 -0.05962621 -0.05973523 -0.05984734 -0.05996281 -0.06008339 -0.06020746 -0.06033394 -0.06045953
 -0.06058022 -0.06069406 -0.06079734 -0.06089294 -0.06098055 -0.06106589 -0.06115113 -0.06123871 -0.06133032 -0.06142259
 -0.06151542 -0.06160448 -0.06168918 -0.06177 -0.06184699 -0.06192459 -0.0620029 -0.06208449 -0.06216887 -0.06225463
 -0.0623413 -0.06242641 -0.06251026 -0.06259217 -0.06267276 -0.06275279 -0.06283245 -0.06291236 -0.06299205 -0.06307147
 -0.06314985 -0.06322669 -0.06330188 -0.0633751 -0.06344724 -0.0635184 -0.06358959 -0.06366099 -0.06373283 -0.06380514
 -0.06387778 -0.06395077 -0.06402498 -0.06410043 -0.06417782 -0.06425696 -0.06433717 -0.06441816 -0.0644983 -0.06457786
 -0.06465641 -0.06473498 -0.06481493 -0.06489726 -0.06498375 -0.06507442 -0.06517004 -0.06526987 -0.06537382 -0.06548085
 -0.06559075 -0.06570199 -0.06581442 -0.06592552 -0.0660349 -0.0661405 -0.06624197 -0.06634001 -0.06643464 -0.06652869
 -0.06662231 -0.06671834 -0.06681668 -0.06691819 -0.06702257 -0.06712934 -0.06723772 -0.0673458 -0.06745264 -0.06755558
 -0.06765497 -0.06774975 -0.06784191 -0.06793275 -0.06802347 -0.06811546 -0.06820772 -0.06830017 -0.06839186 -0.06848203
 -0.06857301 -0.06866492 -0.06876058 -0.06886056 -0.06896299 -0.06906783 -0.06916937 -0.0692675 -0.06935922 -0.06944525
 -0.06952865 -0.06961018 -0.06969444 -0.06978097 -0.06987128 -0.0699639 -0.07005692 -0.0701495 -0.07023957 -0.07032783
 -0.0704139 -0.07049926 -0.07058466 -0.07067093 -0.07075877 -0.0708475 -0.07093719 -0.07102663 -0.07111553 -0.07120386
 -0.07129155 -0.07137915 -0.07146669 -0.07155418 -0.07164159 -0.0717289 -0.07181624 -0.07190447 -0.07199366 -0.07208484
 -0.07217725 -0.07226977 -0.07236134 -0.07244932 -0.07253396 -0.07261396 -0.07269149 -0.07276765 -0.07284484 -0.07292509
 -0.07300846 -0.07309599 -0.0731848 -0.07327455 -0.073362 -0.07344637 -0.07352722 -0.07360424 -0.07367982 -0.07375407
 -0.0738295 -0.07390609 -0.07398376 -0.07406224 -0.07413946 -0.07421545 -0.07428898 -0.07436072 -0.07443166 -0.07450262
 -0.07457564 -0.07465092 -0.07472984 -0.07481137 -0.07489544 -0.07498012 -0.07506437 -0.07514662 -0.07522586 -0.07530195
 -0.07537442 -0.07544465 -0.07551267 -0.07558028 -0.07564768 -0.07571583 -0.07578484 -0.07585394 -0.07592308 -0.07599097
 -0.07605781 -0.07612418 -0.07619075 -0.07626041 -0.07633377 -0.07641396 -0.07650091 -0.07659598 -0.07669872 -0.07680912
 -0.07692685 -0.07705171 -0.07718325 -0.07732146 -0.07746505 -0.07761375 -0.07776561 -0.07792018 -0.07807561 -0.07823164
 -0.07838623 -0.07853924 -0.07868796 -0.07883219 -0.07897043 -0.07910276 -0.07923121 -0.07935596 -0.07947998 -0.07960197
 -0.07971891 -0.07982761 -0.07991802 -0.07998779 -0.08002751 -0.08003768 -0.08001448 -0.07996121 -0.07987597 -0.0797731
 -0.07965534 -0.07955281 -0.07947765 -0.079454 -0.07949454 -0.07959434 -0.0797579 -0.07995469 -0.08018335 -0.08040321
 -0.08061149 -0.08077703 -0.08089954 -0.08097921 -0.08101936 -0.08104568 -0.08105988 -0.08108331 -0.08111388 -0.08115721
 -0.08120966 -0.08126753 -0.08132674 -0.08137999 -0.0814262 -0.08146063 -0.08148735 -0.08150735 -0.08152469 -0.08154214
 -0.08155866 -0.08157457 -0.08158804 -0.08159814 -0.08160792 -0.0816173 -0.08163258 -0.08165424 -0.08168545 -0.08172619
 -0.08177415 -0.08182868 -0.0818835 -0.08193815 -0.08198669 -0.0820302 -0.08206818 -0.08210299 -0.08213901 -0.08217753
 -0.08222263 -0.08227313 -0.08232968 -0.08238991 -0.08245242 -0.0825159 -0.08257923 -0.08264274 -0.08270633 -0.08277057
 -0.08283573 -0.08290108 -0.0829667 -0.08303092 -0.08309357 -0.08315489 -0.08321496 -0.08327681 -0.08334053 -0.08340857
 -0.0834804 -0.08355503 -0.08363157 -0.08370677 -0.08378047 -0.08385066 -0.08391804 -0.08398254 -0.08404549 -0.08410794
 -0.08417134 -0.08423717 -0.08430532 -0.0843766 -0.08444843 -0.08452047 -0.08458944 -0.08465439 -0.08471485 -0.08477039
 -0.0848235 -0.08487428 -0.08492567 -0.08497774 -0.08503145 -0.08508667 -0.08514271 -0.08519945 -0.08525585 -0.08531214
 -0.0853684 -0.08542527 -0.08548413 -0.0855452 -0.08560982 -0.08567651 -0.08574482 -0.08581189 -0.08587559 -0.08593442
 -0.08598651 -0.086034 -0.08607667 -0.08611884 -0.08616135 -0.08620727 -0.08625729 -0.0863115 -0.08637002 -0.08643121
 -0.08649497 -0.08655974 -0.08662546 -0.08669122 -0.08675702 -0.08682249 -0.08688753 -0.08695166 -0.08701474 -0.08707621
 -0.08713619 -0.08719454 -0.08725175 -0.08730852 -0.08736444 -0.0874197 -0.08747307 -0.08752379 -0.08757194 -0.08761682
 -0.08766163 -0.08770674 -0.08775576 -0.08780945 -0.08786801 -0.08793163 -0.08799753 -0.08806559 -0.0881336 -0.08820162
 -0.0882692 -0.08833635 -0.0884029 -0.08846875 -0.08853336 -0.0885969 -0.08865935 -0.08872131 -0.08878364 -0.08884664
 -0.08891126 -0.08897656 -0.08904241 -0.08910729 -0.08917031 -0.08923116 -0.08928929 -0.08934601 -0.08940145 -0.08945714
 -0.08951337 -0.08957084 -0.08962963 -0.0896898 -0.08975135 -0.08981386 -0.0898773 -0.08994127 -0.09000588 -0.09007161
 -0.09013852 -0.09020726 -0.0902774 -0.09034842 -0.09041969 -0.09048988 -0.09055911 -0.09062683 -0.09069383 -0.09076073
 -0.09082732 -0.09089389 -0.09095925 -0.09102298 -0.09108455 -0.09114365 -0.09120071 -0.09125569 -0.09130969 -0.09136272
 -0.09141665 -0.09147159 -0.09152963 -0.09159068 -0.0916547 -0.09172117 -0.09178722 -0.09185261 -0.09191469 -0.09197429
 -0.09203172 -0.09208829 -0.09214637 -0.09220607 -0.09226891 -0.09233315 -0.09239825 -0.09246206 -0.09252321 -0.0925811
 -0.09263484 -0.09268627 -0.09273547 -0.0927849 -0.09283496 -0.09288719 -0.09294184 -0.09299922 -0.09305938 -0.09312185
 -0.09318653 -0.09325217 -0.0933186 -0.0933843 -0.09344935 -0.09351312 -0.09357595 -0.09363827 -0.0937005 -0.09376348
 -0.09382745 -0.09389304 -0.09396017 -0.09402905 -0.09409935 -0.09417113 -0.09424342 -0.09431603 -0.09438779 -0.09445848
 -0.09452688 -0.0945927 -0.09465563 -0.09471555 -0.09477331 -0.09482896 -0.09488437 -0.09493961 -0.09499586 -0.09505311
 -0.09511181 -0.09517193 -0.09523363 -0.09529688 -0.09536177 -0.09542788 -0.09549467 -0.09556161 -0.09562773 -0.09569341
 -0.0957583 -0.09582399 -0.09589119 -0.09596103 -0.09603453 -0.09611034 -0.09618863 -0.09626621 -0.09634262 -0.09641556
 -0.09648468 -0.0965501 -0.09661183 -0.09667183 -0.09673028 -0.0967899 -0.0968508 -0.09691508 -0.09698239 -0.09705285
 -0.09712562 -0.0971987 -0.09727168 -0.09734284 -0.09741254 -0.09748036 -0.09754725 -0.09761375 -0.09768078 -0.09774891
 -0.0978189 -0.09789135 -0.0979657 -0.0980422 -0.09811872 -0.09819489 -0.09826973 -0.09834293 -0.09841651 -0.09849057
 -0.09856755 -0.09864737 -0.09872955 -0.09881368 -0.09889681 -0.09897894 -0.09905843 -0.09913591 -0.09921202 -0.09928737
 -0.09936325 -0.09943997 -0.09951849 -0.09959874 -0.09968131 -0.09976491 -0.0998491 -0.09993245 -0.1000142 -0.100094
 -0.1001713 -0.1002477 -0.1003233 -0.100399 -0.1004752 -0.1005513 -0.1006273 -0.1007022 -0.1007762 -0.1008493
 -0.1009217 -0.1009941 -0.1010663 -0.1011389 -0.101212 -0.1012863 -0.101362 -0.1014398 -0.1015192 -0.1015999
 -0.1016809 -0.1017613 -0.1018408 -0.1019188 -0.1019963 -0.1020735 -0.1021504 -0.1022275 -0.1023031 -0.102377
 -0.1024484 -0.102517 -0.1025838 -0.102649 -0.1027144 -0.1027797 -0.102845 -0.1029098 -0.1029724 -0.1030332
 -0.1030918 -0.1031497 -0.1032104 -0.1032749 -0.1033471 -0.1034254 -0.1035103 -0.1035974 -0.1036831 -0.1037644
 -0.1038378 -0.1039051 -0.1039658 -0.1040245 -0.1040824 -0.1041415 -0.1042025 -0.1042638 -0.1043253 -0.104385
 -0.1044427 -0.1044996 -0.1045559 -0.1046141 -0.1046743 -0.1047373 -0.1048028 -0.1048696 -0.1049376 -0.1050049
 -0.1050717 -0.1051373 -0.1052028 -0.105269 -0.105337 -0.1054085 -0.1054827 -0.1055605 -0.1056381 -0.1057147
 -0.1057865 -0.1058519 -0.1059113 -0.105964 -0.106015 -0.1060648 -0.1061184 -0.1061763 -0.1062402 -0.1063098
 -0.1063826 -0.1064579 -0.1065308 -0.1066011 -0.1066652 -0.1067237 -0.1067765 -0.1068251 -0.1068722 -0.1069191
 -0.1069688 -0.1070209 -0.1070768 -0.107134 -0.1071916 -0.1072471 -0.1072987 -0.1073478 -0.1073938 -0.1074406
 -0.1074891 -0.1075399 -0.1075933 -0.1076454 -0.1076958 -0.1077419 -0.1077837 -0.1078242 -0.1078636 -0.1079064
 -0.107952 -0.1080009 -0.108052 -0.1081025 -0.1081519 -0.1081976 -0.10824 -0.1082787 -0.1083151 -0.1083502
 -0.1083851 -0.1084211 -0.1084574 -0.1084939 -0.1085294 -0.1085632 -0.1085962 -0.1086284 -0.1086626 -0.1086993
 -0.1087397 -0.1087839 -0.1088304 -0.1088791 -0.1089278 -0.1089765 -0.1090237 -0.1090695 -0.1091138 -0.1091565
 -0.1091984 -0.1092393 -0.1092798 -0.1093191 -0.1093567 -0.1093915 -0.1094225 -0.1094494 -0.1094717 -0.1094905
 -0.1095058 -0.1095196 -0.1095324 -0.1095456 -0.1095598 -0.109575 -0.1095913 -0.1096083 -0.1096259 -0.1096445
 -0.1096641 -0.1096851 -0.1097075 -0.1097313 -0.1097564 -0.1097827 -0.1098095 -0.1098356 -0.1098596 -0.109878
 -0.1098903 -0.1098933 -0.10989 -0.1098814 -0.1098725 -0.1098672 -0.1098666 -0.109873 -0.1098832 -0.109897
 -0.1099102 -0.1099218 -0.1099283 -0.109929 -0.1099228 -0.1099093 -0.1098918 -0.1098705 -0.1098505 -0.1098316
 -0.1098154 -0.1098014 -0.1097879 -0.1097748 -0.1097608 -0.1097458 -0.1097293 -0.1097108 -0.1096892 -0.1096651
 -0.1096381 -0.1096097 -0.1095809 -0.1095514 -0.1095218 -0.1094906 -0.1094572 -0.1094221 -0.109385 -0.1093462
 -0.1093059 -0.1092614 -0.1092126 -0.1091572 -0.1090953 -0.1090291 -0.1089588 -0.1088878 -0.1088152 -0.1087396
 -0.1086596 -0.1085696 -0.1084699 -0.1083572 -0.1082347 -0.1081052 -0.1079721 -0.1078404 -0.1077092 -0.1075801
 -0.1074482 -0.1073116 -0.1071678 -0.1070149 -0.1068566 -0.106693 -0.1065292 -0.1063661 -0.1062027 -0.1060392
 -0.1058678 -0.1056881 -0.1054912 -0.1052775 -0.1050466 -0.1048004 -0.1045491 -0.1042938 -0.1040439 -0.1037964
 -0.1035496 -0.1032989 -0.103036 -0.1027597 -0.1024649 -0.1021546 -0.1018292 -0.1014921 -0.1011453 -0.1007897
 -0.1004267 -0.100053 -0.09966885 -0.09926705 -0.09884633 -0.09840512 -0.09794268 -0.09746943 -0.09698589 -0.09650207
 -0.09601737 -0.09552942 -0.09503762 -0.09453712 -0.09402944 -0.09351792 -0.09300151 -0.09248202 -0.09195172 -0.09139959
 -0.09082102 -0.0902032 -0.08955731 -0.08888539 -0.08820355 -0.08752263 -0.08684231 -0.08616654 -0.08548391 -0.08479192
 -0.0840866 -0.08336672 -0.08263423 -0.08188982 -0.08112284 -0.08033253 -0.07949384 -0.0786072 -0.07766522 -0.07667415
 -0.0756643 -0.07463805 -0.07362333 -0.07260886 -0.07158472 -0.07053798 -0.06944283 -0.06829752 -0.06709138 -0.06582371
 -0.06449738 -0.06308982 -0.06159719 -0.05997732 -0.05821391 -0.05628525 -0.05417601 -0.05192208 -0.04952135 -0.04704905
 -0.04451077 -0.04197264 -0.03943803 -0.03693787 -0.03446898 -0.03201244 -0.029555 -0.02701802 -0.02438758 -0.02156288
 -0.01856947 -0.01539668 -0.01211854 -0.008853129 -0.005627274 -0.002536285 0.0004869153 0.003458138 0.006448376 0.009508928
 0.01263754 0.01585048 0.01910624 0.02239616 0.02570213 0.02902168 0.03233446 0.03563996 0.03889617 0.04210105
 0.04524706 0.04833512 0.0513813 0.05437601 0.05727383 0.06006339 0.06266882 0.06511544 0.06741462 0.06961487
 0.07181248 0.07399623 0.07621443 0.07837085 0.0804003 0.08226001 0.08388973 0.0853579 0.0866769 0.08789852
 0.08904724 0.09009305 0.09103625 0.09183589 0.0924862 0.09299296 0.09335627 0.09359492 0.09370793 0.09368727
 0.09353141 0.09322439 0.09277209 0.09218492 0.09147261 0.09066215 0.0897612 0.0887917 0.08776326 0.08669199
 0.0855922 0.08447871 0.08336374 0.08225824 0.08116543 0.08008947 0.07902742 0.07797916 0.07694257 0.07591704
 0.07490341 0.0739018 0.07291164 0.07193289 0.07095976 0.06999183 0.06902203 0.0680507 0.06707633 0.06609957
 0.06512277 0.06414477 0.06316439 0.06217949 0.06118554 0.06018253 0.0591686 0.05814457 0.05711096 0.05606683
 0.05501119 0.05394566 0.0528691 0.05178967 0.05070814 0.04963597 0.04857439 0.04753626 0.04652238 0.04554953
 0.0446187 0.0437435 0.04292353 0.04215665 0.04144011 0.04075662 0.04010266 0.0394568 0.03881623 0.03816317
 0.03749735 0.03680982 0.0361032 0.03537727 0.03463396 0.03387478 0.03310088 0.03231292 0.03151311 0.03070404
 0.02988006 0.02904349 0.02817133 0.02726141 0.02628635 0.02524158 0.02412948 0.02294965 0.02173733 0.02049323
 0.01923432 0.01795699 0.01664506 0.01529742 0.01389945 0.0124569 0.01097591 0.009463998 0.007939205 0.006399357
 0.004853123 0.00328395 0.001680052 3.251214E-05 -0.001675248 -0.003415122 -0.005183157 -0.006942955 -0.008680538 -0.01039437
 -0.01208154 -0.01375048 -0.01540348 -0.01702456 -0.01861303 -0.02014244 -0.02161238 -0.02301427 -0.02434943 -0.02562318
 -0.02683522 -0.02798657 -0.02907714 -0.03010388 -0.03107508 -0.03199899 -0.03289583 -0.03379102 -0.03470595 -0.03566958
 -0.0366851 -0.03776673 -0.03889527 -0.04006825 -0.04126221 -0.04247166 -0.04367581 -0.04487355 -0.04602772 -0.04713534
 -0.04815472 -0.04908246 -0.04992389 -0.05068136 -0.05139928 -0.05207917 -0.05275381 -0.05341964 -0.05407996 -0.05473071
 -0.05536242 -0.0559746 -0.05656322 -0.05712575 -0.05766051 -0.05815649 -0.05860645 -0.05899376 -0.05930744 -0.05953454
 -0.05966715 -0.05969945 -0.05962827 -0.05945192 -0.05916952 -0.05878153 -0.0582879 -0.05768889 -0.05698452 -0.05617307
 -0.05525544 -0.05424546 -0.05314999 -0.05202405 -0.05087663 -0.04977794 -0.04872362 -0.04774036 -0.04681396 -0.04592877
 -0.04507922 -0.04425099 -0.04344502 -0.04266188 -0.04188813 -0.04111855 -0.04033335 -0.03951617 -0.03868486 -0.03783416
 -0.03701867 -0.03625001 -0.03554995 -0.03492585 -0.03434708 -0.03381238 -0.03328449 -0.03276235 -0.03223001 -0.03168839
 -0.03113752 -0.03057707 -0.03000691 -0.02942283 -0.02881473 -0.02817552 -0.02748608 -0.02674544 -0.02594042 -0.02508495
 -0.02418514 -0.0232583 -0.02231932 -0.0213696 -0.02041404 -0.01944716 -0.01846563 -0.01747895 -0.01648608 -0.01551086
 -0.01455605 -0.01363771 -0.01275741 -0.01191541 -0.01111179 -0.0103458 -0.009619586 -0.008949041 -0.008338043 -0.007812758
 -0.007373604 -0.007035907 -0.006796431 -0.006655286 -0.006611732 -0.006663512 -0.006814418 -0.007067247 -0.007424603 -0.007890318
 -0.008460652 -0.009136406 -0.009908102 -0.01077453 -0.01172216 -0.01274973 -0.01383842 -0.01498723 -0.0161692 -0.01738287
 -0.01859419 -0.0198014 -0.02097357 -0.02211004 -0.02319194 -0.02421924 -0.02518179 -0.02607959 -0.02690566 -0.02766397
 -0.02835554 -0.02899307 -0.02959036 -0.03016832 -0.03074832 -0.03135381 -0.03200457 -0.03271916 -0.03351194 -0.03438605
 -0.03534909 -0.03638098 -0.03748228 -0.03861555 -0.03977722 -0.04093118 -0.04207448 -0.04318398 -0.04425857 -0.04528248
 -0.04625448 -0.04715708 -0.04798894 -0.04873339 -0.04939224 -0.04996029 -0.05044441 -0.05085399 -0.05119918 -0.05149638
 -0.05175681 -0.05199564 -0.05222373 -0.05245179 -0.05268851 -0.05294025 -0.05321172 -0.05350611 -0.05382305 -0.05416388
 -0.05452192 -0.05489738 -0.0552768 -0.05565956 -0.05602715 -0.05637851 -0.0566941 -0.05697316 -0.05720076 -0.05737724
 -0.05749572 -0.05755785 -0.057564 -0.05751771 -0.05742485 -0.05729213 -0.05712992 -0.05694737 -0.05675596 -0.05656515
 -0.05638358 -0.05622017 -0.05607983 -0.05597247 -0.05590141 -0.05587625 -0.05589972 -0.05597642 -0.05610776 -0.05629148
 -0.05652764 -0.05681152 -0.05714283 -0.05751682 -0.05793288 -0.05838418 -0.058869 -0.05937602 -0.0599026 -0.06043522
 -0.0609713 -0.06149924 -0.06201734 -0.0625184 -0.06300145 -0.06346358 -0.06390264 -0.06431741 -0.06470266 -0.0650567
 -0.06537195 -0.06564584 -0.0658726 -0.06605004 -0.06617833 -0.06625666 -0.06629102 -0.06628162 -0.06623738 -0.06615882
 -0.06605474 -0.06592572 -0.06578039 -0.0656195 -0.06545128 -0.06527618 -0.06510004 -0.06492264 -0.06474616 -0.06457052
 -0.0643962 -0.06422411 -0.06405533 -0.06389063 -0.06373127 -0.06357627 -0.06342593 -0.06327751 -0.06313042 -0.06298149
 -0.06283011 -0.06267286 -0.06250923 -0.06233643 -0.062154 -0.06196322 -0.06176424 -0.06156442 -0.06136461 -0.06117623
 -0.06100003 -0.06084599 -0.06071403 -0.06060943 -0.06053117 -0.06047969 -0.06045387 -0.0604522 -0.06047382 -0.06051752
 -0.06058195 -0.0606663 -0.06076794 -0.06088573 -0.06101657 -0.06115892 -0.0613121 -0.06147538 -0.06165073 -0.06183848
 -0.062039 -0.06225267 -0.0624743 -0.0627036 -0.06293235 -0.0631604 -0.06338327 -0.06360143 -0.06381524 -0.06402485
 -0.06423116 -0.06443342 -0.06463031 -0.06482135 -0.06500491 -0.06518166 -0.06535149 -0.06551563 -0.06567496 -0.06583034
 -0.06598227 -0.06613171 -0.06627873 -0.06642554 -0.06657208 -0.06672341 -0.0668798 -0.06704899 -0.06723164 -0.06743422
 -0.06765707 -0.06790023 -0.06816293 -0.06843662 -0.0687191 -0.06899464 -0.0692598 -0.06949521 -0.0696972 -0.06984829
 -0.0699458 -0.0699783 -0.06994361 -0.06983607 -0.06965175 -0.06938674 -0.06903596 -0.06859597 -0.06806315 -0.06743567
 -0.06671105 -0.06588905 -0.0649646 -0.0639371 -0.06280102 -0.06155525 -0.06020363 -0.05874635 -0.05720317 -0.05557637
 -0.05389874 -0.05217403 -0.05043936 -0.04869936 -0.04698912 -0.0453127 -0.04369722 -0.04214334 -0.04066513 -0.03925831
 -0.03792436 -0.03665616 -0.03544914 -0.03429666 -0.03319412 -0.03213744 -0.0311241 -0.03015235 -0.0292214 -0.02833012
 -0.02747869 -0.02666286 -0.0258828 -0.02512744 -0.02439619 -0.02367157 -0.02295237 -0.02221876 -0.02146931 -0.02068549
 -0.01986612 -0.01899673 -0.01807768 -0.0171018 -0.01607213 -0.01498976 -0.01385956 -0.01268695 -0.01147723 -0.01023533
 -0.008967775 -0.007678009 -0.006374961 -0.005061312 -0.003748586 -0.002438958 -0.001146102 0.000128293 0.001369287 0.00257572
 0.003731208 0.004834776 0.005870264 0.006837115 0.007723979 0.008531687 0.009258733 0.009907979 0.01048815 0.01100362
 0.01146811 0.01188752 0.01227584 0.01264241 0.01300108 0.01336527 0.0137485 0.01416473 0.01462458 0.01513822
 0.01571146 0.01635092 0.01705895 0.01784095 0.01869803 0.01963433 0.02065056 0.02174705 0.02292389 0.02417741
 0.02550725 0.02690785 0.02837852 0.02991315 0.03150947 0.03315793 0.0348517 0.03657309 0.03830684 0.04002491
 0.04169953 0.04329331 0.04476685 0.04608011 0.04719351 0.04807368 0.04870016 0.04905349 0.04914365 0.04896446
 0.04855481 0.04791618 0.0471074 0.04613269 0.0450586 0.04388923 0.04268581 0.04145105 0.04023282 0.03903273
 0.03788522 0.03679122 0.03577312 0.03483055 0.03397412 0.03320227 0.03251718 0.03191701 0.03140116 0.03096575
 0.03060975 0.03032224 0.03010058 0.02992277 0.02978423 0.02965005 0.0295145 0.02933113 0.02909363 0.02875252
 0.02830233 0.02770378 0.02695393 0.02603145 0.02493612 0.02366406 0.02221758 0.02060847 0.01884282 0.01694832
 0.01493596 0.01284555 0.01069153 0.008515755 0.006332783 0.004176725 0.002057324 -4.1008E-06 -0.002009032 -0.003948354
 -0.005841282 -0.007688685 -0.009526105 -0.0113612 -0.0132301 -0.01514194 -0.0171095 -0.01913791 -0.02120281 -0.0233037
 -0.02538921 -0.0274565 -0.0294532 -0.03137838 -0.03319944 -0.03491897 -0.03652875 -0.03803444 -0.03944509 -0.04076923
 -0.04202441 -0.04322241 -0.04438345 -0.0455206 -0.04665184 -0.04778582 -0.0489344 -0.05009508 -0.05127236 -0.05245051
 -0.05362839 -0.05478187 -0.05590753 -0.05698084 -0.05799843 -0.05894566 -0.05982098 -0.06062666 -0.06136337 -0.06204672
 -0.06267793 -0.06327377 -0.06383415 -0.06436788 -0.06487352 -0.06535185 -0.065801 -0.06621823 -0.06660111 -0.06694528
 -0.06724931 -0.06750817 -0.06772842 -0.06790789 -0.06806926 -0.06821722 -0.06838644 -0.06858739 -0.06884522 -0.06916931
 -0.06955414 -0.07000288 -0.07047921 -0.07098142 -0.07146263 -0.07192069 -0.0723193 -0.07265861 -0.07292224 -0.07311352
 -0.07323624 -0.07329728 -0.07331598 -0.07330179 -0.0732808 -0.07326165 -0.07326689 -0.07329979 -0.07337282 -0.07348052
 -0.07362538 -0.07379338 -0.0739812 -0.07417002 -0.07435498 -0.07451751 -0.07465351 -0.07474965 -0.07480354 -0.07480989
 -0.07476795 -0.07468034 -0.07454736 -0.07437654 -0.07416876 -0.07393429 -0.07367441 -0.07340033 -0.07311278 -0.07281991
 -0.0725213 -0.07221992 -0.07191506 -0.07160652 -0.07129505 -0.07098042 -0.07066586 -0.07035265 -0.07004565 -0.06974762
 -0.0694605 -0.06918718 -0.0689198 -0.06865935 -0.06838588 -0.06809783 -0.0677726 -0.06740817 -0.06699362 -0.06652892
 -0.0660226 -0.06547706 -0.06491612 -0.06434314 -0.06378598 -0.06324694 -0.06274717 -0.06228734 -0.0618792 -0.06152119
 -0.06121751 -0.06096184 -0.06075211 -0.06057527 -0.06042394 -0.0602826 -0.06014298 -0.05999348 -0.05982899 -0.05964264
 -0.05943222 -0.05919369 -0.05892573 -0.05863077 -0.0583085 -0.05797027 -0.05761675 -0.05726214 -0.05690664 -0.05655821
 -0.05621589 -0.05587919 -0.05554741 -0.05521744 -0.05489085 -0.05456827 -0.05425419 -0.0539545 -0.05367471 -0.05342241
 -0.0532009 -0.05301551 -0.05286447 -0.05275031 -0.05266276 -0.05260157 -0.05254709 -0.05249635 -0.05242821 -0.05233904
 -0.05221922 -0.05206726 -0.05188638 -0.05167674 -0.05144355 -0.05118662 -0.05090559 -0.05060022 -0.05026864 -0.04991199
 -0.04953223 -0.04913202 -0.04871729 -0.04829164 -0.04786267 -0.04743303 -0.04700877 -0.04658922 -0.04617648 -0.04576677
 -0.04535883 -0.04494975 -0.04453766 -0.04412415 -0.043709 -0.04329532 -0.04288395 -0.04247326 -0.04206352 -0.04164669
 -0.04122241 -0.04078438 -0.04033325 -0.03987302 -0.03940538 -0.03894157 -0.03848205 -0.03803461 -0.03759792 -0.03717243
 -0.03675788 -0.03635317 -0.03596089 -0.03558278 -0.0352225 -0.03488364 -0.03456684 -0.03427475 -0.03400148 -0.03374701
 -0.03350021 -0.03325875 -0.03301423 -0.03276473 -0.03250929 -0.03224774 -0.03197899 -0.03170283 -0.03140749 -0.03109174
 -0.03073722 -0.03034432 -0.02990376 -0.0294203 -0.02890307 -0.02835993 -0.02781215 -0.02726604 -0.02674071 -0.02623803
 -0.02576751 -0.02532717 -0.02491876 -0.02453894 -0.02418671 -0.02385862 -0.02355279 -0.02326927 -0.02300668 -0.02277199
 -0.02256569 -0.02239625 -0.02226488 -0.02217054 -0.02211316 -0.02208092 -0.02207294 -0.02207586 -0.02208884 -0.02210113
 -0.02211102 -0.02210739 -0.02208836 -0.02204374 -0.02197405 -0.02187493 -0.02174953 -0.02159923 -0.0214279 -0.0212386
 -0.02103454 -0.02081818 -0.02059101 -0.02035421 -0.02010763 -0.01985103 -0.01958649 -0.01931373 -0.01903903 -0.01876281
 -0.01849172 -0.01822612 -0.01796824 -0.01771762 -0.01746991 -0.01722358 -0.01696787 -0.01670121 -0.01641176 -0.01610048
 -0.01576285 -0.01540272 -0.01502433 -0.01463058 -0.01422687 -0.01381291 -0.01339044 -0.01295777 -0.01251404 -0.01205937
 -0.01159255 -0.01111867 -0.01063771 -0.01015955 -0.009685889 -0.009222375 -0.00877032 -0.008323574 -0.007881857 -0.007435395
 -0.006984395 -0.006528888 -0.00607044 -0.005618265 -0.005173601 -0.00474555 -0.004334675 -0.003946578 -0.003581785 -0.003243768
 -0.00293223 -0.002648577 -0.002390983 -0.002159039 -0.00194938 -0.001760777 -0.001588404 -0.001430682 -0.001282581 -0.00114286
 -0.001007141 -0.000875294 -0.0007390273 -0.0005980915 -0.0004381525 -0.0002583721 -5.003779E-05 0.0001860899 0.0004413054 0.000713493
 0.000984538 0.001254784 0.001515146 0.00176886 0.002019562 0.002269047 0.002523848 0.002779186 0.00303416 0.003277982
 0.003501653 0.003698132 0.003857793 0.003990245 0.004092625 0.004193045 0.004297803 0.004428781 0.004594495 0.004776113
 0.004973854 0.005153719 0.005313588 0.00544466 0.005547649 0.005632235 0.005699833 0.005763785 0.005825006 0.005893982
 0.005970828 0.006061135 0.006164406 0.00628268 0.006414284 0.006558837 0.006712469 0.006872682 0.007034143 0.007193108
 0.007346684 0.007492134 0.007631762 0.007764902 0.007897994 0.008032018 0.008172001 0.008319335 0.008467905 0.00861766
 0.008745439 0.008849405 0.00889743 0.008888328 0.008797496 0.008626926 0.008368835 0.008030687 0.007622565 0.007162231
 0.006679531 0.006202447 0.005775194 0.005419687 0.005173186 0.005031258 0.00500725 0.005070986 0.005217827 0.005406813
 0.005627686 0.005845824 0.0060519 0.006238336 0.006401328 0.006563998 0.006727453 0.006917132 0.007133306 0.007380742
 0.007658287 0.007960629 0.008286871 0.008632483 0.008993619 0.009359044 0.009723339 0.01007001 0.01040076 0.01070861
 0.0110042 0.01129419 0.011587 0.01189226 0.01220381 0.0125243 0.01283493 0.01313154 0.01339853 0.01363118
 0.01382959 0.01399239 0.01413141 0.01424727 0.01435093 0.01444283 0.01453013 0.01461343 0.01470054 0.01479177
 0.0148936 0.01500376 0.01512063 0.01523932 0.01535026 0.01544984 0.01552776 0.01558817 0.01562806 0.01566214
 0.01569758 0.01574776 0.01582308 0.01591693 0.01603248 0.01614649 0.01625495 0.01634303 0.01640754 0.01645192
 0.01647611 0.01648618 0.01648225 0.016465 0.01643462 0.01639275 0.01633978 0.01627881 0.01620886 0.01612862
 0.01603751 0.01593319 0.01581714 0.01569049 0.01555417 0.01541 0.01525644 0.01509355 0.01491819 0.01473011
 0.01452262 0.01429457 0.01403727 0.01374821 0.01342645 0.01307059 0.01269148 0.01228962 0.01187869 0.01145927
 0.01104053 0.01062278 0.01021263 0.009810322 0.009420772 0.009043378 0.008678954 0.008326923 0.007985632 0.007657299
 0.007343134 0.007048159 0.006777548 0.006534135 0.006322793 0.006138749 0.005982563 0.005843957 0.005720404 0.005603153
 0.005490287 0.005375633 0.005258489 0.005131806 0.0049948 0.004850403 0.004698647</values></Ydata></AB><ScSm><Ydata ylabel="Single channel"><values byteorder="INTEL" format="FLOAT32" numvalues="1814"> 0.08751202 0.08762264 0.08775059 0.0878988 0.0880598 0.08822127 0.0883711 0.08850329 0.08861876 0.08871894
 0.08880648 0.08889653 0.08901414 0.08917051 0.0893483 0.08951375 0.08964132 0.08973455 0.08982775 0.08995357
 0.09009819 0.09020095 0.09021191 0.09014786 0.0900818 0.09007625 0.09014265 0.09028274 0.09052975 0.0908746
 0.09116897 0.09122401 0.09104659 0.09086998 0.09089383 0.09108548 0.0912777 0.0913536 0.09129024 0.09114476
 0.09108239 0.09132354 0.09194179 0.09270184 0.09313487 0.09281025 0.09162244 0.08994468 0.08853845 0.08815435
 0.08898926 0.09046446 0.09165975 0.09205533 0.09181067 0.09136719 0.09098975 0.09076285 0.09079587 0.09120468
 0.09192196 0.09261946 0.09283569 0.09228139 0.09116931 0.09017259 0.08987264 0.09030899 0.09119117 0.09224723
 0.09295966 0.09230873 0.08968267 0.08624145 0.08454368 0.08617924 0.09010477 0.09372646 0.0952578 0.09466052
 0.09288964 0.09105512 0.09012727 0.09060626 0.09219784 0.09410363 0.09565156 0.09647094 0.09632644 0.09523269
 0.09367476 0.09239959 0.09199903 0.09273966 0.094456 0.09638588 0.09747615 0.09721281 0.09600589 0.09466264
 0.09379587 0.09379704 0.09486769 0.09677685 0.09888442 0.1006134 0.101748 0.1023062 0.1023994 0.1022096
 0.1019004 0.1015953 0.1014968 0.10178 0.1022447 0.102364 0.1018701 0.1011162 0.1007175 0.1009172
 0.1013805 0.1015995 0.101397 0.1008252 0.09964599 0.09745126 0.09450087 0.09184924 0.09031489 0.08990936
 0.09050759 0.0921904 0.09443435 0.09587295 0.09567472 0.0946669 0.0944398 0.09562671 0.09750934 0.09905755
 0.0999278 0.1005134 0.1013358 0.1024576 0.1033385 0.1032362 0.1019676 0.1003757 0.09976521 0.1006393
 0.1022107 0.1033677 0.1038387 0.1041473 0.1046892 0.1051586 0.1048189 0.1032935 0.1012234 0.1000363
 0.1007685 0.1030374 0.1052466 0.1057922 0.1042014 0.1013849 0.09887646 0.09773155 0.09811826 0.09975968
 0.102315 0.1052144 0.1075669 0.108613 0.1082522 0.1070189 0.1055015 0.1037969 0.1017221 0.09966227
 0.09879163 0.09997307 0.1026469 0.1052767 0.1067672 0.1070703 0.1065594 0.1052895 0.1030942 0.1003428
 0.09827355 0.0980753 0.0995319 0.101082 0.1014776 0.1009481 0.1004865 0.1004966 0.1005773 0.1003483
 0.1000154 0.1000735 0.1006731 0.1014268 0.10182 0.1016854 0.1012382 0.1007706 0.1003777 0.0999057
 0.09918927 0.09841637 0.09811828 0.09861054 0.09956966 0.1003594 0.1006591 0.1005907 0.1003379 0.09983977
 0.09890491 0.09759414 0.09640753 0.0959328 0.09627374 0.09696938 0.09748378 0.09760644 0.09740115 0.09700245
 0.09652424 0.09602924 0.09554632 0.09514844 0.09493996 0.09491596 0.09492372 0.09481473 0.09456344 0.09421237
 0.0937808 0.09326828 0.09271195 0.09220242 0.09182825 0.09160461 0.09147232 0.09135981 0.09121342 0.09098308
 0.09063897 0.0902114 0.08977128 0.08936565 0.08900104 0.08868003 0.08841702 0.08821131 0.08802778 0.08781949
 0.08756556 0.08727635 0.08696581 0.08663714 0.08629797 0.08597066 0.08568019 0.0854378 0.08523192 0.08503429
 0.08483042 0.08463879 0.08447506 0.08430654 0.08408007 0.08379047 0.08348815 0.08322312 0.08300723 0.08282329
 0.08264467 0.08244467 0.08220249 0.08191619 0.08161825 0.0813678 0.08120808 0.08113402 0.08110985 0.08109992
 0.081071 0.08099453 0.08087026 0.08072765 0.08058959 0.0804515 0.08030247 0.08015078 0.08002399 0.07994828
 0.07992291 0.07991517 0.07988793 0.0798274 0.07974148 0.07965013 0.07958164 0.07955053 0.07953022 0.07947525
 0.07937936 0.07928663 0.07923669 0.07922015 0.07919618 0.07914101 0.07907043 0.0790178 0.07899697 0.07899268
 0.07898502 0.07897291 0.07897094 0.07898779 0.0790081 0.07899825 0.0789394 0.07885332 0.07878242 0.07874604
 0.0787317 0.07872546 0.07872991 0.0787489 0.07877113 0.07877748 0.07876159 0.07873744 0.07872259 0.07871552
 0.07869707 0.07865587 0.07860291 0.07855833 0.0785317 0.07851722 0.07850167 0.07847406 0.07843137 0.07837778
 0.07831897 0.07825676 0.07818813 0.07811078 0.078033 0.07797338 0.07794103 0.07791735 0.07786842 0.07777795
 0.07766163 0.07754931 0.07745901 0.07738788 0.07732201 0.07725206 0.0771807 0.07711748 0.07706976 0.07703818
 0.07701746 0.07700042 0.07698588 0.07698403 0.07700882 0.07706097 0.07712296 0.07717471 0.07721293 0.07725105
 0.07730319 0.07737283 0.07745562 0.077548 0.07765123 0.07776877 0.07790034 0.0780386 0.07817531 0.0783112
 0.07845633 0.07861967 0.07880281 0.07900263 0.07921313 0.07942396 0.07962623 0.07982289 0.0800278 0.08025125
 0.08049124 0.0807402 0.08099471 0.08125573 0.08152475 0.08180375 0.08209658 0.08240709 0.08273636 0.08308227
 0.08343914 0.08379798 0.08415203 0.08450433 0.08486705 0.08525015 0.0856519 0.08606146 0.08646975 0.08687702
 0.08728981 0.08771156 0.08813828 0.08856574 0.08899829 0.08944479 0.08990644 0.09037434 0.09083978 0.09130226
 0.09176571 0.09223146 0.09269755 0.09316365 0.09363462 0.09411701 0.09460998 0.09510056 0.09557258 0.09602176
 0.09645993 0.09690394 0.09736321 0.09783338 0.09829703 0.09873463 0.09914291 0.09954049 0.09994847 0.1003676
 0.1007832 0.1011899 0.1016001 0.1020242 0.1024508 0.102853 0.1032148 0.1035488 0.1038836 0.104234
 0.1045865 0.1049178 0.1052223 0.1055159 0.1058154 0.1061244 0.1064426 0.1067763 0.107128 0.1074838
 0.107823 0.1081404 0.1084482 0.1087569 0.1090644 0.1093623 0.1096471 0.109925 0.1102089 0.1105074
 0.1108148 0.1111202 0.1114268 0.1117523 0.1121079 0.1124887 0.1128872 0.1133038 0.1137373 0.1141749
 0.1146042 0.1150325 0.1154814 0.1159554 0.1164274 0.1168646 0.1172625 0.1176424 0.1180229 0.1184103
 0.118812 0.1192407 0.1196992 0.1201715 0.1206326 0.1210633 0.1214636 0.1218552 0.1222611 0.1226772
 0.1230701 0.1234104 0.1237014 0.1239708 0.1242438 0.1245266 0.1248076 0.1250667 0.1252875 0.1254608
 0.1255785 0.1256311 0.1256188 0.125557 0.1254596 0.1253188 0.1251111 0.1248198 0.1244424 0.123976
 0.1234076 0.1227271 0.1219514 0.1211366 0.120369 0.1197403 0.1193224 0.1191563 0.11925 0.1195766
 0.1200689 0.1206247 0.1211299 0.1214835 0.1216127 0.1214797 0.1210862 0.1204727 0.1197025 0.1188425
 0.1179522 0.1170784 0.1162568 0.1155259 0.1149541 0.1146503 0.1147401 0.1153232 0.1164442 0.1180759
 0.120103 0.1223254 0.1245124 0.1264891 0.1281897 0.1296398 0.1309014 0.1320335 0.1330813 0.1340739
 0.1350228 0.1359268 0.1367816 0.1375843 0.1383288 0.1390025 0.1395891 0.1400753 0.1404563 0.1407405
 0.1409503 0.1411192 0.1412865 0.141487 0.1417315 0.1419872 0.1421832 0.1422432 0.1421246 0.1418366
 0.1414424 0.1410641 0.1408926 0.1411673 0.1420899 0.1437049 0.1458403 0.148179 0.1504115 0.1523498
 0.1539419 0.1552235 0.1562692 0.1571567 0.157946 0.1586719 0.1593512 0.1599936 0.1606088 0.1612073
 0.1617972 0.1623802 0.1629536 0.1635153 0.1640672 0.1646128 0.1651545 0.1656939 0.1662337 0.1667778
 0.1673259 0.1678702 0.1684022 0.1689232 0.1694417 0.1699592 0.1704671 0.1709586 0.1714386 0.1719184
 0.1724055 0.1728986 0.1733879 0.1738611 0.174312 0.1747453 0.1751707 0.1755939 0.1760141 0.1764288
 0.1768377 0.1772421 0.1776424 0.1780382 0.1784301 0.1788188 0.1792025 0.1795765 0.1799395 0.1802971
 0.1806581 0.1810254 0.1813945 0.1817603 0.1821236 0.1824926 0.1828752 0.183271 0.1836697 0.1840592
 0.1844369 0.1848101 0.1851878 0.1855715 0.1859569 0.1863392 0.1867173 0.1870925 0.1874666 0.1878413
 0.1882185 0.1885987 0.1889804 0.1893614 0.189741 0.1901192 0.1904942 0.1908635 0.191227 0.1915884
 0.1919534 0.192325 0.1926992 0.1930688 0.1934299 0.1937849 0.1941381 0.1944922 0.1948472 0.1952036
 0.1955632 0.1959278 0.1962959 0.1966631 0.1970266 0.1973888 0.1977543 0.1981253 0.1985012 0.1988797
 0.1992585 0.1996363 0.2000128 0.2003881 0.2007633 0.20114 0.2015172 0.2018909 0.2022587 0.2026232
 0.2029881 0.2033549 0.2037237 0.2040946 0.2044671 0.2048396 0.2052114 0.2055815 0.2059491 0.2063145
 0.2066784 0.2070404 0.2074014 0.2077649 0.2081332 0.2085049 0.2088777 0.2092494 0.209618 0.2099824
 0.2103454 0.2107099 0.2110771 0.2114477 0.2118224 0.2122007 0.2125803 0.2129574 0.2133264 0.213685
 0.2140383 0.2143939 0.2147537 0.2151158 0.2154789 0.2158418 0.2162021 0.2165603 0.216919 0.2172788
 0.2176387 0.2179992 0.21836 0.2187204 0.2190813 0.2194435 0.2198059 0.2201691 0.2205374 0.2209121
 0.2212901 0.2216692 0.222047 0.2224185 0.2227807 0.2231367 0.2234918 0.2238497 0.2242131 0.2245813
 0.2249495 0.2253159 0.2256835 0.2260534 0.2264237 0.2267961 0.2271739 0.2275552 0.227937 0.22832
 0.2287056 0.2290926 0.2294807 0.2298704 0.2302627 0.2306609 0.2310656 0.2314683 0.2318619 0.2322515
 0.2326454 0.233044 0.2334451 0.2338496 0.2342565 0.2346629 0.2350686 0.2354725 0.235871 0.2362664
 0.2366654 0.2370687 0.237474 0.2378838 0.2382985 0.2387109 0.2391172 0.2395213 0.2399259 0.2403317
 0.2407418 0.2411523 0.2415542 0.2419496 0.2423518 0.2427655 0.2431841 0.2436023 0.2440166 0.2444231
 0.2448255 0.2452306 0.245635 0.2460338 0.2464316 0.2468293 0.2472196 0.2476044 0.2479905 0.2483689
 0.2487125 0.2489647 0.2489753 0.2484234 0.2467725 0.2432789 0.2371314 0.2277692 0.2152137 0.2001727
 0.1838487 0.1675638 0.1523981 0.139037 0.1278482 0.1190205 0.1126647 0.1089058 0.1079567 0.1102132
 0.1163839 0.1270792 0.1412739 0.1549565 0.1626036 0.1613476 0.1535719 0.1447492 0.1389757 0.1369404
 0.1372863 0.1386569 0.1405067 0.1429522 0.1463124 0.1506329 0.1556329 0.1611685 0.1675062 0.174918
 0.1831531 0.1915254 0.1994861 0.2069769 0.2142349 0.2213718 0.2282039 0.2344269 0.2398518 0.2444728
 0.2484081 0.2518237 0.2548676 0.2576371 0.2601951 0.2625774 0.2647474 0.2665739 0.2679071 0.2686977
 0.2690553 0.2691964 0.2693245 0.2695425 0.2698652 0.2702814 0.2707808 0.2713483 0.27197 0.272639
 0.2733433 0.2740632 0.274785 0.2755019 0.2762048 0.2768859 0.277541 0.2781637 0.2787478 0.2792996
 0.2798331 0.2803566 0.2808734 0.2813871 0.2818978 0.2824038 0.2829053 0.2833987 0.2838733 0.2843227
 0.2847509 0.2851623 0.2855588 0.2859468 0.2863336 0.2867203 0.2871058 0.2874915 0.2878776 0.288263
 0.2886487 0.2890344 0.2894144 0.2897866 0.2901575 0.290531 0.2909039 0.2912734 0.2916409 0.2920069
 0.2923723 0.2927407 0.2931134 0.2934884 0.293866 0.2942492 0.2946401 0.2950405 0.2954497 0.2958616
 0.2962702 0.2966769 0.2970873 0.297502 0.2979199 0.2983418 0.2987658 0.2991868 0.2996034 0.3000181
 0.3004264 0.3008183 0.3011885 0.3015428 0.3018942 0.3022546 0.3026267 0.3030039 0.3033811 0.303761
 0.3041471 0.3045378 0.3049294 0.3053194 0.3057089 0.3061081 0.3065293 0.3069715 0.3074204 0.3078651
 0.3083065 0.3087459 0.3091827 0.3096204 0.310063 0.3105056 0.3109398 0.3113698 0.3118154 0.3122966
 0.3128129 0.3133386 0.3138445 0.3143255 0.3147987 0.3152812 0.315779 0.3162814 0.3167567 0.317174
 0.3175503 0.3179562 0.3184521 0.3190306 0.3196332 0.3202088 0.3207446 0.3212538 0.3217492 0.3222296
 0.322684 0.3231071 0.3235176 0.3239619 0.3244835 0.3250752 0.3256767 0.3262348 0.3267459 0.3272325
 0.3277094 0.3281838 0.3286437 0.3290374 0.3293216 0.3295577 0.3299061 0.3304772 0.3312111 0.3319415
 0.3325619 0.3330932 0.3336007 0.3341068 0.3345971 0.3350365 0.3353335 0.3353891 0.3352792 0.3353153
 0.3357928 0.336694 0.3377252 0.3386132 0.3392871 0.3398165 0.3402873 0.3407422 0.3411563 0.3414416
 0.3415398 0.3415563 0.341748 0.342291 0.3430835 0.3438572 0.3444602 0.3449433 0.3454097 0.3458956
 0.3463559 0.3466386 0.3465449 0.3460974 0.3457339 0.346028 0.3471341 0.3486111 0.3498648 0.3506784
 0.3512217 0.3516406 0.3518376 0.3516551 0.3510736 0.3502158 0.3494003 0.3492003 0.3500742 0.3517803
 0.3534656 0.3545181 0.3550974 0.355713 0.3565604 0.357429 0.3580514 0.3583474 0.3583844 0.3582225
 0.3578787 0.3575045 0.3574971 0.3582232 0.3595935 0.3610764 0.3621986 0.3629205 0.363429 0.3635934
 0.3628193 0.3607509 0.358204 0.35697 0.3582273 0.3612997 0.3643872 0.3663485 0.367332 0.3679376
 0.3684352 0.3686848 0.3681214 0.3659421 0.362192 0.358718 0.3580528 0.3609222 0.3654345 0.3689122
 0.369939 0.3686587 0.3661008 0.3637033 0.3628035 0.36391 0.3664828 0.3694848 0.3720094 0.3735286
 0.3739264 0.3734497 0.3726071 0.3720282 0.3720683 0.3722804 0.3716913 0.37006 0.3683363 0.3671991
 0.3658125 0.3631902 0.3603833 0.3598356 0.3623608 0.3659708 0.3681821 0.3685596 0.3682859 0.3677737
 0.3656787 0.3606731 0.353903 0.3489677 0.3488408 0.3529026 0.3575529 0.3597445 0.359394 0.3583708
 0.3578593 0.3571056 0.3545541 0.3500518 0.3457062 0.3440046 0.3450367 0.3463729 0.3457552 0.3427038
 0.3373594 0.3298806 0.3222481 0.3186671 0.3218604 0.3296672 0.3369454 0.3400193 0.337853 0.3305116
 0.3194717 0.309158 0.304974 0.3083321 0.3150011 0.3191862 0.3181009 0.3121228 0.3024232 0.2903902
 0.2787836 0.2714147 0.270701 0.2757145 0.2824472 0.2856343 0.2814361 0.270438 0.2583131 0.251575
 0.2515509 0.2535655 0.2524856 0.2475572 0.2413855 0.2363218 0.2331198 0.2314696 0.2304135 0.2290602
 0.2272758 0.2245562 0.2187725 0.2085373 0.1969084 0.1898311 0.190004 0.194663 0.2000603 0.2052416
 0.210088 0.2126445 0.2112012 0.2077435 0.2067246 0.2103208 0.2163402 0.2209949 0.2227169 0.2228067
 0.2229646 0.2231931 0.2226594 0.2219844 0.2232902 0.2275762 0.2331689 0.2375398 0.2398566 0.2410081
 0.2419066 0.2427134 0.2433074 0.243661 0.2438087 0.243872 0.244042 0.2443573 0.2446653 0.244875
 0.2448959 0.2441001 0.2413837 0.2366002 0.2317853 0.2297791 0.2312784 0.2344006 0.2374221 0.2400419
 0.2410705 0.2374776 0.2283353 0.2183841 0.2148095 0.2203286 0.2310165 0.2407095 0.245868 0.246048
 0.2418537 0.2346816 0.22831 0.2282578 0.2375396 0.2535405 0.2703788 0.2838861 0.2932041 0.2985372
 0.2996146 0.2969092 0.2930037 0.2915896 0.2949704 0.3025766 0.3114249 0.3174561 0.3172808 0.3109933
 0.3041309 0.3043144 0.3136062 0.3257168 0.3329464 0.3342926 0.3343244 0.3359619 0.3379617 0.3389431
 0.340223 0.3435399 0.3481136 0.3512566 0.350759 0.3458177 0.3370036 0.326864 0.3195273 0.3175165
 0.3190734 0.3202564 0.3190301 0.3153715 0.3088002 0.2993955 0.2908733 0.2886308 0.2936319 0.3009799
 0.3055074 0.3065898 0.3065922 0.3065476 0.3049202 0.3001631 0.2934276 0.288069 0.2863609 0.2873589
 0.2884887 0.2883609 0.2870212 0.2843384 0.2799697 0.2750344 0.272276 0.2736511 0.2782634 0.2832561
 0.2864517 0.2876973 0.2880353 0.2883679 0.2889682 0.2896437 0.2901746 0.2909381 0.2929496 0.2967269
 0.3012787 0.30495 0.3072823 0.3093754 0.312331 0.3159288 0.3190419 0.3209632 0.3220934 0.3235141
 0.3260283 0.3294779 0.332841 0.3350699 0.3360446 0.3367465 0.3383381 0.341038 0.344035 0.3464473
 0.3480934 0.3493494 0.3506102 0.3519877 0.3532636 0.3540694 0.3543516 0.3546706 0.35576 0.3577185
 0.3598492 0.3613469 0.3619633 0.3619665 0.3616721 0.3611819 0.3605047 0.3597664 0.3592192 0.3590693
 0.3593415 0.3599135 0.3606406 0.3614298 0.3622428 0.3630814 0.3639636 0.3648875 0.3658184 0.3667126
 0.3675263 0.3681963 0.3686574 0.3689023 0.3689911 0.3689742 0.368831 0.3685012 0.3679429 0.3671338
 0.3660433 0.3646354 0.3628834 0.3607543 0.3582086 0.3553107 0.3524187 0.3502258 0.3494729 0.3504787
 0.3528932 0.3559034 0.3587024 0.3608395 0.3622603 0.3631312 0.3636541 0.363977 0.3641831 0.3643082
 0.3643649 0.3643667 0.3643348 0.3642886 0.3642425 0.3642122 0.3642097 0.3642293 0.3642441 0.3642167
 0.364112 0.3639088 0.3636054 0.3632163 0.3627592 0.3622449 0.3616734 0.3610381 0.3603406 0.3595995
 0.3588371 0.3580506 0.3571941 0.3561864 0.3549421 0.3533899 0.351455 0.3490477 0.3461358 0.3428475
 0.3394417 0.3361157 0.3328612 0.3295434 0.3260874 0.322551 0.3190499 0.3156714 0.3124542 0.3093999
 0.3064822 0.3036578 0.3008823 0.2981209 0.2953515 0.2925564 0.2897089 0.2867724 0.2837181 0.280536
 0.2772111 0.2736849 0.2698452 0.2655593 0.2607164 0.2552573 0.2491928 0.2426259 0.2357551 0.228838
 0.2221284 0.2158274 0.2100751 0.2049683 0.2005792 0.1969567 0.1941206 0.1920612 0.1907542 0.190174
 0.1902916 0.191057 0.1923823 0.19414 0.1961715 0.1983018 0.2003527 0.2021693 0.2036723 0.2049108
 0.2060547 0.2073069 0.2088017 0.2105736 0.2125931 0.2148011 0.2171081 0.2193977 0.2215587 0.2235217
 0.2252625 0.2267813 0.2280814 0.2291575 0.2299968 0.2305965 0.2309909 0.231263 0.2315346 0.2319397
 0.2325968 0.2335893 0.2349637 0.2367379 0.238905 0.2414273 0.2442311 0.2472119 0.2502514 0.2532546
 0.2561941 0.2591303 0.2621866 0.2654887 0.2691013 0.2729959 0.2770655 0.2811642 0.2851433 0.28887
 0.2922442 0.2952159 0.2977968 0.3000452 0.3020275 0.3037764 0.3052772 0.306491 0.3073881 0.3079672
 0.308258 0.3083138 0.3081905 0.3079229 0.3075161 0.3069562 0.306235 0.305375 0.3044392 0.303519
 0.3027082 0.3020707 0.3016059 0.3012363 0.3008422 0.3003244 0.2996438 0.2988256 0.297941 0.2970787
 0.2963063 0.2956408 0.2950388 0.2944049 0.2936215 0.2925906 0.2912609 0.2896227 0.2876952 0.2855186
 0.2831442 0.2806187 0.277973 0.2752236 0.2723808 0.2694551 0.2664537 0.2633764 0.2602352 0.2570804
 0.2539851 0.251 0.2481372 0.2453953 0.2427846 0.2403262 0.2380419 0.2359405 0.2340102 0.2322251
 0.2305553 0.2289666 0.2274241 0.2259099 0.2244338 0.2230245 0.2217169 0.220539 0.2194985 0.218582
 0.2177716 0.2170579 0.2164522 0.2159983 0.2157519 0.215716 0.215801 0.2158674 0.2158102 0.2156082
 0.2153111 0.2149824 0.2146513 0.2143155 0.2139643 0.2135664 0.2130456 0.2122959 0.2112172 0.2097308
 0.2077948 0.2054343 0.2027492 0.1998919 0.1970419 0.1943756 0.1920235 0.1900516 0.1884689 0.1872275
 0.1862341 0.1854096 0.1847502 0.1843207 0.1841905 0.1843453 0.1846289 0.1848092 0.1847692 0.1846201
 0.1845934 0.1848426 0.1853611 0.1860304 0.1867074 0.1872934 0.1877487 0.1880648 0.1882535 0.1883527
 0.1883978 0.1883857 0.1882937 0.1881111 0.1878304 0.1874394 0.1869353 0.186317 0.1855698 0.1846855
 0.1836743 0.1825421 0.1812905 0.1799299 0.1784511 0.1768232 0.1750942 0.1734768 0.1722748 0.1717165
 0.1718323 0.172443 0.1732849 0.17418 0.175052 0.1758001 0.1763066 0.1766381 0.1771297 0.1781604
 0.1798303 0.1818592 0.1837872 0.1852689 0.1861822 0.1865296 0.1863554 0.185736 0.1847182 0.1832738
 0.1814038 0.1792246 0.1768806 0.1744785 0.172141 0.1699927 0.1680957 0.1664838 0.1651749 0.1641641
 0.1635061 0.1629353 0.1609185 0.1551816 0.1459325 0.1379618 0.137032 0.1436669 0.1524267 0.157751
 0.1586832 0.1575481 0.1562797 0.1552963 0.1545266 0.1540402 0.153891 0.1539814 0.1541021 0.1540282
 0.153658 0.1530046 0.1519584 0.1500614 0.1464874 0.1403301 0.1312738 0.120223 0.1091115 0.09987067
 0.09347504 0.08973847 0.08772493 0.0864049 0.0852526 0.08442482 0.08440558 0.08551274 0.08772531 0.09083137
 0.09457517 0.09862794 0.1025381 0.1058744 0.1084556 0.1103618 0.1117216 0.1125844 0.1129819 0.1129829
 0.1126573 0.112062 0.1112586 0.110285 0.1091246 0.1077558 0.1062477 0.1047968 0.1036395 0.1028916
 0.1024782 0.1022462 0.1021093 0.1020553 0.102077 0.1021578 0.1022911 0.1024781 0.1027275 0.1030538
 0.1034436 0.1038399 0.1041847 0.1044587 0.1046679 0.1048112 0.104861 0.1047809 0.1045916 0.1043893
 0.1042117 0.103905 0.1032418 0.1022078 0.1011074 0.1003602 0.1002079 0.100578 0.1011716 0.1016798
 0.101966 0.1020848 0.1021513 0.1021827</values></Ydata></ScSm><ScRf><Ydata ylabel="Single channel"><values byteorder="INTEL" format="FLOAT32" numvalues="1820"> 0.06964721 0.06977843 0.06989227 0.06998925 0.07007512 0.07016122 0.07026103 0.07038183 0.07051983 0.0706619
 0.07079338 0.07090732 0.07100566 0.07109056 0.07116385 0.07123743 0.0713325 0.07145956 0.07160515 0.07174084
 0.07184458 0.07191947 0.07199523 0.07210019 0.0722242 0.07231776 0.07233773 0.07229331 0.07224227 0.07223919
 0.07229824 0.07241949 0.07262433 0.07290427 0.07314436 0.07319532 0.07305953 0.07292012 0.07293744 0.07308839
 0.07324143 0.07330406 0.07325771 0.07314618 0.07309954 0.07329482 0.07379465 0.07441364 0.07477476 0.07452734
 0.07358101 0.07223302 0.0710976 0.07078479 0.07145986 0.07265859 0.07363498 0.07396399 0.07377246 0.07341859
 0.0731184 0.07294115 0.07297552 0.07331426 0.07390078 0.07446877 0.07464668 0.07420212 0.07330649 0.07250324
 0.07226361 0.07262056 0.07333846 0.07419866 0.07478725 0.07428137 0.0721792 0.0694086 0.068037 0.06935842
 0.07253687 0.07547463 0.07672252 0.07624684 0.07481997 0.07334068 0.07259563 0.0729917 0.07429191 0.07584924
 0.07711776 0.07779627 0.07769374 0.07682107 0.07556973 0.07454389 0.07422304 0.07482387 0.0762148 0.07778324
 0.07867977 0.07848611 0.07752824 0.07645491 0.07576153 0.07576793 0.07664211 0.07820126 0.07992697 0.08134723
 0.08228251 0.08274717 0.08283613 0.08270156 0.08247496 0.08224893 0.08218185 0.08241776 0.08280088 0.08290583
 0.08251218 0.08190519 0.08158796 0.08176325 0.0821605 0.08236323 0.08222237 0.08177852 0.08083834 0.07906918
 0.07668228 0.07453896 0.07330912 0.07300049 0.07350653 0.074893 0.07673731 0.0779267 0.07777947 0.07696758
 0.07679062 0.07777043 0.07932499 0.08061507 0.08135821 0.08187029 0.08257142 0.08351152 0.08425263 0.08419123
 0.08317514 0.0818908 0.08141022 0.08215435 0.08348119 0.08447243 0.08489677 0.08518371 0.08566491 0.08609462
 0.08586641 0.08466615 0.08301643 0.08209003 0.08274117 0.08465972 0.08653539 0.08704767 0.08580408 0.08355308
 0.08155824 0.0806904 0.08109117 0.08253811 0.08475563 0.0872744 0.08935406 0.0903573 0.09018976 0.08928955
 0.08814859 0.08685148 0.08524521 0.08365351 0.08306788 0.08421946 0.08663824 0.08902775 0.09046306 0.09090358
 0.09066299 0.08977954 0.08810239 0.08594552 0.08437763 0.08442636 0.08590481 0.08746259 0.08802095 0.08778085
 0.08760478 0.08784319 0.08814756 0.08818986 0.08815461 0.08847494 0.08927656 0.09021384 0.09083337 0.09098833
 0.0908688 0.09073439 0.09066747 0.09052491 0.09015818 0.08974852 0.08978838 0.09056287 0.09176688 0.09281196
 0.09340525 0.09366482 0.09376192 0.09363171 0.09308339 0.09217204 0.09137958 0.09127316 0.09195381 0.09297858
 0.09383047 0.09430484 0.09446238 0.09443264 0.09432492 0.09420025 0.09408936 0.09406623 0.09423292 0.09458035
 0.09495224 0.09520097 0.09530799 0.0953216 0.09525722 0.09510684 0.09490667 0.09475203 0.094734 0.09486812
 0.09509626 0.0953461 0.09555963 0.09568134 0.09567919 0.09558706 0.09548318 0.09541804 0.09539369 0.0954075
 0.095475 0.09559925 0.09574521 0.09586373 0.09593189 0.09595798 0.09595482 0.09592682 0.09588316 0.0958479
 0.0958508 0.09590824 0.09600706 0.09611175 0.09620432 0.09630601 0.09643394 0.09655125 0.09659987 0.09657564
 0.09653612 0.09653734 0.09658998 0.09667075 0.09674942 0.09679881 0.09679696 0.09674101 0.09666882 0.09665012
 0.09673495 0.09691646 0.09715215 0.09740001 0.09762257 0.09778915 0.09789935 0.09798378 0.09806608 0.09814154
 0.0981999 0.09825269 0.09833242 0.09846818 0.09865759 0.09886305 0.09904242 0.09917819 0.09927694 0.099362
 0.09946968 0.09961871 0.09977429 0.09987659 0.09991761 0.09995683 0.1000472 0.1001728 0.1002758 0.1003257
 0.1003486 0.1003926 0.1004794 0.1005912 0.1006997 0.100799 0.1009071 0.1010367 0.1011646 0.1012401
 0.101235 0.1011803 0.1011364 0.1011332 0.1011582 0.1011984 0.1012629 0.1013558 0.1014502 0.1015067
 0.1015137 0.101499 0.1014978 0.1015127 0.1015152 0.1014826 0.1014244 0.1013678 0.1013313 0.1013144
 0.1013036 0.1012838 0.1012464 0.1011921 0.1011272 0.1010568 0.1009821 0.1009082 0.1008555 0.1008523
 0.100898 0.1009362 0.1008896 0.1007327 0.1005188 0.1003296 0.1002051 0.1001239 0.1000372 0.09991376
 0.09975722 0.09959312 0.09944443 0.09931827 0.09920837 0.09910604 0.09901255 0.09894337 0.09891079 0.0988971
 0.09885686 0.09875905 0.09862046 0.09848633 0.09838627 0.09831949 0.09827198 0.09823262 0.09819853 0.09817681
 0.09817539 0.09818595 0.09818615 0.09816658 0.09814485 0.09814852 0.0981946 0.09828438 0.09839939 0.09850083
 0.09855522 0.0985699 0.09858887 0.09864762 0.09874487 0.09886082 0.09898546 0.09912048 0.09926666 0.099422
 0.09958767 0.09976839 0.09996737 0.1001827 0.1004062 0.1006259 0.1008357 0.1010442 0.1012707 0.101528
 0.1018104 0.1020973 0.1023708 0.1026308 0.1028917 0.1031643 0.1034452 0.1037278 0.104017 0.1043246
 0.1046517 0.1049847 0.1053097 0.1056236 0.1059318 0.1062398 0.1065506 0.106869 0.107206 0.1075714
 0.1079557 0.1083249 0.108647 0.1089245 0.1091931 0.1094892 0.109823 0.1101753 0.1105128 0.1108103
 0.1110719 0.1113299 0.1116119 0.1119136 0.1122143 0.1125142 0.1128393 0.1132056 0.1135868 0.1139293
 0.1142008 0.1144205 0.1146365 0.1148757 0.1151228 0.1153504 0.1155583 0.1157699 0.1159976 0.1162316
 0.1164651 0.1167116 0.116984 0.1172674 0.1175304 0.1177589 0.1179652 0.1181632 0.1183486 0.1185037
 0.1186177 0.1187029 0.1187915 0.1189109 0.1190579 0.1192066 0.1193428 0.1194808 0.1196405 0.1198249
 0.1200279 0.1202506 0.1204953 0.1207498 0.1209973 0.1212436 0.1215143 0.1218142 0.1221072 0.1223527
 0.1225519 0.122739 0.1229368 0.1231445 0.1233632 0.1236069 0.1238836 0.1241825 0.1244837 0.1247739
 0.1250556 0.1253445 0.1256522 0.1259623 0.1262369 0.1264533 0.1266295 0.1268077 0.12702 0.1272724
 0.1275506 0.1278352 0.1281101 0.1283596 0.1285643 0.1287096 0.1288039 0.1288748 0.1289389 0.1289772
 0.1289499 0.1288279 0.1286035 0.128274 0.1278287 0.1272602 0.1265897 0.1258797 0.1252219 0.1247098
 0.1244135 0.1243687 0.1245765 0.1250027 0.1255786 0.1262119 0.1268075 0.1272808 0.1275584 0.127586
 0.1273478 0.1268761 0.1262334 0.1254843 0.1246824 0.1238672 0.1230678 0.1223213 0.1217044 0.1213407
 0.1213638 0.1218655 0.1228622 0.1242799 0.1259546 0.1276719 0.1292496 0.1306047 0.1317513 0.1327425
 0.1336249 0.1344331 0.1351956 0.1359283 0.1366292 0.1372899 0.1379106 0.1384963 0.1390434 0.1395365
 0.1399568 0.1402902 0.1405317 0.14069 0.1407846 0.1408348 0.1408533 0.1408515 0.1408382 0.140802
 0.1407035 0.1404926 0.1401411 0.1396628 0.1391232 0.1386451 0.1384005 0.1385661 0.1392425 0.1403911
 0.1418437 0.1433854 0.1448397 0.1461002 0.1471221 0.1479147 0.1485316 0.1490415 0.149494 0.1499117
 0.1503045 0.150679 0.1510388 0.1513859 0.1517237 0.152057 0.1523906 0.1527276 0.1530668 0.1534028
 0.1537314 0.154056 0.1543883 0.1547376 0.155099 0.1554547 0.1557952 0.1561315 0.1564787 0.1568312
 0.1571681 0.1574807 0.1577834 0.1580958 0.158425 0.1587657 0.1591063 0.1594335 0.1597394 0.1600278
 0.1603107 0.1605964 0.1608848 0.1611723 0.1614587 0.1617446 0.1620286 0.1623091 0.162588 0.1628671
 0.1631422 0.1634054 0.1636561 0.1639027 0.1641534 0.164408 0.1646617 0.1649123 0.1651628 0.165419
 0.1656849 0.1659583 0.1662319 0.1664987 0.1667557 0.1670038 0.1672464 0.1674884 0.1677338 0.1679832
 0.1682344 0.1684856 0.1687361 0.1689854 0.1692333 0.1694797 0.1697252 0.169971 0.1702185 0.1704683
 0.1707198 0.1709713 0.1712201 0.1714653 0.1717103 0.1719595 0.1722117 0.1724599 0.1726982 0.1729263
 0.1731472 0.1733647 0.1735849 0.1738155 0.1740601 0.1743148 0.17457 0.1748168 0.1750535 0.1752851
 0.1755182 0.1757565 0.1759991 0.1762431 0.1764853 0.176726 0.1769674 0.1772101 0.1774518 0.1776916
 0.1779314 0.1781727 0.1784152 0.1786569 0.1788948 0.1791272 0.1793556 0.1795837 0.1798133 0.180044
 0.180276 0.1805094 0.180744 0.1809793 0.1812152 0.1814511 0.1816868 0.1819228 0.1821584 0.1823924
 0.1826254 0.1828587 0.1830925 0.1833264 0.183561 0.1837959 0.1840304 0.1842646 0.1844973 0.184726
 0.1849529 0.1851843 0.1854227 0.1856627 0.1858988 0.186132 0.1863682 0.1866123 0.1868629 0.1871122
 0.1873547 0.1875932 0.1878338 0.1880775 0.1883223 0.1885674 0.1888132 0.1890608 0.1893114 0.1895645
 0.1898172 0.1900698 0.1903259 0.1905854 0.1908447 0.1911031 0.191361 0.1916143 0.1918571 0.1920881
 0.1923106 0.1925288 0.192747 0.1929675 0.1931906 0.1934182 0.193652 0.1938884 0.1941214 0.1943511
 0.1945817 0.1948154 0.1950548 0.1953015 0.1955525 0.1958033 0.1960547 0.1963087 0.1965628 0.1968154
 0.1970697 0.1973273 0.1975864 0.1978461 0.198106 0.1983646 0.1986241 0.1988894 0.1991597 0.1994293
 0.1996959 0.1999595 0.2002189 0.2004764 0.2007369 0.2010009 0.2012664 0.201534 0.2018028 0.2020696
 0.2023362 0.2026073 0.2028805 0.2031502 0.2034175 0.2036838 0.2039473 0.2042111 0.2044828 0.2047623
 0.2050441 0.2053273 0.2056105 0.2058881 0.206159 0.2064265 0.2066894 0.2069483 0.2072108 0.2074787
 0.207744 0.2080049 0.2082655 0.2085193 0.2087456 0.2088954 0.2088371 0.2082958 0.2068201 0.2037887
 0.1985264 0.1905697 0.1799451 0.1672541 0.1535085 0.1398164 0.1270808 0.115871 0.1064871 0.09908056
 0.09374353 0.09058511 0.08978678 0.09167928 0.09685247 0.1058054 0.1176546 0.1290186 0.1352859 0.1341081
 0.1275304 0.1201372 0.115321 0.113623 0.1138953 0.1150071 0.116511 0.1185128 0.1212819 0.1248527
 0.1289871 0.1335659 0.1388118 0.1449471 0.1517561 0.158665 0.1652209 0.1713838 0.1773584 0.1832376
 0.1888612 0.1939701 0.1984074 0.2021735 0.2053701 0.2081349 0.2105898 0.2128164 0.2148696 0.2167787
 0.2185082 0.2199463 0.2209719 0.221551 0.2217783 0.2218319 0.2218755 0.2219893 0.2221847 0.2224571
 0.2228046 0.2232164 0.223677 0.2241752 0.2246994 0.2252346 0.2257714 0.2263034 0.2268201 0.227313
 0.2277823 0.2282306 0.2286584 0.2290676 0.229461 0.2298386 0.2302026 0.2305586 0.2309099 0.2312569
 0.2316005 0.2319391 0.2322651 0.2325732 0.2328651 0.2331451 0.2334175 0.2336879 0.2339561 0.2342157
 0.2344646 0.234709 0.2349534 0.2351976 0.2354434 0.2356911 0.2359358 0.2361735 0.2364075 0.2366431
 0.2368812 0.2371212 0.2373618 0.2376 0.2378351 0.2380699 0.2383059 0.2385425 0.2387787 0.239016
 0.2392579 0.2395089 0.2397693 0.2400324 0.2402933 0.2405557 0.2408256 0.2411029 0.2413844 0.2416669
 0.2419451 0.2422151 0.242482 0.2427525 0.2430215 0.2432748 0.2435055 0.243722 0.243941 0.2441745
 0.2444214 0.2446712 0.2449161 0.2451574 0.2453988 0.2456419 0.2458866 0.246132 0.2463779 0.24663
 0.2468967 0.2471766 0.2474589 0.2477373 0.2480152 0.2482966 0.2485817 0.2488717 0.2491662 0.2494585
 0.249741 0.2500166 0.2503014 0.2506132 0.2509541 0.251303 0.2516326 0.2519354 0.2522273 0.252529
 0.2528503 0.2531828 0.2534969 0.2537622 0.2539881 0.2542314 0.2545453 0.2549281 0.2553332 0.2557173
 0.2560669 0.2563903 0.2566987 0.2569953 0.2572737 0.2575259 0.257762 0.2580202 0.2583413 0.2587226
 0.2591143 0.2594703 0.2597852 0.2600762 0.2603582 0.2606411 0.2609168 0.2611416 0.2612788 0.261378
 0.2615683 0.2619367 0.2624342 0.2629276 0.263331 0.2636595 0.2639664 0.2642729 0.2645693 0.264826
 0.2649705 0.264928 0.2647606 0.2647121 0.2650121 0.2656469 0.2663882 0.2670196 0.2674759 0.2678031
 0.2680716 0.26833 0.2685711 0.2687238 0.2687315 0.2686718 0.2687496 0.2691074 0.2696626 0.2701988
 0.2705946 0.2708928 0.2711783 0.2714809 0.2717611 0.2718951 0.2717278 0.2712865 0.2709245 0.2710912
 0.2718965 0.2729828 0.2738806 0.2744267 0.2747657 0.2750202 0.2751131 0.274913 0.2743964 0.2736572
 0.2729511 0.2727332 0.2733594 0.274632 0.2758829 0.276643 0.2770428 0.2774738 0.2780791 0.2786941
 0.2791178 0.2792942 0.2792767 0.279107 0.2787945 0.2784582 0.2784109 0.2789357 0.2799565 0.281056
 0.2818691 0.28237 0.2827078 0.2827815 0.2821277 0.2804698 0.2784449 0.2774497 0.2784011 0.2807702
 0.2831533 0.2846591 0.2854026 0.2858506 0.2862124 0.286378 0.2859088 0.2841826 0.2812396 0.2785239
 0.2780078 0.2802467 0.2837549 0.2864458 0.2872258 0.2862186 0.2842328 0.2823879 0.2817148 0.2825976
 0.2846138 0.2869622 0.2889417 0.2901446 0.2904832 0.2901485 0.2895312 0.2891201 0.2891947 0.2894076
 0.2890023 0.287797 0.2865346 0.2857381 0.2847508 0.282809 0.2807438 0.2804649 0.2825982 0.2855803
 0.287472 0.2879444 0.2879276 0.2877357 0.2863042 0.282592 0.2775102 0.273898 0.2740937 0.277598
 0.2815664 0.2836059 0.2836696 0.2832417 0.2832524 0.2830953 0.2815297 0.2784341 0.2754949 0.2747013
 0.2761157 0.2777824 0.2778929 0.27606 0.272377 0.2669619 0.2614421 0.2592627 0.2626481 0.2698333
 0.2766223 0.2800087 0.2791176 0.2739601 0.2657439 0.2581751 0.2557926 0.2597845 0.2666022 0.2713928
 0.2718219 0.2681811 0.2614207 0.2527375 0.2445922 0.2403953 0.2423341 0.2496098 0.2585943 0.2644021
 0.2633832 0.2560462 0.2477836 0.2448165 0.2483462 0.2537577 0.2560415 0.2545056 0.2517387 0.250087
 0.2503588 0.2522537 0.2547016 0.2567091 0.2581243 0.2582389 0.2543903 0.2449101 0.2335129 0.2273204
 0.2295165 0.2367946 0.2447628 0.252361 0.2593783 0.2632842 0.2619243 0.2577763 0.2563567 0.2603312
 0.2669809 0.2716762 0.2725762 0.2713742 0.2702259 0.2691832 0.2672639 0.2652187 0.2655685 0.2694653
 0.2748886 0.2788387 0.2803462 0.2804735 0.2802994 0.2800087 0.2794512 0.2785937 0.2774802 0.2762498
 0.2751232 0.2741621 0.273222 0.2722338 0.2711365 0.2692677 0.2654147 0.2593914 0.2533882 0.2504582
 0.2513116 0.2538745 0.2562742 0.2581919 0.258363 0.2535581 0.2428006 0.2311392 0.2261729 0.2307102
 0.2405346 0.2491387 0.252867 0.2513709 0.2454088 0.2364897 0.228417 0.2266278 0.2340022 0.2478509
 0.2623408 0.2734372 0.2804326 0.2836722 0.2830009 0.278924 0.2739044 0.2713858 0.2734276 0.2793539
 0.2862665 0.29039 0.2887147 0.2814807 0.2738218 0.2726573 0.2798273 0.2896433 0.2951685 0.2954839
 0.2946561 0.2952866 0.2962888 0.29647 0.2970315 0.2995526 0.3034028 0.3062719 0.3062445 0.3026051
 0.2958185 0.288079 0.2829652 0.2826093 0.2853415 0.2876049 0.2876054 0.2853402 0.2803627 0.2727618
 0.2659655 0.264901 0.270397 0.2779319 0.2827907 0.284455 0.2851412 0.2858081 0.2850253 0.2813635
 0.2759306 0.2718939 0.2713792 0.2734681 0.2757151 0.2767978 0.2767233 0.2752951 0.2721257 0.2682865
 0.2664572 0.2685417 0.2736273 0.2788734 0.2821235 0.2832196 0.2831744 0.2828651 0.2825673 0.2821165
 0.281336 0.2806409 0.281069 0.2831765 0.2860706 0.2882267 0.2892544 0.2902169 0.2921332 0.2947297
 0.2968536 0.2977467 0.2977108 0.2977268 0.2985735 0.3001869 0.3017217 0.3022977 0.3018664 0.3013659
 0.3018771 0.3035956 0.30576 0.3075251 0.308666 0.3094615 0.3102224 0.3110265 0.3116783 0.3118705
 0.3115937 0.3113914 0.3119582 0.3134181 0.3151783 0.3165315 0.3172365 0.3174838 0.3174954 0.3173108
 0.3168979 0.3163316 0.3158032 0.3154795 0.3153858 0.3154265 0.3154875 0.3155074 0.3154862 0.3154666
 0.3155009 0.3156123 0.3157839 0.3159898 0.3162115 0.3164204 0.31658 0.3166864 0.3167762 0.3168689
 0.3169225 0.3168606 0.3166239 0.3161761 0.3154834 0.3145117 0.3132326 0.3116128 0.3096197 0.3073165
 0.305022 0.3033463 0.3029398 0.3040784 0.3064432 0.3093006 0.3119224 0.3139011 0.3151868 0.3159288
 0.3163083 0.3164606 0.3164681 0.3163727 0.316189 0.3159248 0.3155979 0.3152387 0.3148805 0.3145484
 0.3142521 0.3139851 0.3137285 0.3134546 0.3131321 0.3127382 0.3122679 0.31173 0.3111332 0.310473
 0.309729 0.3088795 0.3079271 0.3069125 0.3058999 0.3049432 0.3040554 0.3032044 0.3023398 0.3014201
 0.3003991 0.29921 0.2978274 0.296367 0.2950587 0.294059 0.293309 0.2926041 0.2917771 0.2907812
 0.2896454 0.2884143 0.2871296 0.2858219 0.284496 0.2831312 0.2816955 0.2801622 0.2785228 0.2767883
 0.2749751 0.273095 0.2711633 0.2692019 0.2672077 0.2651121 0.2627794 0.2600487 0.2567784 0.2528719
 0.2482991 0.2431211 0.2374991 0.2316607 0.2258394 0.2202326 0.2149983 0.2102704 0.2061662 0.2027808
 0.2001816 0.1984077 0.1974774 0.1973956 0.1981544 0.1997208 0.2020214 0.2049353 0.208301 0.211933
 0.2156353 0.2192203 0.2225526 0.2255963 0.2284068 0.2310506 0.2335323 0.2358035 0.2378244 0.2395929
 0.2411214 0.2424131 0.2434718 0.2443248 0.2450241 0.2456235 0.2461542 0.2466184 0.2470003 0.2472863
 0.247483 0.2476221 0.2477483 0.247897 0.2480832 0.2483069 0.2485662 0.2488659 0.2492195 0.2496473
 0.2501671 0.2507801 0.2514646 0.252191 0.2529494 0.2537599 0.2546574 0.2556731 0.2568277 0.2581347
 0.259596 0.2611873 0.262846 0.2644734 0.2659587 0.2672098 0.2681749 0.2688443 0.2692381 0.2693852
 0.2693121 0.2690475 0.2686282 0.2680914 0.2674613 0.2667511 0.2659727 0.2651368 0.2642475 0.2633018
 0.2623065 0.2612896 0.2602892 0.2593232 0.2583826 0.2574565 0.2565505 0.2556742 0.2548259 0.2539985
 0.2531922 0.2524133 0.2516693 0.2509632 0.2502888 0.2496282 0.2489498 0.248208 0.2473515 0.2463431
 0.2451708 0.2438384 0.2423554 0.2407382 0.2390059 0.2371727 0.2352464 0.2332337 0.2311428 0.2289798
 0.2267421 0.2244168 0.2220086 0.219575 0.2172153 0.2150133 0.2129971 0.2111479 0.2094295 0.2078089
 0.2062659 0.2047883 0.2033636 0.2019863 0.2006652 0.1994092 0.1982158 0.1970849 0.1960326 0.1950798
 0.1942384 0.1935109 0.1928918 0.1923708 0.1919367 0.1915776 0.1912884 0.1910891 0.1910168 0.1910747
 0.1912013 0.1913075 0.1913365 0.1912873 0.1912003 0.1911244 0.1910856 0.1910839 0.1911045 0.1911065
 0.1910045 0.1906894 0.1900676 0.1890727 0.1876708 0.1858809 0.183787 0.1815281 0.1792781 0.1772054
 0.1754234 0.1739771 0.1728657 0.1720467 0.1714366 0.1709581 0.1705999 0.1704195 0.1704905 0.1708179
 0.1712711 0.1716382 0.171813 0.1719156 0.1721867 0.1727816 0.1736783 0.1747291 0.1757649 0.176674
 0.1774157 0.1779863 0.1784022 0.1786997 0.178902 0.1789934 0.1789536 0.1787894 0.1785145 0.1781352
 0.1776678 0.1771276 0.1765065 0.1757908 0.1749801 0.1740716 0.173062 0.1719601 0.1707533 0.1694023
 0.1679437 0.1665785 0.1656064 0.165264 0.1655997 0.1664481 0.1675486 0.1687201 0.1698864 0.1709518
 0.1718016 0.1724917 0.1733346 0.1746939 0.1766788 0.1790301 0.1812958 0.1831196 0.1843623 0.1850127
 0.1851054 0.184712 0.1838814 0.1825918 0.1808534 0.1787914 0.1765577 0.1742715 0.1720751 0.1701035
 0.1684057 0.1669907 0.1658661 0.1650342 0.1645591 0.1641666 0.1622874 0.1566061 0.1473394 0.1393609
 0.138524 0.1453552 0.1543263 0.1597923 0.1607875 0.1596817 0.1584488 0.1575208 0.1568277 0.1564378
 0.1563979 0.1565989 0.1568218 0.1568397 0.1565568 0.1559925 0.1550261 0.1531596 0.1495092 0.1431265
 0.1337024 0.1222071 0.1106761 0.1011267 0.09456617 0.09078912 0.08881426 0.08756259 0.0864725 0.08569593
 0.08574025 0.08694807 0.08930603 0.09259996 0.09656938 0.1008708 0.1050271 0.1085896 0.1113808 0.1134934
 0.1150537 0.1160911 0.1166186 0.1167037 0.116428 0.1158611 0.1150737 0.1141127 0.1129662 0.1116076
 0.1100966 0.1086263 0.1074445 0.1066885 0.106298 0.106111 0.1060178 0.1059913 0.1060256 0.1061081
 0.106233 0.1064033 0.1066302 0.1069274 0.1072788 0.1076268 0.107913 0.1081163 0.1082394 0.1082743
 0.1081842 0.1079304 0.1075443 0.1071373 0.1067571 0.1062524 0.1053959 0.1041754 0.1029013 0.1020029
 0.1017313 0.102016 0.1025492 0.1030083 0.103246 0.1033117 0.1033162 0.1032785 0.1030953 0.1026584
</values></Ydata></ScRf><Data_Parameters_AB><parameter name="DPF">1</parameter><parameter name="NPT">3497</parameter><parameter name="FXV">3996</parameter><parameter name="LXV">500</parameter><parameter name="CSF">1</parameter><parameter name="MXY">0.112482137978077</parameter><parameter name="MNY">-0.109929047524929</parameter><parameter name="DAT">17/01/2024</parameter><parameter name="TIM">13:38:17.631 (GMT+1)</parameter><parameter name="DXU">WN</parameter></Data_Parameters_AB><AB__Qtest><MainReport name="Quality Test Report"><Header><Line><Legend>Test result ok/not ok [1/0]: </Legend><Value>0</Value></Line><Line><Legend>Method file: </Legend><Value>C:\Users\Public\Documents\Bruker\OPUS_8.2.28\QT\IRBT_v3_default.QT</Value></Line></Header><Matrix><Line><Legend></Legend><Legend>min</Legend><Legend>max</Legend><Legend>measured</Legend></Line><Line><Value>Absorption (X-Range 1):</Value><Value>0.400000</Value><Value>2.000000</Value><Value>0.203637</Value></Line><Line><Value>Noise (X-Range 4):</Value><Value></Value><Value>0.000300</Value><Value>0.000026</Value></Line><Line><Value>Signal/Noise (X-Range 2):</Value><Value>200.000000</Value><Value></Value><Value>170.425416</Value></Line><Line><Value>Signal/Noise (X-Range 3):</Value><Value>40.000000</Value><Value></Value><Value>149.024124</Value></Line><Line><Value>Water vapour (X-Range 5):</Value><Value></Value><Value>0.000300</Value><Value>0.000016</Value></Line><Line><Value>Signal/Water (X-Range 2):</Value><Value>100.000000</Value><Value></Value><Value>279.233913</Value></Line><Line><Value>Signal/Water (X-Range 3):</Value><Value>20.000000</Value><Value></Value><Value>244.168918</Value></Line><Line><Value>Fringes (X-Range 6):</Value><Value></Value><Value>0.000100</Value><Value>0.000022</Value></Line></Matrix></MainReport></AB__Qtest><Data_Parameters_ScSm><parameter name="DPF">1</parameter><parameter name="NPT">1814</parameter><parameter name="FXV">3996.63438082617</parameter><parameter name="LXV">499.579297603271</parameter><parameter name="CSF">1</parameter><parameter name="MXY">0.373926371335983</parameter><parameter name="MNY">0.0769840329885483</parameter><parameter name="DAT">17/01/2024</parameter><parameter name="TIM">13:38:17.631 (GMT+1)</parameter><parameter name="DXU">WN</parameter></Data_Parameters_ScSm><Data_Parameters_ScRf><parameter name="DPF">1</parameter><parameter name="NPT">1820</parameter><parameter name="FXV">4004.34989121387</parameter><parameter name="LXV">495.721542409425</parameter><parameter name="CSF">1</parameter><parameter name="MXY">0.317495405673981</parameter><parameter name="MNY">0.0680370032787323</parameter><parameter name="DAT">17/01/2024</parameter><parameter name="TIM">13:37:51.309 (GMT+1)</parameter><parameter name="DXU">WN</parameter></Data_Parameters_ScRf><Optic_Parameters_Rf><parameter name="APR">0</parameter><parameter name="APT">Open</parameter><parameter name="BMS">KBr</parameter><parameter name="DTC">RT-DLaTGS_IR-Biotyper [Microplate reader]</parameter><parameter name="HPF">0</parameter><parameter name="LPF">10.0</parameter><parameter name="LPV">4000</parameter><parameter name="PGR">0</parameter><parameter name="RCH">Module port</parameter><parameter name="RDX">0</parameter><parameter name="SRC">MIR</parameter><parameter name="VEL">10.0</parameter><parameter name="SON">Off</parameter></Optic_Parameters_Rf><Acquisition_Parameters_Rf><parameter name="ADT">1</parameter><parameter name="AQM">DD</parameter><parameter name="CFE">0</parameter><parameter name="COR">0</parameter><parameter name="DEL">0</parameter><parameter name="DLY">0</parameter><parameter name="HFW">8000</parameter><parameter name="LFW">0</parameter><parameter name="NSR">32</parameter><parameter name="PLF">AB</parameter><parameter name="RES">6</parameter><parameter name="RGN">-1</parameter><parameter name="STR">0</parameter><parameter name="TCL">MakeCompatibleScalar (0, {WSV=1.000000, ARV=0});</parameter><parameter name="TDL">37</parameter><parameter name="RPO">0</parameter></Acquisition_Parameters_Rf><FT_-_Parameters_Rf><parameter name="APF">B3</parameter><parameter name="HFQ">500</parameter><parameter name="LFQ">4000</parameter><parameter name="NLI">0</parameter><parameter name="PHR">24</parameter><parameter name="PHZ">ML</parameter><parameter name="SPZ">NO</parameter><parameter name="ZFF">1</parameter></FT_-_Parameters_Rf><Optic_Parameters_><parameter name="APR">0</parameter><parameter name="APT">Open</parameter><parameter name="BMS">KBr</parameter><parameter name="CHN">Module port</parameter><parameter name="DTC">RT-DLaTGS_IR-Biotyper [Microplate reader]</parameter><parameter name="HPF">0</parameter><parameter name="LPF">10.0</parameter><parameter name="LPV">4000</parameter><parameter name="PGN">0</parameter><parameter name="RDX">0</parameter><parameter name="SRC">MIR</parameter><parameter name="VEL">10.0</parameter><parameter name="SON">Off</parameter></Optic_Parameters_><FT_-_Parameters_><parameter name="APF">B3</parameter><parameter name="HFQ">500</parameter><parameter name="LFQ">4000</parameter><parameter name="NLI">0</parameter><parameter name="PHR">24</parameter><parameter name="PHZ">ML</parameter><parameter name="SPZ">NO</parameter><parameter name="ZFF">1</parameter></FT_-_Parameters_><Acquisition_Parameters_><parameter name="ADT">1</parameter><parameter name="AQM">DD</parameter><parameter name="CFE">0</parameter><parameter name="COR">0</parameter><parameter name="DEL">0</parameter><parameter name="DLY">0</parameter><parameter name="HFW">8000</parameter><parameter name="LFW">0</parameter><parameter name="NSS">32</parameter><parameter name="PLF">AB</parameter><parameter name="RES">6</parameter><parameter name="SOT">0</parameter><parameter name="TCL">MakeCompatibleScalar (0, {WSV=1.000000, ARV=0});</parameter><parameter name="TDL">37</parameter><parameter name="SPO">0</parameter><parameter name="SGN">-1</parameter></Acquisition_Parameters_><Instrument_Parameters_Rf><parameter name="HFL">15801.365274</parameter><parameter name="LFL">0</parameter><parameter name="LWN">15801.365274</parameter><parameter name="ABP">32157</parameter><parameter name="SSP">1</parameter><parameter name="ARG">2</parameter><parameter name="ASG">2</parameter><parameter name="ASS">32</parameter><parameter name="GFW">16</parameter><parameter name="GBW">16</parameter><parameter name="BFW">0</parameter><parameter name="BBW">0</parameter><parameter name="PKA">9110</parameter><parameter name="PKL">4987</parameter><parameter name="PRA">9122</parameter><parameter name="PRL">5010</parameter><parameter name="P2A">1</parameter><parameter name="P2L">1</parameter><parameter name="P2R">1</parameter><parameter name="P2K">1</parameter><parameter name="DAQ">0</parameter><parameter name="AG2">1</parameter><parameter name="SSM">1</parameter><parameter name="RSN">46378</parameter><parameter name="CRR">0</parameter><parameter name="SRT">1705498671.309</parameter><parameter name="DUR">19.6439971923828</parameter><parameter name="TSC">30.9</parameter><parameter name="MVD">0.415340512990952</parameter><parameter name="AN1">0.226002110167865</parameter><parameter name="AN2">0</parameter><parameter name="VSN">2.485 Apr  4 2017</parameter><parameter name="SRN">0085</parameter><parameter name="CAM">0</parameter><parameter name="INS">IR-Biotyper</parameter><parameter name="FOC">69</parameter><parameter name="RDY">1</parameter><parameter name="ARS">32</parameter></Instrument_Parameters_Rf><Sample_Parameters_><parameter name="BLD"></parameter><parameter name="CNM">Admin</parameter><parameter name="CPY"></parameter><parameter name="DPM"></parameter><parameter name="EXP">IRBT_v3_32Scans.XPM</parameter><parameter name="LCT"></parameter><parameter name="SFM">Microplate, HTS-XT</parameter><parameter name="SNM">240117-1222-Cdiff_SCFA_1_C12_232104490_D10_7487c03d-8d9f-447d-860e-97bb63e14153.0</parameter><parameter name="XPP">C:\Users\Public\Documents\Bruker\OPUS_8.2.28\XPM</parameter><parameter name="IST">OK</parameter><parameter name="CPG">1252</parameter><parameter name="UID">c5b79249-1b8a-4238-bef9-f80c4cb71b61</parameter></Sample_Parameters_><Instrument_Parameters_><parameter name="HFL">15801.365274</parameter><parameter name="LFL">0</parameter><parameter name="LWN">15801.365274</parameter><parameter name="ABP">32157</parameter><parameter name="SSP">1</parameter><parameter name="ASG">2</parameter><parameter name="ARG">2</parameter><parameter name="ASS">32</parameter><parameter name="GFW">16</parameter><parameter name="GBW">16</parameter><parameter name="BFW">0</parameter><parameter name="BBW">0</parameter><parameter name="PKA">10118</parameter><parameter name="PKL">4979</parameter><parameter name="PRA">10224</parameter><parameter name="PRL">5002</parameter><parameter name="P2A">1</parameter><parameter name="P2L">1</parameter><parameter name="P2R">1</parameter><parameter name="P2K">1</parameter><parameter name="DAQ">0</parameter><parameter name="AG2">1</parameter><parameter name="SSM">1</parameter><parameter name="RSN">23882</parameter><parameter name="CRR">0</parameter><parameter name="SRT">1705498697.632</parameter><parameter name="DUR">19.6439971923828</parameter><parameter name="TSC">30.9</parameter><parameter name="MVD">0.334820985794067</parameter><parameter name="AN1">0.226015414512717</parameter><parameter name="AN2">0</parameter><parameter name="VSN">2.485 Apr  4 2017</parameter><parameter name="SRN">0085</parameter><parameter name="CAM">0</parameter><parameter name="INS">IR-Biotyper</parameter><parameter name="FOC">69</parameter><parameter name="RDY">1</parameter></Instrument_Parameters_><History/></OPUSDataFile>
