<?xml version="1.0" encoding="UTF-8" ?>
<OPUSDataFile><AB><Ydata ylabel="Absorbance Units"><values byteorder="INTEL" format="FLOAT32" numvalues="3497"> -0.08546551 -0.08544191 -0.08541984 -0.08539917 -0.0853793 -0.08536045 -0.0853425 -0.08532652 -0.08531449 -0.08530609
 -0.08530227 -0.08530082 -0.08530018 -0.08529973 -0.08529824 -0.08529778 -0.085299 -0.08530238 -0.0853087 -0.08531447
 -0.08531925 -0.0853205 -0.08531772 -0.08531404 -0.08530965 -0.08530928 -0.08531275 -0.08532007 -0.08533043 -0.08533955
 -0.08534713 -0.08534974 -0.08534786 -0.08534088 -0.08532934 -0.08531345 -0.08529456 -0.08527333 -0.08525322 -0.08523687
 -0.08522674 -0.08522552 -0.08523119 -0.08524409 -0.0852603 -0.08527864 -0.08529882 -0.08532068 -0.08534463 -0.08537109
 -0.08539335 -0.08541104 -0.08541359 -0.08540144 -0.08537498 -0.08533661 -0.08529991 -0.08526575 -0.08524562 -0.08523561
 -0.085233 -0.08523329 -0.08522715 -0.08521533 -0.08519389 -0.08516826 -0.08514114 -0.0851168 -0.08509872 -0.08508671
 -0.08508197 -0.08508114 -0.08508376 -0.08508641 -0.08508816 -0.0850898 -0.08509105 -0.08509786 -0.0851105 -0.08513281
 -0.08516424 -0.08519991 -0.08523866 -0.08527138 -0.08529813 -0.08531393 -0.08532022 -0.08531774 -0.0853079 -0.08529314
 -0.08527471 -0.08525479 -0.08523428 -0.0852147 -0.08519585 -0.08517819 -0.08516058 -0.08514243 -0.08512437 -0.08510598
 -0.08509061 -0.08507863 -0.08507317 -0.08507474 -0.08508308 -0.08509818 -0.08511507 -0.08513327 -0.08514572 -0.08515225
 -0.08514798 -0.08513383 -0.0851099 -0.08507821 -0.0850431 -0.08500682 -0.08497485 -0.08494864 -0.08493245 -0.0849249
 -0.08492736 -0.08493446 -0.08494417 -0.08495093 -0.08495165 -0.08494611 -0.08493308 -0.08491709 -0.08489882 -0.08488046
 -0.08486233 -0.08484484 -0.084828 -0.08481581 -0.08480854 -0.08481166 -0.08482404 -0.08484286 -0.08486463 -0.0848751
 -0.08487257 -0.08484286 -0.08479374 -0.08472977 -0.08466315 -0.08461175 -0.08457667 -0.08456706 -0.08457257 -0.08459054
 -0.08461073 -0.08462806 -0.08463963 -0.08464313 -0.08464175 -0.08463568 -0.08462774 -0.08461834 -0.08460737 -0.08459484
 -0.08457925 -0.08456053 -0.08453726 -0.08450957 -0.08447713 -0.084441 -0.08440478 -0.08436995 -0.08434228 -0.08432166
 -0.08431131 -0.08430832 -0.08431114 -0.08431541 -0.08431721 -0.08431353 -0.08430085 -0.08428081 -0.08425226 -0.08422145
 -0.08418961 -0.08416229 -0.08414122 -0.08412478 -0.08411323 -0.08410122 -0.08408843 -0.08407456 -0.08405995 -0.08405064
 -0.08404636 -0.08404941 -0.08405744 -0.08406252 -0.08406326 -0.08405076 -0.08402812 -0.08399601 -0.08395921 -0.08392434
 -0.08389233 -0.08386672 -0.08384528 -0.08382747 -0.08381215 -0.08379822 -0.08378763 -0.08378072 -0.08377892 -0.08378303
 -0.08379012 -0.08380035 -0.08380662 -0.08380849 -0.08380105 -0.08378452 -0.08376206 -0.08373455 -0.08370979 -0.08368731
 -0.08367 -0.08365556 -0.08363932 -0.0836202 -0.08359318 -0.08356061 -0.08352277 -0.08348366 -0.08344695 -0.08341458
 -0.08338934 -0.08336945 -0.08335529 -0.08334313 -0.08333176 -0.08331998 -0.0833068 -0.08329619 -0.08328859 -0.08328556
 -0.08328743 -0.08328518 -0.08327827 -0.08325541 -0.08321808 -0.08317067 -0.08311623 -0.08307098 -0.0830332 -0.08300787
 -0.08298916 -0.08296762 -0.08294248 -0.08290759 -0.08286782 -0.08282603 -0.08278371 -0.08274341 -0.08270237 -0.08265942
 -0.08261506 -0.08256842 -0.08252464 -0.08248479 -0.08245064 -0.08242299 -0.08239714 -0.08237288 -0.08234364 -0.08230928
 -0.08226755 -0.08221915 -0.08216816 -0.08211564 -0.08206846 -0.08202621 -0.08199181 -0.0819632 -0.08193808 -0.08191461
 -0.08188979 -0.08186168 -0.08182812 -0.08178624 -0.08173331 -0.08166923 -0.08159214 -0.08150757 -0.08141631 -0.08132461
 -0.08123404 -0.08114633 -0.08106197 -0.08098027 -0.08090115 -0.08082619 -0.08075553 -0.0806932 -0.08063886 -0.08059295
 -0.08055302 -0.08050988 -0.08045969 -0.08038643 -0.08029009 -0.08016049 -0.08000667 -0.07983474 -0.0796567 -0.07948676
 -0.07932804 -0.07918831 -0.07906063 -0.07894521 -0.07883042 -0.07871352 -0.07858364 -0.07843761 -0.07827325 -0.078089
 -0.07789509 -0.07769217 -0.07748725 -0.07728012 -0.07706215 -0.0768328 -0.07658241 -0.07631367 -0.07603288 -0.07574385
 -0.07546128 -0.07518514 -0.07492332 -0.07467158 -0.07442816 -0.07418743 -0.07394385 -0.07369287 -0.07342993 -0.07315297
 -0.07286057 -0.0725498 -0.07222014 -0.07186649 -0.0714867 -0.07108442 -0.07065823 -0.0702288 -0.06979747 -0.0693818
 -0.0689819 -0.06859259 -0.06821221 -0.06782445 -0.06742951 -0.06701903 -0.06659583 -0.06616329 -0.06572458 -0.06528863
 -0.06485423 -0.06442656 -0.06399458 -0.06355123 -0.06308337 -0.06257564 -0.06203783 -0.06146486 -0.06089064 -0.06032612
 -0.05978639 -0.0592807 -0.05878594 -0.0583013 -0.05779735 -0.05727123 -0.05671884 -0.05614061 -0.0555555 -0.05496418
 -0.05438121 -0.05380404 -0.05322871 -0.05265205 -0.05206124 -0.05145836 -0.05083952 -0.05021279 -0.0495884 -0.04897044
 -0.04836922 -0.04777728 -0.04719438 -0.04660799 -0.0460121 -0.04539958 -0.04476616 -0.04411281 -0.04343799 -0.04275019
 -0.04204982 -0.04134835 -0.04064692 -0.03994808 -0.03925166 -0.03854755 -0.03783569 -0.03711011 -0.03637375 -0.03563779
 -0.03490449 -0.03418817 -0.03348517 -0.03279601 -0.03211365 -0.03142804 -0.03073494 -0.03002528 -0.02930148 -0.02856092
 -0.02781211 -0.02705871 -0.02630549 -0.0255567 -0.02480462 -0.02404898 -0.02327887 -0.02249146 -0.02169219 -0.02088066
 -0.02007575 -0.0192782 -0.01849682 -0.01773038 -0.01697052 -0.01621582 -0.01545447 -0.01468712 -0.01390914 -0.01312278
 -0.01233039 -0.01153419 -0.01073902 -0.00994441 -0.009152469 -0.008359634 -0.007563786 -0.006763274 -0.005955413 -0.005145148
 -0.004332969 -0.003525506 -0.002724743 -0.001932037 -0.001148424 -0.0003686437 0.0004075301 0.001186675 0.001969061 0.002756623
 0.003548972 0.00434265 0.005137582 0.005931217 0.006724617 0.00752003 0.008317914 0.00912082 0.009927481 0.01073725
 0.01154859 0.01235994 0.01316948 0.01397617 0.01477635 0.01556753 0.01634913 0.0171191 0.01788415 0.01864505
 0.01940923 0.02017844 0.02095205 0.02173041 0.02250777 0.02328388 0.02405498 0.02482116 0.02558199 0.02633776
 0.02708958 0.02783793 0.02858509 0.02933107 0.03007697 0.03082276 0.03156849 0.03231514 0.03306403 0.03381496
 0.03456941 0.03532277 0.03607352 0.03681678 0.03754973 0.03827358 0.03898742 0.03969708 0.04040321 0.04111053
 0.04181963 0.04253184 0.0432472 0.04396141 0.04467387 0.04537568 0.04606708 0.0467438 0.04740824 0.04806626
 0.04871958 0.04937571 0.05003311 0.05069268 0.05135256 0.05201069 0.05266716 0.05332142 0.05397367 0.05462391
 0.05527219 0.05591833 0.05656344 0.05720782 0.05785196 0.05849624 0.05913864 0.05977919 0.0604139 0.06104257
 0.06165931 0.06226392 0.0628514 0.06342306 0.06398291 0.06453393 0.06508923 0.06564892 0.06622113 0.06680118
 0.06738529 0.06796962 0.06854755 0.06911993 0.06968562 0.07024511 0.07079934 0.07134493 0.07188071 0.07240484
 0.0729157 0.07341796 0.07391153 0.07440516 0.07489972 0.07540046 0.07590769 0.07641841 0.07693216 0.07744209
 0.07794844 0.07844932 0.07894516 0.07943752 0.07992438 0.08040215 0.08086809 0.08131455 0.08174469 0.08215738
 0.0825612 0.08296284 0.08336684 0.08377885 0.08419508 0.08461594 0.08503531 0.08545157 0.08586185 0.08626536
 0.08666164 0.0870506 0.08743179 0.08780517 0.08816898 0.08852317 0.08886691 0.0892006 0.08952644 0.08984458
 0.09015732 0.0904632 0.09075982 0.09104607 0.09131794 0.09157809 0.09182751 0.09207024 0.09231057 0.09254844
 0.09278534 0.09301905 0.09324861 0.09347446 0.09369626 0.09391626 0.09413481 0.09435325 0.09457164 0.09479232
 0.09501542 0.09524292 0.09547436 0.09570404 0.09593024 0.09613895 0.09632959 0.0964912 0.09662732 0.09674006
 0.09683556 0.0969255 0.09701302 0.09710748 0.09720627 0.0973104 0.09741674 0.09752256 0.09763048 0.09774077
 0.09785631 0.09797951 0.09810323 0.09822772 0.09833868 0.09843421 0.09851004 0.09856565 0.09861402 0.098656
 0.09870735 0.09876713 0.09883772 0.09891596 0.09899124 0.09906122 0.09911409 0.09915098 0.09916727 0.09916832
 0.09915713 0.09914295 0.09913371 0.09913778 0.09916385 0.09920964 0.09927914 0.09935614 0.09943809 0.09950754
 0.09955979 0.09959371 0.09960759 0.09961671 0.09962188 0.09963731 0.09966307 0.09970096 0.0997504 0.09980761
 0.0998739 0.09995219 0.1000445 0.1001598 0.1002941 0.1004486 0.1006088 0.100759 0.1008826 0.1009571
 0.1009832 0.1009492 0.1008815 0.1007848 0.100693 0.1006174 0.1005724 0.1005649 0.1005817 0.1006236
 0.1006623 0.1006962 0.1006994 0.1006715 0.1006036 0.1004977 0.100364 0.1002052 0.1000379 0.09986259
 0.09968884 0.0995158 0.09934571 0.09917893 0.09901659 0.09885953 0.09870947 0.09856488 0.09842682 0.09828841
 0.09814937 0.09799496 0.09782235 0.09761466 0.09736703 0.09707815 0.09674554 0.09639087 0.09601519 0.09564578
 0.09528336 0.09493893 0.09461118 0.09429576 0.09399109 0.09368913 0.09338804 0.09307921 0.09276065 0.09242351
 0.09207042 0.09169947 0.0913185 0.09093401 0.09055083 0.09017546 0.08980379 0.08943637 0.08906601 0.08869019
 0.08830702 0.08791468 0.08751971 0.08712183 0.08673526 0.08636092 0.08601211 0.08568867 0.08538481 0.08509712
 0.08479644 0.08448046 0.08412097 0.08372387 0.08328865 0.08282718 0.08236229 0.0819002 0.08146072 0.0810389
 0.08063824 0.08024934 0.07986726 0.07948572 0.07910029 0.07871032 0.07831416 0.07791543 0.07751421 0.07711577
 0.07672096 0.07633132 0.07594719 0.07556426 0.0751823 0.07479693 0.07440855 0.07401876 0.07362815 0.07324073
 0.07285539 0.07247177 0.07208709 0.07169581 0.07129627 0.070883 0.07045832 0.07002116 0.06957811 0.06913235
 0.06869102 0.06825867 0.06783669 0.06742779 0.06702461 0.06662681 0.06622411 0.0658149 0.06539539 0.06496493
 0.06452885 0.06408753 0.0636491 0.06321359 0.06278484 0.06236187 0.0619427 0.0615259 0.06110626 0.06068307
 0.06025197 0.05981417 0.05936897 0.05891938 0.05846808 0.05801702 0.05756881 0.0571224 0.05667812 0.05623407
 0.05578893 0.0553454 0.05490283 0.05446977 0.05404701 0.05364338 0.05325991 0.05289533 0.05254916 0.05220501
 0.05186125 0.05149571 0.05110928 0.05069254 0.05025114 0.04979627 0.04933418 0.04888376 0.04844575 0.04803049
 0.04763254 0.04725092 0.04687875 0.04651137 0.04614352 0.04577146 0.04539328 0.04500658 0.04461601 0.04422117
 0.04383232 0.04345076 0.04308376 0.04273225 0.04239419 0.04206942 0.04175262 0.04144434 0.04114724 0.04086299
 0.04060194 0.04036342 0.04015324 0.03996441 0.03978751 0.03961109 0.03941433 0.03919114 0.03892425 0.03862378
 0.0382874 0.03793896 0.03758833 0.03725476 0.03694873 0.03666944 0.03642017 0.03618671 0.03596753 0.03575243
 0.03554027 0.0353295 0.03511998 0.03490903 0.03469612 0.03447438 0.0342444 0.03400455 0.03375795 0.03351358
 0.03327357 0.03304828 0.03283431 0.03263249 0.03243534 0.03223563 0.03202803 0.03180575 0.03156941 0.03131696
 0.03105267 0.03077791 0.03049413 0.03020285 0.02989867 0.02958147 0.02924266 0.02888119 0.02849682 0.02808979
 0.02767575 0.02725612 0.02685227 0.02646324 0.02609687 0.02574806 0.02540482 0.02506251 0.02470385 0.02433072
 0.02393698 0.02353005 0.02311552 0.02269869 0.02228618 0.02187676 0.02147176 0.0210682 0.02066476 0.02026231
 0.01986063 0.01946203 0.01906696 0.01867539 0.01828731 0.0179034 0.01752374 0.01715139 0.0167859 0.01642445
 0.0160649 0.01569385 0.01531065 0.01490395 0.01447927 0.01404196 0.01360015 0.01317 0.01275258 0.0123571
 0.01197597 0.01160647 0.01124252 0.01087913 0.01051777 0.01015752 0.009802078 0.009452551 0.00910888 0.008771161
 0.008439169 0.008112611 0.007796148 0.00749004 0.007201422 0.006930305 0.006679641 0.006448076 0.006230485 0.006024102
 0.005817024 0.005607291 0.005383566 0.005148142 0.004898011 0.004640517 0.004381471 0.004129598 0.003893133 0.003677594
 0.003487977 0.003326406 0.003194597 0.003093493 0.003023867 0.002984614 0.002976228 0.002993212 0.003035403 0.003093955
 0.003168391 0.003252547 0.003346667 0.003451664 0.003568722 0.003704956 0.003861349 0.00404571 0.004256781 0.00449689
 0.004761019 0.005043254 0.005336766 0.005631804 0.005923933 0.006205959 0.006478574 0.006739892 0.006992999 0.007238828
 0.007478629 0.007712923 0.007941841 0.008165073 0.008385799 0.008604028 0.008826167 0.009052568 0.009287886 0.009531876
 0.009782871 0.01003965 0.01029447 0.01054577 0.01078418 0.01100836 0.01121056 0.01139025 0.01154245 0.01166933
 0.01176941 0.01185114 0.01191788 0.0119851 0.01206079 0.01215939 0.0122893 0.01245223 0.01265205 0.01287666
 0.01312517 0.0133843 0.01365227 0.01392635 0.0142063 0.01449578 0.01479448 0.01509964 0.01540938 0.01571097
 0.01600229 0.0162687 0.01650983 0.01671688 0.01689206 0.01703437 0.01714817 0.01723796 0.01730736 0.01736267
 0.01739915 0.01742004 0.01740532 0.01735313 0.01722761 0.01702313 0.01669501 0.01623581 0.01561017 0.01481165
 0.01384475 0.01270888 0.01146754 0.01012681 0.008787619 0.007455234 0.006215816 0.005065388 0.004037551 0.003120205
 0.002301311 0.001569297 0.0008990769 0.0002842086 -0.0002921892 -0.0008339697 -0.001348502 -0.001841024 -0.002315887 -0.002777689
 -0.003229598 -0.003671936 -0.004105953 -0.004527857 -0.004937299 -0.005330577 -0.005707222 -0.006065495 -0.006405258 -0.006726092
 -0.007028003 -0.007311078 -0.007575291 -0.007820412 -0.008046554 -0.00825322 -0.008442306 -0.008616249 -0.008781902 -0.008950241
 -0.009131943 -0.009344268 -0.009593843 -0.009894257 -0.01024021 -0.0106353 -0.01106285 -0.01151934 -0.01198334 -0.01244977
 -0.01289841 -0.0133254 -0.01371568 -0.01406719 -0.01437173 -0.01462867 -0.01483277 -0.01498396 -0.01507878 -0.01512029
 -0.01512222 -0.01509773 -0.0151001 -0.01515305 -0.01534469 -0.01569016 -0.01626616 -0.0170501 -0.01805865 -0.01922497
 -0.02050675 -0.02182502 -0.02312148 -0.02435101 -0.02547708 -0.02650291 -0.02741939 -0.02825354 -0.02900852 -0.02970656
 -0.03035069 -0.03095175 -0.03151061 -0.03203442 -0.03252365 -0.03298688 -0.03342488 -0.03384716 -0.03425461 -0.03465616
 -0.0350518 -0.03544652 -0.03583855 -0.03622712 -0.03661015 -0.03698444 -0.03734952 -0.03770377 -0.0380477 -0.03838122
 -0.03870463 -0.03901771 -0.03932206 -0.03961745 -0.03990839 -0.04019559 -0.04048289 -0.04077114 -0.04105896 -0.04134641
 -0.04162795 -0.04190339 -0.04216941 -0.04242669 -0.04267864 -0.04292628 -0.04317617 -0.04342774 -0.04368341 -0.04394062
 -0.04419548 -0.04444666 -0.04468978 -0.04492755 -0.0451603 -0.04539245 -0.04562746 -0.04586579 -0.04610965 -0.04635346
 -0.04659665 -0.04683182 -0.04705751 -0.04726888 -0.04746481 -0.0476463 -0.04781312 -0.04797343 -0.04812779 -0.04828772
 -0.04845329 -0.04863094 -0.04881899 -0.04901393 -0.04921356 -0.04940955 -0.04960177 -0.04978549 -0.04996293 -0.05013499
 -0.0503039 -0.05047242 -0.05064055 -0.05080938 -0.05097737 -0.05114413 -0.05130841 -0.05146981 -0.05162747 -0.05178122
 -0.05193015 -0.05207413 -0.05221222 -0.05234427 -0.05247168 -0.05259465 -0.05271783 -0.05284144 -0.0529698 -0.05310237
 -0.05323921 -0.05337925 -0.05351907 -0.05365885 -0.05379686 -0.05393474 -0.05407389 -0.05421587 -0.05436307 -0.05451496
 -0.05467237 -0.0548329 -0.0549959 -0.05515879 -0.05532064 -0.05547996 -0.05563609 -0.05578969 -0.05594061 -0.05609129
 -0.05624186 -0.0563954 -0.05655202 -0.05671278 -0.05687743 -0.05704455 -0.05721365 -0.05738186 -0.05754878 -0.0577117
 -0.05787067 -0.05802433 -0.05817349 -0.05831839 -0.05846071 -0.05860198 -0.05874377 -0.05888764 -0.05903414 -0.0591841
 -0.05933679 -0.05949227 -0.05964928 -0.05980774 -0.05996585 -0.06012342 -0.06027861 -0.06043125 -0.06058016 -0.06072531
 -0.06086736 -0.06100649 -0.06114442 -0.06128134 -0.06141907 -0.06155735 -0.06169647 -0.06183583 -0.06197429 -0.06211168
 -0.06224702 -0.06238097 -0.06251373 -0.06264625 -0.06277941 -0.06291318 -0.0630478 -0.06318286 -0.06331801 -0.06345429
 -0.06359167 -0.06373201 -0.06387567 -0.06402259 -0.06417289 -0.06432452 -0.06447739 -0.06462953 -0.06478092 -0.06493072
 -0.06507877 -0.06522382 -0.06536558 -0.0655022 -0.06563408 -0.06576088 -0.06588402 -0.06600533 -0.06612601 -0.06624805
 -0.06637163 -0.06649741 -0.06662548 -0.06675587 -0.06688938 -0.06702644 -0.06716673 -0.06731066 -0.0674554 -0.0676007
 -0.06774381 -0.06788433 -0.06802319 -0.06816049 -0.06830034 -0.06844285 -0.06859101 -0.0687442 -0.06890125 -0.06906082
 -0.06921806 -0.06937216 -0.06951848 -0.06965817 -0.06979021 -0.06991787 -0.07004403 -0.07017137 -0.07030321 -0.07043886
 -0.07057926 -0.07072165 -0.07086518 -0.07100845 -0.07115086 -0.07129256 -0.07143354 -0.07157348 -0.07171234 -0.07184974
 -0.07198567 -0.07212143 -0.07225706 -0.07239392 -0.07253164 -0.07266934 -0.07280651 -0.07294093 -0.07307258 -0.0732002
 -0.07332426 -0.0734449 -0.07356261 -0.07367782 -0.07379142 -0.07390381 -0.07401678 -0.074131 -0.07424878 -0.07437114
 -0.07449898 -0.07463308 -0.07477134 -0.07491386 -0.07505624 -0.07519814 -0.0753357 -0.07546872 -0.07559623 -0.07571844
 -0.07583728 -0.07595318 -0.07606955 -0.07618657 -0.07630674 -0.07642961 -0.07655562 -0.07668382 -0.07681275 -0.07694206
 -0.07707071 -0.07719899 -0.07732704 -0.07745431 -0.07758106 -0.07770506 -0.07782578 -0.07794079 -0.07804916 -0.07815084
 -0.07824533 -0.07833585 -0.07842248 -0.07851034 -0.07859972 -0.07869452 -0.07879461 -0.07889979 -0.07900929 -0.07911877
 -0.0792279 -0.07933283 -0.0794345 -0.07953294 -0.07962961 -0.07972709 -0.07982543 -0.07992609 -0.08002737 -0.08012861
 -0.08022791 -0.08032393 -0.08041628 -0.0805044 -0.08058894 -0.08067003 -0.08074795 -0.08082268 -0.08089508 -0.08096505
 -0.0810356 -0.08110689 -0.08118341 -0.08126519 -0.08135401 -0.08144923 -0.08154803 -0.08164966 -0.0817498 -0.08184888
 -0.08194551 -0.08204123 -0.08213796 -0.08223695 -0.08234061 -0.0824486 -0.08256181 -0.08267847 -0.08279807 -0.08291846
 -0.08303867 -0.0831576 -0.08327469 -0.08339018 -0.08350401 -0.08361656 -0.08372792 -0.08383768 -0.08394583 -0.08405247
 -0.08415774 -0.08426339 -0.08436958 -0.08447826 -0.08458914 -0.08470233 -0.08481704 -0.08493141 -0.08504499 -0.08515605
 -0.08526501 -0.08537153 -0.08547669 -0.08558121 -0.08568586 -0.08579166 -0.08589736 -0.08600307 -0.08610608 -0.0862055
 -0.08630066 -0.08639083 -0.08647946 -0.08656666 -0.08665729 -0.08675162 -0.08685067 -0.08695418 -0.08705875 -0.08716416
 -0.08726729 -0.08736827 -0.08746616 -0.087561 -0.08765247 -0.0877407 -0.08782535 -0.08790783 -0.08798918 -0.08807192
 -0.08815874 -0.08825018 -0.0883481 -0.08844922 -0.08855301 -0.08865567 -0.08875571 -0.08885305 -0.08894708 -0.08904126
 -0.08913592 -0.08923337 -0.08933382 -0.08943564 -0.0895386 -0.08963867 -0.08973576 -0.08982705 -0.08991306 -0.08999401
 -0.09007087 -0.09014608 -0.09022032 -0.0902959 -0.09037298 -0.09045265 -0.09053476 -0.09061961 -0.09070683 -0.09079652
 -0.09088741 -0.09097932 -0.0910702 -0.09115943 -0.09124578 -0.09132876 -0.09140906 -0.09148663 -0.09156299 -0.09163821
 -0.09171336 -0.09178849 -0.09186425 -0.09194062 -0.0920179 -0.09209582 -0.09217358 -0.09225082 -0.09232605 -0.09239937
 -0.0924699 -0.0925388 -0.09260713 -0.09267588 -0.09274659 -0.09281851 -0.09289213 -0.09296485 -0.0930358 -0.09310291
 -0.09316494 -0.09322351 -0.09327826 -0.09333405 -0.09339137 -0.09345382 -0.09352173 -0.09359459 -0.09367217 -0.0937502
 -0.09382851 -0.09390359 -0.09397593 -0.09404546 -0.09411303 -0.09418087 -0.09424959 -0.09432134 -0.09439643 -0.09447599
 -0.09456049 -0.09465077 -0.09474678 -0.09484932 -0.09495594 -0.09506647 -0.09517636 -0.0952843 -0.09538748 -0.09548466
 -0.09557832 -0.09566832 -0.09576037 -0.09585485 -0.09595527 -0.09606151 -0.09617064 -0.09628179 -0.09638723 -0.09648635
 -0.09657206 -0.09664542 -0.09670548 -0.09675399 -0.09679463 -0.0968262 -0.09684923 -0.09686079 -0.09685639 -0.09684093
 -0.0968127 -0.09678838 -0.09677389 -0.09678317 -0.09682304 -0.09689215 -0.09699293 -0.09711141 -0.09724709 -0.09738032
 -0.09750981 -0.09761884 -0.09770717 -0.09777295 -0.09781773 -0.0978528 -0.09787881 -0.09790466 -0.09792936 -0.09795425
 -0.09797918 -0.09800421 -0.09803014 -0.0980582 -0.0980884 -0.09812157 -0.09815621 -0.09819188 -0.09822652 -0.09825913
 -0.09828849 -0.09831377 -0.09833587 -0.09835459 -0.09837228 -0.0983892 -0.09840675 -0.09842508 -0.09844439 -0.09846473
 -0.09848638 -0.09850933 -0.09853353 -0.09855884 -0.0985843 -0.09860998 -0.09863541 -0.09866093 -0.09868693 -0.09871373
 -0.09874181 -0.09877165 -0.09880358 -0.09883878 -0.09887815 -0.09892223 -0.09897207 -0.09902534 -0.0990822 -0.09913767
 -0.09919079 -0.09923829 -0.09927935 -0.09931548 -0.09934662 -0.09937692 -0.09940657 -0.0994384 -0.09947232 -0.09950867
 -0.09954734 -0.09958795 -0.09963059 -0.09967554 -0.09972256 -0.09977163 -0.0998217 -0.09987143 -0.09991969 -0.09996466
 -0.1000066 -0.100045 -0.1000814 -0.1001162 -0.1001517 -0.1001885 -0.1002278 -0.1002703 -0.1003147 -0.1003612
 -0.1004065 -0.1004505 -0.1004912 -0.1005284 -0.1005637 -0.1005971 -0.100631 -0.1006653 -0.1006999 -0.1007345
 -0.1007675 -0.1007993 -0.1008296 -0.1008593 -0.1008899 -0.1009218 -0.1009561 -0.1009917 -0.1010285 -0.1010646
 -0.1010991 -0.1011308 -0.1011592 -0.1011851 -0.1012084 -0.1012313 -0.101254 -0.1012776 -0.1013023 -0.1013272
 -0.1013523 -0.1013766 -0.1014001 -0.1014232 -0.1014464 -0.1014717 -0.1014991 -0.10153 -0.1015637 -0.1015995
 -0.1016364 -0.1016724 -0.1017072 -0.1017393 -0.1017694 -0.1017974 -0.101824 -0.1018495 -0.1018744 -0.1018988
 -0.1019237 -0.1019492 -0.1019761 -0.1020046 -0.1020341 -0.1020646 -0.1020944 -0.1021236 -0.1021513 -0.1021776
 -0.102203 -0.102228 -0.102254 -0.1022814 -0.1023116 -0.1023442 -0.1023792 -0.1024154 -0.1024511 -0.1024855
 -0.1025169 -0.1025458 -0.1025717 -0.102596 -0.1026193 -0.1026426 -0.1026664 -0.1026907 -0.1027157 -0.1027409
 -0.1027664 -0.102792 -0.1028175 -0.102843 -0.1028683 -0.1028933 -0.102918 -0.102942 -0.1029655 -0.1029884
 -0.1030112 -0.1030349 -0.10306 -0.1030876 -0.1031172 -0.1031493 -0.1031825 -0.103216 -0.1032489 -0.1032801
 -0.1033099 -0.1033381 -0.1033655 -0.1033924 -0.1034196 -0.1034472 -0.1034751 -0.1035033 -0.1035312 -0.1035586
 -0.1035856 -0.1036121 -0.1036382 -0.1036641 -0.1036897 -0.1037149 -0.103739 -0.1037617 -0.1037825 -0.1038015
 -0.1038186 -0.1038342 -0.1038492 -0.1038641 -0.1038804 -0.103898 -0.1039175 -0.1039379 -0.1039589 -0.1039796
 -0.1039993 -0.1040181 -0.1040359 -0.1040535 -0.1040711 -0.1040893 -0.1041083 -0.1041284 -0.1041497 -0.1041728
 -0.1041978 -0.1042248 -0.1042537 -0.1042837 -0.1043141 -0.1043427 -0.1043692 -0.1043914 -0.1044101 -0.1044248
 -0.1044377 -0.1044509 -0.1044655 -0.1044837 -0.1045045 -0.1045282 -0.1045526 -0.1045769 -0.1046005 -0.1046229
 -0.1046453 -0.1046677 -0.1046909 -0.1047151 -0.1047403 -0.1047664 -0.1047936 -0.1048221 -0.1048525 -0.1048847
 -0.1049187 -0.1049538 -0.1049883 -0.1050214 -0.1050506 -0.105076 -0.1050964 -0.1051134 -0.1051281 -0.105143
 -0.1051603 -0.1051813 -0.1052076 -0.1052381 -0.105273 -0.1053096 -0.1053473 -0.105384 -0.1054194 -0.1054533
 -0.1054855 -0.1055172 -0.1055484 -0.1055793 -0.1056097 -0.1056385 -0.1056657 -0.1056906 -0.1057134 -0.1057347
 -0.105755 -0.1057758 -0.1057975 -0.1058209 -0.105846 -0.105873 -0.1059013 -0.1059308 -0.1059611 -0.1059922
 -0.1060238 -0.1060558 -0.1060879 -0.10612 -0.1061521 -0.1061839 -0.1062162 -0.1062491 -0.1062836 -0.1063196
 -0.1063565 -0.1063942 -0.1064307 -0.106466 -0.1064992 -0.1065305 -0.1065611 -0.1065912 -0.1066217 -0.1066526
 -0.1066839 -0.106715 -0.1067454 -0.1067752 -0.1068039 -0.1068325 -0.1068611 -0.1068912 -0.1069235 -0.1069587
 -0.1069974 -0.1070389 -0.1070833 -0.1071282 -0.1071735 -0.107216 -0.1072555 -0.1072903 -0.1073205 -0.1073465
 -0.1073684 -0.1073886 -0.1074075 -0.1074276 -0.1074495 -0.1074751 -0.1075042 -0.1075372 -0.1075727 -0.1076094
 -0.1076459 -0.1076804 -0.1077131 -0.1077433 -0.107772 -0.1077998 -0.1078266 -0.1078526 -0.1078763 -0.1078974
 -0.1079149 -0.1079284 -0.1079397 -0.1079487 -0.1079587 -0.1079698 -0.1079842 -0.1080019 -0.1080227 -0.1080463
 -0.1080708 -0.108096 -0.1081201 -0.1081433 -0.1081652 -0.1081858 -0.1082055 -0.1082238 -0.1082405 -0.1082551
 -0.108267 -0.108277 -0.108285 -0.1082933 -0.1083026 -0.1083143 -0.108329 -0.1083453 -0.1083631 -0.1083798
 -0.1083952 -0.1084086 -0.10842 -0.108431 -0.1084416 -0.108453 -0.1084649 -0.1084769 -0.1084893 -0.1085018
 -0.1085146 -0.108528 -0.1085417 -0.1085559 -0.1085695 -0.1085818 -0.1085921 -0.1085997 -0.1086051 -0.1086081
 -0.1086104 -0.1086122 -0.1086152 -0.1086198 -0.1086265 -0.1086356 -0.1086456 -0.1086565 -0.1086664 -0.1086751
 -0.1086817 -0.1086863 -0.1086894 -0.1086912 -0.1086928 -0.1086941 -0.1086957 -0.1086972 -0.108698 -0.1086977
 -0.1086952 -0.108691 -0.1086846 -0.1086774 -0.10867 -0.1086635 -0.1086586 -0.1086553 -0.108654 -0.1086538
 -0.1086549 -0.1086554 -0.1086553 -0.1086525 -0.1086469 -0.1086376 -0.1086247 -0.1086091 -0.1085912 -0.1085725
 -0.1085531 -0.1085345 -0.1085166 -0.1085002 -0.1084849 -0.1084706 -0.1084568 -0.1084426 -0.1084279 -0.1084124
 -0.1083967 -0.1083814 -0.1083667 -0.1083532 -0.1083402 -0.1083276 -0.1083142 -0.1082994 -0.1082833 -0.1082657
 -0.1082473 -0.1082282 -0.1082099 -0.1081924 -0.1081764 -0.1081618 -0.1081476 -0.1081333 -0.108117 -0.1080987
 -0.1080772 -0.108053 -0.1080263 -0.1079979 -0.1079687 -0.1079391 -0.10791 -0.1078812 -0.1078528 -0.107824
 -0.1077943 -0.1077629 -0.1077296 -0.1076942 -0.1076568 -0.1076179 -0.1075775 -0.1075369 -0.1074961 -0.1074562
 -0.1074173 -0.1073794 -0.1073424 -0.1073053 -0.1072683 -0.1072316 -0.1071952 -0.1071602 -0.1071255 -0.10709
 -0.1070522 -0.1070092 -0.1069614 -0.106908 -0.106851 -0.1067919 -0.1067318 -0.1066716 -0.1066116 -0.1065516
 -0.1064927 -0.1064351 -0.1063801 -0.106328 -0.1062786 -0.1062319 -0.1061853 -0.1061386 -0.1060878 -0.106033
 -0.105971 -0.1059023 -0.1058267 -0.105745 -0.10566 -0.105572 -0.1054834 -0.1053945 -0.1053063 -0.1052195
 -0.105135 -0.105052 -0.104971 -0.1048891 -0.1048051 -0.1047169 -0.1046234 -0.104526 -0.1044249 -0.1043222
 -0.1042183 -0.104113 -0.1040061 -0.1038963 -0.1037834 -0.1036671 -0.1035471 -0.1034224 -0.1032926 -0.1031555
 -0.1030107 -0.1028561 -0.102692 -0.1025178 -0.1023352 -0.1021463 -0.1019534 -0.10176 -0.1015663 -0.1013744
 -0.1011811 -0.1009853 -0.1007838 -0.1005749 -0.1003591 -0.100136 -0.09990861 -0.09967739 -0.09944418 -0.09920932
 -0.09897064 -0.09872797 -0.09847599 -0.09821459 -0.09794004 -0.09765342 -0.09735821 -0.09705529 -0.0967501 -0.09644067
 -0.096126 -0.09580312 -0.09546643 -0.09511668 -0.09475184 -0.09437559 -0.09399021 -0.09359715 -0.09319843 -0.09279137
 -0.09237617 -0.09194743 -0.0915044 -0.09104108 -0.09055606 -0.09004986 -0.08952194 -0.08898308 -0.08843381 -0.0878838
 -0.08733266 -0.08677977 -0.08622493 -0.08566643 -0.08510554 -0.08454677 -0.08398812 -0.08342981 -0.08286371 -0.08227751
 -0.08166645 -0.08101741 -0.08034059 -0.07963744 -0.07892288 -0.07820656 -0.07748944 -0.07677519 -0.0760556 -0.07532899
 -0.07459231 -0.07384489 -0.07308613 -0.07231659 -0.07152288 -0.07070411 -0.06983512 -0.06891636 -0.06794103 -0.06691509
 -0.0658673 -0.06480014 -0.06374052 -0.06267834 -0.06160561 -0.06051049 -0.05936999 -0.05818201 -0.05693668 -0.05563252
 -0.05427116 -0.05283245 -0.051312 -0.04967519 -0.04790728 -0.04599604 -0.04392914 -0.041745 -0.03944342 -0.0370902
 -0.03469066 -0.03229663 -0.02991072 -0.02755434 -0.0252248 -0.02290447 -0.02058245 -0.01819263 -0.0157241 -0.01309437
 -0.01032627 -0.00741531 -0.004423463 -0.001452734 0.001478434 0.004293076 0.007051436 0.009771805 0.01251188 0.01531659
 0.01817584 0.02110113 0.02405043 0.02701348 0.02997651 0.03293661 0.03588429 0.03881978 0.04171283 0.04456197
 0.04735879 0.05010368 0.05280448 0.0554533 0.05800991 0.06046528 0.06275722 0.06490562 0.0669185 0.06883281
 0.07072145 0.07257637 0.07443327 0.07622403 0.07790188 0.07944014 0.08079775 0.08202595 0.08313521 0.08416189
 0.08512341 0.08599893 0.0867887 0.0874645 0.08802262 0.08846316 0.088786 0.08899464 0.08908801 0.08905192
 0.08888651 0.08858263 0.08814684 0.08759633 0.08693893 0.08620083 0.08538709 0.08451512 0.08359298 0.08263294
 0.08164982 0.08065742 0.07966954 0.07869828 0.07774584 0.0768168 0.07590487 0.07500897 0.07412574 0.07325377
 0.07239729 0.07155668 0.07073397 0.06992931 0.06913562 0.06835239 0.06757044 0.06679024 0.06600976 0.0652301
 0.06445455 0.06368269 0.06291506 0.06215113 0.06138978 0.06063217 0.05987985 0.05913169 0.05838887 0.05764489
 0.05689634 0.05613948 0.05537003 0.05459605 0.05381704 0.05304918 0.05229416 0.05156925 0.05087597 0.05023066
 0.04963435 0.04909589 0.04861446 0.04818119 0.04779254 0.0474231 0.04706838 0.04669869 0.04631144 0.04588456
 0.04542026 0.04491167 0.04436383 0.04378017 0.04316394 0.0425175 0.04184724 0.04115534 0.04045348 0.03974855
 0.03903926 0.03833146 0.037595 0.03682806 0.03598948 0.03507319 0.03407374 0.03299007 0.0318638 0.03069639
 0.02951772 0.02832442 0.02710818 0.02586742 0.02459002 0.02328085 0.02194537 0.02058968 0.0192294 0.01786036
 0.01648897 0.01509402 0.01366156 0.01217157 0.01060152 0.008968893 0.00726984 0.005545499 0.003807553 0.002074126
 0.0003502258 -0.001358021 -0.003050989 -0.004705647 -0.006320724 -0.007870265 -0.009354107 -0.01076796 -0.01211319 -0.0133977
 -0.01462057 -0.0157819 -0.01688108 -0.0179133 -0.01888674 -0.01980923 -0.0206996 -0.02158217 -0.02247507 -0.02340418
 -0.02437054 -0.02538545 -0.02643205 -0.02750683 -0.02859412 -0.02968927 -0.03078271 -0.03187557 -0.03293719 -0.03396641
 -0.03491425 -0.03577706 -0.03654574 -0.03722235 -0.03784609 -0.0384197 -0.03898191 -0.03953011 -0.04007502 -0.04061129
 -0.0411301 -0.04162883 -0.0420992 -0.04253933 -0.04294582 -0.04331101 -0.04363015 -0.04388828 -0.04407689 -0.04418069
 -0.04419147 -0.044101 -0.04390461 -0.0436033 -0.04319587 -0.04268936 -0.04208452 -0.04138563 -0.04059315 -0.03970294
 -0.03871566 -0.03764005 -0.03648306 -0.03529771 -0.03409394 -0.03294426 -0.03184579 -0.03083023 -0.02988439 -0.02899745
 -0.02816225 -0.02736545 -0.02660323 -0.02587227 -0.02515603 -0.02444566 -0.02372247 -0.02297029 -0.02220595 -0.02142517
 -0.02067496 -0.01996573 -0.01931334 -0.01872378 -0.01816948 -0.01764917 -0.01713268 -0.01661922 -0.01609802 -0.01556974
 -0.01503512 -0.01449327 -0.013942 -0.01337712 -0.01278712 -0.01216621 -0.01149699 -0.01077966 -0.01000392 -0.009182153
 -0.008320753 -0.007433459 -0.006532381 -0.005618904 -0.004696461 -0.003763509 -0.002817555 -0.001871063 -0.0009242339 1.379314E-06
 0.0009030395 0.001767967 0.00259487 0.00338379 0.004134576 0.004845664 0.005515052 0.00612671 0.006677436 0.007144267
 0.007526602 0.007810722 0.007998218 0.008086519 0.008075252 0.00796346 0.00774905 0.007429219 0.007004402 0.006472741
 0.005839791 0.005105988 0.004281736 0.003368753 0.002380996 0.001320191 0.0002032549 -0.0009687649 -0.002172868 -0.003407937
 -0.004640608 -0.005869 -0.007057789 -0.008206394 -0.009294047 -0.01032224 -0.01128651 -0.01218834 -0.01302893 -0.01381064
 -0.01453593 -0.01521363 -0.01585311 -0.01647171 -0.01708614 -0.01771712 -0.01838185 -0.0190958 -0.01987121 -0.02071019
 -0.02161882 -0.02258092 -0.02359708 -0.02463631 -0.0256959 -0.02674354 -0.02777666 -0.02877348 -0.02973304 -0.03064235
 -0.03150064 -0.03229582 -0.03302674 -0.03368085 -0.03425903 -0.03475572 -0.03517647 -0.0355278 -0.03581946 -0.0360661
 -0.03627909 -0.03647357 -0.03665914 -0.0368461 -0.03704055 -0.03724736 -0.03747042 -0.03771186 -0.03797353 -0.03825694
 -0.03855787 -0.03887695 -0.03920132 -0.03953042 -0.03984592 -0.04014684 -0.04041591 -0.04065269 -0.04084595 -0.04099618
 -0.04109948 -0.04115717 -0.04117047 -0.04114185 -0.04107576 -0.04097678 -0.04085183 -0.04070807 -0.04055386 -0.04039737
 -0.04024581 -0.04010643 -0.03998346 -0.03988422 -0.03981091 -0.03977248 -0.03977067 -0.03981428 -0.0399049 -0.04004617
 -0.04023882 -0.0404786 -0.04076517 -0.04108843 -0.0414475 -0.04183036 -0.04223595 -0.04265292 -0.04308014 -0.04350821
 -0.04393636 -0.04435854 -0.04477449 -0.04518188 -0.04557916 -0.04596552 -0.04633492 -0.04668441 -0.04700478 -0.04729106
 -0.047537 -0.04773872 -0.04789699 -0.0480107 -0.04808509 -0.04812045 -0.04812321 -0.04809377 -0.0480396 -0.04796113
 -0.04786618 -0.04775496 -0.04763228 -0.04749812 -0.04735458 -0.04720204 -0.0470424 -0.04687698 -0.0467093 -0.04654076
 -0.04637487 -0.04621245 -0.0460557 -0.04590452 -0.04575995 -0.04562009 -0.045485 -0.04535056 -0.04521602 -0.04507579
 -0.04492863 -0.04477019 -0.04459937 -0.04441643 -0.04422098 -0.04401968 -0.04381293 -0.04361173 -0.04341669 -0.04323814
 -0.0430762 -0.04293687 -0.04281973 -0.0427266 -0.04265696 -0.0426105 -0.04258699 -0.04258628 -0.04260745 -0.04265021
 -0.04271158 -0.04278993 -0.04288111 -0.04298247 -0.0430922 -0.04320837 -0.04333401 -0.04346913 -0.04361852 -0.0437832
 -0.0439636 -0.0441602 -0.04436662 -0.0445825 -0.04479904 -0.04501604 -0.04522814 -0.0454357 -0.0456378 -0.04583478
 -0.04602744 -0.04621567 -0.04639958 -0.04657888 -0.04675329 -0.04692213 -0.04708469 -0.04723999 -0.04738673 -0.04752552
 -0.04765545 -0.04778061 -0.04790172 -0.04802411 -0.04814913 -0.04828009 -0.04841759 -0.04856392 -0.04871916 -0.04888788
 -0.04907032 -0.0492709 -0.04948916 -0.04972205 -0.04996742 -0.05021244 -0.05045375 -0.05067399 -0.05086952 -0.05102446
 -0.05113477 -0.0511879 -0.05117959 -0.05110076 -0.0509483 -0.05071721 -0.05040566 -0.05001203 -0.04953341 -0.0489693
 -0.04831387 -0.04756588 -0.04671989 -0.0457743 -0.04473048 -0.0435878 -0.04235716 -0.04103914 -0.03965186 -0.03819685
 -0.03669667 -0.03515433 -0.03359738 -0.03203086 -0.03048619 -0.02896832 -0.02750467 -0.02609641 -0.02475856 -0.02348723
 -0.02228465 -0.021144 -0.02006152 -0.01902948 -0.01804348 -0.01709631 -0.01618453 -0.01530359 -0.01445154 -0.01362748
 -0.01283113 -0.01206161 -0.01131917 -0.01059827 -0.009898614 -0.009210841 -0.008534214 -0.007857624 -0.007179435 -0.006485154
 -0.005771698 -0.005020606 -0.004229143 -0.003381002 -0.002476689 -0.00150865 -0.000481627 0.0006033077 0.001737539 0.002915546
 0.004125941 0.005362397 0.00661312 0.00787338 0.009131935 0.0103863 0.01162352 0.01284206 0.01402651 0.01517537
 0.01627566 0.01732654 0.01832113 0.01925924 0.02013737 0.02095527 0.02170922 0.02239947 0.02302379 0.02358526
 0.0240882 0.02454031 0.02495439 0.02534192 0.02572002 0.0261 0.02649578 0.0269159 0.02736764 0.02785918
 0.02839398 0.02898187 0.02962591 0.0303325 0.0311036 0.0319392 0.03283955 0.03380332 0.03483043 0.03592265
 0.03708002 0.03830382 0.03959328 0.04094483 0.04235588 0.04381708 0.04532126 0.04684993 0.04838758 0.04990418
 0.05137536 0.05276479 0.05404283 0.05517662 0.05613743 0.05690096 0.05744931 0.05776751 0.05785917 0.05771802
 0.05737354 0.05682593 0.05612524 0.05527461 0.05433485 0.05330957 0.0522595 0.0511873 0.05014104 0.04912117
 0.04815459 0.04724019 0.04638755 0.04559678 0.04487223 0.04421621 0.0436349 0.04312955 0.04270561 0.04235888
 0.04209036 0.04188719 0.04174625 0.04164355 0.04157357 0.04150026 0.0414169 0.04127917 0.0410803 0.04077763
 0.04036605 0.03981504 0.03912218 0.03827461 0.0372726 0.03612105 0.03482245 0.03339525 0.03184344 0.03019125
 0.02844448 0.0266279 0.02475147 0.02284086 0.02091216 0.01899343 0.01710148 0.01526168 0.01347815 0.0117655
 0.01010372 0.008493507 0.006895061 0.005299411 0.003669593 0.00199564 0.0002682589 -0.00151718 -0.003335572 -0.005186147
 -0.007024809 -0.00884923 -0.0106174 -0.01232835 -0.01395435 -0.01549694 -0.01694615 -0.01830696 -0.01958585 -0.02079108
 -0.02193914 -0.02304 -0.02411176 -0.02516422 -0.02621173 -0.02726094 -0.02832127 -0.02939021 -0.0304716 -0.03155051
 -0.03262559 -0.0336749 -0.03469459 -0.03566706 -0.03658932 -0.03745592 -0.03826605 -0.03902476 -0.03973245 -0.04039725
 -0.04101952 -0.04160555 -0.04215565 -0.04267447 -0.04316205 -0.04362135 -0.04405109 -0.04445092 -0.04481777 -0.04514705
 -0.04543798 -0.04568591 -0.04589879 -0.0460764 -0.04623901 -0.04639185 -0.04656281 -0.04676004 -0.04700617 -0.04730851
 -0.04766898 -0.04809114 -0.04854794 -0.04903857 -0.04951624 -0.04997857 -0.05038201 -0.05072659 -0.05099149 -0.05118102
 -0.05130098 -0.05135919 -0.05137876 -0.05136919 -0.05135856 -0.05135481 -0.05138092 -0.0514379 -0.05153687 -0.05166889
 -0.05183386 -0.05201543 -0.05220816 -0.05239404 -0.0525677 -0.05271316 -0.0528265 -0.05289777 -0.05292458 -0.05290832
 -0.05284858 -0.05275671 -0.0526333 -0.05248985 -0.05232644 -0.05214841 -0.05195583 -0.05175162 -0.05153664 -0.05131526
 -0.05108742 -0.05085567 -0.05061783 -0.05037155 -0.05011632 -0.04984878 -0.04957578 -0.04929877 -0.04903034 -0.04877709
 -0.04854478 -0.04833994 -0.04814774 -0.04796947 -0.04777207 -0.04755191 -0.04728113 -0.04695658 -0.04657916 -0.0461496
 -0.04569441 -0.04521544 -0.04474036 -0.04426889 -0.04381383 -0.04337478 -0.0429563 -0.04256019 -0.04219253 -0.04185379
 -0.04154865 -0.04127236 -0.0410228 -0.0407935 -0.04057943 -0.04037703 -0.04018429 -0.03999637 -0.03981304 -0.03962317
 -0.03942487 -0.03920777 -0.0389697 -0.03871005 -0.03842837 -0.03813068 -0.0378173 -0.03749446 -0.03716275 -0.03682983
 -0.03649668 -0.03617257 -0.03585714 -0.03555443 -0.03526302 -0.03498083 -0.03470958 -0.03444946 -0.03420623 -0.03398616
 -0.0337918 -0.03362853 -0.03349078 -0.03337832 -0.03328228 -0.03319992 -0.03312488 -0.03305581 -0.03298664 -0.03291709
 -0.03283705 -0.03274596 -0.03263121 -0.03249216 -0.03231899 -0.03211172 -0.03186643 -0.03158408 -0.03126648 -0.03091609
 -0.03054077 -0.03014405 -0.02973686 -0.02932199 -0.02890815 -0.02849633 -0.02809033 -0.02769104 -0.02730018 -0.02691811
 -0.02654632 -0.02618118 -0.02582247 -0.02546426 -0.02510477 -0.02474298 -0.02437837 -0.02401252 -0.02364584 -0.02327336
 -0.02289473 -0.02249908 -0.02208651 -0.0216533 -0.02120147 -0.02073881 -0.02026826 -0.01980259 -0.01934512 -0.01890873
 -0.01849616 -0.01811782 -0.01777234 -0.01746345 -0.01718489 -0.01693406 -0.0167037 -0.01649044 -0.01628668 -0.01609033
 -0.01589138 -0.01568756 -0.0154705 -0.01523823 -0.01498991 -0.01472518 -0.01444622 -0.01415308 -0.01384366 -0.01351764
 -0.01317045 -0.01280235 -0.0124121 -0.01200105 -0.01157236 -0.01112835 -0.010675 -0.01021542 -0.009756399 -0.009301297
 -0.008855459 -0.008423006 -0.008007546 -0.007614933 -0.007248403 -0.006913711 -0.006613492 -0.006351002 -0.006127662 -0.005943839
 -0.005800365 -0.005692407 -0.0056202 -0.005570325 -0.005542023 -0.005516997 -0.005494426 -0.0054591 -0.005411127 -0.005342791
 -0.005255376 -0.005148292 -0.00502444 -0.004889727 -0.004747047 -0.004603969 -0.004460638 -0.004320387 -0.0041815 -0.004043939
 -0.003905477 -0.003766089 -0.003619864 -0.003465522 -0.00329525 -0.003106013 -0.002898479 -0.00267095 -0.002436566 -0.002196145
 -0.001963515 -0.001739412 -0.001524727 -0.001318058 -0.001102905 -0.0008767925 -0.0006153093 -0.0003207993 1.502833E-05 0.0003807929
 0.0007541963 0.001126813 0.001469599 0.001795538 0.002103745 0.002420083 0.00276802 0.003151407 0.003585781 0.004040635
 0.004510047 0.004962644 0.005385338 0.005784511 0.006155077 0.006540596 0.006944356 0.007405338 0.00792585 0.008494605
 0.009107108 0.009701296 0.01027254 0.01075899 0.01116615 0.01147879 0.01170896 0.01187849 0.01199335 0.01207238
 0.01211893 0.01213733 0.01214936 0.01216563 0.01222767 0.01236219 0.01258921 0.01293277 0.01335135 0.01384733
 0.01433902 0.01481325 0.01521727 0.01554176 0.01579677 0.01598227 0.01613748 0.01626365 0.01638554 0.01650245
 0.01662168 0.01674387 0.01687499 0.01701715 0.01717921 0.01736059 0.01756702 0.01778951 0.01802334 0.01825059
 0.01845606 0.01862579 0.01874493 0.01881853 0.01883981 0.01883908 0.01881769 0.01882645 0.01887431 0.01899305
 0.01918964 0.01944421 0.01975622 0.02007858 0.0204088 0.02070178 0.02095816 0.02115776 0.02130612 0.02141379
 0.02148394 0.0215306 0.02155215 0.0215499 0.02152782 0.02148876 0.02144302 0.0214001 0.02136627 0.02134777
 0.02134668 0.02136488 0.02140418 0.0214665 0.02154651 0.02164461 0.02174894 0.02185852 0.02196323 0.02206255
 0.02214206 0.0222004 0.02221288 0.02217951 0.02208517 0.02193649 0.02174857 0.02153252 0.02132342 0.02112972
 0.02098307 0.0208837 0.02084771 0.02086196 0.02092437 0.02101198 0.02111048 0.02120708 0.02129052 0.02136846
 0.02143944 0.02151873 0.02160858 0.02172113 0.02185827 0.02202416 0.02221949 0.02242774 0.02264763 0.02285315
 0.02304674 0.02323171 0.02341441 0.02362547 0.02386101 0.02413039 0.02441783 0.02469782 0.02496313 0.02519052
 0.0253903 0.02556231 0.02572018 0.02587346 0.02602513 0.02618022 0.02633164 0.02647914 0.02661285 0.02673053
 0.02682856 0.02690516 0.02697182 0.02702883 0.02710216 0.02719307 0.02732615 0.0274993 0.02771249 0.02795643
 0.02819411 0.02841637 0.02857481 0.02867858 0.02871532 0.0287145 0.02870969 0.02871912 0.02877832 0.02886836
 0.02899267 0.02911506 0.02921964 0.02928967 0.0293135 0.0293045 0.02926026 0.02921465 0.02917058 0.02916069
 0.02918796 0.02925119 0.02934869 0.02944222 0.0295295 0.02957392 0.02957899 0.02953884 0.02946052 0.02935954
 0.02924204 0.02912724 0.02901622 0.02892092 0.02883198 0.02874595 0.02865223 0.02854009 0.02841504 0.02827604
 0.02813286 0.02799255 0.02783833 0.02767099 0.02745678 0.02719098 0.0268593 0.02645985 0.0260033 0.0254908
 0.02494635 0.02437345 0.02381004 0.02325947 0.02275917 0.02230445 0.0219029 0.02154549 0.02121606 0.02091497
 0.02063486 0.02038146 0.02016 0.01996673 0.01980242 0.01965768 0.01952882 0.0194088 0.01929479 0.01918259
 0.01906876 0.01896593 0.01887412 0.01881748 0.0187991 0.01878994 0.0187896</values></Ydata></AB><ScSm><Ydata ylabel="Single channel"><values byteorder="INTEL" format="FLOAT32" numvalues="1814"> 0.0854847 0.08560053 0.08573349 0.08588605 0.08604816 0.08620508 0.08634618 0.08647016 0.08658215 0.08668449
 0.08677772 0.08687377 0.08699484 0.08715113 0.08732571 0.08748615 0.08760893 0.0876995 0.08779263 0.08792013
 0.08806852 0.08817935 0.08820309 0.08815247 0.08809578 0.08809581 0.0881678 0.08831282 0.08855808 0.08889359
 0.08918035 0.08923802 0.08906887 0.08889437 0.08891059 0.08909242 0.08928089 0.08936189 0.08931097 0.08918034
 0.08912708 0.08936577 0.08997265 0.09072259 0.0911582 0.09085629 0.08971038 0.08808085 0.08670741 0.08632334
 0.08712779 0.08856454 0.08973841 0.09013811 0.08991374 0.08949323 0.08913386 0.08891717 0.08895062 0.08934999
 0.09005167 0.0907362 0.09095405 0.09042253 0.08934562 0.08837685 0.08808553 0.08851436 0.08938005 0.09041627
 0.09112164 0.09050365 0.087956 0.08459555 0.08291833 0.08449553 0.08832921 0.09188839 0.09341295 0.09285015
 0.09112851 0.08933655 0.08842869 0.08889893 0.09046176 0.09233528 0.0938601 0.09467386 0.09454691 0.09349023
 0.0919725 0.09072214 0.09032232 0.09104176 0.09272523 0.09462811 0.09571379 0.09547161 0.09430157 0.09299798
 0.09216111 0.09216893 0.09321696 0.09508592 0.09715708 0.09886646 0.09999806 0.1005648 0.1006746 0.100507
 0.1002227 0.09993806 0.09984716 0.1001241 0.1005808 0.1007037 0.1002251 0.09948742 0.09909712 0.09929934
 0.09976901 0.1000051 0.09982751 0.09928423 0.09814318 0.09600417 0.09311809 0.09051792 0.08901286 0.08862027
 0.08921647 0.09087858 0.09309475 0.094523 0.09433846 0.09334612 0.09311312 0.09427558 0.09613645 0.09768
 0.09855825 0.09915075 0.0999699 0.1010817 0.101959 0.1018737 0.1006424 0.09908777 0.09849168 0.09935585
 0.1009132 0.1020683 0.102547 0.1028631 0.1034123 0.1038992 0.103595 0.1021175 0.1000867 0.09890999
 0.09962138 0.1018578 0.1040497 0.1046106 0.1030646 0.1003023 0.0978351 0.0967109 0.09710132 0.09873092
 0.1012585 0.104124 0.1064564 0.1075113 0.1071856 0.105999 0.1045264 0.1028616 0.1008229 0.09878942
 0.09792431 0.09909016 0.1017442 0.1043685 0.1058709 0.1061943 0.1057075 0.1044717 0.1023259 0.09962808
 0.09759301 0.09739902 0.09884772 0.1004038 0.100824 0.1003214 0.09987646 0.0998975 0.09999402 0.09978813
 0.09947928 0.09955616 0.1001697 0.1009386 0.1013521 0.101241 0.1008162 0.1003686 0.09999453 0.09954338
 0.09885137 0.09810439 0.09782943 0.09834117 0.09931982 0.1001317 0.1004545 0.1004086 0.1001792 0.09970789
 0.09880181 0.09751744 0.09635277 0.09589806 0.09626144 0.09698416 0.09752978 0.09768585 0.09751349 0.09714496
 0.09669486 0.09622879 0.09577684 0.09541057 0.09523393 0.09524254 0.09528175 0.09519999 0.09497288 0.09464893
 0.09425081 0.09377477 0.09325206 0.09277117 0.09242245 0.09222351 0.09211712 0.09203391 0.0919213 0.09172669
 0.09141651 0.09102106 0.09061436 0.09024389 0.0899126 0.08962061 0.08938353 0.08920269 0.08904289 0.08885622
 0.08862188 0.08835264 0.08806615 0.08776683 0.08745819 0.08715677 0.08688669 0.08666446 0.08648416 0.08631845
 0.08614898 0.08598945 0.08585317 0.08570833 0.08550357 0.08523475 0.08495309 0.08470973 0.08451608 0.08435272
 0.08419289 0.0840131 0.08379488 0.08353361 0.08325739 0.08302483 0.08288245 0.08282829 0.08282738 0.08284376
 0.0828433 0.0827951 0.08269586 0.08257412 0.08245465 0.08233504 0.08220405 0.08206834 0.08195619 0.08189771
 0.08189519 0.08191413 0.08191203 0.08187093 0.08179832 0.08171643 0.08165689 0.08163716 0.08163092 0.08158971
 0.08150469 0.08142099 0.08138137 0.08137748 0.08136666 0.08132304 0.08126212 0.08121893 0.08120896 0.08121649
 0.08121863 0.08121204 0.08121227 0.08123074 0.08125421 0.08124994 0.08119856 0.08111909 0.08105046 0.08101191
 0.08099551 0.0809917 0.08100224 0.08102653 0.08105045 0.08105614 0.08103913 0.08101246 0.08099252 0.08098029
 0.08096109 0.08092432 0.08087667 0.0808332 0.08080092 0.08077475 0.08074576 0.08070961 0.08066715 0.08061875
 0.08056185 0.08049476 0.08041917 0.08033926 0.08026402 0.08020768 0.08017606 0.08015043 0.08009598 0.07999411
 0.07986172 0.07973474 0.07963564 0.0795587 0.07948419 0.07940149 0.0793169 0.0792433 0.07918784 0.07914858
 0.07911776 0.07908785 0.07905992 0.07904801 0.07906856 0.07912092 0.07918201 0.07922648 0.07925101 0.0792735
 0.07931075 0.07936436 0.07942864 0.07950315 0.07959457 0.07970934 0.07984555 0.07998943 0.0801242 0.0802464
 0.08037016 0.080513 0.08068214 0.08087431 0.08107927 0.08128102 0.08146686 0.08164185 0.08182626 0.08203435
 0.08226185 0.08249721 0.08273759 0.08298762 0.08324909 0.08351929 0.0837988 0.08409439 0.08441187 0.08474758
 0.08508894 0.08542436 0.08575414 0.08609179 0.08645272 0.08684015 0.08724202 0.08764221 0.08803437 0.08842511
 0.08882422 0.08923295 0.08964399 0.09005374 0.09047069 0.0909069 0.09136306 0.09182733 0.09228872 0.09274672
 0.09320711 0.09367259 0.09413989 0.0946054 0.09507245 0.09555008 0.09604047 0.09652974 0.09699796 0.09743959
 0.09786955 0.09830873 0.09876752 0.09924012 0.09970808 0.1001519 0.1005676 0.1009727 0.101387 0.1018108
 0.1022292 0.1026363 0.1030449 0.1034666 0.1038922 0.1042974 0.1046692 0.10502 0.1053718 0.1057303
 0.1060796 0.1064029 0.1067042 0.1070038 0.1073175 0.1076454 0.1079821 0.1083284 0.1086852 0.1090431
 0.1093876 0.1097148 0.1100336 0.1103513 0.1106651 0.1109677 0.111257 0.1115405 0.1118309 0.1121357
 0.1124499 0.1127649 0.113083 0.1134176 0.1137754 0.1141519 0.1145447 0.1149601 0.1153989 0.1158455
 0.1162844 0.1167224 0.117181 0.1176645 0.1181459 0.1185954 0.1190097 0.1194066 0.1197995 0.120194
 0.1206016 0.1210388 0.1215081 0.1219915 0.1224634 0.1229067 0.1233222 0.1237285 0.124145 0.1245687
 0.1249734 0.1253356 0.1256577 0.1259621 0.1262704 0.1265875 0.1268995 0.1271851 0.1274307 0.1276323
 0.1277828 0.1278681 0.1278826 0.1278403 0.1277578 0.1276304 0.1274344 0.1271508 0.1267756 0.1263066
 0.1257331 0.1250465 0.1242642 0.1234416 0.1226643 0.1220265 0.1216062 0.1214477 0.121557 0.1219025
 0.1224163 0.1229986 0.1235347 0.1239187 0.1240731 0.123958 0.1235747 0.1229602 0.1221743 0.1212839
 0.1203527 0.1194331 0.118563 0.1177803 0.1171508 0.1167822 0.1168037 0.1173251 0.1184041 0.120024
 0.1220747 0.1243569 0.126634 0.1287166 0.1305197 0.1320555 0.1333841 0.1345711 0.1356686 0.1367088
 0.1377035 0.1386521 0.1395503 0.1403941 0.1411764 0.1418851 0.1425039 0.1430162 0.1434128 0.1437017
 0.1439103 0.1440784 0.1442487 0.1444556 0.1447061 0.1449632 0.1451515 0.1451915 0.1450378 0.1446992
 0.1442405 0.1437872 0.1435364 0.1437408 0.1446257 0.1462604 0.1484823 0.1509589 0.1533487 0.1554335
 0.1571463 0.158524 0.1596489 0.1606052 0.1614538 0.16223 0.1629552 0.1636465 0.1643158 0.164968
 0.165603 0.1662219 0.1668293 0.167432 0.1680321 0.1686255 0.1692071 0.1697795 0.1703519 0.1709317
 0.1715168 0.172098 0.1726686 0.1732311 0.1737917 0.1743499 0.174899 0.1754348 0.17596 0.1764806
 0.177001 0.1775229 0.1780445 0.1785593 0.1790604 0.1795449 0.1800141 0.1804704 0.1809172 0.1813602
 0.1818042 0.1822503 0.1826959 0.1831385 0.1835776 0.1840127 0.1844397 0.1848536 0.1852536 0.1856457
 0.1860385 0.186438 0.1868448 0.1872562 0.1876701 0.1880889 0.1885169 0.188953 0.1893884 0.1898132
 0.1902255 0.190632 0.191042 0.1914599 0.1918827 0.1923046 0.1927221 0.193136 0.1935489 0.1939638
 0.1943834 0.1948087 0.1952356 0.1956574 0.1960706 0.1964766 0.1968792 0.1972821 0.1976869 0.1980929
 0.1985008 0.1989118 0.1993236 0.1997297 0.2001259 0.2005161 0.2009076 0.2013035 0.2017023 0.202102
 0.2025015 0.2028998 0.2032961 0.2036918 0.2040905 0.2044943 0.2049016 0.2053093 0.2057171 0.2061262
 0.206537 0.2069498 0.2073652 0.2077824 0.2081986 0.2086121 0.2090234 0.2094322 0.2098376 0.2102412
 0.2106459 0.2110527 0.2114595 0.2118644 0.2122664 0.2126664 0.2130667 0.2134697 0.2138761 0.2142845
 0.2146915 0.2150925 0.2154865 0.2158771 0.2162685 0.2166621 0.2170596 0.2174636 0.2178734 0.2182842
 0.2186918 0.2190943 0.2194935 0.219894 0.2202992 0.2207068 0.2211124 0.2215153 0.2219176 0.2223195
 0.2227184 0.223111 0.2234964 0.2238779 0.2242611 0.2246487 0.2250395 0.2254317 0.2258232 0.2262124
 0.2266019 0.2269969 0.2273964 0.2277929 0.2281823 0.2285669 0.2289507 0.2293379 0.2297324 0.2301349
 0.2305419 0.2309497 0.2313549 0.2317541 0.2321478 0.2325403 0.2329335 0.2333263 0.2337179 0.234107
 0.2344911 0.2348712 0.2352534 0.2356429 0.2360416 0.2364512 0.2368683 0.2372848 0.2376969 0.2381077
 0.2385189 0.2389295 0.2393405 0.2397527 0.2401643 0.2405765 0.2409943 0.241416 0.2418359 0.2422538
 0.2426726 0.2430919 0.2435118 0.243935 0.2443605 0.2447847 0.2452084 0.2456331 0.246057 0.2464812
 0.2469076 0.2473332 0.2477553 0.2481788 0.2486072 0.249036 0.2494628 0.2498901 0.2503171 0.250743
 0.2511718 0.2516023 0.2520255 0.2524406 0.2528565 0.2532762 0.2536978 0.2541233 0.2545515 0.2549756
 0.2553953 0.2558157 0.2562338 0.2566449 0.2570525 0.2574576 0.2578559 0.2582521 0.258653 0.2590467
 0.2594026 0.2596599 0.2596616 0.2590756 0.2573465 0.2537014 0.2472977 0.2375523 0.2244849 0.2088286
 0.1918345 0.1748819 0.1590967 0.1451904 0.1335452 0.1243604 0.117753 0.113853 0.112881 0.1152511
 0.1217064 0.1328799 0.1476839 0.1619143 0.1698162 0.1684334 0.1602837 0.1510766 0.1450654 0.1429508
 0.143308 0.14472 0.1466236 0.1491526 0.1526476 0.1571528 0.1623656 0.1681273 0.1747121 0.1824046
 0.1909469 0.1996278 0.2078786 0.2156405 0.2231585 0.2305421 0.2375946 0.244003 0.249582 0.2543356
 0.2583879 0.2619046 0.2650315 0.2678668 0.2704792 0.2729095 0.2751204 0.2769756 0.2783207 0.2791063
 0.2794457 0.2795623 0.2796664 0.279865 0.280172 0.2805737 0.2810596 0.281617 0.2822335 0.2829013
 0.2836066 0.2843281 0.2850498 0.2857614 0.2864519 0.2871147 0.2877493 0.2883525 0.2889198 0.2894577
 0.2899776 0.2904847 0.2909822 0.2914754 0.2919649 0.2924477 0.2929252 0.2933969 0.2938519 0.294279
 0.294678 0.2950562 0.2954215 0.2957826 0.2961448 0.2965063 0.2968644 0.2972202 0.2975733 0.2979226
 0.2982707 0.2986202 0.2989681 0.2993127 0.2996567 0.3000008 0.3003424 0.3006825 0.3010238 0.3013644
 0.301702 0.3020384 0.3023747 0.302708 0.303036 0.3033614 0.3036934 0.3040445 0.3044184 0.3048027
 0.3051809 0.3055505 0.3059202 0.3062961 0.3066787 0.3070667 0.3074548 0.3078373 0.3082146 0.3085889
 0.3089534 0.3092966 0.309616 0.3099219 0.3102304 0.3105534 0.3108906 0.311232 0.3115703 0.3119066
 0.3122452 0.3125875 0.3129334 0.3132794 0.3136222 0.3139686 0.3143348 0.3147273 0.3151347 0.3155435
 0.3159496 0.316353 0.3167531 0.3171532 0.3175568 0.3179596 0.3183523 0.3187357 0.319128 0.3195533
 0.3200161 0.3204919 0.3209507 0.3213871 0.3218167 0.3222548 0.3227077 0.3231683 0.3236049 0.3239807
 0.3243059 0.3246517 0.3250871 0.3256125 0.3261687 0.3266974 0.3271814 0.3276362 0.32808 0.3285137
 0.3289241 0.3293003 0.3296539 0.3300292 0.3304766 0.3310001 0.3315439 0.3320504 0.3325098 0.332943
 0.3333671 0.3337893 0.3341941 0.334528 0.3347513 0.3349308 0.335227 0.3357443 0.3364171 0.3370801
 0.3376317 0.3380956 0.338536 0.3389737 0.3393967 0.3397736 0.3400115 0.3400047 0.3398243 0.339785
 0.3401886 0.3410194 0.3419797 0.3427925 0.3433869 0.343838 0.3442366 0.3446244 0.3449701 0.3451819
 0.3452045 0.3451491 0.3452719 0.3457429 0.3464553 0.3471415 0.3476551 0.3480516 0.3484378 0.3488495
 0.3492353 0.3494338 0.3492431 0.348696 0.3482457 0.3484721 0.3495187 0.3509264 0.3520912 0.3528018
 0.3532416 0.3535662 0.3536781 0.3534133 0.3527467 0.3518019 0.3509053 0.3506335 0.3514358 0.3530567
 0.3546413 0.3555908 0.3560761 0.3566049 0.3573623 0.3581341 0.3586566 0.3588543 0.358796 0.3585421
 0.3581135 0.3576654 0.3575904 0.3582419 0.3595212 0.3609008 0.3619199 0.3625469 0.3629666 0.3630433
 0.3621808 0.3600266 0.3573976 0.3560786 0.3572387 0.3602012 0.3631777 0.3650378 0.3659303 0.366448
 0.3668543 0.3670078 0.366349 0.364087 0.3602759 0.3567517 0.3560185 0.3587824 0.3631596 0.3665003
 0.3674123 0.3660477 0.3634296 0.3609799 0.3600147 0.3610288 0.3634831 0.3663533 0.3687475 0.3701507
 0.3704554 0.3699065 0.3689981 0.3683419 0.368286 0.3683926 0.367708 0.3660002 0.364206 0.362988
 0.3615167 0.3588262 0.3559649 0.3553426 0.357748 0.3612111 0.3632887 0.3635622 0.3631981 0.3625956
 0.3604279 0.3553987 0.3486519 0.3437303 0.3435398 0.3474485 0.3519104 0.3539433 0.3534829 0.3523743
 0.3517789 0.3509498 0.3483552 0.3438453 0.3394889 0.3377225 0.3386293 0.3398306 0.3391264 0.3360578
 0.3307643 0.3233974 0.3158923 0.3123564 0.3154396 0.3230179 0.3300668 0.3330066 0.3308349 0.3236175
 0.3127953 0.3026865 0.2985575 0.3017749 0.3082052 0.3122042 0.3110704 0.3051831 0.2956885 0.2839447
 0.2726513 0.2655318 0.2649432 0.2699719 0.2766953 0.2799611 0.276015 0.265443 0.2538153 0.2475073
 0.2477869 0.2500401 0.2492337 0.2446538 0.2388759 0.2342118 0.2313993 0.2301246 0.2294307 0.2284352
 0.2270091 0.2246316 0.2191511 0.2091873 0.1978325 0.1910496 0.1915121 0.1964231 0.2020348 0.2074102
 0.2124215 0.2150813 0.213672 0.2102162 0.2092112 0.2128373 0.2188694 0.2234885 0.2251264 0.225107
 0.2251464 0.225245 0.2245679 0.2237489 0.2249216 0.2290742 0.2345108 0.2386937 0.2407983 0.2417227
 0.2423826 0.2429398 0.2432703 0.2433403 0.2431832 0.2429279 0.2427739 0.2427607 0.242732 0.2425963
 0.2422673 0.2411303 0.2381083 0.2330804 0.2280744 0.2258895 0.2271944 0.2301218 0.2329693 0.2354306
 0.2363275 0.2326918 0.2236351 0.2138141 0.2102478 0.2155625 0.2258982 0.2352298 0.2401112 0.2401227
 0.2358688 0.2287259 0.2223874 0.2222353 0.2312079 0.2467592 0.2631574 0.2763285 0.2854171 0.290614
 0.2916638 0.2890384 0.2852524 0.2838883 0.2871732 0.2945395 0.3030753 0.3088354 0.3085437 0.3023183
 0.2955509 0.2956251 0.304514 0.3161045 0.3229451 0.3240849 0.3239563 0.3253797 0.3271454 0.3279153
 0.3289607 0.3319607 0.336166 0.3389936 0.3383281 0.3334109 0.3247992 0.3149396 0.3077942 0.3057851
 0.3072258 0.308338 0.3071744 0.3037094 0.2974664 0.288509 0.2804057 0.2783394 0.2832217 0.2903314
 0.2947004 0.2957401 0.2957382 0.295696 0.2941378 0.2895759 0.2831228 0.2780112 0.2764246 0.2774426
 0.2785814 0.278507 0.2772676 0.2747377 0.2705875 0.2658981 0.2633136 0.2647157 0.2692351 0.2741174
 0.2772686 0.2785463 0.2789562 0.2793636 0.2800238 0.2807406 0.2812978 0.2820671 0.2840417 0.2877249
 0.2921503 0.2957133 0.2979772 0.3000169 0.3029013 0.3064132 0.309455 0.3113316 0.3124137 0.3137317
 0.3160583 0.319252 0.3223424 0.3243318 0.3251163 0.3256556 0.3270813 0.3296027 0.3324248 0.3346844
 0.3362023 0.3373414 0.33848 0.3397216 0.3408559 0.341535 0.3417179 0.3419531 0.3429508 0.3448068
 0.3468517 0.3483115 0.3489436 0.348996 0.3487617 0.3483302 0.3477032 0.3469952 0.3464467 0.3462597
 0.346463 0.3469394 0.3475437 0.3481792 0.3488079 0.3494426 0.3501228 0.3508677 0.3516485 0.3524088
 0.3530918 0.3536381 0.3539975 0.3541712 0.3542165 0.3541833 0.3540566 0.3537744 0.3532797 0.3525344
 0.3515062 0.3501663 0.3484969 0.3464714 0.3440523 0.341294 0.3385293 0.3364207 0.3356871 0.3366471
 0.3389715 0.3418778 0.3445839 0.3466502 0.3480215 0.3488583 0.3493546 0.3496491 0.3498189 0.349901
 0.3499172 0.3498896 0.3498396 0.3497786 0.3497125 0.349653 0.3496159 0.3496047 0.3496017 0.3495709
 0.3494672 0.3492552 0.34893 0.3485169 0.3480479 0.347534 0.3469598 0.3463061 0.3455784 0.3448106
 0.3440386 0.3432669 0.3424522 0.3415121 0.3403566 0.3389144 0.3371206 0.3348991 0.3322217 0.3292089
 0.3261101 0.3231175 0.3202196 0.3172731 0.3141892 0.3110131 0.3078532 0.3047928 0.3018657 0.2990702
 0.2963823 0.2937666 0.291185 0.2886022 0.2859914 0.2833388 0.2806374 0.2778761 0.2750381 0.2721019
 0.2690288 0.2657393 0.2621124 0.2580203 0.2533691 0.2481173 0.2422838 0.2359657 0.2293484 0.2226747
 0.2161827 0.2100614 0.2044479 0.1994473 0.1951434 0.1915936 0.1888214 0.186821 0.1855714 0.185046
 0.1852122 0.1860234 0.1874051 0.1892397 0.1913686 0.1936113 0.1957853 0.197733 0.1993741 0.200757
 0.202041 0.2034044 0.2049565 0.2067218 0.2086748 0.2107649 0.2129157 0.2150243 0.2169857 0.2187316
 0.2202488 0.2215597 0.2226826 0.2236123 0.2243313 0.2248375 0.2251657 0.2253937 0.2256311 0.2259974
 0.2265953 0.2274927 0.2287228 0.2302953 0.2322017 0.2344107 0.2368642 0.2394792 0.2421563 0.2448056
 0.2473905 0.2499597 0.2526317 0.255532 0.2587262 0.2621893 0.2658241 0.2695005 0.2730842 0.2764527
 0.2795119 0.2822151 0.2845693 0.2866182 0.2884094 0.2899624 0.2912621 0.2922834 0.2930183 0.2934827
 0.2937078 0.2937342 0.2936044 0.2933483 0.2929688 0.292446 0.2917632 0.290938 0.2900332 0.2891396
 0.2883478 0.2877203 0.2872607 0.2868989 0.2865204 0.2860285 0.2853884 0.2846277 0.2838144 0.2830282
 0.282326 0.2817148 0.2811447 0.2805235 0.2797469 0.2787339 0.2774469 0.275889 0.274089 0.2720857
 0.2699143 0.2676018 0.2651697 0.262632 0.2599927 0.2572536 0.2544259 0.2515306 0.2485981 0.2456687
 0.2427827 0.2399706 0.2372621 0.2346921 0.2322829 0.2300301 0.2279205 0.2259482 0.2241047 0.2223722
 0.2207346 0.219181 0.2176987 0.2162766 0.2149147 0.2136217 0.2124107 0.2112987 0.2103046 0.2094375
 0.2086897 0.2080436 0.2074989 0.207095 0.2068807 0.2068481 0.2069103 0.2069537 0.2069016 0.2067368
 0.2064904 0.2062105 0.2059253 0.2056365 0.2053352 0.2049899 0.2045214 0.2038211 0.2027959 0.2013849
 0.199559 0.1973393 0.1948127 0.1921177 0.1894214 0.1868905 0.184653 0.1827765 0.1812731 0.180103
 0.1791849 0.1784454 0.1778725 0.1775158 0.1774304 0.1775964 0.177865 0.178021 0.1779623 0.1778107
 0.1778087 0.1781135 0.1787017 0.1794254 0.1801254 0.1807083 0.1811486 0.1814475 0.181623 0.1817199
 0.1817808 0.1818009 0.1817415 0.1815697 0.1812675 0.180833 0.180287 0.1796521 0.178928 0.1781082
 0.1771946 0.1761805 0.1750514 0.173802 0.1724142 0.1708576 0.1691881 0.1676248 0.166468 0.1659342
 0.1660518 0.166663 0.1675248 0.1684478 0.169327 0.1700641 0.1705782 0.1709522 0.1714796 0.1724738
 0.1740151 0.1758797 0.1777005 0.1791859 0.1801925 0.1806718 0.1806507 0.1802146 0.1793783 0.1780211
 0.1760747 0.1737001 0.1711793 0.1687321 0.1664909 0.1645166 0.162805 0.1613543 0.1601731 0.1592575
 0.1586616 0.1581318 0.1561997 0.150688 0.1418098 0.1341854 0.1333478 0.1397537 0.1481239 0.1531268
 0.1539174 0.1527888 0.1515994 0.1507231 0.1500723 0.1497013 0.14965 0.1498186 0.1500007 0.149972
 0.149638 0.149025 0.1480301 0.1462001 0.1427287 0.1367361 0.1279055 0.1171057 0.1062257 0.09716726
 0.09089816 0.08724675 0.08530319 0.08405668 0.08297828 0.08220442 0.08220145 0.08328936 0.08546124 0.08850616
 0.09215569 0.09608826 0.09989433 0.1031835 0.1057766 0.1077254 0.1091304 0.1100265 0.1104425 0.110454
 0.1101404 0.109557 0.1087523 0.1077607 0.1065879 0.1052423 0.1037931 0.1024006 0.1012705 0.1005282
 0.1001318 0.09994429 0.09986386 0.09984972 0.09987709 0.09993661 0.1000451 0.1002198 0.1004683 0.1007984
 0.1011926 0.101589 0.1019243 0.1021752 0.1023431 0.1024297 0.10243 0.1023363 0.1021763 0.1020295
 0.1019124 0.1016516 0.1010056 0.09996434 0.09885089 0.09809847 0.09795139 0.09833387 0.0989337 0.09942748
 0.09967846 0.09974578 0.09974228 0.09971116</values></Ydata></ScSm><ScRf><Ydata ylabel="Single channel"><values byteorder="INTEL" format="FLOAT32" numvalues="1820"> 0.06977153 0.06989785 0.07001007 0.07011272 0.07021132 0.0703139 0.0704297 0.07056104 0.07069947 0.07083157
 0.07094833 0.07105038 0.07114276 0.07122628 0.071301 0.0713786 0.07147884 0.07160842 0.07175088 0.07187967
 0.07197808 0.07205266 0.07213232 0.07224271 0.07237132 0.07246685 0.07248603 0.07244004 0.07238746 0.07238039
 0.07243142 0.07254532 0.07275026 0.07303733 0.07328404 0.0733357 0.07319696 0.07305656 0.07307754 0.07323545
 0.0733956 0.07346344 0.07342079 0.0733128 0.07326826 0.07346021 0.0739492 0.07455318 0.0749019 0.07465081
 0.07371162 0.07237811 0.07125592 0.07094637 0.07161313 0.07279989 0.07377057 0.0741027 0.07391761 0.07356727
 0.07326626 0.07308588 0.07311726 0.07345507 0.07404371 0.0746161 0.07479921 0.07436062 0.07347219 0.07267587
 0.07244061 0.0727991 0.07351695 0.07437461 0.07495718 0.07444529 0.07234317 0.06957898 0.06821224 0.06953001
 0.07269872 0.07562913 0.07687755 0.07640909 0.07499142 0.07351877 0.07277472 0.07316586 0.07445829 0.0760095
 0.07727675 0.07795887 0.07786231 0.07699419 0.07574303 0.07471347 0.07438924 0.07499142 0.07638846 0.07796319
 0.07886195 0.07866688 0.07770757 0.07663502 0.07594321 0.07594909 0.0768192 0.07837154 0.08009054 0.08150826
 0.08244737 0.08291942 0.08301204 0.08287227 0.08263452 0.08239949 0.08233022 0.08256815 0.08295318 0.08306016
 0.08267209 0.08207466 0.08176668 0.08194623 0.08234234 0.08254221 0.08239985 0.08195595 0.08101661 0.07925074
 0.07687103 0.07473615 0.07351047 0.07319912 0.07369847 0.07507935 0.07692304 0.07811779 0.07797933 0.07717392
 0.07699692 0.07797162 0.07952058 0.08080645 0.08154543 0.08205283 0.08274974 0.08368614 0.08442397 0.08436242
 0.08335253 0.08207853 0.08160546 0.08235042 0.08367501 0.08466665 0.08509554 0.08538771 0.08587041 0.08629592
 0.08605929 0.0848503 0.08319567 0.08227021 0.08292653 0.08485034 0.08672833 0.08724061 0.08599739 0.08374797
 0.08175478 0.08088789 0.08128954 0.08273786 0.08495586 0.08747111 0.08954103 0.09053108 0.09035385 0.08945157
 0.08831405 0.08702269 0.08542514 0.0838448 0.08326726 0.08441906 0.08683471 0.08922617 0.09066924 0.09111592
 0.09087428 0.08998556 0.0883057 0.08615114 0.08458622 0.08463307 0.08610491 0.08765697 0.08821553 0.08798173
 0.0878154 0.088064 0.08837584 0.08842012 0.08838131 0.08869497 0.08948813 0.0904144 0.09102066 0.09116403
 0.09103929 0.09090773 0.09085066 0.09072278 0.09037176 0.08997276 0.09001341 0.09077943 0.09197124 0.09300561
 0.0935916 0.09384686 0.09394231 0.09381369 0.09327133 0.09236972 0.09158655 0.09148231 0.09215436 0.09316383
 0.09400329 0.09447467 0.0946368 0.09461251 0.0945072 0.09438322 0.09427334 0.09425068 0.09441552 0.09475979
 0.09512936 0.0953764 0.09548017 0.0954896 0.09542409 0.09527733 0.0950823 0.09493087 0.09491516 0.09505242
 0.09528244 0.09553013 0.09573966 0.09586087 0.09586386 0.09577937 0.09568041 0.0956142 0.0955839 0.09559108
 0.09565477 0.09577799 0.09592381 0.09604204 0.09611007 0.096137 0.0961367 0.09611402 0.09607717 0.0960482
 0.09605494 0.09611253 0.09620811 0.0963089 0.09639983 0.09650248 0.09663229 0.09675132 0.0968007 0.09677515
 0.09673247 0.0967318 0.09678701 0.09687474 0.09696117 0.09701449 0.09700972 0.09694539 0.09686486 0.09684223
 0.09692738 0.09711184 0.09735394 0.09761186 0.09784245 0.09800704 0.09810477 0.09817623 0.09825508 0.0983362
 0.09840094 0.09845556 0.09853451 0.09867004 0.09885879 0.09906104 0.09923577 0.09936827 0.09946561 0.09954926
 0.09965468 0.0998026 0.09996049 0.1000676 0.1001123 0.1001517 0.1002399 0.1003643 0.1004692 0.1005251
 0.1005566 0.1006085 0.1006983 0.1008068 0.1009074 0.1009973 0.1010978 0.1012243 0.101355 0.1014369
 0.1014374 0.1013839 0.1013379 0.1013332 0.10136 0.1014032 0.1014668 0.1015526 0.1016373 0.1016867
 0.1016914 0.101678 0.1016795 0.1016985 0.1017064 0.1016794 0.1016229 0.1015624 0.1015202 0.1015023
 0.1014979 0.1014877 0.1014566 0.1014026 0.1013344 0.1012615 0.1011878 0.1011163 0.1010614 0.1010478
 0.1010789 0.1011081 0.1010634 0.1009142 0.100705 0.1005146 0.1003875 0.1003075 0.1002266 0.1001101
 0.09995908 0.09979867 0.09965236 0.09952636 0.09941334 0.09930532 0.09920518 0.09912933 0.09909165 0.0990773
 0.09904191 0.09895155 0.09881909 0.09868872 0.0985904 0.09852244 0.09847019 0.09842458 0.09838618 0.09836351
 0.09836367 0.09837736 0.09838197 0.09836691 0.09834717 0.09834923 0.0983932 0.098485 0.0986063 0.09871342
 0.09876908 0.09878256 0.09880218 0.09886434 0.09896466 0.09907962 0.09919773 0.09932241 0.09945835 0.09960665
 0.09976938 0.09995131 0.100156 0.1003802 0.1006119 0.1008362 0.1010475 0.1012566 0.1014826 0.1017366
 0.1020128 0.1022952 0.1025708 0.1028383 0.1031054 0.1033777 0.1036533 0.1039311 0.1042188 0.1045251
 0.1048468 0.1051703 0.1054871 0.1058001 0.1061157 0.1064353 0.1067573 0.1070854 0.1074311 0.1078034
 0.1081902 0.1085563 0.1088725 0.1091453 0.1094115 0.1097045 0.110032 0.1103782 0.1107146 0.1110162
 0.1112827 0.1115429 0.111826 0.112131 0.1124375 0.1127421 0.1130684 0.1134325 0.1138098 0.1141467
 0.1144099 0.1146195 0.1148275 0.1150652 0.1153186 0.1155571 0.1157749 0.1159918 0.1162216 0.1164584
 0.1166958 0.1169448 0.1172163 0.1174984 0.1177632 0.1179959 0.1182041 0.1183996 0.1185813 0.1187363
 0.1188545 0.1189437 0.1190329 0.1191503 0.1192967 0.1194487 0.1195903 0.1197305 0.1198866 0.1200638
 0.1202607 0.120481 0.1207256 0.1209807 0.1212301 0.1214818 0.1217608 0.1220672 0.1223595 0.1225966
 0.1227846 0.1229628 0.1231548 0.1233589 0.1235781 0.1238286 0.1241165 0.1244239 0.124725 0.1250069
 0.1252778 0.1255594 0.1258648 0.1261771 0.126457 0.1266804 0.1268618 0.1270404 0.1272497 0.1274993
 0.1277774 0.1280618 0.128333 0.1285778 0.1287829 0.1289352 0.1290371 0.1291109 0.1291739 0.1292107
 0.1291807 0.1290525 0.1288195 0.1284823 0.1280314 0.1274587 0.1267847 0.1260725 0.125414 0.1249034
 0.1246122 0.1245759 0.124792 0.1252234 0.1258019 0.1264378 0.1270362 0.12751 0.1277847 0.1278073
 0.1275637 0.1270876 0.1264423 0.1256925 0.1248896 0.1240719 0.1232702 0.1225249 0.121913 0.121555
 0.1215816 0.1220839 0.1230786 0.1244931 0.1261656 0.1278837 0.1294641 0.1308213 0.1319684 0.1329597
 0.133843 0.1346519 0.1354136 0.1361462 0.1368508 0.1375188 0.1381449 0.1387295 0.1392704 0.1397585
 0.1401792 0.1405165 0.1407622 0.1409243 0.1410232 0.1410776 0.1410996 0.1411011 0.1410906 0.1410541
 0.1409484 0.1407246 0.1403595 0.139873 0.1393341 0.1388651 0.138632 0.138803 0.1394756 0.1406158
 0.1420619 0.1436003 0.145052 0.1463101 0.1473329 0.1481314 0.1487578 0.1492773 0.1497382 0.1501628
 0.1505589 0.1509309 0.151284 0.1516246 0.1519587 0.1522899 0.1526227 0.152963 0.1533105 0.1536555
 0.1539884 0.1543128 0.1546439 0.154992 0.1553507 0.1557033 0.1560415 0.1563743 0.1567129 0.1570542
 0.1573836 0.1576949 0.1579979 0.1583086 0.1586381 0.1589872 0.1593437 0.159687 0.160003 0.1602949
 0.1605758 0.1608542 0.1611305 0.1614043 0.1616785 0.1619557 0.1622361 0.1625187 0.1628047 0.1630948
 0.1633834 0.1636598 0.163918 0.1641635 0.1644088 0.164661 0.1649173 0.1651707 0.1654192 0.1656685
 0.1659267 0.1661955 0.1664667 0.1667281 0.1669741 0.167209 0.1674433 0.167685 0.1679358 0.1681923
 0.16845 0.1687058 0.1689577 0.1692064 0.1694553 0.1697067 0.1699599 0.1702119 0.1704613 0.1707084
 0.1709539 0.1711987 0.1714438 0.1716909 0.1719416 0.1721961 0.1724505 0.1726984 0.1729369 0.1731679
 0.173395 0.1736209 0.1738471 0.1740745 0.1743039 0.1745362 0.1747735 0.1750169 0.1752653 0.1755164
 0.175767 0.176014 0.1762556 0.1764933 0.1767314 0.1769741 0.1772207 0.1774649 0.1777001 0.1779276
 0.1781558 0.1783915 0.178634 0.1788769 0.1791151 0.1793486 0.1795799 0.1798101 0.1800387 0.1802668
 0.1804969 0.1807293 0.1809628 0.181198 0.1814353 0.181673 0.1819096 0.1821468 0.1823858 0.182624
 0.1828585 0.1830892 0.1833185 0.1835491 0.1837833 0.1840211 0.1842609 0.1845012 0.1847409 0.1849781
 0.1852118 0.1854434 0.1856748 0.1859072 0.1861423 0.1863818 0.1866255 0.1868715 0.1871166 0.1873571
 0.1875926 0.1878286 0.1880691 0.1883118 0.188554 0.188798 0.1890458 0.1892958 0.189546 0.1897977
 0.1900534 0.1903153 0.1905818 0.1908465 0.1911042 0.1913566 0.1916078 0.1918565 0.1920989 0.1923332
 0.1925604 0.1927824 0.1930033 0.1932244 0.1934437 0.1936615 0.1938835 0.1941134 0.1943502 0.1945919
 0.1948363 0.1950803 0.1953237 0.1955694 0.1958162 0.1960611 0.1963069 0.1965591 0.1968175 0.1970783
 0.1973377 0.1975928 0.1978442 0.1980968 0.198355 0.1986188 0.1988882 0.1991614 0.1994301 0.1996885
 0.1999424 0.2002001 0.2004617 0.2007224 0.2009802 0.2012351 0.2014915 0.2017579 0.202036 0.2023174
 0.2025954 0.2028695 0.2031387 0.2034029 0.2036679 0.2039368 0.2042048 0.2044706 0.2047389 0.2050103
 0.205282 0.2055552 0.2058309 0.2061062 0.2063816 0.2066584 0.2069307 0.2071953 0.20746 0.2077304
 0.2080006 0.2082663 0.2085268 0.208773 0.2089875 0.2091271 0.2090651 0.20853 0.2070703 0.204063
 0.1988302 0.1909066 0.1803169 0.1676615 0.1539512 0.1402898 0.127573 0.1163676 0.1069819 0.09957983
 0.09425701 0.09111398 0.0903219 0.09221133 0.09738026 0.1063331 0.1181831 0.129544 0.1358044 0.134619
 0.1280335 0.1206312 0.1158065 0.1141039 0.1143763 0.1154905 0.1169963 0.1189989 0.121769 0.1253432
 0.1294827 0.1340629 0.139302 0.1454243 0.1522223 0.1591283 0.1656885 0.171856 0.1778272 0.1836901
 0.1892871 0.1943676 0.1987822 0.2025312 0.2057116 0.2084593 0.2108996 0.2131172 0.2151653 0.2170696
 0.2187953 0.2202333 0.2212614 0.2218403 0.2220611 0.2221054 0.2221451 0.2222657 0.2224749 0.2227567
 0.2231002 0.223497 0.2239429 0.2244353 0.224961 0.2254991 0.2260368 0.2265687 0.2270859 0.2275797
 0.2280474 0.2284883 0.2289038 0.2293017 0.2296896 0.2300678 0.2304367 0.2308017 0.2311651 0.2315233
 0.2318736 0.2322131 0.2325356 0.232837 0.2331204 0.2333911 0.2336538 0.2339139 0.2341735 0.2344296
 0.2346812 0.2349322 0.2351836 0.2354333 0.23568 0.2359228 0.2361602 0.2363956 0.2366356 0.2368807
 0.2371259 0.2373692 0.2376121 0.2378541 0.2380936 0.2383323 0.2385715 0.2388095 0.2390439 0.2392744
 0.2395055 0.2397476 0.240007 0.2402773 0.2405456 0.240808 0.2410698 0.2413358 0.2416079 0.2418851
 0.2421629 0.242437 0.2427094 0.242983 0.2432525 0.2435066 0.2437398 0.2439591 0.2441792 0.2444123
 0.2446584 0.2449078 0.2451531 0.2453945 0.2456338 0.2458719 0.246111 0.2463535 0.2466012 0.2468586
 0.2471314 0.2474187 0.2477127 0.2480075 0.2483019 0.248594 0.2488816 0.249167 0.2494526 0.2497336
 0.2500035 0.2502673 0.2505456 0.2508589 0.2512058 0.2515582 0.2518873 0.2521903 0.2524855 0.2527898
 0.2531087 0.2534348 0.2537431 0.2540068 0.2542355 0.2544832 0.2548003 0.2551845 0.2555889 0.2559694
 0.256313 0.2566328 0.2569438 0.2572469 0.2575304 0.2577838 0.2580178 0.2582709 0.2585846 0.2589593
 0.2593493 0.2597096 0.2600341 0.2603398 0.2606376 0.2609293 0.2612002 0.2614098 0.2615324 0.2616271
 0.2618229 0.2622004 0.2627034 0.263196 0.263594 0.2639159 0.2642167 0.2645186 0.2648138 0.2650755
 0.2652311 0.2652017 0.265045 0.2650031 0.2653046 0.2659321 0.2666539 0.267258 0.2676935 0.26802
 0.2683081 0.2685915 0.2688475 0.2690029 0.2690086 0.2689477 0.2690226 0.2693714 0.2699123 0.270434
 0.2708199 0.271114 0.2713996 0.2717038 0.2719875 0.2721283 0.2719716 0.271542 0.2711888 0.2713591
 0.2721632 0.2732465 0.274143 0.2746903 0.2750301 0.2752811 0.2753664 0.27516 0.2746451 0.2739177
 0.2732282 0.2730219 0.273648 0.2749091 0.2761437 0.2768902 0.2772836 0.2777169 0.2783305 0.2789539
 0.2793803 0.2795517 0.2795242 0.2793458 0.2790306 0.2786979 0.2786554 0.2791817 0.2802006 0.2812993
 0.2821155 0.2826229 0.2829682 0.2830504 0.2824072 0.2807621 0.2787483 0.2777553 0.2786955 0.2810444
 0.2834094 0.2849086 0.2856562 0.286112 0.2864787 0.2866459 0.2861784 0.2844574 0.2815234 0.2788152
 0.2782984 0.2805276 0.2840251 0.2867144 0.287504 0.2865088 0.2845252 0.2826664 0.2819699 0.2828328
 0.284841 0.2871922 0.2891807 0.2903957 0.2907477 0.2904249 0.2898164 0.2894108 0.2894882 0.2897023
 0.2892976 0.288091 0.2868224 0.2860152 0.2850193 0.2830778 0.2810215 0.2807537 0.2828943 0.2858784
 0.2877686 0.2882382 0.288219 0.2880269 0.2865992 0.2828957 0.2778254 0.274221 0.2744153 0.2779085
 0.2818629 0.2838939 0.2839578 0.2835332 0.2835429 0.2833795 0.2818084 0.278713 0.2757781 0.2749859
 0.2763956 0.2780557 0.2781639 0.2763336 0.2726566 0.2672514 0.2617453 0.259578 0.2629657 0.2701418
 0.2769159 0.2802881 0.2793882 0.2742327 0.2660314 0.2584818 0.256108 0.260091 0.2668883 0.2716592
 0.2720786 0.2684432 0.2617055 0.2530589 0.2449512 0.2407762 0.2427101 0.2499578 0.2589082 0.2646943
 0.2636755 0.2563556 0.2481121 0.2451493 0.2486627 0.2540486 0.2563159 0.2547805 0.2520221 0.2503732
 0.2506369 0.2525201 0.2549636 0.2569763 0.2583992 0.2585194 0.254679 0.2452154 0.2338388 0.2276603
 0.2298597 0.2371334 0.2450895 0.2526664 0.25966 0.2635552 0.2622056 0.2580808 0.2566801 0.2606594
 0.2673039 0.271994 0.272894 0.2716951 0.2705496 0.2695108 0.2675998 0.2655679 0.2659307 0.2698328
 0.2752497 0.279184 0.2806707 0.2807742 0.2805759 0.2802667 0.2797032 0.278853 0.2777545 0.2765384
 0.2754191 0.2744571 0.2735134 0.2725268 0.271439 0.2695815 0.2657333 0.2597064 0.2536966 0.2507633
 0.2516177 0.2541815 0.2565771 0.2584883 0.2586602 0.2538724 0.2431464 0.2315174 0.2265691 0.231102
 0.2409043 0.2494822 0.2531931 0.2516934 0.2457399 0.236839 0.2287904 0.2270226 0.2344064 0.2482519
 0.262734 0.2738246 0.2808151 0.2840456 0.2833611 0.2792735 0.2742522 0.2717383 0.2737818 0.2797002
 0.2866004 0.290719 0.2890572 0.2818524 0.2742186 0.2730517 0.2801892 0.2899675 0.2954748 0.2957916
 0.294968 0.2955996 0.2966067 0.2967961 0.2973559 0.2998584 0.3036838 0.306538 0.3065108 0.3028788
 0.2960985 0.2883626 0.2832518 0.2829002 0.2856386 0.2879097 0.2879162 0.2856548 0.2806841 0.2730981
 0.2663195 0.265264 0.2707558 0.2782801 0.2831271 0.284777 0.2854433 0.2860888 0.2852923 0.2816305
 0.2762091 0.2721877 0.2716862 0.273786 0.2760423 0.2771296 0.2770524 0.2756197 0.2724536 0.2686277
 0.2668124 0.2689016 0.2739832 0.2792237 0.2824698 0.2835626 0.2835166 0.2832122 0.2829227 0.2824774
 0.2816979 0.2810016 0.2814275 0.2835322 0.2864256 0.2885844 0.2896107 0.2905574 0.2924448 0.2950116
 0.2971189 0.2980143 0.2979953 0.2980311 0.2988875 0.3004971 0.3020233 0.302596 0.3021684 0.3016745
 0.3021928 0.3039204 0.306094 0.3078624 0.3089977 0.3097832 0.3105361 0.3113341 0.3119769 0.3121571
 0.3118728 0.3116736 0.3122516 0.3137221 0.3154858 0.3168349 0.3175314 0.31777 0.317776 0.3175898
 0.3171802 0.3166243 0.3161136 0.3158072 0.3157206 0.3157568 0.31581 0.315825 0.3157998 0.3157737
 0.315801 0.3159085 0.3160797 0.3162881 0.3165173 0.3167389 0.3169105 0.3170205 0.3171024 0.3171805
 0.3172207 0.3171537 0.3169216 0.3164828 0.3157955 0.3148211 0.3135347 0.31191 0.3099179 0.3076195
 0.3053305 0.3036608 0.3032608 0.3044049 0.3067713 0.3096271 0.3122473 0.314227 0.315515 0.3162577
 0.3166348 0.316784 0.3167912 0.3166984 0.3165187 0.3162595 0.3159388 0.3155832 0.3152207 0.3148758
 0.3145654 0.3142906 0.3140354 0.3137688 0.3134542 0.3130645 0.3125947 0.3120559 0.311461 0.3108093
 0.3100799 0.3092443 0.3082982 0.3072825 0.3062666 0.3053052 0.3044093 0.3035482 0.3026753 0.3017473
 0.3007149 0.2995166 0.2981377 0.2966945 0.2954023 0.2944047 0.2936448 0.2929305 0.292103 0.2911149
 0.2899909 0.2887709 0.2874901 0.2861732 0.2848287 0.2834499 0.2820171 0.2805015 0.2788814 0.2771568
 0.2753435 0.2734584 0.271521 0.2695551 0.2675594 0.2654662 0.2631368 0.2604037 0.2571232 0.2532058
 0.2486288 0.2434523 0.23783 0.2319884 0.2261687 0.2205725 0.2153502 0.2106243 0.2065102 0.2031129
 0.2005109 0.1987448 0.1978246 0.1977475 0.1985044 0.2000663 0.2023641 0.2052799 0.2086551 0.2123039
 0.2160248 0.2196236 0.2229604 0.2259984 0.2287955 0.2314254 0.233902 0.2361808 0.2382171 0.2399995
 0.2415358 0.2428305 0.2438905 0.2447412 0.2454295 0.2460062 0.2465077 0.2469471 0.2473185 0.2476128
 0.2478344 0.2480056 0.2481581 0.2483191 0.2485038 0.2487168 0.2489619 0.2492553 0.2496223 0.2500796
 0.2506232 0.2512368 0.2519043 0.2526156 0.2533696 0.2541792 0.2550707 0.2560773 0.2572307 0.2585485
 0.2600236 0.2616194 0.2632701 0.2648835 0.2663551 0.2675966 0.2685598 0.2692373 0.2696432 0.2697977
 0.2697249 0.2694588 0.2690392 0.2684982 0.2678565 0.2671342 0.2663559 0.2655381 0.2646773 0.2637591
 0.2627821 0.2617691 0.2607557 0.2597685 0.2588154 0.2578943 0.2570001 0.2561265 0.2552704 0.2544375
 0.253638 0.2528773 0.2521541 0.2514629 0.250792 0.2501221 0.2494261 0.248665 0.2477941 0.2467814
 0.2456173 0.2443022 0.242838 0.2412349 0.2395113 0.2376831 0.2357591 0.2337471 0.2316561 0.2294908
 0.2272443 0.2249045 0.2224825 0.220041 0.217677 0.2154677 0.2134371 0.2115693 0.2098359 0.2082098
 0.20667 0.2052004 0.2037881 0.2024283 0.2011246 0.1998788 0.1986907 0.1975705 0.1965362 0.1955982
 0.1947588 0.1940233 0.1933957 0.19287 0.1924333 0.1920723 0.1917833 0.1915869 0.1915189 0.19158
 0.1917064 0.191806 0.191819 0.1917463 0.1916368 0.1915508 0.1915204 0.1915425 0.1915932 0.1916212
 0.1915342 0.1912201 0.1905859 0.1895709 0.1881517 0.1863567 0.1842689 0.1820168 0.1797655 0.1776879
 0.1759103 0.1744849 0.1734033 0.1726069 0.1720021 0.1715162 0.1711497 0.1709661 0.1710338 0.1713513
 0.1717892 0.1721426 0.17231 0.172412 0.1726896 0.1732979 0.1742096 0.1752707 0.1763119 0.1772281
 0.1779806 0.1785562 0.1789591 0.1792261 0.1793973 0.1794752 0.1794418 0.1792919 0.1790307 0.1786675
 0.1782219 0.1777045 0.177101 0.1763988 0.1756015 0.1747065 0.1737095 0.1726175 0.1714119 0.1700441
 0.1685503 0.1671482 0.1661619 0.1658407 0.1662211 0.1671093 0.1682222 0.1693832 0.1705417 0.17162
 0.1724937 0.1731934 0.1740187 0.1753486 0.1773231 0.1797023 0.182022 0.183889 0.1851314 0.185735
 0.1857632 0.1853269 0.1844956 0.1832357 0.1815247 0.1794665 0.177223 0.1749383 0.1727619 0.1708131
 0.1691251 0.167709 0.1665843 0.1657605 0.1652986 0.1649158 0.1630386 0.1573576 0.1480972 0.1401275
 0.1392906 0.1461106 0.1550708 0.1605389 0.1615538 0.160483 0.1592912 0.158392 0.1576984 0.1572787
 0.1571975 0.1573661 0.1575744 0.1575903 0.1573077 0.1567383 0.1557587 0.1538716 0.1501991 0.1438057
 0.1343951 0.1229388 0.1114577 0.1019485 0.09540221 0.09160965 0.08960155 0.08832115 0.08722463 0.08646488
 0.08653583 0.08776522 0.09013204 0.09342012 0.09737134 0.1016533 0.1058073 0.1093946 0.1122264 0.1143715
 0.1159423 0.116969 0.1174709 0.1175235 0.1172218 0.1166492 0.1158787 0.1149421 0.1138046 0.1124289
 0.1108877 0.1094009 0.1082287 0.1074942 0.107115 0.1069224 0.1068167 0.106784 0.1068264 0.1069331
 0.1070892 0.1072819 0.1075157 0.1078155 0.108183 0.1085625 0.1088777 0.109089 0.1092002 0.1092224
 0.1091365 0.1089042 0.1085413 0.108142 0.1077471 0.1072091 0.1063074 0.1050377 0.1037237 0.1028126
 0.1025633 0.1028921 0.1034617 0.1039256 0.1041366 0.1041671 0.1041534 0.1041206 0.10395 0.1035191
</values></Ydata></ScRf><Data_Parameters_AB><parameter name="DPF">1</parameter><parameter name="NPT">3497</parameter><parameter name="FXV">3996</parameter><parameter name="LXV">500</parameter><parameter name="CSF">1</parameter><parameter name="MXY">0.100983239710331</parameter><parameter name="MNY">-0.108698025345802</parameter><parameter name="DAT">17/01/2024</parameter><parameter name="TIM">13:16:25.513 (GMT+1)</parameter><parameter name="DXU">WN</parameter></Data_Parameters_AB><AB__Qtest><MainReport name="Quality Test Report"><Header><Line><Legend>Test result ok/not ok [1/0]: </Legend><Value>0</Value></Line><Line><Legend>Method file: </Legend><Value>C:\Users\Public\Documents\Bruker\OPUS_8.2.28\QT\IRBT_v3_default.QT</Value></Line></Header><Matrix><Line><Legend></Legend><Legend>min</Legend><Legend>max</Legend><Legend>measured</Legend></Line><Line><Value>Absorption (X-Range 1):</Value><Value>0.400000</Value><Value>2.000000</Value><Value>0.197786</Value></Line><Line><Value>Noise (X-Range 4):</Value><Value></Value><Value>0.000300</Value><Value>0.000024</Value></Line><Line><Value>Signal/Noise (X-Range 2):</Value><Value>200.000000</Value><Value></Value><Value>162.760543</Value></Line><Line><Value>Signal/Noise (X-Range 3):</Value><Value>40.000000</Value><Value></Value><Value>141.886420</Value></Line><Line><Value>Water vapour (X-Range 5):</Value><Value></Value><Value>0.000300</Value><Value>0.000020</Value></Line><Line><Value>Signal/Water (X-Range 2):</Value><Value>100.000000</Value><Value></Value><Value>196.554953</Value></Line><Line><Value>Signal/Water (X-Range 3):</Value><Value>20.000000</Value><Value></Value><Value>171.346680</Value></Line><Line><Value>Fringes (X-Range 6):</Value><Value></Value><Value>0.000100</Value><Value>0.000019</Value></Line></Matrix></MainReport></AB__Qtest><Data_Parameters_ScSm><parameter name="DPF">1</parameter><parameter name="NPT">1814</parameter><parameter name="FXV">3996.63438082617</parameter><parameter name="LXV">499.579297603271</parameter><parameter name="CSF">1</parameter><parameter name="MXY">0.3704554438591</parameter><parameter name="MNY">0.0790480077266693</parameter><parameter name="DAT">17/01/2024</parameter><parameter name="TIM">13:16:25.513 (GMT+1)</parameter><parameter name="DXU">WN</parameter></Data_Parameters_ScSm><Data_Parameters_ScRf><parameter name="DPF">1</parameter><parameter name="NPT">1820</parameter><parameter name="FXV">4004.34989121387</parameter><parameter name="LXV">495.721542409425</parameter><parameter name="CSF">1</parameter><parameter name="MXY">0.317776024341583</parameter><parameter name="MNY">0.0682122409343719</parameter><parameter name="DAT">17/01/2024</parameter><parameter name="TIM">13:15:59.651 (GMT+1)</parameter><parameter name="DXU">WN</parameter></Data_Parameters_ScRf><Optic_Parameters_Rf><parameter name="APR">0</parameter><parameter name="APT">Open</parameter><parameter name="BMS">KBr</parameter><parameter name="DTC">RT-DLaTGS_IR-Biotyper [Microplate reader]</parameter><parameter name="HPF">0</parameter><parameter name="LPF">10.0</parameter><parameter name="LPV">4000</parameter><parameter name="PGR">0</parameter><parameter name="RCH">Module port</parameter><parameter name="RDX">0</parameter><parameter name="SRC">MIR</parameter><parameter name="VEL">10.0</parameter><parameter name="SON">Off</parameter></Optic_Parameters_Rf><Acquisition_Parameters_Rf><parameter name="ADT">1</parameter><parameter name="AQM">DD</parameter><parameter name="CFE">0</parameter><parameter name="COR">0</parameter><parameter name="DEL">0</parameter><parameter name="DLY">0</parameter><parameter name="HFW">8000</parameter><parameter name="LFW">0</parameter><parameter name="NSR">32</parameter><parameter name="PLF">AB</parameter><parameter name="RES">6</parameter><parameter name="RGN">-1</parameter><parameter name="STR">0</parameter><parameter name="TCL">MakeCompatibleScalar (0, {WSV=1.000000, ARV=0});</parameter><parameter name="TDL">37</parameter><parameter name="RPO">0</parameter></Acquisition_Parameters_Rf><FT_-_Parameters_Rf><parameter name="APF">B3</parameter><parameter name="HFQ">500</parameter><parameter name="LFQ">4000</parameter><parameter name="NLI">0</parameter><parameter name="PHR">24</parameter><parameter name="PHZ">ML</parameter><parameter name="SPZ">NO</parameter><parameter name="ZFF">1</parameter></FT_-_Parameters_Rf><Optic_Parameters_><parameter name="APR">0</parameter><parameter name="APT">Open</parameter><parameter name="BMS">KBr</parameter><parameter name="CHN">Module port</parameter><parameter name="DTC">RT-DLaTGS_IR-Biotyper [Microplate reader]</parameter><parameter name="HPF">0</parameter><parameter name="LPF">10.0</parameter><parameter name="LPV">4000</parameter><parameter name="PGN">0</parameter><parameter name="RDX">0</parameter><parameter name="SRC">MIR</parameter><parameter name="VEL">10.0</parameter><parameter name="SON">Off</parameter></Optic_Parameters_><FT_-_Parameters_><parameter name="APF">B3</parameter><parameter name="HFQ">500</parameter><parameter name="LFQ">4000</parameter><parameter name="NLI">0</parameter><parameter name="PHR">24</parameter><parameter name="PHZ">ML</parameter><parameter name="SPZ">NO</parameter><parameter name="ZFF">1</parameter></FT_-_Parameters_><Acquisition_Parameters_><parameter name="ADT">1</parameter><parameter name="AQM">DD</parameter><parameter name="CFE">0</parameter><parameter name="COR">0</parameter><parameter name="DEL">0</parameter><parameter name="DLY">0</parameter><parameter name="HFW">8000</parameter><parameter name="LFW">0</parameter><parameter name="NSS">32</parameter><parameter name="PLF">AB</parameter><parameter name="RES">6</parameter><parameter name="SOT">0</parameter><parameter name="TCL">MakeCompatibleScalar (0, {WSV=1.000000, ARV=0});</parameter><parameter name="TDL">37</parameter><parameter name="SPO">0</parameter><parameter name="SGN">-1</parameter></Acquisition_Parameters_><Instrument_Parameters_Rf><parameter name="HFL">15801.365274</parameter><parameter name="LFL">0</parameter><parameter name="LWN">15801.365274</parameter><parameter name="ABP">32157</parameter><parameter name="SSP">1</parameter><parameter name="ARG">2</parameter><parameter name="ASG">2</parameter><parameter name="ASS">32</parameter><parameter name="GFW">16</parameter><parameter name="GBW">16</parameter><parameter name="BFW">0</parameter><parameter name="BBW">0</parameter><parameter name="PKA">9111</parameter><parameter name="PKL">4987</parameter><parameter name="PRA">9182</parameter><parameter name="PRL">5010</parameter><parameter name="P2A">1</parameter><parameter name="P2L">1</parameter><parameter name="P2R">1</parameter><parameter name="P2K">1</parameter><parameter name="DAQ">0</parameter><parameter name="AG2">1</parameter><parameter name="SSM">1</parameter><parameter name="RSN">46330</parameter><parameter name="CRR">0</parameter><parameter name="SRT">1705497359.651</parameter><parameter name="DUR">19.6449890136719</parameter><parameter name="TSC">30.9</parameter><parameter name="MVD">4.75146055221558</parameter><parameter name="AN1">0.226009032393015</parameter><parameter name="AN2">0</parameter><parameter name="VSN">2.485 Apr  4 2017</parameter><parameter name="SRN">0085</parameter><parameter name="CAM">0</parameter><parameter name="INS">IR-Biotyper</parameter><parameter name="FOC">69</parameter><parameter name="RDY">1</parameter><parameter name="ARS">32</parameter></Instrument_Parameters_Rf><Sample_Parameters_><parameter name="BLD"></parameter><parameter name="CNM">Admin</parameter><parameter name="CPY"></parameter><parameter name="DPM"></parameter><parameter name="EXP">IRBT_v3_32Scans.XPM</parameter><parameter name="LCT"></parameter><parameter name="SFM">Microplate, HTS-XT</parameter><parameter name="SNM">240117-1222-Cdiff_SCFA_1_C12_232104490_D7_dcfe4fba-3229-4fcb-9c51-9d0a885c7996.0</parameter><parameter name="XPP">C:\Users\Public\Documents\Bruker\OPUS_8.2.28\XPM</parameter><parameter name="IST">OK</parameter><parameter name="CPG">1252</parameter><parameter name="UID">6978f811-70c9-4ed9-8862-8c46a3ff7ea0</parameter></Sample_Parameters_><Instrument_Parameters_><parameter name="HFL">15801.365274</parameter><parameter name="LFL">0</parameter><parameter name="LWN">15801.365274</parameter><parameter name="ABP">32157</parameter><parameter name="SSP">1</parameter><parameter name="ASG">2</parameter><parameter name="ARG">2</parameter><parameter name="ASS">32</parameter><parameter name="GFW">16</parameter><parameter name="GBW">16</parameter><parameter name="BFW">0</parameter><parameter name="BBW">0</parameter><parameter name="PKA">10131</parameter><parameter name="PKL">4979</parameter><parameter name="PRA">10181</parameter><parameter name="PRL">5002</parameter><parameter name="P2A">1</parameter><parameter name="P2L">1</parameter><parameter name="P2R">1</parameter><parameter name="P2K">1</parameter><parameter name="DAQ">0</parameter><parameter name="AG2">1</parameter><parameter name="SSM">1</parameter><parameter name="RSN">23858</parameter><parameter name="CRR">0</parameter><parameter name="SRT">1705497385.513</parameter><parameter name="DUR">19.6449890136719</parameter><parameter name="TSC">30.9</parameter><parameter name="MVD">10.1246070861816</parameter><parameter name="AN1">0.226019920850733</parameter><parameter name="AN2">0</parameter><parameter name="VSN">2.485 Apr  4 2017</parameter><parameter name="SRN">0085</parameter><parameter name="CAM">0</parameter><parameter name="INS">IR-Biotyper</parameter><parameter name="FOC">69</parameter><parameter name="RDY">1</parameter></Instrument_Parameters_><History/></OPUSDataFile>
