<?xml version="1.0" encoding="UTF-8" ?>
<OPUSDataFile><AB><Ydata ylabel="Absorbance Units"><values byteorder="INTEL" format="FLOAT32" numvalues="3497"> -0.08757212 -0.08758111 -0.08759105 -0.08760225 -0.08761594 -0.08763161 -0.08764923 -0.08766719 -0.08768313 -0.08769575
 -0.08770227 -0.08770382 -0.08769939 -0.08769365 -0.08768818 -0.08768806 -0.08769584 -0.08771188 -0.08773769 -0.08776643
 -0.08779767 -0.08782339 -0.08784262 -0.08785525 -0.08786135 -0.08786798 -0.08787521 -0.08788661 -0.08790088 -0.08791293
 -0.08792213 -0.08792292 -0.08791759 -0.08790815 -0.0878976 -0.08789167 -0.08789101 -0.08789887 -0.08791369 -0.08793557
 -0.08796237 -0.08799377 -0.08802553 -0.08805675 -0.08808188 -0.08809914 -0.08810731 -0.08810528 -0.08809891 -0.08808838
 -0.08808211 -0.08808051 -0.08808868 -0.08810634 -0.08813255 -0.08816608 -0.08820002 -0.08823311 -0.08825696 -0.08827262
 -0.08827721 -0.08827504 -0.08827129 -0.08826968 -0.08827733 -0.08829232 -0.08831656 -0.08834396 -0.08837173 -0.08839639
 -0.08841541 -0.08843046 -0.08844133 -0.08845066 -0.08845904 -0.08846638 -0.0884728 -0.0884771 -0.08847925 -0.08848183
 -0.08848529 -0.08849582 -0.08851374 -0.08854444 -0.08858714 -0.08864293 -0.08870919 -0.08878163 -0.08885551 -0.08892217
 -0.08897667 -0.0890093 -0.0890208 -0.08900619 -0.08897582 -0.08893242 -0.08888897 -0.08885141 -0.08882406 -0.0888099
 -0.08880483 -0.08880869 -0.08881728 -0.08883009 -0.08884648 -0.08886639 -0.08888828 -0.08891178 -0.08893141 -0.08894718
 -0.08895551 -0.08895794 -0.08895757 -0.08895648 -0.08896149 -0.08897246 -0.08899281 -0.08901994 -0.08905265 -0.08908752
 -0.08912187 -0.08915251 -0.0891769 -0.0891941 -0.08920243 -0.08920541 -0.08920342 -0.0892003 -0.0891971 -0.0891928
 -0.08918734 -0.08918013 -0.08917113 -0.08917013 -0.08917775 -0.0892062 -0.08925339 -0.08931486 -0.08938429 -0.08943594
 -0.08946715 -0.08945388 -0.08940916 -0.08934136 -0.08926864 -0.08921874 -0.08919133 -0.08919793 -0.08922511 -0.08926848
 -0.08931824 -0.08936962 -0.08941814 -0.08946257 -0.08949666 -0.08951934 -0.0895253 -0.08951318 -0.08949012 -0.0894564
 -0.08942841 -0.08940648 -0.08939905 -0.08940493 -0.08942088 -0.08944587 -0.08947463 -0.08950663 -0.08953868 -0.08956914
 -0.08959404 -0.08961174 -0.08961783 -0.08961468 -0.08960174 -0.08958457 -0.08956601 -0.08955014 -0.0895391 -0.0895352
 -0.08953943 -0.08955275 -0.08957615 -0.08960479 -0.08963869 -0.08966803 -0.0896922 -0.08970608 -0.08970997 -0.08970837
 -0.08970168 -0.08969513 -0.08968736 -0.08967542 -0.08965909 -0.08963488 -0.08960687 -0.08958028 -0.08955887 -0.08955022
 -0.089553 -0.08956925 -0.08959486 -0.08962821 -0.08966573 -0.08970601 -0.08974553 -0.0897835 -0.08981566 -0.08984111
 -0.08985748 -0.08986429 -0.08986171 -0.08984967 -0.0898312 -0.08980678 -0.08978415 -0.08976422 -0.08975745 -0.08976305
 -0.08978464 -0.08981842 -0.08985689 -0.08989627 -0.08992565 -0.08994551 -0.08995081 -0.08994711 -0.08993711 -0.08992627
 -0.08991916 -0.08991627 -0.08991917 -0.08992556 -0.08993428 -0.08994779 -0.08996576 -0.08999479 -0.0900362 -0.09008723
 -0.09014808 -0.09020062 -0.09024408 -0.09026285 -0.09025893 -0.09023897 -0.09020559 -0.09017415 -0.09014234 -0.09011117
 -0.09007942 -0.09004276 -0.09000802 -0.0899826 -0.08996993 -0.08997931 -0.08999918 -0.09002713 -0.09004715 -0.09005001
 -0.09003529 -0.08999836 -0.08995619 -0.08991089 -0.0898769 -0.08985689 -0.08984992 -0.08985626 -0.08986534 -0.08987664
 -0.08988023 -0.0898767 -0.08986477 -0.08984683 -0.08983187 -0.08982166 -0.08982649 -0.08984419 -0.08987748 -0.08991872
 -0.08996069 -0.08999347 -0.09000483 -0.08999222 -0.08994681 -0.08988307 -0.08980288 -0.08972645 -0.08966114 -0.08961277
 -0.08958518 -0.08956861 -0.08956267 -0.08955639 -0.08954892 -0.08953618 -0.08951826 -0.08949837 -0.08947694 -0.08945947
 -0.08944476 -0.08943203 -0.08941702 -0.08938745 -0.08934083 -0.08926328 -0.08916379 -0.0890454 -0.08892512 -0.08882093
 -0.08873873 -0.08869087 -0.0886652 -0.08866185 -0.08866052 -0.08865603 -0.08863156 -0.08858227 -0.08850417 -0.08839529
 -0.08826504 -0.08811384 -0.08795206 -0.08778001 -0.08760075 -0.08741468 -0.08722597 -0.08703602 -0.08685394 -0.08667933
 -0.08651666 -0.08636285 -0.08621442 -0.08606795 -0.08591757 -0.08576112 -0.0855941 -0.08541721 -0.08522834 -0.08503322
 -0.0848343 -0.08463392 -0.08443572 -0.08422775 -0.08400889 -0.08376484 -0.08349176 -0.08320074 -0.08289163 -0.08259407
 -0.08230887 -0.0820462 -0.08180346 -0.08156358 -0.08132444 -0.0810663 -0.08079179 -0.08049699 -0.08018842 -0.07987786
 -0.07956763 -0.07926967 -0.07897235 -0.07867181 -0.07834899 -0.07798602 -0.07758695 -0.07714206 -0.07668799 -0.0762345
 -0.07580516 -0.07541104 -0.0750326 -0.07467008 -0.07429179 -0.07389464 -0.07347548 -0.07303488 -0.07259715 -0.0721627
 -0.07174694 -0.07134535 -0.07094534 -0.07054216 -0.07011333 -0.06966185 -0.06918081 -0.06868048 -0.06817311 -0.06766389
 -0.0671647 -0.06666944 -0.06617816 -0.06568316 -0.06517994 -0.06466793 -0.06414554 -0.06361592 -0.06307922 -0.0625393
 -0.06199655 -0.06145555 -0.06091697 -0.06037822 -0.05983885 -0.05928381 -0.0587128 -0.05811521 -0.0574946 -0.05686221
 -0.05622213 -0.05559428 -0.05497637 -0.0543745 -0.05378185 -0.0531909 -0.05259773 -0.05199467 -0.05138363 -0.05076274
 -0.05013755 -0.04951067 -0.04888402 -0.04826065 -0.04763178 -0.0469969 -0.0463436 -0.04566916 -0.04497461 -0.04425913
 -0.0435397 -0.04281714 -0.04210725 -0.04140962 -0.04072711 -0.04005778 -0.03939421 -0.03873382 -0.03806455 -0.0373857
 -0.03668863 -0.03597756 -0.03525414 -0.03452457 -0.03379687 -0.03307129 -0.03235153 -0.03163258 -0.03091249 -0.03018928
 -0.02946124 -0.02873088 -0.02799868 -0.02726538 -0.02653133 -0.02579481 -0.0250556 -0.02431434 -0.02357112 -0.0228306
 -0.02209287 -0.02136117 -0.02063445 -0.01990955 -0.01918444 -0.01845063 -0.01770779 -0.01694998 -0.01618066 -0.01540169
 -0.0146181 -0.01383608 -0.01305784 -0.01228746 -0.01152334 -0.01076597 -0.01001265 -0.009262346 -0.008514429 -0.007768403
 -0.007025423 -0.006285912 -0.00554804 -0.004811984 -0.004070485 -0.003323192 -0.002564658 -0.001795435 -0.00101932 -0.000237609
 0.0005405977 0.001315249 0.002081271 0.00283963 0.003589824 0.004333138 0.005070941 0.005805165 0.00653836 0.00727171
 0.00800748 0.008743934 0.009480712 0.01021657 0.01095039 0.01168454 0.01241971 0.01315568 0.01389309 0.01462613
 0.01535439 0.01607299 0.01678173 0.01748249 0.01817555 0.01886477 0.0195502 0.02023391 0.02091602 0.02159813
 0.02227992 0.02296188 0.02364253 0.02431955 0.0249924 0.02565931 0.02632107 0.02697797 0.02762999 0.02827735
 0.02891941 0.02955557 0.03018753 0.03081571 0.03144075 0.03206319 0.03267986 0.03329053 0.0338925 0.03448562
 0.03507144 0.03565016 0.03622483 0.03679559 0.03736473 0.03793222 0.03849968 0.03906615 0.03963084 0.0401913
 0.04074304 0.04128512 0.0418138 0.04233205 0.04284037 0.04334314 0.04384289 0.04434191 0.04484216 0.04534198
 0.04584214 0.04633629 0.0468239 0.04729746 0.04775594 0.04819805 0.04862368 0.04904005 0.04944775 0.04985617
 0.05026512 0.05067872 0.05109538 0.05151226 0.05192708 0.05233305 0.05272897 0.05310956 0.05347564 0.05382584
 0.05416192 0.05448449 0.0547958 0.05509634 0.05539078 0.05568057 0.05597036 0.05626234 0.05655473 0.0568483
 0.05713513 0.05741443 0.05768197 0.05793745 0.05818463 0.05842386 0.05866077 0.05889514 0.05912854 0.05936024
 0.05958859 0.05981275 0.06002993 0.06023963 0.06043956 0.06063014 0.06081074 0.06098258 0.06114635 0.06130318
 0.06145412 0.06159876 0.06173766 0.06186808 0.06198962 0.06209909 0.06219536 0.06228067 0.06235464 0.06242602
 0.06249531 0.06256893 0.06264653 0.06272418 0.06280074 0.06286684 0.06292237 0.06296162 0.0629859 0.0629954
 0.0629916 0.06297662 0.0629525 0.06292212 0.06288767 0.0628521 0.06281581 0.06278044 0.06274341 0.06270444
 0.06265996 0.06260897 0.06254958 0.06248117 0.06240392 0.06231765 0.0622241 0.06212334 0.06201758 0.06190691
 0.06179317 0.06167618 0.06155598 0.06143175 0.06130045 0.06116136 0.06101075 0.06084935 0.06067618 0.06049358
 0.06030382 0.06010901 0.05991155 0.0597129 0.05951426 0.05931742 0.0591235 0.05893295 0.05874687 0.05856103
 0.05837521 0.05818335 0.05798441 0.05777873 0.05756615 0.05735515 0.05714618 0.05694819 0.05676092 0.05658697
 0.05642542 0.05627437 0.05613236 0.05599578 0.05586114 0.05572155 0.05557207 0.05540306 0.05521427 0.05499959
 0.05476891 0.05452457 0.05428072 0.05404447 0.05382073 0.05361399 0.05341584 0.05322614 0.05303288 0.05283453
 0.05262538 0.05240486 0.05217387 0.05193263 0.05168516 0.05143182 0.05117734 0.05092126 0.05066486 0.05040627
 0.05014119 0.04986852 0.0495831 0.04928812 0.0489842 0.04867804 0.04837579 0.04808147 0.04780098 0.04752924
 0.04726754 0.04700273 0.04673198 0.04644319 0.04613268 0.04580042 0.0454451 0.04507829 0.04470062 0.04432359
 0.04394739 0.04357406 0.04320306 0.04283118 0.04245875 0.04208562 0.04171222 0.04134022 0.04096848 0.04059578
 0.04022093 0.03984127 0.03945816 0.03907182 0.03868375 0.03829581 0.03790563 0.03751314 0.0371142 0.03670723
 0.03629164 0.03586658 0.03543554 0.03499862 0.03456051 0.03412145 0.03368746 0.03325878 0.03284002 0.03243044
 0.03202701 0.03162767 0.03122148 0.03080778 0.03037792 0.0299352 0.0294811 0.02902053 0.02856074 0.02810417
 0.02765611 0.02721553 0.02678367 0.02635774 0.02593727 0.02551839 0.02510024 0.02467859 0.02425241 0.02381973
 0.02338004 0.02293433 0.02248263 0.0220261 0.02156471 0.02109751 0.0206245 0.0201449 0.01965939 0.01917058
 0.01867912 0.01818867 0.01769838 0.0172086 0.01671769 0.01622289 0.01572529 0.01522377 0.01472324 0.01422654
 0.01373711 0.01325864 0.01278671 0.01232202 0.01185417 0.01138124 0.01089594 0.0103965 0.009885159 0.009361694
 0.008835444 0.008306895 0.007785322 0.007270606 0.006766174 0.0062709 0.005781763 0.005297395 0.004812131 0.004325702
 0.003834331 0.003339849 0.002842841 0.002345995 0.001852378 0.001362742 0.000879108 0.000399219 -7.730479E-05 -0.0005529195
 -0.001028787 -0.001504692 -0.001980904 -0.00245615 -0.002930331 -0.003402288 -0.003871965 -0.004337418 -0.004798606 -0.005255045
 -0.005707547 -0.006162735 -0.006622098 -0.007097213 -0.007586689 -0.008094453 -0.008613712 -0.009133272 -0.009646278 -0.01013645
 -0.01060601 -0.01104851 -0.01147655 -0.0118955 -0.01231891 -0.01275578 -0.01320797 -0.01368019 -0.01416027 -0.01464757
 -0.01512563 -0.01559175 -0.01603927 -0.01646699 -0.0168821 -0.01728501 -0.01768546 -0.01808293 -0.01847647 -0.01886436
 -0.01923687 -0.01959475 -0.01993318 -0.02025837 -0.02057951 -0.02090478 -0.02125074 -0.02161939 -0.02202174 -0.02244743
 -0.0228953 -0.02334744 -0.02379487 -0.02422724 -0.02463713 -0.02503091 -0.02540768 -0.02578036 -0.02615127 -0.02652257
 -0.02689505 -0.02726012 -0.02761746 -0.027963 -0.02829758 -0.02862826 -0.02895572 -0.02928766 -0.0296225 -0.02995931
 -0.03029638 -0.0306289 -0.03095795 -0.03128267 -0.03160537 -0.03192852 -0.0322523 -0.032578 -0.03290399 -0.03322947
 -0.03355443 -0.03387801 -0.03420373 -0.03453168 -0.03486779 -0.03521278 -0.0355719 -0.03594583 -0.03633445 -0.03673764
 -0.03714805 -0.03756495 -0.03797792 -0.03838693 -0.03878592 -0.03917634 -0.03955963 -0.03993726 -0.04031345 -0.04068796
 -0.04106252 -0.04143582 -0.04180684 -0.04217546 -0.0425409 -0.04290461 -0.04326732 -0.04362924 -0.04399102 -0.04435047
 -0.04470715 -0.04505976 -0.0454078 -0.04575317 -0.04609605 -0.04643727 -0.04677685 -0.04711144 -0.04744096 -0.04776264
 -0.04807764 -0.04839043 -0.04870264 -0.04902258 -0.04934946 -0.04968625 -0.0500299 -0.05037678 -0.05072521 -0.05107179
 -0.05141666 -0.05175966 -0.05209849 -0.05243283 -0.05275748 -0.05307015 -0.0533695 -0.05365373 -0.05392917 -0.05419622
 -0.05446226 -0.05472827 -0.0549943 -0.05526033 -0.05551889 -0.05576967 -0.05600628 -0.05622972 -0.05644185 -0.05664501
 -0.05684828 -0.05705281 -0.05726654 -0.05748713 -0.05771553 -0.05794614 -0.05817368 -0.05839279 -0.0585978 -0.05878581
 -0.05895368 -0.05910114 -0.05922724 -0.05933325 -0.05941912 -0.05948709 -0.05953735 -0.05957266 -0.05959322 -0.05960177
 -0.05959844 -0.05958528 -0.05956212 -0.05952797 -0.05948204 -0.05941936 -0.05933922 -0.05923599 -0.05911072 -0.0589623
 -0.05879392 -0.05860988 -0.05841354 -0.05821059 -0.05800187 -0.05779021 -0.05757404 -0.05735313 -0.05712662 -0.05689374
 -0.05665585 -0.05641306 -0.05616707 -0.05591843 -0.05566623 -0.05541057 -0.05514893 -0.05488117 -0.05460785 -0.05432923
 -0.05404934 -0.0537682 -0.05348868 -0.05320949 -0.05292797 -0.05264227 -0.05234619 -0.05204009 -0.05172064 -0.05139203
 -0.05105719 -0.05072114 -0.05038964 -0.05006269 -0.04974317 -0.04942493 -0.04910609 -0.04878312 -0.04845319 -0.04812356
 -0.04779392 -0.04747873 -0.04717939 -0.04690551 -0.04665771 -0.04643664 -0.04624218 -0.04607254 -0.04592824 -0.04581123
 -0.04572264 -0.04566763 -0.04564685 -0.04566501 -0.04572092 -0.04581587 -0.04594523 -0.04610542 -0.04628912 -0.04648922
 -0.04670146 -0.04692042 -0.04714885 -0.04738576 -0.0476376 -0.04790578 -0.048195 -0.04850632 -0.04884212 -0.04920286
 -0.04958909 -0.05000094 -0.05043135 -0.05087918 -0.05132624 -0.05177061 -0.05219043 -0.05258584 -0.05294462 -0.05327039
 -0.05356534 -0.05383426 -0.05408658 -0.05432446 -0.05455443 -0.05477612 -0.05499093 -0.05519946 -0.0554015 -0.05560081
 -0.05579816 -0.0559989 -0.05620436 -0.05641881 -0.05664314 -0.05688 -0.05712987 -0.05739287 -0.05766905 -0.05795639
 -0.05825483 -0.05856322 -0.05888169 -0.05921075 -0.0595502 -0.05989955 -0.06025844 -0.06062489 -0.06100075 -0.0613877
 -0.06178916 -0.06221088 -0.06265213 -0.06311628 -0.06359515 -0.06408585 -0.0645789 -0.06506948 -0.06555385 -0.06602993
 -0.06649745 -0.06695635 -0.06740471 -0.06784235 -0.06826731 -0.06867938 -0.06908129 -0.06947338 -0.06986179 -0.07024695
 -0.07063441 -0.07102458 -0.07142149 -0.07182635 -0.0722441 -0.07267603 -0.07312764 -0.07359695 -0.07408573 -0.07458586
 -0.07509276 -0.07559474 -0.0760834 -0.07655269 -0.07699654 -0.07741995 -0.07782193 -0.07821361 -0.07859695 -0.07897862
 -0.07936011 -0.07973912 -0.0801157 -0.0804825 -0.08083919 -0.08117976 -0.08150471 -0.08181453 -0.08211076 -0.08239984
 -0.08268276 -0.08296603 -0.08324818 -0.08353009 -0.08380862 -0.08407997 -0.08434235 -0.08459201 -0.0848311 -0.08505899
 -0.08528082 -0.08549832 -0.08571615 -0.08593637 -0.0861595 -0.08638649 -0.08661343 -0.08684007 -0.08706247 -0.08728031
 -0.08749301 -0.08770061 -0.0879041 -0.08810346 -0.08829879 -0.08849015 -0.08867776 -0.08886199 -0.08904421 -0.08922413
 -0.08940215 -0.0895772 -0.08974782 -0.08991397 -0.09007444 -0.09023152 -0.09038608 -0.09054051 -0.09069645 -0.09085353
 -0.09101249 -0.09116994 -0.0913256 -0.09147501 -0.09161748 -0.09175111 -0.09187556 -0.09199493 -0.09210958 -0.09222757
 -0.09234906 -0.09247958 -0.09261807 -0.09276308 -0.09291312 -0.0930632 -0.09321271 -0.09335803 -0.09349956 -0.09363617
 -0.09376884 -0.09389797 -0.09402466 -0.09414974 -0.09427382 -0.09439764 -0.0945203 -0.09464186 -0.09476057 -0.09487618
 -0.09498725 -0.09509352 -0.09519485 -0.09529117 -0.09538443 -0.09547478 -0.0955656 -0.09565698 -0.0957512 -0.09584793
 -0.09594693 -0.09604809 -0.09615074 -0.0962555 -0.09636328 -0.09647446 -0.09659016 -0.09670985 -0.09683338 -0.09696035
 -0.09709038 -0.09722354 -0.09736007 -0.09749891 -0.09764022 -0.09778105 -0.09792087 -0.09805751 -0.09819041 -0.0983204
 -0.09844744 -0.09857399 -0.09870017 -0.09882812 -0.09895792 -0.09909104 -0.09922742 -0.09936777 -0.09951154 -0.09965792
 -0.09980556 -0.09995151 -0.1000946 -0.1002317 -0.1003631 -0.1004877 -0.1006081 -0.1007254 -0.1008429 -0.1009624
 -0.1010852 -0.1012124 -0.1013428 -0.1014767 -0.1016124 -0.1017497 -0.1018875 -0.1020258 -0.1021636 -0.1023007
 -0.102435 -0.1025665 -0.1026945 -0.1028193 -0.1029432 -0.103067 -0.1031943 -0.1033245 -0.1034587 -0.1035944
 -0.1037287 -0.1038596 -0.1039836 -0.1041028 -0.1042169 -0.1043307 -0.1044465 -0.1045673 -0.1046954 -0.1048294
 -0.1049696 -0.1051119 -0.1052558 -0.1053973 -0.105536 -0.10567 -0.105799 -0.1059247 -0.1060473 -0.1061705
 -0.1062945 -0.1064218 -0.1065519 -0.1066846 -0.1068192 -0.1069541 -0.1070897 -0.1072255 -0.1073622 -0.1075004
 -0.1076399 -0.1077809 -0.1079221 -0.108063 -0.1082034 -0.1083428 -0.1084825 -0.1086224 -0.1087644 -0.1089086
 -0.1090555 -0.1092053 -0.1093568 -0.1095098 -0.109662 -0.1098134 -0.1099615 -0.1101064 -0.1102472 -0.1103842
 -0.110518 -0.1106489 -0.1107775 -0.1109046 -0.111031 -0.1111576 -0.1112855 -0.1114148 -0.1115464 -0.1116787
 -0.1118113 -0.1119422 -0.1120705 -0.1121958 -0.1123178 -0.1124379 -0.1125564 -0.1126752 -0.1127946 -0.1129166
 -0.1130413 -0.1131695 -0.1133009 -0.1134333 -0.1135661 -0.1136943 -0.1138175 -0.1139322 -0.1140398 -0.1141409
 -0.1142382 -0.1143358 -0.1144351 -0.1145397 -0.114648 -0.1147607 -0.1148741 -0.1149866 -0.1150957 -0.1151997
 -0.1152989 -0.1153928 -0.1154838 -0.1155719 -0.1156594 -0.1157464 -0.1158343 -0.1159232 -0.116014 -0.1161068
 -0.1162017 -0.1162982 -0.1163951 -0.1164922 -0.1165878 -0.1166824 -0.1167764 -0.1168707 -0.1169669 -0.1170648
 -0.1171653 -0.1172663 -0.1173669 -0.1174642 -0.1175558 -0.1176413 -0.1177193 -0.1177941 -0.1178657 -0.1179413
 -0.1180218 -0.1181108 -0.1182089 -0.1183125 -0.1184213 -0.1185276 -0.1186311 -0.118727 -0.1188159 -0.1188984
 -0.1189756 -0.1190508 -0.1191243 -0.1191979 -0.1192713 -0.1193445 -0.1194179 -0.1194915 -0.1195667 -0.1196446
 -0.1197256 -0.1198105 -0.1198975 -0.1199865 -0.1200752 -0.1201628 -0.1202491 -0.1203338 -0.1204186 -0.1205036
 -0.1205892 -0.1206755 -0.1207601 -0.120843 -0.1209219 -0.1209971 -0.1210696 -0.1211401 -0.1212123 -0.1212861
 -0.121364 -0.121445 -0.1215284 -0.1216136 -0.1216994 -0.1217868 -0.1218762 -0.1219689 -0.1220662 -0.1221662
 -0.1222692 -0.1223719 -0.1224732 -0.1225728 -0.1226701 -0.1227677 -0.1228659 -0.1229664 -0.1230693 -0.1231733
 -0.1232782 -0.1233819 -0.1234843 -0.1235843 -0.1236819 -0.1237766 -0.1238686 -0.1239578 -0.1240449 -0.1241313
 -0.1242176 -0.1243059 -0.1243954 -0.1244868 -0.1245783 -0.1246689 -0.1247576 -0.1248434 -0.1249271 -0.1250085
 -0.1250898 -0.1251711 -0.125255 -0.125342 -0.1254325 -0.1255268 -0.125622 -0.1257179 -0.1258103 -0.1258991
 -0.1259827 -0.1260619 -0.1261389 -0.1262146 -0.1262923 -0.1263718 -0.1264547 -0.1265405 -0.1266292 -0.1267208
 -0.1268155 -0.1269124 -0.1270117 -0.1271113 -0.1272109 -0.1273074 -0.1273999 -0.1274878 -0.1275704 -0.1276498
 -0.1277262 -0.127802 -0.1278775 -0.1279524 -0.1280269 -0.1280993 -0.12817 -0.1282392 -0.1283076 -0.1283778
 -0.1284499 -0.1285253 -0.1286031 -0.1286822 -0.1287611 -0.1288377 -0.1289121 -0.1289835 -0.1290539 -0.1291239
 -0.1291961 -0.1292719 -0.1293515 -0.1294358 -0.129522 -0.1296101 -0.1296965 -0.1297807 -0.129861 -0.1299373
 -0.1300098 -0.1300786 -0.1301447 -0.1302082 -0.13027 -0.1303303 -0.1303901 -0.13045 -0.1305112 -0.130574
 -0.1306394 -0.1307066 -0.1307754 -0.1308438 -0.1309102 -0.1309736 -0.1310324 -0.1310881 -0.1311404 -0.1311928
 -0.1312463 -0.1313026 -0.1313625 -0.1314245 -0.1314884 -0.1315515 -0.1316135 -0.1316728 -0.1317294 -0.1317837
 -0.131836 -0.1318872 -0.1319375 -0.1319881 -0.1320396 -0.1320938 -0.1321515 -0.132215 -0.132285 -0.1323633
 -0.1324499 -0.1325453 -0.132648 -0.1327576 -0.1328721 -0.1329906 -0.1331116 -0.1332345 -0.1333589 -0.1334844
 -0.133612 -0.1337415 -0.133875 -0.1340124 -0.1341547 -0.1343017 -0.1344503 -0.1345994 -0.1347411 -0.1348742
 -0.1349895 -0.1350866 -0.1351593 -0.1352082 -0.1352317 -0.1352309 -0.135206 -0.1351587 -0.1350885 -0.1350024
 -0.1349012 -0.1348035 -0.1347156 -0.134657 -0.134636 -0.1346564 -0.1347222 -0.13482 -0.1349499 -0.1350866
 -0.1352287 -0.1353503 -0.1354508 -0.135521 -0.1355632 -0.1355901 -0.1356038 -0.1356201 -0.135638 -0.1356627
 -0.1356917 -0.1357221 -0.1357518 -0.1357764 -0.1357959 -0.1358086 -0.1358169 -0.135822 -0.1358254 -0.1358283
 -0.1358297 -0.1358293 -0.1358261 -0.1358196 -0.1358121 -0.1358036 -0.1357974 -0.1357939 -0.1357935 -0.1357962
 -0.1357989 -0.1358013 -0.1357995 -0.1357937 -0.1357827 -0.135768 -0.1357526 -0.1357387 -0.1357314 -0.1357312
 -0.1357413 -0.1357596 -0.1357858 -0.1358163 -0.1358488 -0.1358807 -0.1359102 -0.1359364 -0.1359588 -0.1359779
 -0.1359937 -0.1360064 -0.1360158 -0.1360223 -0.1360257 -0.1360275 -0.1360278 -0.1360292 -0.136032 -0.1360381
 -0.1360474 -0.1360606 -0.1360774 -0.1360977 -0.1361214 -0.1361484 -0.1361778 -0.1362085 -0.1362391 -0.1362674
 -0.1362926 -0.1363129 -0.1363295 -0.1363419 -0.1363535 -0.1363653 -0.1363795 -0.1363972 -0.1364176 -0.1364408
 -0.1364642 -0.1364874 -0.1365085 -0.1365276 -0.1365443 -0.1365587 -0.1365704 -0.1365797 -0.1365865 -0.1365911
 -0.1365948 -0.1365976 -0.1366011 -0.1366046 -0.1366081 -0.1366113 -0.1366138 -0.1366161 -0.1366186 -0.1366218
 -0.136626 -0.1366308 -0.1366361 -0.1366416 -0.136647 -0.1366533 -0.1366605 -0.1366687 -0.1366781 -0.1366872
 -0.1366959 -0.1367032 -0.1367093 -0.1367144 -0.1367188 -0.1367227 -0.1367261 -0.1367287 -0.1367307 -0.1367323
 -0.1367338 -0.1367362 -0.136739 -0.1367426 -0.1367454 -0.1367465 -0.1367452 -0.1367405 -0.1367349 -0.1367284
 -0.1367252 -0.1367265 -0.1367334 -0.1367469 -0.1367636 -0.1367837 -0.1368025 -0.13682 -0.1368333 -0.1368426
 -0.1368465 -0.1368454 -0.1368396 -0.1368298 -0.1368187 -0.1368074 -0.1368005 -0.1367979 -0.1368023 -0.1368114
 -0.1368242 -0.1368375 -0.1368483 -0.1368558 -0.1368584 -0.1368583 -0.136856 -0.1368541 -0.1368535 -0.1368542
 -0.1368567 -0.13686 -0.1368641 -0.1368691 -0.136875 -0.1368821 -0.1368903 -0.136898 -0.1369054 -0.136911
 -0.1369155 -0.1369203 -0.1369262 -0.1369358 -0.1369483 -0.1369641 -0.136981 -0.1369969 -0.1370107 -0.1370208
 -0.1370282 -0.137033 -0.1370366 -0.1370396 -0.1370423 -0.137045 -0.137048 -0.1370511 -0.1370561 -0.137063
 -0.1370732 -0.1370867 -0.1371028 -0.1371211 -0.1371386 -0.137155 -0.1371673 -0.1371758 -0.1371795 -0.1371789
 -0.1371747 -0.1371678 -0.1371596 -0.1371516 -0.1371455 -0.1371424 -0.1371437 -0.137149 -0.1371589 -0.1371714
 -0.137186 -0.1372003 -0.1372136 -0.1372243 -0.1372319 -0.1372358 -0.1372358 -0.1372323 -0.1372252 -0.1372154
 -0.1372028 -0.1371891 -0.1371744 -0.1371609 -0.1371489 -0.1371405 -0.1371352 -0.1371339 -0.1371355 -0.1371394
 -0.1371444 -0.1371492 -0.1371527 -0.1371538 -0.1371525 -0.1371479 -0.137142 -0.1371352 -0.1371303 -0.1371284
 -0.1371304 -0.1371369 -0.1371449 -0.1371542 -0.1371608 -0.1371643 -0.1371637 -0.1371593 -0.1371537 -0.1371472
 -0.1371429 -0.1371405 -0.1371405 -0.1371422 -0.1371446 -0.1371474 -0.1371495 -0.1371514 -0.1371533 -0.1371548
 -0.137156 -0.1371564 -0.1371557 -0.1371533 -0.1371491 -0.1371432 -0.1371358 -0.1371275 -0.1371184 -0.1371098
 -0.1371021 -0.1370967 -0.1370938 -0.1370929 -0.1370937 -0.1370932 -0.1370913 -0.1370856 -0.1370767 -0.1370658
 -0.1370533 -0.1370413 -0.1370296 -0.1370188 -0.1370085 -0.1369984 -0.1369896 -0.1369827 -0.1369787 -0.1369791
 -0.1369822 -0.1369883 -0.1369937 -0.1369974 -0.1369972 -0.1369924 -0.1369849 -0.1369747 -0.1369659 -0.1369588
 -0.1369553 -0.1369554 -0.1369574 -0.1369609 -0.1369636 -0.1369655 -0.1369658 -0.1369647 -0.1369629 -0.13696
 -0.1369561 -0.1369508 -0.1369435 -0.1369344 -0.1369233 -0.1369108 -0.136897 -0.1368826 -0.136868 -0.1368541
 -0.136841 -0.13683 -0.1368215 -0.1368153 -0.1368116 -0.1368083 -0.1368053 -0.1367996 -0.1367913 -0.136779
 -0.1367626 -0.1367427 -0.1367197 -0.1366952 -0.1366699 -0.1366462 -0.136624 -0.1366048 -0.1365876 -0.136572
 -0.1365563 -0.1365388 -0.1365194 -0.1364973 -0.1364739 -0.1364495 -0.136426 -0.136404 -0.1363839 -0.1363661
 -0.1363494 -0.1363336 -0.1363167 -0.1362986 -0.136278 -0.136255 -0.1362303 -0.1362043 -0.1361793 -0.1361554
 -0.1361343 -0.1361154 -0.136098 -0.1360812 -0.1360634 -0.1360444 -0.1360233 -0.1360012 -0.1359785 -0.1359563
 -0.1359354 -0.1359155 -0.135897 -0.1358785 -0.13586 -0.1358402 -0.135819 -0.1357961 -0.1357716 -0.1357459
 -0.1357191 -0.1356921 -0.135665 -0.1356388 -0.1356134 -0.1355892 -0.1355659 -0.1355425 -0.1355185 -0.1354923
 -0.1354643 -0.1354337 -0.1354017 -0.1353692 -0.135337 -0.1353063 -0.1352769 -0.1352492 -0.1352222 -0.1351955
 -0.1351689 -0.135142 -0.1351149 -0.1350874 -0.1350591 -0.13503 -0.1349997 -0.1349681 -0.1349361 -0.1349036
 -0.1348712 -0.1348386 -0.1348051 -0.1347705 -0.1347338 -0.1346957 -0.1346571 -0.1346186 -0.1345818 -0.1345465
 -0.1345132 -0.1344811 -0.1344497 -0.1344182 -0.1343863 -0.1343532 -0.1343186 -0.1342821 -0.1342433 -0.1342024
 -0.1341592 -0.1341143 -0.1340675 -0.1340192 -0.1339694 -0.1339188 -0.1338676 -0.1338169 -0.1337669 -0.1337186
 -0.1336718 -0.1336264 -0.1335819 -0.1335377 -0.1334932 -0.1334468 -0.1333985 -0.1333472 -0.1332941 -0.1332396
 -0.1331856 -0.1331334 -0.1330829 -0.1330346 -0.1329864 -0.1329375 -0.1328864 -0.1328325 -0.132777 -0.1327197
 -0.1326626 -0.132606 -0.1325503 -0.1324955 -0.1324408 -0.132386 -0.1323301 -0.1322734 -0.1322168 -0.1321609
 -0.132108 -0.1320581 -0.1320126 -0.1319696 -0.1319275 -0.1318833 -0.1318335 -0.1317772 -0.1317121 -0.1316406
 -0.1315628 -0.1314832 -0.1314031 -0.1313256 -0.1312517 -0.1311813 -0.1311149 -0.1310496 -0.1309851 -0.1309181
 -0.1308485 -0.130775 -0.130698 -0.1306188 -0.1305381 -0.1304586 -0.13038 -0.1303035 -0.1302277 -0.1301507
 -0.130072 -0.1299895 -0.1299051 -0.1298198 -0.1297354 -0.129654 -0.1295742 -0.1294961 -0.1294164 -0.129334
 -0.1292477 -0.1291568 -0.1290632 -0.128967 -0.1288694 -0.1287705 -0.1286701 -0.1285682 -0.1284649 -0.1283604
 -0.1282558 -0.1281512 -0.1280482 -0.1279464 -0.1278458 -0.127746 -0.127646 -0.1275454 -0.1274432 -0.1273395
 -0.1272342 -0.1271265 -0.1270163 -0.126902 -0.1267826 -0.1266596 -0.1265324 -0.1264066 -0.1262832 -0.1261652
 -0.1260538 -0.1259449 -0.1258382 -0.1257272 -0.1256115 -0.1254895 -0.1253617 -0.1252312 -0.1250979 -0.1249637
 -0.1248274 -0.1246864 -0.12454 -0.1243845 -0.1242216 -0.1240511 -0.1238761 -0.1236998 -0.1235236 -0.1233501
 -0.1231777 -0.1230065 -0.1228344 -0.1226603 -0.1224841 -0.1223056 -0.1221262 -0.1219463 -0.1217654 -0.1215837
 -0.1213954 -0.1212002 -0.1209889 -0.1207616 -0.1205142 -0.1202481 -0.1199695 -0.1196796 -0.1193867 -0.1190889
 -0.1187871 -0.1184777 -0.1181554 -0.1178179 -0.1174608 -0.1170844 -0.1166873 -0.1162708 -0.1158352 -0.1153812
 -0.1149095 -0.1144179 -0.1139064 -0.1133709 -0.1128104 -0.1122269 -0.1116198 -0.111001 -0.110371 -0.1097386
 -0.109103 -0.1084612 -0.107813 -0.1071549 -0.1064894 -0.1058229 -0.1051556 -0.1044931 -0.1038292 -0.1031563
 -0.102472 -0.1017666 -0.1010547 -0.1003412 -0.09964634 -0.09898364 -0.09835575 -0.09776825 -0.09721078 -0.09668174
 -0.09617489 -0.09568891 -0.09522267 -0.09477633 -0.09434281 -0.0939216 -0.09349835 -0.0930731 -0.09264022 -0.09220251
 -0.09177222 -0.09135059 -0.09094975 -0.09056523 -0.0901937 -0.08982982 -0.08946379 -0.08909324 -0.08871303 -0.08831936
 -0.08791105 -0.08747518 -0.08700789 -0.08648963 -0.08591312 -0.08526559 -0.08454062 -0.08374535 -0.08287805 -0.08196202
 -0.08099864 -0.08001325 -0.07900719 -0.07799745 -0.07698333 -0.07596477 -0.07493698 -0.07387495 -0.07277318 -0.0715951
 -0.07035045 -0.06903564 -0.06767988 -0.06632967 -0.06499662 -0.06371875 -0.06247259 -0.06125328 -0.06003814 -0.05880919
 -0.05757375 -0.05632782 -0.05509297 -0.05387422 -0.05268191 -0.05151793 -0.05039019 -0.04929911 -0.04825795 -0.04726733
 -0.04632723 -0.04543692 -0.04458572 -0.04377539 -0.04301034 -0.04229325 -0.04163921 -0.04104139 -0.040495 -0.03998471
 -0.03948252 -0.03898323 -0.03846489 -0.03794507 -0.03743013 -0.03693461 -0.03647214 -0.03603324 -0.03561715 -0.03521608
 -0.03482486 -0.03445775 -0.03411527 -0.03381669 -0.03356436 -0.03336241 -0.03321112 -0.03310546 -0.03304538 -0.03302927
 -0.0330571 -0.0331289 -0.03324281 -0.03339313 -0.03357652 -0.03378347 -0.03400924 -0.0342438 -0.03447944 -0.03470512
 -0.03491186 -0.03508968 -0.03523235 -0.0353348 -0.03539146 -0.03540069 -0.03535284 -0.0352452 -0.03507182 -0.03482995
 -0.03452827 -0.03416695 -0.03375925 -0.03330592 -0.03280806 -0.03226528 -0.03167166 -0.03102794 -0.03033507 -0.02959554
 -0.02881847 -0.02800616 -0.02716833 -0.02630653 -0.02542738 -0.02453194 -0.02362373 -0.02270361 -0.02177335 -0.02083331
 -0.01988471 -0.01892545 -0.01795583 -0.01697041 -0.01596772 -0.01494497 -0.01390075 -0.01283945 -0.01176076 -0.01067607
 -0.009585939 -0.00850911 -0.007446644 -0.006418211 -0.005422856 -0.004464482 -0.003541437 -0.002645641 -0.001785283 -0.0009717277
 -0.0002238088 0.0004207836 0.0009523993 0.00134325 0.001596375 0.001705826 0.001674641 0.001502111 0.001194233 0.0007532609
 0.0001833306 -0.0005086688 -0.001350825 -0.002342909 -0.003538861 -0.004947491 -0.006563751 -0.008388719 -0.01031502 -0.01233814
 -0.01436972 -0.01641702 -0.01848532 -0.02058076 -0.02273258 -0.02493328 -0.02718013 -0.02946094 -0.03175103 -0.03404958
 -0.0363442 -0.03864245 -0.04095523 -0.04325949 -0.04555931 -0.04778318 -0.04990322 -0.05187605 -0.05367496 -0.05533555
 -0.05685722 -0.05829263 -0.05964887 -0.06094011 -0.06216784 -0.06332154 -0.06440125 -0.06540593 -0.06633738 -0.06720786
 -0.06801794 -0.06877658 -0.06948266 -0.0701367 -0.0707406 -0.07129543 -0.07180978 -0.07229286 -0.07275598 -0.07321233
 -0.07366634 -0.07412579 -0.07458542 -0.07504544 -0.07549864 -0.07594322 -0.0763742 -0.07679135 -0.07718498 -0.07755439
 -0.07788779 -0.07818424 -0.07844491 -0.07867014 -0.07886703 -0.07903459 -0.07916921 -0.07926883 -0.0793222 -0.0793302
 -0.07928924 -0.07920121 -0.07906953 -0.07889114 -0.0786644 -0.0783843 -0.07804453 -0.07764671 -0.07718865 -0.07667771
 -0.07611659 -0.07550964 -0.07485894 -0.07416454 -0.07342651 -0.07264636 -0.07182434 -0.07096102 -0.07005654 -0.0691058
 -0.06810919 -0.06707161 -0.06599808 -0.06492677 -0.06386385 -0.0628584 -0.0619058 -0.06102038 -0.06019111 -0.05940248
 -0.05865179 -0.05792866 -0.05723525 -0.05657366 -0.05593389 -0.05531326 -0.05469425 -0.05406544 -0.05343114 -0.05278633
 -0.05215859 -0.05155368 -0.05098162 -0.05044645 -0.04992727 -0.04942322 -0.04890736 -0.0483788 -0.04782322 -0.04724137
 -0.04663249 -0.04599694 -0.04533701 -0.04464947 -0.04392822 -0.04316664 -0.04234851 -0.0414723 -0.04052546 -0.03952074
 -0.03846279 -0.03737029 -0.03625701 -0.03513132 -0.03399957 -0.03286636 -0.03173118 -0.03061175 -0.02950921 -0.02845051
 -0.02743903 -0.0264922 -0.02561171 -0.02479995 -0.024057 -0.02338203 -0.02277583 -0.0222447 -0.02178959 -0.021419
 -0.02113112 -0.0209258 -0.02079965 -0.02074556 -0.02076267 -0.02084621 -0.02099843 -0.02121993 -0.021512 -0.02187631
 -0.022311 -0.02281604 -0.02338836 -0.02402699 -0.02473024 -0.02549765 -0.02632831 -0.02722269 -0.02817416 -0.02918279
 -0.03022863 -0.0313103 -0.03239959 -0.03349537 -0.03457627 -0.03564207 -0.03668125 -0.03769215 -0.03866427 -0.03959564
 -0.04047592 -0.04130844 -0.04209113 -0.04283439 -0.04354591 -0.04423761 -0.04491919 -0.04559839 -0.04628151 -0.04696983
 -0.04766581 -0.0483649 -0.04906744 -0.04976421 -0.05045454 -0.0511277 -0.05178291 -0.05241084 -0.05301103 -0.05357625
 -0.05410602 -0.0545932 -0.05503726 -0.05543143 -0.05577636 -0.05606945 -0.0563137 -0.05651293 -0.05667182 -0.05679776
 -0.05689576 -0.05697224 -0.05703328 -0.05708334 -0.05713085 -0.05717953 -0.05723927 -0.05731381 -0.0574093 -0.0575285
 -0.05766898 -0.05783162 -0.05800585 -0.05819118 -0.05837426 -0.05855446 -0.05872178 -0.05887625 -0.05901409 -0.05913542
 -0.05923923 -0.05932431 -0.05938698 -0.05942512 -0.05943216 -0.05940803 -0.05934863 -0.05925816 -0.0591383 -0.05899562
 -0.0588345 -0.05866097 -0.05847836 -0.05829197 -0.05810356 -0.05791898 -0.05773952 -0.0575702 -0.05741203 -0.05726643
 -0.0571338 -0.05701048 -0.05689622 -0.05678436 -0.05667457 -0.0565608 -0.05644333 -0.05631988 -0.05619187 -0.0560617
 -0.05593233 -0.05580993 -0.05569936 -0.05560921 -0.05554571 -0.05551775 -0.05553049 -0.05559087 -0.05569878 -0.05585757
 -0.05605927 -0.05630414 -0.05657605 -0.05687339 -0.05717409 -0.05747584 -0.0577557 -0.05801163 -0.05822747 -0.05840249
 -0.0585311 -0.05861383 -0.05865373 -0.05865162 -0.05861298 -0.05853863 -0.05843352 -0.05829914 -0.05814033 -0.05796002
 -0.05776417 -0.05755601 -0.05734121 -0.05712105 -0.05689858 -0.05667241 -0.05644247 -0.05620791 -0.05596776 -0.05572475
 -0.05547872 -0.05523544 -0.05499557 -0.05476439 -0.05454246 -0.05433229 -0.05413398 -0.05394745 -0.0537725 -0.05360733
 -0.05345156 -0.05330224 -0.05315929 -0.0530206 -0.05288699 -0.05275894 -0.05263795 -0.05252689 -0.05242553 -0.05233553
 -0.05225364 -0.05217881 -0.05210587 -0.05203237 -0.05195363 -0.05186772 -0.05177116 -0.05166291 -0.05154068 -0.05140394
 -0.05125208 -0.05108494 -0.05090334 -0.05070734 -0.05049914 -0.05027923 -0.0500531 -0.04982218 -0.04959665 -0.04937856
 -0.0491799 -0.04900222 -0.04885468 -0.04873809 -0.04865742 -0.04861328 -0.04860803 -0.04864217 -0.04871702 -0.04883197
 -0.04898767 -0.0491811 -0.04941231 -0.04967487 -0.04996839 -0.05028237 -0.05061602 -0.05095579 -0.05130077 -0.05163603
 -0.05196069 -0.05225807 -0.05252693 -0.05274818 -0.05292018 -0.05302381 -0.053058 -0.05300866 -0.05287639 -0.05265519
 -0.05234734 -0.05195311 -0.05147649 -0.05092067 -0.05029253 -0.04959638 -0.04884307 -0.0480377 -0.04719317 -0.0463143
 -0.04541258 -0.04449116 -0.0435589 -0.0426174 -0.04167335 -0.04072761 -0.03978339 -0.0388409 -0.03789723 -0.03695165
 -0.03599488 -0.035025 -0.03402766 -0.0329987 -0.03191813 -0.03077818 -0.02955244 -0.02823198 -0.02678935 -0.02522374
 -0.02351769 -0.02169248 -0.01974863 -0.01773855 -0.01567874 -0.0136485 -0.01167198 -0.009836312 -0.008164366 -0.006724466
 -0.005532504 -0.00461394 -0.003975501 -0.003591052 -0.003459568 -0.003516336 -0.003756364 -0.004100056 -0.004541344 -0.005005018
 -0.005484952 -0.005920259 -0.006305804 -0.00659926 -0.006798652 -0.006881048 -0.006849868 -0.006698067 -0.006436692 -0.006069232
 -0.005614238 -0.005079986 -0.004488748 -0.003848716 -0.003181608 -0.002492836 -0.001803297 -0.001116171 -0.0004518779 0.0001872365
 0.0007875995 0.001348229 0.001870651 0.002355956 0.002819986 0.003264788 0.003710461 0.00415902 0.004627236 0.005118818
 0.005648909 0.006225548 0.006866721 0.007584175 0.00839773 0.009317298 0.01035862 0.01152199 0.01281491 0.01422341
 0.01574718 0.01736058 0.01905931 0.02081347 0.02261882 0.02444659 0.02629431 0.02813254 0.02995956 0.0317414
 0.03347597 0.03512744 0.03669384 0.03814479 0.03947927 0.04067727 0.0417388 0.04265373 0.04342296 0.04404376
 0.04451632 0.04484061 0.04501443 0.04503591 0.04490372 0.04461407 0.04417586 0.04358731 0.04287434 0.04203874
 0.04112332 0.04013189 0.03912033 0.03809305 0.03711062 0.03617689 0.03534229 0.03460814 0.03400026 0.03351565
 0.03314988 0.03289448 0.03271782 0.03260595 0.03250986 0.03241445 0.03227108 0.03207164 0.03178431 0.03141552
 0.0309543 0.03042792 0.02984062 0.02924439 0.02865316 0.02813471 0.02770696 0.02742814 0.02731277 0.02738414
 0.02764888 0.02808918 0.02870506 0.02944604 0.03030789 0.03121613 0.03216302 0.03306076 0.03389987 0.03459703
 0.035144 0.03547818 0.03559365 0.03545235 0.03504973 0.03436523 0.03339719 0.03213548 0.03058694 0.02874856
 0.0266423 0.02427057 0.02167366 0.01885701 0.01587891 0.01274583 0.009529754 0.006237151 0.002942018 -0.0003505511
 -0.003582134 -0.006750823 -0.009825772 -0.01280841 -0.01569342 -0.01848421 -0.02119095 -0.02381753 -0.02637936 -0.02887896
 -0.0313288 -0.03372756 -0.03608029 -0.03837962 -0.04062321 -0.04279721 -0.04489538 -0.04689833 -0.04879902 -0.0505751
 -0.05222059 -0.05371337 -0.0550492 -0.05620913 -0.05719038 -0.05798185 -0.05858221 -0.05899647 -0.05922589 -0.05929716
 -0.05921466 -0.05902266 -0.05872744 -0.05837795 -0.05798053 -0.05757704 -0.05717171 -0.05679242 -0.05643865 -0.05612248
 -0.0558372 -0.05558175 -0.0553474 -0.05512768 -0.05491968 -0.05471886 -0.05453193 -0.05435847 -0.05421151 -0.05409252
 -0.05401687 -0.05398617 -0.05401507 -0.05410482 -0.0542629 -0.05448907 -0.05477566 -0.05511999 -0.05549844 -0.05590668
 -0.05631427 -0.05671632 -0.05708424 -0.0574136 -0.05768234 -0.05788917 -0.05802164 -0.05808566 -0.05808007 -0.05801792
 -0.05790532 -0.05775787 -0.05758244 -0.05739414 -0.05719762 -0.05700751 -0.05682694 -0.05666788 -0.05653252 -0.05642475
 -0.05634534 -0.05628669 -0.05624809 -0.05621343 -0.05618133 -0.05613368 -0.05606933 -0.05597347 -0.05584576 -0.05567695
 -0.05546863 -0.0552182 -0.05493092 -0.05461129 -0.05426805 -0.0539104 -0.05354616 -0.05318381 -0.05282469 -0.05247281
 -0.05212178 -0.05177135 -0.05141196 -0.05104168 -0.05065406 -0.05024753 -0.04982324 -0.04938083 -0.04892985 -0.04847094
 -0.0480181 -0.04757185 -0.04714303 -0.04673054 -0.04633569 -0.04595548 -0.04558212 -0.04521254 -0.04483673 -0.04445355
 -0.04405707 -0.04364781 -0.04322398 -0.04278705 -0.04233684 -0.04187686 -0.04140792 -0.04093542 -0.04046121 -0.0399888
 -0.03951951 -0.03905305 -0.03858912 -0.03813069 -0.03767735 -0.03724479 -0.03683415 -0.03647294 -0.03616275 -0.03593016
 -0.0357749 -0.03571056 -0.03573436 -0.03584607 -0.03604082 -0.03631086 -0.03664673 -0.03703547 -0.03745941 -0.03790007
 -0.03833424 -0.03874196 -0.03910503 -0.03940905 -0.03964929 -0.03981973 -0.03992791 -0.03997303 -0.03997037 -0.03992103
 -0.03984368 -0.03973985 -0.03962363 -0.03949555 -0.03935794 -0.03920997 -0.03904442 -0.03886061 -0.03865106 -0.03841664
 -0.03815578 -0.03787038 -0.03756385 -0.03723697 -0.03689323 -0.03653011 -0.03614695 -0.03573947 -0.03530449 -0.03483921
 -0.03434175 -0.03380981 -0.03324371 -0.03263513 -0.03198374 -0.03127499 -0.03050709 -0.0296675 -0.02875456 -0.02776799
 -0.02670814 -0.02559658 -0.02443792 -0.02328333 -0.02214303 -0.02109431 -0.02014817 -0.01938227 -0.01879676 -0.01843599
 -0.01827855 -0.01831969 -0.01851673 -0.01883059 -0.01920946 -0.01960852 -0.01998322 -0.02030138 -0.02053702 -0.02067269
 -0.02070707 -0.02063278 -0.02047763 -0.02024116 -0.01997457 -0.01968123 -0.01941506 -0.01917882 -0.01900609 -0.01889589
 -0.01885067 -0.01886551 -0.01891671 -0.01899885 -0.01908075 -0.01916221 -0.01922613 -0.0192784 -0.01932123 -0.01935828
 -0.01939685 -0.01943084 -0.0194603 -0.01947231 -0.01946071 -0.01941578 -0.01933196 -0.01920841 -0.01904223 -0.01884432
 -0.01861406 -0.01837498 -0.0181282 -0.0179056 -0.01770888 -0.01756416 -0.01747112 -0.0174357 -0.0174537 -0.01750623
 -0.01758751 -0.01766773 -0.01774494 -0.01779927 -0.01783368 -0.01784474 -0.01783413 -0.01780364 -0.0177505 -0.01767287
 -0.01756975 -0.01743818 -0.01728563 -0.0171128 -0.01693128 -0.01674388 -0.0165584 -0.01637672 -0.01620069 -0.01603085
 -0.0158649 -0.01570273 -0.01553912 -0.01537355 -0.01519814 -0.01501217 -0.01480697 -0.01458308 -0.01433701 -0.01407139
 -0.0137906 -0.01349669 -0.01319557 -0.01288627 -0.01256975 -0.01224535 -0.01191173 -0.01157233 -0.0112284 -0.0108832
 -0.01053883 -0.01019406 -0.009849037 -0.009501984 -0.009152356 -0.008801484 -0.008449468 -0.008096978 -0.007744058 -0.00739078
 -0.007037275 -0.006685437 -0.006335204 -0.005987707 -0.005641765 -0.00529355 -0.004942523 -0.004584667 -0.004222144 -0.003856364
 -0.003490216 -0.003127699 -0.002770101 -0.002419484 -0.002077006 -0.001742669 -0.001421419 -0.001113653 -0.0008292206 -0.0005704411
 -0.0003451949 -0.0001564804 1.829334E-06 0.0001287858 0.0002477451 0.0003599607 0.0004897946 0.0006373493 0.000809279 0.001003449
 0.001209988 0.001427569 0.001645489 0.001865354 0.002085522 0.002308407 0.002538531 0.002774056 0.003016911 0.003257974
 0.003491041 0.003707988 0.003899936 0.004073116 0.004224721 0.004375271 0.004529972 0.004700762 0.00489365 0.005088909
 0.005285814 0.005459284 0.005607704 0.005725935 0.005814483 0.005880056 0.005923939 0.005957595 0.005981557 0.00600506
 0.006025332 0.006040597 0.006047096 0.006035931 0.006009532 0.005964975 0.005912245 0.005857777 0.005811394 0.005781262
 0.005769423 0.005779845 0.005806259 0.005848389 0.005897681 0.005952378 0.006009012 0.006066909 0.006126602 0.006188187
 0.006245277 0.006296817 0.006324846 0.006328226 0.006289604 0.006210698 0.006087485 0.005925259 0.005733044 0.005520525
 0.005305477 0.00510308 0.004937516 0.004821883 0.004779329 0.004802 0.004898157 0.005034539 0.005202503 0.005366941
 0.005514765 0.005636228 0.005724776 0.005799437 0.005860961 0.005932531 0.006015879 0.006112966 0.006223279 0.006335774
 0.006451563 0.006572769 0.006702309 0.006854404 0.007027724 0.007227458 0.007447614 0.00767989 0.007919679 0.008157462
 0.008392446 0.008620803 0.008842926 0.009058391 0.00926649 0.009467343 0.009658316 0.009838716 0.01000663 0.01016094
 0.01030546 0.01044016 0.01057231 0.01070243 0.01083222 0.01096138 0.01108398 0.01119994 0.01130532 0.01140142
 0.01149178 0.01157689 0.01166109 0.0117411 0.01181394 0.011874 0.01191158 0.01192726 0.01191421 0.01188769
 0.01185233 0.01182934 0.0118306 0.01186024 0.01192472 0.01200773 0.01210748 0.01220978 0.01231218 0.0124133
 0.01251293 0.01260849 0.01269954 0.01277666 0.01284029 0.01288851 0.01292419 0.01295839 0.01299323 0.01304096
 0.01309997 0.01317435 0.01325791 0.0133457 0.01342865 0.01349619 0.01354518 0.01356761 0.01357448 0.01356757
 0.0135601 0.0135592 0.0135578 0.01355872 0.01353397 0.01348089 0.01337564 0.01321593 0.01300122 0.01273222
 0.01242709 0.0120873 0.01173232 0.01136219 0.01098678 0.01060656 0.0102266 0.009850525 0.009486929 0.009140124
 0.008819682 0.008526911 0.008266008 0.00803792 0.007843916 0.007686106 0.007567403 0.007481886 0.007431156 0.007396311
 0.007374987 0.00734677 0.007308242 0.007253147 0.00718038 0.007100659 0.007014137</values></Ydata></AB><ScSm><Ydata ylabel="Single channel"><values byteorder="INTEL" format="FLOAT32" numvalues="1814"> 0.08574535 0.08585868 0.08598746 0.08613981 0.08630857 0.08647636 0.08662772 0.08676009 0.08688115 0.08699502
 0.08710055 0.08720633 0.08733326 0.0874936 0.08767406 0.08784319 0.08797471 0.08807133 0.08816905 0.08830312
 0.0884614 0.08858264 0.08861309 0.08856307 0.0885025 0.08849879 0.08857154 0.08872379 0.08898278 0.08933575
 0.08963718 0.08970101 0.08953246 0.0893635 0.08939671 0.08960129 0.0898066 0.08989225 0.08983701 0.08970094
 0.08964698 0.08989055 0.0905057 0.09126537 0.09171131 0.09141824 0.09027506 0.08863847 0.08725175 0.08686052
 0.08767576 0.08914012 0.09034351 0.09075993 0.0905376 0.09011239 0.08974871 0.08953083 0.08956838 0.08998001
 0.09070219 0.09141061 0.09164814 0.09112576 0.0900466 0.08907001 0.08877366 0.08920467 0.09007975 0.09113245
 0.09185936 0.09125617 0.08869946 0.08530603 0.08360049 0.08518736 0.08907124 0.09269079 0.09425475 0.09370203
 0.09196974 0.09015834 0.08923513 0.08970666 0.09129137 0.09319972 0.09476151 0.09560671 0.09549925 0.09444503
 0.09291519 0.09164946 0.09124319 0.09197161 0.09368043 0.0956203 0.09674242 0.09652105 0.09534936 0.09402782
 0.09317092 0.09317087 0.09423196 0.09613382 0.09824743 0.09999717 0.1011609 0.1017506 0.101874 0.1017115
 0.1014262 0.1011392 0.1010507 0.1013392 0.1018148 0.1019561 0.1014893 0.1007583 0.1003763 0.1005935
 0.1010819 0.1013318 0.1011586 0.1006144 0.09946901 0.0973146 0.0943979 0.09176487 0.09024142 0.08984673
 0.09045245 0.09214038 0.09440059 0.0958719 0.09570523 0.09470874 0.09447845 0.09567077 0.09758101 0.09917229
 0.1000851 0.1007032 0.1015501 0.1026984 0.1036151 0.1035553 0.1023226 0.1007491 0.1001458 0.1010353
 0.1026421 0.1038463 0.1043614 0.1047079 0.1052887 0.1058029 0.1055096 0.1040222 0.1019745 0.1008006
 0.1015557 0.1038739 0.106156 0.1067772 0.1052421 0.1024544 0.0999594 0.09883133 0.09925087 0.1009456
 0.1035767 0.106572 0.1090284 0.1101679 0.1098783 0.1086961 0.1072199 0.105552 0.1035065 0.1014697
 0.1006349 0.1018913 0.1046842 0.1074526 0.1090704 0.1094765 0.1090477 0.1078408 0.1056832 0.1029441
 0.1008869 0.100741 0.102306 0.1039879 0.1044905 0.1040311 0.1036313 0.1037203 0.1038919 0.1037473
 0.1034909 0.103634 0.1043379 0.1052049 0.1056993 0.1056439 0.1052617 0.1048589 0.1045343 0.1041251
 0.1034573 0.1027272 0.1024904 0.1030794 0.1041603 0.1050684 0.1054642 0.1054727 0.105286 0.104839
 0.1039273 0.1026129 0.1014241 0.1009858 0.1014132 0.1022233 0.1028497 0.1030651 0.1029289 0.1025785
 0.1021376 0.1016801 0.1012384 0.1008849 0.1007272 0.1007622 0.1008292 0.1007688 0.1005552 0.1002393
 0.09984346 0.0993624 0.09882845 0.09833489 0.09797921 0.09778471 0.09769344 0.09762762 0.09752497 0.0973292
 0.0970089 0.09659737 0.09616977 0.09577438 0.09541656 0.09509997 0.0948431 0.094648 0.094478 0.09428248
 0.09403789 0.09375419 0.09344673 0.09311986 0.09278132 0.09245466 0.09216895 0.09193853 0.091749 0.09156559
 0.09137107 0.09118775 0.09103603 0.09088272 0.09066965 0.09038852 0.09009224 0.08983529 0.08963157 0.08946289
 0.08930108 0.08911754 0.08888894 0.08861241 0.08832417 0.08808988 0.0879568 0.08791927 0.08793769 0.08797133
 0.08798227 0.08794075 0.08785009 0.0877448 0.08764917 0.08755507 0.0874465 0.08733003 0.0872374 0.08720222
 0.08722788 0.08727957 0.08731487 0.08731496 0.08728375 0.08724066 0.08721986 0.08724296 0.08728054 0.08727548
 0.08721697 0.08715951 0.08715472 0.08719119 0.08721669 0.0872018 0.08716686 0.08715204 0.08717465 0.08721989
 0.08726653 0.08731161 0.08736955 0.08744952 0.08753297 0.08757897 0.0875646 0.08751643 0.08748559 0.08749539
 0.08753233 0.08758307 0.08765385 0.08774908 0.08785032 0.08792928 0.08797719 0.08801437 0.08806688 0.08813614
 0.08819881 0.08823597 0.08825421 0.08827598 0.08831791 0.08838028 0.08845007 0.08851126 0.08855499 0.0885824
 0.08859913 0.08860931 0.08861429 0.08861788 0.08863474 0.08868736 0.08878025 0.08887671 0.0889181 0.08887686
 0.08878519 0.08870539 0.08867512 0.08868362 0.08869371 0.08867952 0.08864354 0.08860518 0.08858125 0.08857721
 0.08858895 0.08860885 0.08863467 0.08867653 0.0887481 0.08884449 0.08893592 0.08899365 0.08902065 0.08904767
 0.08910164 0.0891861 0.08928848 0.08939733 0.08951236 0.08964354 0.08979774 0.08996524 0.09012682 0.09027691
 0.09043103 0.09060942 0.09082235 0.091069 0.09133524 0.09159302 0.09181932 0.09202185 0.09223387 0.09247957
 0.09275393 0.09303857 0.09332606 0.09362254 0.09393494 0.09426437 0.0946106 0.09497674 0.09536683 0.09577921
 0.09620333 0.09662557 0.09704092 0.09745927 0.09789707 0.09836193 0.09884624 0.09933534 0.09981993 0.1003012
 0.100786 0.1012776 0.1017732 0.1022712 0.1027796 0.1033096 0.1038602 0.1044161 0.1049633 0.1055012
 0.1060391 0.1065833 0.107133 0.1076877 0.1082539 0.1088398 0.1094396 0.1100302 0.1105909 0.1111236
 0.1116498 0.1121897 0.11275 0.1133239 0.1138929 0.1144368 0.1149523 0.1154594 0.1159793 0.1165106
 0.117037 0.1175564 0.1180882 0.1186468 0.119216 0.1197587 0.1202538 0.1207176 0.1211831 0.1216623
 0.1221358 0.1225805 0.1229991 0.1234145 0.1238421 0.124279 0.1247212 0.1251775 0.1256551 0.1261387
 0.1266 0.1270268 0.127431 0.1278274 0.1282155 0.1285844 0.1289282 0.1292564 0.1295916 0.1299511
 0.1303291 0.1307053 0.131073 0.1314473 0.131844 0.1322626 0.1326989 0.1331569 0.1336373 0.134125
 0.1346043 0.1350848 0.1355928 0.1361289 0.136653 0.137125 0.137549 0.1379616 0.1383863 0.1388222
 0.1392704 0.1397447 0.1402522 0.1407776 0.1412928 0.1417781 0.1422365 0.142692 0.1431662 0.1436508
 0.1441089 0.1445109 0.1448634 0.1451992 0.1455469 0.1459123 0.1462813 0.1466334 0.1469532 0.1472291
 0.1474452 0.1475839 0.1476448 0.1476492 0.1476149 0.1475307 0.1473638 0.1470874 0.1466918 0.1461697
 0.1455076 0.1446995 0.1437715 0.1427944 0.1418723 0.1411134 0.1405995 0.1403688 0.140417 0.1407022
 0.141149 0.1416566 0.1421173 0.142433 0.1425263 0.1423511 0.1419049 0.14123 0.1403943 0.1394678
 0.1385121 0.1375771 0.1367034 0.1359381 0.1353609 0.1350928 0.1352665 0.1359797 0.1372576 0.1390304
 0.1411276 0.1433144 0.1453745 0.1471869 0.1487388 0.1500787 0.1512659 0.1523504 0.1533709 0.1543497
 0.1552904 0.1561891 0.1570478 0.1578731 0.1586645 0.15941 0.1600929 0.160699 0.1612214 0.161665
 0.1620469 0.162391 0.1627209 0.1630536 0.1633892 0.1636969 0.1639179 0.1639921 0.1638898 0.1636306
 0.163293 0.1630225 0.1630234 0.1635094 0.1646137 0.1663081 0.1683982 0.1706105 0.1727078 0.1745517
 0.1760975 0.1773657 0.1784167 0.1793225 0.1801386 0.1808958 0.1816121 0.1823011 0.1829696 0.1836172
 0.1842426 0.1848505 0.1854513 0.186054 0.186659 0.1872579 0.187844 0.1884208 0.1889997 0.1895879
 0.1901804 0.190765 0.1913367 0.1919028 0.1924711 0.193036 0.1935833 0.1941077 0.1946196 0.1951343
 0.1956603 0.1961964 0.1967331 0.1972572 0.1977611 0.1982474 0.1987235 0.1991923 0.1996537 0.2001105
 0.2005675 0.2010246 0.2014766 0.2019208 0.2023613 0.2028031 0.2032439 0.2036751 0.2040911 0.2044966
 0.2049038 0.205322 0.2057509 0.2061836 0.2066159 0.2070509 0.2074955 0.207951 0.2084088 0.2088567
 0.2092905 0.2097176 0.2101491 0.21059 0.2110376 0.2114859 0.2119301 0.212368 0.2128015 0.2132366
 0.2136791 0.2141289 0.2145807 0.2150278 0.2154664 0.2158968 0.2163236 0.2167538 0.2171922 0.2176382
 0.2180873 0.2185348 0.2189771 0.2194123 0.21984 0.2202619 0.2206805 0.2210989 0.2215198 0.2219452
 0.2223762 0.2228134 0.2232552 0.2236986 0.224142 0.2245865 0.2250334 0.2254836 0.2259377 0.2263941
 0.2268493 0.227301 0.2277509 0.2282002 0.2286471 0.2290902 0.2295311 0.2299716 0.2304134 0.2308571
 0.2313014 0.2317428 0.2321795 0.2326126 0.2330431 0.2334716 0.2339004 0.2343317 0.2347642 0.2351926
 0.2356121 0.2360229 0.2364325 0.236849 0.2372725 0.2376949 0.2381098 0.2385173 0.2389202 0.2393214
 0.2397239 0.2401289 0.2405362 0.2409463 0.2413599 0.241776 0.2421934 0.2426105 0.2430246 0.2434321
 0.2438333 0.244231 0.2446297 0.2450343 0.2454476 0.2458649 0.2462793 0.246691 0.2471035 0.2475161
 0.247926 0.2483351 0.2487465 0.2491612 0.2495806 0.2500059 0.2504355 0.250867 0.2512996 0.2517315
 0.2521601 0.2525861 0.2530102 0.2534302 0.2538452 0.2542582 0.25467 0.255078 0.255481 0.2558798
 0.2562773 0.256681 0.2570975 0.2575226 0.257946 0.2583642 0.2587815 0.2592024 0.2596308 0.2600687
 0.2605107 0.26095 0.2613864 0.2618223 0.2622567 0.262693 0.2631375 0.2635891 0.2640398 0.2644866
 0.2649319 0.2653763 0.2658224 0.2662756 0.2667359 0.2671985 0.2676612 0.2681214 0.2685751 0.2690247
 0.2694771 0.2699303 0.2703788 0.2708268 0.2712812 0.27174 0.2721986 0.272655 0.2731054 0.2735487
 0.2739925 0.2744412 0.2748913 0.2753433 0.2758022 0.2762639 0.2767217 0.2771774 0.2776324 0.2780828
 0.2785311 0.2789819 0.2794266 0.2798563 0.2802792 0.2807057 0.2811351 0.2815666 0.2819989 0.2824146
 0.2827834 0.2830446 0.2830309 0.2823778 0.2804727 0.2764664 0.2694376 0.2587557 0.2444537 0.2273412
 0.2087836 0.190279 0.1730503 0.1578731 0.1451636 0.1351371 0.1279212 0.1236577 0.1225855 0.1251528
 0.1321672 0.1443191 0.1604269 0.1759157 0.184519 0.1830142 0.1741379 0.1641045 0.1575464 0.1552323
 0.1556181 0.1571615 0.1592401 0.1619883 0.1657748 0.170655 0.1763087 0.1825691 0.1897359 0.1981155
 0.2074209 0.2168726 0.2258487 0.2342851 0.2424525 0.2504774 0.2581521 0.2651363 0.2712215 0.2764018
 0.2808066 0.2846188 0.2880042 0.2910724 0.293896 0.2965171 0.2988959 0.3008846 0.3023158 0.3031385
 0.3034799 0.3035817 0.3036663 0.3038441 0.3041333 0.3045291 0.3050276 0.3056141 0.3062688 0.3069772
 0.3077205 0.3084756 0.3092279 0.3099694 0.310687 0.311369 0.3120147 0.3126276 0.3132105 0.3137705
 0.3143131 0.3148369 0.3153426 0.315838 0.3163279 0.316811 0.3172877 0.3177568 0.318209 0.3186351
 0.3190341 0.3194093 0.3197678 0.3201241 0.3204887 0.3208576 0.3212211 0.3215747 0.321917 0.3222492
 0.3225791 0.3229154 0.3232595 0.3236067 0.3239525 0.3242912 0.3246208 0.3249472 0.3252764 0.3256064
 0.3259364 0.3262722 0.3266159 0.3269601 0.3272972 0.3276279 0.327962 0.3283134 0.3286875 0.3290739
 0.3294562 0.3298303 0.3302037 0.330582 0.3309657 0.331354 0.3317447 0.3321354 0.3325264 0.3329149
 0.3332886 0.3336344 0.3339516 0.3342527 0.334555 0.3348715 0.3352018 0.3355346 0.3358617 0.3361856
 0.336511 0.336838 0.3371669 0.3374978 0.3378319 0.3381762 0.3385407 0.3389236 0.339312 0.3397008
 0.3400963 0.3405001 0.3409049 0.3413078 0.341709 0.3421032 0.342482 0.3428509 0.3432338 0.3436574
 0.344124 0.3446022 0.345055 0.3454744 0.3458802 0.3462934 0.3467245 0.3471667 0.3475857 0.3479402
 0.3482404 0.3485636 0.348983 0.3494942 0.3500306 0.3505359 0.3510012 0.3514446 0.3518764 0.352288
 0.3526649 0.3530025 0.3533208 0.3536685 0.3540967 0.3546062 0.3551371 0.3556264 0.3560598 0.3564557
 0.3568324 0.3572043 0.3575626 0.3578529 0.3580286 0.3581554 0.3584028 0.358882 0.3595234 0.3601501
 0.3606562 0.3610709 0.3614648 0.3618582 0.3622355 0.3625617 0.3627403 0.3626605 0.3623981 0.3622878
 0.3626518 0.3634763 0.3644474 0.3652693 0.3658587 0.3662839 0.3666372 0.3669711 0.3672655 0.3674268
 0.3673913 0.3672719 0.3673426 0.3677882 0.368495 0.3691744 0.3696668 0.370031 0.3703806 0.3707542
 0.3710977 0.3712413 0.3709716 0.3703243 0.3697806 0.3699545 0.3709987 0.3724293 0.3736092 0.374313
 0.3747292 0.3750188 0.3750802 0.3747434 0.3739826 0.3729247 0.3719106 0.3715526 0.3723341 0.3739887
 0.3756081 0.3765532 0.3770064 0.37751 0.3782611 0.3790276 0.3795261 0.3796766 0.3795563 0.3792318
 0.3787243 0.3781931 0.3780504 0.3786719 0.379959 0.3813581 0.3823796 0.3829849 0.3833677 0.3833863
 0.3824134 0.3800775 0.3772413 0.3757901 0.3769586 0.3800322 0.3831225 0.3850355 0.3859269 0.3864187
 0.3867858 0.38688 0.386115 0.3836571 0.3795625 0.3757725 0.3749375 0.3778048 0.3823801 0.3858587
 0.3867663 0.3852636 0.3824344 0.3797821 0.3786961 0.3796983 0.3822239 0.3851971 0.3876775 0.3891179
 0.3893996 0.3887783 0.3877768 0.3870447 0.3869514 0.3870344 0.3862873 0.3844669 0.3825619 0.3812708
 0.3797212 0.3768967 0.3739012 0.373273 0.3758414 0.379527 0.3817526 0.3820812 0.38175 0.381184
 0.378982 0.3737668 0.3667292 0.3615956 0.3614339 0.3655878 0.3703249 0.3725 0.3720367 0.3708671
 0.3702078 0.3692755 0.3664637 0.3616174 0.3569186 0.3549376 0.3557628 0.3568839 0.3559809 0.3525766
 0.3468351 0.338937 0.3309338 0.3271585 0.3304169 0.3385009 0.34614 0.3495619 0.3476918 0.3405771
 0.3297293 0.3197241 0.3161588 0.320495 0.3283431 0.3336992 0.3336756 0.32864 0.3197681 0.3085018
 0.2977928 0.2917399 0.2929582 0.3004595 0.3098816 0.3154148 0.3127683 0.3025801 0.2912203 0.2860125
 0.2883994 0.2930266 0.2940678 0.2907171 0.2859856 0.2825909 0.2814455 0.2822029 0.2836792 0.2847705
 0.2852991 0.2845075 0.2795088 0.2684675 0.255397 0.2480401 0.249869 0.2572761 0.2654504 0.2732219
 0.2803985 0.2843038 0.2826423 0.27809 0.2765942 0.2810266 0.2884404 0.2938091 0.2951006 0.2940945
 0.2930771 0.2920724 0.289988 0.2876115 0.287664 0.2914054 0.2966616 0.3001894 0.3009473 0.3001042
 0.2988523 0.2974176 0.2956637 0.293573 0.2912004 0.2886922 0.2862735 0.2839992 0.2817172 0.2793665
 0.2769065 0.2737029 0.2685803 0.2613888 0.2543452 0.2505416 0.2507478 0.2529393 0.2552662 0.2574213
 0.2581396 0.2541659 0.2445035 0.234238 0.2310488 0.2377861 0.2501706 0.261537 0.2680406 0.2691487
 0.2654497 0.2584186 0.2521719 0.252744 0.2633988 0.2811983 0.2996477 0.3142032 0.3239981 0.3293211
 0.3299189 0.3263549 0.3215048 0.3194235 0.3225853 0.3302749 0.3391425 0.3447383 0.3434495 0.3355007
 0.326973 0.3261152 0.3351318 0.3472322 0.3541129 0.3546464 0.3536763 0.3543157 0.3552669 0.3550869
 0.3551917 0.3574626 0.3611505 0.363507 0.3622729 0.3566461 0.3472321 0.3366465 0.3291064 0.3271536
 0.3289118 0.3302766 0.3291482 0.3255224 0.3189199 0.3094332 0.3008983 0.2988578 0.3042505 0.3119775
 0.3167011 0.3177984 0.3177309 0.3175721 0.3157379 0.3106392 0.303485 0.2977567 0.2957984 0.2966216
 0.2975734 0.297247 0.2957197 0.2928765 0.2883744 0.2833698 0.2806801 0.2822947 0.2872504 0.2925642
 0.2959653 0.2972809 0.2975756 0.2977725 0.298156 0.2985448 0.2987484 0.2992033 0.3010014 0.3047061
 0.3093117 0.3131213 0.315659 0.3180326 0.3213314 0.3252705 0.3286256 0.3306043 0.33157 0.3326218
 0.3346163 0.3374558 0.3401627 0.3417198 0.3420465 0.3421776 0.3433184 0.3456876 0.3484323 0.3506158
 0.3520178 0.352999 0.3539565 0.3550088 0.3559424 0.3563957 0.356335 0.356358 0.3572416 0.3591151
 0.3612832 0.3629115 0.3637002 0.363861 0.3636649 0.3631881 0.3624261 0.3614911 0.3606194 0.3600074
 0.3596812 0.3595259 0.3594038 0.3592345 0.3590108 0.3587898 0.3586584 0.3586794 0.3588704 0.3592322
 0.3597577 0.3603983 0.361059 0.3616585 0.3621637 0.3625482 0.3627477 0.3626851 0.3623123 0.3616057
 0.3605426 0.3591038 0.3572824 0.3550633 0.3524214 0.3494329 0.3464629 0.3442074 0.3434084 0.3443846
 0.3467794 0.3497611 0.352497 0.3545194 0.3557753 0.3564468 0.3567476 0.3568204 0.3567297 0.3564901
 0.3561015 0.3555767 0.3549469 0.3542466 0.353508 0.3527708 0.352083 0.3514837 0.3509862 0.3505778
 0.3502333 0.3499334 0.3496724 0.3494501 0.3492545 0.3490475 0.3487605 0.3483131 0.3476492 0.346762
 0.3456811 0.3444336 0.3430147 0.3413901 0.3395258 0.3374104 0.3350382 0.3323911 0.3294963 0.3265179
 0.3237204 0.3212725 0.3191011 0.3169647 0.3146414 0.3120145 0.3090306 0.3056583 0.3019143 0.2979022
 0.293813 0.2898859 0.2863466 0.2833452 0.2809201 0.2790006 0.277439 0.2760556 0.274682 0.2731823
 0.2714397 0.2693284 0.2667111 0.2634651 0.2595118 0.2548283 0.2494568 0.2435215 0.2372276 0.2308213
 0.2245278 0.2185166 0.2129073 0.2077893 0.2032319 0.19928 0.1959539 0.193261 0.1912117 0.1898252
 0.1891176 0.1890853 0.1896921 0.1908678 0.1925146 0.1945145 0.1967356 0.1990458 0.2013496 0.2036293
 0.2059444 0.2083696 0.210927 0.2135704 0.2162203 0.2187898 0.2211789 0.2232733 0.2249789 0.2262673
 0.2271917 0.2278673 0.2284358 0.2290224 0.2296989 0.2304696 0.2312762 0.2320127 0.232551 0.2327855
 0.2326744 0.2322534 0.2316274 0.2309563 0.2304324 0.2302421 0.2305313 0.2313917 0.2328685 0.234977
 0.2377162 0.2410704 0.2449989 0.2494241 0.2542324 0.2592888 0.2644633 0.2696513 0.2747709 0.279745
 0.2844896 0.2889219 0.2929751 0.2966038 0.2997708 0.3024291 0.3045212 0.3059973 0.3068306 0.3070239
 0.3066215 0.3057226 0.3044699 0.3030109 0.3014625 0.2998999 0.2983652 0.2968816 0.2954605 0.2941039
 0.292816 0.2916216 0.2905659 0.2896888 0.2890015 0.2884831 0.2880827 0.2877259 0.2873321 0.2868356
 0.2861982 0.2854084 0.2844698 0.2833841 0.2821475 0.2807646 0.2792538 0.2776313 0.2758948 0.274022
 0.2719807 0.2697439 0.267307 0.2646931 0.261942 0.2590922 0.2561618 0.2531437 0.250036 0.2468875
 0.243796 0.2408549 0.2381116 0.2355681 0.233199 0.2309683 0.2288441 0.2268037 0.2248296 0.2229107
 0.2210448 0.2192323 0.2174755 0.2157887 0.2142 0.2127424 0.2114547 0.2103826 0.2095587 0.2089881
 0.2086542 0.2085275 0.2085696 0.2087484 0.209039 0.2093883 0.2096972 0.2098649 0.2098517 0.2096913
 0.2094562 0.2092109 0.2089837 0.2087714 0.2085523 0.2082738 0.2078389 0.207131 0.2060499 0.2045177
 0.2024847 0.1999562 0.1970097 0.1937852 0.190474 0.1872998 0.1844797 0.1821889 0.1805322 0.1795033
 0.1789708 0.1787446 0.1786763 0.1787086 0.1788521 0.1791094 0.1793962 0.179573 0.1796015 0.1796401
 0.1799301 0.1805989 0.1815865 0.1827192 0.1838235 0.1847934 0.185583 0.1861628 0.1865187 0.1866776
 0.1866895 0.1865895 0.1864057 0.1861719 0.1859029 0.1855816 0.1851822 0.1846783 0.1840403 0.1832571
 0.1823425 0.181305 0.1801452 0.1788707 0.1774697 0.1759111 0.1742475 0.172696 0.1715588 0.1710576
 0.1712204 0.1718734 0.1727602 0.1737062 0.1746373 0.1754574 0.1760509 0.1764759 0.1770523 0.1781517
 0.1798814 0.181975 0.1839783 0.1855372 0.18651 0.1868784 0.186674 0.1859763 0.1848514 0.1832965
 0.1813335 0.1790904 0.1767157 0.1743156 0.1720078 0.1699069 0.1680618 0.1664951 0.1652195 0.1642303
 0.1635835 0.1630138 0.1609888 0.155238 0.1459737 0.1379903 0.1370497 0.1436731 0.1524228 0.1577509
 0.1587149 0.1576385 0.1564413 0.1555317 0.1548426 0.1544505 0.1544049 0.1545955 0.1548041 0.1548062
 0.1545057 0.1539187 0.152928 0.1510587 0.1474661 0.141232 0.1320408 0.1208168 0.1095321 0.1001552
 0.09367608 0.08990121 0.08787991 0.08657211 0.08544564 0.0846534 0.08467914 0.08584285 0.08812357 0.09130561
 0.09512921 0.09926436 0.1032594 0.1066805 0.1093429 0.1113244 0.1127523 0.1136708 0.1141018 0.1141078
 0.1137656 0.1131496 0.1123346 0.1113583 0.1101955 0.1088208 0.1073061 0.1058495 0.1046866 0.1039368
 0.1035333 0.1033234 0.1032088 0.1031628 0.1031727 0.1032254 0.1033201 0.1034609 0.1036572 0.1039229
 0.1042435 0.1045608 0.1048165 0.1049935 0.1050994 0.1051317 0.1050617 0.1048576 0.1045514 0.1042513
 0.1040048 0.1036628 0.1029938 0.1019685 0.1008749 0.1001286 0.09997736 0.100349 0.1009325 0.101412
 0.1016608 0.1017456 0.1017774 0.101765</values></Ydata></ScSm><ScRf><Ydata ylabel="Single channel"><values byteorder="INTEL" format="FLOAT32" numvalues="1820"> 0.06964245 0.06977244 0.06989188 0.06999631 0.07008798 0.07017788 0.07027972 0.07039954 0.07053187 0.07066454
 0.07078692 0.07089665 0.07099672 0.07108663 0.07116469 0.0712417 0.07133941 0.07146809 0.07161309 0.07174696
 0.07185131 0.07193132 0.07201438 0.07212486 0.07225055 0.07234189 0.07235666 0.07230638 0.07225198 0.07224957
 0.07231189 0.07243648 0.07264255 0.07292043 0.0731558 0.07320203 0.07306436 0.07292735 0.07295082 0.07310946
 0.0732683 0.07333231 0.07328376 0.07317008 0.07312405 0.07332188 0.07382227 0.0744362 0.07478663 0.07452679
 0.07357088 0.07221786 0.07108097 0.07076892 0.07144685 0.07265131 0.0736362 0.07397428 0.07378885 0.07343592
 0.07313217 0.07294942 0.07297875 0.07331435 0.07389988 0.07446906 0.07465134 0.07421501 0.07332899 0.07253146
 0.07229078 0.07264286 0.07335727 0.07421698 0.0748062 0.07430051 0.07219764 0.0694243 0.06804638 0.06935987
 0.07253469 0.07547706 0.07673506 0.07626804 0.07484417 0.07336358 0.07261618 0.07300997 0.07430673 0.07585877
 0.0771222 0.07779939 0.07770125 0.07683639 0.0755913 0.07456647 0.07424172 0.07483736 0.07622573 0.07779598
 0.07869764 0.07850942 0.07755463 0.0764816 0.07578717 0.07579225 0.07666449 0.07822001 0.0799408 0.08135715
 0.08229125 0.08275626 0.08284326 0.08270235 0.08246814 0.08223897 0.08217533 0.082417 0.08280262 0.08290642
 0.08251257 0.08190958 0.08159884 0.08177923 0.08217832 0.08238003 0.08223556 0.08178581 0.08083981 0.07906856
 0.07668442 0.07454559 0.07331768 0.07300725 0.07350975 0.07489336 0.07673699 0.0779281 0.07778399 0.07697491
 0.07680044 0.07778426 0.07934402 0.0806362 0.08137485 0.08187839 0.08257292 0.08351071 0.08425113 0.08418825
 0.08317222 0.08189293 0.08142142 0.0821733 0.08350272 0.08449231 0.08491418 0.08519927 0.08567837 0.08610474
 0.08587192 0.08466701 0.08301549 0.08209288 0.08275187 0.08467636 0.08655185 0.08705962 0.0858119 0.08355911
 0.08156402 0.08069724 0.08110136 0.08255391 0.08477676 0.08729675 0.08937103 0.09036421 0.09018812 0.08928577
 0.08814798 0.08685368 0.08524665 0.08365237 0.08306506 0.08421592 0.08663362 0.08902221 0.0904592 0.09090516
 0.09067139 0.08979155 0.08811139 0.08594605 0.08436964 0.08441506 0.0858966 0.0874612 0.08802748 0.0877957
 0.08762798 0.08787213 0.08817598 0.08821122 0.088167 0.08848241 0.08928482 0.09022582 0.09084845 0.09100507
 0.09088714 0.09075557 0.09069268 0.09055419 0.09019011 0.08978084 0.08981912 0.09059134 0.09179408 0.09283987
 0.09343496 0.09369464 0.09378774 0.0936499 0.09309369 0.09217755 0.09138389 0.09127765 0.09195754 0.09298013
 0.09382965 0.09430286 0.09446149 0.09443545 0.0943336 0.09421467 0.09410568 0.09407792 0.09423521 0.09457517
 0.09494726 0.09520239 0.0953144 0.09532672 0.09525776 0.09510475 0.09490517 0.09475259 0.09473818 0.09487837
 0.09511362 0.09536925 0.09558672 0.09571119 0.09571007 0.09561667 0.09551016 0.09544239 0.09541579 0.09542719
 0.09549149 0.09561129 0.09575195 0.09586547 0.09592988 0.09595381 0.09595142 0.09592854 0.09589286 0.09586432
 0.09586956 0.0959252 0.09601966 0.09611866 0.0962054 0.09630327 0.09643159 0.09655369 0.09660791 0.09658489
 0.09654023 0.09653358 0.09658085 0.09666054 0.09674037 0.09679042 0.09678753 0.09673013 0.09665848 0.096643
 0.09673145 0.09691526 0.09715365 0.09740667 0.09763539 0.0978056 0.09791546 0.09799695 0.09807593 0.09814902
 0.09820566 0.09825615 0.09833311 0.09846802 0.09866004 0.09886909 0.09904879 0.09918027 0.09927258 0.09935232
 0.09945749 0.09960672 0.09976304 0.09986389 0.09990111 0.09993821 0.1000327 0.100169 0.100285 0.1003464
 0.1003778 0.100427 0.100514 0.1006192 0.1007155 0.100801 0.1008994 0.1010263 0.1011567 0.1012357
 0.1012319 0.1011766 0.1011319 0.1011286 0.1011552 0.1011976 0.1012611 0.1013473 0.1014328 0.1014849
 0.101495 0.1014882 0.1014962 0.1015203 0.1015307 0.1015024 0.1014428 0.1013812 0.1013402 0.1013226
 0.1013158 0.101302 0.1012678 0.1012094 0.1011337 0.1010519 0.1009731 0.1009035 0.1008579 0.1008571
 0.1008976 0.100927 0.1008746 0.1007185 0.1005108 0.100329 0.1002095 0.1001302 0.1000435 0.0999209
 0.09976859 0.09961223 0.09947121 0.09934741 0.09923221 0.09912002 0.0990174 0.09894223 0.09890647 0.09889278
 0.09885658 0.09876493 0.09863012 0.09849548 0.09839268 0.09832321 0.09827302 0.09823045 0.09819364 0.09817106
 0.09817098 0.09818441 0.09818853 0.09817354 0.09815538 0.09815855 0.09819802 0.09827755 0.09838508 0.09848723
 0.09855003 0.09857526 0.09860159 0.09866327 0.09876072 0.09887496 0.0989956 0.09912534 0.09926747 0.09942104
 0.09958623 0.09976702 0.09996683 0.1001834 0.100408 0.1006293 0.100842 0.1010537 0.101282 0.1015399
 0.1018241 0.1021164 0.102398 0.1026633 0.1029205 0.1031808 0.1034487 0.1037256 0.1040166 0.1043275
 0.1046539 0.1049822 0.105302 0.1056153 0.1059294 0.1062482 0.1065707 0.1068973 0.1072356 0.1075953
 0.1079704 0.1083318 0.108649 0.1089228 0.1091882 0.109483 0.1098172 0.1101701 0.1105062 0.1108006
 0.1110606 0.1113212 0.11161 0.1119199 0.1122272 0.1125311 0.112859 0.1132269 0.1136067 0.1139425
 0.1142037 0.1144154 0.1146312 0.1148772 0.1151313 0.1153602 0.1155635 0.11577 0.1159977 0.1162372
 0.1164778 0.1167292 0.1170027 0.1172844 0.1175443 0.11777 0.1179741 0.1181708 0.118356 0.1185137
 0.1186329 0.118723 0.1188117 0.118925 0.1190632 0.1192058 0.119342 0.1194843 0.1196482 0.1198338
 0.1200357 0.120257 0.1205003 0.1207533 0.1210004 0.1212496 0.1215275 0.1218366 0.1221359 0.122381
 0.1225736 0.1227515 0.1229404 0.1231409 0.123357 0.1236073 0.1239004 0.1242168 0.1245242 0.124805
 0.1250692 0.1253439 0.1256457 0.1259566 0.1262359 0.1264589 0.1266415 0.1268235 0.1270364 0.1272872
 0.1275624 0.1278418 0.128109 0.1283513 0.1285524 0.1286989 0.1287958 0.1288676 0.1289298 0.1289657
 0.1289375 0.1288179 0.1285986 0.1282743 0.1278314 0.1272622 0.1265901 0.1258793 0.1252207 0.1247063
 0.1244064 0.1243595 0.1245694 0.1250026 0.1255865 0.1262228 0.1268129 0.1272755 0.1275453 0.1275732
 0.1273408 0.1268746 0.126234 0.1254833 0.1246757 0.1238508 0.1230412 0.12229 0.1216777 0.1213259
 0.1213621 0.1218712 0.1228674 0.1242803 0.125952 0.1276706 0.1292507 0.1306051 0.131748 0.1327372
 0.133622 0.1344342 0.1351991 0.1359338 0.1366402 0.1373098 0.1379374 0.1385229 0.1390622 0.1395445
 0.1399572 0.1402894 0.1405348 0.1406987 0.1407979 0.1408494 0.1408651 0.1408584 0.1408406 0.1407999
 0.1406935 0.1404716 0.1401122 0.1396346 0.1391031 0.1386347 0.1383956 0.13856 0.1392314 0.1403762
 0.1418284 0.1433698 0.1448222 0.146084 0.1471159 0.1479231 0.148548 0.1490535 0.149495 0.1499055
 0.1502992 0.1506786 0.1510415 0.1513877 0.1517234 0.1520585 0.1523999 0.1527474 0.1530938 0.1534305
 0.1537564 0.1540796 0.1544103 0.1547534 0.1551045 0.1554534 0.1557942 0.1561329 0.1564783 0.1568268
 0.1571635 0.1574799 0.1577842 0.1580931 0.1584198 0.1587657 0.1591179 0.1594556 0.1597658 0.1600531
 0.1603309 0.1606071 0.1608829 0.1611594 0.1614379 0.1617172 0.1619939 0.1622684 0.162546 0.162831
 0.163119 0.1633986 0.1636623 0.1639143 0.1641648 0.1644197 0.1646769 0.1649316 0.1651811 0.165428
 0.1656793 0.1659405 0.1662078 0.1664709 0.1667229 0.1669669 0.1672095 0.167454 0.1677003 0.1679489
 0.1682014 0.1684572 0.1687131 0.1689676 0.169222 0.1694773 0.1697314 0.1699807 0.170224 0.1704643
 0.170706 0.1709514 0.1711988 0.1714474 0.1717001 0.1719593 0.1722202 0.1724725 0.1727093 0.172933
 0.1731515 0.1733733 0.1736035 0.1738416 0.1740833 0.1743253 0.174567 0.1748087 0.1750492 0.1752883
 0.175527 0.1757683 0.1760131 0.1762587 0.1764997 0.1767337 0.1769635 0.1771936 0.177426 0.177661
 0.1778987 0.1781391 0.178381 0.1786226 0.1788616 0.1790978 0.1793337 0.1795712 0.1798086 0.1800434
 0.1802742 0.1805017 0.1807286 0.1809585 0.181193 0.1814294 0.1816646 0.1818987 0.1821326 0.1823666
 0.1826016 0.1828381 0.1830751 0.1833116 0.1835473 0.1837817 0.1840148 0.1842492 0.1844877 0.1847285
 0.1849676 0.1852032 0.1854375 0.1856746 0.1859168 0.1861597 0.1863957 0.1866228 0.1868484 0.1870803
 0.1873207 0.1875684 0.1878203 0.1880724 0.1883226 0.1885711 0.188817 0.1890599 0.1893035 0.1895525
 0.1898067 0.1900619 0.190317 0.190574 0.1908342 0.1910962 0.1913546 0.1916043 0.1918461 0.1920844
 0.1923179 0.192542 0.1927582 0.1929726 0.1931886 0.1934082 0.1936337 0.1938639 0.1940942 0.1943242
 0.1945578 0.1947982 0.1950454 0.1952973 0.1955498 0.1958013 0.1960545 0.1963103 0.1965645 0.1968152
 0.1970662 0.1973208 0.1975799 0.1978437 0.1981098 0.1983725 0.1986314 0.1988903 0.1991496 0.1994069
 0.1996648 0.1999269 0.2001919 0.2004588 0.2007287 0.2009999 0.2012704 0.2015423 0.2018163 0.2020885
 0.2023586 0.2026299 0.2029007 0.2031661 0.2034263 0.2036829 0.2039377 0.2041971 0.2044682 0.2047475
 0.2050285 0.2053109 0.2055932 0.2058698 0.2061408 0.2064115 0.2066807 0.2069455 0.20721 0.2074754
 0.2077373 0.2079974 0.2082597 0.2085141 0.2087376 0.2088835 0.2088257 0.2082915 0.2068245 0.2037954
 0.1985272 0.1905622 0.1799341 0.1672466 0.1535086 0.1398222 0.1270845 0.1158633 0.1064657 0.09905311
 0.09372161 0.09057507 0.08978608 0.09168131 0.09685308 0.105805 0.1176551 0.1290207 0.1352886 0.1341094
 0.1275271 0.1201258 0.1153012 0.1135989 0.1138722 0.1149876 0.1164928 0.1184917 0.1212557 0.1248228
 0.1289568 0.1335365 0.1387825 0.1449168 0.1517257 0.1586381 0.1652024 0.1713773 0.1773624 0.1832446
 0.1888618 0.1939589 0.1983857 0.2021458 0.2053413 0.208109 0.2105701 0.2128047 0.2148656 0.2167811
 0.2185175 0.2199628 0.2209935 0.2215727 0.2217942 0.2218384 0.2218736 0.221985 0.2221842 0.222461
 0.2228072 0.2232129 0.2236684 0.2241667 0.224695 0.2252366 0.2257806 0.2263188 0.2268392 0.2273338
 0.2278028 0.2282475 0.2286686 0.2290721 0.2294624 0.2298373 0.2301971 0.2305501 0.2309012 0.2312492
 0.2315936 0.2319337 0.2322622 0.2325705 0.2328584 0.233132 0.2333989 0.2336646 0.2339282 0.2341835
 0.2344286 0.2346689 0.2349088 0.2351514 0.2354011 0.2356582 0.2359138 0.2361599 0.2363984 0.2366356
 0.2368742 0.2371147 0.2373552 0.2375934 0.2378299 0.2380686 0.238311 0.2385544 0.2387953 0.2390305
 0.2392622 0.239501 0.239758 0.2400303 0.2403044 0.2405742 0.2408436 0.2411157 0.2413878 0.2416567
 0.2419225 0.2421899 0.242465 0.2427475 0.2430263 0.2432872 0.2435236 0.24374 0.2439488 0.2441639
 0.244391 0.244626 0.2448646 0.2451083 0.2453586 0.2456128 0.2458659 0.246114 0.246357 0.2466031
 0.2468643 0.2471434 0.2474321 0.2477224 0.248012 0.2482994 0.2485851 0.2488751 0.2491719 0.2494661
 0.2497454 0.2500131 0.2502894 0.250596 0.2509344 0.2512822 0.2516138 0.2519248 0.2522292 0.2525406
 0.2528632 0.2531891 0.2534943 0.253755 0.2539831 0.2542323 0.2545516 0.2549363 0.2553384 0.2557134
 0.2560514 0.2563683 0.2566801 0.2569861 0.2572719 0.257526 0.2577587 0.2580088 0.2583188 0.2586913
 0.2590815 0.2594439 0.2597695 0.2600718 0.2603629 0.2606509 0.2609269 0.2611483 0.2612811 0.2613777
 0.2615678 0.2619359 0.26243 0.2629166 0.2633126 0.2636365 0.2639424 0.2642512 0.2645531 0.2648197
 0.2649755 0.2649381 0.2647655 0.2647064 0.2649992 0.2656319 0.2663699 0.2669938 0.2674448 0.2677776
 0.2680616 0.2683326 0.2685723 0.2687125 0.2687091 0.2686474 0.2687284 0.2690862 0.2696356 0.2701633
 0.2705519 0.2708473 0.2711361 0.2714475 0.2717381 0.2718796 0.2717152 0.2712733 0.2709074 0.2710681
 0.2718685 0.2729549 0.2738591 0.2744148 0.2747619 0.2750203 0.2751124 0.2749092 0.2743909 0.2736529
 0.2729479 0.2727278 0.2733492 0.2746169 0.2758633 0.2766185 0.2770142 0.2774458 0.278056 0.2786748
 0.2790964 0.2792661 0.2792423 0.2790709 0.2787613 0.27843 0.2783861 0.2789108 0.2799297 0.281031
 0.2818525 0.2823676 0.2827206 0.2828047 0.2821508 0.2804821 0.2784424 0.2774362 0.2783824 0.2807498
 0.2831325 0.2846389 0.2853823 0.2858285 0.2861885 0.2863556 0.2858912 0.2841706 0.2812328 0.2785211
 0.2780054 0.2802371 0.2837327 0.2864138 0.2871939 0.286194 0.2842137 0.2823667 0.2816866 0.2825629
 0.2845744 0.2869181 0.288894 0.2900967 0.2904395 0.2901132 0.2895095 0.2891177 0.2892106 0.2894296
 0.2890141 0.2877899 0.2865112 0.2857052 0.2847117 0.2827646 0.2806976 0.2804253 0.2825718 0.2855662
 0.2874618 0.2879285 0.2879021 0.2877033 0.2862703 0.2825603 0.2774819 0.2738725 0.2740692 0.2775722
 0.2815391 0.2835783 0.2836415 0.2832101 0.2832155 0.2830568 0.2814971 0.2784121 0.2754823 0.2746915
 0.2760997 0.2777525 0.2778474 0.2760025 0.2723134 0.2668973 0.2613823 0.2592151 0.2626192 0.2698236
 0.2766245 0.2800118 0.279113 0.2739447 0.2657188 0.2581434 0.2557596 0.259755 0.2665766 0.2713668
 0.271792 0.2681502 0.2613979 0.2527317 0.2446052 0.2404202 0.2423597 0.2496284 0.2586059 0.2644116
 0.2633935 0.2560552 0.2477861 0.2448082 0.248326 0.2537287 0.2560107 0.2544812 0.2517244 0.2500795
 0.2503505 0.2522385 0.2546769 0.2566757 0.2580862 0.2582029 0.2543599 0.2448811 0.2334771 0.2272753
 0.2294672 0.2367468 0.2447165 0.2523124 0.2593251 0.2632273 0.2618663 0.257722 0.2563117 0.2602988
 0.2669602 0.2716649 0.272574 0.2713834 0.2702487 0.269219 0.2673061 0.2652587 0.2656009 0.2694891
 0.2749023 0.2788392 0.2803341 0.280455 0.2802812 0.2799945 0.2794438 0.2785966 0.2774944 0.2762704
 0.2751438 0.2741816 0.2732451 0.2722649 0.2711734 0.2693021 0.2654377 0.2594005 0.2533877 0.2504547
 0.2513077 0.253867 0.2562583 0.2581683 0.2583396 0.2535435 0.2427956 0.2311368 0.2261663 0.2306978
 0.240519 0.2491221 0.2528492 0.2513491 0.2453807 0.2364573 0.2283869 0.2266071 0.2339926 0.2478486
 0.2623404 0.2734352 0.2804281 0.2836658 0.2829936 0.2789149 0.2738916 0.2713684 0.2734088 0.2793393
 0.2862599 0.29039 0.2887168 0.2814828 0.2738258 0.272665 0.2798355 0.2896457 0.295161 0.2954666
 0.2946319 0.2952587 0.2962604 0.2964445 0.2970136 0.2995474 0.3034112 0.3062884 0.3062596 0.3026103
 0.2958103 0.2880599 0.282943 0.2825928 0.2853332 0.2875988 0.2875933 0.2853207 0.2803439 0.2727547
 0.2659751 0.2649227 0.2704213 0.2779503 0.2827966 0.2844453 0.285117 0.2857735 0.284983 0.2813143
 0.2758781 0.2718483 0.2713516 0.2734612 0.2757214 0.276805 0.2767227 0.2752858 0.2721135 0.2682787
 0.2664575 0.2685489 0.2736391 0.27889 0.2821467 0.2832503 0.2832119 0.2829072 0.2826105 0.2821582
 0.2813766 0.280682 0.2811094 0.2832127 0.2861019 0.2882558 0.2892815 0.2902368 0.2921404 0.2947231
 0.2968359 0.2977219 0.2976848 0.2977067 0.2985612 0.3001772 0.301709 0.3022834 0.3018572 0.3013682
 0.3018937 0.3036261 0.3057993 0.3075643 0.3086992 0.3094923 0.3102594 0.3110711 0.3117191 0.3118907
 0.311584 0.3113568 0.3119137 0.3133767 0.3151434 0.3164993 0.3172041 0.3174517 0.3174649 0.3172826
 0.3168753 0.3163205 0.3158062 0.3154896 0.3153897 0.3154154 0.3154634 0.3154787 0.3154598 0.3154469
 0.3154926 0.3156174 0.3157981 0.316005 0.3162246 0.3164347 0.3165982 0.3167064 0.3167946 0.3168844
 0.3169356 0.3168733 0.3166396 0.3161978 0.3155093 0.3145332 0.3132402 0.3116044 0.309604 0.3073071
 0.3050269 0.303362 0.302955 0.3040842 0.3064386 0.3092898 0.3119093 0.3138872 0.3151722 0.3159154
 0.3163028 0.3164713 0.3164968 0.3164092 0.3162204 0.315949 0.3156245 0.3152752 0.3149227 0.314586
 0.3142783 0.3139994 0.3137334 0.3134524 0.3131252 0.3127301 0.312263 0.3117327 0.3111479 0.310504
 0.3097776 0.3089382 0.3079816 0.3069533 0.30593 0.3049719 0.3040881 0.3032405 0.3023777 0.3014564
 0.3004275 0.2992272 0.2978396 0.2963836 0.2950804 0.2940783 0.2933214 0.2926148 0.2917932 0.2908046
 0.2896736 0.288443 0.2871523 0.2858293 0.2844822 0.2831002 0.281661 0.2801378 0.2785122 0.2767858
 0.2749736 0.2730937 0.2711658 0.2692089 0.267215 0.2651157 0.2627802 0.2600495 0.2567788 0.2528699
 0.2482966 0.2431238 0.2375087 0.2316712 0.2258455 0.2202384 0.2150135 0.210298 0.2061981 0.2028042
 0.2001882 0.1983985 0.1974615 0.1973826 0.1981449 0.1997061 0.2019934 0.2048957 0.20826 0.2119004
 0.2156159 0.2192154 0.2225621 0.2256177 0.2284344 0.2310779 0.2335573 0.2358299 0.237856 0.2396281
 0.2411547 0.2424409 0.2434948 0.2443443 0.2450372 0.2456219 0.2461293 0.2465687 0.2469362 0.2472259
 0.2474417 0.2476051 0.2477498 0.247907 0.2480939 0.2483158 0.2485762 0.248884 0.2492523 0.2496942
 0.2502185 0.2508242 0.2514959 0.2522123 0.2529656 0.253772 0.2546635 0.2556736 0.25683 0.2581479
 0.2596216 0.2612185 0.2628767 0.2645054 0.2659966 0.2672532 0.2682182 0.2688848 0.2692782 0.2694289
 0.2693619 0.269103 0.2686849 0.2681419 0.267502 0.2667874 0.2660146 0.2651902 0.2643091 0.2633646
 0.2623661 0.2613465 0.2603443 0.259375 0.25843 0.2575019 0.2565961 0.2557163 0.2548584 0.2540232
 0.2532203 0.2524556 0.2517278 0.2510345 0.2503695 0.2497137 0.2490319 0.2482788 0.2474085 0.2463881
 0.2452061 0.2438681 0.2423878 0.2407794 0.2390522 0.2372127 0.2352739 0.2332556 0.2311723 0.2290241
 0.2267973 0.2244756 0.2220678 0.219636 0.2172793 0.2150791 0.213061 0.2112027 0.2094647 0.2078154
 0.2062438 0.2047504 0.2033322 0.201982 0.2006956 0.1994659 0.1982841 0.1971562 0.1961074 0.1951625
 0.1943323 0.1936154 0.1930007 0.1924733 0.1920223 0.1916414 0.1913328 0.1911244 0.1910592 0.1911381
 0.1912884 0.1914095 0.1914403 0.1913808 0.1912744 0.1911758 0.191122 0.1911217 0.1911567 0.1911722
 0.1910734 0.1907566 0.1901382 0.1891514 0.1877522 0.1859548 0.1838486 0.181577 0.179312 0.1772247
 0.1754388 0.1740052 0.1729136 0.1721071 0.1714992 0.1710192 0.1706583 0.1704694 0.1705239 0.1708357
 0.1712876 0.1716729 0.1718766 0.1720017 0.172277 0.1728613 0.173744 0.1747839 0.1758094 0.1767084
 0.1774458 0.1780185 0.1784337 0.1787218 0.1789148 0.1790104 0.1789874 0.1788397 0.1785751 0.1782087
 0.1777641 0.1772476 0.176636 0.1759167 0.1751073 0.1742182 0.1732381 0.172155 0.1709437 0.1695704
 0.1680885 0.166715 0.1657535 0.1654308 0.1657793 0.1666253 0.1677126 0.1688711 0.1700298 0.1710898
 0.1719314 0.1726111 0.1734442 0.1747942 0.176768 0.1791062 0.1813599 0.1831784 0.1844256 0.1850862
 0.1851846 0.1847878 0.1839535 0.1826734 0.1809587 0.1789197 0.1766925 0.1743931 0.1721731 0.1701814
 0.1684755 0.167064 0.1659456 0.1651147 0.1646349 0.1642381 0.162361 0.1566901 0.1474387 0.1394735
 0.1386407 0.1454649 0.1544248 0.1598878 0.1608991 0.1598268 0.158628 0.1577123 0.1569996 0.1565681
 0.1564862 0.1566631 0.1568849 0.156917 0.1566505 0.1560954 0.1551323 0.1532697 0.1496279 0.1432573
 0.1338445 0.1223557 0.1108247 0.1012739 0.09471646 0.09094433 0.08896508 0.08769614 0.08658889 0.08581087
 0.08586898 0.08709091 0.0894507 0.09273367 0.09668906 0.1009875 0.1051624 0.1087608 0.1115868 0.1137163
 0.1152762 0.1163069 0.1168273 0.1169037 0.1166206 0.1160553 0.115279 0.114327 0.1131768 0.1118052
 0.110281 0.1087968 0.1075923 0.1068071 0.1063971 0.1062135 0.1061423 0.1061431 0.1061999 0.1062967
 0.106425 0.1065885 0.1068074 0.1071074 0.1074761 0.1078441 0.1081363 0.1083269 0.1084329 0.1084655
 0.1083905 0.1081507 0.1077578 0.1073227 0.1069104 0.1063856 0.1055214 0.1042961 0.1030156 0.1021146
 0.101849 0.1021459 0.1026902 0.1031561 0.1033981 0.1034655 0.1034649 0.1034127 0.1032102 0.1027573
</values></Ydata></ScRf><Data_Parameters_AB><parameter name="DPF">1</parameter><parameter name="NPT">3497</parameter><parameter name="FXV">3996</parameter><parameter name="LXV">500</parameter><parameter name="CSF">1</parameter><parameter name="MXY">0.0629954040050507</parameter><parameter name="MNY">-0.137235820293427</parameter><parameter name="DAT">17/01/2024</parameter><parameter name="TIM">13:39:12.322 (GMT+1)</parameter><parameter name="DXU">WN</parameter></Data_Parameters_AB><AB__Qtest><MainReport name="Quality Test Report"><Header><Line><Legend>Test result ok/not ok [1/0]: </Legend><Value>0</Value></Line><Line><Legend>Method file: </Legend><Value>C:\Users\Public\Documents\Bruker\OPUS_8.2.28\QT\IRBT_v3_default.QT</Value></Line></Header><Matrix><Line><Legend></Legend><Legend>min</Legend><Legend>max</Legend><Legend>measured</Legend></Line><Line><Value>Absorption (X-Range 1):</Value><Value>0.400000</Value><Value>2.000000</Value><Value>0.113540</Value></Line><Line><Value>Noise (X-Range 4):</Value><Value></Value><Value>0.000300</Value><Value>0.000025</Value></Line><Line><Value>Signal/Noise (X-Range 2):</Value><Value>200.000000</Value><Value></Value><Value>61.062078</Value></Line><Line><Value>Signal/Noise (X-Range 3):</Value><Value>40.000000</Value><Value></Value><Value>207.961470</Value></Line><Line><Value>Water vapour (X-Range 5):</Value><Value></Value><Value>0.000300</Value><Value>0.000006</Value></Line><Line><Value>Signal/Water (X-Range 2):</Value><Value>100.000000</Value><Value></Value><Value>250.728744</Value></Line><Line><Value>Signal/Water (X-Range 3):</Value><Value>20.000000</Value><Value></Value><Value>853.916534</Value></Line><Line><Value>Fringes (X-Range 6):</Value><Value></Value><Value>0.000100</Value><Value>0.000027</Value></Line></Matrix></MainReport></AB__Qtest><Data_Parameters_ScSm><parameter name="DPF">1</parameter><parameter name="NPT">1814</parameter><parameter name="FXV">3996.63438082617</parameter><parameter name="LXV">499.579297603271</parameter><parameter name="CSF">1</parameter><parameter name="MXY">0.389399617910385</parameter><parameter name="MNY">0.0836004912853241</parameter><parameter name="DAT">17/01/2024</parameter><parameter name="TIM">13:39:12.322 (GMT+1)</parameter><parameter name="DXU">WN</parameter></Data_Parameters_ScSm><Data_Parameters_ScRf><parameter name="DPF">1</parameter><parameter name="NPT">1820</parameter><parameter name="FXV">4004.34989121387</parameter><parameter name="LXV">495.721542409425</parameter><parameter name="CSF">1</parameter><parameter name="MXY">0.317464888095856</parameter><parameter name="MNY">0.0680463761091232</parameter><parameter name="DAT">17/01/2024</parameter><parameter name="TIM">13:38:45.956 (GMT+1)</parameter><parameter name="DXU">WN</parameter></Data_Parameters_ScRf><Optic_Parameters_Rf><parameter name="APR">0</parameter><parameter name="APT">Open</parameter><parameter name="BMS">KBr</parameter><parameter name="DTC">RT-DLaTGS_IR-Biotyper [Microplate reader]</parameter><parameter name="HPF">0</parameter><parameter name="LPF">10.0</parameter><parameter name="LPV">4000</parameter><parameter name="PGR">0</parameter><parameter name="RCH">Module port</parameter><parameter name="RDX">0</parameter><parameter name="SRC">MIR</parameter><parameter name="VEL">10.0</parameter><parameter name="SON">Off</parameter></Optic_Parameters_Rf><Acquisition_Parameters_Rf><parameter name="ADT">1</parameter><parameter name="AQM">DD</parameter><parameter name="CFE">0</parameter><parameter name="COR">0</parameter><parameter name="DEL">0</parameter><parameter name="DLY">0</parameter><parameter name="HFW">8000</parameter><parameter name="LFW">0</parameter><parameter name="NSR">32</parameter><parameter name="PLF">AB</parameter><parameter name="RES">6</parameter><parameter name="RGN">-1</parameter><parameter name="STR">0</parameter><parameter name="TCL">MakeCompatibleScalar (0, {WSV=1.000000, ARV=0});</parameter><parameter name="TDL">37</parameter><parameter name="RPO">0</parameter></Acquisition_Parameters_Rf><FT_-_Parameters_Rf><parameter name="APF">B3</parameter><parameter name="HFQ">500</parameter><parameter name="LFQ">4000</parameter><parameter name="NLI">0</parameter><parameter name="PHR">24</parameter><parameter name="PHZ">ML</parameter><parameter name="SPZ">NO</parameter><parameter name="ZFF">1</parameter></FT_-_Parameters_Rf><Optic_Parameters_><parameter name="APR">0</parameter><parameter name="APT">Open</parameter><parameter name="BMS">KBr</parameter><parameter name="CHN">Module port</parameter><parameter name="DTC">RT-DLaTGS_IR-Biotyper [Microplate reader]</parameter><parameter name="HPF">0</parameter><parameter name="LPF">10.0</parameter><parameter name="LPV">4000</parameter><parameter name="PGN">0</parameter><parameter name="RDX">0</parameter><parameter name="SRC">MIR</parameter><parameter name="VEL">10.0</parameter><parameter name="SON">Off</parameter></Optic_Parameters_><FT_-_Parameters_><parameter name="APF">B3</parameter><parameter name="HFQ">500</parameter><parameter name="LFQ">4000</parameter><parameter name="NLI">0</parameter><parameter name="PHR">24</parameter><parameter name="PHZ">ML</parameter><parameter name="SPZ">NO</parameter><parameter name="ZFF">1</parameter></FT_-_Parameters_><Acquisition_Parameters_><parameter name="ADT">1</parameter><parameter name="AQM">DD</parameter><parameter name="CFE">0</parameter><parameter name="COR">0</parameter><parameter name="DEL">0</parameter><parameter name="DLY">0</parameter><parameter name="HFW">8000</parameter><parameter name="LFW">0</parameter><parameter name="NSS">32</parameter><parameter name="PLF">AB</parameter><parameter name="RES">6</parameter><parameter name="SOT">0</parameter><parameter name="TCL">MakeCompatibleScalar (0, {WSV=1.000000, ARV=0});</parameter><parameter name="TDL">37</parameter><parameter name="SPO">0</parameter><parameter name="SGN">-1</parameter></Acquisition_Parameters_><Instrument_Parameters_Rf><parameter name="HFL">15801.365274</parameter><parameter name="LFL">0</parameter><parameter name="LWN">15801.365274</parameter><parameter name="ABP">32157</parameter><parameter name="SSP">1</parameter><parameter name="ARG">2</parameter><parameter name="ASG">2</parameter><parameter name="ASS">32</parameter><parameter name="GFW">16</parameter><parameter name="GBW">16</parameter><parameter name="BFW">0</parameter><parameter name="BBW">0</parameter><parameter name="PKA">9114</parameter><parameter name="PKL">4987</parameter><parameter name="PRA">9126</parameter><parameter name="PRL">5010</parameter><parameter name="P2A">1</parameter><parameter name="P2L">1</parameter><parameter name="P2R">1</parameter><parameter name="P2K">1</parameter><parameter name="DAQ">0</parameter><parameter name="AG2">1</parameter><parameter name="SSM">1</parameter><parameter name="RSN">46380</parameter><parameter name="CRR">0</parameter><parameter name="SRT">1705498725.956</parameter><parameter name="DUR">19.6439971923828</parameter><parameter name="TSC">30.9</parameter><parameter name="MVD">0.298758685588837</parameter><parameter name="AN1">0.226012196286335</parameter><parameter name="AN2">0</parameter><parameter name="VSN">2.485 Apr  4 2017</parameter><parameter name="SRN">0085</parameter><parameter name="CAM">0</parameter><parameter name="INS">IR-Biotyper</parameter><parameter name="FOC">69</parameter><parameter name="RDY">1</parameter><parameter name="ARS">32</parameter></Instrument_Parameters_Rf><Sample_Parameters_><parameter name="BLD"></parameter><parameter name="CNM">Admin</parameter><parameter name="CPY"></parameter><parameter name="DPM"></parameter><parameter name="EXP">IRBT_v3_32Scans.XPM</parameter><parameter name="LCT"></parameter><parameter name="SFM">Microplate, HTS-XT</parameter><parameter name="SNM">240117-1222-Cdiff_SCFA_1_C13_232110856_E10_6c8b2dac-c01d-4ab2-a713-d7887b2ae8ed.0</parameter><parameter name="XPP">C:\Users\Public\Documents\Bruker\OPUS_8.2.28\XPM</parameter><parameter name="IST">OK</parameter><parameter name="CPG">1252</parameter><parameter name="UID">c898bc4a-80cc-4aa5-9e73-d90d747a16a5</parameter></Sample_Parameters_><Instrument_Parameters_><parameter name="HFL">15801.365274</parameter><parameter name="LFL">0</parameter><parameter name="LWN">15801.365274</parameter><parameter name="ABP">32157</parameter><parameter name="SSP">1</parameter><parameter name="ASG">2</parameter><parameter name="ARG">2</parameter><parameter name="ASS">32</parameter><parameter name="GFW">16</parameter><parameter name="GBW">16</parameter><parameter name="BFW">0</parameter><parameter name="BBW">0</parameter><parameter name="PKA">10859</parameter><parameter name="PKL">4979</parameter><parameter name="PRA">10892</parameter><parameter name="PRL">5002</parameter><parameter name="P2A">1</parameter><parameter name="P2L">1</parameter><parameter name="P2R">1</parameter><parameter name="P2K">1</parameter><parameter name="DAQ">0</parameter><parameter name="AG2">1</parameter><parameter name="SSM">1</parameter><parameter name="RSN">23883</parameter><parameter name="CRR">0</parameter><parameter name="SRT">1705498752.323</parameter><parameter name="DUR">19.6449890136719</parameter><parameter name="TSC">30.9</parameter><parameter name="MVD">0.290734022855759</parameter><parameter name="AN1">0.226009847254922</parameter><parameter name="AN2">0</parameter><parameter name="VSN">2.485 Apr  4 2017</parameter><parameter name="SRN">0085</parameter><parameter name="CAM">0</parameter><parameter name="INS">IR-Biotyper</parameter><parameter name="FOC">69</parameter><parameter name="RDY">1</parameter></Instrument_Parameters_><History/></OPUSDataFile>
