<?xml version="1.0" encoding="UTF-8" ?>
<OPUSDataFile><AB><Ydata ylabel="Absorbance Units"><values byteorder="INTEL" format="FLOAT32" numvalues="3497"> -0.09367763 -0.09365353 -0.09362819 -0.09360177 -0.09357533 -0.09354766 -0.09351661 -0.09348141 -0.09343884 -0.09339197
 -0.09334185 -0.09329393 -0.09325302 -0.09322029 -0.09319896 -0.09318311 -0.09317198 -0.09315839 -0.09314021 -0.09311529
 -0.09308266 -0.09304507 -0.09300268 -0.09295824 -0.09291188 -0.09286325 -0.0928123 -0.09275787 -0.09270075 -0.09264402
 -0.0925891 -0.09254286 -0.09250451 -0.09247685 -0.09245548 -0.09243513 -0.09241197 -0.09237871 -0.09233769 -0.09228722
 -0.09223379 -0.09218043 -0.09213069 -0.09208713 -0.09204797 -0.09201346 -0.09198045 -0.09194843 -0.09191624 -0.09188371
 -0.09185047 -0.09181648 -0.091781 -0.09174399 -0.09170489 -0.09166406 -0.09162312 -0.09158262 -0.09154542 -0.09151132
 -0.09148154 -0.09145497 -0.09143043 -0.09140708 -0.09138355 -0.09135944 -0.09133425 -0.09130726 -0.09127802 -0.09124587
 -0.09121021 -0.09117214 -0.09113166 -0.0910906 -0.09104939 -0.09100796 -0.09096643 -0.0909234 -0.09087881 -0.09083225
 -0.09078373 -0.09073339 -0.09068149 -0.09062889 -0.09057687 -0.0905301 -0.0904896 -0.09046113 -0.09044178 -0.09043098
 -0.0904215 -0.09040465 -0.09037717 -0.0903315 -0.09027488 -0.09020776 -0.0901414 -0.09008072 -0.09002893 -0.08998859
 -0.08995517 -0.08992855 -0.08990337 -0.0898791 -0.08985262 -0.08982375 -0.0897908 -0.08975372 -0.089711 -0.08966299
 -0.08961061 -0.08955501 -0.08950055 -0.08944815 -0.08940257 -0.08936265 -0.08932922 -0.08929929 -0.08926988 -0.0892387
 -0.08920273 -0.08916193 -0.0891151 -0.08906414 -0.08900946 -0.08895265 -0.08889423 -0.08883483 -0.08877447 -0.08871467
 -0.08865529 -0.08860189 -0.08855473 -0.08852126 -0.08850133 -0.08849584 -0.08850297 -0.08851324 -0.08852336 -0.08851621
 -0.08849078 -0.08843347 -0.08835176 -0.08824982 -0.08813988 -0.08803903 -0.08795033 -0.08788367 -0.08783211 -0.08779505
 -0.08776434 -0.08773635 -0.08770806 -0.08767755 -0.08764674 -0.0876159 -0.08758527 -0.08755524 -0.08752072 -0.08748142
 -0.08743186 -0.08737216 -0.0873026 -0.08722424 -0.0871435 -0.08706154 -0.0869864 -0.08691765 -0.08685887 -0.08680774
 -0.08676203 -0.08671977 -0.08667741 -0.08663508 -0.08659162 -0.08654785 -0.08650433 -0.0864602 -0.08641502 -0.08636925
 -0.08632243 -0.08627778 -0.08623584 -0.0861984 -0.08616606 -0.08613518 -0.08610559 -0.08607122 -0.08603195 -0.08598515
 -0.08593129 -0.08587197 -0.0858077 -0.08574128 -0.08567282 -0.08560389 -0.08553454 -0.08546557 -0.08539693 -0.08532877
 -0.08526123 -0.08519408 -0.08512864 -0.08506542 -0.08500586 -0.08495102 -0.08489999 -0.08485318 -0.08480719 -0.08476155
 -0.0847136 -0.0846629 -0.08460905 -0.084552 -0.08449239 -0.08443038 -0.08436833 -0.08430678 -0.08425064 -0.08419996
 -0.08415832 -0.08412344 -0.08409224 -0.08406057 -0.08401957 -0.08396725 -0.08389616 -0.08381058 -0.08370994 -0.08360371
 -0.08349669 -0.08339711 -0.08330978 -0.08323713 -0.08318134 -0.08313953 -0.08311187 -0.08309355 -0.0830843 -0.08307823
 -0.08307501 -0.0830664 -0.08305199 -0.08302424 -0.08298372 -0.08293054 -0.08286588 -0.08279508 -0.0827174 -0.08263332
 -0.08254217 -0.08244137 -0.08233495 -0.08222597 -0.08212045 -0.08202531 -0.08194192 -0.08187403 -0.08181752 -0.08177254
 -0.0817316 -0.08169325 -0.08164924 -0.08159758 -0.08153503 -0.08146045 -0.08137888 -0.08129051 -0.08120266 -0.08111539
 -0.08102988 -0.08094558 -0.0808586 -0.0807696 -0.08067877 -0.08058791 -0.08050231 -0.08042212 -0.08035099 -0.0802858
 -0.08022475 -0.08016304 -0.08009569 -0.08002003 -0.07993195 -0.07983436 -0.07972648 -0.07961547 -0.07950316 -0.07939471
 -0.07929189 -0.07919411 -0.07910194 -0.07900971 -0.07891713 -0.07881858 -0.07871406 -0.07860424 -0.07848965 -0.07837531
 -0.0782602 -0.07814362 -0.07802242 -0.07788661 -0.07773644 -0.07756498 -0.07738095 -0.07719218 -0.07700758 -0.07684042
 -0.07668734 -0.07655182 -0.07642291 -0.07629673 -0.07616587 -0.07602718 -0.07587814 -0.075718 -0.07554437 -0.07535701
 -0.07515296 -0.07493199 -0.07469251 -0.07443462 -0.07416112 -0.07387301 -0.0735795 -0.07328154 -0.07298881 -0.07270025
 -0.07241815 -0.07214058 -0.07186477 -0.07158992 -0.07131433 -0.07103619 -0.0707541 -0.07046413 -0.07016297 -0.06984968
 -0.06952253 -0.06918394 -0.06883509 -0.06847354 -0.06809936 -0.06770745 -0.06729622 -0.06687254 -0.0664365 -0.06600338
 -0.06557357 -0.0651507 -0.06473349 -0.06431266 -0.06388775 -0.06345126 -0.06300506 -0.06255043 -0.06208963 -0.06162854
 -0.06116614 -0.06070534 -0.06023917 -0.05976279 -0.05926885 -0.05874817 -0.05820761 -0.05764492 -0.05707946 -0.056518
 -0.05596694 -0.05543108 -0.05489615 -0.05436126 -0.05381143 -0.05324511 -0.05266231 -0.05206326 -0.05145719 -0.0508442
 -0.05022937 -0.04961154 -0.04898787 -0.04835743 -0.04771526 -0.04706293 -0.04640038 -0.04573149 -0.04506203 -0.04439342
 -0.04373032 -0.04306896 -0.04240865 -0.04174465 -0.0410746 -0.04039564 -0.03970632 -0.03900577 -0.03829306 -0.03757134
 -0.03684058 -0.03610687 -0.0353709 -0.03463136 -0.03388794 -0.03312976 -0.03235686 -0.03156427 -0.0307545 -0.0299371
 -0.02911382 -0.02829583 -0.02748129 -0.02667193 -0.02586505 -0.02505758 -0.02424757 -0.02343193 -0.02260994 -0.02177958
 -0.02094307 -0.02010106 -0.01925492 -0.01840662 -0.01754972 -0.01668349 -0.01580072 -0.01489913 -0.01398589 -0.01306093
 -0.01214055 -0.01122536 -0.01032095 -0.009426376 -0.008534647 -0.007645182 -0.006751314 -0.005853795 -0.004951417 -0.004045254
 -0.003136928 -0.002227206 -0.00131831 -0.0004093364 0.0004991571 0.001410209 0.002325967 0.003247791 0.004177614 0.005112845
 0.006053157 0.006995876 0.007940182 0.008885617 0.009831961 0.01077962 0.0117286 0.01267948 0.01363226 0.01458628
 0.0155413 0.01649454 0.01744613 0.01839488 0.01934216 0.02029184 0.02124469 0.02220471 0.0231707 0.02414226
 0.02511917 0.02610107 0.02708778 0.02808078 0.02907394 0.03006571 0.03104736 0.03201418 0.03296777 0.03390601
 0.03484161 0.03577601 0.03671949 0.03767348 0.03863629 0.03960778 0.04057996 0.04155257 0.04251985 0.04348265
 0.04444215 0.04539965 0.04636053 0.04732436 0.04829326 0.04926532 0.05023835 0.05121152 0.05218311 0.05315291
 0.05412124 0.05508459 0.05604167 0.05698853 0.05792276 0.05884583 0.0597569 0.06066203 0.0615617 0.06246268
 0.06336558 0.06427564 0.06519311 0.06611646 0.06704485 0.06796833 0.06888622 0.06978932 0.07067871 0.07155339
 0.07241403 0.07326166 0.07409654 0.07491802 0.07573061 0.07653754 0.07734653 0.07816561 0.07899485 0.07983874
 0.08068634 0.08153549 0.08237473 0.08320032 0.08400936 0.08480014 0.08557817 0.08634356 0.08710474 0.08786212
 0.08861951 0.08937647 0.09012883 0.09087607 0.09161289 0.09233972 0.09305529 0.09376004 0.09445432 0.09513833
 0.09581184 0.09647699 0.09713605 0.0977906 0.09844349 0.09909227 0.09973644 0.1003736 0.1010022 0.101624
 0.1022395 0.1028489 0.1034529 0.1040465 0.1046291 0.1051993 0.1057568 0.1063083 0.106854 0.1073997
 0.1079449 0.1084899 0.1090338 0.1095741 0.1101095 0.1106363 0.1111525 0.1116525 0.1121361 0.1126001
 0.1130481 0.1134816 0.1139052 0.114322 0.1147341 0.1151436 0.1155484 0.1159491 0.1163394 0.1167187
 0.1170803 0.1174229 0.1177475 0.118054 0.1183524 0.1186433 0.1189368 0.1192325 0.119533 0.1198367
 0.1201388 0.1204385 0.1207304 0.1210148 0.12129 0.121556 0.1218131 0.1220596 0.1222943 0.1225158
 0.1227222 0.1229155 0.1230958 0.123267 0.1234304 0.1235872 0.1237379 0.1238829 0.1240222 0.1241582
 0.1242911 0.1244196 0.1245432 0.1246534 0.12475 0.1248261 0.1248835 0.1249257 0.1249549 0.124979
 0.1249974 0.1250129 0.1250231 0.1250258 0.1250197 0.1250025 0.1249751 0.1249374 0.124891 0.1248365
 0.1247745 0.1247054 0.1246288 0.1245444 0.1244531 0.1243548 0.1242529 0.1241476 0.1240402 0.1239304
 0.1238137 0.1236894 0.1235517 0.1234011 0.123235 0.123055 0.1228632 0.1226619 0.1224556 0.1222464
 0.1220393 0.1218344 0.1216343 0.1214361 0.1212393 0.1210402 0.1208371 0.1206283 0.1204127 0.1201901
 0.1199596 0.119724 0.1194829 0.1192439 0.1190073 0.1187816 0.1185668 0.1183639 0.1181721 0.1179856
 0.1178046 0.1176266 0.1174534 0.117289 0.1171317 0.1169832 0.1168343 0.1166758 0.1164984 0.1162885
 0.1160504 0.1157786 0.1154945 0.1152041 0.1149292 0.114679 0.1144543 0.1142593 0.1140716 0.11389
 0.1136884 0.1134647 0.1132088 0.1129212 0.1126116 0.112282 0.1119506 0.1116181 0.1112966 0.1109844
 0.1106833 0.1103897 0.1100988 0.1098074 0.1095094 0.1092045 0.1088893 0.1085685 0.1082436 0.1079201
 0.1076022 0.1072854 0.1069717 0.1066445 0.1063012 0.1059292 0.1055255 0.1050964 0.1046416 0.1041809
 0.1037149 0.1032596 0.1028145 0.1023842 0.1019674 0.1015612 0.1011634 0.1007667 0.1003686 0.0999603
 0.09954201 0.09910936 0.0986662 0.09821459 0.09775724 0.09729732 0.09683282 0.09636384 0.09588753 0.09540242
 0.09491023 0.09441043 0.09390885 0.09340589 0.09290769 0.09241468 0.09193068 0.0914556 0.09098744 0.09052487
 0.09005706 0.08958277 0.08908983 0.08858055 0.08805367 0.0875152 0.08697615 0.08644024 0.08591847 0.08540732
 0.08490884 0.08441452 0.0839197 0.08341817 0.08290536 0.08238148 0.08184486 0.081301 0.08075018 0.08020026
 0.07965224 0.07911136 0.07857823 0.07805122 0.07753007 0.07700779 0.07648392 0.07595157 0.07541093 0.07485914
 0.07429679 0.07372395 0.07314132 0.07254966 0.07195129 0.07134872 0.07074628 0.07014898 0.06955925 0.06898151
 0.06841133 0.06784909 0.06728549 0.06671721 0.06614114 0.06555469 0.06496649 0.06437685 0.06379738 0.06322921
 0.06267288 0.06212804 0.06158378 0.06103947 0.06048466 0.05992036 0.05934547 0.05876185 0.05817438 0.05758406
 0.05699516 0.0564079 0.05582431 0.05524433 0.05466883 0.05409683 0.05352814 0.05296127 0.05239542 0.05182992
 0.05126436 0.05069879 0.05013301 0.04956802 0.04900353 0.0484441 0.04788992 0.04734783 0.04681796 0.04629987
 0.04579204 0.04528082 0.04476481 0.0442288 0.04367558 0.04310396 0.04252077 0.04193908 0.04136393 0.04080942
 0.04027312 0.0397598 0.03925951 0.03876831 0.0382742 0.03776973 0.03725179 0.03671546 0.03617252 0.03562343
 0.03508523 0.03456079 0.03405573 0.03357119 0.03309837 0.03263685 0.032178 0.0317224 0.03127206 0.03082835
 0.03039956 0.02998522 0.02958971 0.02920839 0.02883577 0.02846302 0.02807553 0.02766665 0.02722136 0.02674691
 0.02623943 0.02572143 0.02520179 0.02469896 0.02422342 0.02377154 0.02334598 0.02293052 0.02252278 0.02211601
 0.02170908 0.0213072 0.02091054 0.020521 0.02013794 0.01975511 0.01937257 0.01898661 0.01859929 0.01821549
 0.01783626 0.01746706 0.01710552 0.01675075 0.01639959 0.01604797 0.01569565 0.01534087 0.01498535 0.0146301
 0.01427403 0.01391808 0.01355602 0.01318725 0.01280356 0.01240359 0.01198309 0.01154117 0.01108307 0.01060921
 0.01013432 0.009659369 0.009200234 0.008756249 0.008333234 0.007928053 0.007533977 0.007148054 0.006760147 0.006370265
 0.005973622 0.005572433 0.005167249 0.004760019 0.004352155 0.003945392 0.003540707 0.003139958 0.002744354 0.002353132
 0.001966912 0.001581193 0.001195346 0.000806418 0.000413693 2.288699E-05 -0.000365673 -0.0007419114 -0.001106094 -0.001456782
 -0.001796392 -0.002137182 -0.002480923 -0.002841403 -0.003215329 -0.003603436 -0.00399891 -0.004391214 -0.004776887 -0.005146947
 -0.005504574 -0.005848706 -0.006184749 -0.006515479 -0.006843253 -0.007169845 -0.007494423 -0.007817266 -0.008136477 -0.008452
 -0.008760913 -0.009063021 -0.00935518 -0.00963722 -0.009906895 -0.01016423 -0.01040849 -0.0106402 -0.01086124 -0.01107328
 -0.01128263 -0.01149129 -0.01170775 -0.01193073 -0.01216359 -0.01239994 -0.01263502 -0.01286096 -0.01307011 -0.01325871
 -0.01342224 -0.01356191 -0.01367727 -0.01376964 -0.01383955 -0.01388624 -0.01390962 -0.0139094 -0.01388531 -0.0138407
 -0.01377575 -0.01369652 -0.01360332 -0.01350164 -0.01339122 -0.01327357 -0.01314774 -0.0130115 -0.0128634 -0.0126991
 -0.01251741 -0.01231427 -0.01208997 -0.01184254 -0.01157491 -0.01128773 -0.01098671 -0.01067443 -0.01035687 -0.01003701
 -0.009717073 -0.009398692 -0.00907928 -0.008758832 -0.008433705 -0.008103476 -0.007766859 -0.007423763 -0.007075178 -0.006721088
 -0.006361528 -0.005996359 -0.005624571 -0.005246402 -0.004861915 -0.004471956 -0.004078471 -0.003682269 -0.003285742 -0.002888694
 -0.002492289 -0.002094674 -0.001694908 -0.001291121 -0.0008815214 -0.0004670742 -4.648345E-05 0.0003735468 0.000792607 0.001200138
 0.001594637 0.001967103 0.002316296 0.002639642 0.00293692 0.003210555 0.003460555 0.003688075 0.003892119 0.004067682
 0.004212767 0.004317447 0.004380487 0.004392978 0.004357228 0.004271557 0.00414273 0.003976963 0.003782269 0.003567603
 0.003335853 0.003092147 0.002832521 0.002556924 0.002260391 0.001941483 0.001598038 0.001229664 0.0008339214 0.0004105098
 -4.263231E-05 -0.0005257315 -0.001030606 -0.001555783 -0.002078053 -0.002595371 -0.003082401 -0.003539879 -0.003956263 -0.004335183
 -0.00467962 -0.004992969 -0.005282164 -0.005549614 -0.005800034 -0.00603713 -0.006264523 -0.006487488 -0.006709783 -0.006935055
 -0.007165888 -0.007402428 -0.007645323 -0.00789324 -0.008145725 -0.008404076 -0.008668075 -0.008942731 -0.009228303 -0.009531002
 -0.009850939 -0.01019077 -0.01054981 -0.01092501 -0.01131521 -0.01171386 -0.01212133 -0.01253424 -0.01295603 -0.01339072
 -0.01384221 -0.01431804 -0.01481654 -0.01534092 -0.01588194 -0.01643633 -0.01699315 -0.01754712 -0.01809281 -0.01862739
 -0.01915076 -0.0196623 -0.02016397 -0.02065585 -0.02114036 -0.02161765 -0.02208915 -0.02255472 -0.02301215 -0.02346134
 -0.02389931 -0.0243281 -0.02475263 -0.02517836 -0.02562183 -0.0260869 -0.0265905 -0.02712699 -0.02769957 -0.02829204
 -0.02889305 -0.02948622 -0.03005741 -0.0306027 -0.03111519 -0.0316042 -0.0320704 -0.03252449 -0.03296899 -0.03340694
 -0.03383926 -0.03426352 -0.03467963 -0.03508605 -0.03548276 -0.03586922 -0.03624529 -0.0366095 -0.03696178 -0.03730057
 -0.03762672 -0.0379413 -0.03824592 -0.03854387 -0.03883661 -0.03912757 -0.03941685 -0.03970622 -0.03999363 -0.04027873
 -0.04055839 -0.040831 -0.04109566 -0.04135129 -0.04160046 -0.04184334 -0.04208307 -0.04232022 -0.04255443 -0.04278581
 -0.04301061 -0.04322868 -0.04343639 -0.04363414 -0.04382269 -0.04400334 -0.04418183 -0.04435936 -0.04454258 -0.04473082
 -0.04492649 -0.04512713 -0.04533057 -0.04553478 -0.04573695 -0.04593679 -0.04613348 -0.04632674 -0.04651652 -0.04670159
 -0.04688156 -0.04705581 -0.04722407 -0.04738688 -0.0475443 -0.04769659 -0.04784379 -0.04798587 -0.0481229 -0.04825648
 -0.04838687 -0.04851709 -0.04864719 -0.0487791 -0.04891251 -0.04904765 -0.04918382 -0.04931992 -0.04945501 -0.04958737
 -0.04971645 -0.04984077 -0.04996136 -0.05007778 -0.05019328 -0.05030888 -0.05042799 -0.05055205 -0.0506818 -0.05081815
 -0.05095746 -0.05109964 -0.05123928 -0.05137595 -0.05150699 -0.05163243 -0.05175425 -0.05187282 -0.05199195 -0.05211158
 -0.05223349 -0.05235726 -0.0524825 -0.05260924 -0.05273726 -0.05286701 -0.05299921 -0.05313361 -0.05327051 -0.05340877
 -0.05354793 -0.05368654 -0.05382378 -0.05395899 -0.05409155 -0.05422255 -0.05435188 -0.05448199 -0.0546131 -0.05474779
 -0.05488627 -0.05502957 -0.05517769 -0.05532981 -0.05548577 -0.05564393 -0.05580406 -0.05596425 -0.05612439 -0.0562832
 -0.05644051 -0.05659529 -0.05674779 -0.05689765 -0.05704612 -0.0571941 -0.057343 -0.05749438 -0.05764765 -0.05780337
 -0.05795893 -0.05811351 -0.05826593 -0.05841546 -0.05856391 -0.05871134 -0.05886013 -0.05901053 -0.05916228 -0.05931533
 -0.05946774 -0.05961952 -0.05976971 -0.05991866 -0.06006752 -0.06021658 -0.06036741 -0.06051977 -0.06067426 -0.06082972
 -0.06098494 -0.06113857 -0.06128856 -0.06143497 -0.06157664 -0.061716 -0.06185339 -0.06199269 -0.0621352 -0.06228351
 -0.06243885 -0.06259959 -0.06276608 -0.06293268 -0.06309902 -0.06325983 -0.06341492 -0.06356414 -0.06370804 -0.0638518
 -0.06399591 -0.06414578 -0.06430089 -0.06446271 -0.06462976 -0.06479967 -0.06497134 -0.06514183 -0.06531141 -0.06547904
 -0.06564604 -0.06581309 -0.06598104 -0.06615074 -0.0663216 -0.0664939 -0.0666656 -0.06683638 -0.06700443 -0.06716935
 -0.06733095 -0.06748906 -0.06764571 -0.06780104 -0.06795791 -0.06811629 -0.06827735 -0.06844071 -0.06860501 -0.06876998
 -0.06893385 -0.06909706 -0.06925964 -0.06942227 -0.06958623 -0.0697513 -0.06991816 -0.07008497 -0.07025073 -0.07041374
 -0.07057264 -0.07072753 -0.07087782 -0.07102561 -0.07117108 -0.07131678 -0.07146308 -0.07161151 -0.07176226 -0.0719158
 -0.07207213 -0.07222983 -0.07238852 -0.07254375 -0.07269516 -0.07283805 -0.07297333 -0.07310081 -0.07322304 -0.07334539
 -0.07346978 -0.0736022 -0.07374106 -0.07388759 -0.07403783 -0.07418935 -0.07433909 -0.07448463 -0.0746256 -0.0747612
 -0.07489243 -0.07501922 -0.0751434 -0.07526506 -0.07538702 -0.07550956 -0.07563439 -0.07576159 -0.07588954 -0.07601799
 -0.07614391 -0.07626755 -0.07638859 -0.07650758 -0.0766264 -0.07674474 -0.07686294 -0.07698011 -0.07709453 -0.07720681
 -0.07731633 -0.07742567 -0.07753652 -0.07765075 -0.07777032 -0.0778937 -0.07802121 -0.07814943 -0.07827751 -0.07840378
 -0.07852767 -0.07864992 -0.07877055 -0.07889034 -0.07900932 -0.07912663 -0.07924221 -0.07935523 -0.07946596 -0.07957538
 -0.07968391 -0.07979356 -0.07990424 -0.08001673 -0.08013055 -0.08024514 -0.08036037 -0.08047576 -0.0805916 -0.08070799
 -0.08082515 -0.08094339 -0.08106221 -0.08118194 -0.08130019 -0.08141676 -0.08152827 -0.08163391 -0.08173332 -0.08182606
 -0.08191743 -0.08200771 -0.08210421 -0.08220699 -0.08231877 -0.08243867 -0.08256299 -0.08269081 -0.08281678 -0.08294104
 -0.08306105 -0.08317801 -0.08329267 -0.0834064 -0.08352101 -0.08363737 -0.08375674 -0.08387943 -0.08400593 -0.0841362
 -0.08427048 -0.0844079 -0.08454851 -0.08469025 -0.08483286 -0.0849746 -0.08511525 -0.08525416 -0.08539127 -0.08552665
 -0.08566029 -0.0857925 -0.08592334 -0.08605362 -0.08618344 -0.08631365 -0.08644418 -0.0865752 -0.08670662 -0.08683819
 -0.08697019 -0.08710288 -0.08723611 -0.08737015 -0.08750377 -0.08763639 -0.08776711 -0.0878951 -0.08802156 -0.08814646
 -0.08827188 -0.08839826 -0.08852614 -0.08865572 -0.08878546 -0.0889153 -0.08904354 -0.08917018 -0.08929463 -0.08941709
 -0.08953819 -0.08965818 -0.08977812 -0.08989827 -0.09001971 -0.09014279 -0.09026865 -0.09039716 -0.09052903 -0.09066284
 -0.09079789 -0.09093239 -0.09106489 -0.0911955 -0.09132356 -0.0914513 -0.09157932 -0.09170849 -0.09183943 -0.09196952
 -0.09209862 -0.09222372 -0.09234459 -0.09246149 -0.09257466 -0.0926877 -0.09280097 -0.09291858 -0.09304035 -0.09316805
 -0.09330068 -0.09343703 -0.09357537 -0.09371229 -0.09384638 -0.09397423 -0.09409651 -0.09421203 -0.09432372 -0.09443263
 -0.09454191 -0.09465331 -0.09476723 -0.09488434 -0.09500302 -0.09512316 -0.0952431 -0.09536261 -0.09548126 -0.09559903
 -0.09571575 -0.09583144 -0.09594577 -0.09605881 -0.09617069 -0.09628163 -0.09639253 -0.09650336 -0.09661461 -0.09672572
 -0.09683589 -0.09694452 -0.09705036 -0.09715358 -0.09725361 -0.09735171 -0.09744831 -0.09754489 -0.09764227 -0.09774072
 -0.09784057 -0.09794132 -0.0980429 -0.09814514 -0.09824797 -0.09835179 -0.09845664 -0.0985625 -0.09866932 -0.09877633
 -0.09888352 -0.09899027 -0.09909676 -0.09920321 -0.09931003 -0.09941831 -0.09952876 -0.09964298 -0.09976181 -0.09988683
 -0.1000189 -0.1001593 -0.1003085 -0.1004677 -0.1006364 -0.1008154 -0.1010021 -0.1011965 -0.1013938 -0.101593
 -0.1017905 -0.1019855 -0.1021781 -0.1023682 -0.1025578 -0.1027468 -0.1029333 -0.1031165 -0.1032898 -0.1034523
 -0.1035977 -0.1037258 -0.1038338 -0.1039217 -0.1039882 -0.1040325 -0.1040524 -0.1040479 -0.1040154 -0.1039643
 -0.1038949 -0.1038306 -0.1037801 -0.1037644 -0.1037932 -0.1038675 -0.1039911 -0.1041458 -0.1043309 -0.1045193
 -0.104709 -0.1048772 -0.1050234 -0.1051443 -0.1052415 -0.1053276 -0.105403 -0.1054763 -0.1055459 -0.1056116
 -0.1056733 -0.1057299 -0.1057829 -0.1058339 -0.1058848 -0.1059377 -0.105995 -0.1060593 -0.1061303 -0.1062099
 -0.1062917 -0.1063751 -0.1064506 -0.1065159 -0.1065677 -0.1066045 -0.1066339 -0.1066562 -0.1066834 -0.1067159
 -0.10676 -0.1068151 -0.1068783 -0.1069485 -0.1070183 -0.1070877 -0.1071523 -0.1072135 -0.1072719 -0.107329
 -0.1073873 -0.1074469 -0.107509 -0.1075733 -0.1076398 -0.107708 -0.1077779 -0.1078483 -0.1079193 -0.1079893
 -0.1080579 -0.1081245 -0.1081888 -0.108252 -0.1083141 -0.1083772 -0.1084414 -0.1085082 -0.1085775 -0.1086495
 -0.108724 -0.1088005 -0.1088787 -0.108958 -0.109038 -0.109118 -0.1091977 -0.1092766 -0.1093545 -0.1094311
 -0.1095062 -0.1095796 -0.1096505 -0.1097185 -0.1097837 -0.1098457 -0.1099061 -0.109965 -0.110024 -0.1100835
 -0.1101442 -0.1102061 -0.1102693 -0.1103338 -0.1103999 -0.1104673 -0.1105359 -0.1106054 -0.1106745 -0.1107431
 -0.1108099 -0.1108754 -0.1109393 -0.111002 -0.1110638 -0.1111245 -0.1111839 -0.1112422 -0.111299 -0.1113555
 -0.1114119 -0.1114691 -0.1115277 -0.1115868 -0.1116466 -0.1117052 -0.111762 -0.111817 -0.1118699 -0.1119235
 -0.1119779 -0.1120359 -0.1120974 -0.1121623 -0.1122302 -0.1122991 -0.1123689 -0.1124381 -0.1125065 -0.112573
 -0.1126371 -0.1126972 -0.1127534 -0.1128046 -0.1128527 -0.1128984 -0.1129439 -0.1129906 -0.1130389 -0.1130893
 -0.1131408 -0.1131934 -0.113247 -0.1133016 -0.1133585 -0.1134178 -0.1134795 -0.1135434 -0.1136064 -0.1136682
 -0.113726 -0.1137804 -0.1138322 -0.1138825 -0.1139354 -0.1139908 -0.114051 -0.1141144 -0.1141797 -0.1142459
 -0.1143108 -0.1143752 -0.1144388 -0.1145026 -0.1145673 -0.1146324 -0.114698 -0.1147629 -0.1148268 -0.1148896
 -0.1149514 -0.1150127 -0.1150734 -0.1151336 -0.1151931 -0.1152515 -0.1153086 -0.1153651 -0.1154211 -0.115478
 -0.1155358 -0.1155954 -0.1156565 -0.1157194 -0.1157838 -0.1158495 -0.1159166 -0.1159851 -0.1160542 -0.1161234
 -0.1161918 -0.1162586 -0.1163243 -0.1163885 -0.1164532 -0.1165188 -0.1165862 -0.1166561 -0.1167265 -0.1167973
 -0.1168662 -0.1169331 -0.116998 -0.1170612 -0.117125 -0.1171895 -0.117257 -0.117327 -0.1173992 -0.1174728
 -0.1175456 -0.1176171 -0.1176852 -0.1177501 -0.1178113 -0.1178695 -0.1179251 -0.1179788 -0.118031 -0.118083
 -0.1181351 -0.118189 -0.1182453 -0.1183045 -0.1183671 -0.1184314 -0.1184973 -0.1185627 -0.1186273 -0.1186901
 -0.1187512 -0.1188107 -0.1188685 -0.1189247 -0.1189791 -0.1190311 -0.1190813 -0.1191307 -0.1191806 -0.1192337
 -0.1192907 -0.119354 -0.119422 -0.1194947 -0.1195686 -0.1196419 -0.119712 -0.119777 -0.1198374 -0.1198926
 -0.1199448 -0.1199943 -0.1200431 -0.1200915 -0.1201408 -0.1201911 -0.1202437 -0.1202989 -0.120358 -0.120421
 -0.1204878 -0.1205575 -0.1206274 -0.1206969 -0.1207631 -0.1208268 -0.1208878 -0.120948 -0.1210097 -0.1210731
 -0.1211396 -0.1212073 -0.1212753 -0.1213417 -0.1214051 -0.1214656 -0.1215228 -0.1215786 -0.121633 -0.1216876
 -0.1217425 -0.1217984 -0.1218554 -0.121914 -0.1219741 -0.1220357 -0.1220985 -0.122162 -0.1222259 -0.1222894
 -0.1223525 -0.1224147 -0.1224762 -0.1225372 -0.1225974 -0.1226569 -0.1227152 -0.1227721 -0.1228276 -0.1228813
 -0.122935 -0.122989 -0.1230451 -0.1231043 -0.1231661 -0.1232311 -0.123297 -0.1233638 -0.1234301 -0.123496
 -0.1235625 -0.1236296 -0.1236987 -0.1237694 -0.1238405 -0.1239112 -0.1239782 -0.1240415 -0.1240989 -0.1241517
 -0.1242012 -0.124249 -0.1242977 -0.1243475 -0.1243996 -0.1244525 -0.1245055 -0.124558 -0.1246091 -0.1246602
 -0.1247114 -0.1247645 -0.12482 -0.1248769 -0.1249354 -0.1249925 -0.1250481 -0.1251009 -0.1251508 -0.1251998
 -0.1252482 -0.1252995 -0.1253533 -0.1254111 -0.125472 -0.1255341 -0.1255964 -0.1256557 -0.1257119 -0.1257632
 -0.1258106 -0.1258543 -0.1258957 -0.1259358 -0.1259756 -0.1260159 -0.1260573 -0.1261003 -0.1261449 -0.1261915
 -0.126239 -0.1262874 -0.1263352 -0.1263821 -0.1264271 -0.1264704 -0.1265127 -0.1265544 -0.126597 -0.1266404
 -0.1266848 -0.1267297 -0.1267733 -0.1268152 -0.1268537 -0.1268898 -0.1269237 -0.1269573 -0.1269923 -0.1270298
 -0.1270714 -0.1271157 -0.1271631 -0.1272112 -0.1272594 -0.1273066 -0.1273523 -0.1273972 -0.1274412 -0.1274852
 -0.1275291 -0.1275727 -0.1276159 -0.1276577 -0.1276982 -0.127738 -0.1277776 -0.1278191 -0.1278624 -0.1279087
 -0.1279569 -0.1280055 -0.1280535 -0.1280987 -0.1281419 -0.1281829 -0.1282229 -0.1282632 -0.1283034 -0.1283436
 -0.1283825 -0.1284196 -0.1284559 -0.1284912 -0.1285284 -0.128568 -0.1286104 -0.1286556 -0.1287003 -0.1287442
 -0.1287837 -0.1288189 -0.1288499 -0.1288775 -0.1289053 -0.1289338 -0.1289665 -0.1290025 -0.1290415 -0.1290815
 -0.1291197 -0.1291553 -0.1291862 -0.1292139 -0.1292386 -0.1292619 -0.1292844 -0.1293063 -0.1293276 -0.1293491
 -0.1293706 -0.1293937 -0.129419 -0.1294459 -0.1294747 -0.1295021 -0.129528 -0.1295499 -0.129568 -0.1295829
 -0.1295953 -0.129608 -0.1296215 -0.1296382 -0.1296574 -0.1296795 -0.1297031 -0.1297264 -0.1297484 -0.1297675
 -0.1297842 -0.1297982 -0.1298113 -0.1298241 -0.129838 -0.1298538 -0.1298715 -0.1298916 -0.1299124 -0.1299338
 -0.129953 -0.1299697 -0.1299823 -0.1299908 -0.1299968 -0.1300008 -0.1300065 -0.130014 -0.1300263 -0.1300425
 -0.1300621 -0.1300836 -0.1301037 -0.130121 -0.1301319 -0.1301371 -0.1301354 -0.1301304 -0.1301239 -0.1301195
 -0.13012 -0.1301244 -0.1301337 -0.1301429 -0.1301512 -0.130154 -0.1301505 -0.1301413 -0.1301261 -0.1301105
 -0.1300946 -0.130083 -0.1300754 -0.1300718 -0.1300716 -0.130072 -0.1300723 -0.130069 -0.1300613 -0.1300457
 -0.130023 -0.1299917 -0.1299563 -0.1299201 -0.1298877 -0.1298642 -0.129848 -0.1298407 -0.1298357 -0.1298315
 -0.1298234 -0.1298097 -0.1297912 -0.1297677 -0.1297411 -0.1297116 -0.1296794 -0.1296443 -0.1296059 -0.1295644
 -0.1295208 -0.1294755 -0.1294306 -0.1293865 -0.1293453 -0.1293065 -0.1292704 -0.1292358 -0.1292015 -0.1291665
 -0.1291293 -0.1290899 -0.1290476 -0.1290023 -0.1289538 -0.1289019 -0.1288465 -0.1287887 -0.1287286 -0.1286674
 -0.1286053 -0.1285415 -0.1284757 -0.1284065 -0.1283336 -0.1282582 -0.1281806 -0.1281043 -0.128029 -0.1279559
 -0.1278836 -0.1278085 -0.1277293 -0.1276406 -0.1275436 -0.1274368 -0.1273231 -0.1272052 -0.1270841 -0.1269619
 -0.1268373 -0.1267098 -0.1265803 -0.1264482 -0.1263173 -0.1261888 -0.126064 -0.1259439 -0.125823 -0.1257012
 -0.1255686 -0.1254247 -0.1252614 -0.1250792 -0.1248775 -0.1246576 -0.1244259 -0.1241827 -0.123933 -0.1236746
 -0.1234055 -0.123123 -0.1228219 -0.1225018 -0.1221599 -0.121798 -0.1214167 -0.1210162 -0.1205976 -0.1201569
 -0.1196944 -0.1192014 -0.1186765 -0.118112 -0.1175055 -0.1168623 -0.116182 -0.115484 -0.1147693 -0.1140507
 -0.1133272 -0.1125932 -0.1118483 -0.1110867 -0.1103119 -0.1095327 -0.1087497 -0.1079708 -0.1071881 -0.1063918
 -0.1055791 -0.1047368 -0.1038849 -0.1030303 -0.1021992 -0.1014093 -0.1006633 -0.09996793 -0.09930927 -0.09868462
 -0.09808772 -0.09751692 -0.09697344 -0.09645782 -0.09596033 -0.09548027 -0.09499446 -0.09450284 -0.09399436 -0.09347362
 -0.09295937 -0.09245493 -0.09198333 -0.09153903 -0.09112222 -0.09072443 -0.09033273 -0.08994218 -0.08954402 -0.08913247
 -0.08870447 -0.08824386 -0.08774572 -0.08718455 -0.08655123 -0.08582721 -0.08500388 -0.08408833 -0.08307792 -0.08200214
 -0.08086269 -0.07969192 -0.07849149 -0.07728255 -0.07606412 -0.07483561 -0.07359072 -0.07229678 -0.07094604 -0.06948874
 -0.06793722 -0.06628414 -0.06456977 -0.06285645 -0.06116247 -0.05954218 -0.05796424 -0.05642444 -0.05488794 -0.05332933
 -0.05175365 -0.05015279 -0.0485566 -0.04697076 -0.04541511 -0.043893 -0.04241864 -0.04099328 -0.03963238 -0.03833669
 -0.03710222 -0.03592814 -0.03480063 -0.03372304 -0.03270731 -0.03175727 -0.03089783 -0.0301175 -0.0294075 -0.02874378
 -0.02808144 -0.02741401 -0.02670825 -0.02599406 -0.02528373 -0.02460064 -0.02396741 -0.02336763 -0.0228003 -0.02225005
 -0.02170842 -0.02119364 -0.02070596 -0.02027228 -0.01989592 -0.01958198 -0.01933082 -0.01913499 -0.01899459 -0.01890922
 -0.01887951 -0.01891009 -0.01899918 -0.01914432 -0.0193409 -0.01957871 -0.01985044 -0.02014249 -0.02044291 -0.02073501
 -0.02100571 -0.02123997 -0.02142986 -0.02156836 -0.02164845 -0.02166837 -0.0216141 -0.02148202 -0.02126217 -0.02095045
 -0.02055803 -0.0200849 -0.01955111 -0.01895777 -0.01830915 -0.01760481 -0.01683868 -0.01601149 -0.01512394 -0.01417863
 -0.01318508 -0.01214549 -0.01106942 -0.009958635 -0.008820043 -0.007654922 -0.006467526 -0.005257702 -0.00402667 -0.002773916
 -0.001499298 -0.0002030317 0.001114705 0.002454329 0.00381582 0.005200064 0.0066073 0.008037715 0.009491853 0.01096364
 0.01245286 0.01393678 0.01541362 0.01685212 0.01825325 0.01960706 0.02091662 0.02219328 0.02342727 0.02460676
 0.02570684 0.02667913 0.02751058 0.02816479 0.02864515 0.0289449 0.0290624 0.02899519 0.02874217 0.02830161
 0.02767752 0.02687583 0.02587063 0.02466292 0.02319584 0.02145997 0.01946269 0.01720288 0.01480432 0.01227221
 0.0097084 0.007104725 0.004456229 0.001756578 -0.001024817 -0.003878317 -0.006796659 -0.009765673 -0.01275442 -0.0157636
 -0.01877958 -0.02181351 -0.02488164 -0.02795388 -0.03103692 -0.03403375 -0.03690762 -0.03959586 -0.04206174 -0.04434911
 -0.04645608 -0.04845304 -0.05034919 -0.0521659 -0.0539053 -0.05555452 -0.05711347 -0.05857865 -0.05995198 -0.06124527
 -0.0624592 -0.06360251 -0.06467492 -0.06567836 -0.0666165 -0.06749428 -0.06832118 -0.06910928 -0.06986928 -0.07061461
 -0.0713497 -0.07208176 -0.07280799 -0.07352876 -0.07424168 -0.07494646 -0.07564054 -0.07632545 -0.07698458 -0.07761718
 -0.07819925 -0.07872894 -0.07920424 -0.07962587 -0.08000899 -0.08035301 -0.08066159 -0.0809317 -0.08115267 -0.08132352
 -0.08143634 -0.08149161 -0.08148809 -0.08142241 -0.08129043 -0.08108809 -0.08080881 -0.08045598 -0.08002868 -0.07953432
 -0.07897663 -0.07835646 -0.07767544 -0.07692942 -0.07611746 -0.07523962 -0.07429563 -0.07328815 -0.07221736 -0.07108192
 -0.06988256 -0.0686297 -0.06732938 -0.06602962 -0.06473753 -0.06351181 -0.06234678 -0.06125876 -0.06023555 -0.05925968
 -0.05832957 -0.05743563 -0.05658052 -0.05576881 -0.05498498 -0.05422448 -0.05346277 -0.05268322 -0.05189389 -0.05108803
 -0.05030667 -0.04955852 -0.04885783 -0.04821046 -0.04758542 -0.04698136 -0.04636008 -0.04572039 -0.04504428 -0.04433295
 -0.04358783 -0.04280905 -0.04200018 -0.04115549 -0.04026355 -0.03931368 -0.03827908 -0.03715701 -0.03592694 -0.03460819
 -0.03320748 -0.03175239 -0.03026368 -0.02875171 -0.02722539 -0.02568865 -0.02413944 -0.02260396 -0.02108342 -0.01962023
 -0.01821977 -0.01690795 -0.01568743 -0.01455746 -0.01351791 -0.01256305 -0.01169418 -0.01091907 -0.0102396 -0.009669364
 -0.009206363 -0.008852613 -0.008603819 -0.008452122 -0.008396151 -0.008430221 -0.008556166 -0.008773695 -0.009084697 -0.009490042
 -0.009991905 -0.01059136 -0.01129008 -0.0120895 -0.01298684 -0.01398296 -0.01506797 -0.01624177 -0.01748772 -0.01880508
 -0.02016866 -0.02157698 -0.02300208 -0.02444302 -0.02588022 -0.02731276 -0.0287277 -0.03012114 -0.03147599 -0.03278739
 -0.03403586 -0.03522411 -0.03634465 -0.03741048 -0.03842913 -0.03941713 -0.04038682 -0.04135017 -0.04231623 -0.04328762
 -0.04426851 -0.04525085 -0.04623481 -0.04720669 -0.04816497 -0.04909889 -0.05000753 -0.05088541 -0.05173217 -0.05254118
 -0.05331132 -0.05403015 -0.05469636 -0.05529658 -0.05583183 -0.05629699 -0.05669639 -0.05703514 -0.05731947 -0.05755902
 -0.05776115 -0.05793463 -0.05808927 -0.05823245 -0.05837573 -0.05852546 -0.05869094 -0.05887685 -0.05908543 -0.05931881
 -0.05957143 -0.05984337 -0.06012516 -0.06041621 -0.06070668 -0.06099603 -0.06127573 -0.06154539 -0.06179822 -0.06203374
 -0.06224668 -0.06243578 -0.062595 -0.06272225 -0.06281021 -0.06285806 -0.06286035 -0.06282061 -0.0627387 -0.0626232
 -0.06247849 -0.06231542 -0.06213952 -0.0619597 -0.06177975 -0.06160505 -0.06143735 -0.06127921 -0.06113121 -0.06099445
 -0.06086918 -0.06075363 -0.06064758 -0.0605448 -0.06044469 -0.06033891 -0.06022756 -0.06010596 -0.059976 -0.0598398
 -0.05970184 -0.05957086 -0.0594542 -0.05936479 -0.05931138 -0.05930708 -0.05935796 -0.0594732 -0.05965156 -0.05989659
 -0.06019844 -0.06055684 -0.0609541 -0.06138849 -0.06183526 -0.06229215 -0.06273055 -0.06314823 -0.06351986 -0.0638442
 -0.06410664 -0.06430765 -0.0644457 -0.06452269 -0.0645468 -0.06452065 -0.06445636 -0.06435622 -0.06423083 -0.06408136
 -0.06391408 -0.06372891 -0.06352767 -0.06331104 -0.06307928 -0.06283545 -0.0625804 -0.06231917 -0.06205322 -0.06178754
 -0.06152327 -0.06126457 -0.06101204 -0.06076935 -0.06053688 -0.06031655 -0.06010842 -0.05991158 -0.05972593 -0.05954991
 -0.05938371 -0.05922741 -0.05908147 -0.05894744 -0.05882533 -0.05871609 -0.05861897 -0.05853358 -0.05845834 -0.05839186
 -0.05833181 -0.05827665 -0.05822299 -0.05816953 -0.05811127 -0.05804701 -0.05797019 -0.05787942 -0.05776875 -0.05763692
 -0.05748202 -0.05730351 -0.05710449 -0.05688515 -0.05665224 -0.05640644 -0.05615689 -0.05590471 -0.05566031 -0.05542511
 -0.05520868 -0.05501297 -0.0548462 -0.0547116 -0.05461691 -0.05456628 -0.05456681 -0.05462167 -0.05473577 -0.05490923
 -0.05514435 -0.05543666 -0.05578672 -0.05618368 -0.05662672 -0.05709904 -0.05759896 -0.05810758 -0.05862337 -0.05912856
 -0.0596221 -0.06008577 -0.06051811 -0.06089707 -0.06122018 -0.06146275 -0.06162233 -0.06167745 -0.06162729 -0.06145892
 -0.06117405 -0.06076872 -0.06024785 -0.05961354 -0.05887527 -0.05803826 -0.05711787 -0.05612078 -0.0550667 -0.05396229
 -0.05282746 -0.05166734 -0.05049841 -0.04932394 -0.0481535 -0.04698871 -0.04582928 -0.04467528 -0.04351659 -0.04235211
 -0.0411661 -0.03995642 -0.0387043 -0.03740513 -0.03603555 -0.0345863 -0.03302664 -0.03134461 -0.02950666 -0.0275083
 -0.02532478 -0.02297791 -0.02046289 -0.01784511 -0.0151419 -0.01246019 -0.009830976 -0.007375078 -0.005123965 -0.003171792
 -0.001540357 -0.0002653031 0.0006443348 0.001220184 0.001463433 0.001455869 0.001203854 0.0008086939 0.0002781486 -0.0002920427
 -0.0008937406 -0.001448566 -0.001948911 -0.00233805 -0.002612326 -0.002739376 -0.002723013 -0.002552904 -0.002241535 -0.001792343
 -0.001225661 -0.0005497807 0.0002082469 0.001039901 0.001913721 0.002822569 0.003734618 0.004644382 0.005526889 0.006378903
 0.007187655 0.007952183 0.008672156 0.009348264 0.009989571 0.01059836 0.01119183 0.01177456 0.01237068 0.01298758
 0.01365295 0.01437739 0.01518829 0.01609975 0.0171371 0.01831404 0.01965106 0.02115092 0.02282484 0.02465567
 0.02664413 0.02875553 0.0309846 0.03328902 0.03566303 0.03806451 0.04048981 0.0428963 0.04528145 0.04759892
 0.04984599 0.05197506 0.05398378 0.05583268 0.05752138 0.05902699 0.0603512 0.06148659 0.06243519 0.06319761
 0.0637742 0.06416639 0.06437165 0.06438868 0.06421435 0.06384443 0.06328484 0.06253155 0.0616128 0.06052839
 0.05933523 0.05803763 0.05671373 0.05536995 0.05408708 0.05287034 0.05178303 0.05082677 0.05003362 0.04940024
 0.04892374 0.04859412 0.04837592 0.04825103 0.04815985 0.04807963 0.04794449 0.04773836 0.04741175 0.04697023
 0.04639334 0.04571946 0.04495391 0.04416798 0.04338161 0.04268343 0.04209673 0.04169975 0.041511 0.04156874
 0.04188253 0.04243376 0.04322297 0.04417814 0.0452934 0.04646426 0.04768176 0.04883582 0.0499163 0.05082667
 0.05155582 0.05202816 0.05223269 0.05211641 0.05167117 0.05086571 0.04969768 0.04815292 0.0462383 0.04394932
 0.04130986 0.03832066 0.03503244 0.03145052 0.02765462 0.02365349 0.01954481 0.01533789 0.01112737 0.006919926
 0.002786025 -0.001272137 -0.005219584 -0.009058335 -0.01278535 -0.01640464 -0.01993051 -0.02336636 -0.0267287 -0.03001858
 -0.03324603 -0.03640923 -0.03951114 -0.04254587 -0.04551186 -0.04839597 -0.05119402 -0.05388163 -0.0564522 -0.05887086
 -0.06112943 -0.0631905 -0.06504643 -0.06666993 -0.0680562 -0.06919712 -0.07009131 -0.07075221 -0.07118148 -0.07141231
 -0.07144938 -0.07134129 -0.07109579 -0.07076967 -0.07037187 -0.06995519 -0.06952597 -0.0691212 -0.06874117 -0.06840258
 -0.06809882 -0.06783089 -0.0675884 -0.06736509 -0.06715409 -0.06694888 -0.06675499 -0.06656999 -0.06641304 -0.06628569
 -0.06621324 -0.06619857 -0.0662622 -0.06640596 -0.06663851 -0.06695971 -0.06736299 -0.06784545 -0.06838346 -0.06897047
 -0.0695675 -0.07016549 -0.07071966 -0.07122323 -0.07164088 -0.071974 -0.07220771 -0.07235259 -0.07241122 -0.07239909
 -0.07232533 -0.0722053 -0.07204641 -0.07186345 -0.07166082 -0.0714541 -0.07124592 -0.07105292 -0.07087713 -0.07073259
 -0.07062066 -0.07054579 -0.07050766 -0.07049391 -0.07050175 -0.07050318 -0.07049442 -0.07044343 -0.07034884 -0.07018851
 -0.06996681 -0.06967934 -0.06933731 -0.06895217 -0.06853834 -0.0681135 -0.06768662 -0.06727065 -0.06686223 -0.06646513
 -0.0660658 -0.06566167 -0.06523869 -0.06479301 -0.06431986 -0.06381726 -0.06329249 -0.06274568 -0.06218969 -0.0616251
 -0.06106135 -0.06049846 -0.05994008 -0.05938631 -0.05883957 -0.05830013 -0.0577706 -0.05724972 -0.05673704 -0.05622904
 -0.05572099 -0.05520937 -0.05468906 -0.05415829 -0.05361442 -0.05305677 -0.05248426 -0.05189744 -0.05129527 -0.05068307
 -0.05006021 -0.04944041 -0.04882432 -0.04823177 -0.04766411 -0.04714015 -0.04666086 -0.04624067 -0.04588071 -0.04559618
 -0.04538961 -0.04528129 -0.04527331 -0.04538478 -0.04561127 -0.04595736 -0.04640634 -0.04694166 -0.04753486 -0.04815603
 -0.04877288 -0.04935614 -0.04988174 -0.05033042 -0.05069417 -0.05096436 -0.05114989 -0.0512494 -0.05128233 -0.05125033
 -0.05117414 -0.05105555 -0.05090817 -0.05073267 -0.0505362 -0.05031903 -0.05008685 -0.04983959 -0.04958086 -0.04930894
 -0.04902087 -0.04871378 -0.04838011 -0.04801844 -0.04762332 -0.04719505 -0.04673222 -0.0462347 -0.0457029 -0.0451335
 -0.0445268 -0.04387336 -0.04317236 -0.04240679 -0.04157417 -0.04065473 -0.03964534 -0.03853323 -0.03731631 -0.03599991
 -0.03458485 -0.03310772 -0.03157495 -0.03006173 -0.0285802 -0.02723055 -0.02602367 -0.02504927 -0.02430553 -0.02383887
 -0.02362473 -0.02365617 -0.02388339 -0.02426177 -0.02472609 -0.02522225 -0.02569032 -0.02608818 -0.02638164 -0.02654703
 -0.02658608 -0.02648963 -0.02629735 -0.02600963 -0.02569172 -0.02534836 -0.02504136 -0.02477384 -0.02457755 -0.02445129
 -0.02439391 -0.02440126 -0.02445253 -0.02454217 -0.02464188 -0.02474723 -0.02483347 -0.02490235 -0.02494384 -0.0249668
 -0.02497739 -0.02498112 -0.02498816 -0.0249865 -0.02497675 -0.02493296 -0.02484544 -0.02470081 -0.02448949 -0.02423371
 -0.02393183 -0.02363292 -0.02334066 -0.0230987 -0.0229093 -0.02278909 -0.02273677 -0.02274383 -0.02280678 -0.02290343
 -0.02302937 -0.02315906 -0.02328826 -0.02339558 -0.02347758 -0.02351963 -0.02352032 -0.02347123 -0.02337706 -0.02323616
 -0.02306152 -0.02285802 -0.02263991 -0.02241361 -0.02218555 -0.02195878 -0.02173351 -0.02151026 -0.02128787 -0.0210664
 -0.02084304 -0.02061765 -0.02038712 -0.02015158 -0.01991172 -0.01966748 -0.01941976 -0.0191665 -0.01890147 -0.01862172
 -0.01831707 -0.01798675 -0.01762412 -0.01723216 -0.01681017 -0.01636564 -0.01590261 -0.01543144 -0.01495898 -0.01449011
 -0.01402955 -0.01357207 -0.01311754 -0.01265959 -0.01219649 -0.01173017 -0.01126044 -0.0107924 -0.0103263 -0.009862679
 -0.009401225 -0.008938078 -0.008472939 -0.008001905 -0.007525381 -0.007042177 -0.006554078 -0.00606436 -0.005575257 -0.005091697
 -0.004615463 -0.004149557 -0.00369764 -0.003262198 -0.002850042 -0.002465691 -0.002112525 -0.001794345 -0.001505279 -0.001245461
 -0.001004932 -0.0007821824 -0.0005702515 -0.0003684699 -0.000170569 2.38181E-05 0.0002238789 0.0004300435 0.0006505659 0.0008849273
 0.001134443 0.001397694 0.001670105 0.001950979 0.002235953 0.002525996 0.002821556 0.003121438 0.003426365 0.003729261
 0.004024862 0.00430764 0.004570461 0.004820964 0.005059217 0.005297637 0.005542545 0.005784263 0.006024295 0.006235918
 0.006415189 0.006562584 0.006677743 0.006784962 0.006884951 0.006992864 0.007106677 0.007221879 0.007334569 0.007427589
 0.007499043 0.007534135 0.007536725 0.007504466 0.00744769 0.007376796 0.00730222 0.007236835 0.007183364 0.007147889
 0.007126084 0.007117615 0.007118633 0.007127599 0.007144785 0.007169849 0.007204912 0.007250505 0.007304343 0.007366484
 0.007422701 0.007471473 0.007486904 0.007467292 0.007387612 0.007249319 0.00704203 0.006773767 0.006454942 0.00610349
 0.005751445 0.005421939 0.00515758 0.004965892 0.004874024 0.004859415 0.004919424 0.005023917 0.005158878 0.00531217
 0.005477657 0.005652529 0.005836985 0.006018777 0.006197235 0.006355274 0.006491605 0.006604076 0.00669386 0.006781794
 0.006870267 0.006986772 0.00713034 0.007312978 0.00752969 0.007773512 0.008040733 0.008320998 0.008614225 0.008917229
 0.009227721 0.009544568 0.009860092 0.01016995 0.01046733 0.01074745 0.0110113 0.01125737 0.0114923 0.01171697
 0.01193702 0.01215342 0.01236666 0.01257692 0.0127807 0.01297782 0.01316494 0.01334149 0.01350299 0.013647
 0.01376114 0.01384366 0.01388039 0.01387881 0.01384228 0.01378796 0.01373928 0.01370721 0.01371321 0.01374894
 0.01381804 0.01390186 0.01399291 0.01408095 0.01415979 0.0142343 0.01430337 0.01437945 0.01446415 0.01456309
 0.01467707 0.01479727 0.01492315 0.01504346 0.01515886 0.01526994 0.01537696 0.01548279 0.01558405 0.01567241
 0.01574625 0.01579602 0.01582886 0.01584889 0.01586617 0.01589258 0.01592967 0.01598417 0.01604641 0.01611634
 0.01617588 0.01622182 0.01623194 0.01620145 0.01611667 0.01597421 0.01577971 0.01553296 0.01525255 0.01493932
 0.01460841 0.0142593 0.01389521 0.01351428 0.01310982 0.01268129 0.01222133 0.01173613 0.01123018 0.01071936
 0.01022433 0.009762799 0.009359575 0.009019812 0.008757866 0.008558929 0.008423465 0.008324435 0.008254736 0.008192517
 0.008131173 0.008066775 0.007997518 0.007929276 0.007862587 0.007793758 0.007722739</values></Ydata></AB><ScSm><Ydata ylabel="Single channel"><values byteorder="INTEL" format="FLOAT32" numvalues="1814"> 0.08694856 0.08704849 0.08716901 0.08731462 0.08747414 0.08762912 0.08776601 0.08788365 0.0879885 0.08808282
 0.08816571 0.08824804 0.08835311 0.08849376 0.08865529 0.0888056 0.08892097 0.08900693 0.08909692 0.08921917
 0.08935706 0.08945175 0.0894552 0.08938173 0.08930175 0.08928038 0.08933435 0.08946568 0.08970296 0.09003493
 0.09031719 0.09036489 0.09018346 0.09000217 0.09001989 0.0902049 0.09038834 0.09045172 0.0903752 0.09022012
 0.09014991 0.09037884 0.09097843 0.09171797 0.09213564 0.09180626 0.09062541 0.08895979 0.08755808 0.08716138
 0.08796903 0.08941461 0.09058902 0.09097473 0.09072611 0.0902783 0.08989328 0.08965592 0.08967721 0.09007432
 0.09078045 0.09146892 0.09168202 0.09113283 0.09002882 0.08903179 0.08871648 0.08912621 0.08997849 0.0910092
 0.09171283 0.09108319 0.08850473 0.08510503 0.08340397 0.08498427 0.08883486 0.09240268 0.09391781 0.09333172
 0.09158028 0.08975853 0.08882848 0.0892889 0.09085032 0.09272169 0.0942383 0.09503794 0.09489194 0.09381269
 0.09227279 0.09100489 0.09059305 0.09130403 0.09298088 0.09487775 0.09595627 0.09570275 0.09451397 0.09318384
 0.09231831 0.09230478 0.09334322 0.09520943 0.09727615 0.0989751 0.1000911 0.1006387 0.1007256 0.1005308
 0.100217 0.0999064 0.09979719 0.1000623 0.100509 0.100621 0.1001313 0.099382 0.09897682 0.09915888
 0.09960341 0.09981191 0.09960848 0.09904458 0.09788813 0.095737 0.09284182 0.09023587 0.08872481 0.08832015
 0.08889627 0.09053393 0.09272586 0.0941329 0.09393306 0.0929336 0.09269907 0.09385785 0.09570725 0.09723278
 0.09809078 0.09866117 0.09945402 0.1005368 0.1013887 0.101286 0.1000439 0.09848045 0.09787325 0.09872188
 0.1002598 0.1013953 0.1018587 0.1021645 0.1027031 0.1031732 0.1028467 0.1013485 0.09930466 0.09812
 0.0988217 0.1010445 0.1032224 0.1037737 0.1022252 0.09946615 0.09700122 0.09586917 0.09623909 0.09784284
 0.1003485 0.103198 0.105516 0.1065555 0.1062159 0.105019 0.103539 0.1018701 0.09983306 0.09780574
 0.09694134 0.09809188 0.1007151 0.103305 0.1047819 0.1050942 0.104608 0.1033774 0.1012366 0.09854326
 0.09651204 0.096315 0.09774673 0.09927554 0.09967175 0.099158 0.09871148 0.09872989 0.09881608 0.09859262
 0.09826226 0.09831506 0.09890155 0.09964171 0.1000285 0.09989532 0.09945176 0.09898582 0.09859297 0.09812336
 0.09741381 0.09664826 0.09634831 0.09682288 0.0977523 0.09851138 0.09878778 0.09870426 0.09844029 0.09793198
 0.09698853 0.09567136 0.09447726 0.09398784 0.09430377 0.0949674 0.09545 0.09554705 0.09532359 0.09491187
 0.09442341 0.09391992 0.09342867 0.09301901 0.09279176 0.09274056 0.0927137 0.09256622 0.09227809 0.09189686
 0.09144326 0.09091441 0.09034239 0.08981256 0.08941072 0.08915326 0.08898482 0.08883744 0.08865944 0.08840004
 0.08802617 0.08756532 0.08708952 0.0866489 0.08624991 0.08589104 0.08558293 0.08532586 0.0850894 0.08483085
 0.08452991 0.08419625 0.08384525 0.08348222 0.08311234 0.08275115 0.08241963 0.08213238 0.08188421 0.08164981
 0.08141348 0.08119283 0.08100405 0.08081363 0.08056427 0.08024761 0.0799159 0.07962327 0.07938221 0.07917243
 0.07896652 0.07874155 0.0784808 0.07818247 0.07787725 0.07762259 0.07745958 0.07738011 0.07734745 0.0773287
 0.07729422 0.07721685 0.07709567 0.07695903 0.07682841 0.07669801 0.07655697 0.0764136 0.07629408 0.07622391
 0.07620597 0.07621292 0.07620828 0.07617277 0.07610898 0.07603747 0.07599196 0.07599132 0.07600644 0.07598378
 0.07591175 0.07583739 0.07580648 0.07581024 0.075804 0.07576361 0.07570953 0.07567893 0.07568544 0.07571167
 0.07573554 0.07575454 0.07578446 0.07583831 0.07590383 0.07594436 0.07593375 0.07588941 0.07585582 0.07585727
 0.07588506 0.0759277 0.07598941 0.07607258 0.07615958 0.07622454 0.07626054 0.0762884 0.07633458 0.07640193
 0.07646862 0.07651469 0.07654166 0.07656616 0.07660335 0.07665784 0.07672301 0.07678619 0.07683773 0.0768755
 0.07690163 0.07691822 0.07692747 0.07693562 0.07695721 0.07701015 0.07709554 0.07718199 0.07722312 0.07719888
 0.07713498 0.07707797 0.07705587 0.07706296 0.07707529 0.07707488 0.07706136 0.07704645 0.07704134 0.07704896
 0.07706542 0.07708679 0.07711645 0.07716659 0.07724717 0.07734911 0.07744416 0.07750955 0.07755145 0.07759671
 0.07766484 0.07775559 0.07786019 0.07797428 0.07809944 0.07824006 0.07839799 0.07856625 0.07873168 0.07888845
 0.07904523 0.07921739 0.07941727 0.07964957 0.0799052 0.08015984 0.08039077 0.08060006 0.08081286 0.08105052
 0.08131347 0.08159131 0.08187906 0.08217806 0.082488 0.0828068 0.08313666 0.08348456 0.08385511 0.0842455
 0.08464674 0.08504908 0.08544847 0.0858504 0.08626654 0.08670511 0.08716354 0.08763091 0.08809647 0.08855629
 0.08901349 0.08947293 0.08993652 0.09040578 0.0908868 0.09138684 0.09190471 0.09242939 0.09295045 0.09346649
 0.09398283 0.09450398 0.09503052 0.0955617 0.09609967 0.09664862 0.09720577 0.09775625 0.09828351 0.09878679
 0.09928304 0.09979117 0.1003187 0.1008592 0.1013955 0.1019091 0.1023968 0.1028767 0.1033687 0.1038716
 0.10437 0.1048617 0.105364 0.1058881 0.1064179 0.1069227 0.1073882 0.1078293 0.1082706 0.1087199
 0.1091638 0.1095857 0.1099857 0.1103794 0.1107801 0.1111892 0.1116056 0.1120344 0.1124776 0.1129216
 0.1133445 0.1137385 0.114115 0.1144885 0.1148622 0.115228 0.1155776 0.1159127 0.1162463 0.1165899
 0.1169405 0.1172864 0.1176273 0.1179778 0.1183498 0.1187424 0.1191523 0.1195831 0.1200358 0.1204972
 0.1209526 0.1214062 0.1218775 0.1223689 0.1228518 0.1232959 0.1237024 0.1240959 0.1244915 0.1248908
 0.1253017 0.125741 0.126214 0.1267025 0.1271787 0.127626 0.1280501 0.1284735 0.1289133 0.1293578
 0.129773 0.1301346 0.1304502 0.1307489 0.1310548 0.1313733 0.1316923 0.1319937 0.1322623 0.1324869
 0.1326534 0.1327486 0.1327747 0.132753 0.1326992 0.1325991 0.1324167 0.1321244 0.1317175 0.1311976
 0.1305571 0.1297886 0.1289126 0.1279921 0.127121 0.1263947 0.1258852 0.1256291 0.1256274 0.1258445
 0.1262082 0.1266211 0.1269844 0.1272152 0.127252 0.1270567 0.1266251 0.125991 0.1252126 0.1243539
 0.1234749 0.1226261 0.1218456 0.1211696 0.1206611 0.1204253 0.1205851 0.1212334 0.1223925 0.1239962
 0.125891 0.1278715 0.129748 0.1314096 0.1328394 0.134077 0.1351724 0.1361665 0.1370924 0.1379743
 0.1388231 0.1396396 0.1404242 0.1411795 0.1419041 0.1425894 0.1432219 0.1437874 0.1442774 0.144697
 0.1450649 0.1454058 0.1457412 0.1460848 0.1464336 0.1467563 0.1469968 0.1470997 0.1470416 0.1468458
 0.1465851 0.1463834 0.1464143 0.1468692 0.1478803 0.1494374 0.1513689 0.1534201 0.1553669 0.1570805
 0.1585217 0.1597094 0.1606958 0.1615444 0.1623079 0.1630176 0.1636892 0.1643315 0.1649506 0.1655511
 0.1661372 0.1667146 0.167289 0.1678627 0.1684311 0.1689864 0.1695261 0.1700574 0.1705906 0.1711307
 0.1716736 0.1722105 0.1727383 0.1732634 0.1737928 0.1743217 0.1748369 0.1753314 0.1758119 0.1762915
 0.1767804 0.1772797 0.1777788 0.1782605 0.1787146 0.1791463 0.17957 0.1799938 0.1804161 0.1808333
 0.1812464 0.1816594 0.1820749 0.1824936 0.1829151 0.1833363 0.183751 0.184153 0.1845421 0.1849249
 0.1853097 0.1857004 0.1860961 0.1864936 0.1868915 0.187292 0.1877001 0.1881176 0.1885395 0.1889577
 0.1893677 0.1897724 0.190178 0.1905891 0.1910064 0.1914268 0.1918471 0.1922658 0.1926829 0.1930977
 0.1935104 0.1939239 0.1943412 0.194762 0.1951823 0.1955983 0.19601 0.1964211 0.1968353 0.1972536
 0.1976736 0.1980914 0.1985027 0.1989065 0.1993063 0.1997081 0.2001145 0.2005235 0.2009322 0.2013399
 0.2017497 0.2021663 0.2025917 0.2030219 0.2034515 0.2038791 0.2043078 0.204739 0.2051705 0.2055991
 0.2060243 0.2064496 0.2068792 0.2073143 0.2077522 0.2081898 0.2086251 0.2090569 0.2094861 0.2099144
 0.2103406 0.2107618 0.2111782 0.2115937 0.2120105 0.212429 0.21285 0.2132727 0.2136917 0.2141022
 0.2145059 0.2149098 0.2153185 0.21573 0.2161389 0.2165431 0.2169462 0.2173518 0.217759 0.2181655
 0.2185702 0.2189714 0.2193693 0.2197674 0.2201691 0.2205715 0.2209699 0.2213649 0.221761 0.2221619
 0.2225678 0.2229757 0.2233812 0.223783 0.2241836 0.224584 0.2249835 0.2253842 0.2257898 0.2262003
 0.2266131 0.2270263 0.2274392 0.2278521 0.2282671 0.2286836 0.2290981 0.2295107 0.2299273 0.2303511
 0.2307795 0.2312085 0.2316351 0.2320568 0.2324736 0.2328878 0.2332996 0.2337079 0.234116 0.2345271
 0.2349398 0.235353 0.2357687 0.2361861 0.2366034 0.2370233 0.237449 0.2378792 0.2383135 0.2387548
 0.2392019 0.2396485 0.2400925 0.2405354 0.2409781 0.2414234 0.2418751 0.2423305 0.2427829 0.2432322
 0.2436829 0.244137 0.2445961 0.2450608 0.2455268 0.2459909 0.2464576 0.2469303 0.2474042 0.2478752
 0.2483435 0.2488075 0.2492659 0.2497255 0.2501919 0.2506625 0.2511342 0.2516069 0.2520769 0.2525413
 0.2530057 0.2534727 0.2539385 0.2544054 0.2548806 0.2553603 0.2558356 0.2563075 0.2567798 0.257249
 0.2577128 0.2581725 0.2586244 0.2590684 0.2595151 0.259969 0.2604226 0.2608736 0.2613237 0.2617598
 0.2621543 0.2624505 0.2624928 0.2619444 0.260239 0.2565897 0.2501399 0.2402991 0.2270915 0.2112638
 0.1940821 0.1769386 0.1609707 0.1469004 0.1351155 0.1258174 0.1191266 0.1151773 0.1141948 0.1166002
 0.1231496 0.134489 0.1495211 0.1639875 0.172049 0.1706947 0.1624646 0.153147 0.1470646 0.1449385
 0.145327 0.1467889 0.1487469 0.151335 0.1549032 0.1595032 0.1648315 0.1707264 0.1774633 0.1853283
 0.1940592 0.2029366 0.2113856 0.2193452 0.2270602 0.2346391 0.2418821 0.2484696 0.2542083 0.2590978
 0.2632664 0.2668902 0.2701238 0.2730663 0.2757824 0.2783096 0.2806091 0.2825426 0.2839551 0.2847988
 0.2851905 0.2853556 0.2855044 0.285743 0.2860867 0.2865263 0.2870556 0.2876636 0.2883363 0.2890625
 0.2898247 0.2906015 0.2913795 0.2921501 0.2928998 0.2936192 0.2943096 0.2949709 0.2955992 0.2961966
 0.2967702 0.2973236 0.2978618 0.2983954 0.2989309 0.299467 0.3000011 0.3005273 0.3010324 0.3015068
 0.3019539 0.3023829 0.3028011 0.3032155 0.3036303 0.3040438 0.3044541 0.3048619 0.3052645 0.3056592
 0.3060508 0.3064465 0.3068456 0.3072436 0.3076394 0.3080327 0.3084226 0.3088118 0.3092051 0.3096037
 0.3100057 0.3104083 0.3108073 0.3112009 0.3115931 0.3119887 0.3123915 0.3128066 0.313238 0.3136789
 0.3141194 0.314559 0.3150034 0.315452 0.3159 0.3163475 0.3167983 0.317254 0.3177151 0.3181769
 0.3186253 0.3190444 0.3194308 0.3197966 0.3201621 0.3205428 0.3209409 0.3213473 0.3217536 0.3221586
 0.3225634 0.3229685 0.3233749 0.3237811 0.3241856 0.3245969 0.3250307 0.3254902 0.3259606 0.3264289
 0.3268961 0.3273652 0.3278353 0.328306 0.3287768 0.3292424 0.3296983 0.3301501 0.3306167 0.331118
 0.3316563 0.3322054 0.3327327 0.333231 0.3337199 0.3342209 0.3347401 0.335263 0.3357539 0.3361812
 0.3365646 0.3369786 0.3374867 0.3380814 0.3387011 0.3392905 0.3398354 0.3403519 0.3408585 0.3413565
 0.3418314 0.3422695 0.3426839 0.3431242 0.3436433 0.3442394 0.3448501 0.3454164 0.3459316 0.3464163
 0.3468847 0.3473444 0.3477865 0.3481623 0.3484301 0.3486528 0.348993 0.3495619 0.3502975 0.3510294
 0.3516474 0.35217 0.3526605 0.3531412 0.3536032 0.3540189 0.3542957 0.3543232 0.3541726 0.3541692
 0.3546274 0.3555325 0.3565769 0.3574735 0.3581437 0.3586558 0.3591005 0.359531 0.3599287 0.3601998
 0.3602762 0.3602656 0.3604394 0.3609837 0.361789 0.3625695 0.3631647 0.3636312 0.3640835 0.3645627
 0.3650168 0.3652779 0.3651336 0.3646147 0.3641918 0.3644719 0.3656097 0.3671297 0.3684009 0.3692001
 0.3697173 0.3701153 0.3702918 0.3700737 0.3694326 0.368495 0.3676003 0.3673522 0.3682265 0.3699641
 0.3716749 0.3727283 0.3732955 0.373904 0.3747513 0.3756177 0.376229 0.3765046 0.376513 0.376311
 0.3759143 0.3754845 0.3754419 0.3761699 0.3775708 0.379086 0.3802199 0.3809329 0.3814232 0.3815559
 0.3807065 0.3784985 0.3757849 0.3744451 0.3757182 0.3788997 0.382104 0.3841297 0.3851261 0.3857197
 0.3861956 0.3864094 0.3857712 0.3834418 0.3794692 0.3757858 0.3750413 0.3779967 0.3826746 0.3862734
 0.3873091 0.385931 0.3832186 0.3806773 0.3797001 0.3808126 0.3834522 0.3865418 0.3891389 0.3906937
 0.3910867 0.3905745 0.3896812 0.3890568 0.3890705 0.389259 0.3886123 0.3868839 0.3850659 0.3838644
 0.3824074 0.3796705 0.3767555 0.3762116 0.3788803 0.3826781 0.3850123 0.385438 0.3851991 0.3847262
 0.3826053 0.3774375 0.3704155 0.3653031 0.3652083 0.3694745 0.3743271 0.3765794 0.376151 0.3749976
 0.3743523 0.3734212 0.3705742 0.3656459 0.3608324 0.3587297 0.3594351 0.3604231 0.3593553 0.3557543
 0.3497937 0.3416575 0.3334033 0.3293876 0.332446 0.3403755 0.3478836 0.3511745 0.3491672 0.3419157
 0.3309371 0.3208094 0.3171349 0.3213811 0.3291603 0.3344643 0.3343986 0.3293254 0.3204126 0.3090883
 0.2982872 0.2920942 0.2931172 0.3003691 0.3094992 0.3147214 0.3117699 0.3012813 0.2895848 0.2839618
 0.2858682 0.2900153 0.2906275 0.2868919 0.2817855 0.2780031 0.2764515 0.2767933 0.277871 0.2785984
 0.2787937 0.2777287 0.2726109 0.2616521 0.2487331 0.2413697 0.2429444 0.2499564 0.2577182 0.2650808
 0.2718702 0.2755142 0.2737954 0.2692974 0.2677754 0.2720188 0.2791873 0.284418 0.2857312 0.2848268
 0.2838982 0.28296 0.2809508 0.2786241 0.2786036 0.2821058 0.287031 0.290243 0.2907335 0.2896372
 0.2881185 0.286408 0.2843786 0.2820124 0.279359 0.2765585 0.2738293 0.2712268 0.2686058 0.2659065
 0.2630939 0.2595819 0.2542788 0.247054 0.2399998 0.236037 0.2359067 0.2377135 0.2397187 0.2416458
 0.2423301 0.2387247 0.2298831 0.2205677 0.217993 0.224851 0.2371297 0.2485495 0.2554557 0.2572943
 0.2545656 0.2486397 0.2434637 0.2448702 0.2560338 0.2741258 0.2928572 0.3078144 0.3181326 0.324051
 0.3252787 0.3223447 0.318076 0.3164892 0.3200592 0.3281052 0.3373214 0.3432919 0.342414 0.3348936
 0.326776 0.3262872 0.3356398 0.3480645 0.3552634 0.3560972 0.3553988 0.3562758 0.3574196 0.3573751
 0.3575583 0.3598608 0.3635368 0.3658254 0.3644496 0.3586003 0.348895 0.3379773 0.3300937 0.3278072
 0.3292531 0.3303303 0.3289388 0.3250783 0.3182748 0.3086112 0.2998959 0.2976512 0.3028278 0.3103565
 0.3149098 0.3158439 0.3155933 0.315228 0.3131819 0.3078727 0.3004779 0.2944284 0.2920478 0.2923754
 0.2928014 0.2919458 0.2899112 0.2866272 0.2817875 0.2765229 0.2735704 0.2748624 0.2794631 0.28447
 0.2876718 0.2888999 0.2891933 0.2894557 0.2899699 0.2905638 0.2910484 0.2918391 0.2939914 0.2980519
 0.3030363 0.3072798 0.3103019 0.3131642 0.3169104 0.321251 0.324991 0.327365 0.3287374 0.3301902
 0.3325673 0.335776 0.3388549 0.3407935 0.3414949 0.3419676 0.3434018 0.346017 0.3489668 0.351323
 0.3528775 0.3540066 0.3551177 0.3563338 0.3574415 0.3580787 0.3582101 0.3584303 0.3595113 0.3615758
 0.3639218 0.3657055 0.3666176 0.3668633 0.366717 0.3662648 0.3655132 0.3645833 0.3637189 0.3631203
 0.3628119 0.3626724 0.3625577 0.3623847 0.3621485 0.3619114 0.3617684 0.3617958 0.3620279 0.3624786
 0.3631459 0.3639795 0.3648789 0.3657485 0.3665301 0.3671645 0.3675604 0.3676302 0.3673353 0.3666731
 0.3656361 0.364206 0.3623667 0.3600977 0.3573806 0.3543061 0.3512561 0.3489423 0.3481169 0.3490978
 0.3515195 0.3545418 0.357329 0.3594094 0.3607213 0.3614374 0.3617702 0.36187 0.3618087 0.3615999
 0.3612347 0.3607147 0.3600639 0.3593198 0.3585259 0.3577342 0.3569985 0.3563558 0.35582 0.3553917
 0.3550699 0.3548545 0.3547418 0.3547181 0.3547531 0.3547933 0.3547609 0.354569 0.3541526 0.353489
 0.352585 0.3514439 0.3500422 0.3483361 0.3462928 0.3439128 0.3412088 0.3381835 0.3348868 0.3315072
 0.3283276 0.3255198 0.3229963 0.3204945 0.3177747 0.3147054 0.3112153 0.3072515 0.3028147 0.2980166
 0.2930934 0.2883615 0.2841309 0.2806149 0.2778782 0.2758383 0.2743047 0.2730419 0.2718291 0.270489
 0.2688713 0.2668245 0.2641946 0.2608573 0.2567503 0.2518823 0.24633 0.2402386 0.2338162 0.2273029
 0.2209232 0.2148489 0.2091939 0.2040319 0.1994148 0.1953737 0.1919139 0.1890234 0.1866989 0.1849605
 0.1838399 0.1833539 0.1834854 0.18418 0.1853549 0.18691 0.1887319 0.1907024 0.1927315 0.1948003
 0.196964 0.1992962 0.2018244 0.2045123 0.2072821 0.2100302 0.2126257 0.2149195 0.2167862 0.2181757
 0.2191356 0.2197964 0.2203311 0.2209042 0.2216223 0.2225024 0.2234679 0.2243702 0.2250326 0.2253101
 0.2251404 0.2245647 0.2237182 0.2228027 0.2220482 0.2216716 0.2218475 0.2226958 0.224285 0.2266453
 0.2297834 0.2336836 0.2382943 0.2435164 0.2492065 0.2551969 0.2613282 0.2674787 0.2735658 0.2795194
 0.2852576 0.2906905 0.295743 0.3003633 0.3045044 0.3080969 0.3110459 0.313259 0.3146803 0.315306
 0.3151896 0.3144455 0.313239 0.3117531 0.3101449 0.3085195 0.3069306 0.3053988 0.3039262 0.3025076
 0.3011526 0.2999059 0.2988366 0.2980009 0.2974174 0.2970635 0.2968745 0.296746 0.2965608 0.2962277
 0.2957014 0.2949728 0.294048 0.2929324 0.2916335 0.2901737 0.2885892 0.2869081 0.2851325 0.2832351
 0.2811676 0.2788801 0.2763497 0.273598 0.270681 0.2676597 0.2645647 0.261385 0.2581059 0.2547668
 0.2514673 0.2483124 0.2453601 0.242615 0.2400489 0.2376262 0.2353203 0.2331102 0.2309704 0.2288802
 0.2268358 0.2248413 0.2229007 0.2210311 0.21927 0.2176638 0.2162559 0.2150874 0.2141941 0.2135989
 0.2133045 0.2132813 0.2134708 0.2138153 0.2142663 0.214749 0.2151452 0.2153465 0.2153207 0.2151208
 0.21484 0.2145559 0.2142971 0.2140503 0.2137821 0.2134343 0.2129107 0.2120967 0.2108914 0.2092119
 0.2069994 0.2042491 0.201033 0.1974949 0.1938395 0.1903135 0.1871677 0.1846166 0.1827953 0.1817029
 0.1811882 0.1810276 0.1810374 0.1811292 0.1812931 0.1815283 0.1817667 0.1818941 0.1818914 0.1819221
 0.1822229 0.1829134 0.1839253 0.1850761 0.1861877 0.1871602 0.1879576 0.1885485 0.1889006 0.1890268
 0.1889871 0.1888458 0.1886526 0.1884385 0.1882 0.1879057 0.1875271 0.1870355 0.1863898 0.1855675
 0.1845863 0.1834746 0.1822513 0.1809295 0.1794917 0.1778964 0.1761842 0.1745678 0.173359 0.1727961
 0.1729124 0.1735236 0.1743579 0.1752344 0.176084 0.1768215 0.1773393 0.1776961 0.1782069 0.1792412
 0.1809084 0.1829389 0.1848646 0.1863201 0.187171 0.1874226 0.1871254 0.1863606 0.1851851 0.1835873
 0.1815829 0.1792952 0.1768747 0.1744346 0.1720964 0.1699696 0.1680951 0.1664917 0.1651719 0.1641306
 0.1634238 0.1627907 0.1607087 0.1549148 0.1456187 0.1376035 0.1366284 0.1432255 0.1519655 0.1572867
 0.158223 0.1570962 0.1558541 0.154934 0.1542692 0.1539133 0.1538958 0.1541038 0.1543231 0.1543299
 0.1540274 0.1534336 0.1524364 0.1505685 0.1469975 0.1408167 0.1317111 0.1205867 0.1093887 0.1000675
 0.09361336 0.08984519 0.0878215 0.086501 0.08534913 0.08452749 0.08453484 0.08569574 0.08797725 0.09114809
 0.09494282 0.09903601 0.1029831 0.1063558 0.1089721 0.1109087 0.1122874 0.1131489 0.1135211 0.1134812
 0.1131157 0.1124931 0.1116728 0.110686 0.1095185 0.1081592 0.1066765 0.1052478 0.1040924 0.1033331
 0.1029173 0.1027009 0.1025838 0.1025342 0.1025371 0.1025774 0.1026515 0.1027659 0.102941 0.1032028
 0.103536 0.1038649 0.1041134 0.1042628 0.1043402 0.1043697 0.1043349 0.1041904 0.1039384 0.103667
 0.1034268 0.1030872 0.1024336 0.1014445 0.1004041 0.09971309 0.09960242 0.09999473 0.1005889 0.1010834
 0.1013571 0.101472 0.1015298 0.1015357</values></Ydata></ScSm><ScRf><Ydata ylabel="Single channel"><values byteorder="INTEL" format="FLOAT32" numvalues="1820"> 0.06964378 0.06977877 0.06989528 0.06999164 0.07007612 0.07016411 0.07026941 0.07039534 0.07053447 0.07067356
 0.07079943 0.07090619 0.07099697 0.07107689 0.07114998 0.07122685 0.071325 0.07145324 0.07159982 0.07173918
 0.07184993 0.07193239 0.07201271 0.07211849 0.07224181 0.07233498 0.07235451 0.07230872 0.07225506 0.0722481
 0.07230225 0.07241951 0.07262349 0.07290533 0.07314703 0.07319704 0.07305909 0.07291995 0.07294201 0.07310034
 0.07325883 0.07332201 0.07327315 0.07316082 0.07311745 0.07331766 0.07381991 0.07443701 0.0747932 0.07453981
 0.07358846 0.07223915 0.0711078 0.07080144 0.07147868 0.07267202 0.07363935 0.07396176 0.07376778 0.07341319
 0.07311208 0.07293428 0.0729693 0.07330962 0.07389811 0.07446893 0.07465243 0.07421778 0.0733344 0.07254003
 0.07230193 0.07265523 0.07336897 0.07422459 0.07480541 0.07429042 0.07218444 0.06941798 0.06805252 0.06937481
 0.07254876 0.07548268 0.07673226 0.07626297 0.07484198 0.07336324 0.07261308 0.07300247 0.07429852 0.0758547
 0.07712322 0.07780197 0.07770104 0.07683221 0.07558525 0.07456109 0.07423809 0.07483577 0.07622579 0.07779507
 0.07869083 0.07849359 0.0775321 0.07645887 0.0757699 0.07578162 0.07665772 0.07821424 0.07993612 0.08135622
 0.08229616 0.08276622 0.08285491 0.08271161 0.08247218 0.08223733 0.08216988 0.08241054 0.08279739 0.08290324
 0.08251138 0.08191119 0.0816057 0.08179329 0.08219803 0.08240043 0.08225177 0.08179583 0.08084431 0.07906936
 0.07668336 0.07454382 0.07331572 0.07300591 0.07351109 0.07489996 0.07674997 0.07794575 0.07780228 0.0769895
 0.0768089 0.07778759 0.07934661 0.08064261 0.08138569 0.08188977 0.08258032 0.08351304 0.08425133 0.08419126
 0.08318145 0.08190731 0.08143543 0.08218117 0.08350261 0.08448663 0.08490777 0.08519803 0.08568682 0.08612249
 0.08589378 0.08468782 0.08303359 0.0821083 0.08276416 0.08468626 0.08656273 0.08707446 0.08582903 0.08357283
 0.08157032 0.08069775 0.08110148 0.08255754 0.08478333 0.08730301 0.08937465 0.09036554 0.09018843 0.08928531
 0.08814668 0.0868533 0.08524975 0.08365873 0.08307108 0.08421911 0.08663644 0.08902971 0.09047303 0.09092166
 0.09068556 0.08980282 0.08812433 0.08596452 0.08439037 0.084429 0.08589689 0.08744859 0.08800768 0.08777478
 0.08761159 0.0878663 0.08818452 0.08823122 0.08818944 0.08849838 0.08929126 0.09022449 0.09084133 0.09099194
 0.09086682 0.09072838 0.09066196 0.09052569 0.09016886 0.08976746 0.08980979 0.09058196 0.09178333 0.09282851
 0.09342395 0.09368496 0.09378064 0.09364651 0.09309546 0.09218657 0.09140143 0.09130126 0.09198099 0.09299774
 0.0938407 0.09431098 0.09446935 0.09444192 0.09433593 0.09421276 0.09410295 0.09407877 0.0942419 0.09458584
 0.09495679 0.09520625 0.0953123 0.09532183 0.09525315 0.09510176 0.09490381 0.09475193 0.09473714 0.09487817
 0.09511752 0.09537772 0.09559479 0.09571329 0.09570576 0.09560907 0.09550016 0.095428 0.095396 0.09540424
 0.09546946 0.09559402 0.09574202 0.09586352 0.09593429 0.09596117 0.09595722 0.09592883 0.09588657 0.09585395
 0.09585959 0.09591949 0.09602034 0.09612573 0.09621639 0.09631412 0.09643926 0.09655832 0.09661298 0.09659508
 0.09655792 0.09655623 0.09660213 0.09667531 0.09674905 0.09679812 0.09679843 0.0967432 0.096669 0.09664768
 0.09673162 0.09691466 0.09715435 0.09740804 0.09763601 0.09780471 0.09791274 0.09799205 0.09806876 0.09814039
 0.09819748 0.09825067 0.09833111 0.09846783 0.09865947 0.09886852 0.09905115 0.09918773 0.09928446 0.09936669
 0.09947331 0.0996235 0.09977983 0.09987984 0.09991629 0.0999527 0.1000453 0.1001779 0.1002898 0.1003486
 0.100379 0.1004284 0.1005164 0.1006237 0.1007224 0.1008101 0.1009093 0.1010361 0.1011674 0.1012491
 0.1012499 0.1012 0.1011608 0.101162 0.1011893 0.1012278 0.1012846 0.1013636 0.1014411 0.1014834
 0.1014839 0.1014713 0.1014769 0.1014997 0.1015089 0.1014808 0.1014228 0.1013625 0.101322 0.1013051
 0.101299 0.1012847 0.1012488 0.1011907 0.1011194 0.1010445 0.1009697 0.1008987 0.1008489 0.1008467
 0.1008919 0.1009298 0.1008839 0.1007286 0.1005179 0.1003346 0.1002186 0.1001448 0.1000605 0.09993356
 0.09977186 0.09960586 0.09946018 0.09933925 0.09923207 0.09912675 0.09902506 0.09894677 0.09891041 0.09890126
 0.09886945 0.09877503 0.09863031 0.09848498 0.09837647 0.09830799 0.09826536 0.09823564 0.09821247 0.09819802
 0.09819792 0.09820712 0.09820811 0.0981912 0.09816829 0.09816311 0.09819588 0.09827517 0.09838743 0.09849344
 0.09855586 0.09857818 0.09860289 0.09866641 0.09876849 0.09888728 0.09900877 0.09913314 0.09926426 0.09940623
 0.09956614 0.09975107 0.09996071 0.1001858 0.1004131 0.1006311 0.1008365 0.10104 0.1012623 0.1015176
 0.1017995 0.1020865 0.102362 0.1026282 0.1028983 0.1031785 0.1034622 0.1037424 0.1040255 0.1043244
 0.104642 0.1049679 0.1052909 0.1056087 0.1059257 0.1062458 0.1065698 0.1068976 0.1072358 0.1075946
 0.1079697 0.1083325 0.1086515 0.1089273 0.109194 0.1094876 0.1098188 0.1101693 0.1105051 0.1108
 0.1110608 0.1113231 0.1116146 0.1119271 0.1122368 0.1125433 0.1128728 0.11324 0.1136184 0.1139553
 0.1142183 0.1144271 0.1146334 0.1148694 0.115121 0.1153564 0.1155688 0.1157785 0.1160005 0.1162311
 0.1164661 0.1167161 0.1169884 0.1172663 0.1175216 0.1177444 0.1179477 0.1181459 0.1183357 0.1185004
 0.1186269 0.1187221 0.1188138 0.1189293 0.11907 0.1192162 0.1193562 0.1194999 0.1196606 0.1198404
 0.1200389 0.120262 0.1205103 0.1207661 0.1210117 0.1212568 0.1215303 0.1218348 0.122129 0.1223693
 0.1225588 0.1227365 0.1229289 0.1231367 0.123361 0.1236144 0.1239021 0.1242081 0.1245083 0.1247899
 0.1250609 0.1253442 0.1256535 0.1259698 0.1262503 0.12647 0.1266468 0.1268238 0.1270328 0.1272798
 0.1275519 0.1278323 0.1281067 0.1283605 0.1285739 0.1287284 0.1288248 0.1288866 0.1289347 0.1289606
 0.1289304 0.1288134 0.1285959 0.1282704 0.127825 0.1272541 0.1265811 0.1258688 0.1252087 0.124695
 0.1244003 0.1243615 0.1245783 0.1250137 0.1255962 0.1262321 0.1268256 0.1272935 0.1275657 0.1275911
 0.1273538 0.1268836 0.1262408 0.1254904 0.1246869 0.1238709 0.1230724 0.1223295 0.1217186 0.1213609
 0.1213875 0.1218874 0.1228757 0.1242798 0.1259406 0.1276486 0.1292227 0.1305782 0.1317279 0.1327253
 0.133617 0.1344344 0.1352022 0.1359358 0.1366364 0.1372981 0.1379201 0.1385059 0.1390527 0.1395465
 0.139967 0.1402975 0.1405341 0.1406895 0.1407852 0.1408378 0.1408575 0.1408565 0.1408451 0.1408103
 0.1407081 0.1404879 0.1401261 0.1396431 0.1391072 0.1386383 0.1384024 0.1385699 0.1392405 0.1403802
 0.1418269 0.1433675 0.1448251 0.1460939 0.1471307 0.1479411 0.1485699 0.149079 0.1495196 0.149922
 0.1503027 0.1506718 0.1510327 0.1513841 0.1517244 0.1520568 0.152389 0.1527282 0.1530724 0.1534116
 0.1537398 0.1540637 0.1543972 0.1547492 0.1551142 0.1554763 0.1558236 0.1561595 0.1564948 0.1568309
 0.1571579 0.1574708 0.1577771 0.1580899 0.1584179 0.1587615 0.1591113 0.1594495 0.1597632 0.1600546
 0.1603364 0.1606181 0.1609015 0.1611858 0.1614708 0.1617548 0.1620344 0.1623086 0.1625814 0.1628573
 0.1631344 0.1634046 0.1636628 0.1639126 0.1641616 0.1644134 0.1646662 0.1649172 0.1651671 0.1654207
 0.1656837 0.1659566 0.1662316 0.1664976 0.1667494 0.1669904 0.1672288 0.1674712 0.1677202 0.1679749
 0.1682323 0.1684884 0.1687399 0.1689863 0.1692317 0.1694807 0.1697339 0.1699879 0.1702392 0.1704871
 0.1707327 0.1709776 0.1712226 0.1714683 0.1717156 0.1719652 0.1722146 0.1724591 0.1726952 0.1729233
 0.1731476 0.1733741 0.1736077 0.1738479 0.17409 0.1743303 0.1745689 0.1748068 0.1750444 0.1752821
 0.1755201 0.1757577 0.1759936 0.1762281 0.1764635 0.1767034 0.1769487 0.1771961 0.177442 0.1776858
 0.1779281 0.1781676 0.178403 0.1786353 0.1788671 0.1790999 0.1793345 0.1795711 0.1798076 0.1800417
 0.1802736 0.1805048 0.1807377 0.1809746 0.1812161 0.1814576 0.181693 0.1819203 0.182143 0.182367
 0.1825974 0.182836 0.1830794 0.1833211 0.1835576 0.18379 0.1840226 0.1842587 0.1844983 0.1847391
 0.1849797 0.1852204 0.1854594 0.185695 0.1859289 0.1861641 0.1864002 0.1866354 0.1868708 0.1871085
 0.1873488 0.1875917 0.1878371 0.188084 0.188331 0.1885776 0.1888226 0.189066 0.18931 0.1895584
 0.1898136 0.1900766 0.1903443 0.1906082 0.1908624 0.1911096 0.1913562 0.1916041 0.1918509 0.1920943
 0.1923307 0.192558 0.1927785 0.1929964 0.1932138 0.193433 0.1936567 0.1938843 0.1941137 0.194346
 0.1945823 0.1948212 0.1950627 0.1953085 0.1955579 0.1958083 0.1960599 0.1963124 0.1965632 0.1968132
 0.197068 0.197328 0.1975886 0.1978486 0.1981094 0.1983706 0.1986312 0.1988912 0.1991501 0.1994098
 0.1996745 0.1999435 0.2002111 0.2004778 0.2007488 0.2010221 0.2012909 0.2015536 0.2018125 0.2020685
 0.2023271 0.2025955 0.2028713 0.2031466 0.2034188 0.2036881 0.2039537 0.2042204 0.2044949 0.2047745
 0.2050525 0.2053293 0.2056064 0.2058804 0.2061515 0.2064234 0.2066937 0.2069597 0.2072266 0.2074969
 0.2077651 0.2080298 0.2082916 0.2085405 0.2087554 0.2088923 0.208827 0.2082892 0.2068257 0.203809
 0.1985586 0.1906093 0.1799879 0.1672984 0.1535568 0.1398719 0.1271416 0.115931 0.106544 0.09913979
 0.09381236 0.09066419 0.08986944 0.0917595 0.09693123 0.1058882 0.1177441 0.1291133 0.1353841 0.1342098
 0.1276335 0.1202351 0.115408 0.1137001 0.1139691 0.1150833 0.1165902 0.118592 0.1213586 0.1249254
 0.1290527 0.1336199 0.1388538 0.1449839 0.1517978 0.1587186 0.1652873 0.1714591 0.1774352 0.1833069
 0.188917 0.1940113 0.1984365 0.202193 0.2053822 0.2081439 0.2106019 0.2128352 0.2148926 0.2167999
 0.2185241 0.2199575 0.2209808 0.2215589 0.221785 0.2218361 0.2218769 0.221991 0.2221918 0.2224722
 0.2228247 0.2232374 0.2236979 0.2241971 0.2247211 0.2252541 0.2257884 0.2263193 0.2268364 0.2273317
 0.2278066 0.228261 0.2286896 0.2290921 0.2294752 0.2298453 0.2302068 0.2305631 0.2309141 0.2312592
 0.2316001 0.2319357 0.2322584 0.2325646 0.232858 0.2331416 0.2334151 0.2336819 0.2339468 0.2342081
 0.2344624 0.2347104 0.234956 0.2352023 0.2354504 0.2356976 0.2359394 0.2361764 0.2364127 0.236648
 0.2368793 0.2371094 0.2373442 0.237585 0.2378294 0.2380753 0.2383206 0.2385629 0.2388024 0.2390412
 0.239282 0.2395292 0.2397862 0.2400503 0.2403165 0.240584 0.2408533 0.2411215 0.2413885 0.2416586
 0.2419345 0.2422131 0.2424904 0.242764 0.2430284 0.2432764 0.2435064 0.2437259 0.2439479 0.2441809
 0.2444224 0.2446638 0.2449018 0.2451399 0.2453812 0.2456259 0.2458752 0.2461286 0.2463816 0.2466336
 0.2468914 0.24716 0.2474378 0.2477232 0.2480174 0.2483186 0.2486214 0.2489226 0.2492185 0.2495023
 0.2497713 0.2500364 0.2503179 0.2506301 0.2509679 0.2513085 0.2516321 0.2519389 0.2522446 0.252562
 0.2528925 0.2532233 0.2535265 0.2537786 0.2539961 0.2542372 0.2545506 0.2549307 0.2553311 0.2557115
 0.2560611 0.256388 0.2567015 0.2570025 0.257284 0.2575382 0.257773 0.2580236 0.258333 0.2587072
 0.2591034 0.2594731 0.2598033 0.2601067 0.2603973 0.2606831 0.260955 0.2611724 0.261306 0.2614087
 0.2616052 0.2619748 0.2624639 0.2629423 0.2633325 0.2636564 0.2639658 0.2642755 0.2645743 0.2648375
 0.2649936 0.2649593 0.26479 0.2647325 0.2650238 0.2656507 0.26638 0.2669968 0.2674469 0.2677852
 0.2680771 0.2683555 0.2686016 0.2687472 0.2687469 0.2686846 0.2687615 0.2691149 0.2696637 0.2701965
 0.2705922 0.2708883 0.271168 0.2714667 0.2717515 0.2718969 0.271741 0.2713068 0.2709477 0.2711129
 0.2719111 0.2729873 0.2738796 0.2744302 0.2747798 0.2750409 0.2751294 0.274919 0.2743978 0.2736656
 0.2729718 0.2727605 0.2733836 0.274647 0.2758859 0.2766332 0.2770226 0.2774512 0.2780638 0.27869
 0.2791208 0.2792968 0.2792749 0.2791027 0.2787916 0.2784565 0.2784048 0.2789198 0.2799326 0.2810355
 0.281865 0.2823878 0.2827419 0.2828212 0.2821656 0.2805061 0.2784853 0.2774964 0.2784469 0.2808027
 0.2831661 0.2846584 0.2854018 0.28586 0.286232 0.2864007 0.2859291 0.2842023 0.2812658 0.2785602
 0.2780498 0.2802839 0.2837787 0.286456 0.287231 0.2862273 0.2842456 0.2823976 0.2817164 0.2825934
 0.2846088 0.2869584 0.2889372 0.2901369 0.2904735 0.2901422 0.2895345 0.2891343 0.2892164 0.2894338
 0.289033 0.2878319 0.2865717 0.2857752 0.284786 0.282839 0.2807647 0.2804762 0.2826045 0.2855887
 0.287488 0.2879696 0.2879594 0.2877691 0.2863364 0.2826241 0.2775444 0.2739332 0.2741252 0.2776234
 0.2815892 0.2836326 0.283702 0.2832738 0.2832752 0.2831057 0.2815354 0.2784493 0.2755292 0.2747502
 0.2761628 0.2778131 0.2779061 0.2760654 0.2723839 0.2669729 0.2614564 0.259281 0.2626728 0.2698657
 0.2766605 0.2800475 0.2791497 0.2739799 0.2657532 0.2581842 0.255814 0.2598219 0.2666465 0.2714309
 0.2718492 0.2682062 0.2614594 0.2528016 0.2446817 0.2404979 0.242431 0.249686 0.2586462 0.2644369
 0.2634097 0.2560677 0.2477971 0.2448178 0.2483329 0.2537316 0.2560101 0.2544814 0.2517326 0.2501006
 0.2503831 0.2522783 0.2547238 0.2567333 0.2581537 0.2582708 0.2544187 0.2449309 0.2335261 0.227329
 0.2295239 0.2368016 0.2447662 0.2523577 0.2593713 0.263282 0.2619334 0.2577963 0.2563825 0.2603576
 0.267004 0.2716935 0.2725881 0.2713851 0.2702413 0.2692072 0.2672972 0.2652612 0.2656209 0.2695273
 0.2749551 0.2788985 0.2803866 0.280488 0.2802915 0.2799897 0.279434 0.2785879 0.2774912 0.2762783
 0.2751651 0.274209 0.2732656 0.2722725 0.2711756 0.2693121 0.2654621 0.2594354 0.2534258 0.2504933
 0.251349 0.2539131 0.2563071 0.2582142 0.2583786 0.2535781 0.2428344 0.2311869 0.2262259 0.2307566
 0.2405664 0.2491565 0.2528777 0.2513815 0.2454229 0.236511 0.2284511 0.2266782 0.2340645 0.2479153
 0.2624005 0.2734929 0.2804881 0.2837279 0.2830539 0.2789714 0.2739449 0.2714173 0.273447 0.2793598
 0.2862636 0.2903875 0.2887222 0.2815019 0.273851 0.2726827 0.2798409 0.2896506 0.2951828 0.2955115
 0.2946908 0.2953195 0.29632 0.2965042 0.2970673 0.2995812 0.3034172 0.3062728 0.3062374 0.3025953
 0.2958105 0.2880773 0.2829732 0.282627 0.2853659 0.2876318 0.2876298 0.2853595 0.2803805 0.2727879
 0.2660068 0.2649531 0.2704477 0.2779714 0.2828152 0.2844634 0.2851318 0.2857802 0.2849812 0.2813106
 0.2758818 0.2718647 0.2713796 0.273497 0.2757621 0.2768486 0.2767658 0.2753237 0.2721432 0.2683005
 0.2664731 0.2685613 0.2736524 0.2789065 0.2821641 0.2832649 0.2832254 0.2829259 0.2826359 0.2821816
 0.2813868 0.2806779 0.2811019 0.283215 0.2861198 0.2882869 0.2893201 0.2902753 0.2921705 0.2947403
 0.2968447 0.2977315 0.2976972 0.2977132 0.2985532 0.3001587 0.3016937 0.3022806 0.3018647 0.3013782
 0.301902 0.3036332 0.3058061 0.3075712 0.3087065 0.3094973 0.3102551 0.3110526 0.3116921 0.3118709
 0.3115846 0.3113775 0.3119425 0.3134024 0.3151632 0.3165149 0.3172148 0.3174562 0.3174675 0.3172902
 0.3168881 0.3163323 0.3158146 0.3155002 0.3154075 0.3154366 0.3154789 0.3154835 0.3154568 0.3154424
 0.315489 0.3156112 0.3157835 0.3159793 0.3161907 0.3163997 0.3165699 0.3166889 0.3167858 0.3168789
 0.3169295 0.3168659 0.3166306 0.3161843 0.3154866 0.3144999 0.3132016 0.3115678 0.3095701 0.3072692
 0.3049799 0.3033088 0.3029026 0.3040376 0.3064009 0.3092657 0.3119023 0.3138935 0.3151816 0.3159191
 0.3162989 0.3164628 0.3164867 0.3163996 0.3162137 0.3159477 0.3156288 0.3152814 0.3149251 0.3145798
 0.314263 0.3139784 0.3137104 0.3134306 0.3131096 0.3127271 0.3122744 0.3117516 0.3111632 0.3105096
 0.3097754 0.3089341 0.3079799 0.3069535 0.3059281 0.3049641 0.3040745 0.3032249 0.3023653 0.3014525
 0.3004357 0.2992461 0.2978604 0.2963944 0.2950737 0.2940559 0.2932915 0.2925856 0.29177 0.2907892
 0.2896637 0.2884341 0.2871425 0.2858227 0.2844848 0.2831119 0.2816744 0.2801458 0.2785145 0.2767876
 0.2749805 0.2731068 0.2711832 0.2692312 0.2672467 0.2651587 0.262826 0.2600824 0.25679 0.2528655
 0.2482899 0.2431235 0.2375158 0.2316847 0.2258636 0.2202546 0.215017 0.2102824 0.2061672 0.2027696
 0.2001604 0.1983816 0.1974534 0.1973801 0.1981479 0.1997184 0.2020194 0.204936 0.2083101 0.2119518
 0.2156593 0.2192454 0.2225786 0.2256233 0.2284311 0.231068 0.2335435 0.2358139 0.237838 0.2396106
 0.2411452 0.2424459 0.2435114 0.2443601 0.2450404 0.2456121 0.2461166 0.2465639 0.2469427 0.2472417
 0.2474641 0.2476292 0.2477669 0.2479109 0.2480888 0.2483123 0.2485775 0.2488821 0.2492401 0.249675
 0.2502011 0.2508135 0.251493 0.252218 0.2529772 0.2537785 0.2546515 0.2556399 0.2567844 0.2581038
 0.2595853 0.2611881 0.2628464 0.2644704 0.2659554 0.2672085 0.2681746 0.2688434 0.2692338 0.2693747
 0.2692969 0.2690351 0.2686252 0.2680958 0.2674666 0.2667567 0.2659864 0.2651673 0.2642969 0.2633677
 0.2623844 0.2613721 0.2603645 0.2593812 0.2584227 0.2574853 0.2565724 0.2556874 0.2548287 0.2539943
 0.2531859 0.252408 0.2516691 0.250977 0.2503235 0.2496779 0.2489963 0.2482346 0.2473564 0.2463414
 0.2451823 0.2438734 0.2424089 0.2407935 0.2390459 0.2371903 0.235249 0.2332383 0.2311628 0.2290156
 0.2267832 0.224454 0.2220418 0.2196086 0.2172504 0.2150448 0.2130198 0.2111634 0.209445 0.2078301
 0.2062926 0.2048184 0.2033983 0.2020283 0.2007128 0.1994585 0.1982685 0.1971485 0.1961094 0.1951602
 0.1943102 0.1935732 0.1929562 0.1924472 0.1920197 0.1916502 0.1913377 0.1911195 0.1910464 0.1911194
 0.1912604 0.1913639 0.1913704 0.1912927 0.1911902 0.1911192 0.1910961 0.1911041 0.1911202 0.1911069
 0.1909882 0.1906635 0.190041 0.1890495 0.1876483 0.185856 0.1837624 0.1815095 0.1792663 0.1771958
 0.1754141 0.1739752 0.1728823 0.1720858 0.1714916 0.1710192 0.1706602 0.1704723 0.1705266 0.1708327
 0.1712731 0.1716463 0.1718443 0.1719746 0.1722628 0.172855 0.1737319 0.1747605 0.1757858 0.1766984
 0.1774485 0.1780235 0.1784379 0.1787303 0.1789281 0.1790194 0.178985 0.178829 0.1785614 0.1781891
 0.1777285 0.1771908 0.1765641 0.1758406 0.1750314 0.1741382 0.1731513 0.1720684 0.1708704 0.1695187
 0.1680556 0.1666877 0.1657127 0.1653599 0.165674 0.1664968 0.1675792 0.1687461 0.169916 0.170985
 0.1718364 0.1725309 0.1733833 0.1747532 0.1767442 0.1790951 0.1813547 0.1831688 0.1844034 0.185053
 0.1851534 0.1847731 0.183955 0.1826705 0.1809251 0.1788493 0.1766089 0.1743292 0.1721422 0.1701711
 0.1684682 0.167054 0.1659347 0.1650999 0.1646066 0.1641906 0.1622997 0.1566282 0.1473853 0.1394237
 0.1385794 0.145385 0.1543382 0.1598153 0.160847 0.159781 0.1585719 0.1576456 0.1569368 0.1565238
 0.1564641 0.1566543 0.1568732 0.1568876 0.1565986 0.1560266 0.1550536 0.1531847 0.1495401 0.1431718
 0.1337647 0.1222823 0.1107597 0.1012192 0.09466639 0.09088656 0.08889462 0.08762302 0.08652642 0.08575998
 0.0858192 0.08703406 0.0893874 0.09266625 0.09661305 0.1008942 0.1050496 0.108638 0.1114669 0.1136017
 0.1151547 0.1161639 0.1166623 0.1167333 0.1164657 0.1159261 0.1151714 0.114228 0.1130686 0.1116709
 0.110117 0.1086227 0.1074394 0.106691 0.1063041 0.1061174 0.1060299 0.1060195 0.1060756 0.1061757
 0.1063072 0.1064767 0.1067065 0.1070153 0.1073796 0.1077295 0.1080022 0.1081847 0.1082968 0.1083448
 0.1082892 0.1080687 0.1076903 0.1072615 0.1068484 0.1063189 0.1054468 0.1042077 0.102906 0.101981
 0.1016985 0.1019912 0.1025404 0.1030128 0.1032632 0.1033487 0.1033767 0.1033501 0.1031556 0.1026959
</values></Ydata></ScRf><Data_Parameters_AB><parameter name="DPF">1</parameter><parameter name="NPT">3497</parameter><parameter name="FXV">3996</parameter><parameter name="LXV">500</parameter><parameter name="CSF">1</parameter><parameter name="MXY">0.125025793910027</parameter><parameter name="MNY">-0.130154028534889</parameter><parameter name="DAT">17/01/2024</parameter><parameter name="TIM">13:31:53.158 (GMT+1)</parameter><parameter name="DXU">WN</parameter></Data_Parameters_AB><AB__Qtest><MainReport name="Quality Test Report"><Header><Line><Legend>Test result ok/not ok [1/0]: </Legend><Value>0</Value></Line><Line><Legend>Method file: </Legend><Value>C:\Users\Public\Documents\Bruker\OPUS_8.2.28\QT\IRBT_v3_default.QT</Value></Line></Header><Matrix><Line><Legend></Legend><Legend>min</Legend><Legend>max</Legend><Legend>measured</Legend></Line><Line><Value>Absorption (X-Range 1):</Value><Value>0.400000</Value><Value>2.000000</Value><Value>0.123687</Value></Line><Line><Value>Noise (X-Range 4):</Value><Value></Value><Value>0.000300</Value><Value>0.000028</Value></Line><Line><Value>Signal/Noise (X-Range 2):</Value><Value>200.000000</Value><Value></Value><Value>69.690458</Value></Line><Line><Value>Signal/Noise (X-Range 3):</Value><Value>40.000000</Value><Value></Value><Value>243.159314</Value></Line><Line><Value>Water vapour (X-Range 5):</Value><Value></Value><Value>0.000300</Value><Value>0.000019</Value></Line><Line><Value>Signal/Water (X-Range 2):</Value><Value>100.000000</Value><Value></Value><Value>101.903157</Value></Line><Line><Value>Signal/Water (X-Range 3):</Value><Value>20.000000</Value><Value></Value><Value>355.553724</Value></Line><Line><Value>Fringes (X-Range 6):</Value><Value></Value><Value>0.000100</Value><Value>0.000021</Value></Line></Matrix></MainReport></AB__Qtest><Data_Parameters_ScSm><parameter name="DPF">1</parameter><parameter name="NPT">1814</parameter><parameter name="FXV">3996.63438082617</parameter><parameter name="LXV">499.579297603271</parameter><parameter name="CSF">1</parameter><parameter name="MXY">0.39108669757843</parameter><parameter name="MNY">0.0756789296865463</parameter><parameter name="DAT">17/01/2024</parameter><parameter name="TIM">13:31:53.158 (GMT+1)</parameter><parameter name="DXU">WN</parameter></Data_Parameters_ScSm><Data_Parameters_ScRf><parameter name="DPF">1</parameter><parameter name="NPT">1820</parameter><parameter name="FXV">4004.34989121387</parameter><parameter name="LXV">495.721542409425</parameter><parameter name="CSF">1</parameter><parameter name="MXY">0.317467451095581</parameter><parameter name="MNY">0.0680525153875351</parameter><parameter name="DAT">17/01/2024</parameter><parameter name="TIM">13:31:27.030 (GMT+1)</parameter><parameter name="DXU">WN</parameter></Data_Parameters_ScRf><Optic_Parameters_Rf><parameter name="APR">0</parameter><parameter name="APT">Open</parameter><parameter name="BMS">KBr</parameter><parameter name="DTC">RT-DLaTGS_IR-Biotyper [Microplate reader]</parameter><parameter name="HPF">0</parameter><parameter name="LPF">10.0</parameter><parameter name="LPV">4000</parameter><parameter name="PGR">0</parameter><parameter name="RCH">Module port</parameter><parameter name="RDX">0</parameter><parameter name="SRC">MIR</parameter><parameter name="VEL">10.0</parameter><parameter name="SON">Off</parameter></Optic_Parameters_Rf><Acquisition_Parameters_Rf><parameter name="ADT">1</parameter><parameter name="AQM">DD</parameter><parameter name="CFE">0</parameter><parameter name="COR">0</parameter><parameter name="DEL">0</parameter><parameter name="DLY">0</parameter><parameter name="HFW">8000</parameter><parameter name="LFW">0</parameter><parameter name="NSR">32</parameter><parameter name="PLF">AB</parameter><parameter name="RES">6</parameter><parameter name="RGN">-1</parameter><parameter name="STR">0</parameter><parameter name="TCL">MakeCompatibleScalar (0, {WSV=1.000000, ARV=0});</parameter><parameter name="TDL">37</parameter><parameter name="RPO">0</parameter></Acquisition_Parameters_Rf><FT_-_Parameters_Rf><parameter name="APF">B3</parameter><parameter name="HFQ">500</parameter><parameter name="LFQ">4000</parameter><parameter name="NLI">0</parameter><parameter name="PHR">24</parameter><parameter name="PHZ">ML</parameter><parameter name="SPZ">NO</parameter><parameter name="ZFF">1</parameter></FT_-_Parameters_Rf><Optic_Parameters_><parameter name="APR">0</parameter><parameter name="APT">Open</parameter><parameter name="BMS">KBr</parameter><parameter name="CHN">Module port</parameter><parameter name="DTC">RT-DLaTGS_IR-Biotyper [Microplate reader]</parameter><parameter name="HPF">0</parameter><parameter name="LPF">10.0</parameter><parameter name="LPV">4000</parameter><parameter name="PGN">0</parameter><parameter name="RDX">0</parameter><parameter name="SRC">MIR</parameter><parameter name="VEL">10.0</parameter><parameter name="SON">Off</parameter></Optic_Parameters_><FT_-_Parameters_><parameter name="APF">B3</parameter><parameter name="HFQ">500</parameter><parameter name="LFQ">4000</parameter><parameter name="NLI">0</parameter><parameter name="PHR">24</parameter><parameter name="PHZ">ML</parameter><parameter name="SPZ">NO</parameter><parameter name="ZFF">1</parameter></FT_-_Parameters_><Acquisition_Parameters_><parameter name="ADT">1</parameter><parameter name="AQM">DD</parameter><parameter name="CFE">0</parameter><parameter name="COR">0</parameter><parameter name="DEL">0</parameter><parameter name="DLY">0</parameter><parameter name="HFW">8000</parameter><parameter name="LFW">0</parameter><parameter name="NSS">32</parameter><parameter name="PLF">AB</parameter><parameter name="RES">6</parameter><parameter name="SOT">0</parameter><parameter name="TCL">MakeCompatibleScalar (0, {WSV=1.000000, ARV=0});</parameter><parameter name="TDL">37</parameter><parameter name="SPO">0</parameter><parameter name="SGN">-1</parameter></Acquisition_Parameters_><Instrument_Parameters_Rf><parameter name="HFL">15801.365274</parameter><parameter name="LFL">0</parameter><parameter name="LWN">15801.365274</parameter><parameter name="ABP">32157</parameter><parameter name="SSP">1</parameter><parameter name="ARG">2</parameter><parameter name="ASG">2</parameter><parameter name="ASS">32</parameter><parameter name="GFW">16</parameter><parameter name="GBW">16</parameter><parameter name="BFW">0</parameter><parameter name="BBW">0</parameter><parameter name="PKA">9112</parameter><parameter name="PKL">4987</parameter><parameter name="PRA">9123</parameter><parameter name="PRL">5010</parameter><parameter name="P2A">1</parameter><parameter name="P2L">1</parameter><parameter name="P2R">1</parameter><parameter name="P2K">1</parameter><parameter name="DAQ">0</parameter><parameter name="AG2">1</parameter><parameter name="SSM">1</parameter><parameter name="RSN">46364</parameter><parameter name="CRR">0</parameter><parameter name="SRT">1705498287.031</parameter><parameter name="DUR">19.6449890136719</parameter><parameter name="TSC">30.9</parameter><parameter name="MVD">0.328944146633148</parameter><parameter name="AN1">0.225996858571837</parameter><parameter name="AN2">0</parameter><parameter name="VSN">2.485 Apr  4 2017</parameter><parameter name="SRN">0085</parameter><parameter name="CAM">0</parameter><parameter name="INS">IR-Biotyper</parameter><parameter name="FOC">69</parameter><parameter name="RDY">1</parameter><parameter name="ARS">32</parameter></Instrument_Parameters_Rf><Sample_Parameters_><parameter name="BLD"></parameter><parameter name="CNM">Admin</parameter><parameter name="CPY"></parameter><parameter name="DPM"></parameter><parameter name="EXP">IRBT_v3_32Scans.XPM</parameter><parameter name="LCT"></parameter><parameter name="SFM">Microplate, HTS-XT</parameter><parameter name="SNM">240117-1222-Cdiff_SCFA_1_C13_232110856_E9_094d9277-945d-4fe2-961d-fd9ef5c5505f.0</parameter><parameter name="XPP">C:\Users\Public\Documents\Bruker\OPUS_8.2.28\XPM</parameter><parameter name="IST">OK</parameter><parameter name="CPG">1252</parameter><parameter name="UID">7ef93118-07a9-44e9-8f35-614d0ea78523</parameter></Sample_Parameters_><Instrument_Parameters_><parameter name="HFL">15801.365274</parameter><parameter name="LFL">0</parameter><parameter name="LWN">15801.365274</parameter><parameter name="ABP">32157</parameter><parameter name="SSP">1</parameter><parameter name="ASG">2</parameter><parameter name="ARG">2</parameter><parameter name="ASS">32</parameter><parameter name="GFW">16</parameter><parameter name="GBW">16</parameter><parameter name="BFW">0</parameter><parameter name="BBW">0</parameter><parameter name="PKA">10455</parameter><parameter name="PKL">4979</parameter><parameter name="PRA">10537</parameter><parameter name="PRL">5002</parameter><parameter name="P2A">1</parameter><parameter name="P2L">1</parameter><parameter name="P2R">1</parameter><parameter name="P2K">1</parameter><parameter name="DAQ">0</parameter><parameter name="AG2">1</parameter><parameter name="SSM">1</parameter><parameter name="RSN">23875</parameter><parameter name="CRR">0</parameter><parameter name="SRT">1705498313.159</parameter><parameter name="DUR">19.6439971923828</parameter><parameter name="TSC">30.9</parameter><parameter name="MVD">0.269405335187912</parameter><parameter name="AN1">0.22598827672787</parameter><parameter name="AN2">0</parameter><parameter name="VSN">2.485 Apr  4 2017</parameter><parameter name="SRN">0085</parameter><parameter name="CAM">0</parameter><parameter name="INS">IR-Biotyper</parameter><parameter name="FOC">69</parameter><parameter name="RDY">1</parameter></Instrument_Parameters_><History/></OPUSDataFile>
