<?xml version="1.0" encoding="UTF-8" ?>
<OPUSDataFile><AB><Ydata ylabel="Absorbance Units"><values byteorder="INTEL" format="FLOAT32" numvalues="3497"> -0.1021663 -0.1021233 -0.1020762 -0.1020266 -0.1019786 -0.1019328 -0.1018925 -0.1018568 -0.1018259 -0.1017971
 -0.1017672 -0.101735 -0.1016977 -0.1016574 -0.1016139 -0.1015715 -0.1015317 -0.1014967 -0.1014679 -0.101443
 -0.1014222 -0.1014015 -0.1013808 -0.1013586 -0.1013349 -0.1013113 -0.1012878 -0.101265 -0.1012428 -0.1012195
 -0.1011951 -0.1011688 -0.1011412 -0.1011131 -0.1010846 -0.1010563 -0.1010275 -0.1009974 -0.1009664 -0.100934
 -0.1009027 -0.1008734 -0.1008478 -0.1008273 -0.1008094 -0.1007945 -0.1007765 -0.1007546 -0.1007245 -0.1006853
 -0.10064 -0.1005888 -0.1005403 -0.1004949 -0.1004591 -0.1004318 -0.1004122 -0.1003984 -0.1003836 -0.1003669
 -0.1003427 -0.1003124 -0.1002753 -0.1002349 -0.1001948 -0.1001576 -0.1001267 -0.1001016 -0.1000832 -0.1000687
 -0.1000575 -0.1000472 -0.1000374 -0.1000263 -0.1000138 -0.09999537 -0.09997065 -0.09993459 -0.09988695 -0.09982894
 -0.09976142 -0.09969474 -0.09963017 -0.09958053 -0.09954534 -0.09953082 -0.09953331 -0.09954891 -0.09957121 -0.09958911
 -0.09959669 -0.09958188 -0.09954629 -0.09948457 -0.09940907 -0.0993235 -0.09924188 -0.09917127 -0.09911395 -0.09907334
 -0.09903958 -0.09901183 -0.09898095 -0.09894559 -0.09890638 -0.09886331 -0.09882312 -0.09878585 -0.09875434 -0.0987278
 -0.098703 -0.09867935 -0.09865302 -0.09862418 -0.098591 -0.09855473 -0.09851598 -0.09847739 -0.09844206 -0.09841198
 -0.09839089 -0.0983753 -0.09836555 -0.09835388 -0.09833743 -0.0983116 -0.09827407 -0.09822638 -0.09816815 -0.09810278
 -0.09803016 -0.0979583 -0.09788762 -0.09783553 -0.09780247 -0.09780057 -0.09782603 -0.09786452 -0.09790803 -0.09791834
 -0.09789489 -0.09781042 -0.09768531 -0.09753928 -0.09739375 -0.0972872 -0.09721179 -0.09717725 -0.09716135 -0.09715334
 -0.09714232 -0.09712051 -0.09708959 -0.09704887 -0.09699959 -0.09694196 -0.09687547 -0.09679943 -0.09672273 -0.09664579
 -0.09658109 -0.09652846 -0.09648768 -0.09645745 -0.09642888 -0.09640261 -0.09637647 -0.09635156 -0.09633086 -0.09631157
 -0.09629121 -0.09626494 -0.09622493 -0.09617197 -0.09610246 -0.09602365 -0.09593815 -0.0958529 -0.09577134 -0.09569639
 -0.0956293 -0.09557188 -0.0955247 -0.09548808 -0.09546237 -0.0954442 -0.09543341 -0.09542277 -0.09541171 -0.09539088
 -0.09535988 -0.09531109 -0.09524538 -0.09516104 -0.09506116 -0.09495218 -0.09483749 -0.09472585 -0.09461896 -0.09452209
 -0.09443611 -0.09436321 -0.09430435 -0.09426142 -0.09423183 -0.09421649 -0.09420654 -0.09420051 -0.09418844 -0.09416801
 -0.09413589 -0.09409119 -0.0940363 -0.09397127 -0.09389959 -0.0938215 -0.09374139 -0.09365981 -0.093583 -0.09351089
 -0.09344719 -0.09339012 -0.0933373 -0.09328675 -0.09323332 -0.09317751 -0.09311708 -0.09305556 -0.09299502 -0.09293871
 -0.09289009 -0.09284726 -0.09281118 -0.09277571 -0.09273905 -0.09269866 -0.09265304 -0.09260726 -0.09256184 -0.09251948
 -0.09248054 -0.09243628 -0.09238627 -0.09232172 -0.09224386 -0.09215748 -0.09206358 -0.09196978 -0.09187356 -0.09177052
 -0.09166219 -0.0915462 -0.0914329 -0.09133547 -0.09125774 -0.09121215 -0.09118381 -0.09116975 -0.0911492 -0.09111089
 -0.09105127 -0.09096408 -0.0908668 -0.09076142 -0.09066328 -0.09057534 -0.09049545 -0.09042387 -0.09034822 -0.09026805
 -0.09017497 -0.09007016 -0.08995733 -0.08983925 -0.08972926 -0.08962883 -0.08954967 -0.08948917 -0.08944996 -0.08942391
 -0.08940382 -0.0893772 -0.08933001 -0.08925641 -0.08914452 -0.08900909 -0.08885089 -0.08869322 -0.08854476 -0.08841017
 -0.08829367 -0.08818102 -0.08807099 -0.08795276 -0.08782522 -0.08769371 -0.08755877 -0.08743227 -0.08731388 -0.0872077
 -0.08711077 -0.08701374 -0.08691208 -0.08678755 -0.08664014 -0.08645777 -0.08625186 -0.08603052 -0.08580869 -0.08560459
 -0.0854208 -0.08526678 -0.08513156 -0.08501437 -0.08489934 -0.08478273 -0.08464912 -0.08449464 -0.08431225 -0.08409961
 -0.08386494 -0.08360846 -0.08334287 -0.08306847 -0.08278823 -0.08250196 -0.08220891 -0.08191016 -0.08161043 -0.08131031
 -0.08101475 -0.08072181 -0.08043039 -0.08013778 -0.0798398 -0.07953508 -0.07922017 -0.07889718 -0.07856572 -0.07823049
 -0.07789516 -0.07755563 -0.07721444 -0.07685231 -0.07646569 -0.0760414 -0.07557471 -0.07508665 -0.07457782 -0.07408288
 -0.07360265 -0.07314302 -0.0727016 -0.07226018 -0.07181828 -0.07136335 -0.07089856 -0.07042652 -0.06995015 -0.06947809
 -0.0690074 -0.06854086 -0.06806571 -0.06757214 -0.06704698 -0.06647327 -0.06586397 -0.06521432 -0.06456338 -0.06392391
 -0.06331326 -0.06274175 -0.06218499 -0.06164219 -0.06108259 -0.06050318 -0.05990045 -0.05927474 -0.05864327 -0.05800625
 -0.05737378 -0.0567431 -0.05610701 -0.05546242 -0.05479502 -0.05410694 -0.05339344 -0.05266326 -0.05192642 -0.05118991
 -0.05046625 -0.0497517 -0.04904927 -0.04834818 -0.04764421 -0.04693003 -0.04620158 -0.04545969 -0.04470301 -0.0439389
 -0.04316804 -0.04239705 -0.04162692 -0.04085178 -0.04007111 -0.03926944 -0.03844722 -0.03760102 -0.03673463 -0.03586517
 -0.03499431 -0.03413763 -0.03329071 -0.03245198 -0.03161713 -0.03077824 -0.02993623 -0.02908889 -0.02823865 -0.02738703
 -0.02653394 -0.02568079 -0.02482282 -0.0239601 -0.02308261 -0.0221883 -0.02126992 -0.02032501 -0.01936107 -0.01837799
 -0.01739349 -0.01640833 -0.01543211 -0.01446431 -0.0135035 -0.01254911 -0.01159762 -0.01064899 -0.009701524 -0.008754774
 -0.00780705 -0.006857827 -0.005905957 -0.00495022 -0.003989151 -0.003021409 -0.002045025 -0.001061416 -6.996327E-05 0.000924763
 0.001921477 0.002916726 0.003909368 0.004898604 0.005884121 0.00686615 0.007844589 0.00882156 0.009797201 0.01077518
 0.01175547 0.01273917 0.01372604 0.01471537 0.01570747 0.01670327 0.01770254 0.01870553 0.01971115 0.02071707
 0.02172478 0.02273419 0.02374914 0.02477356 0.02580563 0.0268472 0.0278892 0.02892894 0.02996029 0.03098037
 0.03199228 0.03299552 0.03399804 0.03500048 0.03600829 0.03702167 0.03803898 0.03905962 0.04007616 0.04108863
 0.04209281 0.04309037 0.04408494 0.04507705 0.04607036 0.04706288 0.04805254 0.04903935 0.05002169 0.05100263
 0.05198459 0.05296752 0.05395292 0.05493662 0.05591722 0.05689308 0.05786319 0.05882929 0.05979158 0.06075075
 0.06170688 0.06266006 0.0636103 0.06455857 0.0655048 0.06644835 0.06738871 0.068323 0.06925031 0.07016658
 0.0710703 0.07195546 0.07282282 0.07366875 0.0745007 0.07532393 0.07614853 0.07698523 0.07783449 0.07870176
 0.07957572 0.08045416 0.0813259 0.08218729 0.08303559 0.08386942 0.08469216 0.08550382 0.08630974 0.08711018
 0.08790843 0.08870424 0.08949547 0.09028137 0.09105681 0.09182129 0.09257042 0.09330411 0.09401947 0.09471807
 0.09540001 0.09607 0.09673303 0.09739312 0.09805604 0.09871998 0.0993863 0.1000497 0.1007084 0.1013592
 0.1020009 0.1026319 0.1032518 0.1038604 0.1044576 0.1050469 0.1056286 0.1062068 0.1067815 0.107352
 0.107918 0.1084778 0.1090317 0.1095805 0.1101232 0.1106584 0.1111832 0.1116918 0.112184 0.1126557
 0.1131114 0.1135529 0.1139851 0.1144114 0.1148336 0.1152539 0.1156689 0.116079 0.1164764 0.1168595
 0.1172234 0.1175665 0.1178968 0.1182145 0.1185355 0.1188598 0.1191935 0.1195343 0.1198715 0.1202033
 0.1205154 0.1208095 0.1210818 0.1213376 0.121584 0.1218254 0.1220708 0.1223174 0.1225679 0.1228126
 0.1230469 0.1232643 0.1234599 0.1236368 0.1237939 0.1239392 0.124074 0.1242032 0.1243274 0.1244482
 0.1245655 0.1246784 0.1247865 0.1248858 0.1249759 0.1250525 0.1251157 0.125164 0.1251984 0.1252199
 0.1252297 0.1252302 0.1252231 0.1252116 0.1251972 0.1251829 0.1251676 0.1251523 0.1251334 0.12511
 0.1250773 0.1250341 0.1249762 0.1249026 0.1248124 0.1247052 0.1245854 0.1244533 0.1243152 0.124171
 0.1240225 0.123869 0.1237072 0.1235372 0.1233566 0.1231669 0.1229706 0.1227704 0.1225723 0.1223769
 0.1221882 0.1220028 0.1218201 0.1216337 0.1214397 0.1212353 0.1210177 0.1207909 0.1205549 0.1203163
 0.1200764 0.1198383 0.1196025 0.1193698 0.1191401 0.1189144 0.1186929 0.118476 0.1182635 0.1180542
 0.1178481 0.1176441 0.1174431 0.1172478 0.1170569 0.1168715 0.1166855 0.1164926 0.1162853 0.116053
 0.1157977 0.1155149 0.1152188 0.1149131 0.1146116 0.11432 0.1140405 0.1137754 0.1135181 0.1132684
 0.1130183 0.1127671 0.1125062 0.1122352 0.111949 0.1116484 0.1113377 0.1110188 0.1107023 0.1103875
 0.1100788 0.109772 0.1094614 0.1091436 0.1088106 0.1084647 0.1081038 0.1077352 0.1073627 0.1069921
 0.1066279 0.1062671 0.1059112 0.1055491 0.1051792 0.1047929 0.1043885 0.1039679 0.1035309 0.1030858
 0.102633 0.1021795 0.1017253 0.1012747 0.1008274 0.1003855 0.09994715 0.09950884 0.09906721 0.09861373
 0.09814837 0.09766579 0.09717243 0.0966714 0.09617027 0.09567556 0.09518795 0.09471085 0.09423658 0.09376425
 0.09328472 0.09279577 0.09229375 0.09177718 0.091253 0.09072133 0.09019627 0.08967829 0.08917609 0.08868813
 0.08820719 0.0877305 0.08724152 0.08674068 0.08621923 0.0856824 0.08513574 0.08458418 0.08403751 0.08349556
 0.08296245 0.08243418 0.08190947 0.08138517 0.08085968 0.08033115 0.07979913 0.07926073 0.07871533 0.07816096
 0.0775969 0.07702632 0.07644928 0.07587293 0.07529757 0.07472764 0.07416265 0.07360091 0.07304147 0.0724793
 0.07191402 0.07134165 0.07076307 0.07017778 0.06958757 0.0689947 0.06840033 0.06780696 0.06721312 0.06661876
 0.06602196 0.06542094 0.06481833 0.06421372 0.0636137 0.06301967 0.06243505 0.06186099 0.06129353 0.06073263
 0.06017084 0.05960784 0.05903859 0.05846324 0.05788076 0.05729169 0.05669774 0.05609966 0.05550051 0.05490056
 0.05430199 0.05370417 0.05310726 0.0525103 0.05191218 0.05131303 0.05071206 0.05011132 0.049511 0.0489148
 0.04832363 0.0477412 0.04716856 0.04660693 0.04605672 0.04551731 0.04498876 0.04446924 0.04395852 0.04345075
 0.04294489 0.04242906 0.0419025 0.04135406 0.04078624 0.04019925 0.03959912 0.03899758 0.03840008 0.03782004
 0.03725751 0.03671907 0.03619762 0.03569191 0.0351908 0.03468876 0.03417899 0.03365657 0.03312661 0.0325881
 0.03205428 0.03152699 0.0310136 0.03051526 0.03002672 0.0295477 0.02907008 0.02859454 0.02812355 0.02765934
 0.02721474 0.02678973 0.02639331 0.02601885 0.02565913 0.02530281 0.02492997 0.02453515 0.02410192 0.023641
 0.02315136 0.0226548 0.02216179 0.02168468 0.0212324 0.02079667 0.02037825 0.01996242 0.01954635 0.01912872
 0.01870872 0.01829716 0.01789447 0.01750642 0.01713212 0.01676499 0.01640407 0.0160406 0.01567563 0.01530782
 0.01493888 0.01457225 0.0142077 0.01384681 0.01348775 0.01312905 0.01276996 0.012409 0.01204782 0.01168691
 0.01132736 0.01097061 0.0106125 0.01025352 0.009883161 0.009500188 0.009095389 0.008667398 0.008219571 0.007752284
 0.007283309 0.006813747 0.006362237 0.005927545 0.005514156 0.005118005 0.004728525 0.00434263 0.003947391 0.003544747
 0.003130851 0.002711752 0.002292245 0.001877142 0.001472304 0.001076942 0.00069304 0.0003154684 -5.710024E-05 -0.0004283455
 -0.0007998338 -0.001170491 -0.001540683 -0.001906341 -0.002267097 -0.002620803 -0.002967394 -0.003309391 -0.003647322 -0.003987737
 -0.004331138 -0.004684086 -0.005045687 -0.005417326 -0.005795947 -0.006175823 -0.00655386 -0.006922095 -0.007281111 -0.007627579
 -0.00796591 -0.008298292 -0.008628122 -0.008958636 -0.009287768 -0.009615915 -0.009939007 -0.01025577 -0.0105659 -0.01086887
 -0.01116779 -0.01146307 -0.01175433 -0.01204149 -0.0123169 -0.01258003 -0.01282187 -0.01304331 -0.01324355 -0.01342577
 -0.0135998 -0.01376913 -0.01394716 -0.01413369 -0.01433592 -0.0145478 -0.01476701 -0.01498358 -0.01519019 -0.01537734
 -0.01553798 -0.01566817 -0.0157642 -0.01582873 -0.01586114 -0.01586753 -0.01584855 -0.01580991 -0.01575211 -0.01567981
 -0.0155933 -0.01549749 -0.0153924 -0.01528058 -0.01516089 -0.01502858 -0.01488158 -0.01470966 -0.01451273 -0.01428421
 -0.01402834 -0.01374805 -0.01344956 -0.01314123 -0.01282598 -0.01250963 -0.01218984 -0.01186712 -0.01153802 -0.01120072
 -0.01085594 -0.01050286 -0.0101464 -0.009787374 -0.009428108 -0.009069283 -0.008706313 -0.008338979 -0.007959818 -0.00756888
 -0.007164675 -0.006748286 -0.006325355 -0.005896776 -0.005469066 -0.005041566 -0.004616079 -0.004191325 -0.003765754 -0.003339161
 -0.002910512 -0.002480522 -0.002049384 -0.001617836 -0.001186176 -0.0007554122 -0.0003253636 0.0001005519 0.0005219775 0.0009339697
 0.001335717 0.001723805 0.002097788 0.002456514 0.002799919 0.003122816 0.003424422 0.003692637 0.003926741 0.004115493
 0.004260199 0.004359433 0.004415264 0.004432626 0.004411131 0.004352634 0.004255445 0.004117394 0.003940057 0.003722737
 0.003471081 0.003187185 0.00287803 0.002546365 0.00219797 0.00183516 0.001459283 0.001071668 0.0006664642 0.0002433838
 -0.0002049881 -0.0006791877 -0.001175066 -0.00169138 -0.002209027 -0.002726017 -0.003219796 -0.003690355 -0.004125193 -0.004526475
 -0.00489304 -0.00522748 -0.005533302 -0.005813252 -0.006070859 -0.006311133 -0.006537929 -0.006759043 -0.006979446 -0.007205442
 -0.007441192 -0.007687085 -0.007944478 -0.008209872 -0.008482718 -0.008761465 -0.009045642 -0.009337843 -0.009638206 -0.009948417
 -0.01026839 -0.01059662 -0.0109331 -0.01127668 -0.01162832 -0.01199065 -0.01236563 -0.01275933 -0.0131735 -0.01361465
 -0.01408169 -0.01457727 -0.01509576 -0.01563456 -0.0161854 -0.01674322 -0.01730144 -0.01785648 -0.01840437 -0.01894367
 -0.01947102 -0.01998561 -0.02048543 -0.0209699 -0.02144141 -0.02190003 -0.02235016 -0.02279191 -0.0232271 -0.02365577
 -0.02407815 -0.02449602 -0.02491519 -0.02534013 -0.0257852 -0.02625396 -0.02676146 -0.02730319 -0.02788307 -0.02848543
 -0.02910026 -0.02970926 -0.03029775 -0.03085952 -0.03138652 -0.03188705 -0.03236127 -0.03281978 -0.03326515 -0.03369949
 -0.03412352 -0.03453514 -0.0349342 -0.03532172 -0.03569783 -0.03606566 -0.03642503 -0.03677625 -0.03711869 -0.03744975
 -0.03776934 -0.03807548 -0.03836925 -0.03865127 -0.03892366 -0.0391894 -0.03944995 -0.03970791 -0.03996294 -0.04021577
 -0.04046501 -0.04070983 -0.04095103 -0.04118825 -0.04142457 -0.04166067 -0.04189755 -0.04213573 -0.04237162 -0.04260506
 -0.04283134 -0.04305036 -0.04326083 -0.04346319 -0.04366018 -0.04385223 -0.04404283 -0.04423158 -0.04441951 -0.04460531
 -0.04478695 -0.04496363 -0.04513283 -0.04529616 -0.04545357 -0.04560857 -0.04576342 -0.04592014 -0.04608078 -0.0462433
 -0.04640804 -0.04657037 -0.04672951 -0.04688193 -0.04702688 -0.04716467 -0.04729515 -0.04742255 -0.04754712 -0.04767399
 -0.04780303 -0.04793591 -0.04807181 -0.04820798 -0.04834394 -0.04847666 -0.04860653 -0.04873297 -0.04885635 -0.04897707
 -0.04909502 -0.04920993 -0.04932266 -0.04943323 -0.04954387 -0.04965579 -0.04976952 -0.04988617 -0.0500021 -0.05011715
 -0.05022595 -0.0503276 -0.05042085 -0.05050539 -0.05058636 -0.05066413 -0.05074707 -0.05083529 -0.05093379 -0.05104143
 -0.05115601 -0.05127588 -0.05139478 -0.05151281 -0.05162651 -0.05173844 -0.05185056 -0.05196525 -0.05208622 -0.05221227
 -0.05234456 -0.05247858 -0.05261274 -0.05274341 -0.05286873 -0.05298886 -0.05310304 -0.05321505 -0.05332514 -0.05343748
 -0.05355242 -0.05367282 -0.05379878 -0.05393111 -0.05406956 -0.05421261 -0.05435977 -0.05450786 -0.05465666 -0.05480374
 -0.05494961 -0.05509411 -0.05523792 -0.05538226 -0.05552648 -0.05567064 -0.05581328 -0.05595309 -0.0560904 -0.05622444
 -0.05635829 -0.05649268 -0.05663029 -0.05677234 -0.05691687 -0.05706409 -0.0572091 -0.05735149 -0.05748953 -0.05762325
 -0.05775615 -0.05788842 -0.0580237 -0.05816138 -0.05830071 -0.05844061 -0.05857726 -0.05871047 -0.05883764 -0.05896004
 -0.05907797 -0.05919375 -0.0593095 -0.05942757 -0.05955048 -0.05967838 -0.05981252 -0.0599502 -0.06009096 -0.06023192
 -0.06037207 -0.06051192 -0.06065134 -0.06079195 -0.06093395 -0.0610765 -0.06121949 -0.06136014 -0.06149836 -0.06163242
 -0.06176262 -0.0618894 -0.06201324 -0.06213567 -0.06225756 -0.06238132 -0.06250779 -0.06263936 -0.06277585 -0.06291809
 -0.06306515 -0.06321664 -0.06337194 -0.06353095 -0.06369215 -0.06385548 -0.06401765 -0.06417792 -0.06433421 -0.0644858
 -0.06463496 -0.06478176 -0.06493025 -0.06508058 -0.06523359 -0.06538898 -0.06554402 -0.06569861 -0.06585072 -0.06600065
 -0.06614836 -0.06629395 -0.06643756 -0.06657934 -0.06671924 -0.06685831 -0.06699725 -0.06713788 -0.067282 -0.06742963
 -0.06758194 -0.0677359 -0.06789114 -0.06804364 -0.06819218 -0.06833576 -0.06847372 -0.06860884 -0.06874128 -0.06887372
 -0.06900625 -0.06913888 -0.06927149 -0.06940258 -0.06953219 -0.06965979 -0.06978576 -0.06991091 -0.07003579 -0.07016192
 -0.07028964 -0.07042053 -0.07055336 -0.07068805 -0.07082158 -0.07095173 -0.07107655 -0.07119372 -0.0713055 -0.07141166
 -0.07151664 -0.07162158 -0.07172841 -0.07183784 -0.07194823 -0.07205953 -0.0721698 -0.07227893 -0.07238697 -0.07249398
 -0.0726009 -0.07270762 -0.07281411 -0.07292004 -0.07302402 -0.07312631 -0.07322637 -0.07332557 -0.07342568 -0.07352794
 -0.07363485 -0.07374544 -0.0738604 -0.07397656 -0.07409239 -0.07420608 -0.07431615 -0.07442424 -0.07453021 -0.07463712
 -0.07474559 -0.07485607 -0.07496884 -0.07508083 -0.07519189 -0.07529888 -0.07540189 -0.07550085 -0.07559618 -0.0756904
 -0.07578351 -0.075877 -0.07597035 -0.076063 -0.07615492 -0.07624543 -0.07633576 -0.07642705 -0.07652008 -0.07661619
 -0.07671437 -0.0768149 -0.07691503 -0.07701397 -0.07710937 -0.07720019 -0.07728695 -0.0773692 -0.07745076 -0.07753186
 -0.07761671 -0.07770554 -0.07779881 -0.0778963 -0.07799534 -0.07809599 -0.07819734 -0.07830013 -0.07840681 -0.07851744
 -0.07863399 -0.07875475 -0.07887809 -0.07900191 -0.07912287 -0.07924081 -0.0793539 -0.07946476 -0.07957409 -0.07968479
 -0.07979824 -0.07991544 -0.08003707 -0.08016224 -0.08029102 -0.0804216 -0.08055387 -0.08068556 -0.08081654 -0.08094392
 -0.08106763 -0.08118613 -0.0812998 -0.08141003 -0.0815175 -0.08162538 -0.08173396 -0.0818456 -0.08195986 -0.0820772
 -0.08219676 -0.08231786 -0.08243951 -0.08256071 -0.08268089 -0.08279926 -0.0829164 -0.08303224 -0.08314781 -0.08326336
 -0.08337939 -0.08349595 -0.08361369 -0.08373258 -0.08385403 -0.08397815 -0.08410537 -0.08423552 -0.08436619 -0.08449706
 -0.08462477 -0.08474948 -0.08486982 -0.08498638 -0.08509994 -0.08521095 -0.08532046 -0.0854288 -0.08553638 -0.08564444
 -0.08575378 -0.08586621 -0.08598322 -0.08610502 -0.08623268 -0.08636313 -0.08649613 -0.08662738 -0.086756 -0.08688015
 -0.08699936 -0.08711509 -0.0872274 -0.08733777 -0.08744622 -0.08755284 -0.0876577 -0.08776121 -0.08786381 -0.08796757
 -0.08807273 -0.08818121 -0.08829226 -0.0884056 -0.08852027 -0.08863476 -0.08874913 -0.08886266 -0.08897647 -0.08909108
 -0.08920707 -0.08932511 -0.08944385 -0.0895634 -0.08968093 -0.08979605 -0.08990642 -0.09001162 -0.09011163 -0.09020638
 -0.09029878 -0.09038909 -0.09048175 -0.09057677 -0.09067649 -0.09078027 -0.09088697 -0.09099579 -0.09110389 -0.0912114
 -0.09131721 -0.09142196 -0.09152632 -0.09162993 -0.09173302 -0.09183412 -0.09193236 -0.09202699 -0.09211697 -0.09220421
 -0.09228866 -0.09237387 -0.09246051 -0.09255075 -0.09264512 -0.09274222 -0.09284202 -0.09294046 -0.09303741 -0.09313014
 -0.09321903 -0.09330531 -0.09338978 -0.09347624 -0.09356533 -0.09366073 -0.09376246 -0.0938725 -0.09398983 -0.0941143
 -0.09424412 -0.09437776 -0.09451388 -0.09465089 -0.09478942 -0.09492891 -0.09507198 -0.09521908 -0.09537283 -0.09553409
 -0.09570243 -0.09587821 -0.09605734 -0.09623963 -0.09641947 -0.09659661 -0.09676702 -0.09693097 -0.09708852 -0.09724014
 -0.09738848 -0.09753258 -0.09767254 -0.09780415 -0.09792062 -0.09801634 -0.0980802 -0.09811257 -0.09810657 -0.09807497
 -0.09802029 -0.09796423 -0.09791579 -0.09789142 -0.09789861 -0.09794038 -0.09801959 -0.09812853 -0.09826758 -0.09842045
 -0.09858634 -0.09874383 -0.0988922 -0.09901866 -0.09912474 -0.09921625 -0.09929489 -0.09937165 -0.09944529 -0.09951802
 -0.09958813 -0.0996526 -0.09971248 -0.09976716 -0.0998199 -0.09987344 -0.09992991 -0.09999198 -0.1000586 -0.1001307
 -0.1002038 -0.100277 -0.1003453 -0.1004072 -0.1004607 -0.1005052 -0.1005432 -0.100575 -0.1006056 -0.1006355
 -0.1006685 -0.1007046 -0.1007451 -0.1007897 -0.100838 -0.1008897 -0.1009448 -0.1010029 -0.1010639 -0.1011271
 -0.1011916 -0.1012561 -0.101319 -0.1013793 -0.1014354 -0.1014878 -0.101536 -0.1015821 -0.1016262 -0.1016713
 -0.101718 -0.1017684 -0.101823 -0.1018813 -0.1019434 -0.1020079 -0.1020748 -0.102143 -0.1022126 -0.1022835
 -0.1023554 -0.1024276 -0.1025001 -0.1025722 -0.1026444 -0.102717 -0.1027902 -0.1028647 -0.1029392 -0.1030134
 -0.1030855 -0.1031542 -0.1032194 -0.1032799 -0.1033378 -0.1033932 -0.103449 -0.103506 -0.1035664 -0.103631
 -0.1036992 -0.1037711 -0.1038433 -0.1039153 -0.1039836 -0.1040481 -0.1041086 -0.1041655 -0.1042211 -0.1042755
 -0.1043304 -0.1043854 -0.10444 -0.1044941 -0.1045467 -0.1045988 -0.1046505 -0.104703 -0.1047571 -0.1048126
 -0.1048701 -0.1049278 -0.1049852 -0.1050411 -0.1050948 -0.1051476 -0.1051994 -0.1052529 -0.1053084 -0.1053663
 -0.1054268 -0.105487 -0.105547 -0.1056037 -0.1056578 -0.1057095 -0.1057594 -0.1058096 -0.1058602 -0.1059118
 -0.1059639 -0.1060158 -0.1060674 -0.1061182 -0.1061689 -0.1062198 -0.1062718 -0.1063254 -0.106381 -0.106439
 -0.1064991 -0.1065614 -0.1066245 -0.1066881 -0.1067497 -0.1068091 -0.1068646 -0.1069162 -0.1069644 -0.1070096
 -0.1070532 -0.1070957 -0.1071387 -0.1071826 -0.1072296 -0.10728 -0.1073361 -0.1073974 -0.1074646 -0.1075358
 -0.1076098 -0.1076841 -0.1077565 -0.1078257 -0.1078906 -0.1079513 -0.1080076 -0.1080615 -0.1081134 -0.1081662
 -0.1082203 -0.1082774 -0.1083379 -0.1084003 -0.1084647 -0.108528 -0.1085901 -0.1086501 -0.1087085 -0.108767
 -0.1088261 -0.1088881 -0.1089524 -0.1090189 -0.1090867 -0.1091539 -0.1092203 -0.1092845 -0.1093473 -0.1094088
 -0.10947 -0.1095314 -0.1095936 -0.1096567 -0.1097209 -0.1097865 -0.1098533 -0.1099214 -0.1099899 -0.110059
 -0.1101272 -0.1101944 -0.11026 -0.1103241 -0.1103873 -0.1104496 -0.1105115 -0.1105729 -0.1106331 -0.1106923
 -0.1107502 -0.1108079 -0.1108666 -0.1109275 -0.1109925 -0.1110606 -0.1111321 -0.1112042 -0.1112759 -0.1113446
 -0.1114092 -0.1114688 -0.1115228 -0.1115717 -0.1116153 -0.1116562 -0.1116945 -0.1117341 -0.1117752 -0.1118211
 -0.1118716 -0.1119274 -0.1119879 -0.1120514 -0.1121174 -0.1121835 -0.1122495 -0.1123135 -0.1123754 -0.1124343
 -0.1124907 -0.1125448 -0.112598 -0.1126513 -0.1127063 -0.1127643 -0.1128257 -0.1128914 -0.1129593 -0.1130294
 -0.1130987 -0.1131666 -0.1132321 -0.1132949 -0.113356 -0.1134156 -0.1134749 -0.113534 -0.1135933 -0.1136529
 -0.1137133 -0.1137748 -0.1138381 -0.1139031 -0.1139695 -0.1140368 -0.1141038 -0.1141701 -0.114235 -0.114299
 -0.1143621 -0.1144247 -0.1144873 -0.1145498 -0.1146123 -0.1146746 -0.1147366 -0.1147975 -0.114857 -0.1149143
 -0.1149691 -0.1150224 -0.1150743 -0.1151278 -0.1151828 -0.1152418 -0.1153041 -0.1153691 -0.1154359 -0.115502
 -0.1155673 -0.1156304 -0.1156923 -0.1157541 -0.1158163 -0.1158801 -0.1159446 -0.1160093 -0.1160729 -0.1161343
 -0.1161942 -0.1162523 -0.1163114 -0.1163719 -0.1164351 -0.1165015 -0.1165696 -0.1166391 -0.1167082 -0.1167768
 -0.1168445 -0.1169113 -0.1169773 -0.1170424 -0.117105 -0.1171651 -0.117221 -0.1172732 -0.1173224 -0.1173701
 -0.1174192 -0.1174705 -0.1175269 -0.1175866 -0.1176498 -0.1177134 -0.1177756 -0.1178358 -0.1178927 -0.1179495
 -0.1180065 -0.1180663 -0.1181301 -0.1181957 -0.1182633 -0.1183281 -0.1183897 -0.118446 -0.118497 -0.1185457
 -0.1185926 -0.1186421 -0.1186938 -0.1187494 -0.1188075 -0.1188664 -0.1189253 -0.1189821 -0.1190373 -0.1190908
 -0.1191432 -0.1191953 -0.1192467 -0.1192976 -0.119347 -0.119394 -0.1194394 -0.119483 -0.1195267 -0.1195709
 -0.1196161 -0.1196625 -0.1197077 -0.1197516 -0.1197921 -0.1198294 -0.1198644 -0.1198976 -0.1199321 -0.119968
 -0.1200069 -0.1200485 -0.1200923 -0.1201379 -0.1201847 -0.1202326 -0.1202812 -0.1203308 -0.1203815 -0.1204331
 -0.1204859 -0.1205394 -0.1205938 -0.1206477 -0.1207011 -0.1207528 -0.1208028 -0.1208515 -0.1208989 -0.1209468
 -0.1209951 -0.1210454 -0.1210977 -0.1211522 -0.1212089 -0.1212671 -0.1213266 -0.1213856 -0.1214437 -0.1214985
 -0.1215498 -0.1215958 -0.1216375 -0.1216753 -0.1217113 -0.1217475 -0.1217859 -0.1218285 -0.1218749 -0.1219259
 -0.121979 -0.1220337 -0.1220871 -0.1221385 -0.1221868 -0.1222317 -0.1222748 -0.1223163 -0.1223587 -0.1224019
 -0.122447 -0.1224938 -0.1225409 -0.122588 -0.1226328 -0.1226753 -0.1227141 -0.1227499 -0.122783 -0.1228147
 -0.1228467 -0.1228799 -0.1229159 -0.122954 -0.1229947 -0.123036 -0.1230772 -0.1231163 -0.1231527 -0.1231861
 -0.1232162 -0.1232444 -0.1232706 -0.1232961 -0.1233211 -0.1233464 -0.1233721 -0.1233982 -0.1234248 -0.123451
 -0.1234768 -0.1235016 -0.1235255 -0.123549 -0.1235724 -0.1235966 -0.123622 -0.1236493 -0.1236786 -0.1237107
 -0.123745 -0.123782 -0.1238198 -0.1238581 -0.1238944 -0.1239277 -0.1239574 -0.1239828 -0.1240053 -0.124025
 -0.124044 -0.1240623 -0.124081 -0.1241001 -0.1241193 -0.1241384 -0.1241564 -0.1241737 -0.1241901 -0.1242062
 -0.1242232 -0.1242414 -0.1242622 -0.1242851 -0.1243104 -0.1243368 -0.1243634 -0.1243884 -0.1244104 -0.1244286
 -0.1244419 -0.1244517 -0.1244576 -0.1244619 -0.1244652 -0.1244689 -0.1244734 -0.1244789 -0.1244853 -0.1244922
 -0.1244995 -0.124506 -0.1245116 -0.1245146 -0.1245151 -0.1245122 -0.1245065 -0.1244988 -0.1244894 -0.1244793
 -0.1244684 -0.1244565 -0.124444 -0.1244308 -0.1244181 -0.1244065 -0.124397 -0.12439 -0.1243857 -0.1243845
 -0.1243855 -0.1243888 -0.124392 -0.1243949 -0.1243936 -0.1243879 -0.124375 -0.1243551 -0.1243295 -0.1242988
 -0.1242668 -0.1242339 -0.1242036 -0.1241755 -0.1241502 -0.1241266 -0.1241025 -0.1240769 -0.1240471 -0.1240138
 -0.1239768 -0.1239374 -0.123897 -0.1238551 -0.1238119 -0.1237665 -0.1237179 -0.123668 -0.1236167 -0.1235668
 -0.1235191 -0.1234723 -0.1234265 -0.1233779 -0.1233263 -0.1232706 -0.1232111 -0.1231509 -0.1230897 -0.1230288
 -0.1229667 -0.1228999 -0.1228274 -0.122745 -0.1226546 -0.1225566 -0.1224545 -0.1223527 -0.1222514 -0.1221533
 -0.1220546 -0.1219542 -0.1218487 -0.1217363 -0.1216177 -0.1214922 -0.1213634 -0.1212318 -0.121099 -0.1209653
 -0.1208274 -0.120685 -0.12053 -0.1203622 -0.1201749 -0.1199695 -0.1197481 -0.1195123 -0.1192693 -0.1190178
 -0.1187595 -0.11849 -0.1182039 -0.1178969 -0.1175625 -0.1171997 -0.1168054 -0.1163824 -0.1159309 -0.1154539
 -0.1149532 -0.1144263 -0.1138739 -0.1132876 -0.1126659 -0.1120067 -0.1113092 -0.1105867 -0.1098398 -0.1090818
 -0.108312 -0.1075283 -0.1067301 -0.1059118 -0.1050764 -0.1042309 -0.1033769 -0.1025234 -0.1016645 -0.1007949
 -0.09991258 -0.09900814 -0.09809946 -0.0971935 -0.09631333 -0.09547491 -0.09467933 -0.09393248 -0.09322073 -0.09254125
 -0.09188884 -0.09126176 -0.09066422 -0.09009682 -0.08955646 -0.08904281 -0.0885402 -0.08804829 -0.08755668 -0.08706813
 -0.08659208 -0.08613084 -0.08569853 -0.08529159 -0.08491004 -0.08454753 -0.08419487 -0.08384687 -0.08349613 -0.08313575
 -0.08276166 -0.08235914 -0.08192334 -0.08143134 -0.08087564 -0.08023597 -0.07950482 -0.07868055 -0.0777595 -0.07676377
 -0.07569402 -0.07458319 -0.07343298 -0.07226851 -0.07108886 -0.06989517 -0.0686812 -0.06741495 -0.06608958 -0.06465878
 -0.0631355 -0.06151657 -0.05983975 -0.05816569 -0.05650953 -0.05492086 -0.05336871 -0.05184695 -0.0503241 -0.04877593
 -0.04721022 -0.0456205 -0.04403616 -0.04246356 -0.04091874 -0.03940462 -0.03793219 -0.03650207 -0.03513239 -0.03382403
 -0.03258066 -0.03140138 -0.0302747 -0.02920229 -0.02818761 -0.02723352 -0.02635574 -0.02554634 -0.02479896 -0.02409586
 -0.02340387 -0.02271823 -0.02201417 -0.02131449 -0.0206289 -0.01997463 -0.01936891 -0.01879808 -0.01826121 -0.01774465
 -0.01724156 -0.01676396 -0.01631152 -0.01590494 -0.01554642 -0.01524437 -0.01499931 -0.01481285 -0.01468532 -0.01462197
 -0.01462246 -0.01468871 -0.01481786 -0.01500159 -0.01523616 -0.01550996 -0.01581789 -0.01614908 -0.01649357 -0.01683861
 -0.01717019 -0.01747471 -0.01773999 -0.01795713 -0.01811614 -0.01821294 -0.0182358 -0.0181809 -0.01804259 -0.01781792
 -0.01751696 -0.01714005 -0.01670043 -0.01619886 -0.01563449 -0.01500688 -0.01430887 -0.01354169 -0.01270817 -0.01181179
 -0.01086609 -0.009874411 -0.008851158 -0.007798357 -0.006725715 -0.005633651 -0.004526714 -0.003403281 -0.002263878 -0.001105722
 7.219166E-05 0.001273176 0.002498657 0.003750794 0.00503108 0.006336672 0.007667878 0.009018113 0.01038704 0.01176676
 0.01315686 0.01454182 0.01592039 0.01727094 0.01859396 0.01988161 0.02113546 0.02236211 0.02355179 0.02468963
 0.02575275 0.02669531 0.02750446 0.02814556 0.02862003 0.02891922 0.02904299 0.02898817 0.02875893 0.02835597
 0.02778419 0.02705123 0.02612531 0.02500687 0.02363303 0.02199342 0.02009564 0.01793852 0.01565055 0.01323701
 0.01080134 0.008334693 0.005828565 0.00327588 0.0006412667 -0.002065596 -0.004840021 -0.0076668 -0.01051399 -0.01338246
 -0.01625718 -0.01915328 -0.02208892 -0.02504004 -0.02801838 -0.03092651 -0.03373017 -0.03635854 -0.03877323 -0.04101186
 -0.04307086 -0.04501977 -0.04686743 -0.04863596 -0.05032749 -0.0519301 -0.05344386 -0.05486841 -0.05620594 -0.05747196
 -0.05866664 -0.05979909 -0.06086722 -0.06186849 -0.06280541 -0.06367818 -0.06449779 -0.06527588 -0.06602602 -0.06676434
 -0.06749596 -0.06822969 -0.06896098 -0.06968993 -0.07041244 -0.07112741 -0.07183289 -0.07253031 -0.07320447 -0.07385496
 -0.07445657 -0.07500743 -0.07550402 -0.07594708 -0.07635193 -0.07671819 -0.07705095 -0.07734706 -0.07759601 -0.07779648
 -0.0779396 -0.07802588 -0.07805376 -0.07801981 -0.07791995 -0.0777491 -0.07750018 -0.07717478 -0.07677068 -0.07629467
 -0.07574945 -0.07513782 -0.0744614 -0.07371952 -0.07291191 -0.07204084 -0.07110654 -0.07011083 -0.06905396 -0.06793047
 -0.06674086 -0.06549116 -0.06418762 -0.06287733 -0.06156857 -0.0603242 -0.0591398 -0.05803774 -0.05700523 -0.05602691
 -0.05509943 -0.05421167 -0.05336539 -0.05256343 -0.05179119 -0.05104468 -0.05029836 -0.04953647 -0.04876123 -0.04796411
 -0.04718366 -0.04642671 -0.04571449 -0.04505321 -0.04442026 -0.04381499 -0.04319989 -0.04257349 -0.04191086 -0.04121276
 -0.04047371 -0.03969462 -0.03887814 -0.0380206 -0.03711532 -0.03615403 -0.03511691 -0.03400189 -0.03279312 -0.03150665
 -0.03014838 -0.0287414 -0.02730311 -0.0258424 -0.02436695 -0.02287969 -0.02137885 -0.01988598 -0.01840152 -0.01696381
 -0.01557713 -0.01427111 -0.01304842 -0.01191808 -0.01088031 -0.009935418 -0.009083908 -0.008330254 -0.0076751 -0.007124552
 -0.006676972 -0.006331027 -0.006084711 -0.005932645 -0.00587619 -0.00591462 -0.006050473 -0.006286805 -0.006622207 -0.007057473
 -0.007588245 -0.008212749 -0.008928304 -0.009733606 -0.01062824 -0.0116123 -0.01268362 -0.01384297 -0.0150789 -0.01639133
 -0.01775211 -0.01915943 -0.02057673 -0.02200293 -0.02341333 -0.02480792 -0.02617497 -0.02751172 -0.0288049 -0.03005042
 -0.03123199 -0.0323531 -0.03340833 -0.03441208 -0.03537393 -0.03631132 -0.03723791 -0.03816535 -0.03910307 -0.04005219
 -0.04101661 -0.04198659 -0.04296201 -0.04392744 -0.04488112 -0.04581075 -0.04671524 -0.04758846 -0.04843005 -0.0492347
 -0.05000147 -0.05072032 -0.05138982 -0.05199767 -0.052544 -0.05302193 -0.05343453 -0.05378352 -0.0540747 -0.05431517
 -0.05451386 -0.05467969 -0.0548252 -0.05495965 -0.05509616 -0.05524257 -0.05540743 -0.05559558 -0.05580784 -0.05604595
 -0.0563042 -0.05658251 -0.05687223 -0.05717282 -0.057475 -0.05777826 -0.05807413 -0.05836224 -0.05863589 -0.05889457
 -0.05913273 -0.05934898 -0.05953663 -0.05969377 -0.059813 -0.05989422 -0.05993319 -0.05993342 -0.05989594 -0.05982675
 -0.05972951 -0.0596105 -0.05947263 -0.05932295 -0.05916338 -0.05900231 -0.05884153 -0.05868817 -0.05854369 -0.05840995
 -0.05828741 -0.05817286 -0.0580661 -0.05796225 -0.05786118 -0.05775936 -0.05765711 -0.05755373 -0.05745044 -0.05734986
 -0.05725483 -0.05717132 -0.05710434 -0.0570624 -0.05705236 -0.05708339 -0.0571621 -0.05729628 -0.05748756 -0.05774077
 -0.05804707 -0.05840742 -0.05880132 -0.05922662 -0.05965648 -0.06008777 -0.06049552 -0.06087754 -0.06121529 -0.06150784
 -0.06174443 -0.06192523 -0.06204721 -0.06211163 -0.06212262 -0.06208223 -0.06199849 -0.06187395 -0.06171729 -0.06153152
 -0.06132433 -0.06109868 -0.0608603 -0.06061099 -0.06035349 -0.0600893 -0.05981904 -0.05954651 -0.05927249 -0.05900242
 -0.05873776 -0.05848129 -0.05823389 -0.05799425 -0.05776239 -0.05753636 -0.05731608 -0.05710207 -0.05689451 -0.0566957
 -0.056506 -0.05632848 -0.05616359 -0.05601453 -0.05588136 -0.05576606 -0.05566765 -0.05558582 -0.05551873 -0.0554647
 -0.05542135 -0.05538704 -0.05535823 -0.05533357 -0.05530767 -0.05527911 -0.05524128 -0.05519282 -0.0551273 -0.05504371
 -0.05493718 -0.05480712 -0.0546518 -0.05447116 -0.05426791 -0.05404274 -0.05380392 -0.05355311 -0.05330286 -0.05305562
 -0.0528255 -0.05261524 -0.05243725 -0.05229437 -0.05219559 -0.05214434 -0.05214725 -0.05220728 -0.05232905 -0.05251249
 -0.05276003 -0.05306571 -0.05342931 -0.05384003 -0.05429628 -0.05478547 -0.05530632 -0.05584433 -0.05639874 -0.05694991
 -0.0574967 -0.05801377 -0.0584994 -0.0589265 -0.05929327 -0.05957619 -0.05977341 -0.05986651 -0.05985403 -0.05972321
 -0.05947459 -0.05910204 -0.05861071 -0.05800175 -0.05728627 -0.05647048 -0.05557071 -0.05459484 -0.05356141 -0.05247724
 -0.05135967 -0.05021347 -0.04905167 -0.0478769 -0.04669696 -0.04551299 -0.04432755 -0.04314083 -0.04195063 -0.04075626
 -0.03954952 -0.03832787 -0.03707446 -0.0357833 -0.03442715 -0.03299572 -0.0314538 -0.02978933 -0.02796659 -0.02598139
 -0.02380874 -0.02147016 -0.01896099 -0.0163448 -0.01363833 -0.01094584 -0.008297061 -0.005811935 -0.003520679 -0.001521777
 0.0001631786 0.001489482 0.002447385 0.003059925 0.003327765 0.003330664 0.003075336 0.002667507 0.002115479 0.001520554
 0.0008908154 0.0003071972 -0.0002226346 -0.000640858 -0.0009429773 -0.00109488 -0.001099434 -0.0009443021 -0.0006422143 -0.0001959066
 0.0003730286 0.001055697 0.001824508 0.002670447 0.003562567 0.004493888 0.005432467 0.006373215 0.007288 0.008173511
 0.009011799 0.009801592 0.01053958 0.01122658 0.01187286 0.01248122 0.01307257 0.01365209 0.01424787 0.01486793
 0.01554354 0.01628537 0.01712309 0.01806927 0.01914887 0.02037256 0.02175835 0.02330651 0.02502569 0.02689935
 0.02892723 0.03107852 0.03334868 0.03569876 0.03812421 0.04058085 0.04306512 0.04552985 0.04797218 0.05034679
 0.05265134 0.05484537 0.05692649 0.05885934 0.0606417 0.06224616 0.06367198 0.06490336 0.06594111 0.06677973
 0.06741994 0.06786063 0.06810211 0.06814335 0.06798772 0.06763418 0.06709518 0.06637107 0.06548889 0.06445097
 0.06330125 0.06204318 0.06073766 0.05938878 0.05807062 0.05678766 0.05561414 0.05455272 0.05365375 0.05291412
 0.05234119 0.05192398 0.05162809 0.05143559 0.0512879 0.05116271 0.05099683 0.05077035 0.05043121 0.04997866
 0.04938506 0.04868808 0.0478888 0.04706623 0.04624198 0.04551266 0.04490495 0.04449684 0.0443081 0.04436998
 0.04469148 0.04524792 0.04603931 0.04699371 0.04810546 0.04927474 0.05049258 0.05165147 0.05274025 0.05365968
 0.05439778 0.05487484 0.05508042 0.05496055 0.05450834 0.05369378 0.05251531 0.05095972 0.0490349 0.04673714
 0.04409108 0.04109872 0.03780787 0.03422417 0.03042037 0.02640402 0.02226755 0.01801907 0.01375545 0.00948332
 0.005281168 0.001151581 -0.002863218 -0.006765366 -0.01054901 -0.01421905 -0.01779153 -0.02127123 -0.02467904 -0.02801729
 -0.03130082 -0.03452724 -0.0377014 -0.04081442 -0.0438629 -0.0468308 -0.0497112 -0.05247973 -0.05512877 -0.05762562
 -0.05996276 -0.06210335 -0.06404047 -0.06574341 -0.06720717 -0.06841931 -0.06937806 -0.07009656 -0.07057663 -0.07085517
 -0.07093711 -0.07087493 -0.07067577 -0.0703962 -0.07004409 -0.06966908 -0.06927699 -0.06890192 -0.06854512 -0.06822287
 -0.06793133 -0.06767348 -0.06744221 -0.06723431 -0.06704315 -0.06686418 -0.0666975 -0.06653983 -0.0664046 -0.06629147
 -0.06622674 -0.0662127 -0.06627651 -0.06642044 -0.0666572 -0.06698665 -0.06740058 -0.06789599 -0.06844746 -0.06904901
 -0.06966329 -0.07028162 -0.07086156 -0.07139508 -0.07184613 -0.07221367 -0.07247918 -0.07265165 -0.07273044 -0.07273196
 -0.07266407 -0.07254654 -0.07238758 -0.07220846 -0.07201556 -0.07182916 -0.07165383 -0.07150448 -0.07138387 -0.07129722
 -0.07124545 -0.07122269 -0.07122825 -0.07124516 -0.07127126 -0.0712817 -0.07127403 -0.07122377 -0.07113031 -0.07097812
 -0.07077037 -0.07050423 -0.07018752 -0.06982779 -0.06943665 -0.06902679 -0.06860881 -0.06819442 -0.06778491 -0.06738635
 -0.06698633 -0.06658377 -0.06616143 -0.06571487 -0.0652378 -0.06472752 -0.06419483 -0.06363997 -0.06308044 -0.06251701
 -0.0619608 -0.06141173 -0.0608736 -0.06034612 -0.05983045 -0.0593258 -0.05883133 -0.05834442 -0.05786004 -0.05737462
 -0.05688118 -0.05637731 -0.05585808 -0.05532292 -0.05476994 -0.05419955 -0.05361115 -0.0530066 -0.05238533 -0.05175372
 -0.05111158 -0.05047231 -0.04983659 -0.04922356 -0.04863439 -0.04808982 -0.047591 -0.04715839 -0.04679338 -0.04651708
 -0.04633089 -0.04625359 -0.04628431 -0.04643212 -0.04669107 -0.04705643 -0.04751503 -0.04805065 -0.04864047 -0.04926127
 -0.04988144 -0.05047577 -0.05101405 -0.05147516 -0.05184635 -0.05211622 -0.05229537 -0.05238174 -0.05240049 -0.05235383
 -0.05226786 -0.05214483 -0.05200219 -0.0518407 -0.05166701 -0.05148068 -0.05128051 -0.05106542 -0.05082995 -0.05057279
 -0.0502869 -0.04997181 -0.04962261 -0.04924084 -0.04882671 -0.04838165 -0.04790822 -0.04740408 -0.04686953 -0.04629844
 -0.04568884 -0.04503317 -0.04433015 -0.04356777 -0.0427453 -0.04184218 -0.04085632 -0.03976549 -0.038567 -0.03725734
 -0.03583697 -0.03434143 -0.03277776 -0.03122665 -0.02970152 -0.02831176 -0.02706945 -0.02607386 -0.02532128 -0.02485988
 -0.02465972 -0.02470616 -0.02494682 -0.02533003 -0.02579469 -0.02628712 -0.02675228 -0.0271512 -0.02745007 -0.02762602
 -0.02768039 -0.02760399 -0.02743673 -0.0271794 -0.0268942 -0.02658577 -0.02631059 -0.02607151 -0.02589842 -0.02579028
 -0.02574727 -0.02576517 -0.02582304 -0.02591542 -0.02601382 -0.0261145 -0.02619442 -0.02625522 -0.02628785 -0.02629974
 -0.02629519 -0.02628101 -0.0262657 -0.02624564 -0.02622449 -0.02618507 -0.0261235 -0.02602156 -0.02587229 -0.02567671
 -0.0254309 -0.02516442 -0.0248783 -0.02461617 -0.02438031 -0.02420234 -0.02408165 -0.02402231 -0.02402043 -0.02405766
 -0.02412947 -0.02421147 -0.02430064 -0.02437863 -0.02444381 -0.02448612 -0.02450416 -0.0244929 -0.02445138 -0.02437723
 -0.02427062 -0.02413047 -0.02395923 -0.0237562 -0.02352923 -0.02327828 -0.02301926 -0.02275384 -0.02249924 -0.02225766
 -0.02203357 -0.02182724 -0.0216251 -0.02142586 -0.02120927 -0.02097541 -0.0207137 -0.02042671 -0.02011786 -0.0197891
 -0.01944833 -0.01909175 -0.01871846 -0.01831985 -0.01788494 -0.01741123 -0.01688915 -0.01633298 -0.01574419 -0.01514762
 -0.01455148 -0.01397644 -0.01342889 -0.01292089 -0.01245552 -0.0120371 -0.01166707 -0.01133667 -0.01104546 -0.01077081
 -0.01051122 -0.0102423 -0.009962983 -0.00965502 -0.009317141 -0.008934431 -0.008507749 -0.008028903 -0.007506454 -0.006948368
 -0.006368246 -0.005784713 -0.005206137 -0.00464453 -0.004104985 -0.00358991 -0.003114462 -0.00268271 -0.002314015 -0.00201686
 -0.001786588 -0.001627379 -0.001503643 -0.001413031 -0.001319107 -0.001219637 -0.001100858 -0.0009627672 -0.0008036005 -0.0006226483
 -0.0004143057 -0.0001776323 9.492658E-05 0.0004013196 0.0007420072 0.001110671 0.001499342 0.001896741 0.00228831 0.002661697
 0.003001558 0.003303719 0.003559828 0.003777047 0.003954168 0.004106701 0.004236955 0.004363817 0.004491987 0.004624021
 0.004761962 0.004886898 0.004997769 0.005085249 0.005150707 0.005213449 0.005276471 0.005371182 0.005493836 0.005649977
 0.005827863 0.006000757 0.006161327 0.006283478 0.00636908 0.006409866 0.006410498 0.006370288 0.006299324 0.006198794
 0.006091947 0.005985901 0.005905488 0.005860794 0.00585396 0.005889795 0.005944341 0.006016583 0.006075855 0.006120229
 0.006129269 0.006102695 0.006034188 0.005924833 0.005777878 0.005595359 0.005385447 0.005152288 0.004908449 0.004661674
 0.004430311 0.004221514 0.00405247 0.003922639 0.003838359 0.003793605 0.003786979 0.003812424 0.003869438 0.003944634
 0.004036335 0.004124541 0.004204609 0.004269968 0.004317887 0.004364341 0.00440994 0.004480234 0.004576651 0.004724985
 0.004925628 0.00519708 0.005533166 0.005922939 0.006352617 0.00678029 0.007198432 0.007571195 0.007906093 0.008197798
 0.008456052 0.008688977 0.008898331 0.009086107 0.009256967 0.009409906 0.009562396 0.009717742 0.009894879 0.01009893
 0.01033299 0.01059945 0.01088128 0.01117788 0.01145984 0.01172583 0.01195129 0.01213728 0.01227923 0.01237993
 0.01244889 0.01248668 0.01249912 0.01248678 0.01245054 0.01239835 0.01233829 0.01228332 0.0122474 0.01223908
 0.01226801 0.01233563 0.01244602 0.01259328 0.01277928 0.0129849 0.01320904 0.013423 0.01362319 0.0137919
 0.01392729 0.01403473 0.01411511 0.01418752 0.01425289 0.01432797 0.01441081 0.01450418 0.01460143 0.01468672
 0.01475327 0.01477826 0.01476616 0.01470861 0.01462591 0.01453109 0.01444656 0.01439289 0.01437166 0.01439391
 0.01443309 0.01448625 0.01451993 0.01452578 0.01449333 0.01441888 0.01431574 0.01418477 0.01403159 0.01385537
 0.01363361 0.01336398 0.0130152 0.01259103 0.01208662 0.01151641 0.01091477 0.01030037 0.009726131 0.009198776
 0.008753828 0.008376135 0.008067167 0.007802614 0.007567135 0.007346139 0.007128275 0.006912532 0.006693466 0.006487521
 0.0062937 0.006147793 0.006054575 0.00603471 0.006091461 0.006188983 0.006326763</values></Ydata></AB><ScSm><Ydata ylabel="Single channel"><values byteorder="INTEL" format="FLOAT32" numvalues="1814"> 0.08864242 0.08874477 0.08886531 0.0890089 0.0891677 0.08932646 0.08947121 0.08959748 0.08970808 0.08980359
 0.08988492 0.08996794 0.09008005 0.09023295 0.09040701 0.09056628 0.09068578 0.09077206 0.09086186 0.09098789
 0.09113485 0.09124066 0.09125371 0.09118824 0.09111612 0.09110206 0.09116095 0.09129503 0.09153564 0.09187371
 0.09216326 0.09221515 0.09203258 0.09184747 0.09186348 0.09205196 0.09224408 0.09231859 0.09225069 0.09209815
 0.09202617 0.09225564 0.09286352 0.09361905 0.09405422 0.09373411 0.0925464 0.09085873 0.08943117 0.08902048
 0.08983591 0.09130803 0.09251323 0.09291781 0.09267049 0.09221316 0.09181792 0.09157532 0.09159794 0.09200314
 0.09272229 0.09342398 0.09364456 0.09309258 0.09197602 0.09096524 0.09064689 0.09106833 0.09194082 0.09299274
 0.09371246 0.09307969 0.09046021 0.08698791 0.08522894 0.08681649 0.09074079 0.09439795 0.0959657 0.09538192
 0.09360006 0.09173854 0.09077887 0.0912343 0.09281788 0.09472736 0.09628307 0.09711193 0.0969766 0.09588393
 0.09431195 0.09301091 0.0925827 0.09330199 0.09500785 0.09694082 0.09804481 0.0977961 0.09659566 0.09524782
 0.09436563 0.09434211 0.09538502 0.09727279 0.09937026 0.1010987 0.102239 0.1028065 0.1029088 0.1027243
 0.1024153 0.1021039 0.1019914 0.1022561 0.1027056 0.1028155 0.1023127 0.101545 0.1011305 0.1013204
 0.1017837 0.1020074 0.101806 0.1012317 0.100053 0.09786041 0.0949026 0.09223013 0.09067197 0.09024709
 0.09082591 0.09248973 0.09472904 0.09618272 0.0960004 0.0949868 0.09473388 0.09589645 0.09777139 0.0993246
 0.1001987 0.1007778 0.1015835 0.1026865 0.1035564 0.103456 0.102194 0.1005977 0.09996741 0.1008203
 0.1023843 0.1035441 0.1040137 0.104313 0.1048466 0.1053171 0.1049858 0.1034658 0.1013858 0.1001712
 0.1008712 0.1031226 0.1053373 0.1059036 0.1043325 0.1015218 0.09900363 0.09784197 0.09821346 0.09984221
 0.1023853 0.1052745 0.1076229 0.1086715 0.1083145 0.1070813 0.1055615 0.1038583 0.1017884 0.09972401
 0.09882928 0.09997585 0.1026243 0.1052476 0.106743 0.107052 0.1065467 0.1052858 0.1031016 0.1003522
 0.09826487 0.09803367 0.09946281 0.1010041 0.1014012 0.1008679 0.1003938 0.1003897 0.1004594 0.1002199
 0.09987187 0.09990811 0.1004818 0.1012118 0.1015866 0.1014362 0.1009707 0.1004805 0.1000618 0.09956373
 0.09882322 0.09802771 0.09770488 0.09816657 0.09908802 0.0998349 0.1000913 0.09998551 0.09970333 0.09917988
 0.09821749 0.09687373 0.09564874 0.09513085 0.09542423 0.09606959 0.09653482 0.09661321 0.09636884 0.09593293
 0.09541637 0.09488163 0.09435882 0.09392104 0.09367159 0.09360422 0.09356503 0.09340557 0.09310243 0.09270202
 0.09222644 0.09167458 0.09107989 0.09052943 0.09011032 0.08983731 0.0896502 0.08947763 0.08926976 0.08898161
 0.08858486 0.08810666 0.08761408 0.087154 0.08673554 0.08636186 0.08604409 0.08577894 0.0855333 0.08526352
 0.08494881 0.08459862 0.08422925 0.08384691 0.08345807 0.08308117 0.08273858 0.08244053 0.08217543 0.08191761
 0.08165809 0.08142024 0.08121985 0.08101979 0.0807607 0.08043392 0.08009169 0.07978874 0.07953919 0.07932381
 0.07911342 0.07888155 0.07860992 0.0782989 0.0779821 0.07771823 0.07754834 0.07746428 0.07742819 0.0774044
 0.07736129 0.07727277 0.0771408 0.0769953 0.07685751 0.0767208 0.0765733 0.0764225 0.07629482 0.07621746
 0.07619435 0.0761975 0.07618965 0.07615213 0.0760881 0.07601725 0.07597201 0.07596987 0.07597931 0.07594483
 0.07585804 0.07577424 0.07574522 0.07575981 0.0757644 0.07572675 0.0756658 0.07562435 0.07562342 0.07564884
 0.07567649 0.07570074 0.07573569 0.07579261 0.07585745 0.07589446 0.07588142 0.07583819 0.07580728 0.07580918
 0.07583371 0.07587141 0.07593009 0.07601482 0.07610832 0.07618314 0.07622975 0.07626624 0.07631737 0.07638654
 0.07645346 0.07649864 0.07652284 0.07654375 0.0765797 0.07663761 0.07670885 0.07677594 0.0768259 0.07685814
 0.07687984 0.07689749 0.0769138 0.07693253 0.07696593 0.07703074 0.07712744 0.07722376 0.07727296 0.0772558
 0.07719993 0.07715406 0.07714574 0.07716496 0.0771832 0.07718289 0.07716868 0.07715654 0.07715766 0.0771732
 0.07719851 0.07722994 0.07727115 0.07733411 0.07742782 0.07754148 0.07764524 0.07771659 0.0777631 0.0778131
 0.0778873 0.07798617 0.07810058 0.07822442 0.07835855 0.07850847 0.07867662 0.07885346 0.07902284 0.07918097
 0.07934349 0.07953027 0.07974949 0.07999661 0.08025722 0.08050957 0.08073805 0.0809503 0.08117228 0.0814219
 0.08169467 0.08197733 0.08226602 0.08256648 0.08288356 0.08321697 0.08356541 0.08392988 0.08431202 0.08470985
 0.0851157 0.08552008 0.08592011 0.0863243 0.08674742 0.08719867 0.08767307 0.08815337 0.08862329 0.08908089
 0.08953778 0.09000431 0.09047998 0.09096169 0.0914548 0.09196737 0.09249674 0.09302993 0.09355769 0.09408154
 0.09460737 0.09513743 0.09567004 0.09620534 0.09674868 0.09730595 0.09787284 0.09843183 0.09896605 0.0994762
 0.09998056 0.1004987 0.1010373 0.1015873 0.1021285 0.1026428 0.103131 0.1036142 0.1041122 0.1046218
 0.1051262 0.1056221 0.1061255 0.1066488 0.1071783 0.1076843 0.108151 0.1085919 0.109033 0.1094845
 0.1099325 0.1103585 0.1107621 0.1111592 0.1115622 0.1119703 0.1123825 0.1128078 0.113252 0.1137016
 0.114133 0.1145365 0.1149213 0.1152977 0.1156648 0.1160161 0.1163499 0.1166743 0.117004 0.1173487
 0.1177029 0.1180537 0.1184002 0.1187557 0.1191303 0.1195209 0.119925 0.1203504 0.1208005 0.1212595
 0.1217078 0.1221518 0.1226185 0.1231152 0.1236084 0.1240582 0.1244615 0.1248457 0.1252317 0.1256252
 0.1260358 0.1264787 0.1269548 0.1274434 0.1279184 0.1283652 0.1287875 0.1292039 0.1296311 0.1300603
 0.1304604 0.1308092 0.1311162 0.13141 0.131711 0.1320201 0.1323247 0.1326091 0.1328611 0.1330705
 0.1332238 0.1333064 0.1333165 0.1332708 0.1331849 0.1330513 0.1328422 0.1325325 0.1321113 0.131572
 0.1309055 0.1301113 0.1292151 0.128277 0.1273839 0.1266299 0.1260915 0.1258096 0.1257851 0.1259819
 0.1263299 0.126734 0.1270941 0.1273226 0.1273524 0.127143 0.1266907 0.1260318 0.12523 0.1243555
 0.1234699 0.1226177 0.1218294 0.1211418 0.1206264 0.1203952 0.1205701 0.1212383 0.1224186 0.1240433
 0.1259568 0.1279493 0.129829 0.1314898 0.1329214 0.134166 0.1352704 0.1362707 0.1371981 0.1380786
 0.1389265 0.139745 0.1405345 0.1412967 0.1420291 0.1427211 0.1433553 0.1439148 0.1443942 0.144805
 0.1451719 0.1455193 0.1458632 0.146212 0.146563 0.1468885 0.1471327 0.1472355 0.1471684 0.1469554
 0.1466743 0.1464566 0.1464812 0.14694 0.147961 0.1495285 0.1514693 0.153529 0.1554826 0.157199
 0.1586381 0.1598206 0.1608011 0.1616448 0.1624053 0.1631143 0.163785 0.1644214 0.1650267 0.1656083
 0.1661768 0.1667403 0.1673023 0.1678624 0.1684172 0.1689625 0.1694973 0.1700277 0.1705628 0.1711054
 0.1716478 0.172177 0.1726889 0.1731932 0.1737013 0.1742118 0.1747125 0.1751958 0.1756657 0.1761329
 0.1766057 0.1770866 0.1775696 0.1780411 0.17849 0.1789175 0.1793348 0.1797518 0.1801695 0.1805843
 0.1809944 0.1814009 0.1818045 0.1822043 0.1825994 0.1829909 0.1833793 0.1837625 0.1841392 0.1845127
 0.1848884 0.1852687 0.1856519 0.1860357 0.1864204 0.1868087 0.1872035 0.1876042 0.188005 0.1883997
 0.1887888 0.18918 0.1895799 0.1899876 0.190398 0.1908068 0.1912128 0.1916164 0.1920185 0.1924217
 0.1928279 0.1932361 0.1936413 0.1940398 0.1944329 0.1948258 0.1952215 0.1956189 0.1960149 0.1964092
 0.1968046 0.1972038 0.197605 0.1980029 0.1983938 0.1987783 0.199161 0.1995459 0.1999351 0.2003281
 0.2007227 0.2011174 0.2015125 0.2019112 0.2023172 0.2027321 0.2031522 0.203572 0.2039883 0.2044015
 0.204815 0.2052321 0.2056535 0.2060758 0.2064937 0.2069055 0.2073121 0.2077151 0.2081176 0.2085248
 0.2089383 0.2093547 0.2097698 0.2101821 0.2105906 0.2109943 0.2113928 0.2117867 0.2121772 0.2125668
 0.2129582 0.2133524 0.2137489 0.2141455 0.214538 0.2149231 0.2153028 0.2156824 0.2160657 0.2164533
 0.2168437 0.2172335 0.2176196 0.2180033 0.218388 0.218774 0.219159 0.2195415 0.2199214 0.2203005
 0.2206829 0.221071 0.2214623 0.2218528 0.2222415 0.2226286 0.2230152 0.2234033 0.2237924 0.2241791
 0.2245629 0.2249485 0.2253388 0.2257316 0.2261243 0.2265166 0.2269093 0.2273065 0.227713 0.2281272
 0.2285429 0.2289578 0.229373 0.2297859 0.2301916 0.2305886 0.2309785 0.2313645 0.2317521 0.2321451
 0.2325436 0.2329465 0.2333514 0.2337532 0.2341507 0.2345507 0.2349591 0.2353729 0.2357887 0.2362069
 0.2366273 0.2370484 0.2374725 0.2379017 0.2383332 0.2387652 0.2392002 0.2396381 0.2400763 0.2405162
 0.2409584 0.2413996 0.2418396 0.2422825 0.2427294 0.2431796 0.2436356 0.2440967 0.2445548 0.2450058
 0.2454531 0.2458976 0.2463391 0.2467833 0.2472348 0.2476896 0.2481442 0.2485994 0.2490537 0.2495064
 0.2499624 0.2504219 0.2508764 0.2513243 0.251774 0.2522292 0.2526875 0.2531476 0.2536059 0.2540561
 0.2545013 0.2549495 0.2553971 0.2558373 0.2562736 0.2567092 0.2571404 0.2575695 0.2580006 0.2584208
 0.2588012 0.2590841 0.2591164 0.2585685 0.2568836 0.2532841 0.2469214 0.2372116 0.2241788 0.2085614
 0.1916111 0.1747037 0.1589605 0.1450905 0.1334751 0.1243155 0.1177333 0.1138614 0.1129175 0.1153118
 0.1217898 0.1329894 0.1478202 0.1620672 0.1699711 0.1685858 0.1604422 0.1512518 0.1452605 0.1431669
 0.1435508 0.144996 0.1469329 0.1494914 0.1530158 0.1575575 0.1628177 0.1686371 0.175286 0.1830428
 0.1916456 0.2003838 0.2086924 0.2165146 0.2240951 0.2315424 0.2386593 0.2451307 0.2507671 0.2555676
 0.2596556 0.2632021 0.2663619 0.2692382 0.2718974 0.2743739 0.276626 0.278517 0.2798944 0.2807131
 0.28109 0.2812479 0.2813905 0.2816181 0.2819458 0.28237 0.2828899 0.2834941 0.2841627 0.2848775
 0.2856198 0.2863718 0.2871253 0.2878734 0.2886013 0.2892965 0.2899588 0.2905914 0.2911968 0.2917812
 0.2923493 0.2929013 0.293441 0.2939765 0.2945082 0.2950292 0.2955393 0.2960413 0.2965296 0.2969953
 0.2974365 0.2978572 0.2982653 0.298672 0.2990821 0.2994893 0.2998872 0.3002777 0.3006641 0.3010474
 0.3014309 0.301818 0.3022072 0.3025971 0.3029887 0.3033791 0.3037633 0.3041421 0.3045214 0.3049057
 0.3052962 0.3056926 0.3060893 0.3064796 0.306863 0.3072448 0.3076335 0.3080394 0.3084671 0.308907
 0.3093432 0.3097718 0.3102019 0.3106402 0.3110858 0.3115335 0.3119782 0.3124189 0.3128597 0.3133005
 0.3137312 0.3141399 0.3145266 0.3149015 0.3152781 0.3156629 0.3160504 0.3164297 0.3168019 0.3171804
 0.3175752 0.3179831 0.3183947 0.3188027 0.3192055 0.3196118 0.3200358 0.3204823 0.3209425 0.3214067
 0.3218699 0.3223286 0.3227838 0.3232433 0.3237097 0.3241727 0.3246229 0.3250679 0.3255308 0.326032
 0.3265697 0.3271154 0.3276366 0.3281261 0.3286031 0.3290898 0.3295958 0.3301113 0.3306014 0.3310303
 0.3314121 0.3318192 0.3323181 0.3329068 0.3335267 0.3341205 0.3346692 0.3351851 0.3356856 0.3361745
 0.3366396 0.3370677 0.3374707 0.3378972 0.3384 0.3389792 0.3395753 0.3401309 0.3406382 0.3411168
 0.3415824 0.3420451 0.3424945 0.3428758 0.343143 0.3433614 0.3436984 0.3442658 0.3449975 0.3457196
 0.3463242 0.3468364 0.3473241 0.3478084 0.3482746 0.3486913 0.3489683 0.3490003 0.3488564 0.3488536
 0.3493006 0.3501874 0.3512161 0.3521047 0.3527753 0.3532958 0.3537554 0.3542007 0.3546056 0.3548756
 0.3549495 0.3549417 0.3551224 0.3556721 0.356479 0.3572608 0.357862 0.3583386 0.3587983 0.3592757
 0.3597184 0.3599671 0.3598223 0.3593216 0.3589277 0.359229 0.3603684 0.3618774 0.3631428 0.3639494
 0.3644792 0.3648827 0.3650567 0.3648375 0.3642059 0.3632894 0.3624201 0.3621918 0.3630731 0.3648051
 0.3665057 0.3675548 0.3681276 0.3687471 0.3696019 0.3704678 0.3710735 0.3713453 0.3713594 0.3711775
 0.370815 0.370425 0.3704129 0.3711506 0.3725421 0.374042 0.3751687 0.3758863 0.3763871 0.3765331
 0.3757076 0.3735464 0.3708984 0.3696139 0.3709003 0.3740513 0.3772111 0.3792101 0.3802054 0.3808125
 0.381304 0.3815323 0.3809158 0.3786311 0.3747331 0.3711324 0.3704355 0.3733786 0.3780047 0.3815582
 0.3825869 0.3812411 0.378583 0.376096 0.3751555 0.3762791 0.3789097 0.3819839 0.3845707 0.3861252
 0.3865276 0.3860328 0.3851627 0.3845619 0.3845938 0.384798 0.3841787 0.3824946 0.3807245 0.3795609
 0.3781423 0.375461 0.3726078 0.3720973 0.3747571 0.3785309 0.3808619 0.3813092 0.381094 0.3806337
 0.3785331 0.3734243 0.3664997 0.3614775 0.3614138 0.3656462 0.370446 0.3726738 0.3722532 0.3711107
 0.3704551 0.3694984 0.3666353 0.3617136 0.3569105 0.3547867 0.3554285 0.3563359 0.3552005 0.3515527
 0.3455681 0.3374398 0.3292093 0.3251711 0.3281044 0.3358245 0.3431192 0.3462649 0.3442116 0.3370192
 0.3261853 0.3162186 0.3126279 0.3168444 0.3245413 0.3298079 0.3298026 0.3248805 0.3161846 0.3051189
 0.2945759 0.2885786 0.2896895 0.2969304 0.3060131 0.3112324 0.3083762 0.298071 0.2865697 0.2810649
 0.2829881 0.287108 0.2877211 0.284033 0.2789894 0.2752509 0.2737079 0.2740235 0.2750591 0.2757548
 0.2759366 0.2748725 0.2697908 0.2589371 0.246172 0.2389276 0.2405257 0.2474891 0.255189 0.2624958
 0.2692298 0.2728405 0.2711464 0.2667204 0.2652574 0.2695047 0.2766447 0.2818702 0.2832302 0.2824095
 0.2815746 0.2807322 0.2788296 0.2766199 0.2767069 0.2802891 0.2852731 0.2885481 0.2891214 0.2881216
 0.2867004 0.2850845 0.2831515 0.2808872 0.2783416 0.27565 0.2730248 0.2705212 0.268002 0.2654146
 0.2627196 0.2593166 0.2541046 0.246957 0.2399735 0.2360703 0.2359764 0.2377943 0.2397934 0.2416974
 0.2423331 0.2386582 0.2297468 0.2203702 0.2177196 0.2244539 0.236554 0.2477661 0.2544711 0.256137
 0.2532726 0.2472465 0.2419861 0.2432816 0.2542727 0.2721411 0.2906467 0.3054152 0.3155882 0.3214015
 0.3225741 0.3196413 0.3154058 0.3138365 0.3173742 0.3253433 0.3344747 0.3403966 0.3395396 0.3321089
 0.3240947 0.3236415 0.332933 0.3452633 0.3524218 0.3532868 0.3526416 0.3535569 0.3547364 0.3547429
 0.3549773 0.3573033 0.3609726 0.3632504 0.3618891 0.3560936 0.3464746 0.3356466 0.3278148 0.3255222
 0.32693 0.3279843 0.3266064 0.3227876 0.3160492 0.3064733 0.2978384 0.295615 0.3007398 0.3081906
 0.3126973 0.3136277 0.3133895 0.3130329 0.311001 0.3057317 0.2984066 0.2924361 0.2901199 0.2904959
 0.2909716 0.2901767 0.2882036 0.2849717 0.2801788 0.2749615 0.2720456 0.2733447 0.277921 0.2828926
 0.2860712 0.2872971 0.2876049 0.2878889 0.2884236 0.2890317 0.2895247 0.2903192 0.292465 0.2964957
 0.3014182 0.3055699 0.3084796 0.3112187 0.3148427 0.3190751 0.3227299 0.325043 0.3263742 0.3277977
 0.3301474 0.3333233 0.3363644 0.338269 0.3389492 0.3394133 0.3408419 0.3434457 0.3463776 0.3487147
 0.3502544 0.3513764 0.3524894 0.3537125 0.3548266 0.3554691 0.3556101 0.3558462 0.3569453 0.359027
 0.3613934 0.3632091 0.364169 0.3644777 0.3644023 0.3640164 0.3633143 0.3624145 0.3615671 0.3609802
 0.3606815 0.3605522 0.3604548 0.3603154 0.3601332 0.3599652 0.3598948 0.3599848 0.3602614 0.3607392
 0.3614207 0.3622537 0.3631291 0.3639486 0.3646668 0.3652448 0.3656031 0.36565 0.3653329 0.3646369
 0.3635534 0.3620746 0.360199 0.3579138 0.3551989 0.3521411 0.3491178 0.3468307 0.3460146 0.3469743
 0.3493451 0.3523027 0.3550329 0.35708 0.3583841 0.3591082 0.3594543 0.359573 0.3595437 0.3593856
 0.3590871 0.3586414 0.3580632 0.357381 0.3566306 0.3558594 0.3551236 0.3544709 0.3539268 0.3534944
 0.3531677 0.3529434 0.352823 0.3528019 0.3528571 0.3529396 0.3529731 0.3528673 0.3525469 0.3519763
 0.3511547 0.3500845 0.3487445 0.3470899 0.3450853 0.3427308 0.3400439 0.3370345 0.3337553 0.3303883
 0.3272083 0.3243871 0.3218479 0.3193408 0.3166311 0.3135856 0.3101283 0.3062012 0.3017988 0.2970238
 0.2921036 0.2873512 0.2830806 0.2795148 0.276732 0.2746645 0.2731311 0.271892 0.2707143 0.2694119
 0.2678316 0.2658187 0.2632141 0.2598915 0.2557904 0.2509223 0.2453645 0.2392636 0.2328337 0.2263246
 0.2199645 0.2139203 0.2082958 0.2031562 0.1985469 0.1944969 0.1910159 0.1881009 0.185754 0.183994
 0.1828461 0.1823214 0.1824028 0.1830413 0.1841569 0.1856458 0.18739 0.1892736 0.1912152 0.1932065
 0.1953094 0.1975973 0.2000889 0.2027372 0.2054605 0.2081657 0.2107416 0.2130544 0.2149764 0.2164388
 0.2174705 0.2181929 0.2187757 0.2193823 0.2201213 0.2210146 0.2219889 0.2228981 0.2235701 0.2238624
 0.2237101 0.2231497 0.2223141 0.2214037 0.2206479 0.2202639 0.2204273 0.2212591 0.2228293 0.2251703
 0.2282917 0.2321817 0.2367931 0.2420277 0.2477387 0.2537561 0.2599218 0.2661129 0.2722378 0.2782194
 0.2839826 0.2894572 0.2945814 0.2992967 0.3035388 0.3072301 0.3102823 0.3126099 0.3141488 0.3148765
 0.3148344 0.31414 0.3129696 0.3115138 0.3099341 0.3083392 0.3067847 0.3052891 0.3038529 0.3024714
 0.3011497 0.2999236 0.2988609 0.2980295 0.2974602 0.2971326 0.2969779 0.2968881 0.296741 0.2964372
 0.2959242 0.2951933 0.2942596 0.2931427 0.2918617 0.2904413 0.2889088 0.2872789 0.2855459 0.2836838
 0.2816488 0.2793918 0.2768869 0.2741534 0.2712463 0.2682264 0.2651268 0.2619417 0.2586583 0.2553131
 0.2520078 0.2488563 0.24592 0.2431932 0.2406358 0.2382115 0.2359014 0.2336902 0.2315519 0.2294618
 0.2274124 0.2254076 0.2234545 0.2215718 0.2197967 0.2181727 0.2167436 0.2155558 0.2146518 0.2140564
 0.2137669 0.2137499 0.2139486 0.2143059 0.2147682 0.2152564 0.2156556 0.2158633 0.2158483 0.2156612
 0.215394 0.2151222 0.2148696 0.2146204 0.2143443 0.2139904 0.2134687 0.2126651 0.2114717 0.2097976
 0.2075821 0.2048247 0.2015974 0.198039 0.1943533 0.1907939 0.1876174 0.1850404 0.1832008 0.1821006
 0.1815848 0.181423 0.1814326 0.1815338 0.1817193 0.1819787 0.1822301 0.1823539 0.1823372 0.1823535
 0.182646 0.1833369 0.1843571 0.185519 0.1866369 0.1876076 0.1884011 0.1889986 0.1893763 0.1895403
 0.1895311 0.1893974 0.1891893 0.18895 0.1886848 0.1883652 0.1879655 0.1874619 0.1868194 0.1860198
 0.1850778 0.1840065 0.1828037 0.1814703 0.1799966 0.1783624 0.1766267 0.1750011 0.1737828 0.1732049
 0.1733153 0.1739452 0.1748169 0.1757246 0.1765746 0.1772729 0.1777247 0.1780167 0.1784919 0.1795307
 0.1812367 0.1833299 0.1853328 0.1868654 0.1877681 0.1880198 0.1876647 0.1868025 0.1855166 0.1838193
 0.1817548 0.179475 0.1771286 0.1747874 0.1725267 0.1704426 0.1685868 0.1669828 0.1656361 0.164543
 0.1637787 0.1631028 0.160997 0.1551934 0.145904 0.1379187 0.1369925 0.1436428 0.1524297 0.1577894
 0.1587508 0.1576212 0.1563316 0.1553199 0.154552 0.1541317 0.1541162 0.1543724 0.1546422 0.1546722
 0.154365 0.1537575 0.1527609 0.1509157 0.1473689 0.14118 0.1320163 0.120798 0.1095034 0.1001157
 0.09364015 0.08988827 0.08789949 0.08661988 0.08551326 0.0847387 0.08478312 0.08595555 0.0882152 0.0913368
 0.09507558 0.09913369 0.1030829 0.1064862 0.1091401 0.1111127 0.1125332 0.1134373 0.1138261 0.1137564
 0.1133314 0.1126618 0.1118354 0.1108765 0.1097414 0.1083945 0.1069041 0.1054627 0.1042982 0.1035268
 0.1030858 0.1028295 0.1026689 0.1025897 0.1025887 0.1026477 0.1027475 0.1028791 0.1030574 0.1033165
 0.1036603 0.1040263 0.1043282 0.1045193 0.1046058 0.1046096 0.1045262 0.1043294 0.1040412 0.1037584
 0.103528 0.1032146 0.1025986 0.101643 0.1006108 0.09989794 0.099755 0.1001321 0.100744 0.1012829
 0.1016002 0.1017261 0.1017556 0.1017124</values></Ydata></ScSm><ScRf><Ydata ylabel="Single channel"><values byteorder="INTEL" format="FLOAT32" numvalues="1820"> 0.06965018 0.06977291 0.06987759 0.06996933 0.07005671 0.07015083 0.07026134 0.07038938 0.07052669 0.07066157
 0.07078581 0.07089783 0.07099894 0.07108666 0.07115996 0.07123239 0.07132782 0.07145633 0.07160163 0.07173492
 0.07183729 0.07191432 0.07199453 0.07210353 0.07222979 0.0723239 0.07234326 0.07229775 0.0722457 0.07224204
 0.07230128 0.07242364 0.07262899 0.07290652 0.07314134 0.07318781 0.07305202 0.0729177 0.07294299 0.07310191
 0.07326003 0.07332283 0.07327223 0.07315554 0.07310681 0.07330447 0.07380891 0.07443048 0.07478912 0.07453547
 0.07358456 0.07223873 0.07111158 0.07080626 0.07148153 0.07267445 0.07364674 0.07397836 0.0737931 0.07344265
 0.07313992 0.07295561 0.07298145 0.07331347 0.07389806 0.0744701 0.07465681 0.07422294 0.07333612 0.07253639
 0.07229523 0.07265032 0.0733696 0.07423142 0.07481696 0.0743052 0.07220123 0.06943426 0.06806362 0.06937648
 0.07254182 0.07547435 0.07673094 0.07627244 0.0748617 0.073392 0.07264842 0.07303721 0.07432259 0.07586253
 0.07711765 0.07779023 0.07768866 0.07682138 0.07557752 0.07455928 0.07424416 0.0748474 0.07623781 0.07780467
 0.07869969 0.07850425 0.07754487 0.07647315 0.0757858 0.07579897 0.07667522 0.07823056 0.07994989 0.08136468
 0.08229634 0.08275832 0.08284364 0.08270337 0.08247118 0.08224395 0.08218142 0.08242429 0.08281341 0.08292376
 0.08253701 0.08193769 0.08162537 0.08179995 0.08219098 0.08238479 0.08223587 0.08178843 0.08085226 0.0790946
 0.07672128 0.07458588 0.07335575 0.07304303 0.07354629 0.0749317 0.07677574 0.077967 0.07782493 0.07701853
 0.07684368 0.07782227 0.07937464 0.08066193 0.08140109 0.08190896 0.08260638 0.08354134 0.0842741 0.08420409
 0.08318547 0.08190749 0.08143789 0.08219017 0.08351889 0.08450884 0.08493438 0.08522676 0.08571345 0.08614361
 0.08591059 0.0847048 0.08305353 0.08213018 0.08278576 0.08470689 0.08658256 0.08709331 0.08584756 0.08359416
 0.08159809 0.08073197 0.08113697 0.08258718 0.08480267 0.08731191 0.08937618 0.09036411 0.09018792 0.08928736
 0.08815035 0.08685799 0.08525823 0.08367538 0.08309659 0.0842488 0.08666512 0.08905645 0.09049958 0.0909481
 0.09070992 0.08982422 0.08814491 0.08598796 0.0844194 0.08446398 0.08593602 0.08748916 0.08804715 0.08781035
 0.08763957 0.08788364 0.08819163 0.08823305 0.08819322 0.08850925 0.08930933 0.09024606 0.09086306 0.09101401
 0.0908913 0.09075484 0.09068634 0.09054454 0.09018403 0.08978461 0.089832 0.09060581 0.0918022 0.09283838
 0.09342493 0.09367865 0.09376852 0.09363104 0.09308022 0.09217414 0.09139183 0.09129374 0.09197623 0.09299752
 0.0938454 0.0943185 0.09447649 0.09444623 0.09433651 0.0942104 0.09409967 0.09407686 0.09424304 0.09459107
 0.09496607 0.09521721 0.09532058 0.09532474 0.09525205 0.09509994 0.09490284 0.0947511 0.09473516 0.09487359
 0.09510903 0.0953661 0.09558389 0.09570742 0.09570649 0.09561504 0.09550923 0.09543885 0.09540881 0.09542032
 0.09548941 0.09561586 0.09576137 0.09587642 0.0959402 0.09596351 0.09596097 0.09593756 0.09590152 0.09587465
 0.09588319 0.09594018 0.09603201 0.09612637 0.09620876 0.09630162 0.09642281 0.09653778 0.09658954 0.09657088
 0.09653492 0.09653717 0.09659182 0.09667832 0.09676555 0.09682353 0.09682766 0.09677352 0.09669849 0.09667342
 0.09675178 0.09693125 0.09717195 0.09742954 0.09765956 0.09782523 0.09792674 0.0980016 0.09807959 0.09815545
 0.09821357 0.09826215 0.09833547 0.09846666 0.09865534 0.09886286 0.09904493 0.09918314 0.09928419 0.09937118
 0.09947982 0.09962883 0.09978304 0.09988177 0.09991784 0.09995478 0.1000494 0.100185 0.1002995 0.1003592
 0.100389 0.1004358 0.1005195 0.1006226 0.1007195 0.1008074 0.1009064 0.1010307 0.101158 0.101237
 0.1012369 0.1011855 0.1011425 0.1011392 0.1011653 0.1012081 0.1012746 0.1013666 0.1014569 0.1015082
 0.1015112 0.101495 0.101494 0.1015101 0.1015146 0.101485 0.1014285 0.101372 0.1013367 0.1013242
 0.1013193 0.1013016 0.1012598 0.1011965 0.1011219 0.1010456 0.1009714 0.1009032 0.1008566 0.1008553
 0.1008987 0.100935 0.1008907 0.1007395 0.1005308 0.1003423 0.1002137 0.1001271 0.1000384 0.09991764
 0.09976698 0.09961114 0.09947328 0.09935755 0.09925127 0.09914201 0.09903449 0.09895164 0.09891184 0.09889966
 0.09886797 0.09878069 0.09864865 0.09851441 0.09840988 0.09833902 0.09829125 0.09825464 0.09822202 0.09819674
 0.09818824 0.0981941 0.09819701 0.09818636 0.09817339 0.09817906 0.09821848 0.09829679 0.09840244 0.0985022
 0.09856344 0.09858948 0.09861879 0.09868323 0.09878065 0.09889176 0.09900822 0.09913456 0.09927377 0.09942362
 0.09958485 0.09976419 0.09996693 0.100189 0.1004169 0.1006359 0.1008428 0.1010504 0.1012784 0.1015364
 0.1018165 0.1021004 0.102375 0.1026417 0.1029109 0.1031885 0.1034693 0.103749 0.1040353 0.1043401
 0.1046623 0.1049869 0.1053022 0.1056096 0.1059177 0.106233 0.1065573 0.1068925 0.1072441 0.1076169
 0.1080001 0.1083637 0.1086798 0.1089514 0.1092128 0.1095009 0.1098287 0.1101796 0.1105186 0.110817
 0.111079 0.1113396 0.1116271 0.1119345 0.1122369 0.1125339 0.1128549 0.1132193 0.1136009 0.1139425
 0.1142097 0.1144247 0.1146409 0.1148866 0.1151423 0.1153749 0.1155819 0.1157894 0.1160151 0.116252
 0.1164912 0.1167407 0.1170104 0.1172873 0.1175448 0.1177714 0.117978 0.1181767 0.1183626 0.1185184
 0.1186335 0.1187193 0.118808 0.1189269 0.1190737 0.1192234 0.119361 0.119498 0.1196529 0.1198315
 0.1200329 0.1202596 0.1205105 0.1207702 0.121023 0.1212773 0.1215575 0.1218639 0.1221567 0.1223965
 0.1225881 0.1227683 0.1229607 0.1231657 0.1233873 0.1236414 0.123933 0.1242428 0.1245427 0.1248191
 0.1250834 0.1253627 0.1256728 0.1259931 0.1262778 0.1264986 0.1266727 0.1268446 0.1270504 0.127299
 0.1275771 0.1278632 0.1281391 0.1283899 0.1285972 0.1287449 0.1288373 0.1289016 0.1289594 0.1289964
 0.1289721 0.1288533 0.1286293 0.1282974 0.127848 0.127275 0.1266005 0.1258872 0.1252275 0.1247155
 0.1244209 0.1243786 0.1245894 0.1250208 0.1256053 0.1262488 0.1268503 0.1273206 0.1275876 0.127604
 0.1273607 0.1268912 0.1262529 0.1255038 0.1246953 0.1238723 0.1230719 0.1223335 0.1217278 0.1213693
 0.1213876 0.1218782 0.1228651 0.1242799 0.1259586 0.1276824 0.1292637 0.1306182 0.1317624 0.1327538
 0.133641 0.1344555 0.1352211 0.1359535 0.1366533 0.1373127 0.1379297 0.1385093 0.1390511 0.1395422
 0.1399637 0.1403009 0.1405494 0.1407168 0.1408185 0.1408699 0.1408849 0.1408809 0.1408696 0.1408363
 0.1407347 0.1405131 0.1401477 0.1396596 0.1391188 0.1386475 0.1384128 0.1385851 0.1392628 0.1404088
 0.1418578 0.1433961 0.144848 0.1461097 0.147139 0.1479438 0.1485722 0.1490872 0.149538 0.1499505
 0.1503372 0.1507052 0.15106 0.1514064 0.1517488 0.15209 0.1524323 0.152777 0.1531206 0.1534553
 0.1537787 0.1541006 0.1544351 0.1547864 0.1551438 0.1554913 0.1558245 0.1561555 0.1564981 0.1568492
 0.1571914 0.1575134 0.157821 0.1581299 0.1584527 0.1587918 0.1591362 0.1594674 0.1597735 0.1600596
 0.1603398 0.1606236 0.1609116 0.1612005 0.1614873 0.1617691 0.1620454 0.1623198 0.162599 0.162886
 0.1631744 0.1634513 0.1637095 0.1639554 0.164203 0.1644585 0.1647156 0.1649658 0.1652094 0.1654557
 0.165714 0.1659846 0.1662574 0.1665209 0.1667716 0.1670151 0.1672595 0.1675087 0.1677615 0.1680142
 0.1682639 0.1685115 0.1687611 0.1690148 0.1692699 0.1695209 0.169766 0.1700081 0.1702509 0.1704943
 0.1707366 0.1709781 0.1712221 0.1714718 0.1717281 0.1719872 0.1722415 0.1724847 0.1727172 0.1729444
 0.1731698 0.1733952 0.1736234 0.1738579 0.1740991 0.1743449 0.1745927 0.1748407 0.1750878 0.1753343
 0.1755783 0.1758164 0.1760485 0.1762803 0.1765181 0.1767617 0.1770065 0.1772479 0.1774855 0.1777207
 0.1779544 0.1781874 0.1784223 0.1786604 0.1788991 0.179134 0.1793662 0.179601 0.1798399 0.1800784
 0.1803123 0.1805421 0.1807707 0.1810009 0.1812336 0.1814666 0.1816973 0.1819259 0.1821558 0.1823893
 0.1826255 0.1828618 0.1830978 0.1833358 0.1835775 0.18382 0.1840594 0.1842971 0.1845381 0.1847826
 0.1850245 0.185258 0.1854834 0.1857082 0.1859401 0.1861791 0.1864185 0.1866541 0.1868893 0.1871289
 0.1873739 0.1876221 0.1878709 0.1881185 0.1883649 0.1886112 0.1888571 0.189102 0.1893487 0.1896013
 0.1898604 0.1901236 0.1903884 0.1906527 0.190915 0.1911745 0.191428 0.191671 0.191904 0.192133
 0.192362 0.1925896 0.1928141 0.1930361 0.193257 0.1934784 0.1937023 0.1939292 0.1941602 0.1943984
 0.1946431 0.1948878 0.1951292 0.19537 0.1956127 0.1958582 0.1961077 0.1963612 0.1966153 0.1968675
 0.1971174 0.1973645 0.1976109 0.1978629 0.1981231 0.1983872 0.1986528 0.1989214 0.1991904 0.1994546
 0.1997147 0.1999751 0.2002368 0.2004999 0.2007656 0.2010322 0.201299 0.2015699 0.2018446 0.202117
 0.2023854 0.2026536 0.2029215 0.2031864 0.2034509 0.2037173 0.2039836 0.2042527 0.2045317 0.2048187
 0.2051042 0.2053838 0.2056569 0.2059234 0.206188 0.2064558 0.2067243 0.2069914 0.2072623 0.2075364
 0.2078043 0.2080638 0.2083203 0.20857 0.208794 0.2089432 0.2088872 0.2083532 0.2068905 0.2038762
 0.1986358 0.1907082 0.1801178 0.1674592 0.1537385 0.1400637 0.1273394 0.1161373 0.1067617 0.09936768
 0.09404578 0.09089863 0.09010328 0.09199442 0.09717007 0.1061317 0.1179886 0.1293515 0.1356097 0.1344219
 0.1278364 0.120435 0.1156084 0.1139008 0.1141684 0.1152814 0.1167894 0.1187947 0.1215658 0.1251385
 0.1292749 0.1338528 0.1390929 0.1452197 0.1520228 0.1589329 0.1654963 0.1716661 0.1776363 0.1834931
 0.1890808 0.1941521 0.1985619 0.2023138 0.2055065 0.2082723 0.2107281 0.2129518 0.2149958 0.2168899
 0.2186028 0.2200271 0.2210442 0.2216196 0.2218453 0.2218964 0.2219368 0.2220498 0.2222492 0.2225286
 0.2228812 0.2232929 0.2237485 0.2242401 0.2247595 0.2252936 0.2258314 0.2263646 0.2268822 0.2273759
 0.2278438 0.2282854 0.2287026 0.2291036 0.229495 0.2298749 0.2302416 0.2306003 0.2309562 0.2313087
 0.2316567 0.2319982 0.2323273 0.2326387 0.2329318 0.2332081 0.2334713 0.2337289 0.2339851 0.234238
 0.2344878 0.2347391 0.2349935 0.2352484 0.2355022 0.2357529 0.2359947 0.2362264 0.2364542 0.236684
 0.2369169 0.2371536 0.2373943 0.2376361 0.2378767 0.238118 0.2383612 0.2386029 0.2388386 0.2390683
 0.2392992 0.2395439 0.2398089 0.2400854 0.2403585 0.2406238 0.2408874 0.2411549 0.241427 0.2417024
 0.2419783 0.2422529 0.2425285 0.242806 0.2430774 0.2433294 0.2435569 0.2437695 0.2439845 0.2442137
 0.2444559 0.244702 0.2449474 0.2451948 0.2454453 0.2456954 0.2459421 0.2461851 0.2464276 0.2466783
 0.2469467 0.2472319 0.2475219 0.2478071 0.2480874 0.2483664 0.2486478 0.2489357 0.2492293 0.2495198
 0.2497982 0.2500691 0.2503507 0.250662 0.2510035 0.2513527 0.2516832 0.2519894 0.2522866 0.2525938
 0.2529206 0.2532572 0.253571 0.2538304 0.2540483 0.2542865 0.2545982 0.2549791 0.255381 0.2557627
 0.2561135 0.2564416 0.2567548 0.2570528 0.2573293 0.2575782 0.2578096 0.2580608 0.2583753 0.2587563
 0.2591558 0.2595217 0.2598417 0.2601336 0.2604175 0.2607043 0.2609799 0.2611964 0.2613224 0.2614176
 0.261614 0.2619906 0.2624875 0.2629699 0.2633609 0.2636849 0.2639936 0.2643009 0.264596 0.2648577
 0.2650167 0.2649888 0.2648254 0.264772 0.265067 0.2657001 0.2664384 0.267064 0.2675192 0.2678575
 0.2681474 0.2684241 0.2686676 0.2688075 0.2688003 0.2687349 0.2688148 0.2691728 0.2697209 0.2702448
 0.2706286 0.2709188 0.2712032 0.2715116 0.2718017 0.2719448 0.2717823 0.271342 0.2709793 0.2711456
 0.2719513 0.2730393 0.2739413 0.2744932 0.2748354 0.2750871 0.2751732 0.2749686 0.2744529 0.2737173
 0.2730127 0.2727917 0.2734122 0.2746799 0.2759282 0.2766871 0.2770867 0.2775204 0.2781318 0.2787535
 0.2791802 0.2793538 0.2793291 0.2791514 0.2788326 0.2784927 0.2784435 0.2789671 0.2799882 0.2810923
 0.2819152 0.2824306 0.2827851 0.2828743 0.2822318 0.2805808 0.2785598 0.2775632 0.2785038 0.2808545
 0.2832199 0.2847164 0.2854578 0.2859056 0.2862655 0.2864299 0.2859659 0.284257 0.2813416 0.2786514
 0.2781433 0.2803693 0.2838566 0.2865329 0.2873062 0.2862918 0.2842931 0.2824335 0.2817515 0.2826327
 0.2846496 0.2869956 0.2889701 0.2901705 0.2905136 0.2901909 0.2895896 0.2891943 0.289281 0.2895
 0.2890953 0.2878874 0.2866209 0.2858195 0.2848283 0.2828865 0.280825 0.280549 0.2826803 0.2856558
 0.2875404 0.2880087 0.2879918 0.2878047 0.2863838 0.2826873 0.2776221 0.2740214 0.2742191 0.2777163
 0.281673 0.2837007 0.283755 0.2833213 0.2833309 0.2831769 0.2816168 0.2785273 0.2755943 0.2748034
 0.2762121 0.2778643 0.27796 0.2761226 0.27245 0.2670559 0.2615584 0.2593925 0.2627758 0.2699451
 0.2767145 0.2800896 0.2792005 0.2740554 0.2658548 0.2582977 0.2559192 0.259906 0.2667105 0.2714841
 0.271902 0.2682668 0.2615338 0.2528914 0.2447816 0.2405975 0.242521 0.249764 0.2587169 0.2645101
 0.2634991 0.2561844 0.2479405 0.2449719 0.2484786 0.2538608 0.2561283 0.2545963 0.2518444 0.2502036
 0.2504722 0.2523523 0.2547826 0.2567759 0.2581813 0.2582929 0.2544541 0.2449991 0.2336342 0.2274672
 0.2296739 0.2369473 0.2448968 0.2524657 0.259454 0.263347 0.261997 0.2578712 0.2564671 0.2604412
 0.267081 0.2717692 0.2726696 0.2714707 0.2703218 0.2692778 0.2673629 0.2653295 0.2656891 0.2695825
 0.2749875 0.2789158 0.2804106 0.2805374 0.2803684 0.2800815 0.2795245 0.278666 0.2775513 0.2763191
 0.2751905 0.2742282 0.2732879 0.2722995 0.2712005 0.2693288 0.2654746 0.2594565 0.2534663 0.250553
 0.2514193 0.2539849 0.256375 0.2582761 0.2584367 0.2536408 0.2429144 0.2312921 0.2263516 0.2308877
 0.2406882 0.249263 0.2529721 0.2514723 0.245522 0.2366285 0.2285871 0.2268173 0.2341862 0.24801
 0.2624755 0.2735619 0.2805607 0.2838069 0.2831386 0.2790605 0.2740378 0.2715149 0.2735509 0.2794704
 0.2863777 0.290501 0.2888356 0.2816218 0.2739822 0.2728183 0.2799664 0.2897578 0.2952775 0.2956043
 0.294785 0.2954113 0.2964076 0.2965923 0.2971611 0.2996811 0.3035194 0.306374 0.306336 0.3026904
 0.2959019 0.2881664 0.2830616 0.2827154 0.2854545 0.2877217 0.2877222 0.2854542 0.2804757 0.2728808
 0.2660959 0.2650392 0.2705311 0.278049 0.2828819 0.284518 0.2851804 0.2858334 0.2850484 0.2813947
 0.2759773 0.2719607 0.2714663 0.2735704 0.275824 0.2769061 0.2768288 0.2754015 0.2722392 0.268409
 0.2665812 0.2686566 0.2737306 0.2789733 0.2822269 0.2833235 0.2832727 0.2829587 0.2826635 0.2822212
 0.2814515 0.2807668 0.281202 0.2833106 0.2862007 0.2883491 0.2893626 0.2903018 0.2921923 0.2947719
 0.2968927 0.2977922 0.2977642 0.2977836 0.2986257 0.3002294 0.3017567 0.3023328 0.3019068 0.301412
 0.3019269 0.3036478 0.3058133 0.3075789 0.3087229 0.3095259 0.3102961 0.3111042 0.3117499 0.3119283
 0.3116376 0.3114268 0.3119893 0.3134455 0.3152016 0.3165507 0.317252 0.3174955 0.3175038 0.3173167
 0.3169039 0.316343 0.315826 0.3155138 0.3154245 0.3154623 0.3155197 0.3155409 0.3155259 0.315514
 0.3155551 0.3156688 0.3158366 0.316035 0.3162519 0.3164632 0.3166312 0.3167466 0.3168404 0.3169314
 0.3169807 0.3169165 0.3166805 0.3162339 0.3155389 0.314559 0.3132684 0.3116409 0.3096494 0.3073557
 0.305073 0.3034065 0.3030044 0.3041422 0.3065032 0.3093603 0.3119899 0.3139812 0.3152746 0.3160149
 0.3163881 0.3165376 0.3165472 0.3164521 0.3162628 0.3159924 0.3156674 0.3153176 0.314966 0.3146309
 0.3143249 0.3140481 0.3137832 0.3135008 0.3131686 0.3127651 0.3122874 0.3117478 0.3111577 0.3105106
 0.3097808 0.3089426 0.3079984 0.30699 0.3059806 0.3050231 0.3041326 0.3032807 0.3024161 0.3014903
 0.3004522 0.2992418 0.2978455 0.2963829 0.2950774 0.2940797 0.2933308 0.2926287 0.291806 0.2908157
 0.2896864 0.2884603 0.2871746 0.2858563 0.2845126 0.2831317 0.2816912 0.2801645 0.2785332 0.2767999
 0.2749841 0.2731048 0.2711787 0.269224 0.2672369 0.2651482 0.2628168 0.2600747 0.2567826 0.2528571
 0.2482804 0.2431134 0.2375062 0.231677 0.2258597 0.2202553 0.2150214 0.210289 0.2061749 0.2027778
 0.2001697 0.1983934 0.1974684 0.1973972 0.1981664 0.1997376 0.2020366 0.2049475 0.2083168 0.2119621
 0.2156821 0.219282 0.2226221 0.2256649 0.2284657 0.2310963 0.2335734 0.2358575 0.2379036 0.2396921
 0.2412221 0.2424984 0.2435353 0.2443655 0.2450383 0.2456082 0.2461178 0.2465802 0.2469754 0.2472745
 0.2474757 0.247616 0.2477484 0.2479107 0.2481142 0.2483532 0.2486215 0.2489259 0.2492853 0.2497189
 0.2502347 0.2508284 0.2514871 0.2521958 0.2529501 0.2537643 0.2546659 0.2556822 0.2568364 0.2581466
 0.2596164 0.2612179 0.2628823 0.2645079 0.2659854 0.267228 0.2681891 0.2688603 0.2692556 0.2693994
 0.2693241 0.2690691 0.2686712 0.2681528 0.2675251 0.2668025 0.266007 0.2651586 0.2642662 0.2633319
 0.2623608 0.2613669 0.2603703 0.2593881 0.2584285 0.2574936 0.2565849 0.2557026 0.2548472 0.2540212
 0.2532257 0.2524585 0.25172 0.2510148 0.2503397 0.2496735 0.24898 0.2482164 0.2473405 0.2463222
 0.2451492 0.2438224 0.2423496 0.2407455 0.2390254 0.2371977 0.2352693 0.2332538 0.231167 0.2290139
 0.2267826 0.2244559 0.2220447 0.2196139 0.2172637 0.2150737 0.2130667 0.2112189 0.2094896 0.207847
 0.2062794 0.2047864 0.2033628 0.201999 0.2006932 0.1994492 0.1982692 0.1971587 0.196128 0.1951846
 0.1943345 0.1935869 0.1929466 0.1924074 0.1919565 0.1915814 0.1912784 0.1910698 0.190996 0.1910637
 0.1912081 0.1913278 0.1913553 0.1912923 0.191191 0.1911068 0.1910632 0.1910555 0.1910693 0.191067
 0.1909664 0.1906602 0.1900533 0.1890729 0.1876748 0.1858736 0.1837598 0.181484 0.1792266 0.1771571
 0.1753871 0.1739576 0.1728612 0.1720515 0.1714465 0.1709715 0.1706151 0.1704339 0.1704991 0.1708114
 0.1712403 0.171584 0.1717473 0.1718495 0.1721205 0.1727082 0.1735927 0.1746341 0.17567 0.176591
 0.1773516 0.1779359 0.1783494 0.1786293 0.1788154 0.1789104 0.1788974 0.1787704 0.1785294 0.1781777
 0.1777314 0.1772003 0.1765704 0.1758349 0.1750126 0.1741161 0.1731387 0.1720678 0.1708693 0.1694985
 0.1680048 0.1666079 0.1656188 0.1652743 0.1656169 0.1664779 0.1676003 0.1688104 0.1700316 0.1711529
 0.1720387 0.172734 0.1735482 0.1748443 0.1767375 0.1789885 0.1811689 0.1829369 0.184159 0.1848212
 0.1849405 0.1845668 0.1837465 0.1824709 0.1807531 0.1787107 0.1764979 0.1742391 0.1720635 0.1700886
 0.16837 0.1669392 0.1658112 0.1649795 0.1645007 0.1641007 0.1622151 0.1565361 0.1472779 0.1392982
 0.138442 0.1452496 0.1542098 0.1596813 0.1607013 0.1596408 0.1584549 0.1575446 0.1568361 0.1564239
 0.1563709 0.1565595 0.156765 0.1567702 0.156484 0.1559148 0.1549321 0.1530435 0.1493781 0.1429939
 0.1335783 0.1220941 0.110571 0.1010247 0.09446231 0.09067951 0.08869758 0.0874412 0.0863537 0.08559047
 0.0856544 0.08687687 0.08923819 0.09252825 0.09649438 0.1008013 0.1049803 0.1085785 0.1113945 0.1134994
 0.1150286 0.116036 0.1165419 0.1166079 0.1163229 0.115771 0.115019 0.1140883 0.1129436 0.1115555
 0.1099994 0.1084883 0.107279 0.1065062 0.1061095 0.1059349 0.1058727 0.1058827 0.1059456 0.1060462
 0.1061814 0.1063559 0.1065854 0.1068879 0.1072449 0.1075896 0.1078584 0.1080361 0.1081383 0.1081646
 0.1080777 0.1078378 0.1074774 0.1071005 0.106736 0.1062192 0.1053271 0.1040641 0.1027576 0.1018442
 0.1015683 0.1018482 0.1023718 0.1028213 0.1030597 0.103149 0.1032033 0.1032218 0.1030722 0.1026403
</values></Ydata></ScRf><Data_Parameters_AB><parameter name="DPF">1</parameter><parameter name="NPT">3497</parameter><parameter name="FXV">3996</parameter><parameter name="LXV">500</parameter><parameter name="CSF">1</parameter><parameter name="MXY">0.125230178236961</parameter><parameter name="MNY">-0.124515078961849</parameter><parameter name="DAT">17/01/2024</parameter><parameter name="TIM">13:17:19.700 (GMT+1)</parameter><parameter name="DXU">WN</parameter></Data_Parameters_AB><AB__Qtest><MainReport name="Quality Test Report"><Header><Line><Legend>Test result ok/not ok [1/0]: </Legend><Value>0</Value></Line><Line><Legend>Method file: </Legend><Value>C:\Users\Public\Documents\Bruker\OPUS_8.2.28\QT\IRBT_v3_default.QT</Value></Line></Header><Matrix><Line><Legend></Legend><Legend>min</Legend><Legend>max</Legend><Legend>measured</Legend></Line><Line><Value>Absorption (X-Range 1):</Value><Value>0.400000</Value><Value>2.000000</Value><Value>0.119988</Value></Line><Line><Value>Noise (X-Range 4):</Value><Value></Value><Value>0.000300</Value><Value>0.000022</Value></Line><Line><Value>Signal/Noise (X-Range 2):</Value><Value>200.000000</Value><Value></Value><Value>86.844980</Value></Line><Line><Value>Signal/Noise (X-Range 3):</Value><Value>40.000000</Value><Value></Value><Value>303.172447</Value></Line><Line><Value>Water vapour (X-Range 5):</Value><Value></Value><Value>0.000300</Value><Value>0.000011</Value></Line><Line><Value>Signal/Water (X-Range 2):</Value><Value>100.000000</Value><Value></Value><Value>178.796803</Value></Line><Line><Value>Signal/Water (X-Range 3):</Value><Value>20.000000</Value><Value></Value><Value>624.172684</Value></Line><Line><Value>Fringes (X-Range 6):</Value><Value></Value><Value>0.000100</Value><Value>0.000027</Value></Line></Matrix></MainReport></AB__Qtest><Data_Parameters_ScSm><parameter name="DPF">1</parameter><parameter name="NPT">1814</parameter><parameter name="FXV">3996.63438082617</parameter><parameter name="LXV">499.579297603271</parameter><parameter name="CSF">1</parameter><parameter name="MXY">0.386527568101883</parameter><parameter name="MNY">0.0756234228610992</parameter><parameter name="DAT">17/01/2024</parameter><parameter name="TIM">13:17:19.700 (GMT+1)</parameter><parameter name="DXU">WN</parameter></Data_Parameters_ScSm><Data_Parameters_ScRf><parameter name="DPF">1</parameter><parameter name="NPT">1820</parameter><parameter name="FXV">4004.34989121387</parameter><parameter name="LXV">495.721542409425</parameter><parameter name="CSF">1</parameter><parameter name="MXY">0.317503750324249</parameter><parameter name="MNY">0.0680636167526245</parameter><parameter name="DAT">17/01/2024</parameter><parameter name="TIM">13:16:53.838 (GMT+1)</parameter><parameter name="DXU">WN</parameter></Data_Parameters_ScRf><Optic_Parameters_Rf><parameter name="APR">0</parameter><parameter name="APT">Open</parameter><parameter name="BMS">KBr</parameter><parameter name="DTC">RT-DLaTGS_IR-Biotyper [Microplate reader]</parameter><parameter name="HPF">0</parameter><parameter name="LPF">10.0</parameter><parameter name="LPV">4000</parameter><parameter name="PGR">0</parameter><parameter name="RCH">Module port</parameter><parameter name="RDX">0</parameter><parameter name="SRC">MIR</parameter><parameter name="VEL">10.0</parameter><parameter name="SON">Off</parameter></Optic_Parameters_Rf><Acquisition_Parameters_Rf><parameter name="ADT">1</parameter><parameter name="AQM">DD</parameter><parameter name="CFE">0</parameter><parameter name="COR">0</parameter><parameter name="DEL">0</parameter><parameter name="DLY">0</parameter><parameter name="HFW">8000</parameter><parameter name="LFW">0</parameter><parameter name="NSR">32</parameter><parameter name="PLF">AB</parameter><parameter name="RES">6</parameter><parameter name="RGN">-1</parameter><parameter name="STR">0</parameter><parameter name="TCL">MakeCompatibleScalar (0, {WSV=1.000000, ARV=0});</parameter><parameter name="TDL">37</parameter><parameter name="RPO">0</parameter></Acquisition_Parameters_Rf><FT_-_Parameters_Rf><parameter name="APF">B3</parameter><parameter name="HFQ">500</parameter><parameter name="LFQ">4000</parameter><parameter name="NLI">0</parameter><parameter name="PHR">24</parameter><parameter name="PHZ">ML</parameter><parameter name="SPZ">NO</parameter><parameter name="ZFF">1</parameter></FT_-_Parameters_Rf><Optic_Parameters_><parameter name="APR">0</parameter><parameter name="APT">Open</parameter><parameter name="BMS">KBr</parameter><parameter name="CHN">Module port</parameter><parameter name="DTC">RT-DLaTGS_IR-Biotyper [Microplate reader]</parameter><parameter name="HPF">0</parameter><parameter name="LPF">10.0</parameter><parameter name="LPV">4000</parameter><parameter name="PGN">0</parameter><parameter name="RDX">0</parameter><parameter name="SRC">MIR</parameter><parameter name="VEL">10.0</parameter><parameter name="SON">Off</parameter></Optic_Parameters_><FT_-_Parameters_><parameter name="APF">B3</parameter><parameter name="HFQ">500</parameter><parameter name="LFQ">4000</parameter><parameter name="NLI">0</parameter><parameter name="PHR">24</parameter><parameter name="PHZ">ML</parameter><parameter name="SPZ">NO</parameter><parameter name="ZFF">1</parameter></FT_-_Parameters_><Acquisition_Parameters_><parameter name="ADT">1</parameter><parameter name="AQM">DD</parameter><parameter name="CFE">0</parameter><parameter name="COR">0</parameter><parameter name="DEL">0</parameter><parameter name="DLY">0</parameter><parameter name="HFW">8000</parameter><parameter name="LFW">0</parameter><parameter name="NSS">32</parameter><parameter name="PLF">AB</parameter><parameter name="RES">6</parameter><parameter name="SOT">0</parameter><parameter name="TCL">MakeCompatibleScalar (0, {WSV=1.000000, ARV=0});</parameter><parameter name="TDL">37</parameter><parameter name="SPO">0</parameter><parameter name="SGN">-1</parameter></Acquisition_Parameters_><Instrument_Parameters_Rf><parameter name="HFL">15801.365274</parameter><parameter name="LFL">0</parameter><parameter name="LWN">15801.365274</parameter><parameter name="ABP">32157</parameter><parameter name="SSP">1</parameter><parameter name="ARG">2</parameter><parameter name="ASG">2</parameter><parameter name="ASS">32</parameter><parameter name="GFW">16</parameter><parameter name="GBW">16</parameter><parameter name="BFW">0</parameter><parameter name="BBW">0</parameter><parameter name="PKA">9106</parameter><parameter name="PKL">4987</parameter><parameter name="PRA">9123</parameter><parameter name="PRL">5010</parameter><parameter name="P2A">1</parameter><parameter name="P2L">1</parameter><parameter name="P2R">1</parameter><parameter name="P2K">1</parameter><parameter name="DAQ">0</parameter><parameter name="AG2">1</parameter><parameter name="SSM">1</parameter><parameter name="RSN">46332</parameter><parameter name="CRR">0</parameter><parameter name="SRT">1705497413.838</parameter><parameter name="DUR">19.64599609375</parameter><parameter name="TSC">30.9</parameter><parameter name="MVD">6.40850448608398</parameter><parameter name="AN1">0.226008375517653</parameter><parameter name="AN2">0</parameter><parameter name="VSN">2.485 Apr  4 2017</parameter><parameter name="SRN">0085</parameter><parameter name="CAM">0</parameter><parameter name="INS">IR-Biotyper</parameter><parameter name="FOC">69</parameter><parameter name="RDY">1</parameter><parameter name="ARS">32</parameter></Instrument_Parameters_Rf><Sample_Parameters_><parameter name="BLD"></parameter><parameter name="CNM">Admin</parameter><parameter name="CPY"></parameter><parameter name="DPM"></parameter><parameter name="EXP">IRBT_v3_32Scans.XPM</parameter><parameter name="LCT"></parameter><parameter name="SFM">Microplate, HTS-XT</parameter><parameter name="SNM">240117-1222-Cdiff_SCFA_1_C13_232110856_E7_e750f1b5-fc66-401f-b45d-90c7e67ef384.0</parameter><parameter name="XPP">C:\Users\Public\Documents\Bruker\OPUS_8.2.28\XPM</parameter><parameter name="IST">OK</parameter><parameter name="CPG">1252</parameter><parameter name="UID">ba055567-ce2e-4f9f-8ae3-ba4970bbb586</parameter></Sample_Parameters_><Instrument_Parameters_><parameter name="HFL">15801.365274</parameter><parameter name="LFL">0</parameter><parameter name="LWN">15801.365274</parameter><parameter name="ABP">32157</parameter><parameter name="SSP">1</parameter><parameter name="ASG">2</parameter><parameter name="ARG">2</parameter><parameter name="ASS">32</parameter><parameter name="GFW">16</parameter><parameter name="GBW">16</parameter><parameter name="BFW">0</parameter><parameter name="BBW">0</parameter><parameter name="PKA">10416</parameter><parameter name="PKL">4979</parameter><parameter name="PRA">10450</parameter><parameter name="PRL">5011</parameter><parameter name="P2A">1</parameter><parameter name="P2L">1</parameter><parameter name="P2R">1</parameter><parameter name="P2K">1</parameter><parameter name="DAQ">0</parameter><parameter name="AG2">1</parameter><parameter name="SSM">1</parameter><parameter name="RSN">23859</parameter><parameter name="CRR">0</parameter><parameter name="SRT">1705497439.701</parameter><parameter name="DUR">19.6449890136719</parameter><parameter name="TSC">30.9</parameter><parameter name="MVD">5.7504711151123</parameter><parameter name="AN1">0.226033135681257</parameter><parameter name="AN2">0</parameter><parameter name="VSN">2.485 Apr  4 2017</parameter><parameter name="SRN">0085</parameter><parameter name="CAM">0</parameter><parameter name="INS">IR-Biotyper</parameter><parameter name="FOC">69</parameter><parameter name="RDY">1</parameter></Instrument_Parameters_><History/></OPUSDataFile>
