<?xml version="1.0" encoding="UTF-8" ?>
<OPUSDataFile><AB><Ydata ylabel="Absorbance Units"><values byteorder="INTEL" format="FLOAT32" numvalues="3497"> -0.0737924 -0.07377785 -0.07376982 -0.07376841 -0.07377513 -0.0737872 -0.0737996 -0.07380956 -0.07380998 -0.0738022
 -0.07378361 -0.0737604 -0.07373551 -0.07371557 -0.073705 -0.07370553 -0.07371956 -0.07374292 -0.07377548 -0.07381143
 -0.07384998 -0.07388688 -0.07392173 -0.07395109 -0.07397477 -0.07398869 -0.07399285 -0.0739852 -0.07396703 -0.07394331
 -0.07391639 -0.0738967 -0.07388496 -0.07388892 -0.0739053 -0.07393352 -0.07396758 -0.07400098 -0.0740296 -0.07404731
 -0.07405639 -0.07405496 -0.07405152 -0.0740484 -0.07405245 -0.07406677 -0.07408838 -0.07411823 -0.07414466 -0.07416672
 -0.07417638 -0.07417332 -0.0741611 -0.07414058 -0.07412261 -0.07410745 -0.07410277 -0.0741068 -0.07411798 -0.07413383
 -0.07414748 -0.07415903 -0.07416478 -0.07416806 -0.07417126 -0.07417642 -0.07418696 -0.07419979 -0.07421456 -0.07422726
 -0.07423567 -0.0742408 -0.07424217 -0.07424305 -0.07424413 -0.07424515 -0.07424622 -0.07424499 -0.07424137 -0.07423682
 -0.07423178 -0.0742318 -0.07423736 -0.07425422 -0.07428214 -0.07432403 -0.07437784 -0.07444159 -0.0745104 -0.07457656
 -0.07463431 -0.07467397 -0.07469363 -0.07468675 -0.07466044 -0.07461471 -0.07456301 -0.07450978 -0.07446537 -0.074434
 -0.07441556 -0.07441141 -0.07441349 -0.07442118 -0.07442804 -0.07443367 -0.07443785 -0.07444069 -0.07444394 -0.07444734
 -0.07445012 -0.07445206 -0.07445171 -0.07444972 -0.07444652 -0.07444368 -0.07444353 -0.07444816 -0.0744613 -0.07448257
 -0.07451443 -0.07455075 -0.07458984 -0.07462349 -0.07464742 -0.0746609 -0.07466207 -0.07465715 -0.0746472 -0.07463413
 -0.07461835 -0.07459818 -0.07457353 -0.0745537 -0.07453965 -0.07454806 -0.07457718 -0.0746277 -0.07469168 -0.07474148
 -0.07477033 -0.07474263 -0.07467108 -0.07455561 -0.0744231 -0.07430757 -0.07421697 -0.07417253 -0.07416134 -0.07418266
 -0.07422224 -0.07427485 -0.07433067 -0.07438775 -0.07443247 -0.07446288 -0.07446539 -0.0744374 -0.07438491 -0.07430806
 -0.074231 -0.07415439 -0.07409267 -0.07404426 -0.07400604 -0.07397737 -0.0739539 -0.07393697 -0.07392841 -0.0739279
 -0.07393634 -0.07395153 -0.07397171 -0.07399406 -0.07401709 -0.07403453 -0.07404362 -0.074036 -0.07400589 -0.07395729
 -0.07388733 -0.07381604 -0.07374603 -0.07369415 -0.07366325 -0.07365177 -0.07365986 -0.07367459 -0.07369532 -0.07371068
 -0.07372068 -0.07371993 -0.0737087 -0.07368486 -0.07364912 -0.07360145 -0.07354393 -0.07347963 -0.07341158 -0.07334435
 -0.07328064 -0.07322419 -0.07317629 -0.07313925 -0.07311108 -0.07309232 -0.07307772 -0.07306637 -0.07305265 -0.07303528
 -0.07301225 -0.07298309 -0.07294816 -0.07290742 -0.07286185 -0.07281167 -0.07276027 -0.07270847 -0.07266364 -0.07262605
 -0.07260144 -0.07258764 -0.07258265 -0.07258283 -0.07258072 -0.0725743 -0.07255731 -0.07253153 -0.07249583 -0.07245401
 -0.07240815 -0.07236002 -0.07231113 -0.07226045 -0.07220718 -0.07215448 -0.07210159 -0.07206038 -0.07203221 -0.07202436
 -0.07203767 -0.07205879 -0.07208643 -0.07209564 -0.07208686 -0.07205087 -0.07199045 -0.07191293 -0.0718177 -0.07170544
 -0.07157797 -0.07143445 -0.07128859 -0.07115741 -0.07104987 -0.07098553 -0.07094772 -0.07093634 -0.07092085 -0.07088663
 -0.0708233 -0.07072064 -0.07060027 -0.07046366 -0.07033483 -0.07021786 -0.07011341 -0.07002205 -0.06992924 -0.06983441
 -0.0697267 -0.06960751 -0.06948148 -0.06935115 -0.06923022 -0.06911824 -0.06902233 -0.06893747 -0.06885896 -0.06877946
 -0.06868875 -0.06857916 -0.06843924 -0.06826887 -0.06806041 -0.06783184 -0.06758679 -0.06734753 -0.06712386 -0.06691455
 -0.06672352 -0.06652809 -0.06632612 -0.06610043 -0.06584939 -0.06557512 -0.06527813 -0.06497055 -0.06465248 -0.06433132
 -0.06400441 -0.06366593 -0.06331012 -0.06291715 -0.06248597 -0.06200062 -0.06147529 -0.06091959 -0.06035248 -0.0597975
 -0.05925582 -0.05873887 -0.05822906 -0.05772422 -0.05719976 -0.05664973 -0.05605013 -0.05539429 -0.05467549 -0.05389
 -0.05305967 -0.0521856 -0.05129185 -0.0503789 -0.0494485 -0.04850072 -0.04753592 -0.04655692 -0.04557791 -0.04459818
 -0.04362495 -0.04265167 -0.04166925 -0.04067224 -0.03964924 -0.03859881 -0.03751448 -0.03640053 -0.03525605 -0.03409152
 -0.03291397 -0.03171951 -0.03051476 -0.02926202 -0.02795502 -0.02656473 -0.02508118 -0.02354771 -0.02196547 -0.02040917
 -0.01888057 -0.01739317 -0.01594174 -0.01448729 -0.01302852 -0.0115373 -0.01002018 -0.008480881 -0.006927012 -0.00537801
 -0.003830582 -0.002295952 -0.0007465553 0.000835837 0.002484124 0.004237952 0.006068994 0.007989913 0.009907683 0.01179167
 0.0136029 0.01531642 0.01699766 0.01864946 0.02035035 0.02210821 0.02392754 0.02580704 0.02769417 0.02958781
 0.03145401 0.0332999 0.03514025 0.0369828 0.0388612 0.04077083 0.04272258 0.04469871 0.04667829 0.04865046
 0.05059288 0.05251517 0.05441521 0.05630943 0.05820508 0.06011193 0.06203481 0.06397732 0.0659428 0.06792074
 0.06991146 0.07189257 0.07386152 0.07582178 0.07777449 0.07976276 0.08178708 0.08387426 0.08601416 0.08817234
 0.09033906 0.09246238 0.09454995 0.09658962 0.09859937 0.1006002 0.1026036 0.1046319 0.10668 0.1087552
 0.1108365 0.1129149 0.1149801 0.1170209 0.1190631 0.1211082 0.1231923 0.1253235 0.1274945 0.1297069
 0.1319147 0.1341163 0.1362854 0.138424 0.1405415 0.1426404 0.1447378 0.1468343 0.1489403 0.1510547
 0.1531813 0.1553158 0.1574539 0.1595928 0.1617261 0.1638596 0.165994 0.1681378 0.1702965 0.1724699
 0.174661 0.1768593 0.1790643 0.1812612 0.1834473 0.1856158 0.1877652 0.1899061 0.1920393 0.1941809
 0.1963304 0.1984869 0.2006487 0.2028046 0.2049555 0.2070992 0.2092369 0.2113715 0.2135013 0.2156241
 0.2177424 0.2198568 0.2219716 0.2240929 0.2262128 0.228331 0.2304327 0.232511 0.234566 0.2365945
 0.2386099 0.2406137 0.2426142 0.2446125 0.2466087 0.2486029 0.2505882 0.2525641 0.2545186 0.2564529
 0.2583657 0.2602609 0.2621527 0.26404 0.265929 0.2678118 0.269677 0.2715248 0.2733493 0.2751594
 0.2769626 0.2787548 0.2805387 0.2822993 0.28403 0.2857321 0.2874023 0.2890584 0.2907027 0.2923455
 0.2939884 0.2956299 0.2972699 0.2989028 0.300528 0.3021368 0.3037292 0.3052998 0.3068495 0.3083802
 0.3098894 0.3113723 0.312825 0.3142351 0.3156119 0.3169563 0.3182895 0.319629 0.3209848 0.3223697
 0.3237742 0.325199 0.3266291 0.328062 0.3294836 0.3308919 0.3322739 0.3336276 0.3349498 0.3362403
 0.3375074 0.3387516 0.3399824 0.3412006 0.3424159 0.3436301 0.3448557 0.3460901 0.3473363 0.3485855
 0.3498259 0.3510498 0.352244 0.3534064 0.3545301 0.3556187 0.3566687 0.357697 0.358706 0.3597215
 0.3607516 0.3618029 0.3628803 0.3639628 0.365049 0.3661197 0.3671738 0.3682097 0.3692273 0.3702265
 0.3712066 0.3721621 0.3730936 0.3740006 0.374884 0.3757462 0.3765869 0.3774053 0.3782052 0.3789891
 0.3797646 0.3805398 0.3813152 0.3820954 0.3828704 0.3836381 0.3843891 0.38512 0.3858275 0.3865102
 0.3871696 0.3878056 0.3884213 0.3890168 0.3895907 0.3901425 0.3906672 0.3911657 0.3916406 0.3920941
 0.3925364 0.3929659 0.3933848 0.3937892 0.3941712 0.3945343 0.3948772 0.39521 0.3955409 0.3958743
 0.3962166 0.396562 0.3969103 0.3972538 0.3975903 0.3979158 0.3982286 0.3985313 0.3988234 0.3991166
 0.3994114 0.3997175 0.400034 0.4003535 0.4006733 0.400972 0.4012484 0.4014859 0.4016877 0.4018523
 0.4019863 0.4020998 0.4021994 0.4022968 0.4023952 0.4025005 0.402616 0.4027437 0.4028905 0.4030604
 0.4032532 0.4034723 0.4037001 0.4039347 0.4041568 0.4043631 0.4045554 0.4047334 0.4049138 0.4050972
 0.4052928 0.4055 0.405719 0.405949 0.4061887 0.4064353 0.4066821 0.4069244 0.4071491 0.4073599
 0.4075518 0.407742 0.4079414 0.408168 0.4084378 0.4087506 0.4091136 0.4095067 0.409927 0.4103538
 0.4107818 0.4112104 0.411638 0.4120806 0.4125393 0.4130239 0.4135341 0.4140642 0.4146144 0.415181
 0.4157677 0.4163879 0.4170434 0.4177502 0.4184969 0.419277 0.420064 0.4208245 0.4215352 0.4221591
 0.4227037 0.4231537 0.4235551 0.4239189 0.424296 0.4247058 0.4251582 0.4256628 0.4261847 0.4267224
 0.4272313 0.4277084 0.4281285 0.4284915 0.4287953 0.4290418 0.4292431 0.4294011 0.4295308 0.4296319
 0.4297124 0.4297697 0.4298033 0.4298102 0.4297872 0.4297306 0.4296372 0.4295014 0.4293202 0.4290867
 0.4287982 0.4284464 0.428029 0.4275382 0.4269711 0.4263303 0.4256141 0.4248422 0.4240156 0.4231605
 0.4222782 0.4213874 0.4204882 0.4195904 0.4186935 0.4178007 0.4169092 0.4160134 0.4151096 0.4141868
 0.4132468 0.4122856 0.4113114 0.4103306 0.4093482 0.4083706 0.4073946 0.4064206 0.4054443 0.4044634
 0.4034802 0.402494 0.401513 0.4005378 0.3995769 0.3986311 0.3977013 0.3967867 0.3958733 0.394959
 0.39402 0.3930563 0.392054 0.3910187 0.3899582 0.3888805 0.3878052 0.3867358 0.3856862 0.3846522
 0.3836364 0.3826281 0.3816228 0.3806085 0.3795786 0.3785266 0.3774476 0.3763471 0.3752238 0.3740927
 0.3729553 0.3718226 0.3706957 0.369572 0.3684512 0.367322 0.3661841 0.3650304 0.3638624 0.3626825
 0.3614925 0.3602991 0.3591018 0.3579041 0.3567034 0.355498 0.3542855 0.3530623 0.3518296 0.350586
 0.3493369 0.3480842 0.3468325 0.3455844 0.3443382 0.3430943 0.3418473 0.3405961 0.3393394 0.3380769
 0.3368122 0.3355453 0.3342763 0.3330045 0.3317229 0.3304316 0.3291251 0.3278058 0.3264769 0.3251426
 0.3238124 0.3224892 0.3211813 0.3198889 0.3186155 0.3173584 0.316117 0.3148875 0.3136684 0.312456
 0.311249 0.3100443 0.3088404 0.3076392 0.3064395 0.3052549 0.304086 0.3029508 0.3018495 0.3007806
 0.2997406 0.2986992 0.297653 0.2965679 0.2954492 0.2942913 0.2931074 0.291921 0.2907437 0.2896033
 0.2884997 0.2874463 0.2864286 0.2854441 0.2844693 0.2834927 0.2824991 0.2814781 0.2804388 0.2793789
 0.2783254 0.2772817 0.2762658 0.27528 0.2743175 0.2733778 0.2724473 0.2715275 0.2706243 0.2697419
 0.2689061 0.2681164 0.2673901 0.2667141 0.2660742 0.2654494 0.2648025 0.2641233 0.2633822 0.2625964
 0.2617632 0.260919 0.260081 0.2592718 0.2585066 0.2577747 0.2570784 0.256394 0.2557173 0.2550442
 0.2543733 0.2537185 0.25308 0.2524615 0.2518616 0.2512676 0.2506792 0.2500883 0.2494974 0.2489114
 0.2483298 0.2477551 0.2471816 0.2466014 0.2460128 0.2454092 0.2447975 0.2441808 0.243564 0.2429527
 0.242339 0.2417233 0.2410901 0.240436 0.2397502 0.2390296 0.2382753 0.2374864 0.2366774 0.2358493
 0.2350268 0.2342111 0.2334252 0.2326674 0.2319438 0.2312487 0.230568 0.2298947 0.2292063 0.228501
 0.2277648 0.2270041 0.2262195 0.2254207 0.2246153 0.2238078 0.223003 0.2221992 0.2213966 0.2205932
 0.219788 0.2189825 0.2181762 0.2173747 0.216578 0.2157963 0.2150301 0.2142877 0.2135682 0.2128642
 0.2121725 0.2114704 0.2107581 0.210021 0.2092678 0.2085094 0.207756 0.2070304 0.2063302 0.2056647
 0.2050192 0.2043855 0.2037544 0.2031161 0.2024788 0.2018416 0.201218 0.200612 0.2000251 0.1994588
 0.1989052 0.1983632 0.1978353 0.1973217 0.1968421 0.1963979 0.1960105 0.1956781 0.1954032 0.1951796
 0.1949886 0.1948246 0.1946644 0.19451 0.1943516 0.1942017 0.1940678 0.1939667 0.193913 0.1939189
 0.1939948 0.1941442 0.1943705 0.1946738 0.1950539 0.1955157 0.1960589 0.1966955 0.1974262 0.1982628
 0.1992061 0.2002573 0.2014157 0.2026711 0.2040233 0.2054643 0.2069974 0.2086291 0.2103635 0.2122145
 0.2141801 0.2162656 0.2184611 0.2207586 0.2231475 0.2256166 0.2281621 0.2307779 0.2334679 0.2362318
 0.2390761 0.2420023 0.2450152 0.2481163 0.2513038 0.2545789 0.2579234 0.2613364 0.2647697 0.268218
 0.271601 0.2749093 0.27805 0.2810103 0.2837017 0.2861026 0.2881237 0.2897374 0.2908526 0.2914731
 0.2915413 0.2911532 0.2903258 0.2892678 0.2880646 0.2869737 0.2860984 0.2856381 0.2856662 0.2862586
 0.2874457 0.289195 0.2915092 0.2943147 0.2976073 0.301334 0.3054931 0.3100571 0.3150142 0.320297
 0.3258567 0.3315003 0.3371443 0.3424874 0.3474885 0.3519046 0.3558432 0.3592776 0.3624871 0.365636
 0.3690887 0.3730814 0.377865 0.3836847 0.3902339 0.3976967 0.404611 0.410939 0.4142394 0.414249
 0.4093885 0.3995328 0.385804 0.368384 0.350221 0.3314579 0.3145118 0.2992522 0.2865199 0.2760256
 0.2674975 0.2606771 0.2550074 0.2503354 0.2462725 0.2427335 0.2395366 0.2366159 0.2338948 0.23132
 0.2288558 0.2264713 0.2241496 0.2218898 0.2196867 0.2175647 0.2155249 0.2135974 0.211784 0.2101084
 0.2085721 0.2071993 0.2059935 0.2049887 0.2041881 0.203626 0.2032937 0.203198 0.2033014 0.2035562
 0.2038934 0.2042172 0.2044621 0.2045334 0.2044241 0.204087 0.2035972 0.2029565 0.2022972 0.2016414
 0.2011457 0.2008291 0.2008696 0.2012785 0.202289 0.2039145 0.2064486 0.2098973 0.2144268 0.2199537
 0.2260886 0.2325564 0.2381233 0.2424499 0.2439385 0.2426564 0.2377885 0.2300839 0.2200149 0.2085914
 0.1968286 0.1853845 0.1749747 0.1657008 0.1578108 0.151051 0.1454184 0.1405901 0.136512 0.1329442
 0.1298546 0.1270954 0.1246552 0.1224386 0.1204412 0.1185922 0.116889 0.1152782 0.1137585 0.1122952
 0.1108884 0.1095209 0.1081943 0.1069039 0.1056511 0.1044362 0.1032592 0.1021208 0.1010195 0.09995504
 0.09892575 0.09793139 0.09696855 0.09603713 0.09513 0.0942463 0.09337783 0.09252335 0.09167994 0.09084719
 0.09002873 0.08922476 0.08843959 0.08767278 0.08692314 0.08618945 0.08546585 0.08475212 0.0840442 0.08334358
 0.0826514 0.08196846 0.08129712 0.08063509 0.07998165 0.07933308 0.07868633 0.07804114 0.0773958 0.07675445
 0.07611746 0.07549045 0.07487436 0.07427427 0.073691 0.07312688 0.0725823 0.07205232 0.07153639 0.0710226
 0.07051045 0.06999018 0.06946308 0.06892909 0.06839054 0.06785402 0.06732073 0.06679607 0.06628004 0.06577494
 0.06528017 0.06479651 0.06432161 0.06385472 0.06339221 0.06293202 0.06247329 0.06201452 0.06156006 0.06111021
 0.06067071 0.06024257 0.05982677 0.05942363 0.0590276 0.05863828 0.05824734 0.05785469 0.05745548 0.05705093
 0.0566435 0.05623527 0.05583381 0.05543936 0.05505709 0.05468335 0.05431614 0.05395 0.05357854 0.05320007
 0.05281026 0.05241396 0.05201171 0.05160986 0.05121107 0.05081601 0.05042616 0.05003508 0.04964238 0.04924053
 0.04882882 0.04840527 0.04797 0.04752796 0.04707976 0.0466328 0.04618717 0.04574741 0.04531278 0.0448833
 0.04445857 0.04403746 0.04362068 0.04320862 0.04280235 0.04240345 0.04201119 0.04162598 0.04124546 0.04086884
 0.04049383 0.04011949 0.039745 0.03936993 0.0389945 0.03861861 0.03824334 0.03786873 0.03749676 0.03712755
 0.03676349 0.03640459 0.03605211 0.03570567 0.03536434 0.03502755 0.03469314 0.03436071 0.03402841 0.03369609
 0.03336278 0.03302854 0.03269289 0.0323566 0.0320197 0.03168404 0.03135046 0.03102021 0.03069412 0.0303714
 0.03005218 0.02973466 0.02941859 0.02910315 0.02878825 0.02847416 0.0281609 0.02784831 0.02753635 0.02722459
 0.02691297 0.02660101 0.02628868 0.02597551 0.02566171 0.02534723 0.02503281 0.02471964 0.02440791 0.02409886
 0.02379063 0.02348263 0.02317219 0.02285749 0.0225385 0.02221421 0.02188819 0.0215608 0.02123623 0.02091524
 0.02059917 0.02028827 0.01998133 0.01967826 0.01937755 0.01907917 0.01878255 0.01848775 0.01819482 0.01790375
 0.01761459 0.01732704 0.01704067 0.01675487 0.01646858 0.01618136 0.01589187 0.01560163 0.01531067 0.01502255
 0.01473879 0.01446262 0.01419601 0.01393797 0.01368907 0.01344532 0.0132063 0.01296842 0.01273133 0.01249322
 0.01225401 0.0120126 0.01176904 0.01152318 0.0112755 0.01102823 0.01078215 0.01054111 0.01030519 0.01007677
 0.009854626 0.009638233 0.009425711 0.009214826 0.009004569 0.008793332 0.008581418 0.008368593 0.008155218 0.007941457
 0.00772713 0.007512147 0.007296756 0.007080729 0.006866476 0.00665409 0.006447137 0.006245794 0.006052027 0.005865669
 0.005685597 0.005511356 0.005339806 0.005170904 0.005002542 0.004835648 0.004671172 0.004510137 0.004355058 0.004205002
 0.00406065 0.003918694 0.003777104 0.00363286 0.00348352 0.003329002 0.003168319 0.003003954 0.002836022 0.002668103
 0.002500628 0.00233698 0.002177532 0.002024072 0.001876689 0.001734171 0.001596222 0.001459066 0.001322343 0.001181957
 0.001038102 0.000888897 0.0007355679 0.0005796137 0.0004229525 0.0002694735 0.0001197785 -2.341684E-05 -0.0001619752 -0.0002960947
 -0.0004286094 -0.0005614664 -0.0006948016 -0.0008295344 -0.0009632209 -0.001095459 -0.001224265 -0.001349016 -0.001470703 -0.001589267
 -0.001707125 -0.001824403 -0.001942077 -0.002059993 -0.002176448 -0.002291204 -0.002401782 -0.002508564 -0.002611177 -0.002711005
 -0.00281095 -0.002912368 -0.003018954 -0.003130723 -0.003249529 -0.003373651 -0.003502784 -0.003634056 -0.00376602 -0.003896234
 -0.004023525 -0.004146444 -0.004264343 -0.004377011 -0.004484157 -0.004587121 -0.004685875 -0.00478343 -0.004879954 -0.004977858
 -0.005077029 -0.005176611 -0.005276126 -0.005371994 -0.005464405 -0.005551653 -0.005635293 -0.005718146 -0.005801538 -0.005889533
 -0.005980992 -0.006076714 -0.006173756 -0.006269835 -0.006363622 -0.006453094 -0.006540461 -0.00662586 -0.006712263 -0.006800674
 -0.006891653 -0.006985659 -0.007080955 -0.007177435 -0.007273496 -0.007369036 -0.00746366 -0.007557374 -0.007650206 -0.007742233
 -0.007833813 -0.00792524 -0.008017767 -0.008111672 -0.008208493 -0.00830775 -0.008409704 -0.008512809 -0.008615592 -0.008716203
 -0.008812623 -0.008903912 -0.008988621 -0.009067941 -0.009141642 -0.00921245 -0.009281059 -0.009349165 -0.009417428 -0.009484627
 -0.009550806 -0.009613465 -0.009672441 -0.009727491 -0.009778791 -0.009829132 -0.009878712 -0.009930382 -0.009983736 -0.01003892
 -0.01009507 -0.01015012 -0.01020357 -0.01025351 -0.01030008 -0.01034264 -0.01038159 -0.010417 -0.01044938 -0.01047894
 -0.01050631 -0.01053176 -0.01055593 -0.01057906 -0.0106014 -0.01062304 -0.01064394 -0.01066412 -0.01068337 -0.01070167
 -0.0107193 -0.01073627 -0.01075265 -0.01076842 -0.01078347 -0.01079772 -0.01081089 -0.01082295 -0.01083361 -0.01084309
 -0.01085151 -0.01085961 -0.01086831 -0.01087838 -0.01089104 -0.01090588 -0.01092334 -0.01094168 -0.0109605 -0.01097768
 -0.01099246 -0.01100423 -0.0110127 -0.01101832 -0.01102111 -0.01102164 -0.01101994 -0.01101589 -0.01100951 -0.01100113
 -0.010991 -0.01098091 -0.01097123 -0.01096455 -0.01096079 -0.01096112 -0.01096505 -0.01097208 -0.01098212 -0.01099448
 -0.01101045 -0.01103055 -0.01105699 -0.01109125 -0.01113464 -0.01118848 -0.01125154 -0.01132443 -0.01140235 -0.01148493
 -0.01156576 -0.01164398 -0.01171631 -0.01178237 -0.01184483 -0.01190388 -0.01196373 -0.0120239 -0.01208305 -0.01213979
 -0.01218758 -0.01222562 -0.01224838 -0.01225609 -0.012247 -0.01222051 -0.01217557 -0.01211037 -0.01202129 -0.01191271
 -0.01178207 -0.0116484 -0.01151656 -0.01141033 -0.01133831 -0.01131016 -0.01133096 -0.0113914 -0.01149244 -0.01161029
 -0.0117437 -0.01186394 -0.01197006 -0.01204636 -0.01209484 -0.01212311 -0.01213417 -0.01214504 -0.01215639 -0.01217906
 -0.0122117 -0.01225703 -0.01231285 -0.01237735 -0.0124488 -0.01252491 -0.01260503 -0.01268829 -0.01277389 -0.01286141
 -0.01294987 -0.01303876 -0.01312842 -0.01321877 -0.01331052 -0.0134038 -0.01349832 -0.01359398 -0.01369276 -0.01379494
 -0.01390716 -0.01402957 -0.01416718 -0.0143186 -0.01448071 -0.01465142 -0.01482281 -0.01499479 -0.01516275 -0.01532928
 -0.01549585 -0.01566495 -0.01583992 -0.01602044 -0.01620799 -0.01639926 -0.01659342 -0.01678686 -0.0169781 -0.01716623
 -0.0173505 -0.01753308 -0.01771414 -0.01789534 -0.01807689 -0.01825786 -0.01843818 -0.01861656 -0.01879321 -0.0189691
 -0.0191448 -0.01932347 -0.01950534 -0.01969293 -0.01988547 -0.02008292 -0.02028388 -0.02048645 -0.02068942 -0.02089115
 -0.02109047 -0.02128658 -0.02147736 -0.02166175 -0.0218382 -0.02200549 -0.02216561 -0.02231829 -0.02246836 -0.02261645
 -0.02276551 -0.02291592 -0.02306672 -0.02321784 -0.02336763 -0.02351616 -0.02366337 -0.02380936 -0.02395464 -0.02409893
 -0.02424171 -0.0243826 -0.02452029 -0.02465532 -0.02478754 -0.02491843 -0.02504954 -0.02518131 -0.02531518 -0.02544874
 -0.02558149 -0.02571049 -0.02583423 -0.02595335 -0.02606726 -0.02617971 -0.02629115 -0.02640395 -0.02651842 -0.02663392
 -0.0267504 -0.02686677 -0.026983 -0.02709846 -0.02721296 -0.02732518 -0.02743485 -0.02754019 -0.02764157 -0.02773857
 -0.02783227 -0.02792393 -0.02801454 -0.0281057 -0.02819739 -0.02829035 -0.02838328 -0.02847582 -0.0285667 -0.02865519
 -0.02874186 -0.02882655 -0.02891084 -0.02899505 -0.02907894 -0.02916262 -0.02924389 -0.02932266 -0.02939788 -0.0294698
 -0.0295405 -0.0296104 -0.02968276 -0.02975744 -0.02983587 -0.0299172 -0.03000033 -0.03008469 -0.03016889 -0.03025315
 -0.0303372 -0.03042137 -0.03050618 -0.03059044 -0.03067399 -0.0307548 -0.03083189 -0.03090523 -0.0309742 -0.03104179
 -0.03110821 -0.03117704 -0.03124865 -0.03132408 -0.03140334 -0.03148459 -0.03156754 -0.03164855 -0.0317275 -0.03180161
 -0.03187127 -0.03193596 -0.03199685 -0.03205594 -0.0321147 -0.03217623 -0.03224124 -0.03231202 -0.03238727 -0.03246731
 -0.03254899 -0.03263095 -0.03271065 -0.03278645 -0.0328594 -0.03292905 -0.0329991 -0.03307003 -0.03314438 -0.03322254
 -0.03330374 -0.0333879 -0.03347131 -0.03355371 -0.03363091 -0.03370325 -0.03376995 -0.03383233 -0.0338942 -0.03395662
 -0.03402424 -0.0340963 -0.0341742 -0.03425537 -0.03433758 -0.03441889 -0.03449688 -0.03457158 -0.0346421 -0.03470996
 -0.03477536 -0.03484012 -0.03490471 -0.03497028 -0.03503713 -0.0351053 -0.03517482 -0.03524489 -0.03531546 -0.03538639
 -0.03545782 -0.03553123 -0.03560684 -0.03568672 -0.03577043 -0.03585786 -0.03594791 -0.03603794 -0.0361273 -0.03621348
 -0.03629714 -0.03637803 -0.03645692 -0.03653458 -0.03661049 -0.03668465 -0.03675628 -0.03682477 -0.03689123 -0.03695566
 -0.03701981 -0.03708404 -0.03714869 -0.0372139 -0.03727845 -0.03734231 -0.03740486 -0.03746616 -0.03752666 -0.03758647
 -0.03764667 -0.03770728 -0.03776909 -0.03783194 -0.03789591 -0.03796056 -0.03802515 -0.03808947 -0.03815283 -0.03821564
 -0.0382778 -0.03834044 -0.0384041 -0.03846964 -0.03853769 -0.0386079 -0.03868058 -0.0387537 -0.03882704 -0.03889883
 -0.03896884 -0.03903711 -0.03910366 -0.03916932 -0.03923406 -0.03929745 -0.03935944 -0.03941924 -0.03947734 -0.03953495
 -0.03959286 -0.03965376 -0.03971745 -0.03978515 -0.03985547 -0.03992739 -0.03999955 -0.04007039 -0.04013979 -0.0402071
 -0.04027322 -0.04033839 -0.04040298 -0.04046731 -0.04053051 -0.04059248 -0.04065242 -0.04071011 -0.04076683 -0.04082263
 -0.04088042 -0.0409403 -0.041004 -0.04107127 -0.04114136 -0.04121402 -0.04128798 -0.04136302 -0.04143822 -0.04151289
 -0.04158569 -0.04165558 -0.04172051 -0.04178104 -0.04183646 -0.04188917 -0.04194032 -0.04199147 -0.04204388 -0.04209647
 -0.04214931 -0.04220079 -0.04225036 -0.04229932 -0.04234761 -0.04239823 -0.04245136 -0.04250742 -0.04256617 -0.04262427
 -0.04268146 -0.04273413 -0.04278285 -0.04282758 -0.04286946 -0.04291139 -0.04295379 -0.04299897 -0.04304592 -0.04309476
 -0.04314327 -0.04318978 -0.0432325 -0.04326955 -0.04330162 -0.04332785 -0.04335221 -0.0433754 -0.04340125 -0.04343094
 -0.04346351 -0.04349929 -0.04353296 -0.04356421 -0.04358914 -0.04360785 -0.04362168 -0.0436311 -0.04363994 -0.04364821
 -0.04365807 -0.04366893 -0.0436805 -0.04369207 -0.04370223 -0.04371071 -0.04371645 -0.04371988 -0.04372093 -0.04372026
 -0.04371829 -0.04371526 -0.04371143 -0.04370662 -0.04370083 -0.04369393 -0.0436859 -0.0436766 -0.04366596 -0.0436545
 -0.04364221 -0.04363042 -0.04361912 -0.04360845 -0.04359797 -0.04358475 -0.04356837 -0.04354524 -0.04351607 -0.04348048
 -0.04344 -0.04339718 -0.04335307 -0.04330987 -0.04326827 -0.04322949 -0.04319406 -0.04316299 -0.04313515 -0.04311077
 -0.04308696 -0.04306302 -0.04303675 -0.04300744 -0.04297524 -0.04293997 -0.04290351 -0.04286594 -0.04282998 -0.04279573
 -0.04276512 -0.04273804 -0.0427146 -0.04269463 -0.04267752 -0.04266319 -0.04265137 -0.04264142 -0.04263238 -0.04262291
 -0.04261079 -0.0425955 -0.04257551 -0.04255167 -0.04252407 -0.04249342 -0.04246007 -0.04242432 -0.04238608 -0.04234673
 -0.04230647 -0.04226667 -0.04222769 -0.04218844 -0.0421489 -0.04210696 -0.04206258 -0.04201515 -0.04196486 -0.04191273
 -0.04185904 -0.04180551 -0.04175223 -0.04170061 -0.04164999 -0.04159999 -0.04154943 -0.04149615 -0.04144076 -0.04138243
 -0.04132396 -0.04126705 -0.0412128 -0.04116277 -0.04111427 -0.04106705 -0.04101778 -0.04096561 -0.04090987 -0.04085022
 -0.04078816 -0.04072376 -0.04065874 -0.04059316 -0.04052796 -0.04046309 -0.04039847 -0.04033429 -0.04027132 -0.04020989
 -0.04015165 -0.04009587 -0.04004251 -0.03998944 -0.03993364 -0.03987411 -0.0398083 -0.0397379 -0.03966304 -0.03958593
 -0.0395078 -0.03942901 -0.03935001 -0.03927009 -0.03918925 -0.03910635 -0.03902129 -0.03893255 -0.03883996 -0.03874302
 -0.03864177 -0.0385377 -0.03843105 -0.03832453 -0.03821835 -0.03811521 -0.03801458 -0.03791684 -0.03782009 -0.03772079
 -0.03761754 -0.037506 -0.03738848 -0.03726498 -0.03713982 -0.03701634 -0.03689545 -0.03677868 -0.03666449 -0.03655252
 -0.03644257 -0.03633455 -0.03622867 -0.03612522 -0.03602159 -0.03591764 -0.03581031 -0.03569952 -0.03558433 -0.03546485
 -0.03534127 -0.03521381 -0.03508338 -0.03495038 -0.03481663 -0.034682 -0.03454704 -0.03441148 -0.03427484 -0.03413785
 -0.03400114 -0.03386489 -0.03373016 -0.03359416 -0.03345567 -0.03331354 -0.03316627 -0.03301804 -0.03286946 -0.0327237
 -0.03258182 -0.0324396 -0.03229689 -0.03214779 -0.03199214 -0.03182942 -0.03165993 -0.0314861 -0.03130762 -0.03112439
 -0.03093551 -0.03073808 -0.03053191 -0.03031449 -0.03008782 -0.02985335 -0.02961366 -0.02937283 -0.02912912 -0.02888376
 -0.02863067 -0.02836673 -0.02809026 -0.02779862 -0.02749886 -0.02719204 -0.02688346 -0.02657481 -0.02626099 -0.02594199
 -0.0256078 -0.02525801 -0.02488731 -0.02449646 -0.0240901 -0.02366993 -0.02324747 -0.02282204 -0.02239916 -0.02197349
 -0.02153701 -0.02108452 -0.02060389 -0.02009602 -0.01955719 -0.01899014 -0.01839748 -0.01777501 -0.01712291 -0.0164318
 -0.01569928 -0.01491633 -0.01408088 -0.01318551 -0.01222808 -0.01121198 -0.01013662 -0.009020659 -0.007864864 -0.006679428
 -0.005462779 -0.004201672 -0.002896154 -0.001537062 -0.0001310994 0.001304126 0.002765828 0.004236424 0.005724381 0.00723788
 0.008775024 0.01034508 0.01191888 0.01347844 0.01500397 0.0164725 0.01791058 0.01931782 0.02073794 0.02218197
 0.02366909 0.02520412 0.02678837 0.02842103 0.03012597 0.03190491 0.03381353 0.03585191 0.03804592 0.04038424
 0.04281784 0.04534328 0.04791324 0.05055521 0.05330181 0.05618763 0.05928181 0.0625962 0.06616493 0.07000113
 0.07410479 0.07855082 0.08335688 0.08865111 0.09448653 0.100917 0.1079896 0.11557 0.1236611 0.132016
 0.1406147 0.1492631 0.1579514 0.1666032 0.1752285 0.1838935 0.1926376 0.201701 0.2111206 0.2211922
 0.23182 0.2429978 0.25447 0.2658134 0.2769288 0.28748 0.2976755 0.3075547 0.3173351 0.3271784
 0.3370527 0.34701 0.3568601 0.3665681 0.3759999 0.3851338 0.39387 0.4022018 0.4099934 0.4172375
 0.4238506 0.4298318 0.435153 0.4398046 0.4437174 0.4468823 0.4492272 0.4507616 0.4514743 0.451371
 0.4504419 0.4487317 0.4462415 0.4431438 0.4395517 0.435641 0.4315463 0.427305 0.4229507 0.4185197
 0.4140086 0.4095453 0.4051516 0.4008943 0.3967905 0.3927356 0.3887245 0.3845949 0.3803475 0.37594
 0.3713933 0.366812 0.3622024 0.3576522 0.3531315 0.348614 0.3440723 0.3394379 0.334732 0.3299319
 0.3251235 0.3203495 0.315726 0.3113199 0.3072215 0.3034748 0.3001405 0.2972381 0.2948172 0.29289
 0.2914724 0.2905698 0.2901468 0.2902016 0.2906879 0.2916048 0.2929299 0.294663 0.2967932 0.2993167
 0.302215 0.3054835 0.3091015 0.3130694 0.3173777 0.3220316 0.327034 0.332388 0.3380997 0.3441616
 0.3505746 0.3573211 0.3643977 0.3717798 0.3794633 0.3874188 0.3956423 0.4041067 0.412811 0.4217148
 0.4308161 0.4400166 0.4493101 0.4585817 0.4678417 0.4770957 0.4863634 0.4957504 0.5052016 0.5146625
 0.5240132 0.532984 0.5416198 0.5497968 0.5578001 0.5658098 0.5740663 0.5828107 0.5919436 0.601577
 0.6111796 0.6207913 0.6291965 0.6363727 0.6401234 0.6402278 0.6349746 0.624226 0.6094912 0.5909621
 0.5719088 0.5523509 0.5340255 0.5167427 0.5007037 0.4857664 0.4716934 0.4584002 0.4456593 0.4333713
 0.42135 0.4094768 0.3975651 0.3856486 0.3736266 0.3618172 0.3503193 0.3393725 0.3291102 0.3193711
 0.3101632 0.3012159 0.2924913 0.2839407 0.2755574 0.2674616 0.2596568 0.2522122 0.2451188 0.238347
 0.2318915 0.2257155 0.2198216 0.214204 0.2088515 0.2037539 0.1988683 0.1941476 0.189534 0.1849592
 0.180403 0.1758247 0.1712607 0.1667146 0.1622248 0.1578011 0.1534697 0.1492233 0.1451736 0.1413244
 0.1378555 0.1347803 0.1321281 0.1298906 0.1279115 0.1261751 0.1245002 0.1228807 0.1211963 0.1194514
 0.1175923 0.1156363 0.113582 0.1114655 0.1093184 0.1072069 0.1051834 0.1033405 0.101738 0.1004647
 0.09956165 0.09911235 0.09912958 0.09975302 0.1009908 0.1030708 0.1060164 0.1100304 0.1151332 0.1212406
 0.1283201 0.1357561 0.1434623 0.1504926 0.1568506 0.1620013 0.1661023 0.1693085 0.1717402 0.1737182
 0.1752185 0.1763348 0.1770325 0.177273 0.1771585 0.1767003 0.1761208 0.175496 0.1750517 0.1748686
 0.1750649 0.1756805 0.1767301 0.1782205 0.1801454 0.1825064 0.1852498 0.1883661 0.1916666 0.1951265
 0.1984664 0.2016781 0.2045656 0.2071622 0.2094454 0.2114794 0.2133612 0.2151711 0.2170381 0.2190561
 0.2213386 0.2239879 0.2270981 0.2307276 0.2349527 0.2396717 0.244914 0.2503648 0.2559823 0.2614482
 0.2667001 0.2717464 0.2765736 0.2815423 0.2866703 0.2923106 0.298436 0.3050147 0.3119636 0.3189072
 0.3257847 0.3322391 0.3382414 0.343598 0.3482336 0.3519976 0.3547604 0.3563553 0.3566912 0.3556455
 0.3532439 0.3494405 0.3443904 0.3381016 0.3308301 0.3226064 0.3137347 0.3042429 0.294457 0.284398
 0.2744168 0.2645307 0.2550405 0.2459468 0.2373931 0.2293619 0.2218534 0.2148513 0.2083119 0.2022239
 0.1965527 0.1912734 0.1863488 0.1817304 0.1773692 0.1732029 0.1691838 0.1652516 0.1613696 0.1574996
 0.1536192 0.1497285 0.1458211 0.1419214 0.1380327 0.134161 0.1303078 0.1264486 0.1225831 0.1187097
 0.1148384 0.1110502 0.1073667 0.1039319 0.1007567 0.09795515 0.09550834 0.09343886 0.09170985 0.09028081
 0.08912114 0.08818633 0.08746206 0.0869266 0.0865736 0.08640002 0.08638455 0.08652877 0.08677608 0.0871235
 0.08747932 0.08783583 0.08808779 0.0882272 0.08816583 0.08790026 0.08739412 0.08665387 0.08571766 0.08460171
 0.08339956 0.0821286 0.0808879 0.07968892 0.07860137 0.07763008 0.07681158 0.07614353 0.07564004 0.07528543
 0.07508046 0.07498734 0.07499712 0.07505027 0.07513072 0.07517824 0.07517674 0.07509471 0.07492332 0.07467049
 0.07433497 0.07394929 0.07351543 0.07307575 0.07263443 0.07224441 0.07191433 0.07171047 0.07164717 0.07179834
 0.07218381 0.0728772 0.07389749 0.07530954 0.07710338 0.07931735 0.08185738 0.08471324 0.08766206 0.09063672
 0.09332341 0.0956203 0.09726544 0.09816939 0.09827928 0.09755366 0.09618957 0.09419005 0.09189765 0.08933075
 0.0868232 0.08438405 0.08223306 0.08035953 0.07883564 0.07762874 0.07668427 0.07595455 0.07531639 0.07472831
 0.07407214 0.07334056 0.07247244 0.07150775 0.07044639 0.06935777 0.06827254 0.0672487 0.06631437 0.06548944
 0.0647862 0.06419169 0.06370702 0.06330825 0.06299376 0.06274153 0.06255032 0.06239995 0.06228907 0.06219657
 0.06212141 0.0620462 0.06197222 0.06189339 0.06181372 0.06173928 0.06167248 0.06162157 0.0615817 0.06155317
 0.06152396 0.06148706 0.06142857 0.06134089 0.06121168 0.06103615 0.06080274 0.06050861 0.06014334 0.05970471
 0.05918899 0.05859498 0.05793186 0.05720023 0.05642349 0.05560341 0.0547682 0.05391813 0.05307052 0.05222214
 0.05137211 0.05051568 0.04964141 0.04874726 0.04782446 0.04687459 0.04589578 0.0448909 0.04386134 0.04280986
 0.04173739 0.04064872 0.03954423 0.03843382 0.03731858 0.03621267 0.03511782 0.03404763 0.03300339 0.03199546
 0.03102448 0.03010036 0.02922391 0.02840769 0.02765251 0.02696991 0.02635937 0.02582551 0.02536665 0.02498075
 0.02466777 0.02442558 0.02425793 0.02416757 0.02415927 0.02423804 0.02440498 0.02466212 0.02500857 0.0254428
 0.02597135 0.02659306 0.02732702 0.02817526 0.02915774 0.03027742 0.03153458 0.0329293 0.03443199 0.03603915
 0.03770014 0.03941032 0.04111695 0.04281811 0.04447754 0.04609953 0.04767372 0.0492112 0.05072393 0.05222429
 0.0537311 0.05525073 0.0567954 0.05836286 0.05995593 0.0615681 0.06319807 0.06483892 0.06648947 0.06814131
 0.06979331 0.07143686 0.07307061 0.07469445 0.07630827 0.07792851 0.0795572 0.0812244 0.08293362 0.0847199
 0.08658762 0.0885703 0.09067226 0.092921 0.0953171 0.09787606 0.10059 0.1034593 0.106466 0.1096003
 0.1128356 0.1161603 0.1195374 0.1229584 0.1263657 0.1297518 0.133034 0.1362019 0.13917 0.1419278
 0.144431 0.146676 0.1486862 0.1504661 0.1520857 0.1535505 0.1549299 0.1562244 0.1574734 0.1586727
 0.1598325 0.1609471 0.162011 0.1630206 0.1639672 0.1648559 0.1656833 0.1664695 0.1672196 0.1679679
 0.168725 0.1695287 0.1703907 0.1713329 0.172364 0.1734716 0.1746583 0.175877 0.1771254 0.1783451
 0.179534 0.1806536 0.1817061 0.1826856 0.1835965 0.1844531 0.1852577 0.1860247 0.186751 0.1874399
 0.1880823 0.1886705 0.1891907 0.1896306 0.1899762 0.1902166 0.1903418 0.1903447 0.1902236 0.1899737
 0.1896109 0.1891326 0.1885841 0.187967 0.1873519 0.186743 0.1862068 0.1857449 0.1853894 0.1851371
 0.1849831 0.1849238 0.1849415 0.1850377 0.1852054 0.1854524 0.1857875 0.186221 0.1867693 0.1874377
 0.1882392 0.1891645 0.1902172 0.1913676 0.1926104 0.1939002 0.1952264 0.1965448 0.1978452 0.1991055
 0.2003203 0.2015002 0.202645 0.2037901 0.2049378 0.2061305 0.2073705 0.2086942 0.2101026 0.2116198
 0.2132441 0.2149848 0.216836 0.2187934 0.2208466 0.2229844 0.2251896 0.2274502 0.2297329 0.2320259
 0.2342659 0.2364375 0.2384441 0.2402652 0.2417915 0.2430014 0.2438162 0.2442211 0.2442068 0.2437699
 0.2429782 0.2418377 0.2404663 0.2388731 0.2371821 0.2353979 0.2336094 0.2318099 0.2300319 0.2282557
 0.2264644 0.2246305 0.2227144 0.220691 0.2185247 0.2162017 0.2137026 0.2110265 0.208168 0.2051321
 0.201919 0.1985337 0.1949759 0.191256 0.1873738 0.1833511 0.179189 0.1749193 0.1705441 0.1660982
 0.1615846 0.1570397 0.1524687 0.1479107 0.1433727 0.1388933 0.134479 0.13016 0.1259394 0.1218341
 0.1178432 0.1139718 0.1102185 0.106583 0.1030666 0.0996691 0.09639431 0.09324308 0.09021943 0.0873244
 0.08455948 0.08192545 0.07941785 0.07703663 0.07477209 0.07262379 0.07058349 0.06865113 0.06682323 0.06509874
 0.06347213 0.06194022 0.06049044 0.05912214 0.05782554 0.05660847 0.05547513 0.05443888 0.05351395 0.05270795
 0.05203222 0.05148108 0.05105717 0.05074464 0.05054044 0.05042769 0.05040252 0.05045483 0.05058248 0.05078447
 0.05106044 0.05141522 0.05184885 0.05236213 0.0529523 0.05360059 0.05429712 0.0549912 0.0556668 0.05625138
 0.05673561 0.05706129 0.05724198 0.05726562 0.05716636 0.05697056 0.05670909 0.05641153 0.05608841 0.05575054
 0.0554036 0.0550462 0.05470628 0.05438476 0.05413049 0.05394913 0.05388068 0.05392917 0.05410613 0.05441163
 0.05483539 0.05537555 0.0560131 0.05674433 0.0575441 0.05840552 0.05929706 0.06021008 0.06111312 0.0619994
 0.06284606 0.06365134 0.06440375 0.06510957 0.06576663 0.06639131 0.06698796 0.06757872 0.0681713 0.06878004
 0.06941178 0.07005779 0.07072042 0.07136603 0.07199289 0.07255997 0.07306545 0.07348448 0.07381841 0.07406857
 0.07423916 0.07434979 0.07440577 0.07443223 0.07443484 0.07443633 0.07444191 0.07446852 0.07451857 0.0746012
 0.07471431 0.07485992 0.07503274 0.07523115 0.07544981 0.07568668 0.07593857 0.076204 0.0764842 0.07677862
 0.0770935 0.07742926 0.07779178 0.07818117 0.07859372 0.07902808 0.07946949 0.07991673 0.08035576 0.08078702
 0.08120546 0.0816102 0.08199854 0.0823653 0.08270207 0.08300413 0.08326144 0.08347861 0.08365275 0.08379934
 0.08392311 0.08404288 0.08416542 0.08430401 0.08446323 0.08464704 0.08485705 0.08509052 0.08534739 0.08562472
 0.08592238 0.08623955 0.08657582 0.08692729 0.08729219 0.08765937 0.08802732 0.08838384 0.088732 0.08907012
 0.08940768 0.08975714 0.09012837 0.09053777 0.09098583 0.09148049 0.09201078 0.09257426 0.09315854 0.09375867
 0.0943687 0.09498698 0.09560762 0.09623037 0.09684387 0.09744713 0.09803151 0.09859666 0.09914739 0.09968501
 0.1002254 0.1007697 0.1013326 0.101913 0.1025157 0.1031382 0.1037771 0.1044311 0.1050963 0.1057734
 0.1064629 0.1071621 0.1078714 0.1085825 0.1092913 0.1099913 0.1106778 0.1113558 0.1120241 0.1126963
 0.1133743 0.1140688 0.1147815 0.1155135 0.1162647 0.1170266 0.1177983 0.1185661 0.1193293 0.1200775
 0.1208109 0.121526 0.1222221 0.1228971 0.1235478 0.1241687 0.1247567 0.1253057 0.1258164 0.1262866
 0.126721 0.1271209 0.1274926 0.1278386 0.1281628 0.1284668 0.1287502 0.1290129 0.1292557 0.1294782
 0.1296878 0.1298848 0.1300776 0.1302658 0.1304466 0.1306182 0.1307682 0.130897 0.1309983 0.1310767
 0.1311387 0.1311909 0.1312453 0.1313098 0.1313955 0.1315135 0.1316738 0.131889 0.132167 0.1325191
 0.1329497 0.1334708 0.1340884 0.1347978 0.1356075 0.136445 0.1373112 0.1380472 0.1386442 0.1389543
 0.1389813 0.1387324 0.1382368 0.137669 0.1370551 0.1365888 0.1362559 0.1361289 0.1361595 0.1363021
 0.1365138 0.136725 0.1369212 0.1370668 0.1371668 0.1372144 0.1372187 0.1371807 0.1371123 0.1370151
 0.1369053 0.136785 0.1366686 0.1365583 0.1364571 0.1363654 0.1362713 0.1361741 0.1360568 0.1359201
 0.1357582 0.1355751 0.1353807 0.1351806 0.1349926 0.134821 0.1346823 0.1345761 0.13451 0.1344767
 0.1344715 0.1344932 0.1345328 0.1346183 0.1347521 0.1349848 0.1353351 0.1358055 0.1364085 0.1370651
 0.1377675 0.1384737 0.1391803 0.1399257 0.140711 0.1415671 0.142486 0.1434349 0.1443966 0.1452924
 0.1461043 0.1467523 0.1472193 0.1474419 0.1474078 0.1470745 0.1464497 0.1455166 0.1443156 0.142852
 0.1412033 0.1393887 0.1375114 0.1355951 0.1337408 0.1319679 0.130348 0.1288918 0.1276263 0.1265541
 0.1256609 0.1249445 0.1243689 0.1239309 0.123593 0.1233524 0.1231784 0.1230691 0.1230035 0.122983
 0.1230032 0.1230601 0.1231621 0.1232601 0.123342 0.1232843 0.1230229 0.1224379 0.1214461 0.1200741
 0.1182808 0.1162806 0.114086 0.1119892 0.110023 0.1083867 0.1070969 0.1061579 0.1055626 0.1051774
 0.1049929 0.1048772 0.1048357 0.1048165 0.1048363 0.1049113 0.1050562 0.105307 0.1056655 0.1061518
 0.1067532 0.1074679 0.1082764 0.1091666 0.1101256 0.1111423 0.1122245 0.1133679 0.1146039 0.1159353
 0.1174005 0.1190043 0.1207706 0.1227016 0.1247996 0.1270635 0.1294745 0.1320244 0.1346555 0.1373443
 0.1399744 0.1425059 0.1447803 0.1467569 0.1482877 0.1493571 0.1498734 0.149876 0.1493454 0.1483947
 0.1470642 0.1455165 0.1438174 0.1421127 0.140456 0.1389278 0.1375557 0.1363485 0.1353144 0.1344041
 0.1336159 0.1328705 0.1321643 0.1314313 0.1306718 0.1298566 0.1289881 0.12806 0.1270746 0.1260326
 0.124942 0.1238156 0.1226655 0.1215149 0.1203643 0.1192278 0.1180839 0.1169273 0.1157259 0.114465
 0.1131246 0.1116942 0.1101741 0.1085616 0.106867 0.1050902 0.1032495 0.101345 0.09942172 0.09748311
 0.09560221 0.09378124 0.09207489 0.09047469 0.08897479 0.08756273 0.08619779 0.08488049 0.0835892 0.08233843
 0.08113913 0.08000174 0.07894327 0.07795746 0.07704814 0.07619796 0.07540014 0.07464325 0.07392021 0.07323764
 0.07259532 0.07200344 0.07146571 0.07096338 0.07049652 0.07001173 0.06950817</values></Ydata></AB><ScSm><Ydata ylabel="Single channel"><values byteorder="INTEL" format="FLOAT32" numvalues="1814"> 0.08315074 0.08325899 0.08338687 0.08353793 0.08370085 0.08385825 0.08399819 0.08412111 0.0842348 0.08434205
 0.08444156 0.08454283 0.08466619 0.08482026 0.08498845 0.08514196 0.08526292 0.08535977 0.08546506 0.08560534
 0.08576223 0.08587408 0.08589149 0.08583207 0.08577146 0.08577584 0.08585671 0.08600822 0.08625363 0.08658413
 0.08686601 0.08692452 0.08676395 0.08660322 0.08663418 0.08682816 0.08702357 0.08710571 0.08705314 0.08692153
 0.08686632 0.08709598 0.08768442 0.08841437 0.08884326 0.08856023 0.08745949 0.08588745 0.08456056 0.08419207
 0.08497795 0.08637914 0.0875245 0.08791433 0.08769333 0.0872798 0.08692796 0.08671945 0.08675802 0.08715397
 0.08784366 0.08851627 0.08873604 0.08822833 0.08718862 0.08624943 0.08596562 0.08638231 0.08722515 0.08823419
 0.08892317 0.08832841 0.0858559 0.08258346 0.08093692 0.08245347 0.08617367 0.08963902 0.09113416 0.09060302
 0.08894216 0.08720166 0.08630742 0.08674961 0.08826293 0.09008867 0.09157854 0.09237482 0.09225306 0.09122364
 0.08974415 0.0885272 0.08814047 0.08883961 0.09047029 0.09231398 0.09337042 0.09314227 0.09200972 0.09073798
 0.08991225 0.08990734 0.09091829 0.09273066 0.09473906 0.09639414 0.09748821 0.09803586 0.09814034 0.09797187
 0.09768373 0.09739104 0.09728763 0.09754728 0.09798911 0.09811263 0.09765351 0.09693959 0.09655859 0.0967501
 0.09719759 0.09741133 0.09721719 0.09666942 0.09555055 0.09347107 0.09066582 0.08813139 0.08665474 0.0862552
 0.0868109 0.08839782 0.09052866 0.09190792 0.09172799 0.09075668 0.09051049 0.09161259 0.09339288 0.09486679
 0.0956942 0.09624026 0.09700213 0.09804718 0.09886639 0.09875081 0.09751683 0.09595738 0.09531564 0.09608582
 0.09753322 0.09859498 0.09899434 0.09922008 0.0996545 0.1000171 0.09961163 0.09807332 0.09599254 0.09471045
 0.09521703 0.09717329 0.09908636 0.09944317 0.09778655 0.09495588 0.09238023 0.0910529 0.09113848 0.09237538
 0.09444124 0.09681228 0.09867264 0.09932489 0.09867604 0.09721611 0.09548798 0.09359288 0.0913697 0.08914512
 0.08794732 0.08854935 0.09047438 0.09236816 0.09325422 0.09308706 0.09220737 0.09068431 0.08838417 0.08560735
 0.08338284 0.08271874 0.08346419 0.08432551 0.08423652 0.08335736 0.08251016 0.08205059 0.08166556 0.08104013
 0.08032594 0.07991432 0.07993226 0.08008067 0.07995279 0.07941289 0.07862727 0.0778238 0.07708107 0.07629083
 0.07532866 0.07432495 0.07366918 0.07360025 0.07388307 0.07404522 0.07384713 0.0733796 0.07278222 0.07201838
 0.07095201 0.0696185 0.0683667 0.06761862 0.06745818 0.06756301 0.0675512 0.06726918 0.06675681 0.06610683
 0.06540395 0.06469851 0.06400968 0.06337945 0.06287235 0.06248603 0.06212489 0.06169578 0.06118118 0.06060663
 0.05998735 0.0593276 0.05865053 0.0580098 0.0574582 0.05700178 0.05660165 0.05621826 0.0558264 0.05539648
 0.05490505 0.0543671 0.05382673 0.05331638 0.05284318 0.05240554 0.05200379 0.05163504 0.05128495 0.05093037
 0.05055768 0.05017438 0.04979372 0.04941653 0.04903893 0.04866809 0.04831936 0.04800289 0.04771443 0.04743749
 0.04716297 0.04690456 0.04667559 0.04645467 0.04620165 0.04590666 0.04559899 0.04531105 0.04505391 0.04482182
 0.04460127 0.04437571 0.04413162 0.04386613 0.04359465 0.04334875 0.04315461 0.04301342 0.04290828 0.04281929
 0.04272292 0.04259651 0.04243877 0.04227135 0.04211114 0.04195559 0.04179861 0.0416459 0.04151213 0.04141023
 0.04133936 0.04128068 0.0412115 0.04112381 0.04102505 0.04092965 0.04085372 0.04080292 0.04076014 0.04070053
 0.04062328 0.04055413 0.04051375 0.04049537 0.04047532 0.040438 0.04038895 0.04034608 0.04031967 0.0403039
 0.04028816 0.04027025 0.04025552 0.04024728 0.04023961 0.04021998 0.04018285 0.04013953 0.04010738 0.04009096
 0.04008172 0.04007284 0.04006494 0.0400587 0.04004942 0.04002987 0.03999765 0.03995956 0.03992538 0.03989474
 0.03985632 0.03980342 0.0397433 0.03968672 0.03963467 0.03957913 0.03951256 0.0394333 0.03934361 0.03924467
 0.03913574 0.0390178 0.03889436 0.03876768 0.03863876 0.03851164 0.03839163 0.03827722 0.03815887 0.03802871
 0.03788889 0.03774968 0.03762077 0.03750408 0.03739463 0.03728828 0.03718738 0.03709799 0.0370242 0.03696626
 0.03692188 0.0368889 0.03687003 0.03687494 0.03691293 0.03698147 0.03706531 0.03715006 0.03723487 0.03732945
 0.03744061 0.03756533 0.03769682 0.0378328 0.03797618 0.03813048 0.03829512 0.0384641 0.03863002 0.03879113
 0.03895309 0.03912304 0.03930481 0.0394998 0.03970657 0.03991789 0.04012432 0.04032446 0.04052672 0.04073901
 0.04096156 0.04119211 0.04143269 0.0416868 0.04195379 0.04222995 0.04251386 0.04280769 0.04311395 0.04343211
 0.04375795 0.04408599 0.04441425 0.04474736 0.04509368 0.04545757 0.04583459 0.04621569 0.04659603 0.04697849
 0.04736841 0.04776648 0.04816912 0.04857545 0.04899057 0.04941998 0.0498616 0.05030629 0.05074611 0.05118046
 0.05161369 0.05204948 0.05248854 0.05292983 0.05337197 0.05381374 0.05425385 0.05469061 0.05512264 0.05555077
 0.05597833 0.05640821 0.05684037 0.05727213 0.05769954 0.05811878 0.05852964 0.05893748 0.0593478 0.05975896
 0.06016389 0.06055899 0.0609473 0.06133208 0.06171134 0.06208069 0.06243946 0.06279151 0.06313997 0.06348272
 0.06381439 0.06413242 0.06444007 0.06474386 0.06504872 0.06535579 0.06566522 0.06597998 0.06630339 0.06663182
 0.06695455 0.06726411 0.06756432 0.06786503 0.06817137 0.06848088 0.06878868 0.06909341 0.06939809 0.0697045
 0.0700084 0.07030594 0.07060528 0.07092345 0.07126918 0.07163574 0.07201414 0.07240459 0.07280929 0.07322143
 0.07363024 0.07403524 0.07444672 0.0748693 0.07529053 0.07569112 0.07606355 0.0764154 0.07675847 0.07710302
 0.07745942 0.07783486 0.07822584 0.07861923 0.07900006 0.07935604 0.07968043 0.07997641 0.08025333 0.0805136
 0.08074743 0.08094402 0.08110239 0.08122897 0.08132872 0.08139978 0.08143236 0.08141064 0.08131739 0.08113779
 0.08086045 0.08048022 0.08000176 0.07943635 0.0787911 0.07806185 0.07723865 0.0763164 0.07529643 0.07417868
 0.07295795 0.07163329 0.07022455 0.06878302 0.06738903 0.06613573 0.06510751 0.06437005 0.06397533 0.0639573
 0.06429814 0.06488846 0.06552968 0.06599155 0.06608967 0.06573596 0.06493949 0.06376696 0.06229515 0.06059449
 0.05875693 0.05692964 0.05528976 0.05395228 0.05289531 0.051976 0.0510086 0.04987111 0.04868826 0.04802705
 0.04878906 0.0516242 0.05630443 0.06174834 0.06674463 0.07065691 0.0735172 0.07565872 0.07738391 0.07887374
 0.08022487 0.0814904 0.08269817 0.08385342 0.08493848 0.08592254 0.08677302 0.08745633 0.08793756 0.08819461
 0.08824327 0.08815663 0.08805522 0.08805499 0.08820001 0.08843151 0.08861189 0.08857481 0.08815773 0.08719805
 0.08555195 0.0832572 0.08081745 0.07928071 0.07978824 0.08281185 0.08777238 0.09343003 0.09865819 0.1029159
 0.1061898 0.1086948 0.1106593 0.1122574 0.1136104 0.1148013 0.1158877 0.1169074 0.1178813 0.1188174
 0.1197182 0.1205856 0.121422 0.1222298 0.1230102 0.1237654 0.1245014 0.1252264 0.125947 0.126664
 0.1273731 0.1280686 0.1287498 0.1294228 0.1300932 0.1307592 0.1314136 0.1320525 0.1326802 0.1333031
 0.1339239 0.1345406 0.1351499 0.1357496 0.1363386 0.1369159 0.137481 0.1380347 0.1385785 0.1391139
 0.139643 0.1401681 0.1406902 0.1412082 0.1417205 0.1422264 0.1427244 0.1432119 0.1436879 0.144155
 0.1446192 0.145086 0.1455579 0.1460342 0.1465135 0.1469968 0.1474879 0.1479891 0.1484982 0.1490113
 0.1495256 0.1500399 0.1505525 0.1510621 0.1515701 0.1520776 0.1525829 0.1530822 0.1535743 0.1540606
 0.154544 0.1550273 0.1555116 0.1559961 0.1564778 0.1569538 0.1574232 0.1578874 0.1583493 0.1588129
 0.1592817 0.1597557 0.1602298 0.1606955 0.1611484 0.1615908 0.1620286 0.1624675 0.1629107 0.16336
 0.1638141 0.1642698 0.1647248 0.1651795 0.1656366 0.1660977 0.1665616 0.1670261 0.1674901 0.167954
 0.1684178 0.1688811 0.1693433 0.1698034 0.1702596 0.1707105 0.1711558 0.1715979 0.1720403 0.1724856
 0.1729307 0.1733696 0.1737995 0.1742222 0.1746412 0.1750595 0.1754786 0.1758981 0.1763151 0.1767281
 0.1771367 0.1775407 0.1779404 0.1783382 0.1787368 0.1791368 0.1795387 0.1799414 0.1803427 0.1807392
 0.1811285 0.1815099 0.1818844 0.182256 0.1826268 0.1829941 0.1833557 0.1837137 0.1840728 0.1844351
 0.1848019 0.1851726 0.1855438 0.1859106 0.1862705 0.1866238 0.186974 0.1873295 0.1876965 0.188073
 0.1884506 0.1888231 0.1891896 0.1895531 0.1899165 0.1902781 0.1906343 0.1909868 0.1913421 0.191701
 0.1920571 0.1924065 0.1927516 0.193096 0.1934404 0.1937826 0.1941186 0.194447 0.1947712 0.1950943
 0.1954143 0.1957295 0.1960436 0.1963606 0.1966804 0.197001 0.1973197 0.1976359 0.1979544 0.1982813
 0.1986156 0.1989521 0.1992896 0.1996283 0.1999663 0.2003036 0.2006438 0.2009872 0.2013319 0.2016793
 0.2020315 0.2023867 0.2027432 0.2031005 0.2034545 0.2038004 0.2041399 0.2044764 0.2048086 0.205135
 0.2054567 0.2057746 0.2060909 0.2064114 0.2067362 0.2070587 0.2073759 0.2076905 0.2080009 0.2083052
 0.2086073 0.2089096 0.2092086 0.2095051 0.2098039 0.2101035 0.2104006 0.2106983 0.2109985 0.2112948
 0.2115854 0.2118752 0.2121646 0.2124517 0.2127381 0.2130222 0.213297 0.2135635 0.2138261 0.214077
 0.2142957 0.2144371 0.2143736 0.213828 0.2123375 0.2092635 0.203914 0.1958136 0.1849844 0.1720351
 0.1579973 0.1440035 0.1309773 0.1195032 0.1098946 0.1023131 0.09685409 0.09362452 0.09280413 0.09472811
 0.09999929 0.1091312 0.1212311 0.1328585 0.1393061 0.1381582 0.1314776 0.1239358 0.11901 0.1172733
 0.1175643 0.1187271 0.1202997 0.1223893 0.1252754 0.128997 0.133307 0.1380774 0.1435372 0.1499209
 0.1570121 0.1642228 0.1710898 0.1775728 0.1838755 0.190082 0.1960234 0.2014392 0.2061776 0.2102407
 0.2137275 0.216773 0.2195009 0.2219962 0.2243143 0.2264824 0.2284639 0.2301462 0.2314066 0.2322086
 0.2326455 0.2328974 0.2331344 0.2334435 0.2338364 0.2343023 0.234834 0.2354254 0.2360691 0.2367563
 0.2374698 0.2381897 0.2389067 0.2396172 0.2403118 0.2409818 0.2416259 0.2422429 0.2428282 0.2433836
 0.2439174 0.2444367 0.2449471 0.245454 0.245956 0.2464478 0.2469278 0.2473967 0.2478506 0.2482845
 0.2486988 0.2490963 0.2494797 0.249854 0.2502235 0.2505879 0.250946 0.2512999 0.251651 0.2520001
 0.2523502 0.2527039 0.2530596 0.2534165 0.2537752 0.2541314 0.2544777 0.2548123 0.255141 0.2554717
 0.2558108 0.2561615 0.2565181 0.2568698 0.2572098 0.2575393 0.2578667 0.2582061 0.2585683 0.2589493
 0.2593334 0.2597107 0.2600829 0.2604545 0.2608279 0.2612049 0.2615849 0.2619647 0.2623439 0.2627236
 0.2631 0.2634642 0.26381 0.2641403 0.2644663 0.2647997 0.2651432 0.2654902 0.2658353 0.2661806
 0.26653 0.2668858 0.2672482 0.2676141 0.2679788 0.2683444 0.2687197 0.2691074 0.2695006 0.2698949
 0.2702934 0.270696 0.2710977 0.271496 0.2718917 0.2722811 0.2726596 0.273032 0.2734154 0.2738281
 0.2742732 0.2747305 0.2751752 0.2756006 0.2760181 0.2764405 0.2768731 0.2773098 0.2777243 0.2780869
 0.2784085 0.2787508 0.2791716 0.2796679 0.2801881 0.2806854 0.2811486 0.2815903 0.2820222 0.2824416
 0.2828366 0.2832005 0.283547 0.2839144 0.2843425 0.2848326 0.2853398 0.2858172 0.2862538 0.2866628
 0.2870569 0.2874433 0.2878099 0.2881113 0.2883159 0.2884864 0.2887652 0.2892414 0.2898535 0.290455
 0.2909598 0.2913903 0.291798 0.2921922 0.2925578 0.2928729 0.2930707 0.29307 0.2929306 0.2929124
 0.293267 0.2939819 0.2948074 0.2955096 0.2960245 0.2964077 0.2967312 0.2970351 0.2973021 0.2974572
 0.2974484 0.2973666 0.2974329 0.2977988 0.2983769 0.2989364 0.2993443 0.2996415 0.2999191 0.3002126
 0.3004815 0.3005893 0.3003654 0.2998393 0.2993981 0.299535 0.3003722 0.3015209 0.3024721 0.3030494
 0.3034068 0.3036711 0.3037555 0.3035173 0.3029298 0.3020927 0.301283 0.3009975 0.3016279 0.3029636
 0.3042769 0.3050523 0.3054306 0.3058429 0.3064472 0.307061 0.3074616 0.3075843 0.3074847 0.3072131
 0.3067906 0.3063523 0.3062333 0.3067356 0.3077748 0.3088984 0.3097093 0.3101811 0.3104756 0.3104827
 0.3096961 0.3078119 0.3055196 0.3043396 0.305273 0.3077446 0.3102252 0.311747 0.3124366 0.3128
 0.3130618 0.3131028 0.3124493 0.3104311 0.3070957 0.3040054 0.3032904 0.3055521 0.3091883 0.3119439
 0.3126363 0.3114001 0.3091058 0.3069543 0.3060573 0.3068359 0.3088377 0.3111969 0.3131578 0.3142801
 0.3144673 0.3139286 0.3130887 0.3124669 0.3123544 0.3123802 0.3117374 0.3102265 0.308639 0.3075401
 0.306233 0.3039001 0.3014239 0.3008372 0.3028035 0.3056563 0.3073285 0.3074638 0.3070521 0.3064409
 0.3045106 0.3001527 0.2943203 0.2900068 0.289678 0.2928136 0.2964239 0.297978 0.2973987 0.2962271
 0.2954344 0.2943835 0.2917809 0.287499 0.2832667 0.2811154 0.2811155 0.281282 0.2797723 0.2762148
 0.2707828 0.2636674 0.256481 0.252579 0.2541202 0.2593686 0.2642126 0.2657152 0.2630632 0.2563394
 0.2467059 0.237549 0.2329648 0.2339801 0.2373223 0.2385463 0.2355305 0.2286048 0.2187101 0.2068618
 0.1949637 0.1856312 0.1805066 0.1789519 0.1783567 0.1754825 0.1681405 0.1568178 0.1448817 0.1361044
 0.1313437 0.1281468 0.1237668 0.1177608 0.1114681 0.1061001 0.1020197 0.09907259 0.09686288 0.09504364
 0.09357241 0.09223992 0.09015466 0.08672656 0.08320481 0.08201578 0.0841906 0.08846883 0.09322995 0.09804761
 0.1027335 0.1061949 0.1075606 0.1078819 0.1094706 0.1134616 0.1187195 0.1232625 0.1262701 0.1284335
 0.1306011 0.1326083 0.1338055 0.1344447 0.1357344 0.1382548 0.1409983 0.142456 0.1421595 0.1406888
 0.1386397 0.1361541 0.133195 0.1297721 0.1259356 0.1217937 0.1174985 0.113131 0.1086862 0.1041866
 0.09966694 0.09498863 0.08985669 0.08427553 0.07894766 0.07484673 0.07222822 0.07038999 0.06853938 0.06638069
 0.06365407 0.05996022 0.05580112 0.05324687 0.05459801 0.06028495 0.06847032 0.07663743 0.08323359 0.08787908
 0.09068122 0.0921477 0.09384754 0.0981961 0.1066265 0.1181365 0.1302378 0.141094 0.1501744 0.1572727
 0.1619594 0.1643217 0.1657059 0.1682028 0.173252 0.1807075 0.1889668 0.1956186 0.1984481 0.1973143
 0.1955865 0.19807 0.2060413 0.2154094 0.2212491 0.223103 0.2241998 0.226611 0.229508 0.2318392
 0.2342948 0.2378305 0.2416875 0.243779 0.2422521 0.2361494 0.2256958 0.2131303 0.2024189 0.1964438
 0.1945068 0.1937089 0.1922543 0.1899818 0.1866097 0.1819732 0.1779006 0.1772624 0.180378 0.1841335
 0.1853857 0.1839407 0.1816035 0.1794365 0.1768344 0.1729357 0.1682311 0.1643579 0.1622794 0.1611425
 0.1593383 0.1562605 0.1524058 0.148138 0.1432941 0.1380718 0.1334899 0.130502 0.1289701 0.1278994
 0.1265869 0.1252603 0.1246715 0.1254067 0.1276303 0.1311676 0.1357217 0.1412106 0.1478513 0.1556166
 0.163703 0.1709957 0.1771253 0.182696 0.1883796 0.1940995 0.1992321 0.2033985 0.2069109 0.2105248
 0.2148182 0.219739 0.2246767 0.2290009 0.2326283 0.2360805 0.2399046 0.2440323 0.247813 0.2506636
 0.2525243 0.2536949 0.2544599 0.254934 0.2550856 0.2548714 0.2545176 0.2546554 0.2559233 0.2583417
 0.261222 0.2637454 0.2655216 0.2665956 0.2671176 0.2671599 0.2668054 0.2662742 0.2658718 0.2658102
 0.2661 0.2666047 0.2671472 0.2675543 0.2676535 0.2672763 0.2662583 0.264452 0.2618281 0.2586508
 0.2555481 0.2533265 0.252615 0.2535798 0.2558753 0.2588164 0.261654 0.2638346 0.2651467 0.2657122
 0.2658412 0.2658335 0.2658176 0.2656977 0.2652497 0.2643463 0.2631832 0.2623023 0.2623193 0.2635278
 0.2657048 0.2682692 0.2706308 0.2724458 0.2736502 0.2743541 0.2747265 0.2749258 0.2750689 0.2752279
 0.2754476 0.2757663 0.276215 0.2767979 0.277483 0.2782243 0.2789968 0.279808 0.280675 0.2815957
 0.2825471 0.283505 0.2844554 0.2853842 0.2862623 0.2870441 0.2876773 0.2881185 0.288346 0.2883675
 0.2882163 0.2879326 0.2875327 0.2869875 0.2862346 0.2852118 0.2838681 0.2821507 0.2800363 0.2775992
 0.2750089 0.2724096 0.2698157 0.2671574 0.2644019 0.2615887 0.2587648 0.2559346 0.253079 0.2501884
 0.2472641 0.2443021 0.2412911 0.2382264 0.2351176 0.2319752 0.2287866 0.2255112 0.2220968 0.2184919
 0.2146378 0.2104623 0.2058928 0.2008809 0.1954176 0.1895443 0.1833713 0.1770851 0.1709144 0.1650558
 0.159617 0.154624 0.1500765 0.1459961 0.1424353 0.1394577 0.1371109 0.1354082 0.1343247 0.1338093
 0.133799 0.1342343 0.1350693 0.1362681 0.1377838 0.1395337 0.1413941 0.1432262 0.1449286 0.1464811
 0.1479408 0.149385 0.1508535 0.1523429 0.1538354 0.1553083 0.1567116 0.1579611 0.1589763 0.159728
 0.1602444 0.1605746 0.1607459 0.1607479 0.1605465 0.1601172 0.1594764 0.1586906 0.1578561 0.15706
 0.1563437 0.155692 0.1550559 0.1543861 0.1536502 0.152832 0.1519278 0.1509448 0.1498998 0.1488225
 0.1477718 0.1468545 0.1462246 0.1460518 0.1464635 0.1474934 0.1490645 0.1510181 0.1531654 0.1553409
 0.1574459 0.1594656 0.1614517 0.1634786 0.165603 0.1678538 0.1702488 0.1728093 0.1755501 0.1784648
 0.1815266 0.1847 0.1879387 0.1911764 0.1943318 0.1973336 0.200146 0.2027752 0.2052443 0.2075583
 0.2096936 0.2116219 0.2133352 0.2148492 0.216188 0.2173676 0.2183895 0.2192525 0.219967 0.2205469
 0.220983 0.2212352 0.2212512 0.2209865 0.2204163 0.2195396 0.2183686 0.2169109 0.2151712 0.213176
 0.2110008 0.2087728 0.2066352 0.2046788 0.2028923 0.2011879 0.1994782 0.1977229 0.1959144 0.1940477
 0.192114 0.1901118 0.1880551 0.1859668 0.1838683 0.1817813 0.1797357 0.1777643 0.1758889 0.1741204
 0.1724626 0.1709051 0.1694245 0.1680063 0.1666644 0.1654378 0.1643742 0.1635095 0.1628461 0.162349
 0.161965 0.1616442 0.1613569 0.1611094 0.1609331 0.1608374 0.1607778 0.1606816 0.1604958 0.1602113
 0.1598588 0.1594881 0.1591389 0.1588272 0.1585503 0.1582856 0.1579797 0.1575557 0.1569302 0.1560245
 0.1547823 0.1532 0.1513392 0.1493139 0.1472676 0.1453429 0.1436461 0.1422325 0.1411109 0.1402363
 0.1395159 0.1388631 0.1382611 0.1377669 0.1374542 0.1373354 0.1373155 0.1372421 0.1370423 0.1368021
 0.136687 0.1368006 0.1371228 0.1375449 0.1379407 0.1382278 0.138382 0.1384088 0.1383221 0.1381406
 0.1378736 0.1375099 0.1370395 0.1364708 0.1358155 0.1350829 0.1342963 0.1334843 0.1326592 0.1318211
 0.1309652 0.1300733 0.1291285 0.1281324 0.1270799 0.1259457 0.124756 0.1236539 0.1228527 0.1225211
 0.1226959 0.123263 0.1240338 0.1248604 0.125652 0.1262936 0.1266595 0.1267664 0.1268636 0.1273209
 0.1284013 0.1300772 0.1320172 0.1337693 0.1349908 0.1355499 0.1355021 0.1350052 0.1341986 0.1331364
 0.1318537 0.13043 0.128942 0.1274364 0.1259821 0.1246592 0.1235034 0.1225295 0.1217497 0.1211723
 0.1208502 0.1205876 0.1192357 0.1150805 0.1082338 0.1022163 0.1013099 0.105941 0.1121023 0.1156728
 0.1159486 0.1146901 0.1133994 0.1124726 0.1119377 0.111896 0.1123865 0.1132847 0.1143441 0.1152908
 0.115955 0.1162795 0.1161354 0.1151417 0.1126522 0.1079853 0.1009421 0.09228025 0.08355162 0.07630426
 0.07136002 0.0686588 0.06752816 0.06712541 0.06690272 0.06683832 0.06725065 0.06841602 0.07037309 0.07299204
 0.07608145 0.07937278 0.0824928 0.08508926 0.08701724 0.0883417 0.08915965 0.08949301 0.08934204 0.08874643
 0.08777111 0.08648601 0.08496682 0.08328749 0.08152258 0.07978091 0.07823294 0.07708599 0.07649438 0.07644912
 0.07676069 0.07718723 0.07758135 0.0779152 0.0782209 0.07854578 0.07892741 0.07937783 0.07989851 0.08049595
 0.08115694 0.08183217 0.082473 0.08306905 0.08363846 0.08419584 0.0847294 0.08520886 0.08563238 0.08603896
 0.08641563 0.086615 0.08646005 0.08596009 0.08537909 0.08506875 0.08523088 0.08580227 0.08652985 0.08716211
 0.08759804 0.08788744 0.08811843 0.08830521</values></Ydata></ScSm><ScRf><Ydata ylabel="Single channel"><values byteorder="INTEL" format="FLOAT32" numvalues="1820"> 0.06971452 0.06984301 0.06995882 0.07006132 0.0701554 0.07025161 0.07036045 0.0704847 0.07061874 0.07075281
 0.07087746 0.07098842 0.07108653 0.07117189 0.07124549 0.07131895 0.07141222 0.07153481 0.07167509 0.07180965
 0.07191984 0.072006 0.07209107 0.07219927 0.07232156 0.0724113 0.07242662 0.07237682 0.07232073 0.07231535
 0.072377 0.07250546 0.07271831 0.07300179 0.07323881 0.07328351 0.07314413 0.07300723 0.07303201 0.07319181
 0.07335195 0.07341872 0.07337393 0.07326265 0.0732159 0.07341056 0.07390795 0.07452148 0.07487448 0.07461932
 0.07366996 0.07232598 0.0711991 0.07089356 0.07157044 0.07276684 0.07374111 0.07407089 0.07388248 0.07353226
 0.07323483 0.07305808 0.07308991 0.07342397 0.07400598 0.0745718 0.07475128 0.07431243 0.0734246 0.0726269
 0.07238784 0.072742 0.073457 0.07431437 0.07489884 0.07438931 0.07228794 0.0695222 0.06815297 0.06946875
 0.07263651 0.07556765 0.07681866 0.07635297 0.07493553 0.07346088 0.07271687 0.07311311 0.07441324 0.07596952
 0.07723651 0.07791458 0.07781305 0.07694054 0.07568553 0.07465234 0.07432522 0.07492648 0.07632516 0.07790335
 0.07880523 0.07861057 0.07764824 0.07657155 0.07587785 0.07588461 0.0767563 0.07830949 0.08002885 0.08144604
 0.08238284 0.08285215 0.08294496 0.08280936 0.08257666 0.08234407 0.08227468 0.08251295 0.08290094 0.08301166
 0.08262382 0.08202145 0.08170687 0.08188289 0.08227868 0.08247772 0.08233267 0.08188696 0.08094844 0.0791828
 0.0767982 0.07465389 0.07342103 0.07311182 0.07362279 0.07501696 0.076866 0.0780553 0.07790699 0.0770968
 0.07692374 0.07790652 0.07946127 0.08074886 0.08148792 0.08199562 0.08269192 0.08362517 0.08435708 0.08428803
 0.08327183 0.08199603 0.08152579 0.0822732 0.08359432 0.08457704 0.08499742 0.08528638 0.08577179 0.0862048
 0.08597983 0.08478451 0.08314011 0.08221541 0.08286181 0.08477074 0.08663732 0.0871471 0.08590993 0.0836705
 0.08168608 0.08082445 0.08122857 0.08267742 0.08489335 0.08740399 0.08946952 0.09045823 0.09028229 0.08938131
 0.08824287 0.08694725 0.08534245 0.08375536 0.08317622 0.08433184 0.08675177 0.08914356 0.09058425 0.09103051
 0.09079266 0.08990899 0.08823064 0.08607261 0.08450273 0.08454686 0.0860181 0.08756939 0.08812647 0.08789138
 0.08772369 0.08797012 0.0882799 0.08832403 0.08828747 0.08860564 0.08940677 0.0903451 0.09096431 0.0911155
 0.09098991 0.09085026 0.090781 0.09063967 0.09027861 0.08987974 0.0899327 0.0907155 0.09191681 0.09294923
 0.09352844 0.09378113 0.09387998 0.09375441 0.09320785 0.0922945 0.09149844 0.09138821 0.09206567 0.09309037
 0.09394771 0.09443103 0.09459492 0.09456489 0.09445234 0.09432307 0.09420924 0.09418233 0.09434298 0.09468493
 0.09505503 0.09530436 0.09541018 0.09542047 0.09535593 0.09521285 0.09502498 0.09488091 0.0948679 0.09500234
 0.0952282 0.09547476 0.09568588 0.09580763 0.09580679 0.09571379 0.09560506 0.09553307 0.09550352 0.09551521
 0.09558146 0.09570166 0.09583941 0.09594815 0.09600998 0.09603657 0.09604017 0.09602165 0.09598678 0.09595846
 0.09596696 0.09602894 0.09613024 0.09623442 0.0963237 0.09642082 0.09654491 0.09666088 0.09671085 0.09668906
 0.09665108 0.09665245 0.0967049 0.09678593 0.09686401 0.09690957 0.09690064 0.09683894 0.09676764 0.09675667
 0.09685157 0.09704142 0.09728225 0.09753115 0.0977499 0.09790967 0.09801444 0.09809837 0.09818499 0.09826602
 0.0983265 0.09837572 0.09844828 0.09857742 0.09876246 0.09896432 0.09913925 0.09927082 0.09936844 0.09945744
 0.09957302 0.09973008 0.09988932 0.09998849 0.1000217 0.1000551 0.1001481 0.1002849 0.1004006 0.1004586
 0.1004847 0.1005312 0.1006202 0.1007302 0.1008303 0.100917 0.1010129 0.1011336 0.101257 0.1013336
 0.1013354 0.1012913 0.1012576 0.1012601 0.101286 0.1013241 0.1013836 0.1014668 0.1015475 0.1015905
 0.1015902 0.1015767 0.1015825 0.1016072 0.1016196 0.1015947 0.1015389 0.1014802 0.1014421 0.1014284
 0.1014249 0.1014106 0.1013725 0.1013111 0.1012367 0.1011597 0.101085 0.1010172 0.1009707 0.1009666
 0.1010033 0.101032 0.1009836 0.1008326 0.1006267 0.1004442 0.1003257 0.1002501 0.1001673 0.1000449
 0.09988728 0.09972145 0.09957144 0.09944443 0.09933299 0.09922655 0.09912644 0.09905127 0.09901785 0.09901033
 0.09898017 0.09889039 0.09875455 0.09862009 0.09852047 0.09845568 0.09840965 0.09837005 0.09833454 0.09831047
 0.0983054 0.09831168 0.09830921 0.0982899 0.09826959 0.09827277 0.09831566 0.09840164 0.09851484 0.09861776
 0.09867696 0.09869827 0.09872222 0.09878142 0.09887549 0.09898756 0.0991082 0.09923719 0.09937574 0.09952661
 0.09969537 0.0998852 0.1000928 0.100311 0.1005321 0.1007492 0.1009601 0.1011725 0.1014012 0.1016555
 0.1019301 0.1022096 0.1024826 0.1027509 0.1030246 0.1033075 0.1035913 0.1038683 0.1041455 0.1044385
 0.1047531 0.105079 0.1054034 0.1057233 0.1060434 0.1063672 0.1066928 0.1070196 0.1073565 0.1077162
 0.1080935 0.1084577 0.1087766 0.1090508 0.1093153 0.1096078 0.1099402 0.1102939 0.1106332 0.1109309
 0.111192 0.1114515 0.1117371 0.1120414 0.1123405 0.1126352 0.1129552 0.1133194 0.1137013 0.114045
 0.1143164 0.114534 0.1147468 0.1149824 0.1152265 0.1154532 0.1156631 0.1158794 0.1161136 0.1163564
 0.1166009 0.1168569 0.1171307 0.1174057 0.1176564 0.117877 0.1180816 0.1182804 0.1184661 0.1186217
 0.1187387 0.1188292 0.1189227 0.1190442 0.1191907 0.1193384 0.119475 0.1196144 0.1197756 0.1199613
 0.1201649 0.1203864 0.1206271 0.120877 0.1211237 0.1213766 0.1216602 0.1219734 0.122273 0.1225159
 0.1227064 0.122885 0.1230778 0.1232835 0.123503 0.1237532 0.1240427 0.1243538 0.1246565 0.1249345
 0.1251977 0.1254726 0.1257749 0.126086 0.1263643 0.1265853 0.1267663 0.1269478 0.1271608 0.1274119
 0.1276879 0.1279698 0.1282433 0.1284966 0.1287123 0.1288698 0.1289673 0.1290289 0.1290789 0.1291098
 0.1290844 0.1289679 0.1287459 0.1284142 0.1279634 0.1273889 0.1267144 0.1260039 0.1253487 0.1248392
 0.1245432 0.1244974 0.1247053 0.1251336 0.1257113 0.126344 0.1269365 0.1274061 0.1276824 0.1277135
 0.1274832 0.1270194 0.1263802 0.1256298 0.1248246 0.1240065 0.1232051 0.1224569 0.1218387 0.1214746
 0.121499 0.122003 0.1230007 0.1244162 0.1260867 0.1278016 0.1293804 0.1307383 0.1318876 0.1328832
 0.1337741 0.1345922 0.135361 0.1360951 0.1367954 0.1374542 0.1380686 0.138643 0.1391783 0.1396645
 0.1400845 0.1404215 0.1406679 0.140831 0.1409295 0.1409813 0.1409982 0.1409935 0.14098 0.1409479
 0.140854 0.1406432 0.1402859 0.1397993 0.139253 0.1387737 0.1385342 0.1387063 0.1393842 0.1405283
 0.1419749 0.1435127 0.1449664 0.1462302 0.147261 0.1480659 0.1486923 0.1492045 0.1496536 0.1500662
 0.1504532 0.1508209 0.1511744 0.1515189 0.1518594 0.1521993 0.1525411 0.1528856 0.1532301 0.1535681
 0.1538966 0.1542218 0.1545563 0.1549061 0.1552641 0.1556158 0.1559558 0.1562935 0.1566388 0.1569861
 0.1573195 0.157633 0.1579366 0.1582467 0.1585738 0.1589188 0.1592714 0.1596138 0.1599324 0.1602269
 0.1605069 0.1607819 0.1610575 0.1613358 0.1616152 0.161892 0.1621651 0.1624389 0.1627195 0.1630077
 0.1632947 0.1635669 0.1638167 0.164052 0.1642905 0.164545 0.1648118 0.1650762 0.1653296 0.1655791
 0.165839 0.1661141 0.1663938 0.1666632 0.1669163 0.1671585 0.1673979 0.1676398 0.1678854 0.1681347
 0.1683871 0.1686415 0.1688958 0.1691477 0.1693965 0.1696434 0.1698897 0.170136 0.1703819 0.1706277
 0.170874 0.1711207 0.1713676 0.1716158 0.1718674 0.1721219 0.1723749 0.1726208 0.1728574 0.1730865
 0.1733121 0.1735386 0.1737701 0.174008 0.1742503 0.1744929 0.1747326 0.1749704 0.1752113 0.1754583
 0.1757072 0.17595 0.1761846 0.1764165 0.1766523 0.1768939 0.1771391 0.1773849 0.1776285 0.1778685
 0.1781045 0.1783377 0.17857 0.1788018 0.1790326 0.179263 0.1794966 0.1797349 0.1799758 0.1802166
 0.1804562 0.1806922 0.1809218 0.1811474 0.1813749 0.1816074 0.1818432 0.1820794 0.1823149 0.1825503
 0.182786 0.1830212 0.1832538 0.1834841 0.1837152 0.183949 0.184185 0.1844223 0.1846602 0.1848983
 0.1851384 0.1853821 0.1856267 0.1858673 0.1861033 0.1863379 0.1865733 0.1868103 0.1870492 0.1872884
 0.1875257 0.1877627 0.1880036 0.1882499 0.1885011 0.1887555 0.1890098 0.1892612 0.1895108 0.1897609
 0.1900111 0.190262 0.1905166 0.1907741 0.1910311 0.1912872 0.1915446 0.1918008 0.1920495 0.1922855
 0.1925077 0.1927209 0.1929343 0.1931541 0.1933792 0.1936059 0.1938332 0.1940612 0.1942917 0.1945279
 0.1947693 0.1950094 0.1952456 0.1954842 0.1957311 0.1959855 0.1962431 0.1964989 0.1967494 0.1969972
 0.197248 0.1975034 0.1977611 0.1980218 0.1982852 0.198547 0.1988061 0.1990665 0.19933 0.1995955
 0.1998633 0.2001317 0.2003963 0.2006572 0.2009193 0.2011837 0.2014483 0.201714 0.2019814 0.2022479
 0.2025146 0.2027851 0.2030575 0.2033286 0.2036008 0.203875 0.2041473 0.2044184 0.2046932 0.2049701
 0.2052454 0.2055227 0.2058042 0.2060842 0.2063601 0.2066341 0.2069039 0.2071674 0.20743 0.2076939
 0.2079545 0.2082118 0.2084695 0.2087197 0.208942 0.2090888 0.209031 0.2084966 0.2070351 0.204025
 0.1987893 0.1908605 0.1802599 0.1675865 0.1538558 0.1401807 0.1274627 0.1162657 0.1068889 0.0994897
 0.0941644 0.09101935 0.09022955 0.09212282 0.09729128 0.106238 0.1180818 0.1294423 0.1357082 0.1345305
 0.1279522 0.1205566 0.115738 0.1140412 0.1143182 0.1154338 0.116936 0.1189311 0.1216936 0.1252619
 0.1293967 0.1339742 0.1392156 0.1453468 0.1521567 0.1590717 0.1656337 0.1717965 0.1777614 0.1836215
 0.1892205 0.1943035 0.1987173 0.2024634 0.2056441 0.2083981 0.210848 0.2130734 0.2151249 0.2170304
 0.2187572 0.2201959 0.2212237 0.2218022 0.2220227 0.222063 0.2220909 0.2221938 0.2223881 0.2226673
 0.2230214 0.2234356 0.223897 0.2243983 0.224926 0.2254614 0.225995 0.2265247 0.2270442 0.2275442
 0.2280193 0.2284658 0.2288841 0.2292827 0.2296694 0.230044 0.2304072 0.2307647 0.2311175 0.2314619
 0.2317991 0.2321335 0.2324613 0.2327741 0.2330679 0.233344 0.2336078 0.2338668 0.2341246 0.2343778
 0.234626 0.2348747 0.2351272 0.2353798 0.2356292 0.2358752 0.2361192 0.2363638 0.23661 0.2368532
 0.2370889 0.2373203 0.2375538 0.2377907 0.2380304 0.2382731 0.2385176 0.2387608 0.2390018 0.2392419
 0.2394834 0.2397311 0.2399897 0.2402571 0.2405267 0.2407964 0.2410665 0.2413342 0.2415963 0.2418557
 0.2421193 0.2423922 0.2426745 0.2429584 0.2432304 0.2434809 0.2437118 0.2439339 0.2441594 0.2443963
 0.2446429 0.2448901 0.2451329 0.2453743 0.2456184 0.2458639 0.2461072 0.2463465 0.2465841 0.2468276
 0.247085 0.247357 0.2476378 0.2479253 0.2482202 0.2485189 0.2488158 0.2491108 0.2494058 0.2496964
 0.2499763 0.2502483 0.2505279 0.2508343 0.2511716 0.2515208 0.251856 0.2521684 0.252469 0.2527734
 0.2530904 0.2534145 0.2537203 0.2539815 0.254209 0.2544562 0.2547693 0.2551438 0.2555366 0.2559103
 0.2562565 0.256585 0.2569054 0.257217 0.2575106 0.2577775 0.2580242 0.258282 0.2585887 0.2589485
 0.2593234 0.2596752 0.2599994 0.2603081 0.2606068 0.2608969 0.2611688 0.2613847 0.2615136 0.2616064
 0.2617916 0.262157 0.2626539 0.263149 0.2635569 0.2638927 0.2642047 0.2645088 0.2647984 0.2650532
 0.2652039 0.265168 0.2650006 0.2649481 0.2652462 0.2658805 0.266617 0.2672395 0.2676914 0.2680269
 0.2683141 0.2685885 0.2688327 0.2689779 0.2689772 0.268913 0.2689857 0.269331 0.2698674 0.2703865
 0.2707747 0.2710767 0.2713744 0.2716926 0.2719872 0.2721299 0.2719633 0.2715163 0.2711463 0.2713062
 0.272107 0.2731926 0.2740958 0.2746526 0.2750018 0.2752598 0.2753493 0.2751447 0.2746289 0.2738964
 0.2731971 0.2729795 0.2735979 0.2748584 0.2760978 0.2768505 0.2772484 0.2776842 0.2782986 0.278922
 0.2793491 0.279523 0.2795001 0.2793257 0.2790108 0.2786736 0.2786246 0.2791471 0.2801672 0.28127
 0.2820904 0.2826015 0.2829506 0.2830346 0.2823886 0.2807367 0.2787175 0.2777248 0.2786703 0.2810242
 0.2833892 0.2848822 0.2856209 0.2860709 0.2864387 0.2866111 0.2861476 0.2844272 0.2814927 0.2787858
 0.2782719 0.2805019 0.2839945 0.2866731 0.2874518 0.2864521 0.2844727 0.2826238 0.2819366 0.2828033
 0.2848085 0.2871527 0.2891346 0.2903452 0.2906948 0.2903728 0.2897699 0.2893738 0.289459 0.2896731
 0.2892599 0.2880418 0.2867659 0.2859588 0.2849682 0.283033 0.2809806 0.2807117 0.2828444 0.2858164
 0.2876973 0.2881668 0.2881561 0.2879746 0.2865546 0.2828568 0.277792 0.2741931 0.2743898 0.2778833
 0.2818409 0.2838807 0.2839528 0.2835286 0.2835301 0.2833574 0.2817843 0.2786958 0.2757708 0.2749858
 0.276398 0.278058 0.2781653 0.2763336 0.2726532 0.2672409 0.2617255 0.25955 0.2629331 0.2701081
 0.2768843 0.2802629 0.2793721 0.2742215 0.2660172 0.2584622 0.2560891 0.2600787 0.2668819 0.2716553
 0.2720779 0.2684486 0.2617152 0.2530646 0.2449451 0.2407568 0.2426827 0.2499297 0.2588836 0.2646723
 0.2636519 0.2563264 0.2480761 0.2451089 0.2486225 0.2540123 0.2562853 0.2547565 0.2520064 0.2503659
 0.2506337 0.252513 0.2549461 0.2569481 0.2583643 0.2584813 0.2546386 0.2451725 0.2337935 0.2276139
 0.2298137 0.2370877 0.2450417 0.252613 0.2595985 0.263486 0.2621323 0.2580069 0.2566065 0.2605852
 0.2672303 0.271926 0.2728369 0.2716505 0.2705142 0.2694789 0.2675644 0.2655214 0.2658675 0.269753
 0.27516 0.2790937 0.2805878 0.2807056 0.2805271 0.2802379 0.279687 0.2788374 0.2777298 0.2765003
 0.2753705 0.2744064 0.2734689 0.272489 0.2714005 0.2695358 0.2656807 0.2596514 0.2536406 0.2507041
 0.251553 0.2541124 0.2565078 0.2584233 0.2586026 0.2538213 0.2430961 0.2314614 0.2265068 0.2310413
 0.2408573 0.2494549 0.2531778 0.2516717 0.2456961 0.2367721 0.228713 0.2269479 0.2343374 0.2481827
 0.2626594 0.2737456 0.2807383 0.2839791 0.2833094 0.2792333 0.2742137 0.2716947 0.2737362 0.2796619
 0.2865732 0.2906964 0.2890295 0.2818165 0.2741802 0.2730191 0.2801655 0.2899485 0.2954538 0.2957669
 0.2949446 0.2955816 0.2965927 0.2967833 0.2973465 0.2998564 0.3036878 0.3065416 0.3065109 0.3028796
 0.2961032 0.2883654 0.2832409 0.282869 0.2855895 0.2878486 0.2878485 0.2855852 0.2806169 0.2730345
 0.2662572 0.2651998 0.2706878 0.2782061 0.2830468 0.2846946 0.2853664 0.2860242 0.2852416 0.2815908
 0.2761756 0.272155 0.2716475 0.2737353 0.2759795 0.2770629 0.2769913 0.2755663 0.2724017 0.2685695
 0.2667459 0.2688316 0.2739153 0.2791595 0.2824073 0.2835004 0.2834552 0.2831513 0.2828607 0.2824143
 0.281637 0.2809471 0.2813803 0.2834888 0.2863803 0.2885336 0.2895553 0.2905025 0.2923956 0.2949703
 0.2970823 0.2979738 0.2979416 0.2979622 0.2988118 0.3004261 0.3019603 0.3025346 0.3021007 0.3015993
 0.3021132 0.3038361 0.306001 0.3077609 0.3088955 0.3096887 0.310452 0.3112608 0.3119177 0.3121163
 0.311847 0.3116501 0.3122144 0.3136619 0.3154054 0.3167451 0.3174419 0.3176835 0.317693 0.3175167
 0.3171272 0.3165926 0.3160875 0.315762 0.3156396 0.3156412 0.3156742 0.3156864 0.315673 0.3156679
 0.3157172 0.3158388 0.3160133 0.3162165 0.3164355 0.3166457 0.3168108 0.3169239 0.3170185 0.3171128
 0.3171657 0.3171031 0.3168658 0.3164157 0.3157163 0.3147318 0.3134372 0.3118067 0.3098138 0.3075208
 0.3052402 0.3035749 0.3031703 0.3043021 0.3066562 0.3095063 0.3121274 0.3141101 0.3154011 0.3161495
 0.3165385 0.316704 0.3167253 0.3166388 0.3164572 0.3161926 0.3158694 0.3155161 0.3151574 0.3148142
 0.3145012 0.3142204 0.3139551 0.3136757 0.3133525 0.3129677 0.3125172 0.3120018 0.3114196 0.3107618
 0.3100114 0.3091525 0.3081913 0.3071708 0.3061567 0.3052024 0.3043188 0.3034714 0.3026075 0.3016812
 0.3006443 0.2994375 0.2980475 0.296595 0.2953034 0.2943217 0.2935878 0.2928952 0.292071 0.2910662
 0.2899142 0.288667 0.2873706 0.2860562 0.2847285 0.2833651 0.2819314 0.2803978 0.2787534 0.2770097
 0.2751898 0.2733141 0.2713996 0.2694587 0.2674749 0.2653733 0.2630217 0.2602666 0.2569752 0.2530606
 0.2484975 0.243339 0.2377284 0.2318842 0.2260488 0.2204356 0.2152064 0.2104871 0.2063872 0.2030017
 0.2004006 0.1986247 0.1976927 0.1976104 0.1983698 0.1999374 0.2022408 0.2051612 0.2085384 0.2121845
 0.2158996 0.2194948 0.2228356 0.2258861 0.2286992 0.2313415 0.2338217 0.2360952 0.2381186 0.2398821
 0.2413973 0.2426774 0.2437366 0.2445996 0.2453035 0.24589 0.2463925 0.246825 0.247184 0.2474619
 0.247666 0.2478233 0.2479713 0.2481407 0.2483435 0.2485753 0.2488315 0.2491226 0.2494742 0.2499107
 0.2504409 0.2510559 0.2517356 0.25246 0.2532209 0.254028 0.2549078 0.2558982 0.257038 0.2583493
 0.2598237 0.2614213 0.2630752 0.2646935 0.2661714 0.26742 0.268391 0.2690749 0.269483 0.269635
 0.2695593 0.2692934 0.268876 0.2683372 0.2677009 0.2669897 0.2662214 0.2654004 0.2645184 0.2635694
 0.2625654 0.2615418 0.2605389 0.2595743 0.2586352 0.257704 0.2567823 0.2558857 0.2550277 0.2542132
 0.2534372 0.2526851 0.2519424 0.2512091 0.2504986 0.2498164 0.2491389 0.2484109 0.2475688 0.2465701
 0.2454019 0.244066 0.2425714 0.240941 0.2392073 0.2373937 0.2355017 0.2335187 0.2314368 0.2292615
 0.2270029 0.2246655 0.2222634 0.2198472 0.2174973 0.215283 0.2132372 0.2113617 0.2096387 0.2080377
 0.2065254 0.2050718 0.2036528 0.2022605 0.2009088 0.1996215 0.1984178 0.1973113 0.1963073 0.1953984
 0.1945769 0.1938483 0.1932215 0.1926923 0.1922458 0.1918684 0.1915607 0.1913492 0.1912727 0.1913331
 0.1914666 0.1915802 0.1916116 0.191559 0.1914672 0.1913887 0.1913475 0.1913401 0.1913538 0.1913527
 0.1912529 0.1909415 0.1903212 0.189326 0.1879251 0.1861397 0.1840525 0.1817971 0.1795423 0.1774587
 0.1756689 0.1742241 0.1731196 0.172305 0.171695 0.1712166 0.1708603 0.1706813 0.17075 0.1710716
 0.1715187 0.1718853 0.1720673 0.1721787 0.1724508 0.1730367 0.1739199 0.1749582 0.175986 0.1768969
 0.1776536 0.1782459 0.1786765 0.1789739 0.1791692 0.1792641 0.1792466 0.1791136 0.1788585 0.1784766
 0.1779912 0.1774342 0.17681 0.1761073 0.1753179 0.1744262 0.173421 0.1723126 0.1710948 0.1697357
 0.1682805 0.1669334 0.1659784 0.1656285 0.1659276 0.166736 0.1678232 0.1690176 0.1702276 0.171328
 0.1721727 0.1728052 0.1735572 0.1748308 0.1767648 0.1791121 0.1814265 0.1833521 0.1847235 0.1854669
 0.1855521 0.1850398 0.1840375 0.1826071 0.1808107 0.1787801 0.1766477 0.1745003 0.1724371 0.1705514
 0.1688693 0.1674052 0.1661938 0.1652754 0.1647481 0.1643539 0.162516 0.1568919 0.1476649 0.1396882
 0.1388212 0.1456174 0.1545743 0.1600552 0.1610843 0.160012 0.1587972 0.1578706 0.1571725 0.1567792
 0.1567343 0.1569172 0.1571033 0.1570761 0.156763 0.1562012 0.1552656 0.1534369 0.1498125 0.1434384
 0.1340065 0.1224875 0.1109221 0.1013461 0.09478882 0.09104693 0.08911025 0.08786342 0.08673901 0.08592226
 0.08596054 0.08720432 0.0896093 0.09291902 0.09685592 0.1011004 0.1052209 0.108796 0.1116355 0.1137966
 0.1153802 0.1164131 0.1169188 0.1169784 0.1166907 0.1161377 0.1153844 0.114452 0.113303 0.1119093
 0.1103537 0.1088569 0.1076769 0.1069408 0.1065708 0.106394 0.1063007 0.1062714 0.1063099 0.1064116
 0.1065683 0.1067684 0.1070067 0.1072938 0.1076283 0.1079705 0.1082667 0.1084822 0.1086037 0.1086249
 0.1085271 0.1082817 0.1079067 0.107495 0.1070953 0.1065726 0.1057053 0.1044734 0.1031848 0.1022782
 0.1020075 0.1022877 0.1027959 0.1032196 0.1034445 0.1035392 0.1035926 0.1035806 0.1033801 0.1029059
</values></Ydata></ScRf><Data_Parameters_AB><parameter name="DPF">1</parameter><parameter name="NPT">3497</parameter><parameter name="FXV">3996</parameter><parameter name="LXV">500</parameter><parameter name="CSF">1</parameter><parameter name="MXY">0.640227794647217</parameter><parameter name="MNY">-0.0747703313827515</parameter><parameter name="DAT">17/01/2024</parameter><parameter name="TIM">13:18:14.654 (GMT+1)</parameter><parameter name="DXU">WN</parameter></Data_Parameters_AB><AB__Qtest><MainReport name="Quality Test Report"><Header><Line><Legend>Test result ok/not ok [1/0]: </Legend><Value>1</Value></Line><Line><Legend>Method file: </Legend><Value>C:\Users\Public\Documents\Bruker\OPUS_8.2.28\QT\IRBT_v3_default.QT</Value></Line></Header><Matrix><Line><Legend></Legend><Legend>min</Legend><Legend>max</Legend><Legend>measured</Legend></Line><Line><Value>Absorption (X-Range 1):</Value><Value>0.400000</Value><Value>2.000000</Value><Value>0.495195</Value></Line><Line><Value>Noise (X-Range 4):</Value><Value></Value><Value>0.000300</Value><Value>0.000046</Value></Line><Line><Value>Signal/Noise (X-Range 2):</Value><Value>200.000000</Value><Value></Value><Value>340.232102</Value></Line><Line><Value>Signal/Noise (X-Range 3):</Value><Value>40.000000</Value><Value></Value><Value>170.978070</Value></Line><Line><Value>Water vapour (X-Range 5):</Value><Value></Value><Value>0.000300</Value><Value>0.000015</Value></Line><Line><Value>Signal/Water (X-Range 2):</Value><Value>100.000000</Value><Value></Value><Value>1015.941063</Value></Line><Line><Value>Signal/Water (X-Range 3):</Value><Value>20.000000</Value><Value></Value><Value>510.544541</Value></Line><Line><Value>Fringes (X-Range 6):</Value><Value></Value><Value>0.000100</Value><Value>0.000038</Value></Line></Matrix></MainReport></AB__Qtest><Data_Parameters_ScSm><parameter name="DPF">1</parameter><parameter name="NPT">1814</parameter><parameter name="FXV">3996.63438082617</parameter><parameter name="LXV">499.579297603271</parameter><parameter name="CSF">1</parameter><parameter name="MXY">0.314467310905457</parameter><parameter name="MNY">0.0368700325489044</parameter><parameter name="DAT">17/01/2024</parameter><parameter name="TIM">13:18:14.654 (GMT+1)</parameter><parameter name="DXU">WN</parameter></Data_Parameters_ScSm><Data_Parameters_ScRf><parameter name="DPF">1</parameter><parameter name="NPT">1820</parameter><parameter name="FXV">4004.34989121387</parameter><parameter name="LXV">495.721542409425</parameter><parameter name="CSF">1</parameter><parameter name="MXY">0.317693024873734</parameter><parameter name="MNY">0.0681529715657234</parameter><parameter name="DAT">17/01/2024</parameter><parameter name="TIM">13:17:47.559 (GMT+1)</parameter><parameter name="DXU">WN</parameter></Data_Parameters_ScRf><Optic_Parameters_Rf><parameter name="APR">0</parameter><parameter name="APT">Open</parameter><parameter name="BMS">KBr</parameter><parameter name="DTC">RT-DLaTGS_IR-Biotyper [Microplate reader]</parameter><parameter name="HPF">0</parameter><parameter name="LPF">10.0</parameter><parameter name="LPV">4000</parameter><parameter name="PGR">0</parameter><parameter name="RCH">Module port</parameter><parameter name="RDX">0</parameter><parameter name="SRC">MIR</parameter><parameter name="VEL">10.0</parameter><parameter name="SON">Off</parameter></Optic_Parameters_Rf><Acquisition_Parameters_Rf><parameter name="ADT">1</parameter><parameter name="AQM">DD</parameter><parameter name="CFE">0</parameter><parameter name="COR">0</parameter><parameter name="DEL">0</parameter><parameter name="DLY">0</parameter><parameter name="HFW">8000</parameter><parameter name="LFW">0</parameter><parameter name="NSR">32</parameter><parameter name="PLF">AB</parameter><parameter name="RES">6</parameter><parameter name="RGN">-1</parameter><parameter name="STR">0</parameter><parameter name="TCL">MakeCompatibleScalar (0, {WSV=1.000000, ARV=0});</parameter><parameter name="TDL">37</parameter><parameter name="RPO">0</parameter></Acquisition_Parameters_Rf><FT_-_Parameters_Rf><parameter name="APF">B3</parameter><parameter name="HFQ">500</parameter><parameter name="LFQ">4000</parameter><parameter name="NLI">0</parameter><parameter name="PHR">24</parameter><parameter name="PHZ">ML</parameter><parameter name="SPZ">NO</parameter><parameter name="ZFF">1</parameter></FT_-_Parameters_Rf><Optic_Parameters_><parameter name="APR">0</parameter><parameter name="APT">Open</parameter><parameter name="BMS">KBr</parameter><parameter name="CHN">Module port</parameter><parameter name="DTC">RT-DLaTGS_IR-Biotyper [Microplate reader]</parameter><parameter name="HPF">0</parameter><parameter name="LPF">10.0</parameter><parameter name="LPV">4000</parameter><parameter name="PGN">0</parameter><parameter name="RDX">0</parameter><parameter name="SRC">MIR</parameter><parameter name="VEL">10.0</parameter><parameter name="SON">Off</parameter></Optic_Parameters_><FT_-_Parameters_><parameter name="APF">B3</parameter><parameter name="HFQ">500</parameter><parameter name="LFQ">4000</parameter><parameter name="NLI">0</parameter><parameter name="PHR">24</parameter><parameter name="PHZ">ML</parameter><parameter name="SPZ">NO</parameter><parameter name="ZFF">1</parameter></FT_-_Parameters_><Acquisition_Parameters_><parameter name="ADT">1</parameter><parameter name="AQM">DD</parameter><parameter name="CFE">0</parameter><parameter name="COR">0</parameter><parameter name="DEL">0</parameter><parameter name="DLY">0</parameter><parameter name="HFW">8000</parameter><parameter name="LFW">0</parameter><parameter name="NSS">32</parameter><parameter name="PLF">AB</parameter><parameter name="RES">6</parameter><parameter name="SOT">0</parameter><parameter name="TCL">MakeCompatibleScalar (0, {WSV=1.000000, ARV=0});</parameter><parameter name="TDL">37</parameter><parameter name="SPO">0</parameter><parameter name="SGN">-1</parameter></Acquisition_Parameters_><Instrument_Parameters_Rf><parameter name="HFL">15801.365274</parameter><parameter name="LFL">0</parameter><parameter name="LWN">15801.365274</parameter><parameter name="ABP">32157</parameter><parameter name="SSP">1</parameter><parameter name="ARG">2</parameter><parameter name="ASG">2</parameter><parameter name="ASS">32</parameter><parameter name="GFW">16</parameter><parameter name="GBW">16</parameter><parameter name="BFW">0</parameter><parameter name="BBW">0</parameter><parameter name="PKA">9106</parameter><parameter name="PKL">4987</parameter><parameter name="PRA">9145</parameter><parameter name="PRL">5010</parameter><parameter name="P2A">1</parameter><parameter name="P2L">1</parameter><parameter name="P2R">1</parameter><parameter name="P2K">1</parameter><parameter name="DAQ">0</parameter><parameter name="AG2">1</parameter><parameter name="SSM">1</parameter><parameter name="RSN">46334</parameter><parameter name="CRR">0</parameter><parameter name="SRT">1705497467.56</parameter><parameter name="DUR">19.64599609375</parameter><parameter name="TSC">30.9</parameter><parameter name="MVD">7.03828811645508</parameter><parameter name="AN1">0.226011319596326</parameter><parameter name="AN2">0</parameter><parameter name="VSN">2.485 Apr  4 2017</parameter><parameter name="SRN">0085</parameter><parameter name="CAM">0</parameter><parameter name="INS">IR-Biotyper</parameter><parameter name="FOC">69</parameter><parameter name="RDY">1</parameter><parameter name="ARS">32</parameter></Instrument_Parameters_Rf><Sample_Parameters_><parameter name="BLD"></parameter><parameter name="CNM">Admin</parameter><parameter name="CPY"></parameter><parameter name="DPM"></parameter><parameter name="EXP">IRBT_v3_32Scans.XPM</parameter><parameter name="LCT"></parameter><parameter name="SFM">Microplate, HTS-XT</parameter><parameter name="SNM">240117-1222-Cdiff_SCFA_1_C14_232117486_F7_9bee5a13-d4b3-418b-b949-15efc1706b53.0</parameter><parameter name="XPP">C:\Users\Public\Documents\Bruker\OPUS_8.2.28\XPM</parameter><parameter name="IST">OK</parameter><parameter name="CPG">1252</parameter><parameter name="UID">5e5e4d6b-8e10-4869-a946-fb2913723383</parameter></Sample_Parameters_><Instrument_Parameters_><parameter name="HFL">15801.365274</parameter><parameter name="LFL">0</parameter><parameter name="LWN">15801.365274</parameter><parameter name="ABP">32157</parameter><parameter name="SSP">1</parameter><parameter name="ASG">2</parameter><parameter name="ARG">2</parameter><parameter name="ASS">32</parameter><parameter name="GFW">16</parameter><parameter name="GBW">16</parameter><parameter name="BFW">0</parameter><parameter name="BBW">0</parameter><parameter name="PKA">7741</parameter><parameter name="PKL">4979</parameter><parameter name="PRA">7897</parameter><parameter name="PRL">5002</parameter><parameter name="P2A">1</parameter><parameter name="P2L">1</parameter><parameter name="P2R">1</parameter><parameter name="P2K">1</parameter><parameter name="DAQ">0</parameter><parameter name="AG2">1</parameter><parameter name="SSM">1</parameter><parameter name="RSN">23860</parameter><parameter name="CRR">0</parameter><parameter name="SRT">1705497494.654</parameter><parameter name="DUR">19.6449890136719</parameter><parameter name="TSC">30.9</parameter><parameter name="MVD">3.28216099739075</parameter><parameter name="AN1">0.226007352590353</parameter><parameter name="AN2">0</parameter><parameter name="VSN">2.485 Apr  4 2017</parameter><parameter name="SRN">0085</parameter><parameter name="CAM">0</parameter><parameter name="INS">IR-Biotyper</parameter><parameter name="FOC">69</parameter><parameter name="RDY">1</parameter></Instrument_Parameters_><History/></OPUSDataFile>
