<?xml version="1.0" encoding="UTF-8" ?>
<OPUSDataFile><AB><Ydata ylabel="Absorbance Units"><values byteorder="INTEL" format="FLOAT32" numvalues="3497"> -0.07027137 -0.07026765 -0.07026109 -0.07025179 -0.0702401 -0.07022592 -0.07020909 -0.07018974 -0.07016802 -0.07014409
 -0.07011811 -0.07009055 -0.07006101 -0.07003244 -0.07000514 -0.06998508 -0.06997431 -0.06997682 -0.06999485 -0.07002448
 -0.07006636 -0.07010861 -0.0701504 -0.07018091 -0.07019969 -0.07020551 -0.07019927 -0.07018959 -0.07017788 -0.07017624
 -0.07018454 -0.07020987 -0.07024875 -0.07029825 -0.07035233 -0.07040042 -0.07043923 -0.07045946 -0.07046622 -0.07045893
 -0.07044709 -0.07043611 -0.070429 -0.07042924 -0.07043119 -0.07043402 -0.07043397 -0.07042956 -0.07042642 -0.07042486
 -0.07043116 -0.07044554 -0.07046382 -0.07048536 -0.07050087 -0.07051098 -0.0705138 -0.07051155 -0.0705111 -0.070513
 -0.07052264 -0.07053766 -0.07055712 -0.07057789 -0.0705958 -0.07061051 -0.07061963 -0.07062646 -0.07063147 -0.07063968
 -0.07065355 -0.07067323 -0.07070056 -0.0707265 -0.07075036 -0.07076135 -0.07075796 -0.07074083 -0.07071006 -0.07067867
 -0.07064736 -0.07062804 -0.07062023 -0.07062741 -0.07064873 -0.0706834 -0.07073037 -0.070788 -0.07085253 -0.07091874
 -0.07097998 -0.07102665 -0.07105576 -0.07105958 -0.071046 -0.07101499 -0.07098143 -0.0709509 -0.0709317 -0.07092828
 -0.07093593 -0.07095534 -0.07097556 -0.07099557 -0.07100935 -0.07101657 -0.07101905 -0.07101697 -0.07101347 -0.07100828
 -0.07100112 -0.07099189 -0.07097961 -0.07096542 -0.07095098 -0.07093847 -0.07093204 -0.07093327 -0.07094669 -0.07096937
 -0.07100254 -0.07103652 -0.07106722 -0.07108512 -0.071084 -0.07106707 -0.07103223 -0.07099345 -0.07095271 -0.07091903
 -0.07089382 -0.07087653 -0.0708672 -0.07086697 -0.07087624 -0.07090167 -0.07094231 -0.07099792 -0.07106321 -0.07111996
 -0.07116187 -0.07116113 -0.07112441 -0.07104557 -0.07094553 -0.07084718 -0.07076144 -0.07070765 -0.07067859 -0.07067696
 -0.07068925 -0.07071141 -0.07073245 -0.07074902 -0.07075404 -0.07074539 -0.07072289 -0.07068565 -0.07064407 -0.07059868
 -0.07055967 -0.07052682 -0.0704985 -0.07047409 -0.07044802 -0.07042239 -0.070402 -0.07038903 -0.07039294 -0.07041018
 -0.07044053 -0.07047634 -0.0705083 -0.07053202 -0.07054024 -0.07053336 -0.07050916 -0.07047074 -0.07041727 -0.07035797
 -0.07029349 -0.0702391 -0.07019767 -0.07017752 -0.07018072 -0.07019901 -0.07023209 -0.07026151 -0.07028653 -0.07029328
 -0.07028265 -0.07025307 -0.07020649 -0.07014932 -0.07008312 -0.07001481 -0.06994527 -0.06987907 -0.06981639 -0.06975937
 -0.06970726 -0.06966005 -0.06961724 -0.06957837 -0.06954397 -0.06951416 -0.06948944 -0.06947051 -0.06945476 -0.06944224
 -0.06942805 -0.06941172 -0.06938898 -0.0693595 -0.0693221 -0.06927706 -0.06922856 -0.0691778 -0.06913495 -0.06910045
 -0.06908277 -0.06907862 -0.06908514 -0.06909616 -0.06909923 -0.06909139 -0.06906218 -0.06901684 -0.06895471 -0.06888586
 -0.06881616 -0.06875134 -0.068696 -0.06864836 -0.06860893 -0.0685747 -0.06854455 -0.06852136 -0.06850531 -0.06849937
 -0.06850391 -0.06851199 -0.0685229 -0.06852353 -0.06851424 -0.06849146 -0.06845593 -0.06841014 -0.0683512 -0.06827156
 -0.06817175 -0.06804471 -0.06790437 -0.06776432 -0.06763804 -0.06754634 -0.06748112 -0.06744747 -0.06742136 -0.0673938
 -0.06734996 -0.06728116 -0.06719548 -0.06709193 -0.06698652 -0.0668814 -0.06678212 -0.06668938 -0.06659634 -0.06650252
 -0.06639783 -0.06628285 -0.0661561 -0.06602009 -0.06588438 -0.0657507 -0.06562957 -0.06551898 -0.06542153 -0.06533094
 -0.06524199 -0.0651447 -0.06502818 -0.0648872 -0.06471154 -0.06451438 -0.06429626 -0.06407896 -0.06387103 -0.06367429
 -0.06349283 -0.06330776 -0.06311737 -0.06290717 -0.06267574 -0.06242737 -0.06216261 -0.06189415 -0.0616217 -0.06135015
 -0.06107604 -0.06078883 -0.06048229 -0.06013253 -0.05973953 -0.05928691 -0.05879118 -0.05826463 -0.05772815 -0.05720848
 -0.05670602 -0.05623275 -0.05576977 -0.05531384 -0.05484218 -0.05434833 -0.05381396 -0.05323348 -0.05260366 -0.0519219
 -0.05120541 -0.05045518 -0.04968552 -0.04889644 -0.0480819 -0.04724185 -0.04637159 -0.04547461 -0.04456426 -0.0436428
 -0.04272451 -0.04180713 -0.04089349 -0.03997977 -0.0390632 -0.03813753 -0.03719694 -0.03623449 -0.035243 -0.03422284
 -0.03317347 -0.03209249 -0.03098309 -0.02982262 -0.02860658 -0.02732139 -0.02596015 -0.02456588 -0.02314027 -0.02174581
 -0.0203838 -0.01906073 -0.01777183 -0.01647926 -0.01518164 -0.01385114 -0.01249373 -0.01111107 -0.009711538 -0.008314972
 -0.006919249 -0.005537732 -0.004142462 -0.002715891 -0.0012236 0.000375055 0.002052078 0.003820792 0.005587043 0.007320072
 0.008979602 0.01054034 0.01206724 0.01356298 0.01510628 0.01670507 0.01836325 0.02007945 0.02179835 0.02351888
 0.0252055 0.02686657 0.02852141 0.03017962 0.03188346 0.03362751 0.03542669 0.03725772 0.03909401 0.04091934
 0.04270271 0.04445558 0.0461729 0.04787933 0.0495856 0.05130555 0.05304755 0.05480896 0.05659286 0.05838036
 0.06016996 0.06194058 0.06368932 0.0654293 0.06716209 0.06893791 0.0707568 0.07264455 0.07458992 0.07655238
 0.07852209 0.08044312 0.08232483 0.08415666 0.08595821 0.0877543 0.0895548 0.09138258 0.09322779 0.09509461
 0.09695875 0.09880781 0.1006337 0.1024241 0.1042124 0.1060009 0.1078352 0.1097255 0.1116685 0.1136668
 0.1156678 0.1176691 0.1196314 0.1215562 0.1234445 0.1252998 0.127139 0.1289645 0.1307919 0.1326226
 0.1344676 0.136324 0.1381932 0.1400703 0.1419492 0.1438315 0.145715 0.1476068 0.1495111 0.1514267
 0.1533567 0.1552865 0.1572141 0.1591254 0.1610169 0.1628913 0.1647478 0.166603 0.1684573 0.1703176
 0.1721827 0.1740411 0.1758929 0.1777315 0.1795611 0.1813936 0.1832299 0.1850796 0.1869367 0.1887948
 0.1906514 0.1924998 0.1943439 0.1961861 0.1980236 0.1998576 0.2016777 0.2034799 0.2052612 0.207019
 0.2087602 0.2104852 0.2122028 0.2139138 0.2156264 0.2173409 0.219057 0.2207735 0.222477 0.2241672
 0.2258347 0.2274831 0.2291197 0.2307455 0.2323675 0.2339809 0.2355801 0.2371649 0.2387312 0.2402852
 0.2418315 0.2433702 0.2449038 0.2464269 0.2479372 0.249436 0.2509229 0.2524011 0.2538717 0.2553316
 0.2567806 0.2582153 0.2596357 0.2610397 0.2624272 0.2637941 0.2651415 0.2664735 0.2677931 0.2691153
 0.2704371 0.2717621 0.2730803 0.2743755 0.2756475 0.2768856 0.2781045 0.2793114 0.280517 0.2817308
 0.2829484 0.2841713 0.2853893 0.2866005 0.2877962 0.2889749 0.2901328 0.2912688 0.2923888 0.2934931
 0.2945912 0.2956834 0.2967726 0.2978591 0.2989458 0.3000345 0.301134 0.3022421 0.30336 0.3044792
 0.3055865 0.3066775 0.3077402 0.3087782 0.3097896 0.3107806 0.3117524 0.3127146 0.3136694 0.3146297
 0.3156002 0.316583 0.3175807 0.3185789 0.3195767 0.320559 0.3215248 0.3224683 0.3233896 0.3242868
 0.3251612 0.3260162 0.3268544 0.327687 0.3285142 0.3293433 0.3301708 0.3309942 0.3318122 0.3326222
 0.333424 0.3342181 0.3349986 0.3357629 0.3365058 0.3372229 0.3379215 0.3386017 0.3392757 0.3399465
 0.340613 0.3412764 0.341921 0.3425461 0.3431368 0.3436937 0.3442193 0.3447165 0.3452054 0.3456866
 0.3461757 0.3466659 0.3471483 0.3476172 0.3480552 0.3484699 0.3488609 0.3492425 0.3496281 0.3500193
 0.3504232 0.3508293 0.3512348 0.3516329 0.3520202 0.352401 0.3527745 0.3531538 0.3535397 0.3539486
 0.3543817 0.3548426 0.3553297 0.3558182 0.356304 0.3567472 0.3571479 0.357483 0.3577614 0.3579915
 0.3581865 0.3583729 0.3585595 0.3587682 0.3589983 0.3592565 0.3595383 0.3598424 0.360167 0.3605127
 0.3608723 0.3612468 0.3616144 0.361972 0.3623017 0.3625998 0.3628764 0.3631317 0.3633933 0.3636619
 0.3639536 0.3642669 0.3645993 0.3649485 0.3653054 0.3656685 0.3660283 0.3663855 0.366735 0.3670831
 0.3674338 0.3677974 0.3681838 0.3685986 0.3690495 0.3695316 0.3700472 0.3705813 0.371132 0.37168
 0.372221 0.372746 0.3732522 0.3737523 0.3742467 0.3747589 0.3752899 0.3758543 0.3764518 0.377088
 0.3777643 0.3784899 0.3792643 0.380096 0.3809723 0.3818814 0.3827951 0.3836756 0.3844984 0.3852232
 0.3858608 0.3863961 0.386881 0.3873293 0.3877939 0.3882964 0.388843 0.3894432 0.3900582 0.3906861
 0.3912821 0.391843 0.3923453 0.3927889 0.3931725 0.3934979 0.3937783 0.3940156 0.3942259 0.3944082
 0.394569 0.3947036 0.3948065 0.3948737 0.3948967 0.3948762 0.3948086 0.3947002 0.3945532 0.3943739
 0.394168 0.3939275 0.3936555 0.3933234 0.3929269 0.3924404 0.3918583 0.3911914 0.3904392 0.3896471
 0.3888171 0.3879904 0.3871661 0.3863562 0.3855568 0.384758 0.3839566 0.3831386 0.3823048 0.381448
 0.380575 0.3796903 0.3788044 0.3779291 0.377067 0.3762265 0.3753949 0.3745709 0.3737367 0.3728854
 0.3720127 0.3711143 0.3702066 0.3692897 0.3683906 0.3675112 0.3666669 0.3658572 0.3650703 0.3643031
 0.3635242 0.3627328 0.3619054 0.3610475 0.3601607 0.359253 0.3583409 0.3574279 0.3565261 0.3556333
 0.354752 0.3538785 0.3530118 0.3521468 0.3512825 0.3504103 0.349528 0.3486279 0.3477074 0.3467676
 0.3458075 0.3448362 0.3438545 0.3428701 0.3418833 0.3408946 0.339904 0.3389084 0.3379087 0.3369057
 0.3359011 0.3349 0.3339024 0.3329117 0.3319237 0.3309352 0.3299391 0.3289275 0.327897 0.3268417
 0.3257664 0.3246703 0.3235634 0.3224483 0.3213327 0.3202192 0.3191101 0.3180065 0.3169052 0.3158061
 0.3147018 0.3135919 0.3124704 0.3113383 0.3101999 0.3090576 0.3079249 0.3068025 0.3057008 0.3046161
 0.3035468 0.3024876 0.3014301 0.3003718 0.2993068 0.2982367 0.2971599 0.296081 0.295001 0.2939256
 0.2928565 0.2917987 0.2907531 0.2897239 0.2887113 0.2877225 0.2867579 0.2858244 0.284922 0.2840421
 0.2831819 0.2823121 0.2814308 0.2805102 0.2795558 0.2785669 0.2775559 0.2765472 0.2755502 0.2745902
 0.2736658 0.2727877 0.271942 0.2711252 0.270317 0.2695072 0.2686825 0.267834 0.2669687 0.2660843
 0.2652036 0.2643293 0.2634783 0.2626525 0.2618507 0.2610728 0.2603129 0.2595719 0.2588576 0.2581725
 0.2575349 0.256943 0.2564048 0.255909 0.2554387 0.2549777 0.2544943 0.253981 0.2534144 0.2528079
 0.2521596 0.2514972 0.2508335 0.2501861 0.2495662 0.2489675 0.2483916 0.2478246 0.2472636 0.2467096
 0.2461622 0.2456351 0.245129 0.2446492 0.2441949 0.2437573 0.243336 0.2429231 0.2425194 0.2421247
 0.2417374 0.2413555 0.2409739 0.2405833 0.2401814 0.2397609 0.2393269 0.23888 0.2384268 0.2379719
 0.2375147 0.2370581 0.2365916 0.236115 0.2356118 0.2350796 0.2345074 0.2338929 0.233245 0.2325643
 0.2318808 0.2311965 0.2305417 0.2299141 0.2293199 0.2287514 0.2281882 0.2276234 0.2270306 0.226411
 0.2257525 0.2250663 0.2243579 0.2236415 0.2229291 0.2222275 0.2215446 0.2208766 0.2202252 0.2195803
 0.2189406 0.2182952 0.2176421 0.2169766 0.2162975 0.2156147 0.2149288 0.2142599 0.2136079 0.212981
 0.2123754 0.2117749 0.2111766 0.2105599 0.209931 0.2092913 0.2086523 0.2080337 0.2074386 0.2068805
 0.2063491 0.2058419 0.2053467 0.2048554 0.2043657 0.2038738 0.2033863 0.2029033 0.2024336 0.2019779
 0.2015464 0.2011396 0.2007719 0.2004439 0.2001717 0.1999552 0.1998014 0.199707 0.19966 0.1996538
 0.1996599 0.1996731 0.199666 0.1996427 0.1995942 0.1995346 0.1994736 0.1994283 0.1994136 0.1994432
 0.1995271 0.1996753 0.1998924 0.2001872 0.2005619 0.2010252 0.2015783 0.2022295 0.2029799 0.2038367
 0.2048003 0.2058741 0.2070581 0.2083532 0.2097605 0.211286 0.2129321 0.2147108 0.2166215 0.2186712
 0.2208527 0.2231597 0.2255818 0.2281047 0.2307222 0.2334239 0.2362101 0.2390773 0.2420306 0.2450706
 0.2482025 0.2514278 0.2547491 0.2581676 0.2616806 0.2652892 0.2689773 0.2727444 0.2765482 0.2803838
 0.2841772 0.287918 0.2915122 0.2949432 0.2981112 0.3009894 0.3034716 0.305527 0.3070507 0.3080484
 0.3084573 0.3083825 0.3078432 0.3070669 0.3061469 0.3053623 0.3048272 0.304749 0.3052086 0.3062641
 0.3079466 0.310189 0.3129913 0.3162488 0.3199557 0.3240371 0.3284902 0.3332688 0.3383633 0.3437019
 0.3492529 0.3548721 0.3605135 0.3659884 0.3712882 0.3762879 0.3810727 0.3856599 0.3902266 0.3948963
 0.3998685 0.4053036 0.4112508 0.4178786 0.4246882 0.4317851 0.4376768 0.4422627 0.4434584 0.4410039
 0.4339641 0.422253 0.4073506 0.3894239 0.37124 0.3528998 0.3364607 0.3217863 0.309502 0.2993448
 0.2909992 0.2842352 0.2785257 0.273734 0.2695017 0.2657518 0.2623169 0.2591406 0.2561538 0.2533158
 0.2505966 0.2479767 0.2454442 0.2430006 0.240643 0.238387 0.2362333 0.2342012 0.2322917 0.2305276
 0.228911 0.2274761 0.2262268 0.2252064 0.2244161 0.2238885 0.2236115 0.2235815 0.2237598 0.2240907
 0.2245089 0.2249194 0.2252623 0.2254485 0.2254726 0.2252902 0.2249748 0.2245277 0.2240824 0.22366
 0.2234249 0.2233967 0.2237642 0.2245408 0.2259594 0.2280334 0.2310322 0.2349602 0.2399581 0.245948
 0.252565 0.2595433 0.265714 0.2707083 0.2729093 0.2722917 0.2678651 0.260317 0.2499409 0.2378223
 0.2249521 0.2121579 0.20024 0.1894475 0.1801118 0.1720403 0.1652684 0.1594616 0.1545729 0.1503226
 0.1466763 0.1434448 0.140614 0.1380536 0.1357579 0.1336351 0.1316831 0.1298433 0.128115 0.1264644
 0.1248904 0.1233725 0.1219094 0.1204892 0.1191121 0.1177734 0.1164744 0.115215 0.1139954 0.1128165
 0.1116753 0.1105717 0.1095003 0.1084601 0.107445 0.106454 0.1054831 0.1045315 0.1035995 0.1026869
 0.1017959 0.1009266 0.1000785 0.09925102 0.09843953 0.09764345 0.09685745 0.09608214 0.09531612 0.09456095
 0.09381908 0.09309108 0.0923795 0.09168188 0.09099788 0.09032211 0.08965143 0.08898136 0.08830854 0.08763371
 0.08695529 0.08628033 0.08560916 0.08495217 0.08431065 0.08369149 0.08309547 0.08251913 0.08196191 0.08141079
 0.08086518 0.08031385 0.07975829 0.07919855 0.0786373 0.07808244 0.0775346 0.07699918 0.07647431 0.07595964
 0.07545359 0.0749544 0.07446177 0.07397518 0.07349422 0.07301864 0.07254807 0.07208223 0.07162154 0.07116609
 0.07071579 0.07027078 0.0698295 0.06939186 0.06895689 0.06852462 0.06809594 0.06767097 0.06725095 0.06683575
 0.06642544 0.06601971 0.06561773 0.06521906 0.06482261 0.06442771 0.06403314 0.06363818 0.06324188 0.06284352
 0.06244238 0.06203791 0.06162975 0.06121745 0.06080067 0.06037988 0.05995518 0.05952649 0.05909392 0.05865603
 0.05821266 0.05776341 0.05730841 0.05685164 0.05639367 0.05594111 0.05549387 0.05505536 0.05462429 0.0541985
 0.05377705 0.05335664 0.05293805 0.0525209 0.05210617 0.05169511 0.05128679 0.05088118 0.0504766 0.05007179
 0.04966768 0.04926374 0.04886357 0.04846779 0.0480791 0.04769819 0.04732402 0.0469567 0.04659222 0.04623039
 0.04586792 0.04550508 0.04514284 0.04478177 0.04442529 0.04407313 0.0437266 0.04338441 0.04304437 0.0427061
 0.04236793 0.04203055 0.04169459 0.0413589 0.04102362 0.04068521 0.04034157 0.0399923 0.03963558 0.03927809
 0.0389205 0.03857049 0.03822973 0.03789783 0.03757521 0.03725395 0.03693369 0.03660769 0.03627627 0.03593934
 0.03559785 0.03525623 0.03491518 0.03457924 0.03424833 0.03392484 0.03360738 0.03329545 0.03298649 0.03267799
 0.03236755 0.03205241 0.03173248 0.03140644 0.03107715 0.03074503 0.03041331 0.03008299 0.0297546 0.0294285
 0.02910286 0.02877748 0.02845201 0.02812651 0.0278042 0.0274852 0.02717237 0.02686497 0.02656074 0.02625886
 0.0259549 0.02565004 0.02534412 0.02503966 0.02474085 0.02444784 0.0241633 0.02388366 0.02360736 0.02333111
 0.02305226 0.0227715 0.02248813 0.02220499 0.02192263 0.02164276 0.0213657 0.02109225 0.02082248 0.02055784
 0.02029841 0.02004506 0.01979761 0.01955445 0.01931522 0.01907705 0.01883997 0.01860243 0.018365 0.01812823
 0.0178926 0.01765926 0.01742786 0.01719866 0.01697062 0.01674313 0.01651528 0.01628633 0.01605624 0.01582454
 0.01559268 0.01536062 0.01513117 0.01490466 0.01468373 0.01446867 0.01426031 0.01405868 0.01386339 0.01367433
 0.01349063 0.01331191 0.01313586 0.0129618 0.01278595 0.01260854 0.01242762 0.01224518 0.01206331 0.01188392
 0.01171056 0.01154198 0.01137908 0.01121815 0.01105732 0.0108948 0.01072896 0.01056185 0.0103934 0.01022703
 0.01006323 0.009904186 0.009750197 0.009601424 0.009457878 0.009318074 0.009181762 0.009045653 0.008909366 0.00876895
 0.008624455 0.008473695 0.008317544 0.008156739 0.007992472 0.007826789 0.007660889 0.007496658 0.007335374 0.007178586
 0.007026979 0.006881766 0.006741354 0.006605834 0.006472026 0.006338987 0.00620575 0.00607166 0.005939548 0.005809581
 0.0056846 0.005564759 0.005449588 0.005338911 0.005230364 0.005123851 0.005017827 0.004911999 0.004804757 0.004695362
 0.004581033 0.004461967 0.004336562 0.004207195 0.004075491 0.003944639 0.003818084 0.003696169 0.003580803 0.003468409
 0.003358488 0.003246514 0.003131079 0.00301057 0.002884223 0.002753825 0.002619281 0.002484948 0.002351062 0.002221905
 0.002097553 0.001980188 0.001869376 0.00176367 0.001662546 0.001563086 0.001465713 0.001369862 0.001276428 0.001187305
 0.001101223 0.001018247 0.0009347447 0.0008476331 0.0007552403 0.0006545011 0.0005500307 0.0004421422 0.0003378666 0.0002395898
 0.0001486913 6.656248E-05 -1.319623E-05 -9.091522E-05 -0.0001739354 -0.0002627187 -0.0003586866 -0.0004615596 -0.0005673615 -0.0006758638
 -0.0007835461 -0.0008908251 -0.0009975288 -0.001103817 -0.001210423 -0.001316247 -0.001419867 -0.001520108 -0.001614555 -0.00170405
 -0.001787915 -0.001868973 -0.001948625 -0.002028798 -0.002111136 -0.002193921 -0.002277419 -0.002357791 -0.002434321 -0.002505192
 -0.002569915 -0.002630607 -0.002687349 -0.0027437 -0.002799676 -0.002856031 -0.002912451 -0.002967033 -0.003019972 -0.003070843
 -0.003120383 -0.00317054 -0.003221071 -0.003273072 -0.003324356 -0.003372648 -0.003416553 -0.00345325 -0.003485191 -0.003512394
 -0.003539261 -0.00356787 -0.003599506 -0.00363562 -0.003672495 -0.003709889 -0.003743484 -0.003772631 -0.003796621 -0.003815342
 -0.003830994 -0.003843658 -0.003854862 -0.003864503 -0.003872347 -0.003878744 -0.003884628 -0.003891099 -0.0039016 -0.0039165
 -0.003938713 -0.003966225 -0.003998506 -0.00403141 -0.004061256 -0.004085282 -0.004100072 -0.004107385 -0.004106264 -0.004102413
 -0.004097101 -0.004094839 -0.004097098 -0.00410294 -0.004112719 -0.004121577 -0.004129227 -0.004132045 -0.004130066 -0.004123972
 -0.004114145 -0.00410354 -0.004092416 -0.00408325 -0.004076289 -0.004073313 -0.00407471 -0.004082017 -0.004095384 -0.004115557
 -0.004142692 -0.00417677 -0.00421918 -0.004270286 -0.004332746 -0.00440783 -0.004496824 -0.004601022 -0.004717316 -0.004845996
 -0.004979878 -0.00511827 -0.005255179 -0.005390113 -0.005521892 -0.005650451 -0.00577528 -0.005895672 -0.00600624 -0.006106066
 -0.006187893 -0.006252585 -0.006298898 -0.006327635 -0.006341239 -0.006335932 -0.006309034 -0.006253932 -0.006161009 -0.006035548
 -0.00587199 -0.005697911 -0.00552037 -0.005372191 -0.005265193 -0.005213184 -0.005222752 -0.005284795 -0.005400627 -0.005544223
 -0.005714282 -0.00587733 -0.006032234 -0.006159901 -0.006262512 -0.006347824 -0.006418504 -0.006490712 -0.006563548 -0.006642812
 -0.006726475 -0.006813117 -0.006902006 -0.006991319 -0.007081673 -0.007172763 -0.007265997 -0.007362253 -0.007462178 -0.00756673
 -0.007674121 -0.007784247 -0.007894504 -0.008004212 -0.008112811 -0.00822001 -0.008327192 -0.008434393 -0.00854381 -0.008655613
 -0.008773107 -0.008896631 -0.009030557 -0.009174841 -0.009332035 -0.009500985 -0.009680098 -0.009867555 -0.01005901 -0.01025363
 -0.01044818 -0.01064348 -0.01083891 -0.01103618 -0.01123634 -0.01144016 -0.01164849 -0.01186056 -0.01207663 -0.01229424
 -0.01251318 -0.01273022 -0.01294492 -0.01315526 -0.01336098 -0.01356383 -0.01376398 -0.01396539 -0.01416807 -0.01437414
 -0.014583 -0.01479309 -0.01500396 -0.01521333 -0.0154216 -0.01562824 -0.01583437 -0.01604117 -0.01624985 -0.01646226
 -0.01667822 -0.01689886 -0.01712117 -0.01734465 -0.01756475 -0.01777991 -0.01798774 -0.01818711 -0.0183794 -0.01856449
 -0.01874536 -0.01892222 -0.01909759 -0.01927157 -0.0194456 -0.01961949 -0.01979259 -0.01996442 -0.02013229 -0.02029609
 -0.02045376 -0.02060628 -0.02075434 -0.02089957 -0.0210446 -0.02119039 -0.0213392 -0.02149007 -0.02164354 -0.02179682
 -0.02194889 -0.02209737 -0.02224089 -0.02238016 -0.02251488 -0.0226473 -0.02277774 -0.02290702 -0.02303528 -0.02316185
 -0.02328674 -0.02341032 -0.02353271 -0.0236552 -0.0237776 -0.02389977 -0.02402116 -0.02413999 -0.02425606 -0.02436777
 -0.02447612 -0.02458161 -0.0246858 -0.02479056 -0.0248965 -0.0250052 -0.02511476 -0.02522505 -0.02533297 -0.02543735
 -0.02553689 -0.02563077 -0.02572074 -0.02580672 -0.02589204 -0.02597695 -0.02606416 -0.02615377 -0.02624631 -0.02634158
 -0.02643781 -0.02653468 -0.02662956 -0.02672265 -0.02681308 -0.02690147 -0.02698873 -0.02707535 -0.02716249 -0.02725024
 -0.02733918 -0.02742903 -0.0275199 -0.02761095 -0.02770199 -0.02779157 -0.02787914 -0.02796404 -0.02804587 -0.02812549
 -0.02820286 -0.02827971 -0.02835615 -0.02843377 -0.02851262 -0.02859263 -0.02867365 -0.02875386 -0.02883317 -0.0289099
 -0.02898458 -0.02905796 -0.02913072 -0.02920498 -0.02928039 -0.02935755 -0.02943536 -0.02951274 -0.02958942 -0.0296645
 -0.02973928 -0.02981397 -0.02989036 -0.02996936 -0.03005078 -0.03013522 -0.03021937 -0.03030295 -0.03038233 -0.030457
 -0.03052797 -0.03059533 -0.03066414 -0.03073454 -0.03081 -0.03089 -0.03097369 -0.03106033 -0.03114715 -0.03123371
 -0.03131779 -0.03139905 -0.03147577 -0.03154847 -0.03161653 -0.03168202 -0.03174612 -0.03181075 -0.03187748 -0.03194616
 -0.03201715 -0.03208952 -0.0321629 -0.03223775 -0.03231401 -0.03239269 -0.03247395 -0.03255707 -0.03264201 -0.03272636
 -0.03281004 -0.03289118 -0.03296993 -0.03304611 -0.03311993 -0.03319202 -0.03326244 -0.03333167 -0.0333997 -0.03346651
 -0.0335327 -0.03359874 -0.03366553 -0.03373403 -0.03380427 -0.03387684 -0.03395019 -0.03402395 -0.03409673 -0.03416796
 -0.03423774 -0.034306 -0.03437309 -0.03443909 -0.03450381 -0.03456724 -0.03462978 -0.03469155 -0.03475432 -0.03481821
 -0.03488498 -0.03495429 -0.03502616 -0.03509954 -0.03517215 -0.03524309 -0.03530969 -0.03537224 -0.03542962 -0.03548351
 -0.03553462 -0.035585 -0.03563608 -0.03568844 -0.03574289 -0.03579806 -0.03585371 -0.03590888 -0.03596308 -0.03601816
 -0.03607411 -0.03613448 -0.03619945 -0.03627018 -0.03634638 -0.03642468 -0.03650456 -0.03658115 -0.03665475 -0.03672367
 -0.03678877 -0.03685139 -0.03691188 -0.03697153 -0.03703004 -0.03708732 -0.03714376 -0.03719924 -0.0372554 -0.0373131
 -0.03737335 -0.03743704 -0.03750319 -0.03757193 -0.03764107 -0.03771026 -0.03777811 -0.03784439 -0.03790881 -0.03797135
 -0.03803253 -0.03809237 -0.03815114 -0.0382088 -0.03826503 -0.03831978 -0.03837253 -0.03842367 -0.0384737 -0.03852338
 -0.0385743 -0.03862673 -0.03868176 -0.03873878 -0.03879784 -0.03885766 -0.03891766 -0.03897654 -0.03903368 -0.03908833
 -0.0391401 -0.03918922 -0.03923555 -0.03928028 -0.03932346 -0.03936683 -0.03941048 -0.03945554 -0.03950201 -0.0395503
 -0.03960025 -0.03965094 -0.03970212 -0.03975238 -0.03980144 -0.03984788 -0.03989189 -0.03993309 -0.03997205 -0.04000935
 -0.04004532 -0.04008054 -0.04011474 -0.04014793 -0.04017974 -0.04020996 -0.04023857 -0.0402655 -0.04029096 -0.04031503
 -0.04033757 -0.04035862 -0.0403774 -0.04039384 -0.04040799 -0.04041987 -0.04043004 -0.04043855 -0.04044611 -0.04045266
 -0.04045833 -0.04046297 -0.0404663 -0.04046805 -0.04046763 -0.04046489 -0.04045925 -0.04045119 -0.04044074 -0.04042877
 -0.04041583 -0.04040229 -0.04038846 -0.04037435 -0.04036007 -0.04034533 -0.04033027 -0.04031343 -0.04029477 -0.04027168
 -0.04024396 -0.04021112 -0.04017336 -0.04013462 -0.04009531 -0.04006065 -0.04003025 -0.04000568 -0.03998549 -0.03996696
 -0.03994855 -0.03992602 -0.03989941 -0.03986656 -0.03982946 -0.039789 -0.03974712 -0.0397055 -0.0396641 -0.03962341
 -0.03958258 -0.0395412 -0.03950002 -0.03945905 -0.03941958 -0.03938185 -0.03934538 -0.03931018 -0.03927476 -0.03923909
 -0.03920288 -0.03916623 -0.03912979 -0.03909349 -0.03905733 -0.03902122 -0.03898484 -0.03894816 -0.03891088 -0.03887319
 -0.03883503 -0.03879713 -0.03876027 -0.03872439 -0.03869019 -0.03865556 -0.03861996 -0.03858102 -0.03853757 -0.03849044
 -0.03843931 -0.03838725 -0.03833464 -0.03828274 -0.03823169 -0.03818069 -0.03812971 -0.03807829 -0.03802634 -0.03797305
 -0.03791829 -0.03786096 -0.03780122 -0.03773871 -0.037674 -0.037608 -0.03754099 -0.03747376 -0.03740622 -0.0373386
 -0.03727062 -0.03720231 -0.03713315 -0.03706289 -0.03699141 -0.03691844 -0.03684486 -0.03677083 -0.03669675 -0.03662273
 -0.03654851 -0.03647408 -0.03639967 -0.03632532 -0.03625156 -0.03617821 -0.03610418 -0.03602931 -0.03595199 -0.03587277
 -0.03579231 -0.03571115 -0.035631 -0.03555123 -0.03547184 -0.03539176 -0.03530994 -0.03522582 -0.03513866 -0.03504865
 -0.03495546 -0.03486039 -0.03476356 -0.0346669 -0.034571 -0.03447605 -0.03438243 -0.03428699 -0.03418956 -0.03408755
 -0.03398097 -0.03387081 -0.0337574 -0.03364396 -0.03353039 -0.03341845 -0.03330697 -0.03319397 -0.03307745 -0.03295208
 -0.032818 -0.03267188 -0.03251843 -0.03236052 -0.03220312 -0.03205108 -0.03190428 -0.03176417 -0.03162837 -0.03149629
 -0.03136702 -0.03124054 -0.03111475 -0.03098967 -0.03086075 -0.03072759 -0.03058933 -0.03044607 -0.03030166 -0.0301561
 -0.03001102 -0.02986586 -0.02971861 -0.02956934 -0.02941716 -0.02926251 -0.02910592 -0.02894769 -0.02878824 -0.02862834
 -0.02846908 -0.02831026 -0.02815294 -0.02799368 -0.02783112 -0.02766303 -0.02748761 -0.02730811 -0.02712482 -0.02694114
 -0.02675811 -0.02657213 -0.0263831 -0.02618614 -0.02598115 -0.02576897 -0.02554998 -0.02532814 -0.02510322 -0.0248763
 -0.02464668 -0.02441279 -0.02417425 -0.02392937 -0.0236786 -0.02342186 -0.02315966 -0.02289326 -0.02262043 -0.02234084
 -0.02204984 -0.02174475 -0.02142451 -0.02108718 -0.02073819 -0.02037846 -0.02001154 -0.01963876 -0.01925501 -0.01886028
 -0.01844446 -0.01800704 -0.01753939 -0.0170419 -0.01651422 -0.01595812 -0.01538266 -0.01478773 -0.01417973 -0.0135528
 -0.01289894 -0.01221041 -0.01147131 -0.01068099 -0.009831009 -0.008929397 -0.007978532 -0.006987084 -0.005960477 -0.004900941
 -0.003811686 -0.002686182 -0.001523913 -0.0003168603 0.0009379602 0.00222911 0.003556967 0.004888851 0.006223415 0.007545447
 0.0088575 0.01018066 0.01151597 0.01288241 0.0142729 0.01567377 0.01708119 0.018477 0.01986951 0.02126601
 0.02266591 0.02407898 0.0254787 0.02684872 0.02817228 0.02942813 0.03064505 0.03182324 0.03300991 0.03421661
 0.03546666 0.03676577 0.03811579 0.03951624 0.04098721 0.04253026 0.04419822 0.04599162 0.04794037 0.05003364
 0.05222793 0.05451801 0.05685453 0.05926131 0.06176214 0.06438922 0.06720372 0.07021827 0.07346413 0.07695804
 0.08070135 0.08477291 0.08919255 0.09409109 0.09952302 0.1055429 0.1121987 0.1193524 0.1270072 0.1349055
 0.1430268 0.1511665 0.1593145 0.1673929 0.1754126 0.183448 0.19154 0.1999414 0.2086905 0.2180946
 0.2280566 0.2385744 0.2493871 0.2600646 0.2705061 0.2803685 0.2898695 0.2990505 0.3081447 0.3173213
 0.3265618 0.335924 0.3452261 0.354436 0.3634262 0.3721768 0.3805886 0.3886553 0.3962355 0.4033214
 0.4098324 0.4157675 0.4211032 0.4258244 0.4298335 0.4331155 0.435554 0.4371761 0.4379794 0.4380085
 0.4373277 0.4359806 0.4340188 0.4315315 0.4285848 0.4252923 0.4217275 0.417963 0.4140313 0.4100076
 0.405906 0.4018276 0.397793 0.3938403 0.3899802 0.3861471 0.3823378 0.3784616 0.3745186 0.3704829
 0.3663629 0.3621984 0.3579874 0.3537507 0.3494686 0.3451057 0.340648 0.3360485 0.331328 0.3264744
 0.321562 0.3166265 0.3117799 0.3070807 0.3026341 0.2984864 0.2947163 0.2913506 0.2884365 0.2859893
 0.2840004 0.2824735 0.2813515 0.2806314 0.2802652 0.2802524 0.2805796 0.2812466 0.2822474 0.2835764
 0.2852114 0.2871448 0.2893471 0.2918155 0.2945316 0.297498 0.3007107 0.3041726 0.3078858 0.311849
 0.3160637 0.3205232 0.3252278 0.3301626 0.3353255 0.3406964 0.3462716 0.3520394 0.3579992 0.3641357
 0.3704483 0.376871 0.3833986 0.3899401 0.3965014 0.4030752 0.409668 0.4163296 0.4229955 0.4295565
 0.4359003 0.4417498 0.4471484 0.4519819 0.4564898 0.4608289 0.4651711 0.469703 0.4743209 0.479075
 0.4836499 0.4880291 0.4917014 0.4946495 0.4959898 0.495643 0.4927831 0.4873475 0.479742 0.4700512
 0.4596753 0.4486582 0.4379787 0.4275713 0.4177071 0.4083151 0.39936 0.3907901 0.3825132 0.3744685
 0.3665676 0.3587141 0.3508015 0.3427669 0.334511 0.326143 0.3176656 0.3092497 0.3009573 0.292803
 0.2848025 0.2769128 0.2691228 0.2615065 0.2540666 0.2469359 0.2401164 0.2336533 0.2275377 0.2217313
 0.2162302 0.2110008 0.2060424 0.2013446 0.1968878 0.1926454 0.1885687 0.1845948 0.1806684 0.1767167
 0.1727275 0.1686621 0.1645679 0.1604503 0.1563672 0.1523318 0.1483959 0.1445599 0.1409348 0.1375286
 0.1344776 0.1317929 0.1294709 0.1275044 0.1257566 0.1242164 0.1227437 0.1213318 0.1198804 0.1183868
 0.1167874 0.1150965 0.1133001 0.1114403 0.109551 0.1077023 0.1059534 0.1043916 0.1030768 0.1020891
 0.1014667 0.1012852 0.1015577 0.1024021 0.1038257 0.1060166 0.108992 0.1129436 0.1178885 0.1238272
 0.1307357 0.1381647 0.1460271 0.1534649 0.1604398 0.1662966 0.1711444 0.174936 0.1777949 0.1799411
 0.1814041 0.1822977 0.182655 0.1825033 0.1819889 0.1811725 0.1802793 0.1794049 0.1787378 0.1783565
 0.1783254 0.1786725 0.1793898 0.180478 0.1819458 0.1837952 0.1859952 0.188537 0.1912416 0.1940832
 0.1967804 0.1993241 0.2015146 0.2033842 0.2049075 0.2061432 0.20718 0.2080833 0.2089632 0.2098901
 0.2109508 0.2122291 0.2137934 0.2157171 0.2180624 0.2208025 0.2239726 0.2273799 0.2310071 0.2346153
 0.2381637 0.2416037 0.244923 0.2483115 0.2517793 0.2555307 0.2595496 0.2638116 0.2682703 0.2727086
 0.277099 0.2812566 0.2851705 0.2887544 0.2919555 0.2946908 0.2968586 0.2983447 0.2990595 0.2989079
 0.2978658 0.295887 0.2930266 0.2892749 0.2847639 0.2795027 0.2736812 0.2673133 0.2606274 0.2536374
 0.2466027 0.2395369 0.2326789 0.2260332 0.2197445 0.2138047 0.2082576 0.2030898 0.1982903 0.1938396
 0.1897019 0.1858463 0.1822235 0.1787925 0.175505 0.1723125 0.1691772 0.1660472 0.1628918 0.1596768
 0.1563801 0.1530124 0.1495675 0.1460909 0.1425882 0.1390882 0.1355946 0.132095 0.1285894 0.1250718
 0.1215504 0.1180891 0.1147076 0.1115318 0.1085733 0.1059382 0.1036116 0.1016196 0.09992878 0.09850551
 0.09731945 0.09632941 0.09551831 0.09486368 0.09435633 0.09399036 0.09374839 0.09362965 0.09359526 0.09364234
 0.0937118 0.09379852 0.09383569 0.09381836 0.09368747 0.09344059 0.09304763 0.09251234 0.09185267 0.09107932
 0.09024978 0.08937676 0.0885262 0.08770903 0.0869773 0.08633929 0.08582921 0.08544776 0.08521219 0.08510587
 0.08513004 0.08524477 0.08543905 0.08565678 0.08588167 0.08606068 0.08617973 0.08620878 0.08614023 0.08597489
 0.08571112 0.08537426 0.08496609 0.08452967 0.08406975 0.08364528 0.08326489 0.08299831 0.08285894 0.08291948
 0.08319949 0.08377075 0.08465436 0.08591631 0.08755174 0.0896029 0.09198442 0.09469149 0.09751327 0.1003884
 0.1030155 0.1052985 0.1069803 0.1079751 0.1082209 0.1076768 0.1065195 0.1047508 0.1026929 0.1003631
 0.09808271 0.09586062 0.09391081 0.09222279 0.09086637 0.08980957 0.08899788 0.08838582 0.08785439 0.0873652
 0.086807 0.08617271 0.08540513 0.08453982 0.08357535 0.08257528 0.08156633 0.08060578 0.07971987 0.07893251
 0.0782562 0.07768323 0.07721543 0.07683285 0.0765343 0.07629913 0.07612611 0.07599119 0.07589276 0.0758048
 0.07572714 0.07564396 0.07555851 0.07547255 0.07539003 0.07532164 0.07526653 0.07523008 0.0752046 0.07518562
 0.07516164 0.07512436 0.07506168 0.07496653 0.07482817 0.07464218 0.07439937 0.07409747 0.07372796 0.07328941
 0.07277531 0.07218459 0.07151901 0.07077879 0.0699809 0.06912733 0.06824549 0.06733687 0.06642456 0.06550684
 0.06459118 0.06367307 0.06274658 0.06180721 0.06084513 0.05985863 0.05884126 0.0577959 0.05672133 0.05562495
 0.05450874 0.05338359 0.05225265 0.05112766 0.05001151 0.04891353 0.04783558 0.04678218 0.04575382 0.04475368
 0.04378199 0.04284725 0.04195051 0.0411067 0.0403169 0.03959519 0.03894131 0.03836181 0.03785569 0.03742336
 0.03706534 0.03678168 0.03657575 0.0364508 0.03641059 0.03645936 0.03659791 0.03682771 0.03714854 0.03755869
 0.03806658 0.03867126 0.03939445 0.04023863 0.04122552 0.04235845 0.04363628 0.04505905 0.04659415 0.04823808
 0.04993896 0.05169249 0.05344741 0.05520137 0.05691793 0.05859951 0.06023179 0.06182308 0.06337912 0.06491046
 0.06643144 0.06794788 0.06947026 0.07099582 0.07252716 0.07405563 0.07557929 0.07708918 0.07858288 0.08005439
 0.08150209 0.08292501 0.08432245 0.08570047 0.08705934 0.08841503 0.08976946 0.09115047 0.0925623 0.09404316
 0.09559847 0.09726801 0.09905459 0.1009862 0.1030592 0.105282 0.1076434 0.1101366 0.1127441 0.1154539
 0.1182411 0.1210947 0.123978 0.1268813 0.1297542 0.1325867 0.1353219 0.1379504 0.1404271 0.1427455
 0.1448919 0.1468651 0.1486878 0.1503629 0.1519348 0.1534067 0.1548203 0.156175 0.1574919 0.1587655
 0.1599938 0.1611699 0.1622801 0.1633243 0.1642929 0.165199 0.1660452 0.1668583 0.1676498 0.1684537
 0.1692838 0.1701693 0.1711218 0.1721501 0.1732607 0.1744313 0.1756625 0.1769063 0.17816 0.1793729
 0.1805436 0.1816431 0.1826736 0.1836351 0.1845317 0.1853795 0.18618 0.1869468 0.1876766 0.1883715
 0.1890236 0.1896255 0.1901678 0.1906408 0.1910372 0.1913502 0.1915765 0.1917126 0.1917606 0.1917183
 0.1915985 0.1914002 0.1911543 0.1908621 0.1905693 0.1902785 0.1900305 0.1898264 0.1896852 0.1896051
 0.1895845 0.1896207 0.1897032 0.1898318 0.1899991 0.1902104 0.1904688 0.190786 0.1911756 0.1916511
 0.1922287 0.192916 0.1937238 0.1946464 0.1956872 0.1968252 0.1980585 0.1993555 0.2007115 0.2020984
 0.2035124 0.2049424 0.2063872 0.2078534 0.2093418 0.2108661 0.2124274 0.2140396 0.2157037 0.2174317
 0.2192241 0.221089 0.2230242 0.2250313 0.2271033 0.2292356 0.2314119 0.233623 0.2358363 0.238039
 0.2401766 0.2422329 0.244135 0.2458651 0.2473492 0.2485708 0.2494867 0.2500867 0.2503855 0.2503822
 0.250148 0.2496876 0.249094 0.2483703 0.2475874 0.24674 0.2458498 0.2448993 0.2438591 0.2426987
 0.2413547 0.2397899 0.2379327 0.2357556 0.2332052 0.2302855 0.226975 0.2233161 0.2193143 0.2150313
 0.2104819 0.2057248 0.2007706 0.1956725 0.1904359 0.185116 0.1797165 0.1742905 0.1688408 0.1634114
 0.1580049 0.1526591 0.1473782 0.1421988 0.1371262 0.1321933 0.1274029 0.1227762 0.1183112 0.1140156
 0.1098808 0.1059034 0.1020705 0.09837317 0.094803 0.09135247 0.08802502 0.0848189 0.08174482 0.07880531
 0.07600316 0.0733404 0.07080315 0.06839094 0.0660814 0.06387361 0.06175289 0.05971982 0.05777255 0.05591169
 0.05413931 0.05245439 0.05085482 0.04934021 0.04790754 0.04656014 0.04530038 0.04413347 0.0430653 0.0420985
 0.04123677 0.04047976 0.03982806 0.03928141 0.03884038 0.03850212 0.03826778 0.03812455 0.03807209 0.03808948
 0.0381752 0.03831381 0.03850476 0.03874372 0.03902948 0.03935277 0.03970712 0.0400604 0.04040233 0.04068562
 0.04090672 0.04103239 0.04107409 0.04103076 0.04092223 0.04076764 0.04057833 0.04036938 0.04013803 0.03988492
 0.03961262 0.03931646 0.03902603 0.03874241 0.0385141 0.03834714 0.03827696 0.03830736 0.03844407 0.03868695
 0.03902378 0.03945314 0.03995888 0.04053834 0.04117215 0.04185532 0.04256411 0.04329275 0.04401892 0.04473837
 0.04543576 0.04610986 0.04675286 0.0473692 0.04795751 0.04852905 0.04908754 0.04964523 0.05020751 0.05077792
 0.05136 0.05194249 0.05252582 0.05308711 0.05362502 0.05411416 0.0545533 0.05492307 0.05522358 0.05544673
 0.0555953 0.05567623 0.05569623 0.05567751 0.05562903 0.05557921 0.05553466 0.05551727 0.05552814 0.05557703
 0.05566013 0.05577878 0.05592556 0.05609806 0.05628814 0.05649243 0.05670746 0.05693088 0.057168 0.05741855
 0.05769352 0.0579938 0.05832713 0.05869371 0.05909014 0.05951496 0.05995343 0.06040347 0.06084734 0.0612835
 0.06169861 0.0620907 0.06244957 0.06277343 0.0630538 0.06329447 0.06349344 0.06366313 0.06381025 0.06394827
 0.06408583 0.06422844 0.06437992 0.06454086 0.06471145 0.06489506 0.06509192 0.06530696 0.06554083 0.0657934
 0.06606457 0.06634726 0.06664082 0.06693584 0.06723233 0.06752457 0.06781441 0.06810377 0.06839664 0.06870154
 0.06902377 0.06937434 0.06975779 0.07018377 0.07065161 0.07116607 0.07171743 0.07230392 0.07291104 0.07353378
 0.074162 0.07479262 0.07542011 0.07604405 0.07665495 0.07725225 0.07782364 0.07836857 0.07888611 0.0793782
 0.07986525 0.08035053 0.08086319 0.08140239 0.08198252 0.08259674 0.0832374 0.083898 0.08456446 0.08523563
 0.08590554 0.08657314 0.08723744 0.08789268 0.08853557 0.08916289 0.08977121 0.09036706 0.09095065 0.09153144
 0.09211095 0.09269416 0.09328155 0.09387759 0.09448254 0.09510155 0.09573437 0.09637997 0.09703708 0.09769813
 0.09836219 0.09902298 0.0996787 0.1003236 0.1009529 0.101557 0.1021309 0.1026644 0.1031576 0.1036064
 0.1040163 0.1043882 0.1047302 0.1050446 0.1053403 0.1056198 0.1058892 0.1061501 0.1064043 0.1066519
 0.1068937 0.1071298 0.1073642 0.1075969 0.1078319 0.1080684 0.108304 0.1085373 0.1087616 0.1089779
 0.109183 0.1093846 0.1095901 0.1098142 0.1100743 0.1103859 0.1107668 0.1112237 0.1117668 0.1123895
 0.113095 0.1138615 0.1146908 0.115531 0.1163819 0.1171479 0.1178228 0.1182951 0.1185583 0.1185628
 0.1183153 0.1178853 0.1172936 0.1166963 0.1161088 0.1156739 0.1153819 0.1152884 0.1153599 0.1155713
 0.1158824 0.1162412 0.1166122 0.1169535 0.117239 0.1174434 0.1175569 0.1175668 0.1174881 0.1173178
 0.117094 0.1168201 0.1165399 0.1162582 0.1160034 0.1157772 0.1155845 0.1154248 0.1152918 0.1151853
 0.1151025 0.1150427 0.1150029 0.1149787 0.114958 0.1149356 0.1148965 0.1148394 0.1147555 0.1146496
 0.1145177 0.1143793 0.1142342 0.1141345 0.114092 0.1141779 0.1144221 0.1148177 0.1153827 0.1159855
 0.1166136 0.1171859 0.1176961 0.1181906 0.1186728 0.119207 0.1197879 0.1204184 0.1210818 0.1217205
 0.1223158 0.1227949 0.1231451 0.1233115 0.1232912 0.1230563 0.1226178 0.1219708 0.1211424 0.1201391
 0.1190078 0.1177595 0.1164611 0.115126 0.1138285 0.1125811 0.1114446 0.1104277 0.1095559 0.1088316
 0.1082361 0.1077667 0.1073779 0.1070672 0.1067953 0.1065646 0.106362 0.1061941 0.1060707 0.1059966
 0.1059902 0.1060367 0.1061414 0.1062422 0.1063055 0.1062308 0.1059485 0.105406 0.104544 0.1034398
 0.1020813 0.100651 0.09917139 0.09782551 0.09663809 0.09569554 0.09500612 0.09453955 0.09429163 0.09418406
 0.0942146 0.09433036 0.09453392 0.0948083 0.09515467 0.09556794 0.09604703 0.09658718 0.09718887 0.09784995
 0.0985738 0.09936198 0.100219 0.1011471 0.1021526 0.1032365 0.1044115 0.1056785 0.1070593 0.1085565
 0.110196 0.1119812 0.1139275 0.1160365 0.1182983 0.1207105 0.1232323 0.1258546 0.1285013 0.1311505
 0.1336826 0.1360605 0.1381308 0.1398567 0.1410957 0.1418445 0.1420254 0.1416982 0.1408665 0.1396539
 0.1381177 0.1364061 0.1345864 0.1327758 0.1310211 0.129379 0.1278706 0.1264974 0.1252644 0.1241385
 0.1231183 0.122161 0.1212646 0.1203954 0.1195523 0.118712 0.1178726 0.1170135 0.1161339 0.1152189
 0.1142743 0.1133025 0.112312 0.1113168 0.1103167 0.1093194 0.1083123 0.1072917 0.1062415 0.1051542
 0.1040194 0.1028318 0.1015911 0.1002948 0.09895387 0.09756827 0.09615686 0.09472069 0.09328119 0.0918394
 0.09041359 0.08900394 0.08762037 0.08626219 0.08493076 0.08362734 0.08235426 0.0811175 0.07992847 0.07879456
 0.07773039 0.07673974 0.07583193 0.07500552 0.07426433 0.07359881 0.07300919 0.07247394 0.07198879 0.07152893
 0.0710883 0.07065519 0.07022654 0.06980645 0.06939494 0.06899854 0.06861737</values></Ydata></AB><ScSm><Ydata ylabel="Single channel"><values byteorder="INTEL" format="FLOAT32" numvalues="1814"> 0.08236885 0.08247622 0.0825994 0.08274358 0.08290157 0.0830587 0.08320089 0.08332311 0.08343031 0.08352858
 0.08362256 0.08372402 0.08385064 0.08400831 0.08418041 0.08433922 0.08446634 0.08456853 0.08467554 0.084811
 0.08495714 0.08505884 0.08507375 0.08501863 0.08496109 0.08496199 0.08503647 0.08518548 0.08543314 0.08576525
 0.08604399 0.08609722 0.08593471 0.08577667 0.08581106 0.08600561 0.08619918 0.08627966 0.0862269 0.08609607
 0.08604144 0.08627009 0.08685522 0.08758077 0.0880072 0.08772495 0.08662643 0.08505576 0.0837294 0.08336198
 0.08414937 0.08555143 0.08669754 0.08708987 0.08687326 0.08646363 0.08611265 0.08590131 0.08593403 0.08632211
 0.08700345 0.08766963 0.08788747 0.08738345 0.08635087 0.08541662 0.08513054 0.08553852 0.08637239 0.08737777
 0.0880697 0.08748503 0.08503146 0.08178341 0.0801539 0.08166749 0.0853657 0.08880348 0.09027696 0.08973277
 0.08806726 0.0863318 0.08544949 0.08590091 0.08741193 0.08922458 0.09069943 0.09148818 0.09137026 0.09035314
 0.08888676 0.08767699 0.0872895 0.08798146 0.08960108 0.09143412 0.0924864 0.09226344 0.09114072 0.08987567
 0.0890497 0.08903893 0.09004114 0.09184408 0.093844 0.09549158 0.09657781 0.0971172 0.09721531 0.09704478
 0.09675954 0.09647332 0.09637611 0.0966371 0.09707473 0.09719352 0.09673375 0.09602122 0.09563817 0.09582336
 0.09626605 0.09648198 0.09629601 0.09575714 0.09464605 0.09257729 0.08978915 0.08727492 0.08581465 0.08542368
 0.0859793 0.08755673 0.08967035 0.09103292 0.09084676 0.0898812 0.08964452 0.09075128 0.09252967 0.09399873
 0.09482145 0.09536295 0.09611864 0.09715604 0.09797044 0.09785891 0.09663885 0.09509604 0.09446426 0.09523544
 0.09668151 0.09774725 0.09815708 0.09839596 0.09884346 0.09921938 0.09882887 0.0973084 0.09524872 0.09398903
 0.09451535 0.09648679 0.09841295 0.09878565 0.09715218 0.09435513 0.09182389 0.09054758 0.09068388 0.09196578
 0.09406868 0.09646998 0.09835921 0.09904668 0.09844444 0.09704156 0.09537467 0.09353685 0.09136169 0.08917862
 0.08802596 0.0886856 0.09068103 0.09265098 0.09361033 0.09350757 0.09268214 0.09120563 0.08894587 0.08620444
 0.08401805 0.08340786 0.08422664 0.0851665 0.08514313 0.08431412 0.08351454 0.08311093 0.08278732 0.08221799
 0.08155014 0.08118327 0.08125636 0.08147235 0.08141397 0.08093371 0.08019671 0.07943965 0.07874873 0.07801272
 0.07709739 0.07613093 0.07551581 0.07550746 0.07587259 0.07612361 0.07600421 0.07559992 0.07505501 0.07433759
 0.07331125 0.0720107 0.07079136 0.07008755 0.06998864 0.07016465 0.07022285 0.0700074 0.06956099 0.06897451
 0.06832694 0.06766712 0.06701979 0.06643523 0.06598452 0.06566602 0.06537645 0.06501189 0.06455123 0.06402511
 0.06345303 0.06283672 0.06219563 0.06158639 0.06107019 0.06065904 0.06031257 0.05998432 0.05964278 0.05925681
 0.0588051 0.05830449 0.05779845 0.05731757 0.05686944 0.05645693 0.05608603 0.05575538 0.05544666 0.05513162
 0.05479313 0.05443552 0.0540702 0.05370152 0.05333369 0.05297895 0.05265123 0.05235735 0.05209169 0.05183646
 0.05158001 0.05133446 0.05111447 0.05090114 0.05065588 0.0503699 0.0500745 0.04980459 0.04957133 0.04936467
 0.04916509 0.04895281 0.04871417 0.04844702 0.04816957 0.04791991 0.04773009 0.04759995 0.04750583 0.04742339
 0.04733031 0.04720691 0.04705249 0.04688733 0.0467279 0.04657302 0.04641743 0.0462653 0.0461291 0.04602117
 0.04594184 0.0458744 0.04579959 0.04571197 0.0456163 0.04551969 0.04543377 0.04536783 0.04531206 0.04524427
 0.04515971 0.04507915 0.04502288 0.04498792 0.0449532 0.04490168 0.04483663 0.04477678 0.04473514 0.04470642
 0.04467701 0.04464021 0.04459895 0.04455871 0.04451964 0.0444744 0.04441724 0.04435448 0.04429877 0.04425344
 0.04421135 0.04416785 0.04412612 0.04408994 0.04405687 0.04401881 0.0439689 0.04390925 0.04384844 0.04378901
 0.04372272 0.04364197 0.04354975 0.04345506 0.04336299 0.04327139 0.04317388 0.04306594 0.04294885 0.04282669
 0.04270027 0.04256627 0.04242092 0.04226273 0.04209535 0.04192879 0.04177273 0.0416268 0.04148063 0.04132459
 0.04115853 0.04099127 0.04083321 0.04068828 0.04055282 0.04042313 0.04030172 0.04019403 0.04010226 0.0400254
 0.03996299 0.03991676 0.03989043 0.03988873 0.03991362 0.0399605 0.04002088 0.0400898 0.04016908 0.04026227
 0.04036888 0.04048511 0.04060899 0.04074173 0.04088477 0.04103721 0.04119525 0.04135291 0.04150613 0.04165795
 0.04181682 0.04198801 0.04217016 0.04236018 0.04255536 0.04274963 0.04293602 0.04311657 0.04330334 0.04350558
 0.04372039 0.04393964 0.0441615 0.04439125 0.04463363 0.04488891 0.04515611 0.04543627 0.04573089 0.04603773
 0.04634943 0.04665754 0.04695994 0.04726475 0.04758555 0.0479308 0.04829707 0.04867271 0.04904747 0.04941928
 0.04979282 0.05017305 0.05056027 0.0509517 0.05134666 0.05174751 0.05215513 0.05256655 0.05297869 0.05339216
 0.05380875 0.05422718 0.05464358 0.05505574 0.05546525 0.0558756 0.0562885 0.05670159 0.05711026 0.05751241
 0.05791064 0.05830903 0.05870926 0.05910965 0.05950594 0.05989353 0.06027211 0.06064758 0.06102547 0.06140262
 0.06177007 0.06212427 0.06247081 0.06281568 0.06315659 0.06348591 0.0638009 0.06410851 0.06441841 0.06473155
 0.06503785 0.06532663 0.06559789 0.06586079 0.06612276 0.06638408 0.06664405 0.06690785 0.06718144 0.06746173
 0.06773759 0.0680019 0.06825732 0.06850982 0.06876242 0.06901689 0.06927598 0.06954132 0.06981131 0.07008178
 0.07034811 0.07061081 0.07088022 0.07117046 0.07148504 0.07181448 0.07215068 0.07249661 0.07285744 0.07322913
 0.073603 0.07397796 0.07435987 0.07474781 0.07512805 0.07548589 0.07581925 0.07613569 0.07644113 0.07673997
 0.077043 0.07736418 0.07770592 0.07805282 0.07838096 0.0786716 0.07892028 0.07913808 0.07934162 0.07953769
 0.07971877 0.07987469 0.08000471 0.080116 0.08021268 0.0802879 0.08032407 0.08030035 0.08020027 0.08001217
 0.07972452 0.0793265 0.07881585 0.07820254 0.07749932 0.07670896 0.07582411 0.07483815 0.0737513 0.07256489
 0.07127603 0.06988497 0.06841041 0.06690034 0.0654306 0.0640907 0.0629651 0.06212346 0.06162293 0.06150024
 0.06173735 0.06222315 0.06275553 0.06309994 0.06307299 0.06259852 0.06170475 0.06047509 0.05899721 0.05734686
 0.05560604 0.05387946 0.0522736 0.05084543 0.04957428 0.0483864 0.04720467 0.04601997 0.04502972 0.04476644
 0.04595549 0.04901309 0.05358949 0.05868195 0.06327109 0.06686869 0.06954366 0.07159779 0.07329446 0.07478867
 0.07615969 0.07744692 0.07866808 0.07982486 0.08090412 0.08188201 0.08272661 0.08339776 0.08385562 0.08408205
 0.08410208 0.08399209 0.08386419 0.08382046 0.08389726 0.08403819 0.0841132 0.08396146 0.08342355 0.08234929
 0.08062346 0.07829931 0.07583304 0.07417451 0.07442234 0.07714893 0.08195849 0.08771847 0.09325354 0.09788786
 0.1014992 0.1042622 0.1064103 0.1081388 0.1095909 0.1108639 0.1120188 0.1130933 0.1141104 0.1150838
 0.1160192 0.1169186 0.1177849 0.1186234 0.1194383 0.1202298 0.1209984 0.1217485 0.1224865 0.1232163
 0.1239368 0.1246437 0.125335 0.1260143 0.1266865 0.1273507 0.1280029 0.1286438 0.1292804 0.1299182
 0.1305559 0.1311873 0.1318067 0.1324111 0.1329996 0.1335732 0.1341341 0.1346853 0.1352297 0.1357681
 0.1363006 0.1368276 0.1373487 0.1378636 0.1383735 0.1388805 0.139383 0.1398744 0.1403504 0.1408145
 0.1412756 0.1417403 0.1422103 0.1426833 0.143158 0.1436367 0.1441255 0.1446274 0.1451393 0.1456555
 0.1461714 0.1466844 0.1471927 0.1476966 0.1481986 0.1487002 0.1491998 0.1496953 0.1501878 0.1506803
 0.1511739 0.1516654 0.1521492 0.1526227 0.1530889 0.1535533 0.1540183 0.1544823 0.1549441 0.1554057
 0.155869 0.1563322 0.1567923 0.1572493 0.1577056 0.158161 0.158612 0.159058 0.1595038 0.1599554
 0.1604138 0.160875 0.1613339 0.1617872 0.1622358 0.1626843 0.1631375 0.1635976 0.1640629 0.16453
 0.164996 0.16546 0.1659214 0.1663781 0.1668284 0.1672744 0.1677208 0.1681688 0.1686151 0.1690562
 0.1694929 0.1699286 0.1703664 0.1708051 0.1712396 0.171665 0.1720813 0.1724917 0.1728992 0.1733063
 0.173714 0.1741215 0.1745274 0.1749317 0.1753353 0.1757387 0.1761426 0.1765458 0.1769445 0.1773364
 0.177723 0.1781058 0.1784838 0.1788577 0.1792302 0.1796026 0.1799718 0.1803354 0.1806951 0.1810555
 0.1814191 0.1817832 0.1821442 0.1825024 0.1828606 0.1832192 0.1835779 0.1839393 0.1843052 0.1846727
 0.1850391 0.1854056 0.1857723 0.1861364 0.1864979 0.186859 0.1872191 0.1875745 0.1879247 0.1882713
 0.1886159 0.1889603 0.1893055 0.1896496 0.1899909 0.1903284 0.1906595 0.1909827 0.1913018 0.1916222
 0.1919456 0.1922727 0.192603 0.1929328 0.1932582 0.1935825 0.1939111 0.1942415 0.1945671 0.1948883
 0.1952122 0.1955446 0.195884 0.1962222 0.1965524 0.196878 0.1972091 0.1975507 0.1979013 0.1982578
 0.1986161 0.1989702 0.1993178 0.1996605 0.1999984 0.2003327 0.2006696 0.2010106 0.2013479 0.2016757
 0.2019965 0.2023138 0.2026287 0.2029438 0.2032611 0.2035789 0.2038959 0.2042106 0.2045187 0.2048188
 0.2051167 0.2054144 0.205708 0.205999 0.2062946 0.2065935 0.2068895 0.2071816 0.2074712 0.2077583
 0.2080474 0.2083421 0.2086351 0.2089172 0.2091905 0.2094592 0.2097236 0.2099882 0.2102556 0.2105118
 0.2107308 0.210865 0.2107903 0.2102393 0.2087609 0.2057257 0.2004489 0.1924616 0.1817904 0.1690396
 0.155225 0.1414577 0.128643 0.117355 0.1079027 0.100445 0.0950742 0.09189507 0.09108511 0.09297534
 0.0981615 0.1071538 0.1190775 0.1305431 0.1369085 0.1357884 0.1292157 0.1217983 0.1169671 0.1152852
 0.1156009 0.1167696 0.118337 0.1204135 0.123277 0.1269643 0.1312306 0.1359497 0.1413492 0.1476637
 0.1546814 0.16182 0.1686176 0.1750343 0.1812782 0.1874399 0.193352 0.1987498 0.2034761 0.2075323
 0.2110199 0.2140746 0.2168146 0.2193167 0.2216337 0.2237991 0.2257852 0.2274813 0.2287586 0.2295758
 0.2300285 0.2303017 0.2305662 0.2309055 0.2313285 0.2318244 0.2323869 0.2330071 0.2336736 0.234377
 0.2351051 0.2358422 0.2365767 0.2372991 0.2379983 0.2386711 0.2393238 0.2399577 0.2405643 0.2411391
 0.2416881 0.2422204 0.2427436 0.2432617 0.2437726 0.2442737 0.2447668 0.245252 0.2457231 0.2461741
 0.246605 0.2470166 0.247409 0.2477874 0.2481592 0.2485293 0.2489014 0.2492782 0.2496558 0.2500268
 0.2503892 0.2507463 0.2510997 0.2514514 0.2518058 0.2521639 0.2525215 0.2528739 0.2532195 0.2535605
 0.2539026 0.254252 0.254606 0.2549554 0.2552946 0.2556272 0.2559625 0.2563112 0.2566779 0.2570547
 0.2574304 0.2578042 0.2581815 0.2585612 0.2589371 0.2593089 0.2596819 0.2600601 0.2604442 0.2608299
 0.2612058 0.2615587 0.2618862 0.2622008 0.2625219 0.2628609 0.2632138 0.2635682 0.2639187 0.2642691
 0.2646233 0.2649813 0.2653414 0.2657005 0.266055 0.2664086 0.2667729 0.2671537 0.2675449 0.2679394
 0.2683358 0.268733 0.269128 0.2695218 0.2699175 0.2703117 0.2706959 0.2710701 0.2714484 0.271851
 0.2722821 0.2727213 0.2731427 0.2735412 0.2739334 0.274339 0.2747681 0.2752119 0.2756371 0.2760085
 0.2763352 0.2766789 0.2770969 0.2775872 0.2780998 0.2785882 0.2790415 0.2794744 0.2799011 0.2803184
 0.28071 0.2810647 0.2813956 0.2817443 0.2821543 0.282627 0.283117 0.283579 0.2840041 0.2844038
 0.2847872 0.2851623 0.2855232 0.2858287 0.2860429 0.2862197 0.2864962 0.2869638 0.2875655 0.2881554
 0.2886444 0.2890554 0.2894461 0.2898324 0.2901994 0.2905183 0.2907138 0.2907012 0.2905438 0.2905093
 0.2908521 0.2915558 0.2923663 0.2930489 0.2935432 0.2939086 0.2942193 0.2945148 0.2947748 0.294921
 0.294902 0.2948117 0.294872 0.2952283 0.2957866 0.296318 0.2966998 0.2969815 0.2972528 0.2975424
 0.2978064 0.2979099 0.2976821 0.2971494 0.2966965 0.2968193 0.2976451 0.298787 0.2997309 0.3002936
 0.3006266 0.3008597 0.3009098 0.300637 0.3000184 0.2991586 0.2983364 0.2980449 0.2986697 0.2999961
 0.3012965 0.3020565 0.3024172 0.3028105 0.3033952 0.3039881 0.3043647 0.3044625 0.3043424 0.3040561
 0.3036198 0.3031638 0.3030237 0.3035036 0.3045198 0.3056211 0.3064138 0.3068706 0.3071467 0.3071263
 0.3063085 0.3044011 0.3020985 0.3009102 0.301822 0.3042567 0.3066981 0.3081905 0.3088599 0.3092043
 0.3094451 0.3094669 0.3088025 0.3067849 0.3034552 0.3003581 0.2996077 0.3018088 0.3053811 0.3080897
 0.3087549 0.3074998 0.3051838 0.3030033 0.3020715 0.3028123 0.3047735 0.3070879 0.3090008 0.3100768
 0.3102247 0.3096549 0.308788 0.3081354 0.3079826 0.3079612 0.3072744 0.3057269 0.3041024 0.3029592
 0.3016083 0.2992437 0.2967436 0.2961209 0.2980295 0.3008147 0.3024265 0.3025083 0.3020365 0.3013552
 0.2993631 0.2949696 0.2891116 0.2847279 0.2842326 0.2871037 0.2903964 0.2916206 0.2906961 0.2891356
 0.2879081 0.2864238 0.2834517 0.2788849 0.274416 0.2720352 0.2718286 0.271872 0.2703625 0.2669221
 0.2617122 0.2549176 0.2480983 0.2445029 0.2462254 0.2515798 0.2565638 0.2583021 0.2559827 0.2496767
 0.2405183 0.2318178 0.2275835 0.2288313 0.2323709 0.2338544 0.2311977 0.2247125 0.2153054 0.2039592
 0.1925458 0.1836604 0.1789545 0.1778248 0.177692 0.1753159 0.1684662 0.1575776 0.1460037 0.1375607
 0.133156 0.130325 0.1262572 0.1204681 0.1143119 0.109035 0.1050187 0.1021117 0.09991314 0.0980646
 0.09652518 0.0951061 0.09291643 0.08932671 0.0855659 0.0841185 0.08610234 0.09027392 0.09495953 0.09969716
 0.1043131 0.1077193 0.1090023 0.1091762 0.1105799 0.1144172 0.1195937 0.124116 0.1271373 0.1293517
 0.1316355 0.1338365 0.1352848 0.1362129 0.1378496 0.1408181 0.1441221 0.1462188 0.1466034 0.1458495
 0.1445644 0.1428966 0.14081 0.1383135 0.1354481 0.1323023 0.129007 0.1256227 0.1221203 0.1184993
 0.1147671 0.1107269 0.1060026 0.1005981 0.09539595 0.09163859 0.08969736 0.08875758 0.08788894 0.08677141
 0.08504115 0.08192575 0.077543 0.07402559 0.07418141 0.07888158 0.08629112 0.09362106 0.09912848 0.1024255
 0.1036759 0.1034639 0.103535 0.1065859 0.1142674 0.1255482 0.1376802 0.1485381 0.157441 0.1641679
 0.1683246 0.1700483 0.1707596 0.172634 0.1771645 0.1842068 0.1921216 0.19845 0.2009373 0.1994228
 0.1972914 0.1994047 0.2070985 0.2162806 0.2219585 0.2236092 0.2244553 0.2266021 0.2292397 0.2313048
 0.2334732 0.2367058 0.2402632 0.2420884 0.2403912 0.234303 0.224057 0.2117084 0.2009389 0.1945288
 0.1920044 0.1908191 0.1893479 0.1873425 0.1843318 0.1800101 0.1761592 0.17569 0.1790119 0.1830772
 0.1847404 0.1837656 0.1819326 0.1803008 0.1782575 0.174928 0.1708218 0.1676526 0.1664843 0.1665094
 0.1660511 0.1643378 0.1616811 0.1583378 0.1541983 0.1496795 0.1460518 0.1443487 0.1442516 0.144447
 0.1439794 0.1429857 0.1422416 0.142395 0.1436727 0.1459647 0.1490517 0.1529504 0.1579873 0.1642186
 0.170868 0.1768001 0.1816237 0.1859557 0.1905063 0.1952251 0.1994865 0.2028965 0.2057589 0.2088213
 0.2126391 0.2171267 0.2216459 0.2255574 0.2287862 0.2318747 0.2353967 0.239306 0.2429609 0.2457732
 0.2476764 0.2489729 0.2499518 0.2507131 0.2511781 0.2512306 0.2510193 0.251119 0.252156 0.2541891
 0.2566031 0.258655 0.2600046 0.2607138 0.2609285 0.2607135 0.2601466 0.2594409 0.2588952 0.2587237
 0.2589465 0.259429 0.2599862 0.2604376 0.2606148 0.2603582 0.2595096 0.2579203 0.2555467 0.2526162
 0.2496973 0.247535 0.2467267 0.247455 0.2494282 0.2520233 0.2545398 0.2564515 0.2575572 0.2579708
 0.2579796 0.2578567 0.2577203 0.2574893 0.2569662 0.2560363 0.2548814 0.2540125 0.2540163 0.2551759
 0.2572803 0.2597712 0.2620714 0.2638345 0.2649916 0.2656554 0.2659994 0.2661811 0.2663149 0.2664715
 0.2666922 0.2670099 0.2674547 0.2680364 0.2687329 0.2695059 0.2703293 0.2711987 0.2721165 0.273075
 0.2740539 0.2750297 0.2759822 0.2768916 0.2777329 0.2784742 0.2790803 0.2795177 0.2797658 0.2798283
 0.2797321 0.2795089 0.2791674 0.2786774 0.2779831 0.2770295 0.2757652 0.2741303 0.2720896 0.2697076
 0.2671532 0.2645798 0.2620138 0.2593884 0.2566655 0.2538808 0.2510877 0.2483056 0.2455287 0.2427542
 0.2399864 0.2372276 0.2344716 0.2317073 0.228928 0.2261313 0.2233021 0.2203982 0.2173581 0.2141222
 0.21064 0.2068587 0.2027194 0.1981711 0.1931942 0.1878191 0.1821371 0.1762956 0.1704723 0.1648318
 0.1594892 0.1545067 0.149923 0.1457886 0.1421773 0.1391663 0.136804 0.1350913 0.1339879 0.1334338
 0.1333697 0.1337503 0.1345462 0.1357294 0.1372488 0.1390114 0.1408837 0.1427217 0.1444217 0.1459637
 0.1474032 0.1488108 0.1502147 0.1515995 0.1529416 0.1542219 0.1554066 0.1564391 0.1572689 0.1578853
 0.1583188 0.1586145 0.1588033 0.158882 0.158815 0.1585587 0.1580949 0.1574462 0.1566684 0.1558271
 0.1549711 0.1541184 0.1532626 0.152392 0.1514978 0.1505728 0.1496119 0.1486157 0.1475932 0.146568
 0.1455927 0.1447602 0.1441935 0.1440128 0.1442928 0.1450291 0.1461392 0.1474977 0.148986 0.1505316
 0.1521303 0.1538477 0.155795 0.1580788 0.160749 0.1637829 0.1671175 0.1706902 0.1744455 0.1783201
 0.1822463 0.1861668 0.1900311 0.1937766 0.1973283 0.2006232 0.2036396 0.2064043 0.2089686 0.2113645
 0.2135819 0.2155898 0.2173747 0.2189552 0.2203677 0.2216422 0.2227886 0.2238049 0.2246949 0.2254654
 0.2261028 0.2265623 0.2267826 0.2267078 0.2263038 0.2255707 0.2245394 0.2232474 0.2217188 0.2199738
 0.2180581 0.2160594 0.2140814 0.2121875 0.210366 0.2085578 0.206714 0.2048202 0.2028789 0.2008939
 0.1988721 0.1968258 0.1947682 0.1927065 0.1906454 0.1885997 0.1865994 0.1846742 0.1828378 0.181093
 0.179441 0.1778752 0.1763792 0.1749455 0.17359 0.1723479 0.1712634 0.1703758 0.1696979 0.1692043
 0.1688422 0.1685533 0.168299 0.1680815 0.1679327 0.1678634 0.1678275 0.1677466 0.1675631 0.16727
 0.1669058 0.1665252 0.1661689 0.1658549 0.1655858 0.1653403 0.1650579 0.164646 0.1640037 0.1630447
 0.1617226 0.1600543 0.1581159 0.1560205 0.153906 0.1519189 0.1501766 0.1487397 0.147609 0.1467249
 0.1459838 0.1452971 0.1446515 0.1441112 0.1437593 0.1436153 0.1435819 0.1434999 0.1432984 0.1430749
 0.1429994 0.1431622 0.1435275 0.1439844 0.1444148 0.1447417 0.14494 0.1450113 0.144964 0.1448143
 0.144577 0.1442492 0.143821 0.1432915 0.1426665 0.1419586 0.1411913 0.1403819 0.1395308 0.1386437
 0.137738 0.1368138 0.1358499 0.1348263 0.1337186 0.1325005 0.1312108 0.1300083 0.12912 0.1287242
 0.1288561 0.1293851 0.130098 0.1308309 0.1314937 0.1319877 0.1322192 0.1322578 0.1324121 0.1330703
 0.1344337 0.1363592 0.138429 0.140191 0.1413613 0.1418608 0.141763 0.141225 0.1403838 0.1392914
 0.1379791 0.13652 0.1349789 0.1333928 0.1318367 0.13041 0.1291651 0.128122 0.1272898 0.1266728
 0.126327 0.1260534 0.1246576 0.1203487 0.1132346 0.1069872 0.1060921 0.1110198 0.1175947 0.1214921
 0.1219448 0.1207715 0.119534 0.1186319 0.1180698 0.1179333 0.1182635 0.1189534 0.1197815 0.120494
 0.1209313 0.1210393 0.1206909 0.1195061 0.1168313 0.1119626 0.104676 0.09572758 0.08670248 0.07919559
 0.07405312 0.0711979 0.06991486 0.06933078 0.06890453 0.0686475 0.06890761 0.06997055 0.07186794 0.07445633
 0.07753175 0.08081895 0.08394057 0.08653636 0.08845142 0.08974732 0.09052515 0.09081099 0.0906046 0.08994177
 0.08888604 0.08751634 0.08592968 0.08422288 0.08248122 0.08080819 0.07935738 0.07831269 0.07780586 0.07781744
 0.07816611 0.07863152 0.0790868 0.07950735 0.07990541 0.08029914 0.08071145 0.08116177 0.08166553 0.08223508
 0.08285771 0.08348682 0.08407656 0.0846143 0.08511351 0.08558607 0.08601589 0.08636398 0.08662653 0.08686164
 0.08709042 0.08718852 0.08697328 0.08642916 0.08579747 0.08542299 0.08551589 0.08602584 0.08670276 0.08728521
 0.08766359 0.08789358 0.08807496 0.08821996</values></Ydata></ScSm><ScRf><Ydata ylabel="Single channel"><values byteorder="INTEL" format="FLOAT32" numvalues="1820"> 0.06962663 0.06975831 0.06987439 0.06997378 0.07006332 0.07015567 0.07026313 0.07038997 0.07053012 0.07067101
 0.07080039 0.07091358 0.07101263 0.07109854 0.07117224 0.07124574 0.0713409 0.07146905 0.07161677 0.07175516
 0.07186128 0.07193716 0.07201144 0.07211284 0.07223268 0.07232211 0.0723379 0.07229087 0.07224128 0.07224324
 0.07230669 0.07242902 0.07263307 0.07291192 0.07314912 0.07319394 0.07305156 0.07291065 0.07293457 0.07309727
 0.07325979 0.07332317 0.07326974 0.07315169 0.07310659 0.07331017 0.07381716 0.07443685 0.07479328 0.07453911
 0.07358545 0.07223083 0.07109237 0.07078148 0.07146011 0.07265949 0.07363337 0.07396052 0.07377042 0.07342013
 0.07312253 0.07294466 0.0729753 0.07330927 0.07389224 0.07445874 0.07463779 0.07419868 0.07331338 0.07252191
 0.07229018 0.07264916 0.07336539 0.07422238 0.07480706 0.07429783 0.07219423 0.06942255 0.06804653 0.0693596
 0.07253027 0.07546566 0.07671676 0.07624707 0.07482734 0.07335623 0.07261822 0.07301604 0.07431144 0.07586096
 0.07712364 0.07779944 0.07769486 0.0768185 0.07556237 0.07453336 0.07421359 0.07482009 0.07621819 0.07779042
 0.07868455 0.07848439 0.07752126 0.07644811 0.07575987 0.07577203 0.07664841 0.07820548 0.07992777 0.08134739
 0.08228634 0.08275633 0.0828467 0.08270624 0.08246952 0.08223642 0.08216958 0.08241019 0.08279651 0.08290078
 0.08250521 0.08189864 0.08158551 0.08176717 0.0821697 0.08237343 0.08222868 0.081779 0.08083548 0.07906739
 0.07668304 0.0745386 0.07330215 0.0729862 0.07349125 0.07488447 0.07673763 0.07793138 0.07778271 0.07696722
 0.07678919 0.07777263 0.07933329 0.08062641 0.08136645 0.08187248 0.08257021 0.08351099 0.08425371 0.08419269
 0.08317734 0.08189571 0.08141801 0.08216195 0.08348558 0.0844747 0.08490196 0.08519602 0.08568323 0.08611289
 0.08587858 0.08467101 0.08301835 0.08209465 0.08274979 0.08466818 0.08653866 0.0870446 0.08579731 0.08354542
 0.08155123 0.08068552 0.08109055 0.08254325 0.08476546 0.08728439 0.08935715 0.09034757 0.09016638 0.08925742
 0.08811569 0.08682536 0.08523025 0.08364886 0.08306774 0.08421808 0.08663557 0.08902887 0.09047112 0.09091552
 0.09067249 0.08978297 0.08809994 0.08593848 0.08436695 0.08441372 0.08589343 0.08745562 0.08801967 0.08778488
 0.0876139 0.08785772 0.088166 0.08820733 0.08816621 0.08848143 0.08928422 0.09022777 0.09085169 0.09100469
 0.09087828 0.09073611 0.09066305 0.0905167 0.09014869 0.0897399 0.08978197 0.09055904 0.09176557 0.09281361
 0.09341104 0.09367491 0.09377361 0.09364003 0.0930849 0.09216752 0.091373 0.09126811 0.09195059 0.09297474
 0.09382473 0.09430009 0.09446343 0.09444066 0.09433573 0.09420832 0.09409229 0.09406535 0.09423116 0.0945809
 0.09495749 0.09521072 0.09531832 0.09532713 0.09525587 0.09510145 0.09490162 0.09474914 0.09473325 0.09487024
 0.0951025 0.09535648 0.09557312 0.0956977 0.09569861 0.09560824 0.09550283 0.09543241 0.09540034 0.09540629
 0.09546784 0.09558891 0.09573385 0.09585185 0.09591851 0.09594223 0.09593846 0.09591498 0.09588154 0.09585819
 0.09586803 0.09592271 0.09601033 0.09610306 0.09619075 0.09629605 0.09643105 0.09655398 0.09660491 0.09657931
 0.09653506 0.096531 0.09658189 0.09666568 0.09674893 0.09680006 0.09679446 0.09673023 0.09664967 0.09662764
 0.09671552 0.09690294 0.09714305 0.09739257 0.09761535 0.09778254 0.09789496 0.09798327 0.09806947 0.09814586
 0.09820025 0.0982454 0.09831753 0.09844892 0.09863797 0.09884638 0.09903137 0.09917466 0.09928063 0.09936988
 0.09947791 0.0996252 0.09977835 0.09987712 0.09991348 0.09994981 0.1000424 0.1001752 0.1002868 0.1003438
 0.1003712 0.1004175 0.1005039 0.1006118 0.1007135 0.1008048 0.1009057 0.1010307 0.1011586 0.1012392
 0.1012415 0.1011918 0.1011483 0.1011433 0.1011676 0.101208 0.1012694 0.1013535 0.1014359 0.1014823
 0.1014843 0.1014684 0.1014675 0.1014854 0.1014944 0.1014682 0.1014106 0.1013507 0.1013152 0.1013089
 0.1013145 0.1013079 0.101274 0.1012138 0.1011386 0.1010597 0.1009806 0.1009033 0.100844 0.1008297
 0.1008623 0.1008909 0.1008437 0.1006954 0.1004935 0.1003133 0.1001928 0.1001123 0.1000258 0.09990387
 0.0997518 0.09959448 0.09945108 0.09932378 0.09920505 0.09909058 0.0989875 0.09891337 0.09887989 0.09886971
 0.09883766 0.09874956 0.09861766 0.09848619 0.09838663 0.09831905 0.09826954 0.0982286 0.09819485 0.09817407
 0.09817226 0.09818222 0.09818444 0.09816945 0.09815136 0.09815478 0.09819765 0.09828456 0.09839904 0.09850167
 0.09855841 0.09857781 0.09860433 0.09867089 0.09877229 0.0988865 0.09900384 0.09912764 0.09926084 0.09940375
 0.09956089 0.09974061 0.09994662 0.1001719 0.1004014 0.1006215 0.1008297 0.1010379 0.1012639 0.1015182
 0.1017957 0.1020808 0.1023597 0.1026313 0.1029029 0.1031786 0.1034542 0.1037283 0.1040116 0.1043173
 0.1046437 0.1049748 0.1052975 0.1056126 0.1059281 0.1062476 0.106569 0.1068926 0.1072282 0.1075882
 0.1079673 0.1083347 0.108658 0.1089367 0.109204 0.1094967 0.1098266 0.1101769 0.1105149 0.1108144
 0.1110789 0.1113399 0.1116239 0.1119257 0.1122251 0.1125238 0.112849 0.1132153 0.1135952 0.1139346
 0.1142026 0.1144203 0.1146379 0.1148811 0.1151302 0.1153541 0.1155532 0.1157559 0.1159803 0.1162192
 0.1164641 0.1167229 0.1170016 0.117283 0.1175395 0.1177628 0.1179661 0.118161 0.1183425 0.118497
 0.1186176 0.1187153 0.1188165 0.1189427 0.1190899 0.119235 0.1193664 0.1194969 0.1196458 0.1198198
 0.1200188 0.1202465 0.1205011 0.120764 0.1210157 0.1212639 0.1215371 0.1218404 0.1221344 0.1223758
 0.1225678 0.1227486 0.1229431 0.1231487 0.1233658 0.1236106 0.1238924 0.1241962 0.1244956 0.1247764
 0.1250483 0.1253349 0.1256477 0.1259639 0.1262409 0.1264569 0.1266325 0.1268106 0.1270236 0.1272776
 0.1275576 0.1278413 0.1281125 0.1283599 0.1285677 0.1287184 0.1288131 0.1288778 0.1289347 0.1289712
 0.1289468 0.1288268 0.1286001 0.128266 0.1278169 0.1272466 0.1265756 0.1258655 0.1252082 0.1246978
 0.1244047 0.1243653 0.1245797 0.1250106 0.1255859 0.1262136 0.1268031 0.127274 0.1275535 0.1275844
 0.1273475 0.1268734 0.1262255 0.1254721 0.1246689 0.1238555 0.1230596 0.1223178 0.1217064 0.1213477
 0.1213739 0.1218771 0.1228738 0.1242883 0.1259557 0.1276635 0.1292321 0.1305796 0.1317201 0.1327097
 0.1335979 0.1344169 0.1351883 0.1359243 0.1366244 0.1372828 0.1378997 0.13848 0.1390236 0.1395189
 0.1399466 0.1402884 0.1405359 0.1406982 0.1407972 0.1408523 0.1408744 0.1408736 0.1408585 0.1408187
 0.1407136 0.1404923 0.1401269 0.1396354 0.1390883 0.1386108 0.1383708 0.1385378 0.1392109 0.1403555
 0.1418073 0.1433504 0.1448065 0.1460713 0.1471031 0.1479094 0.1485377 0.1490518 0.1495017 0.1499135
 0.1503002 0.1506702 0.1510279 0.1513755 0.1517151 0.1520503 0.1523865 0.1527275 0.1530715 0.1534112
 0.153742 0.1540698 0.1544055 0.1547535 0.1551067 0.1554532 0.1557895 0.1561242 0.1564668 0.1568128
 0.1571473 0.1574624 0.1577663 0.1580752 0.1584011 0.1587463 0.1590997 0.159441 0.1597555 0.1600456
 0.1603254 0.1606065 0.1608907 0.1611757 0.1614601 0.1617434 0.1620248 0.1623042 0.1625829 0.1628617
 0.1631375 0.1634037 0.163657 0.1639017 0.1641467 0.1643976 0.1646538 0.1649103 0.1651634 0.1654146
 0.1656698 0.1659329 0.1662002 0.1664629 0.1667159 0.1669617 0.1672073 0.1674574 0.1677112 0.1679657
 0.168219 0.1684708 0.1687211 0.1689706 0.1692211 0.1694742 0.1697279 0.1699782 0.1702232 0.1704648
 0.170707 0.1709529 0.1712025 0.1714543 0.1717076 0.1719612 0.1722097 0.1724469 0.1726736 0.1728989
 0.1731305 0.1733678 0.1736058 0.1738416 0.1740765 0.1743129 0.1745521 0.1747942 0.1750375 0.1752804
 0.1755214 0.1757609 0.1760012 0.1762438 0.1764872 0.1767279 0.176965 0.1772009 0.1774372 0.1776726
 0.1779059 0.1781396 0.1783779 0.1786206 0.1788624 0.1790997 0.1793354 0.1795725 0.1798083 0.1800395
 0.1802683 0.1804991 0.1807327 0.1809672 0.1812018 0.1814365 0.181672 0.181908 0.1821434 0.1823767
 0.1826079 0.1828379 0.1830674 0.1832981 0.1835331 0.1837734 0.1840166 0.1842589 0.1844977 0.1847317
 0.184963 0.185196 0.1854318 0.1856686 0.1859042 0.1861385 0.1863733 0.1866124 0.1868592 0.1871117
 0.1873643 0.1876134 0.1878576 0.188096 0.1883304 0.188567 0.1888102 0.1890597 0.1893131 0.1895677
 0.1898203 0.1900715 0.1903249 0.1905816 0.1908398 0.1910983 0.1913548 0.1916027 0.1918388 0.1920674
 0.1922951 0.1925233 0.1927502 0.192973 0.1931899 0.193404 0.1936218 0.1938461 0.1940766 0.1943139
 0.1945591 0.194809 0.1950599 0.1953097 0.1955567 0.195801 0.196048 0.1963022 0.1965605 0.1968171
 0.1970701 0.1973222 0.1975778 0.1978394 0.1981033 0.1983629 0.1986197 0.19888 0.1991435 0.1994057
 0.1996679 0.1999338 0.2002022 0.2004705 0.2007383 0.2010035 0.201266 0.2015313 0.2018017 0.2020719
 0.2023401 0.202611 0.2028854 0.2031588 0.2034275 0.2036902 0.2039482 0.2042108 0.2044865 0.204771
 0.2050554 0.2053387 0.2056198 0.2058921 0.2061554 0.2064175 0.2066826 0.206951 0.2072234 0.2074935
 0.2077529 0.2080066 0.2082649 0.2085203 0.2087456 0.2088885 0.2088215 0.2082757 0.2068011 0.2037729
 0.1985129 0.190556 0.1799271 0.1672276 0.1534732 0.139776 0.1270376 0.1158243 0.1064384 0.09903725
 0.09371294 0.09056537 0.08976611 0.09164579 0.09680399 0.1057505 0.1176056 0.1289829 0.1352618 0.1340867
 0.1275031 0.1201026 0.1152841 0.1135888 0.1138629 0.1149721 0.1164698 0.1184663 0.1212339 0.1248059
 0.1289394 0.1335108 0.138746 0.144875 0.1516877 0.1586091 0.1651813 0.1713588 0.1773409 0.1832185
 0.1888352 0.1939389 0.1983778 0.2021513 0.2053573 0.2081301 0.2105896 0.2128175 0.2148692 0.2167751
 0.2185021 0.2199399 0.2209681 0.2215521 0.2217857 0.2218443 0.221888 0.2219963 0.2221835 0.222449
 0.2227925 0.2232036 0.223666 0.2241657 0.2246885 0.2252211 0.2257573 0.2262916 0.2268109 0.2273053
 0.2277753 0.228223 0.2286467 0.2290481 0.2294325 0.2298046 0.23017 0.2305332 0.2308916 0.2312405
 0.2315823 0.2319209 0.2322533 0.2325713 0.2328695 0.2331452 0.2334021 0.233652 0.2339057 0.2341648
 0.2344265 0.2346879 0.2349445 0.2351927 0.2354359 0.2356784 0.2359195 0.2361582 0.2363972 0.2366378
 0.2368781 0.2371172 0.2373554 0.2375932 0.2378327 0.2380767 0.2383227 0.2385657 0.2388033 0.2390368
 0.2392707 0.2395142 0.2397748 0.2400468 0.2403173 0.2405812 0.2408432 0.2411088 0.2413794 0.2416527
 0.2419244 0.2421916 0.2424569 0.2427225 0.2429835 0.2432314 0.2434636 0.2436865 0.2439119 0.2441495
 0.2443973 0.2446431 0.24488 0.2451131 0.2453507 0.2455963 0.2458487 0.2461039 0.2463573 0.246612
 0.2468764 0.2471528 0.2474347 0.2477187 0.2480071 0.248299 0.2485912 0.2488847 0.2491814 0.2494745
 0.2497529 0.2500172 0.2502866 0.2505862 0.2509215 0.2512696 0.2516003 0.2519062 0.2522053 0.2525176
 0.2528488 0.253184 0.2534904 0.2537427 0.2539594 0.2542005 0.2545152 0.2548988 0.2553049 0.25569
 0.2560394 0.2563634 0.2566765 0.2569805 0.257264 0.2575174 0.2577519 0.2580051 0.2583174 0.2586909
 0.259082 0.2594451 0.2597694 0.2600663 0.260348 0.2606257 0.2608962 0.2611217 0.261267 0.2613775
 0.2615761 0.2619453 0.2624351 0.2629158 0.2633095 0.2636378 0.2639512 0.2642626 0.2645588 0.2648145
 0.2649614 0.2649218 0.264754 0.2647032 0.2650013 0.2656321 0.2663625 0.2669786 0.2674262 0.2677612
 0.2680525 0.2683349 0.2685875 0.2687373 0.2687371 0.2686734 0.2687514 0.2691094 0.2696625 0.2701934
 0.270579 0.2708617 0.2711314 0.2714256 0.2717088 0.2718529 0.2716951 0.271258 0.2708942 0.2710552
 0.2718548 0.2729408 0.2738464 0.274405 0.2747537 0.2750109 0.2751013 0.2748978 0.2743785 0.2736364
 0.272926 0.2727038 0.2733291 0.2746053 0.2758598 0.2766184 0.2770115 0.2774358 0.2780389 0.2786554
 0.2790799 0.2792522 0.2792256 0.2790469 0.2787315 0.2784001 0.2783618 0.2788943 0.2799202 0.2810254
 0.2818472 0.2823595 0.2827076 0.2827876 0.282136 0.2804786 0.2784556 0.2774624 0.2784122 0.2807749
 0.2831495 0.2846483 0.2853859 0.2858284 0.286186 0.2863494 0.2858787 0.2841517 0.2812119 0.2785032
 0.2779928 0.2802314 0.2837372 0.2864304 0.2872165 0.2862098 0.2842131 0.2823497 0.2816597 0.2825327
 0.2845461 0.2868964 0.2888809 0.2900898 0.2904341 0.2901055 0.2894965 0.2890956 0.2891786 0.2893938
 0.2889842 0.2877715 0.2865026 0.2857019 0.2847114 0.2827668 0.2806997 0.28042 0.282553 0.285535
 0.2874273 0.2879012 0.2878866 0.287698 0.286272 0.2825684 0.2774961 0.2738893 0.2740822 0.277577
 0.281536 0.2835718 0.2836371 0.2832122 0.2832238 0.2830649 0.2814981 0.2784071 0.2754801 0.2747002
 0.2761205 0.2777826 0.2778825 0.2760382 0.2723445 0.266921 0.261399 0.2592261 0.262624 0.2698211
 0.2766154 0.279999 0.2790989 0.2739301 0.2657042 0.2581307 0.2557518 0.2597541 0.2665817 0.2713746
 0.2717986 0.2681512 0.2613879 0.2527049 0.2445605 0.2403655 0.2423086 0.2495902 0.25858 0.2643915
 0.263375 0.2560397 0.2477794 0.2448154 0.2483456 0.2537494 0.2560168 0.2544636 0.251686 0.2500311
 0.2503027 0.2521988 0.2546506 0.2566656 0.2580899 0.2582121 0.2543664 0.2448825 0.2334768 0.2272749
 0.2294621 0.2367292 0.2446827 0.2522661 0.2592752 0.2631825 0.2618324 0.2576995 0.2562982 0.2602916
 0.2669572 0.2716622 0.2725653 0.2713618 0.2702086 0.2691596 0.267235 0.2651905 0.2655486 0.2694563
 0.274885 0.2788317 0.2803304 0.2804483 0.2802652 0.2799656 0.2794019 0.2785452 0.2774412 0.2762244
 0.2751103 0.274159 0.2732281 0.2722493 0.271158 0.2692851 0.2654137 0.2593626 0.2533347 0.2503949
 0.2512537 0.2538265 0.2562307 0.2581493 0.2583265 0.2535341 0.2427866 0.2311243 0.2261493 0.2306792
 0.2405029 0.24911 0.2528392 0.251339 0.2453717 0.2364547 0.2283943 0.2266195 0.233998 0.2478379
 0.262316 0.273407 0.2804035 0.2836443 0.28297 0.2788866 0.2738606 0.2713382 0.2733792 0.2793056
 0.2862183 0.2903427 0.2886701 0.2814386 0.2737797 0.2726129 0.2797796 0.2895922 0.2951127 0.2954223
 0.2945907 0.295224 0.2962374 0.296433 0.2970037 0.2995247 0.3033693 0.3062334 0.3062044 0.3025636
 0.2957716 0.2880233 0.2829033 0.282549 0.2852887 0.2875584 0.2875594 0.2852914 0.280313 0.2727163
 0.2659291 0.2648738 0.270371 0.2778938 0.2827308 0.284376 0.2850552 0.285726 0.2849485 0.2812874
 0.2758542 0.2718229 0.2713192 0.2734173 0.2756669 0.2767466 0.2766659 0.2752292 0.2720501 0.2682048
 0.2663772 0.2684729 0.2735788 0.2788499 0.2821211 0.2832266 0.2831801 0.2828655 0.2825623 0.2821062
 0.2813222 0.280628 0.2810595 0.2831669 0.286055 0.2882026 0.2892222 0.2901764 0.2920846 0.2946768
 0.2968035 0.2977053 0.2976778 0.2976947 0.2985318 0.3001313 0.3016591 0.3022405 0.3018208 0.3013299
 0.3018475 0.3035727 0.3057424 0.307507 0.3086432 0.3094375 0.3102036 0.3110103 0.3116506 0.311817
 0.3115124 0.3112938 0.3118609 0.3133323 0.3151042 0.3164603 0.31716 0.3174028 0.3174175 0.3172406
 0.3168331 0.3162689 0.3157437 0.3154234 0.3153266 0.3153549 0.3154012 0.3154142 0.3153962 0.315384
 0.3154235 0.3155377 0.3157157 0.3159354 0.3161743 0.3163943 0.3165528 0.3166483 0.3167246 0.316808
 0.3168595 0.3168027 0.316574 0.31613 0.3154317 0.3144435 0.3131423 0.311504 0.3095049 0.3072109
 0.3049343 0.303275 0.3028776 0.3040192 0.3063835 0.3092388 0.3118594 0.3138412 0.3151335 0.3158805
 0.31626 0.3164091 0.3164136 0.3163162 0.3161343 0.3158809 0.3155729 0.315227 0.314862 0.3145048
 0.314185 0.3139137 0.3136713 0.3134152 0.3131017 0.3127079 0.3122351 0.3116975 0.3111045 0.3104502
 0.3097112 0.3088624 0.307906 0.3068867 0.3058714 0.3049117 0.3040183 0.3031611 0.3022935 0.3013719
 0.3003452 0.2991453 0.297751 0.296281 0.2949667 0.2939684 0.2932303 0.2925448 0.2917346 0.2907452
 0.2896052 0.2883642 0.2870689 0.2857522 0.2844207 0.2830548 0.2816222 0.2800929 0.2784557 0.2767226
 0.2749141 0.2730452 0.2711292 0.2691815 0.267193 0.2650928 0.2627479 0.2600013 0.2567159 0.2528005
 0.2482288 0.2430605 0.2374496 0.2316179 0.2258007 0.2201993 0.2149697 0.2102389 0.2061218 0.2027198
 0.2001098 0.1983357 0.1974127 0.1973374 0.1980937 0.1996472 0.2019315 0.2048368 0.2082084 0.2118585
 0.2155827 0.2191865 0.2225304 0.2255769 0.228381 0.2310127 0.2334837 0.2357518 0.237777 0.2395522
 0.2410859 0.242382 0.243447 0.2443055 0.2450022 0.2455859 0.2460923 0.2465343 0.2469046 0.2471922
 0.2474013 0.2475588 0.2477024 0.2478627 0.2480538 0.2482784 0.2485381 0.2488423 0.2492069 0.249646
 0.2501671 0.250769 0.2514393 0.2521586 0.2529154 0.2537213 0.254608 0.2556126 0.2567647 0.2580799
 0.2595537 0.2611538 0.2628147 0.2644398 0.2659213 0.2671688 0.2681315 0.2688004 0.2691946 0.2693428
 0.2692755 0.2690249 0.2686224 0.268092 0.2674521 0.2667255 0.2659394 0.2651088 0.2642292 0.2632897
 0.2622962 0.2612782 0.260272 0.2592965 0.2583489 0.2574217 0.2565134 0.2556241 0.254755 0.2539132
 0.2531076 0.2523412 0.2516147 0.2509329 0.2502926 0.2496655 0.2489983 0.2482331 0.247333 0.2462912
 0.245113 0.2437945 0.2423273 0.2407182 0.2389887 0.2371586 0.2352386 0.2332352 0.2311523 0.2289915
 0.2267477 0.2244121 0.221996 0.2195608 0.2172038 0.2150025 0.2129792 0.2111157 0.209382 0.207752
 0.2062085 0.2047365 0.2033182 0.2019428 0.2006183 0.1993615 0.198181 0.1970781 0.196054 0.1951118
 0.1942613 0.1935179 0.192887 0.1923569 0.1919126 0.1915446 0.1912537 0.1910617 0.1910027 0.1910749
 0.1912097 0.1913097 0.1913166 0.191239 0.1911322 0.1910526 0.1910222 0.1910319 0.1910601 0.1910629
 0.1909558 0.1906357 0.190013 0.1890189 0.1876144 0.185822 0.1837343 0.1814885 0.1792434 0.1771583
 0.1753567 0.1739031 0.1728051 0.172011 0.1714226 0.1709545 0.1705956 0.1704067 0.1704621 0.1707681
 0.1712001 0.1715545 0.1717291 0.1718403 0.1721222 0.1727273 0.1736331 0.1746917 0.1757354 0.1766572
 0.177419 0.1780097 0.1784306 0.1787091 0.1788769 0.1789385 0.1788878 0.1787298 0.1784683 0.1781064
 0.1776614 0.1771418 0.1765279 0.1758064 0.1749938 0.1740991 0.1731105 0.1720183 0.1708025 0.1694327
 0.16796 0.1665932 0.1656285 0.1652921 0.1656222 0.1664521 0.1675296 0.1686866 0.1698522 0.170923
 0.1717722 0.1724549 0.1732931 0.1746553 0.1766463 0.1790025 0.1812743 0.1831091 0.1843662 0.1850275
 0.1851207 0.1847183 0.1838777 0.1825864 0.1808547 0.1788001 0.1765696 0.1742811 0.1720758 0.1700906
 0.1683842 0.1669761 0.16587 0.1650499 0.1645634 0.1641376 0.162223 0.1565265 0.1472714 0.1393167
 0.1384943 0.1453226 0.1542827 0.159744 0.1607488 0.1596643 0.1584532 0.1575335 0.1568284 0.1564124
 0.1563455 0.1565267 0.1567366 0.1567461 0.1564615 0.1559057 0.1549562 0.1531058 0.1494627 0.1430814
 0.1336643 0.1221882 0.1106805 0.1011443 0.09457863 0.09077977 0.08877622 0.08750326 0.08641027 0.08564717
 0.08570818 0.08692534 0.08928506 0.0925764 0.09654006 0.1008373 0.1050004 0.1085813 0.1113884 0.1135016
 0.115052 0.1160807 0.1166024 0.1166789 0.1163947 0.1158278 0.115049 0.1140932 0.1129374 0.111555
 0.1100159 0.1085277 0.1073459 0.106601 0.1062199 0.106037 0.1059494 0.1059337 0.1059801 0.1060752
 0.1062185 0.1064128 0.1066581 0.106957 0.1072973 0.1076339 0.1079132 0.1081068 0.1082135 0.1082359
 0.1081519 0.1079233 0.1075648 0.1071696 0.1067809 0.1062561 0.1053787 0.1041403 0.1028496 0.1019352
 0.1016521 0.1019353 0.1024762 0.1029447 0.1031889 0.1032633 0.1032881 0.1032829 0.1031335 0.1027204
</values></Ydata></ScRf><Data_Parameters_AB><parameter name="DPF">1</parameter><parameter name="NPT">3497</parameter><parameter name="FXV">3996</parameter><parameter name="LXV">500</parameter><parameter name="CSF">1</parameter><parameter name="MXY">0.495989829301834</parameter><parameter name="MNY">-0.0711618736386299</parameter><parameter name="DAT">17/01/2024</parameter><parameter name="TIM">13:40:08.063 (GMT+1)</parameter><parameter name="DXU">WN</parameter></Data_Parameters_AB><AB__Qtest><MainReport name="Quality Test Report"><Header><Line><Legend>Test result ok/not ok [1/0]: </Legend><Value>1</Value></Line><Line><Legend>Method file: </Legend><Value>C:\Users\Public\Documents\Bruker\OPUS_8.2.28\QT\IRBT_v3_default.QT</Value></Line></Header><Matrix><Line><Legend></Legend><Legend>min</Legend><Legend>max</Legend><Legend>measured</Legend></Line><Line><Value>Absorption (X-Range 1):</Value><Value>0.400000</Value><Value>2.000000</Value><Value>0.478477</Value></Line><Line><Value>Noise (X-Range 4):</Value><Value></Value><Value>0.000300</Value><Value>0.000047</Value></Line><Line><Value>Signal/Noise (X-Range 2):</Value><Value>200.000000</Value><Value></Value><Value>319.836052</Value></Line><Line><Value>Signal/Noise (X-Range 3):</Value><Value>40.000000</Value><Value></Value><Value>174.575088</Value></Line><Line><Value>Water vapour (X-Range 5):</Value><Value></Value><Value>0.000300</Value><Value>0.000019</Value></Line><Line><Value>Signal/Water (X-Range 2):</Value><Value>100.000000</Value><Value></Value><Value>788.564226</Value></Line><Line><Value>Signal/Water (X-Range 3):</Value><Value>20.000000</Value><Value></Value><Value>430.419487</Value></Line><Line><Value>Fringes (X-Range 6):</Value><Value></Value><Value>0.000100</Value><Value>0.000044</Value></Line></Matrix></MainReport></AB__Qtest><Data_Parameters_ScSm><parameter name="DPF">1</parameter><parameter name="NPT">1814</parameter><parameter name="FXV">3996.63438082617</parameter><parameter name="LXV">499.579297603271</parameter><parameter name="CSF">1</parameter><parameter name="MXY">0.310224711894989</parameter><parameter name="MNY">0.0398887321352959</parameter><parameter name="DAT">17/01/2024</parameter><parameter name="TIM">13:40:08.063 (GMT+1)</parameter><parameter name="DXU">WN</parameter></Data_Parameters_ScSm><Data_Parameters_ScRf><parameter name="DPF">1</parameter><parameter name="NPT">1820</parameter><parameter name="FXV">4004.34989121387</parameter><parameter name="LXV">495.721542409425</parameter><parameter name="CSF">1</parameter><parameter name="MXY">0.317417532205582</parameter><parameter name="MNY">0.0680465251207352</parameter><parameter name="DAT">17/01/2024</parameter><parameter name="TIM">13:39:41.759 (GMT+1)</parameter><parameter name="DXU">WN</parameter></Data_Parameters_ScRf><Optic_Parameters_Rf><parameter name="APR">0</parameter><parameter name="APT">Open</parameter><parameter name="BMS">KBr</parameter><parameter name="DTC">RT-DLaTGS_IR-Biotyper [Microplate reader]</parameter><parameter name="HPF">0</parameter><parameter name="LPF">10.0</parameter><parameter name="LPV">4000</parameter><parameter name="PGR">0</parameter><parameter name="RCH">Module port</parameter><parameter name="RDX">0</parameter><parameter name="SRC">MIR</parameter><parameter name="VEL">10.0</parameter><parameter name="SON">Off</parameter></Optic_Parameters_Rf><Acquisition_Parameters_Rf><parameter name="ADT">1</parameter><parameter name="AQM">DD</parameter><parameter name="CFE">0</parameter><parameter name="COR">0</parameter><parameter name="DEL">0</parameter><parameter name="DLY">0</parameter><parameter name="HFW">8000</parameter><parameter name="LFW">0</parameter><parameter name="NSR">32</parameter><parameter name="PLF">AB</parameter><parameter name="RES">6</parameter><parameter name="RGN">-1</parameter><parameter name="STR">0</parameter><parameter name="TCL">MakeCompatibleScalar (0, {WSV=1.000000, ARV=0});</parameter><parameter name="TDL">37</parameter><parameter name="RPO">0</parameter></Acquisition_Parameters_Rf><FT_-_Parameters_Rf><parameter name="APF">B3</parameter><parameter name="HFQ">500</parameter><parameter name="LFQ">4000</parameter><parameter name="NLI">0</parameter><parameter name="PHR">24</parameter><parameter name="PHZ">ML</parameter><parameter name="SPZ">NO</parameter><parameter name="ZFF">1</parameter></FT_-_Parameters_Rf><Optic_Parameters_><parameter name="APR">0</parameter><parameter name="APT">Open</parameter><parameter name="BMS">KBr</parameter><parameter name="CHN">Module port</parameter><parameter name="DTC">RT-DLaTGS_IR-Biotyper [Microplate reader]</parameter><parameter name="HPF">0</parameter><parameter name="LPF">10.0</parameter><parameter name="LPV">4000</parameter><parameter name="PGN">0</parameter><parameter name="RDX">0</parameter><parameter name="SRC">MIR</parameter><parameter name="VEL">10.0</parameter><parameter name="SON">Off</parameter></Optic_Parameters_><FT_-_Parameters_><parameter name="APF">B3</parameter><parameter name="HFQ">500</parameter><parameter name="LFQ">4000</parameter><parameter name="NLI">0</parameter><parameter name="PHR">24</parameter><parameter name="PHZ">ML</parameter><parameter name="SPZ">NO</parameter><parameter name="ZFF">1</parameter></FT_-_Parameters_><Acquisition_Parameters_><parameter name="ADT">1</parameter><parameter name="AQM">DD</parameter><parameter name="CFE">0</parameter><parameter name="COR">0</parameter><parameter name="DEL">0</parameter><parameter name="DLY">0</parameter><parameter name="HFW">8000</parameter><parameter name="LFW">0</parameter><parameter name="NSS">32</parameter><parameter name="PLF">AB</parameter><parameter name="RES">6</parameter><parameter name="SOT">0</parameter><parameter name="TCL">MakeCompatibleScalar (0, {WSV=1.000000, ARV=0});</parameter><parameter name="TDL">37</parameter><parameter name="SPO">0</parameter><parameter name="SGN">-1</parameter></Acquisition_Parameters_><Instrument_Parameters_Rf><parameter name="HFL">15801.365274</parameter><parameter name="LFL">0</parameter><parameter name="LWN">15801.365274</parameter><parameter name="ABP">32157</parameter><parameter name="SSP">1</parameter><parameter name="ARG">2</parameter><parameter name="ASG">2</parameter><parameter name="ASS">32</parameter><parameter name="GFW">16</parameter><parameter name="GBW">16</parameter><parameter name="BFW">0</parameter><parameter name="BBW">0</parameter><parameter name="PKA">9109</parameter><parameter name="PKL">4987</parameter><parameter name="PRA">9122</parameter><parameter name="PRL">5010</parameter><parameter name="P2A">1</parameter><parameter name="P2L">1</parameter><parameter name="P2R">1</parameter><parameter name="P2K">1</parameter><parameter name="DAQ">0</parameter><parameter name="AG2">1</parameter><parameter name="SSM">1</parameter><parameter name="RSN">46382</parameter><parameter name="CRR">0</parameter><parameter name="SRT">1705498781.759</parameter><parameter name="DUR">19.6439971923828</parameter><parameter name="TSC">30.9</parameter><parameter name="MVD">0.43756976723671</parameter><parameter name="AN1">0.226006369856784</parameter><parameter name="AN2">0</parameter><parameter name="VSN">2.485 Apr  4 2017</parameter><parameter name="SRN">0085</parameter><parameter name="CAM">0</parameter><parameter name="INS">IR-Biotyper</parameter><parameter name="FOC">69</parameter><parameter name="RDY">1</parameter><parameter name="ARS">32</parameter></Instrument_Parameters_Rf><Sample_Parameters_><parameter name="BLD"></parameter><parameter name="CNM">Admin</parameter><parameter name="CPY"></parameter><parameter name="DPM"></parameter><parameter name="EXP">IRBT_v3_32Scans.XPM</parameter><parameter name="LCT"></parameter><parameter name="SFM">Microplate, HTS-XT</parameter><parameter name="SNM">240117-1222-Cdiff_SCFA_1_C14_232117486_F10_12b8be90-922d-46c1-b4d4-46c3f6fb2ab3.0</parameter><parameter name="XPP">C:\Users\Public\Documents\Bruker\OPUS_8.2.28\XPM</parameter><parameter name="IST">OK</parameter><parameter name="CPG">1252</parameter><parameter name="UID">2de04fc7-f278-4853-a048-b771a8e0e342</parameter></Sample_Parameters_><Instrument_Parameters_><parameter name="HFL">15801.365274</parameter><parameter name="LFL">0</parameter><parameter name="LWN">15801.365274</parameter><parameter name="ABP">32157</parameter><parameter name="SSP">1</parameter><parameter name="ASG">2</parameter><parameter name="ARG">2</parameter><parameter name="ASS">32</parameter><parameter name="GFW">16</parameter><parameter name="GBW">16</parameter><parameter name="BFW">0</parameter><parameter name="BBW">0</parameter><parameter name="PKA">7714</parameter><parameter name="PKL">4979</parameter><parameter name="PRA">7868</parameter><parameter name="PRL">5002</parameter><parameter name="P2A">1</parameter><parameter name="P2L">1</parameter><parameter name="P2R">1</parameter><parameter name="P2K">1</parameter><parameter name="DAQ">0</parameter><parameter name="AG2">1</parameter><parameter name="SSM">1</parameter><parameter name="RSN">23884</parameter><parameter name="CRR">0</parameter><parameter name="SRT">1705498808.064</parameter><parameter name="DUR">19.6439971923828</parameter><parameter name="TSC">30.9</parameter><parameter name="MVD">0.276390433311462</parameter><parameter name="AN1">0.22597746516344</parameter><parameter name="AN2">0</parameter><parameter name="VSN">2.485 Apr  4 2017</parameter><parameter name="SRN">0085</parameter><parameter name="CAM">0</parameter><parameter name="INS">IR-Biotyper</parameter><parameter name="FOC">69</parameter><parameter name="RDY">1</parameter></Instrument_Parameters_><History/></OPUSDataFile>
