<?xml version="1.0" encoding="UTF-8" ?>
<OPUSDataFile><AB><Ydata ylabel="Absorbance Units"><values byteorder="INTEL" format="FLOAT32" numvalues="3497"> -0.07483218 -0.07486404 -0.07489114 -0.07491249 -0.074924 -0.07492784 -0.07492688 -0.0749226 -0.07491888 -0.07491503
 -0.07491203 -0.07490809 -0.07490207 -0.07489331 -0.07488084 -0.07486602 -0.07484863 -0.07483204 -0.07481661 -0.07480676
 -0.07480324 -0.07480797 -0.07482143 -0.07483975 -0.07486271 -0.07488406 -0.07490396 -0.07492171 -0.0749382 -0.07495827
 -0.07498155 -0.07500993 -0.07504121 -0.07507112 -0.07509914 -0.07512173 -0.07514189 -0.07516177 -0.07518286 -0.07520818
 -0.07523388 -0.07525914 -0.0752797 -0.07529304 -0.07530092 -0.07530288 -0.07530347 -0.07530359 -0.07530396 -0.07530486
 -0.07530412 -0.07530168 -0.07529777 -0.07529265 -0.07528991 -0.07528973 -0.07529537 -0.07530612 -0.07532185 -0.07534078
 -0.07535888 -0.07537502 -0.07538499 -0.07539052 -0.07539123 -0.07539093 -0.07539281 -0.07539789 -0.07540845 -0.07542089
 -0.07543463 -0.07544588 -0.07545324 -0.07545677 -0.07545606 -0.07545354 -0.07544937 -0.07544564 -0.07544249 -0.07544161
 -0.07544307 -0.07544833 -0.07545755 -0.07547236 -0.0754928 -0.07552021 -0.07555374 -0.07559314 -0.07563496 -0.07567449
 -0.07570667 -0.07572319 -0.07572418 -0.07570399 -0.07567463 -0.07563924 -0.07561321 -0.07560435 -0.07561421 -0.07564693
 -0.07568721 -0.07573376 -0.0757708 -0.07579615 -0.07580925 -0.07581001 -0.07580809 -0.07580355 -0.07580017 -0.07579676
 -0.0757882 -0.07577406 -0.07574952 -0.07571626 -0.07567511 -0.07562941 -0.07558395 -0.07554387 -0.07551672 -0.07550572
 -0.07551799 -0.07554702 -0.07559395 -0.07564282 -0.07568843 -0.07571862 -0.07572812 -0.07571825 -0.07568765 -0.07564526
 -0.07559134 -0.07553858 -0.07548768 -0.07545789 -0.07544982 -0.07547803 -0.07553914 -0.07562317 -0.07572096 -0.07579449
 -0.07583772 -0.0758108 -0.0757295 -0.07559624 -0.07544209 -0.07530686 -0.07520109 -0.07515068 -0.07514106 -0.07517327
 -0.07522578 -0.07529178 -0.07535296 -0.07540375 -0.07543238 -0.07543518 -0.07541307 -0.07536469 -0.07530744 -0.07524223
 -0.07518796 -0.07514454 -0.075114 -0.07509503 -0.07507988 -0.07506938 -0.07506253 -0.0750607 -0.07506808 -0.07508196
 -0.07510044 -0.07511882 -0.07513021 -0.07513352 -0.07512504 -0.07510675 -0.07507876 -0.0750428 -0.07499827 -0.07495207
 -0.07490458 -0.074868 -0.074845 -0.07483955 -0.07485327 -0.07487481 -0.07490364 -0.07492377 -0.07493489 -0.07493031
 -0.07491109 -0.07488069 -0.07484022 -0.07479554 -0.07474712 -0.07469923 -0.07465154 -0.0746058 -0.07456047 -0.07451427
 -0.07446638 -0.07441486 -0.07436225 -0.07430907 -0.0742588 -0.07421336 -0.07417274 -0.07413758 -0.07410568 -0.07407659
 -0.07405016 -0.07402638 -0.07400502 -0.07398611 -0.0739644 -0.07393964 -0.07390654 -0.07386592 -0.07382049 -0.07377143
 -0.07372557 -0.07368179 -0.07364105 -0.07360089 -0.07355657 -0.07350886 -0.07345553 -0.07340162 -0.07335076 -0.07330613
 -0.07327215 -0.07324439 -0.07322289 -0.07320024 -0.07317314 -0.07314398 -0.07311119 -0.07308895 -0.07307905 -0.07308744
 -0.07311501 -0.07314204 -0.07316711 -0.07316173 -0.07312745 -0.07306059 -0.07296553 -0.07285933 -0.07274143 -0.07261792
 -0.0724888 -0.07235288 -0.07222111 -0.07210707 -0.07201765 -0.07196918 -0.07194505 -0.071944 -0.07193725 -0.07191092
 -0.07185478 -0.07175903 -0.07164387 -0.07151034 -0.07138277 -0.071265 -0.07116116 -0.07107204 -0.07098591 -0.07090216
 -0.07080889 -0.07070704 -0.07059722 -0.07048181 -0.07037159 -0.0702664 -0.07017288 -0.07008621 -0.07000214 -0.06991266
 -0.06980673 -0.06967651 -0.06950912 -0.06930777 -0.06906536 -0.06880621 -0.06853696 -0.06828289 -0.06805601 -0.06785236
 -0.06767605 -0.06749977 -0.0673209 -0.06711903 -0.06689227 -0.06664144 -0.06636707 -0.06608139 -0.06578469 -0.06548613
 -0.06518301 -0.0648707 -0.06454282 -0.06417871 -0.06377622 -0.06331692 -0.0628146 -0.06227702 -0.061724 -0.06117892
 -0.06064494 -0.06013411 -0.05963234 -0.05913873 -0.05863237 -0.0581089 -0.05754483 -0.05693431 -0.05626725 -0.05553989
 -0.05476865 -0.05395424 -0.05311544 -0.05225243 -0.0513623 -0.05044537 -0.04950116 -0.04853391 -0.04756333 -0.04659041
 -0.04563044 -0.04467636 -0.0437225 -0.04276073 -0.04177748 -0.04076896 -0.03972535 -0.03865087 -0.03754317 -0.03641471
 -0.03527288 -0.0341159 -0.03295142 -0.03174128 -0.03047961 -0.02913432 -0.02769497 -0.02620376 -0.02466153 -0.02314845
 -0.02166652 -0.02023464 -0.01884703 -0.01746273 -0.01607931 -0.01466232 -0.01321855 -0.011749 -0.01026248 -0.008780215
 -0.007297818 -0.005826239 -0.004335405 -0.002803653 -0.001199599 0.0005177261 0.002313671 0.00419781 0.006075224 0.007912922
 0.009677502 0.01134488 0.01298403 0.01459899 0.01626348 0.01798525 0.01976191 0.02159199 0.02342205 0.02525157
 0.02705134 0.02882894 0.03060372 0.03238334 0.03420362 0.03605958 0.03796275 0.03989416 0.04183164 0.04376289
 0.04566377 0.04754292 0.04939722 0.05124195 0.05308384 0.05493105 0.05678732 0.05865734 0.06054357 0.06244277
 0.06435585 0.06626834 0.06817862 0.07008907 0.07200052 0.07394531 0.07592344 0.07795167 0.0800214 0.08209955
 0.08417971 0.08622093 0.08823252 0.09021214 0.09217469 0.09414212 0.0961191 0.09812167 0.100139 0.1021714
 0.1041988 0.1062097 0.1081996 0.1101581 0.1121179 0.114082 0.1160916 0.1181562 0.1202693 0.1224331
 0.1245957 0.1267548 0.1288735 0.1309533 0.1329968 0.1350075 0.1370046 0.1389908 0.1409853 0.1429886
 0.1450128 0.147053 0.1491076 0.151171 0.1532351 0.1553038 0.1573758 0.1594595 0.1615605 0.1636779
 0.1658149 0.1679592 0.1701092 0.1722506 0.1743803 0.1764941 0.1785907 0.18068 0.1827628 0.18485
 0.1869408 0.189031 0.1911191 0.1931953 0.1952617 0.1973196 0.1993707 0.2014206 0.2034669 0.2055073
 0.2075423 0.2095699 0.2115958 0.213625 0.2156567 0.2176936 0.2197262 0.221752 0.2237643 0.2257608
 0.2277402 0.2297019 0.2316473 0.233576 0.2354944 0.2374029 0.2393061 0.2412037 0.24309 0.2449653
 0.2468263 0.2486759 0.2505242 0.2523703 0.2542196 0.2560644 0.2578943 0.2597059 0.26149 0.2632514
 0.2649913 0.2667125 0.2684165 0.2701046 0.2717761 0.2734386 0.2750941 0.2767463 0.2783969 0.2800385
 0.2816705 0.2832882 0.2848916 0.2864824 0.2880601 0.2896192 0.2911592 0.2926737 0.2941647 0.295636
 0.2970879 0.2985232 0.2999387 0.3013283 0.3026969 0.304045 0.3053852 0.3067291 0.3080768 0.3094341
 0.3107878 0.3121333 0.3134672 0.3147859 0.3161003 0.3174119 0.3187252 0.3200413 0.3213508 0.3226533
 0.3239343 0.3251933 0.3264221 0.3276225 0.3288012 0.3299614 0.3311189 0.3322729 0.3334298 0.3345844
 0.3357305 0.336867 0.3379891 0.3390999 0.3402007 0.341292 0.3423739 0.3434479 0.3445137 0.3455755
 0.3466351 0.3476898 0.3487399 0.3497784 0.3508041 0.3518207 0.3528283 0.3538356 0.354842 0.3558429
 0.3568372 0.3578149 0.3587769 0.359722 0.3606498 0.3615595 0.3624473 0.3633049 0.3641345 0.3649326
 0.3657098 0.3664731 0.3672294 0.3679856 0.3687383 0.3694887 0.3702277 0.3709541 0.3716573 0.3723354
 0.3729821 0.373596 0.3741809 0.374737 0.375275 0.3757955 0.3763092 0.376817 0.3773293 0.3778449
 0.3783675 0.3788899 0.3793971 0.3798811 0.3803186 0.3807149 0.3810637 0.381382 0.3816813 0.3819747
 0.3822735 0.3825805 0.3828997 0.3832285 0.3835675 0.3839108 0.3842576 0.3846042 0.3849494 0.3852986
 0.3856517 0.3860134 0.3863825 0.3867447 0.3870969 0.3874117 0.3876897 0.3879162 0.3880989 0.3882474
 0.3883718 0.3884941 0.3886199 0.3887655 0.3889285 0.3891125 0.3893131 0.3895283 0.3897576 0.3900016
 0.3902548 0.3905187 0.390774 0.391018 0.3912348 0.391421 0.3915875 0.3917344 0.3918887 0.392051
 0.3922351 0.3924391 0.3926567 0.3928859 0.3931149 0.393344 0.393567 0.393788 0.3940097 0.3942391
 0.3944853 0.3947535 0.3950521 0.3953786 0.3957356 0.3961136 0.3965115 0.3969148 0.3973202 0.3977133
 0.3980893 0.3984518 0.3987982 0.3991619 0.3995445 0.3999851 0.400484 0.4010486 0.4016748 0.4023372
 0.4030332 0.4037391 0.4044569 0.4051822 0.4059125 0.4066457 0.407366 0.408055 0.4086958 0.4092622
 0.4097636 0.4101893 0.4105835 0.4109582 0.4113584 0.4118032 0.4122949 0.4128421 0.4134039 0.4139784
 0.4145166 0.4150154 0.4154466 0.4158101 0.4161037 0.4163301 0.4165069 0.416637 0.4167427 0.4168233
 0.4168893 0.4169364 0.4169616 0.4169614 0.41693 0.4168668 0.4167691 0.4166375 0.4164717 0.4162705
 0.4160355 0.4157557 0.4154307 0.4150406 0.4145808 0.4140427 0.4134225 0.4127409 0.4119988 0.4112301
 0.4104358 0.4096326 0.408819 0.4079931 0.4071546 0.4063011 0.405433 0.4045503 0.403652 0.4027339
 0.4017995 0.4008489 0.3998933 0.3989435 0.3980057 0.3970905 0.3961866 0.3952937 0.394394 0.3934808
 0.3925502 0.3915984 0.3906385 0.3896711 0.3887137 0.3877676 0.3868424 0.3859376 0.3850458 0.3841647
 0.3832735 0.3823709 0.3814383 0.3804786 0.3794893 0.3784754 0.377445 0.3764009 0.3753497 0.3742928
 0.3732325 0.3721736 0.3711191 0.3700735 0.3690413 0.3680175 0.3670035 0.3659845 0.3649579 0.3639129
 0.3628468 0.3617657 0.3606694 0.3595736 0.3584789 0.3573917 0.3563108 0.3552263 0.3541367 0.3530282
 0.3519023 0.350755 0.3495909 0.3484165 0.3472362 0.3460592 0.3448851 0.3437186 0.3425522 0.3413839
 0.3402041 0.3390072 0.3377921 0.3365557 0.3353079 0.3340495 0.3327926 0.3315393 0.3302952 0.3290612
 0.3278367 0.3266215 0.3254108 0.3242038 0.3229924 0.3217761 0.3205477 0.3193085 0.3180583 0.3168001
 0.3155395 0.3142793 0.313026 0.3117802 0.3105448 0.3093189 0.3081029 0.3068945 0.305693 0.3044968
 0.303305 0.3021186 0.3009366 0.2997651 0.2986038 0.2974649 0.2963493 0.2952667 0.2942171 0.2931893
 0.2921802 0.2911556 0.2901141 0.2890275 0.2879039 0.2867501 0.2855806 0.2844288 0.2833009 0.2822236
 0.2811871 0.2801942 0.2792265 0.278273 0.2773182 0.276351 0.2753682 0.2743643 0.273351 0.2723285
 0.271315 0.2703132 0.2693336 0.2683778 0.2674436 0.2665312 0.2656384 0.2647662 0.2639246 0.2631151
 0.262353 0.2616353 0.2609645 0.2603295 0.2597106 0.2590926 0.2584439 0.2577592 0.2570163 0.256233
 0.2554098 0.2545808 0.2537624 0.2529756 0.2522349 0.2515296 0.250862 0.2502084 0.249565 0.2489246
 0.2482858 0.2476567 0.2470376 0.2464282 0.2458275 0.2452231 0.2446157 0.2440017 0.2433855 0.2427803
 0.2421878 0.2416206 0.2410724 0.2405404 0.2400165 0.2394902 0.2389593 0.2384182 0.2378689 0.2373121
 0.2367455 0.2361705 0.2355771 0.2349642 0.2343205 0.2336439 0.2329321 0.2321841 0.2314137 0.230622
 0.2298344 0.2290521 0.2282961 0.2275643 0.2268587 0.2261735 0.2254921 0.2248103 0.2241091 0.2233911
 0.2226503 0.2218948 0.221131 0.2203649 0.2196042 0.2188476 0.2180969 0.2173478 0.2165992 0.2158489
 0.2150963 0.2143392 0.2135771 0.2128093 0.2120351 0.2112638 0.2104957 0.2097463 0.2090148 0.2083023
 0.207605 0.2069018 0.2061915 0.2054556 0.2047029 0.2039419 0.2031852 0.2024582 0.2017612 0.201108
 0.2004836 0.1998823 0.1992897 0.1986949 0.1980979 0.1974947 0.1968948 0.1962995 0.1957159 0.1951451
 0.1945914 0.194055 0.1935455 0.1930635 0.192625 0.1922303 0.1918913 0.1916056 0.191368 0.1911728
 0.190998 0.1908391 0.1906725 0.1905025 0.1903221 0.1901467 0.1899881 0.1898652 0.189796 0.1897919
 0.1898643 0.1900141 0.1902441 0.1905516 0.1909356 0.1913975 0.1919364 0.1925606 0.1932704 0.1940774
 0.1949821 0.1959924 0.1971081 0.1983309 0.1996607 0.2010967 0.2026393 0.2042889 0.2060443 0.2079038
 0.2098637 0.2119175 0.2140624 0.2162919 0.2186077 0.2210089 0.2234979 0.2260769 0.228742 0.2314938
 0.2343231 0.2372275 0.2402022 0.2432455 0.2463601 0.2495467 0.2528001 0.2561201 0.2594711 0.2628478
 0.2661778 0.269451 0.2725762 0.2755383 0.278243 0.2806657 0.2827074 0.284341 0.285471 0.2861065
 0.2861942 0.2858351 0.2850524 0.2840541 0.282928 0.2819232 0.2811421 0.2807701 0.2808779 0.2815276
 0.2827468 0.2844962 0.2867773 0.2895176 0.2927129 0.2963085 0.3003017 0.3046553 0.3093581 0.3143389
 0.3195565 0.3248406 0.3301217 0.3351439 0.3398735 0.3441051 0.3479333 0.3513373 0.3545638 0.3577582
 0.3612447 0.3652361 0.3699447 0.3755952 0.3818628 0.3889113 0.3953356 0.4010879 0.4038994 0.4035199
 0.3985479 0.3888709 0.375597 0.3588967 0.3415381 0.3236539 0.307505 0.2929692 0.2808352 0.2708295
 0.2626933 0.2561793 0.250755 0.2462726 0.2423577 0.238929 0.2358108 0.2329442 0.2302567 0.2277046
 0.2252561 0.22289 0.2205929 0.2183698 0.2162176 0.2141585 0.212194 0.210345 0.2086129 0.2070128
 0.2055464 0.2042369 0.2030886 0.2021404 0.2013952 0.20089 0.2006139 0.2005697 0.2007173 0.2010017
 0.2013554 0.2016797 0.2019157 0.2019727 0.2018516 0.2015115 0.2010289 0.2004101 0.1997772 0.1991524
 0.1986764 0.1983658 0.1983879 0.1987524 0.1996895 0.2012122 0.2036066 0.206878 0.2111816 0.2164385
 0.2222783 0.2284439 0.2337808 0.2379667 0.2394996 0.2384222 0.2339335 0.2267158 0.2171647 0.2062407
 0.1948832 0.1837531 0.1735409 0.1643838 0.1565362 0.1497811 0.1441266 0.139272 0.1351696 0.1315861
 0.1284913 0.1257328 0.1232992 0.121087 0.119092 0.1172417 0.1155343 0.1139218 0.1124029 0.1109472
 0.1095535 0.1082036 0.1068972 0.1056256 0.1043896 0.103187 0.1020187 0.100885 0.09978705 0.0987262
 0.09770227 0.09671683 0.09576386 0.09484336 0.09394364 0.09306258 0.09219196 0.0913299 0.09047947 0.08964057
 0.08882323 0.08802775 0.08725966 0.08651798 0.08579838 0.08509905 0.08441006 0.08373071 0.08305354 0.08238019
 0.08171002 0.08104533 0.08038951 0.07974209 0.07910477 0.07847355 0.07784638 0.07722068 0.07659399 0.07596891
 0.07534498 0.07472838 0.07412004 0.07352526 0.07294495 0.07238048 0.07183211 0.07129608 0.07077204 0.07025264
 0.0697377 0.06922209 0.06870648 0.06819095 0.0676763 0.06716491 0.06665679 0.06615277 0.0656535 0.06515964
 0.06467318 0.06419633 0.06372986 0.06327591 0.06283083 0.062394 0.06196062 0.06152862 0.06109768 0.06066673
 0.06024092 0.05982069 0.05941073 0.05901159 0.05862179 0.05824109 0.057863 0.05748713 0.05710727 0.05672381
 0.0563351 0.05594211 0.05554667 0.05514957 0.05475335 0.05435802 0.05396465 0.05357308 0.05318347 0.05279586
 0.0524104 0.05202678 0.05164538 0.05126405 0.05088259 0.05049752 0.0501081 0.04971219 0.04930924 0.04889998
 0.04848435 0.04806494 0.04764189 0.04721818 0.04679407 0.04637307 0.04595526 0.04554331 0.04513619 0.04473275
 0.04433107 0.04392646 0.04351866 0.04310438 0.04268695 0.0422676 0.04185163 0.04144302 0.0410447 0.04065962
 0.0402864 0.0399258 0.03957329 0.03922845 0.03888547 0.03854359 0.03819853 0.03784981 0.03749737 0.03714134
 0.03678615 0.03643205 0.03608324 0.03573928 0.03540057 0.03506624 0.03473374 0.03440302 0.03407253 0.0337432
 0.0334158 0.03309086 0.03276954 0.03245093 0.03213497 0.03182001 0.03150527 0.03118971 0.03087249 0.03055478
 0.03023643 0.02992008 0.0296061 0.02929595 0.02898988 0.02868581 0.02838363 0.02807971 0.02777414 0.02746624
 0.02715663 0.02684831 0.02654122 0.02623718 0.02593466 0.02563123 0.02532592 0.02501539 0.02470185 0.02438553
 0.0240709 0.02376157 0.02345883 0.02316551 0.02287635 0.02259094 0.02230179 0.02200678 0.02170366 0.02139119
 0.02107458 0.02075398 0.02043722 0.02012466 0.01982053 0.01952462 0.01923655 0.01895576 0.01867931 0.01840677
 0.01813535 0.01786486 0.01759348 0.01732155 0.01704871 0.01677558 0.01650244 0.0162304 0.01596013 0.01569307
 0.01543024 0.01517192 0.01491872 0.014669 0.01442264 0.01417731 0.01393252 0.01368793 0.0134434 0.01320077
 0.01296014 0.012723 0.0124893 0.01225898 0.01203185 0.01180699 0.01158423 0.01136265 0.01114212 0.0109219
 0.01070195 0.0104818 0.01026175 0.01004177 0.009822619 0.009604788 0.009388879 0.009175353 0.008964372 0.008756113
 0.008550465 0.008347387 0.008147019 0.007949281 0.007755095 0.007564511 0.007378664 0.007197604 0.007021273 0.006849484
 0.006680102 0.006512952 0.006345716 0.006178905 0.006012761 0.00584835 0.005688382 0.005532981 0.005384185 0.005239843
 0.005098727 0.004958112 0.00481533 0.004669691 0.004519647 0.00436724 0.004212459 0.004058771 0.003906816 0.003759904
 0.003618755 0.003484295 0.003356872 0.003233602 0.003114326 0.002993757 0.002871757 0.00274501 0.002613868 0.002478584
 0.002339547 0.002198318 0.002054774 0.001909296 0.001761915 0.00161242 0.001462071 0.001311823 0.001163698 0.001019518
 0.0008805531 0.0007482743 0.000621878 0.0005017366 0.0003854431 0.0002726305 0.0001607686 4.93052E-05 -6.244255E-05 -0.0001747177
 -0.0002857418 -0.000395428 -0.0005017514 -0.0006048179 -0.0007053211 -0.0008037075 -0.0009029441 -0.001003274 -0.001107247 -0.001214523
 -0.001325593 -0.001439994 -0.001557357 -0.001676898 -0.001797945 -0.001918868 -0.002038291 -0.002154852 -0.002267006 -0.002375872
 -0.002480991 -0.002585862 -0.002691205 -0.002799802 -0.002912519 -0.003028415 -0.003147717 -0.003266029 -0.00338312 -0.003494058
 -0.003598812 -0.003695604 -0.003785065 -0.003869934 -0.003951047 -0.004033127 -0.004115926 -0.004201534 -0.004288527 -0.004375537
 -0.004461295 -0.004543451 -0.004622435 -0.004697442 -0.004770375 -0.00484188 -0.00491401 -0.004987702 -0.005064035 -0.005143585
 -0.005226046 -0.005311464 -0.005399384 -0.005489775 -0.005582209 -0.005676663 -0.005772103 -0.005868434 -0.005964041 -0.006058928
 -0.006152223 -0.006244157 -0.006335134 -0.006425321 -0.006515415 -0.006605237 -0.006694793 -0.006783905 -0.006872333 -0.006960065
 -0.007047089 -0.007133172 -0.007218356 -0.007301808 -0.007383221 -0.007462019 -0.007537825 -0.007611296 -0.007682407 -0.007752371
 -0.007821395 -0.007889205 -0.007955814 -0.008018906 -0.0080784 -0.008132635 -0.008181796 -0.008226169 -0.008266143 -0.008303274
 -0.008337957 -0.008371914 -0.008405404 -0.008439809 -0.008474755 -0.00851062 -0.008546129 -0.008580186 -0.008612439 -0.008641814
 -0.008670464 -0.008698929 -0.008729137 -0.008762266 -0.008796262 -0.008831201 -0.008863306 -0.008892001 -0.008917086 -0.00893848
 -0.00895897 -0.0089786 -0.008998453 -0.009018205 -0.009036012 -0.009051902 -0.009064879 -0.0090755 -0.009084668 -0.009092893
 -0.00910146 -0.009110675 -0.009121468 -0.009133785 -0.009148131 -0.009163541 -0.009179897 -0.009195308 -0.009208732 -0.009220103
 -0.009228752 -0.009237429 -0.009246598 -0.009257811 -0.009271642 -0.009284647 -0.009296706 -0.009301304 -0.009298297 -0.009284795
 -0.00926149 -0.009231584 -0.00919619 -0.009161335 -0.009127825 -0.00910072 -0.009080462 -0.009070163 -0.009069836 -0.009081003
 -0.009102629 -0.009134517 -0.009175167 -0.009223359 -0.00927916 -0.009341924 -0.009413693 -0.009495151 -0.009586557 -0.009688722
 -0.009796781 -0.009910434 -0.01002401 -0.01013701 -0.01024967 -0.01036217 -0.01047909 -0.01059957 -0.01072056 -0.01083865
 -0.01093826 -0.01101658 -0.01105688 -0.01106121 -0.01102451 -0.0109524 -0.01084974 -0.01072161 -0.0105723 -0.01041074
 -0.0102398 -0.01007876 -0.009934838 -0.00982669 -0.009762459 -0.009745073 -0.009778199 -0.009848755 -0.009956806 -0.01007948
 -0.01021544 -0.01034034 -0.01045342 -0.01054297 -0.01061065 -0.01066363 -0.01070406 -0.01074495 -0.01078676 -0.01083752
 -0.01089609 -0.01096453 -0.01104036 -0.0111213 -0.01120516 -0.01128855 -0.0113723 -0.01145576 -0.01154085 -0.01162889
 -0.01171844 -0.01180981 -0.01189929 -0.01198582 -0.01206954 -0.01214993 -0.0122319 -0.01231572 -0.01240713 -0.01250634
 -0.01261661 -0.01273776 -0.01286984 -0.01301241 -0.01316376 -0.0133233 -0.01348845 -0.01365893 -0.01383284 -0.01401052
 -0.01419155 -0.01437667 -0.01456644 -0.01476128 -0.01496203 -0.01516732 -0.01537718 -0.01558878 -0.01580145 -0.01601248
 -0.01622109 -0.01642656 -0.01662862 -0.0168281 -0.017025 -0.01722076 -0.01741547 -0.0176103 -0.01780531 -0.01800135
 -0.0181985 -0.01839763 -0.01859864 -0.01880202 -0.01900698 -0.01921252 -0.01941729 -0.01961887 -0.01981701 -0.02001009
 -0.02019996 -0.02038719 -0.02057381 -0.02076123 -0.02094915 -0.02113795 -0.02132627 -0.02151394 -0.02169986 -0.02188392
 -0.02206504 -0.02224318 -0.0224167 -0.02258558 -0.02274953 -0.02290878 -0.02306511 -0.02321878 -0.02337196 -0.02352458
 -0.02367769 -0.02383079 -0.0239834 -0.02413509 -0.02428489 -0.02443307 -0.02457935 -0.02472462 -0.02486965 -0.02501414
 -0.02515863 -0.02530061 -0.02543944 -0.02557296 -0.02570014 -0.02582276 -0.02594066 -0.02605814 -0.02617554 -0.0262949
 -0.02641622 -0.02653758 -0.02665878 -0.02677716 -0.02689304 -0.02700645 -0.02711817 -0.02723085 -0.02734454 -0.02746103
 -0.02757892 -0.02769727 -0.02781403 -0.02792652 -0.02803448 -0.02813633 -0.02823454 -0.02832954 -0.0284246 -0.02852103
 -0.02862006 -0.02872256 -0.02882638 -0.0289315 -0.0290345 -0.02913505 -0.02923227 -0.02932617 -0.02941913 -0.02951135
 -0.02960578 -0.02970208 -0.02980027 -0.02989968 -0.02999811 -0.03009551 -0.03019048 -0.03028375 -0.03037587 -0.03046724
 -0.03055879 -0.0306497 -0.03073964 -0.03082816 -0.03091448 -0.03100044 -0.03108632 -0.0311744 -0.0312657 -0.03135879
 -0.03145393 -0.03154654 -0.03163619 -0.03172094 -0.03180075 -0.0318792 -0.03195658 -0.03203757 -0.03212173 -0.0322093
 -0.03229935 -0.03238887 -0.03247776 -0.03256402 -0.03264876 -0.03273269 -0.03281701 -0.03290339 -0.03299202 -0.03308381
 -0.03317764 -0.03327342 -0.03336941 -0.03346508 -0.03355899 -0.03365076 -0.03373941 -0.03382467 -0.03390685 -0.03398586
 -0.03406341 -0.0341396 -0.03421642 -0.03429387 -0.03437267 -0.03445267 -0.03453339 -0.0346148 -0.03469648 -0.03477864
 -0.03486153 -0.03494527 -0.03503031 -0.0351163 -0.03520324 -0.03529032 -0.03537687 -0.03546254 -0.03554663 -0.03563034
 -0.03571365 -0.03579869 -0.03588606 -0.03597644 -0.03607026 -0.03616563 -0.03626249 -0.03635807 -0.03645222 -0.03654335
 -0.03663152 -0.03671683 -0.03679944 -0.0368803 -0.03695932 -0.03703682 -0.03711242 -0.03718515 -0.03725553 -0.0373232
 -0.03739069 -0.03746037 -0.03753489 -0.03761775 -0.03770762 -0.03780579 -0.03790649 -0.03800833 -0.03810559 -0.03819623
 -0.03827948 -0.03835449 -0.0384252 -0.03849173 -0.0385596 -0.03862908 -0.03870285 -0.03878067 -0.0388606 -0.03894214
 -0.03902127 -0.03909821 -0.03917125 -0.03924147 -0.03931059 -0.03937922 -0.03944947 -0.03952048 -0.03959228 -0.03966343
 -0.03973245 -0.03979959 -0.03986404 -0.03992839 -0.03999318 -0.04006118 -0.04013348 -0.04020988 -0.04029087 -0.04037278
 -0.04045537 -0.04053498 -0.04061139 -0.04068471 -0.04075519 -0.04082622 -0.04089794 -0.04097315 -0.04105138 -0.04113257
 -0.04121583 -0.04129907 -0.04138173 -0.04146177 -0.04153967 -0.04161506 -0.041689 -0.04176225 -0.04183545 -0.04190942
 -0.04198335 -0.04205722 -0.04212992 -0.04220101 -0.04227056 -0.04233838 -0.04240576 -0.04247277 -0.04254098 -0.04261046
 -0.0426822 -0.04275616 -0.04283209 -0.04290982 -0.04298818 -0.04306696 -0.04314487 -0.04322162 -0.04329596 -0.04336755
 -0.04343522 -0.0434989 -0.04355774 -0.0436129 -0.04366466 -0.04371522 -0.04376577 -0.04381812 -0.04387338 -0.04393171
 -0.04399357 -0.04405761 -0.04412378 -0.04419036 -0.0442572 -0.04432286 -0.04438723 -0.04445028 -0.04451204 -0.04457261
 -0.04463197 -0.04468997 -0.0447465 -0.04480096 -0.04485348 -0.04490411 -0.04495275 -0.04499939 -0.04504373 -0.04508528
 -0.04512427 -0.04516038 -0.04519497 -0.04522867 -0.04526259 -0.04529741 -0.04533323 -0.04537026 -0.0454081 -0.04544675
 -0.04548562 -0.04552473 -0.04556254 -0.04559896 -0.04563129 -0.04565942 -0.04568145 -0.04569777 -0.04570982 -0.0457184
 -0.04572744 -0.04573719 -0.04575077 -0.04576668 -0.04578406 -0.04580063 -0.04581292 -0.04582063 -0.04582177 -0.04581851
 -0.04581138 -0.04580271 -0.04579371 -0.04578492 -0.04577682 -0.04576899 -0.04576156 -0.04575331 -0.04574423 -0.04573226
 -0.04571728 -0.04569828 -0.04567536 -0.0456502 -0.04562309 -0.0455972 -0.04557246 -0.0455507 -0.04553116 -0.04551307
 -0.04549519 -0.04547494 -0.04545162 -0.04542281 -0.04539007 -0.04535355 -0.04531594 -0.04527926 -0.04524385 -0.04521083
 -0.04517784 -0.04514422 -0.04510939 -0.04507272 -0.04503717 -0.04500295 -0.04497283 -0.04494704 -0.04492529 -0.04490746
 -0.0448909 -0.04487543 -0.04485827 -0.0448396 -0.04481847 -0.04479543 -0.04477147 -0.04474699 -0.04472328 -0.04470023
 -0.04467828 -0.04465704 -0.04463647 -0.04461585 -0.04459518 -0.04457235 -0.04454665 -0.04451599 -0.04447921 -0.04443752
 -0.04439064 -0.04434224 -0.04429279 -0.04424417 -0.04419662 -0.04414833 -0.04409919 -0.04404642 -0.04399016 -0.04392985
 -0.04386608 -0.04380117 -0.04373558 -0.04367203 -0.04360985 -0.0435492 -0.0434891 -0.04342776 -0.0433663 -0.0433047
 -0.04324541 -0.04319065 -0.0431394 -0.04309272 -0.04304526 -0.04299563 -0.04294031 -0.04287774 -0.04281079 -0.04273931
 -0.04266937 -0.04260143 -0.04253864 -0.04248093 -0.04242567 -0.04237237 -0.0423158 -0.04225622 -0.0421918 -0.04212375
 -0.04205485 -0.0419852 -0.04191703 -0.04184808 -0.04177617 -0.04169982 -0.04161597 -0.04152701 -0.04143298 -0.04133807
 -0.04124439 -0.04115344 -0.04106665 -0.04098158 -0.04089834 -0.04081248 -0.0407234 -0.04062869 -0.040528 -0.04042378
 -0.04031621 -0.04020951 -0.04010365 -0.04000029 -0.03989906 -0.03979941 -0.03970071 -0.03960129 -0.03949976 -0.03939254
 -0.03927905 -0.03915588 -0.03902658 -0.03889277 -0.03875894 -0.03862935 -0.0385034 -0.03838244 -0.03826281 -0.03814336
 -0.0380232 -0.03790191 -0.03777977 -0.03765691 -0.03753176 -0.0374042 -0.03727293 -0.03713794 -0.03699981 -0.03685851
 -0.03671378 -0.03656575 -0.03641447 -0.03626105 -0.03610881 -0.03595846 -0.03581353 -0.03567281 -0.03553636 -0.03540224
 -0.03526865 -0.03513408 -0.03499727 -0.03485644 -0.03471023 -0.03455877 -0.03440126 -0.03424112 -0.03407909 -0.03391683
 -0.03375514 -0.03358981 -0.03342059 -0.03324405 -0.03306018 -0.03287217 -0.03268033 -0.03248939 -0.03229854 -0.032107
 -0.03191301 -0.03171079 -0.03149949 -0.03127377 -0.03103586 -0.03078598 -0.03052826 -0.03026772 -0.03000425 -0.02974068
 -0.02947101 -0.02919303 -0.02890288 -0.02859755 -0.02828168 -0.02795547 -0.02762468 -0.02729067 -0.02695152 -0.02660742
 -0.0262509 -0.02588162 -0.02549334 -0.02508643 -0.0246613 -0.02421957 -0.02376987 -0.02331252 -0.02285456 -0.02239168
 -0.02191924 -0.02143098 -0.02091527 -0.02037022 -0.01978907 -0.01917404 -0.01852508 -0.01784292 -0.01712872 -0.01637962
 -0.01559628 -0.01477017 -0.01390069 -0.01297452 -0.01198886 -0.01094276 -0.009834918 -0.008687653 -0.007501989 -0.006295605
 -0.005066885 -0.003805285 -0.002509818 -0.001167781 0.000215431 0.001628303 0.003068346 0.004521819 0.005996187 0.007499765
 0.009029754 0.01059408 0.01216451 0.01372301 0.01525167 0.01672897 0.01818065 0.01960695 0.02104773 0.02251345
 0.02401936 0.02556961 0.02716354 0.02880005 0.03050305 0.03227426 0.03416952 0.03618915 0.03836126 0.04067492
 0.04308475 0.04558664 0.04813363 0.05075105 0.05346685 0.05631438 0.05935821 0.06261165 0.06610812 0.06986398
 0.07388169 0.07823721 0.08294996 0.08814575 0.09387726 0.1001959 0.1071475 0.1146003 0.1225569 0.1307778
 0.1392435 0.1477667 0.1563381 0.1648833 0.1734119 0.1819871 0.1906473 0.1996263 0.2089609 0.2189421
 0.2294761 0.2405584 0.2519363 0.263193 0.2742283 0.2847086 0.2948379 0.3046525 0.3143668 0.3241398
 0.33394 0.3438188 0.3535874 0.3632113 0.3725566 0.3816015 0.390247 0.3984863 0.4061863 0.41334
 0.4198666 0.4257653 0.4310127 0.4355997 0.4394625 0.4425906 0.4449103 0.4464273 0.4471193 0.4469915
 0.4460252 0.4442745 0.4417468 0.4386251 0.4350363 0.4311496 0.4271028 0.4229135 0.4186089 0.4142128
 0.4097163 0.4052479 0.4008282 0.3965326 0.3923785 0.3882713 0.3842064 0.3800296 0.3757415 0.3713039
 0.3667367 0.3621406 0.3575211 0.3529594 0.3484271 0.3438973 0.3393463 0.3347112 0.3300163 0.3252455
 0.3204839 0.3157775 0.3112368 0.3069278 0.3029331 0.2992943 0.2960633 0.2932576 0.2909168 0.2890514
 0.2876693 0.286775 0.2863302 0.2863332 0.2867382 0.2875443 0.2887295 0.2902934 0.2922243 0.2945186
 0.2971572 0.3001361 0.3034349 0.3070554 0.3109899 0.3152455 0.3198282 0.3247404 0.3299893 0.3355648
 0.3414658 0.3476744 0.3541851 0.3609802 0.3680561 0.3753942 0.3829926 0.3908314 0.3989106 0.4071892
 0.4156654 0.4242388 0.4329033 0.4415458 0.4501763 0.4587997 0.4674324 0.476169 0.4849483 0.4936954
 0.5022858 0.5104342 0.5181814 0.525395 0.5323536 0.5392291 0.5462595 0.5536782 0.5614012 0.5695345
 0.5776024 0.5856342 0.592582 0.5984207 0.6012977 0.6010268 0.5961615 0.5865858 0.5735402 0.5571879
 0.5403032 0.5229097 0.5065289 0.4910018 0.476532 0.4629969 0.4502066 0.4380873 0.4264499 0.4152032
 0.4041878 0.3932835 0.3823185 0.3712987 0.3601168 0.3490506 0.3381758 0.3277324 0.3178416 0.3083922
 0.2993963 0.2906385 0.2820876 0.2737261 0.2655496 0.2576823 0.2501271 0.2429441 0.2361237 0.2296275
 0.2234502 0.2175497 0.2119281 0.2065758 0.2014808 0.1966299 0.1919807 0.1874854 0.1830875 0.17872
 0.1743623 0.1699742 0.1655903 0.1612125 0.1568816 0.1526064 0.1484228 0.1443255 0.1404321 0.1367483
 0.1334432 0.1305297 0.1280212 0.125909 0.1240365 0.1223897 0.1207994 0.1192606 0.1176642 0.1160129
 0.1142542 0.1124021 0.1104491 0.1084308 0.1063743 0.1043482 0.102405 0.1006402 0.09911584 0.09792028
 0.09709646 0.09672038 0.09680528 0.09747379 0.09873244 0.1007869 0.1036573 0.1075374 0.1124457 0.1183275
 0.1251538 0.1323813 0.1399272 0.1469098 0.1533211 0.1586165 0.1629327 0.1663612 0.169014 0.1711646
 0.1727967 0.1739942 0.1747343 0.1749862 0.1748584 0.1743681 0.1737402 0.1730518 0.1725352 0.1722723
 0.1723885 0.1729261 0.1739002 0.1753183 0.1771687 0.1794526 0.182113 0.1851405 0.188347 0.1917077
 0.1949439 0.1980464 0.200816 0.2032839 0.2054212 0.2072905 0.2089825 0.2105768 0.2121993 0.2139432
 0.2159207 0.2182325 0.2209701 0.224194 0.2279772 0.2322347 0.2369962 0.2419803 0.2471513 0.2522143
 0.2571132 0.2618399 0.2663813 0.2710468 0.2758518 0.2811031 0.2867767 0.2928397 0.2992197 0.3055855
 0.3118872 0.31782 0.3233613 0.3283524 0.3327213 0.3363364 0.3390671 0.3407544 0.3412977 0.3405727
 0.3385896 0.3352982 0.330832 0.3251949 0.3186163 0.311122 0.3029893 0.2942425 0.285188 0.2758452
 0.2665503 0.2573197 0.2484415 0.2399161 0.2318799 0.224317 0.2172293 0.2106029 0.2044012 0.1986147
 0.1932157 0.1881808 0.1834774 0.1790585 0.1748782 0.170875 0.1670027 0.1632013 0.1594347 0.1556655
 0.1518714 0.1480559 0.1442129 0.1403723 0.1365381 0.1327232 0.1289296 0.1251392 0.121352 0.1175677
 0.1137955 0.1101097 0.1065301 0.1031897 0.1000988 0.09736331 0.09496596 0.09292801 0.09121484 0.08978861
 0.08862021 0.08766773 0.08691686 0.08634704 0.08595014 0.08572236 0.08564185 0.08570881 0.08587149 0.08612649
 0.08639331 0.08666509 0.08684967 0.08694009 0.08685729 0.08659813 0.08612828 0.08545333 0.08460499 0.08359757
 0.08251247 0.08136548 0.08024435 0.07916085 0.0781796 0.07730713 0.07658058 0.07599796 0.07557456 0.07529262
 0.07515194 0.07511262 0.07516357 0.07524782 0.07534883 0.07541259 0.07542417 0.07535687 0.0752031 0.07496947
 0.07465491 0.07428752 0.07386912 0.07344063 0.07300638 0.07262078 0.07229225 0.07208682 0.07201814 0.07215733
 0.072525 0.0731943 0.07418709 0.07557197 0.07734183 0.07953951 0.08207157 0.08493016 0.08789048 0.0908857
 0.09359787 0.09592437 0.09759822 0.09852861 0.09866025 0.09795074 0.09659961 0.09460986 0.0923292 0.08977623
 0.08728901 0.08487659 0.08276051 0.08092961 0.07945505 0.07830276 0.07741353 0.07673785 0.07614622 0.07559672
 0.07496743 0.0742525 0.07339059 0.07242408 0.07135456 0.0702529 0.06915078 0.06810731 0.06715121 0.06630276
 0.06557444 0.06495357 0.06444116 0.06401478 0.06367285 0.06339597 0.06318302 0.0630144 0.06288855 0.06278199
 0.06269345 0.0626028 0.06251192 0.06241528 0.06231767 0.06222746 0.06214664 0.06208415 0.06203356 0.06199362
 0.06195159 0.06189878 0.06182345 0.06171818 0.06157431 0.06138856 0.06115104 0.06085988 0.06050326 0.06007903
 0.0595808 0.0590071 0.05836632 0.05765904 0.05690898 0.05611783 0.05531283 0.0544942 0.05367813 0.05286196
 0.05204593 0.05122625 0.05039489 0.04954896 0.04868068 0.04778838 0.04686737 0.04591713 0.04493515 0.04392393
 0.04288269 0.04181897 0.04073353 0.03963928 0.038538 0.03744609 0.03636563 0.03531229 0.03428765 0.03330236
 0.03235707 0.0314583 0.03060653 0.02980911 0.0290671 0.02839022 0.02777925 0.02724226 0.02677882 0.0263917
 0.02608078 0.0258461 0.02569032 0.0256158 0.02562626 0.02572609 0.02591468 0.02619345 0.02655881 0.02700792
 0.02754651 0.02817254 0.02890771 0.02975423 0.03073525 0.03185423 0.03311059 0.03450441 0.03600426 0.03760692
 0.03926431 0.04097251 0.04268461 0.04439824 0.04607905 0.04772958 0.04933616 0.05090872 0.05245553 0.05398948
 0.05552885 0.05707984 0.05865492 0.06024988 0.06186672 0.063497 0.06513803 0.06678425 0.06843384 0.07008363
 0.07173296 0.07337926 0.07502188 0.07666314 0.0783031 0.079955 0.08162056 0.08332428 0.08506962 0.08688829
 0.08878525 0.09079419 0.09291995 0.09519142 0.09760894 0.1001883 0.102921 0.1058071 0.1088275 0.1119722
 0.1152112 0.1185322 0.1218913 0.1252773 0.1286278 0.1319317 0.1351144 0.1381642 0.1410176 0.143666
 0.1460856 0.1482744 0.150258 0.15204 0.1536772 0.1551739 0.1565858 0.1579136 0.1591898 0.1604099
 0.1615797 0.1626929 0.1637403 0.164721 0.1656269 0.1664696 0.1672507 0.1679955 0.168714 0.1694409
 0.1701887 0.1709926 0.171864 0.172823 0.1738777 0.1750157 0.1762394 0.1775009 0.1787976 0.1800673
 0.1813079 0.1824765 0.1835753 0.1845959 0.1855435 0.1864322 0.1872648 0.1880561 0.1888034 0.189511
 0.190171 0.1907777 0.1913188 0.1917841 0.1921595 0.1924348 0.192599 0.1926444 0.1925701 0.1923712
 0.1920655 0.1916513 0.1911713 0.1906274 0.1900821 0.1895392 0.1890592 0.1886441 0.1883281 0.188109
 0.187988 0.1879606 0.1880098 0.1881349 0.1883237 0.1885836 0.1889199 0.1893448 0.1898759 0.1905204
 0.1912939 0.1921887 0.1932101 0.1943298 0.1955438 0.1968068 0.1981091 0.1994049 0.2006841 0.2019223
 0.203114 0.2042669 0.205381 0.2064837 0.2075769 0.2086921 0.209832 0.2110296 0.212289 0.2136453
 0.2151002 0.2166786 0.2183721 0.2201812 0.2220871 0.2240699 0.2261064 0.2281741 0.2302443 0.2323031
 0.2343 0.2362243 0.2379891 0.239578 0.2408827 0.2418824 0.2424964 0.2427096 0.2425158 0.2419117
 0.2409712 0.2397007 0.2382214 0.2365424 0.2347884 0.2329645 0.2311613 0.2293718 0.227629 0.2259103
 0.2241941 0.2224508 0.2206347 0.2187238 0.2166818 0.2145017 0.2121691 0.2096844 0.2070463 0.2042511
 0.2012984 0.1981801 0.1948939 0.1914392 0.1878145 0.1840352 0.1801017 0.176041 0.1718547 0.1675749
 0.1632047 0.1587808 0.1543087 0.1498303 0.1453535 0.1409197 0.1365369 0.1322385 0.1280298 0.1239315
 0.1199439 0.1160752 0.1123214 0.1086821 0.1051541 0.1017347 0.09842811 0.09523371 0.09216312 0.08921837
 0.08640815 0.08373481 0.08119226 0.07878063 0.07648128 0.07429337 0.07220182 0.07020723 0.06830787 0.06650463
 0.06480132 0.06319648 0.06168802 0.06027414 0.05894911 0.05771542 0.05657266 0.05552735 0.05458555 0.05375133
 0.05303042 0.05241976 0.05192059 0.05152479 0.05123075 0.05103007 0.05092128 0.05089638 0.05095449 0.05108758
 0.05129499 0.05157177 0.05191767 0.05233043 0.05280803 0.05333628 0.05390632 0.05447402 0.05502478 0.05549286
 0.05587153 0.05611116 0.05622635 0.05621172 0.05609615 0.05590501 0.05565906 0.05538079 0.0550747 0.05474555
 0.05440317 0.05404537 0.05370852 0.05339564 0.05315793 0.05300224 0.05296278 0.0530434 0.05324685 0.05357275
 0.05400308 0.05453567 0.05514517 0.05582843 0.05655826 0.05733109 0.0581228 0.05893025 0.05973655 0.06053829
 0.06132463 0.06209145 0.06283047 0.06354125 0.06421911 0.0648719 0.06550066 0.06611738 0.06672692 0.06733257
 0.06793782 0.06853054 0.06911055 0.06965885 0.0701739 0.07064325 0.07106635 0.07143844 0.07175939 0.07202537
 0.07223699 0.07239308 0.07249822 0.07256361 0.07259786 0.07262342 0.07264727 0.07268954 0.07275122 0.07284129
 0.07295603 0.07309628 0.07325587 0.07343249 0.07362044 0.07381684 0.07402108 0.0742315 0.07445515 0.07469238
 0.07495238 0.07523607 0.07554629 0.07588303 0.0762401 0.07661651 0.07700068 0.07739152 0.07777824 0.07815938
 0.07852588 0.07887454 0.07919487 0.07948335 0.07972872 0.07993411 0.08009546 0.08022635 0.08033316 0.08043218
 0.08053339 0.0806441 0.08076969 0.08090855 0.08106115 0.08122565 0.08140139 0.08159142 0.08179577 0.08201991
 0.08226407 0.08253103 0.0828201 0.08312595 0.08344659 0.08376856 0.08409119 0.08440339 0.08471005 0.08501431
 0.08532602 0.08566149 0.08602668 0.08643658 0.0868846 0.08737314 0.08788673 0.08841804 0.08895782 0.08949975
 0.09004777 0.09060183 0.09116559 0.09174094 0.092318 0.0928966 0.09345894 0.09400415 0.09452442 0.09502129
 0.09550773 0.09598774 0.09648935 0.09701493 0.09758914 0.09820707 0.09887257 0.09957343 0.1002935 0.1010216
 0.1017387 0.1024428 0.1031251 0.103792 0.1044439 0.1050888 0.1057295 0.1063696 0.1070107 0.1076526
 0.1082952 0.1089397 0.109586 0.1102409 0.1109049 0.111587 0.1122871 0.1130071 0.1137454 0.1144941
 0.1152503 0.1160009 0.1167423 0.1174607 0.1181524 0.1188058 0.1194188 0.1199838 0.1205033 0.120975
 0.1214071 0.1218021 0.1221703 0.1225161 0.1228452 0.1231605 0.123459 0.123741 0.1239999 0.124235
 0.1244446 0.1246286 0.1247935 0.1249404 0.1250818 0.1252185 0.1253619 0.1255099 0.1256615 0.1258112
 0.1259439 0.1260588 0.1261431 0.1262122 0.1262729 0.1263546 0.1264799 0.1266741 0.1269579 0.1273385
 0.1278251 0.1284074 0.1290894 0.1298371 0.1306538 0.1314535 0.1322336 0.1328527 0.1333029 0.1334689
 0.133355 0.1329842 0.132383 0.1317184 0.1310163 0.1304643 0.1300556 0.1298764 0.1298868 0.1300641
 0.1303613 0.1307186 0.131099 0.1314569 0.1317658 0.1320002 0.1321481 0.1321969 0.1321566 0.1320239
 0.1318289 0.1315741 0.1312965 0.1309997 0.1307121 0.1304357 0.130182 0.1299509 0.1297423 0.129556
 0.1293916 0.1292486 0.1291266 0.1290231 0.1289317 0.1288498 0.1287691 0.1286905 0.128611 0.1285348
 0.1284612 0.1284032 0.1283607 0.1283688 0.128436 0.1286077 0.1289047 0.1293145 0.1298467 0.1304154
 0.1310106 0.1316005 0.132182 0.1328041 0.1334682 0.1342084 0.1350168 0.135863 0.1367308 0.1375467
 0.1382927 0.1388918 0.1393244 0.1395238 0.1394774 0.1391389 0.1385217 0.1376119 0.1364567 0.1350678
 0.1335197 0.1318346 0.1300996 0.1283365 0.126626 0.1249837 0.1234675 0.1220857 0.1208634 0.119803
 0.1188967 0.1181429 0.1175133 0.1170052 0.1165859 0.1162533 0.1159803 0.1157681 0.1156038 0.1154931
 0.1154442 0.1154504 0.1155254 0.1156056 0.1156664 0.1155799 0.1152673 0.1146408 0.113623 0.1122815
 0.1105938 0.1087634 0.1068115 0.1049611 0.1032397 0.1017801 0.1005938 0.09968077 0.09903662 0.09857887
 0.09830239 0.09813137 0.09806884 0.09808666 0.09818973 0.09837814 0.09865086 0.099007 0.0994421 0.09994914
 0.1005284 0.1011763 0.1018991 0.1026988 0.1035835 0.104556 0.1056263 0.1067957 0.1080809 0.1094837
 0.1110251 0.1127077 0.1145459 0.1165411 0.1186943 0.1210045 0.1234543 0.1260364 0.1287003 0.1314238
 0.1341017 0.1366926 0.1390415 0.1411023 0.1427174 0.1438697 0.1444599 0.1445332 0.1440737 0.1431959
 0.1419453 0.1404714 0.1388366 0.1371721 0.1355249 0.1339763 0.1325511 0.1312727 0.1301504 0.1291493
 0.1282687 0.1274351 0.1266448 0.1258316 0.1249963 0.1241153 0.123193 0.122237 0.1212481 0.1202332
 0.1191883 0.118109 0.1169922 0.1158317 0.1146284 0.1133805 0.1120907 0.1107606 0.1093908 0.1079824
 0.1065332 0.1050428 0.103508 0.1019278 0.1003025 0.09863131 0.09692273 0.09517679 0.09341419 0.0916364
 0.08987287 0.08812489 0.0864167 0.08474753 0.08312638 0.08155327 0.08003118 0.07856467 0.07716272 0.07583193
 0.0745855 0.07342502 0.07235866 0.07137886 0.07048541 0.06966407 0.06890956 0.06820874 0.06755663 0.06694651
 0.06637718 0.06584002 0.06533546 0.06484117 0.06435594 0.06385115 0.06332633</values></Ydata></AB><ScSm><Ydata ylabel="Single channel"><values byteorder="INTEL" format="FLOAT32" numvalues="1814"> 0.08330412 0.08341486 0.08354087 0.08368896 0.08385347 0.08401895 0.08416904 0.08429793 0.08441114 0.08451299
 0.08460402 0.08469563 0.08481204 0.08496644 0.08514303 0.08530851 0.08543821 0.08553623 0.08563551 0.08576739
 0.08592001 0.08603568 0.08606316 0.08601356 0.08595617 0.0859555 0.08602668 0.08616963 0.08641158 0.086744
 0.08703077 0.08709466 0.08693822 0.08677854 0.08680636 0.08699474 0.08718593 0.0872671 0.08721542 0.08708487
 0.08703135 0.08726396 0.08785572 0.08858721 0.08901405 0.08872391 0.08761138 0.0860258 0.08468797 0.08431476
 0.08510439 0.08651736 0.08767819 0.08808032 0.08786403 0.0874484 0.08709132 0.0868769 0.08690935 0.08729924
 0.08798417 0.08865437 0.08887319 0.08836389 0.08732118 0.08637865 0.08609171 0.08650512 0.08734578 0.08835779
 0.08905639 0.08847155 0.08599931 0.08271542 0.08105575 0.08257032 0.08630272 0.08978583 0.09129236 0.09075961
 0.08908564 0.08732833 0.08642201 0.08686042 0.0883761 0.09020723 0.09170474 0.09251055 0.09239756 0.09137227
 0.08989049 0.08866681 0.08827412 0.08897381 0.09061366 0.09247077 0.09353706 0.09331043 0.09217231 0.0908924
 0.09005959 0.09005127 0.09106439 0.09288348 0.09489837 0.09655462 0.09764379 0.09818436 0.09828481 0.09811844
 0.09783757 0.09755351 0.09745643 0.09771842 0.09815715 0.09827079 0.09779627 0.09706642 0.09667487 0.09686476
 0.09731938 0.09754505 0.09736153 0.09681866 0.09569828 0.0936131 0.0908006 0.08825913 0.08677493 0.08636565
 0.08691177 0.0884957 0.09063247 0.09202021 0.09184413 0.09087294 0.09062903 0.09173791 0.09352685 0.095008
 0.09583968 0.09638681 0.09714781 0.098193 0.09901603 0.09890727 0.09767883 0.09612008 0.09547634 0.09624775
 0.09770168 0.0987713 0.09917554 0.09940406 0.09984311 0.100213 0.09981304 0.09827337 0.09618641 0.09490336
 0.0954231 0.097404 0.09934041 0.09970799 0.09804903 0.0952118 0.09263614 0.0913206 0.09142781 0.09269056
 0.09478201 0.09717628 0.0990566 0.09972504 0.0990891 0.09764072 0.09592459 0.09404093 0.09182516 0.0896032
 0.08840962 0.08902651 0.09097987 0.09290905 0.09382862 0.09368885 0.09283113 0.09132445 0.08903059 0.08624785
 0.08401504 0.0833574 0.08412952 0.08502375 0.08495729 0.08409001 0.08325575 0.08281586 0.08245097 0.08183815
 0.08112964 0.08072483 0.0807571 0.0809257 0.08081774 0.0802948 0.07952592 0.07874108 0.07801571 0.07723564
 0.07627389 0.07526597 0.07461276 0.07456193 0.07487556 0.07506861 0.07489131 0.07443471 0.07384482 0.07308847
 0.07202805 0.0706977 0.06944971 0.06871137 0.06856736 0.06869084 0.06869609 0.06842995 0.06793308 0.06729637
 0.06660317 0.06590565 0.06522602 0.06460752 0.06411412 0.06374168 0.06339215 0.06297106 0.06246251 0.06189413
 0.06128082 0.06062498 0.05994962 0.0593112 0.05876631 0.05832278 0.05793896 0.0575693 0.05718429 0.05675554
 0.0562647 0.05573044 0.05519624 0.05469089 0.05421905 0.05378059 0.05337918 0.053013 0.05266636 0.05231597
 0.05194896 0.0515701 0.05118707 0.05079941 0.05040917 0.05002989 0.04967785 0.0493609 0.04907398 0.04880086
 0.04853113 0.04827564 0.04804567 0.04782002 0.04756116 0.04726408 0.04696242 0.04668754 0.04644268 0.04621418
 0.04598856 0.04575682 0.04551176 0.04525007 0.04498385 0.04474336 0.04455443 0.04441559 0.04430677 0.0442085
 0.04410235 0.04397168 0.0438168 0.04365456 0.04349493 0.04333248 0.04316347 0.04299701 0.04285 0.04273754
 0.04266151 0.04260418 0.04254065 0.04245813 0.04235975 0.04225996 0.04218013 0.04213151 0.04209638 0.04204267
 0.04196204 0.0418785 0.04181768 0.04178105 0.04175164 0.04171503 0.04167242 0.04163535 0.04160962 0.0415892
 0.04156648 0.04154199 0.04152143 0.0415075 0.04149507 0.0414726 0.04143313 0.04138502 0.04134475 0.04131843
 0.0412986 0.04127821 0.04125889 0.04124457 0.04123335 0.04121732 0.0411901 0.04115441 0.04111889 0.04108577
 0.04104675 0.04099367 0.04092752 0.04085547 0.04078344 0.04071258 0.04063985 0.04056193 0.04047859 0.04038942
 0.04028913 0.0401713 0.04003607 0.03989143 0.0397485 0.03961741 0.03950199 0.03939472 0.0392804 0.03914835
 0.03900097 0.03885086 0.03871056 0.03858391 0.03846706 0.03835703 0.03825705 0.03817192 0.03810241 0.03804616
 0.03800143 0.03796849 0.03795031 0.03795265 0.03798001 0.03803047 0.03809571 0.03816748 0.03824364 0.03832842
 0.03842755 0.03854249 0.0386698 0.03880567 0.03895011 0.0391051 0.0392689 0.03943408 0.03959373 0.039749
 0.03990836 0.04007952 0.04026479 0.04046301 0.04067025 0.04087774 0.0410767 0.04126894 0.04146828 0.04168698
 0.04192387 0.04216868 0.0424147 0.04266384 0.04292157 0.04319086 0.04347114 0.04376135 0.04406223 0.04437496
 0.04469766 0.04502512 0.04535353 0.04568497 0.04602664 0.04638543 0.04676248 0.04715137 0.04754281 0.04793178
 0.04831968 0.04870953 0.04910259 0.04950113 0.04991095 0.05033675 0.05077621 0.05122094 0.05166306 0.05209993
 0.05253382 0.05296838 0.05340521 0.05384304 0.05428046 0.05471856 0.05515959 0.05560283 0.05604348 0.05647672
 0.05690229 0.05732486 0.05775005 0.05817932 0.05860773 0.05902756 0.0594367 0.05984192 0.06025033 0.06065905
 0.0610579 0.06144252 0.0618199 0.06219871 0.06257854 0.06295179 0.06331377 0.06366734 0.06401736 0.06436295
 0.06469737 0.065015 0.06531805 0.06561567 0.06591681 0.06622437 0.06653691 0.0668539 0.06717505 0.06749523
 0.06780545 0.06810209 0.06839131 0.06868236 0.06897959 0.06928129 0.06958347 0.06988357 0.07018222 0.07048111
 0.07077961 0.0710779 0.07138289 0.07170483 0.07204625 0.07240106 0.07276665 0.07314811 0.07354721 0.07395448
 0.07435894 0.07476202 0.07517458 0.0755996 0.07602315 0.07642621 0.0768012 0.07715366 0.07749302 0.0778293
 0.07817573 0.07854392 0.0789333 0.07932946 0.07971221 0.0800647 0.08038075 0.08066842 0.08094184 0.08120482
 0.08144551 0.08164927 0.08181231 0.08194111 0.08204249 0.08211555 0.08214967 0.08212881 0.08203803 0.08186506
 0.0815971 0.08122294 0.08074296 0.0801725 0.079528 0.07880928 0.07799973 0.07708374 0.07605976 0.07493465
 0.07371204 0.07239355 0.070995 0.06956248 0.06817318 0.06691879 0.06588388 0.06513734 0.06473558 0.06471346
 0.06504928 0.06562933 0.06625399 0.06669512 0.06677283 0.06640521 0.06560712 0.06444847 0.06300785 0.06135677
 0.05958308 0.05781967 0.05622357 0.05489729 0.05382401 0.05288026 0.05190348 0.05079156 0.04967956 0.04912186
 0.04997625 0.05283793 0.05745477 0.0627716 0.06762827 0.07142468 0.07420194 0.07628976 0.07798672 0.07946886
 0.08082376 0.08209391 0.08329991 0.08444512 0.08551466 0.08648202 0.08731648 0.08798195 0.08844011 0.08867049
 0.08869739 0.08860276 0.0885074 0.08851715 0.0886637 0.08888437 0.0890501 0.08900887 0.08860771 0.08768696
 0.08610533 0.08389895 0.08154738 0.08004794 0.08049899 0.08338162 0.08817817 0.09371443 0.0988884 0.1031421
 0.1064312 0.1089496 0.1109193 0.1125186 0.1138747 0.1150719 0.1161634 0.1171836 0.1181544 0.1190869
 0.1199848 0.1208486 0.1216799 0.1224821 0.1232598 0.124017 0.124758 0.1254864 0.126204 0.1269114
 0.1276077 0.1282917 0.1289642 0.1296303 0.1302941 0.1309523 0.131597 0.1322249 0.1328408 0.133452
 0.1340638 0.1346769 0.1352868 0.135885 0.1364645 0.1370266 0.1375785 0.1381254 0.1386662 0.1391968
 0.139716 0.1402276 0.1407368 0.1412462 0.1417541 0.1422566 0.1427493 0.1432298 0.1437002 0.1441667
 0.1446353 0.1451084 0.1455842 0.1460601 0.146536 0.1470146 0.1475009 0.1479972 0.1485001 0.149004
 0.1495062 0.1500081 0.1505106 0.1510128 0.1515146 0.1520177 0.1525231 0.1530277 0.1535251 0.1540106
 0.1544845 0.1549519 0.1554193 0.1558902 0.1563646 0.1568394 0.1573111 0.1577776 0.1582391 0.1586976
 0.1591556 0.159614 0.1600707 0.1605227 0.1609689 0.1614109 0.1618505 0.1622888 0.1627267 0.1631652
 0.163604 0.1640438 0.1644874 0.1649387 0.165398 0.1658598 0.1663166 0.1667659 0.1672128 0.1676639
 0.1681196 0.1685753 0.1690277 0.1694771 0.1699238 0.1703665 0.1708049 0.1712411 0.1716778 0.1721147
 0.172548 0.1729742 0.1733949 0.1738147 0.1742356 0.1746554 0.1750703 0.175478 0.1758793 0.1762781
 0.1766775 0.1770768 0.1774749 0.1778723 0.1782696 0.1786648 0.1790568 0.1794464 0.1798346 0.1802204
 0.1806017 0.180977 0.1813466 0.1817132 0.1820787 0.1824425 0.1828036 0.1831629 0.1835197 0.1838721
 0.1842208 0.1845691 0.1849177 0.1852661 0.1856144 0.1859637 0.1863143 0.1866678 0.1870253 0.1873869
 0.1877525 0.1881212 0.1884885 0.1888486 0.1892005 0.1895474 0.1898924 0.1902382 0.190586 0.1909338
 0.1912794 0.1916236 0.1919681 0.1923106 0.1926493 0.1929845 0.1933149 0.1936381 0.1939554 0.1942701
 0.1945838 0.1948986 0.1952172 0.1955383 0.1958576 0.1961743 0.1964906 0.1968069 0.1971241 0.1974442
 0.1977661 0.1980878 0.1984117 0.1987406 0.1990724 0.1994054 0.1997423 0.2000834 0.2004257 0.2007684
 0.2011132 0.2014606 0.201811 0.2021634 0.2025117 0.2028504 0.203183 0.2035157 0.2038494 0.2041825
 0.2045132 0.204837 0.2051522 0.2054638 0.2057749 0.2060827 0.2063884 0.2066971 0.2070063 0.2073092
 0.2076067 0.2079026 0.2081965 0.2084911 0.2087921 0.2090973 0.2093987 0.2096937 0.2099839 0.2102704
 0.2105589 0.2108542 0.2111505 0.2114399 0.2117238 0.2120046 0.2122796 0.2125501 0.212816 0.2130634
 0.2132701 0.213394 0.2133137 0.2127577 0.2112651 0.2081968 0.2028598 0.1947807 0.1839854 0.1710835
 0.1571025 0.1431684 0.1301989 0.1187748 0.1092081 0.10166 0.09622442 0.09300528 0.09217908 0.09408082
 0.09931625 0.1084039 0.120459 0.1320527 0.1384886 0.1373535 0.1307005 0.1231862 0.1182789 0.1165524
 0.1168517 0.1180265 0.1196145 0.1217163 0.1246039 0.1283147 0.1326076 0.1373599 0.1427996 0.149158
 0.1562219 0.1634115 0.1702668 0.176742 0.1830358 0.1892345 0.1951755 0.2006002 0.2053522 0.2094297
 0.2129325 0.2159976 0.2187459 0.221256 0.2235807 0.2257519 0.2277403 0.2294353 0.2307106 0.2315264
 0.2319763 0.2322417 0.2324911 0.2328093 0.2332085 0.2336819 0.2342272 0.2348385 0.2355056 0.2362162
 0.2369516 0.2376908 0.2384229 0.2391439 0.2398473 0.240528 0.2411864 0.2418208 0.2424255 0.2429994
 0.2435473 0.244075 0.2445908 0.245103 0.2456119 0.2461124 0.2466046 0.2470904 0.2475644 0.2480188
 0.2484517 0.2488642 0.2492589 0.2496431 0.2500255 0.2504082 0.2507895 0.2511696 0.2515482 0.2519239
 0.2522966 0.2526659 0.2530305 0.2533914 0.2537507 0.2541073 0.2544605 0.2548158 0.2551786 0.2555442
 0.2559047 0.2562599 0.2566156 0.256975 0.2573351 0.2576913 0.2580435 0.2584005 0.2587718 0.2591564
 0.2595461 0.2599375 0.2603315 0.2607255 0.2611154 0.2615018 0.2618874 0.2622744 0.2626664 0.2630641
 0.2634581 0.2638344 0.2641874 0.2645248 0.2648616 0.2652102 0.2655732 0.265943 0.2663113 0.2666756
 0.2670363 0.2673951 0.267755 0.268117 0.2684797 0.2688481 0.2692347 0.2696446 0.2700668 0.2704873
 0.2709011 0.2713104 0.2717201 0.2721366 0.2725591 0.272974 0.2733672 0.2737439 0.2741304 0.2745526
 0.2750112 0.275478 0.2759237 0.2763456 0.2767633 0.2771956 0.2776465 0.2781025 0.2785319 0.2789061
 0.2792416 0.2796034 0.280047 0.2805656 0.2811044 0.2816147 0.2820842 0.2825269 0.2829597 0.2833858
 0.2837932 0.2841696 0.2845245 0.2848991 0.2853386 0.2858439 0.2863636 0.2868466 0.2872837 0.2876922
 0.2880877 0.2884802 0.2888604 0.2891816 0.2894057 0.2895893 0.289876 0.2903592 0.2909785 0.2915846
 0.2920893 0.2925169 0.2929225 0.2933186 0.2936928 0.2940226 0.2942359 0.2942434 0.2941035 0.2940845
 0.2944469 0.2951767 0.2960153 0.2967229 0.2972386 0.2976227 0.2979473 0.2982513 0.2985186 0.2986758
 0.2986705 0.2985928 0.2986658 0.2990407 0.2996259 0.3001869 0.3005936 0.3008933 0.3011785 0.3014802
 0.3017536 0.3018627 0.3016387 0.3011109 0.3006658 0.3008002 0.3016419 0.3028027 0.3037678 0.3043544
 0.3047138 0.3049717 0.3050403 0.304781 0.3041757 0.3033298 0.3025181 0.302232 0.3028609 0.3041936
 0.3055024 0.3062738 0.3066515 0.3070665 0.3076725 0.308283 0.3086744 0.3087844 0.3086725 0.3083919
 0.3079639 0.3075207 0.3073943 0.3078864 0.3089175 0.3100412 0.3108636 0.3113539 0.3116636 0.31167
 0.3108599 0.3089328 0.3065939 0.3053808 0.3063022 0.3087775 0.3112667 0.3127941 0.3134832 0.3138414
 0.3140982 0.3141382 0.3134835 0.3114528 0.3080878 0.3049596 0.3042158 0.3064691 0.3101136 0.3128797
 0.3135696 0.3123106 0.3099769 0.3077814 0.3068493 0.3076072 0.3095987 0.3119512 0.3139061 0.3150238
 0.3152065 0.314658 0.3137997 0.3131542 0.3130186 0.3130235 0.3123592 0.3108253 0.3092173 0.3081013
 0.3067729 0.304406 0.3018869 0.3012636 0.3032097 0.3060545 0.3077196 0.3078412 0.3074078 0.3067666
 0.3047982 0.3003962 0.2945194 0.2901675 0.2898072 0.2929116 0.2964831 0.2979892 0.2973565 0.2961277
 0.2952738 0.2941599 0.2914967 0.2871584 0.2828742 0.2806795 0.2806513 0.280808 0.2793043 0.2757635
 0.2703533 0.2632596 0.2560914 0.2522021 0.2537485 0.2589912 0.2638195 0.2653033 0.2626378 0.2559104
 0.2462837 0.2371448 0.2325899 0.2336434 0.2370293 0.2383028 0.235345 0.2284862 0.2186621 0.2068849
 0.1950635 0.1858231 0.1808086 0.179372 0.1788846 0.1760899 0.1687903 0.1574794 0.1455444 0.1367786
 0.132044 0.128874 0.1245064 0.1184973 0.1121975 0.1068313 0.1027673 0.09984773 0.09766753 0.09587218
 0.09441682 0.09308907 0.09099118 0.0875349 0.08398685 0.08279225 0.08498344 0.08928826 0.09408335 0.09895097
 0.1037021 0.1072235 0.1086234 0.1089591 0.1105699 0.1146094 0.1199308 0.1245241 0.127551 0.1297059
 0.1318478 0.1338151 0.1349604 0.1355519 0.136825 0.1393751 0.1421857 0.1437296 0.1435324 0.1421808
 0.140277 0.1379618 0.1351917 0.1319692 0.1283398 0.1244105 0.1203309 0.1161722 0.111916 0.1075786
 0.103196 0.09862432 0.09355322 0.08798549 0.08266439 0.07863022 0.07617392 0.07457273 0.0729963 0.07112589
 0.06866044 0.0651146 0.06092413 0.05820221 0.05937552 0.06495804 0.07308395 0.08115663 0.08757883 0.09197293
 0.09445845 0.09556374 0.09691989 0.1010411 0.1094292 0.1210595 0.1333478 0.1443614 0.1535189 0.1606008
 0.1651829 0.1673766 0.1685746 0.1709163 0.1758652 0.183263 0.1914734 0.1980501 0.2007567 0.199457
 0.1975587 0.1999203 0.2078401 0.2171935 0.223001 0.224784 0.2257891 0.2281106 0.2309269 0.2331867
 0.2355824 0.2390679 0.2428749 0.2449158 0.2433624 0.2372986 0.2269634 0.2145445 0.2039119 0.1978843
 0.1957864 0.1948036 0.193214 0.1908753 0.1874829 0.1828476 0.1787962 0.1782091 0.1814027 0.1852431
 0.1865701 0.1851913 0.1829237 0.1808353 0.1783161 0.1745031 0.1699027 0.1661808 0.1643194 0.1634565
 0.1619496 0.1591499 0.1555147 0.1513861 0.1466196 0.1414787 0.1370565 0.1343273 0.1330972 0.1322791
 0.1311034 0.1297841 0.1290949 0.1296507 0.1316335 0.1348783 0.1391002 0.1442393 0.1505385 0.1579868
 0.1657844 0.1728153 0.1787121 0.1840819 0.1895953 0.1951704 0.2001795 0.2042425 0.2076716 0.2112192
 0.2154564 0.2203224 0.2251976 0.2294447 0.2329811 0.2363417 0.2400944 0.244185 0.2479621 0.2508302
 0.2527192 0.2539297 0.2547539 0.2553087 0.2555499 0.2554094 0.2550892 0.2552081 0.2564081 0.2587251
 0.2614893 0.2638959 0.2655615 0.266534 0.2669665 0.266934 0.2665197 0.2659415 0.2655045 0.2654232
 0.26571 0.2662239 0.2667786 0.2671944 0.2673014 0.2669363 0.2659362 0.264149 0.2615381 0.2583611
 0.2552426 0.2529933 0.2522509 0.2531874 0.2554567 0.2583702 0.261176 0.2633172 0.264581 0.2650949
 0.265181 0.2651474 0.2651222 0.2650047 0.2645677 0.2636831 0.2625461 0.2616968 0.2617465 0.2629838
 0.2651839 0.2677688 0.2701521 0.271987 0.2732043 0.2739149 0.2742948 0.2745068 0.2746633 0.2748272
 0.2750394 0.2753403 0.2757637 0.2763111 0.2769485 0.2776366 0.2783623 0.2791365 0.2799652 0.2808345
 0.2817225 0.2826179 0.2835181 0.2844106 0.2852613 0.2860185 0.286626 0.2870398 0.2872418 0.2872454
 0.2870842 0.286792 0.2863789 0.2858169 0.2850493 0.2840179 0.2826729 0.280962 0.2788581 0.276426
 0.2738289 0.271216 0.2686117 0.2659485 0.263189 0.2603704 0.2575415 0.2547059 0.2518395 0.2489326
 0.2459953 0.2430337 0.2400383 0.2369934 0.2338937 0.2307436 0.2275374 0.2242451 0.2208197 0.2172087
 0.2133545 0.2091882 0.2046406 0.1996635 0.1942489 0.1884429 0.1823597 0.1761798 0.170112 0.1643305
 0.1589334 0.1539528 0.1494023 0.1453166 0.141759 0.1387996 0.1364841 0.1348156 0.1337584 0.1332541
 0.1332379 0.1336525 0.1344566 0.1356206 0.1371024 0.1388204 0.140648 0.1424438 0.144107 0.1456223
 0.1470503 0.1484667 0.1499071 0.1513643 0.1528185 0.1542463 0.1556009 0.1568038 0.1577792 0.1584972
 0.1589851 0.1592945 0.1594584 0.1594689 0.1592896 0.1588916 0.1582865 0.1575343 0.1567245 0.1559405
 0.1552294 0.1545912 0.1539951 0.1534016 0.152772 0.1520706 0.1512763 0.150396 0.1494625 0.1485207
 0.1476279 0.1468745 0.1464001 0.1463702 0.1469139 0.1480618 0.1497301 0.1517552 0.1539461 0.1561345
 0.1582171 0.1601804 0.1620822 0.164 0.1659865 0.1680681 0.1702713 0.1726336 0.1751845 0.1779242
 0.1808298 0.1838695 0.1870018 0.1901628 0.1932696 0.196245 0.1990444 0.201665 0.2041266 0.2064397
 0.2085895 0.2105494 0.2123024 0.2138541 0.2152277 0.2164458 0.2175151 0.2184312 0.2191986 0.2198282
 0.2203131 0.2206154 0.2206829 0.2204706 0.2199528 0.2191288 0.2180172 0.2166383 0.2150028 0.2131269
 0.2110658 0.208933 0.2068669 0.204955 0.2031837 0.2014739 0.199756 0.1979996 0.196189 0.1943082
 0.1923513 0.1903323 0.1882769 0.1862104 0.1841518 0.1821166 0.180123 0.1781915 0.1763413 0.1745884
 0.1729401 0.1713855 0.1699048 0.1684955 0.1671807 0.1659922 0.164956 0.1640923 0.1634082 0.162885
 0.1624786 0.1621382 0.1618364 0.1615885 0.1614316 0.1613712 0.1613533 0.1612948 0.1611363 0.160871
 0.1605394 0.1602006 0.1598963 0.159638 0.1594172 0.1592067 0.158951 0.1585691 0.1579702 0.15707
 0.1558172 0.1542226 0.1523615 0.1503505 0.1483262 0.1464224 0.1447434 0.1433518 0.1422618 0.1414218
 0.140724 0.1400755 0.1394684 0.1389745 0.1386741 0.1385748 0.1385719 0.1385097 0.1383227 0.1381074
 0.1380309 0.1381841 0.1385306 0.1389562 0.1393449 0.1396299 0.1397943 0.1398379 0.1397655 0.1395954
 0.1393449 0.139008 0.1385687 0.1380222 0.1373724 0.1366328 0.1358342 0.1350063 0.1341575 0.1332911
 0.1324135 0.131514 0.1305706 0.1295731 0.1285079 0.1273513 0.1261385 0.125022 0.1242161 0.1238835
 0.1240578 0.1246295 0.1254127 0.1262515 0.1270415 0.1276635 0.1280064 0.1281161 0.1282665 0.1288269
 0.1300283 0.1317976 0.1337746 0.1355122 0.1366951 0.1372191 0.1371509 0.1366462 0.1358376 0.1347745
 0.1334886 0.1320569 0.1305557 0.1290344 0.1275654 0.1262298 0.1250638 0.1240833 0.1233014 0.1227239
 0.1224024 0.1221391 0.1207727 0.1165692 0.1096472 0.103584 0.1027267 0.1075025 0.1138313 0.1175188
 0.1178471 0.1166052 0.1153195 0.1143924 0.1138529 0.1138025 0.1142764 0.1151476 0.1161747 0.1170918
 0.1177307 0.1180295 0.1178566 0.1168323 0.11431 0.1096017 0.102498 0.0937514 0.08492212 0.07757805
 0.07256088 0.06981269 0.06864171 0.06818533 0.06789894 0.06778298 0.06817192 0.06933998 0.07131575 0.07396273
 0.07708646 0.08041713 0.08358097 0.08622332 0.08819219 0.08954406 0.09037173 0.09069911 0.09053035 0.08990555
 0.08888824 0.08755243 0.08598427 0.08426433 0.08246403 0.08068678 0.07910195 0.07791552 0.07727776 0.07718255
 0.07745653 0.07787625 0.07829869 0.07868229 0.07903728 0.07939533 0.079793 0.08025109 0.08077808 0.08138296
 0.08205784 0.08276223 0.08344923 0.08409841 0.08471525 0.0853071 0.08585581 0.08632204 0.0867037 0.08706129
 0.08741485 0.08763313 0.08752481 0.08707112 0.08651811 0.08621612 0.08637466 0.08693932 0.08765995 0.08827841
 0.08868787 0.08894996 0.0891773 0.08939111</values></Ydata></ScSm><ScRf><Ydata ylabel="Single channel"><values byteorder="INTEL" format="FLOAT32" numvalues="1820"> 0.06967634 0.06981282 0.0699355 0.07003759 0.07012248 0.07020548 0.07030448 0.07042714 0.07056652 0.07070697
 0.07083435 0.07094507 0.07104452 0.07113562 0.07121667 0.07129453 0.07138835 0.07151134 0.07165363 0.07178745
 0.07188937 0.07196216 0.0720365 0.07214064 0.07226247 0.07235156 0.07236707 0.07232152 0.07227263 0.07227199
 0.07233165 0.0724526 0.07265752 0.07293713 0.07317515 0.07322307 0.07308607 0.07294941 0.07297275 0.07313009
 0.07328717 0.07335119 0.0733056 0.07319611 0.07315236 0.07334881 0.07384573 0.07445768 0.07481005 0.07455572
 0.07360747 0.07226393 0.07113726 0.07083134 0.07150486 0.07269323 0.0736577 0.07398116 0.07379148 0.07344167
 0.07314304 0.07296419 0.07299571 0.07333317 0.07392298 0.07450014 0.07469045 0.07425605 0.07336437 0.07255931
 0.07231651 0.07267386 0.07339705 0.07426319 0.07485302 0.07434326 0.07223618 0.06946217 0.06808709 0.06940426
 0.07258057 0.07552095 0.07677478 0.07630509 0.07488267 0.07340571 0.07265897 0.07304771 0.07433683 0.07588424
 0.07714795 0.07782695 0.0777279 0.07685907 0.07561015 0.07458508 0.07426491 0.07486843 0.07626334 0.07783329
 0.07872631 0.07852642 0.0775649 0.07649358 0.07580547 0.07581435 0.07668356 0.07823117 0.07994491 0.08135898
 0.08229578 0.08276756 0.08286496 0.08273525 0.0825071 0.08227476 0.0822021 0.08243749 0.08282523 0.08293743
 0.08255176 0.08195253 0.08164144 0.08181931 0.08221491 0.08241361 0.08226857 0.08182073 0.08087674 0.07910591
 0.07672195 0.0745848 0.07335933 0.07305041 0.07355385 0.07493882 0.07678292 0.07797161 0.07782353 0.07701275
 0.07683985 0.0778251 0.0793836 0.08067331 0.08141039 0.08191178 0.08260016 0.08352827 0.08426169 0.08420172
 0.08319959 0.08193828 0.08147943 0.08223411 0.08355859 0.0845404 0.08495559 0.08523733 0.08571712 0.08614729
 0.08591886 0.08471556 0.08306023 0.08212899 0.08277933 0.08470078 0.08657956 0.08709241 0.08584689 0.08359289
 0.08159557 0.08072752 0.08113229 0.08258726 0.08481215 0.08733064 0.08939926 0.09038648 0.0902084 0.08930837
 0.08817454 0.08688448 0.08528215 0.08369225 0.08310708 0.08425751 0.08667423 0.08906288 0.09049986 0.09094363
 0.0907056 0.08982281 0.08814459 0.0859848 0.08441141 0.08445292 0.08592628 0.08748516 0.08805123 0.08782206
 0.08765677 0.08790378 0.08821225 0.08825156 0.08820727 0.08851896 0.08931851 0.09025981 0.09088328 0.09103769
 0.09091386 0.09077473 0.09070536 0.09056376 0.09020032 0.08979306 0.08983187 0.0906029 0.0918043 0.09284946
 0.09344517 0.09370811 0.09380767 0.09367698 0.09312517 0.09221063 0.09141922 0.09131777 0.09200218 0.09302483
 0.09386951 0.09433593 0.09448691 0.09445077 0.09433684 0.09420947 0.0941019 0.09408566 0.09425807 0.09460854
 0.09498298 0.09523517 0.09534468 0.09535818 0.09529281 0.09514312 0.09494518 0.09479226 0.09477518 0.09491035
 0.09513976 0.09539117 0.09560795 0.09573483 0.09573662 0.09564352 0.09553343 0.09545991 0.09542854 0.09543897
 0.09550683 0.09563274 0.0957785 0.0958935 0.09595619 0.09597777 0.09597388 0.09594977 0.09591249 0.0958827
 0.09588858 0.09594698 0.09604506 0.09614745 0.09623714 0.09633741 0.09646701 0.09658876 0.09664168 0.09661815
 0.09657548 0.09657409 0.09662913 0.09671669 0.09680195 0.09685462 0.09685303 0.0967958 0.09672131 0.09669922
 0.09678001 0.09695805 0.09719281 0.09744319 0.09767005 0.09783951 0.09794974 0.09803259 0.09811279 0.09818403
 0.09823398 0.09827557 0.09834617 0.09847905 0.09867206 0.09888475 0.09907126 0.09921117 0.09931014 0.09939387
 0.09950319 0.09965921 0.0998232 0.09992782 0.09996217 0.09999163 0.1000782 0.1002093 0.1003231 0.1003836
 0.1004132 0.1004584 0.10054 0.1006423 0.1007422 0.1008377 0.1009463 0.1010769 0.1012042 0.1012775
 0.101269 0.1012113 0.1011685 0.1011734 0.1012108 0.1012598 0.1013232 0.1014054 0.1014854 0.1015298
 0.1015309 0.1015167 0.1015196 0.1015396 0.1015464 0.101515 0.1014529 0.1013901 0.1013511 0.1013389
 0.1013373 0.1013236 0.1012838 0.1012188 0.1011422 0.1010689 0.1010045 0.1009473 0.1009052 0.1008983
 0.1009293 0.1009529 0.1009007 0.1007468 0.1005386 0.1003545 0.1002348 0.1001579 0.1000736 0.09995014
 0.09979455 0.09963489 0.09949231 0.09936908 0.09925684 0.0991498 0.09905269 0.09898008 0.09894201 0.09892346
 0.09888525 0.09879778 0.09867126 0.09854349 0.09844258 0.09837101 0.09831782 0.09827268 0.09823287 0.098207
 0.09820545 0.09822033 0.09822656 0.09821075 0.09818845 0.09818809 0.0982292 0.09831595 0.09843199 0.0985387
 0.09860019 0.09862019 0.09864051 0.09869749 0.09879228 0.09890634 0.09902941 0.09916262 0.09930606 0.09945673
 0.09961695 0.09979594 0.1000001 0.1002236 0.1004508 0.1006674 0.1008725 0.1010806 0.1013104 0.1015697
 0.1018499 0.1021335 0.1024079 0.1026734 0.1029387 0.1032102 0.1034861 0.1037642 0.1040503 0.1043544
 0.1046779 0.1050104 0.1053393 0.1056593 0.105973 0.1062861 0.1066027 0.1069256 0.1072626 0.107624
 0.1080034 0.1083693 0.108689 0.1089645 0.1092325 0.1095291 0.1098619 0.1102106 0.1105437 0.1108394
 0.1111035 0.1113662 0.1116516 0.1119539 0.1122539 0.1125534 0.1128788 0.1132447 0.1136238 0.113963
 0.114231 0.1144484 0.1146655 0.1149103 0.1151658 0.1154007 0.1156108 0.1158185 0.1160389 0.1162664
 0.1164965 0.116742 0.1170137 0.1172964 0.1175593 0.1177885 0.1179948 0.1181919 0.1183772 0.118536
 0.1186586 0.1187544 0.1188493 0.1189662 0.119104 0.119244 0.1193778 0.1195179 0.1196796 0.1198642
 0.1200687 0.1202972 0.1205494 0.120807 0.1210515 0.1212944 0.1215673 0.1218743 0.1221715 0.1224122
 0.1225992 0.1227738 0.1229643 0.1231706 0.1233921 0.1236422 0.1239287 0.1242368 0.1245408 0.1248252
 0.1250971 0.1253806 0.1256904 0.1260068 0.1262855 0.1265014 0.1266743 0.1268498 0.1270626 0.1273177
 0.1275971 0.1278772 0.1281434 0.1283882 0.1285989 0.128758 0.1288634 0.1289365 0.128997 0.129032
 0.1290016 0.1288747 0.1286448 0.1283123 0.1278656 0.1272929 0.1266148 0.1258991 0.1252423 0.1247376
 0.1244509 0.1244151 0.1246295 0.1250582 0.1256315 0.1262594 0.1268511 0.1273229 0.1276 0.1276266
 0.1273891 0.1269217 0.1262849 0.1255381 0.1247319 0.1239082 0.1231016 0.1223523 0.1217363 0.1213756
 0.1214023 0.121906 0.1229 0.1243092 0.1259735 0.1276847 0.1292619 0.1306182 0.1317639 0.1327537
 0.1336383 0.1344532 0.1352246 0.1359661 0.1366729 0.1373333 0.1379463 0.1385222 0.1390653 0.139563
 0.1399916 0.1403298 0.1405696 0.1407231 0.1408157 0.1408692 0.1408938 0.1408966 0.1408848 0.140848
 0.1407467 0.1405304 0.1401724 0.1396912 0.1391557 0.1386864 0.1384474 0.1386085 0.1392725 0.1404095
 0.141858 0.1434017 0.1448596 0.1461236 0.1471509 0.147951 0.1485744 0.1490863 0.1495366 0.1499511
 0.1503416 0.1507143 0.1510735 0.1514224 0.1517633 0.152099 0.1524346 0.1527761 0.1531216 0.1534612
 0.1537892 0.1541131 0.1544475 0.1547998 0.1551633 0.155523 0.1558705 0.1562122 0.1565584 0.1569064
 0.1572407 0.1575523 0.1578495 0.1581498 0.158467 0.1588043 0.1591515 0.1594892 0.159803 0.1600948
 0.1603765 0.160656 0.1609344 0.1612118 0.1614896 0.1617674 0.1620439 0.1623203 0.1626014 0.1628888
 0.1631758 0.1634513 0.1637094 0.1639552 0.1641988 0.1644466 0.1646985 0.164952 0.1652068 0.1654658
 0.1657314 0.1660006 0.1662665 0.1665232 0.1667713 0.1670165 0.1672651 0.1675191 0.1677756 0.1680291
 0.1682765 0.1685201 0.1687643 0.1690115 0.1692616 0.1695138 0.1697665 0.1700172 0.1702657 0.1705146
 0.1707658 0.1710171 0.1712652 0.17151 0.1717561 0.172006 0.1722567 0.1725015 0.1727374 0.1729674
 0.1731973 0.1734302 0.1736645 0.1738963 0.1741248 0.1743547 0.1745911 0.1748335 0.1750773 0.1753202
 0.1755637 0.1758098 0.1760567 0.1762992 0.1765332 0.1767608 0.1769898 0.1772266 0.1774711 0.1777174
 0.1779605 0.1781998 0.1784377 0.1786754 0.1789113 0.1791452 0.1793797 0.1796174 0.1798567 0.1800946
 0.1803297 0.1805619 0.1807919 0.1810222 0.1812544 0.1814867 0.1817169 0.1819463 0.1821769 0.1824085
 0.1826402 0.182873 0.1831082 0.1833461 0.1835862 0.1838269 0.1840651 0.1843005 0.1845361 0.1847758
 0.1850213 0.1852691 0.1855114 0.1857431 0.1859679 0.1861947 0.1864304 0.1866757 0.1869269 0.187177
 0.1874213 0.1876617 0.1879019 0.1881426 0.1883841 0.1886289 0.188878 0.1891294 0.1893816 0.1896338
 0.1898849 0.190136 0.1903911 0.190651 0.1909121 0.1911705 0.1914237 0.1916689 0.1919054 0.192136
 0.1923639 0.1925905 0.192816 0.1930377 0.1932524 0.1934631 0.1936792 0.1939074 0.1941457 0.1943887
 0.1946306 0.194869 0.1951083 0.1953551 0.1956092 0.195865 0.1961204 0.1963756 0.1966286 0.1968784
 0.1971284 0.1973808 0.1976352 0.197892 0.1981523 0.1984153 0.1986816 0.1989507 0.1992168 0.199475
 0.1997306 0.1999907 0.2002554 0.2005213 0.200787 0.2010518 0.2013165 0.2015855 0.201859 0.2021307
 0.2023993 0.20267 0.2029431 0.2032138 0.2034791 0.2037391 0.2039961 0.204259 0.2045342 0.2048151
 0.2050925 0.2053666 0.2056405 0.2059132 0.2061875 0.2064661 0.2067427 0.2070113 0.2072775 0.2075442
 0.2078047 0.2080571 0.2083072 0.2085521 0.2087745 0.2089273 0.2088799 0.2083562 0.2068987 0.2038788
 0.1986208 0.1906674 0.1800477 0.1673597 0.1536129 0.139918 0.1271792 0.1159619 0.1065651 0.09914786
 0.09381191 0.09066688 0.08988446 0.09178615 0.09696059 0.1059113 0.1177585 0.1291226 0.1353929 0.1342196
 0.1276437 0.1202454 0.1154188 0.1137119 0.1139826 0.1150999 0.1166108 0.1186163 0.1213854 0.1249537
 0.1290834 0.1336555 0.1388953 0.1450277 0.1518387 0.1587565 0.1653285 0.1715089 0.1774922 0.1833658
 0.1889746 0.1940691 0.198497 0.2022564 0.2054472 0.2082083 0.2106627 0.2128891 0.2149377 0.2168371
 0.2185575 0.2199916 0.2210175 0.2215977 0.2218262 0.221883 0.2219324 0.2220516 0.2222472 0.2225118
 0.2228456 0.2232451 0.2237026 0.2242092 0.2247475 0.2252942 0.2258348 0.2263637 0.2268763 0.2273697
 0.2278445 0.228297 0.2287219 0.2291235 0.2295111 0.2298875 0.2302528 0.2306111 0.2309658 0.2313169
 0.2316639 0.2320035 0.2323274 0.2326324 0.2329241 0.2332069 0.2334781 0.2337372 0.2339885 0.2342379
 0.2344901 0.2347471 0.2350043 0.235255 0.2354994 0.2357418 0.2359836 0.2362239 0.236463 0.2367013
 0.2369395 0.2371792 0.2374204 0.2376609 0.2379019 0.238147 0.238395 0.2386402 0.2388798 0.2391159
 0.239352 0.2395936 0.2398447 0.2401024 0.2403612 0.240622 0.2408892 0.2411628 0.2414385 0.2417137
 0.2419867 0.2422585 0.2425331 0.2428118 0.2430854 0.2433401 0.2435715 0.2437892 0.2440085 0.2442388
 0.2444775 0.2447159 0.24495 0.2451827 0.2454179 0.245657 0.2459008 0.24615 0.246405 0.2466691
 0.2469449 0.2472267 0.247505 0.2477799 0.2480608 0.248353 0.2486536 0.2489575 0.2492585 0.2495482
 0.2498218 0.2500871 0.2503636 0.2506706 0.2510095 0.2513593 0.251694 0.2520052 0.2523042 0.2526076
 0.2529265 0.2532559 0.2535668 0.2538264 0.2540442 0.2542801 0.2545898 0.254972 0.2553769 0.2557574
 0.2560996 0.2564178 0.2567299 0.257039 0.2573316 0.2575932 0.2578304 0.2580812 0.2583892 0.2587581
 0.2591451 0.2595068 0.2598364 0.2601467 0.2604451 0.260735 0.2610065 0.26122 0.2613451 0.2614363
 0.2616232 0.26199 0.2624826 0.2629673 0.2633648 0.2636972 0.2640157 0.2643311 0.2646286 0.2648845
 0.2650328 0.2649941 0.2648225 0.2647631 0.2650562 0.2656928 0.2664363 0.2670618 0.267508 0.2678334
 0.2681137 0.2683882 0.2686378 0.26879 0.2687948 0.2687341 0.2688112 0.2691667 0.2697204 0.2702572
 0.2706532 0.2709474 0.2712259 0.2715241 0.2718076 0.2719505 0.2717925 0.2713568 0.2709965 0.2711613
 0.2719605 0.2730384 0.273931 0.2744794 0.274826 0.2750861 0.2751777 0.2749722 0.2744524 0.2737142
 0.2730078 0.2727827 0.2733962 0.2746563 0.2758982 0.2766536 0.2770557 0.2774996 0.2781249 0.2787576
 0.2791892 0.2793635 0.2793385 0.2791596 0.2788384 0.2784953 0.2784441 0.278968 0.27999 0.2810925
 0.2819112 0.2824236 0.2827789 0.2828688 0.2822205 0.2805564 0.2785241 0.2775283 0.2784823 0.2808486
 0.2832214 0.2847174 0.2854587 0.2859123 0.2862821 0.286453 0.2859852 0.2842576 0.2813125 0.2785934
 0.2780701 0.2802964 0.2837912 0.286476 0.2872603 0.2862613 0.2842778 0.2824247 0.281738 0.2826108
 0.2846267 0.286984 0.288976 0.2901884 0.290531 0.2901981 0.2895845 0.2891786 0.2892563 0.2894691
 0.2890633 0.287861 0.2866049 0.2858128 0.2848219 0.2828675 0.2807866 0.2804972 0.282628 0.2856118
 0.2875051 0.2879792 0.2879671 0.2877837 0.2863626 0.2826604 0.2775861 0.2739767 0.2741696 0.2776672
 0.2816294 0.2836668 0.2837335 0.2833113 0.2833264 0.2831689 0.2815974 0.278494 0.2755511 0.2747602
 0.2761788 0.2778436 0.2779444 0.2760992 0.2724085 0.266994 0.2614811 0.2593094 0.2626979 0.2698808
 0.276666 0.2800504 0.2791593 0.2740014 0.2657848 0.2582183 0.2558439 0.2598468 0.2666699 0.2714547
 0.2718727 0.2682275 0.2614759 0.2528102 0.2446815 0.2404927 0.2424273 0.2496889 0.2586578 0.2644588
 0.2634452 0.2561189 0.2478609 0.2448858 0.2483981 0.2537921 0.2560656 0.2545277 0.2517639 0.2501175
 0.2503943 0.252293 0.2547443 0.2567554 0.2581738 0.2582914 0.2544472 0.2449732 0.2335809 0.2273908
 0.2295892 0.2368712 0.2448408 0.2524326 0.2594375 0.2633324 0.2619691 0.2578263 0.2564161 0.2603977
 0.2670473 0.2717358 0.2726285 0.271425 0.2702817 0.2692475 0.2673364 0.2652999 0.2656606 0.2695683
 0.2749953 0.278936 0.2804229 0.2805262 0.2803321 0.2800297 0.2794702 0.2786201 0.2775194 0.2763001
 0.2751775 0.2742147 0.2732733 0.2722883 0.2711951 0.2693244 0.2654608 0.2594227 0.2534078 0.2504756
 0.2513374 0.2539141 0.2563241 0.2582447 0.2584164 0.2536173 0.2428701 0.231216 0.2262496 0.2307813
 0.2406 0.2492017 0.2529303 0.2514335 0.245468 0.2365463 0.2284771 0.2266962 0.234077 0.2479266
 0.2624168 0.2735178 0.2805203 0.2837619 0.2830838 0.2789952 0.2739679 0.27145 0.2734995 0.2794343
 0.286351 0.2904723 0.2887919 0.2815555 0.2738992 0.2727375 0.2799047 0.2897125 0.2952286 0.295537
 0.2947054 0.2953382 0.2963514 0.2965485 0.2971224 0.2996468 0.303492 0.3063514 0.306312 0.3026593
 0.2958592 0.2881103 0.2829974 0.2826549 0.2854051 0.2876794 0.2876803 0.2854136 0.2804419 0.272852
 0.2660621 0.2649927 0.2704747 0.2779921 0.2828336 0.2844843 0.2851641 0.2858329 0.2850561 0.2814005
 0.2759763 0.2719553 0.27146 0.2735614 0.2758072 0.2768772 0.2767861 0.2753436 0.2721671 0.2683311
 0.2665139 0.2686129 0.273709 0.2789598 0.2822126 0.283314 0.2832775 0.2829759 0.2826777 0.282216
 0.2814186 0.2807083 0.2811288 0.2832391 0.2861453 0.2883174 0.2893544 0.2903099 0.2922047 0.294778
 0.2968912 0.2977885 0.2977625 0.2977816 0.2986181 0.3002108 0.3017243 0.3022881 0.3018579 0.3013711
 0.3019052 0.3036508 0.3058368 0.3076104 0.3087476 0.3095356 0.3102904 0.3110875 0.3117273 0.3119036
 0.3116121 0.3113998 0.3119629 0.3134255 0.3151928 0.3165524 0.3172587 0.3175038 0.3175152 0.3173349
 0.3169275 0.3163645 0.3158374 0.3155134 0.3154163 0.3154512 0.31551 0.3155361 0.3155257 0.3155119
 0.3155441 0.31565 0.3158192 0.316027 0.3162531 0.3164662 0.3166268 0.3167287 0.31681 0.3168969
 0.3169542 0.3169071 0.3166897 0.316256 0.3155646 0.3145795 0.3132777 0.3116363 0.3096316 0.307329
 0.3050425 0.3033752 0.3029726 0.3041106 0.3064739 0.3093331 0.3119599 0.3139433 0.3152303 0.3159719
 0.316353 0.3165105 0.3165242 0.3164318 0.3162475 0.3159837 0.315661 0.3153026 0.3149312 0.3145731
 0.3142544 0.3139844 0.3137431 0.3134875 0.3131754 0.3127867 0.3123247 0.3117987 0.3112097 0.3105493
 0.3098013 0.3089496 0.3079957 0.3069758 0.3059525 0.3049832 0.3040857 0.3032323 0.3023735 0.3014627
 0.3004469 0.299258 0.2978756 0.2964165 0.2951055 0.2940962 0.2933338 0.2926212 0.2917939 0.2908036
 0.289676 0.2884519 0.2871692 0.2858579 0.2845265 0.2831589 0.2817251 0.2801956 0.2785561 0.2768163
 0.2749996 0.2731264 0.2712121 0.2692688 0.2672837 0.2651868 0.2628472 0.2601083 0.2568294 0.2529137
 0.2483328 0.2431518 0.2375346 0.2317077 0.2259004 0.2203059 0.2150781 0.2103483 0.2062341 0.2028358
 0.2002277 0.1984533 0.1975293 0.1974546 0.1982141 0.1997741 0.2020682 0.2049851 0.2083659 0.212017
 0.2157297 0.2193094 0.2226231 0.2256448 0.2284389 0.2310765 0.2335618 0.2358431 0.237875 0.2396504
 0.2411804 0.2424712 0.2435309 0.2443877 0.245088 0.2456782 0.246188 0.2466285 0.2469962 0.2472855
 0.2475032 0.2476731 0.2478244 0.24798 0.2481564 0.2483668 0.2486192 0.2489187 0.2492767 0.2497124
 0.2502397 0.250854 0.2515338 0.2522568 0.2530172 0.2538289 0.254719 0.2557219 0.256873 0.2581936
 0.2596747 0.2612767 0.2629349 0.2645592 0.2660397 0.2672772 0.2682203 0.2688702 0.2692537 0.2693969
 0.2693256 0.2690728 0.2686733 0.2681515 0.2675235 0.2668098 0.2660335 0.2652065 0.2643242 0.2633803
 0.2623864 0.2613725 0.2603701 0.2593921 0.2584359 0.2575011 0.2565939 0.2557158 0.2548612 0.2540301
 0.2532285 0.2524603 0.2517263 0.251029 0.250366 0.2497174 0.2490423 0.2482873 0.2474053 0.2463743
 0.2451949 0.24387 0.2423973 0.2407826 0.2390463 0.2372113 0.2352902 0.2332858 0.2311988 0.2290323
 0.2267881 0.2244618 0.2220633 0.2196462 0.2172997 0.2151004 0.213079 0.2112261 0.2095112 0.2078969
 0.2063547 0.2048718 0.2034445 0.2020727 0.2007596 0.1995081 0.1983199 0.1972015 0.1961625 0.1952107
 0.1943575 0.1936198 0.1930021 0.1924854 0.1920432 0.1916617 0.1913497 0.1911429 0.1910828 0.1911643
 0.1913116 0.1914236 0.1914402 0.1913672 0.1912571 0.19117 0.1911365 0.1911517 0.1911877 0.1911904
 0.1910729 0.1907381 0.1901051 0.1891095 0.1877086 0.1859155 0.1838169 0.1815568 0.1793067 0.1772304
 0.175445 0.1740068 0.1729204 0.1721354 0.1715537 0.1710882 0.1707246 0.1705239 0.1705666 0.1708659
 0.1712989 0.1716601 0.1718433 0.1719579 0.1722321 0.172823 0.1737224 0.1747891 0.1758431 0.1767602
 0.1775003 0.1780688 0.1784838 0.178775 0.1789647 0.1790463 0.1790085 0.1788567 0.1785965 0.1782305
 0.1777751 0.1772429 0.1766229 0.1759058 0.1751012 0.1742101 0.1732229 0.1721377 0.1709338 0.1695711
 0.1680945 0.1667176 0.1657448 0.1654089 0.1657519 0.1666055 0.1677087 0.168883 0.170056 0.1711298
 0.1719807 0.1726583 0.1734799 0.1748195 0.1767894 0.1791244 0.1813672 0.1831675 0.1844 0.185059
 0.1851695 0.1847916 0.1839738 0.1826992 0.1809754 0.1789201 0.1766867 0.1744014 0.172206 0.1702271
 0.1685127 0.167082 0.1659486 0.1651088 0.1646181 0.1642072 0.1623218 0.1566556 0.1474176 0.139464
 0.1386357 0.1454619 0.1544288 0.1599031 0.1609175 0.1598296 0.1586036 0.1576716 0.1569689 0.156566
 0.1565098 0.1566936 0.1569048 0.156922 0.1566487 0.1560965 0.1551353 0.1532635 0.1496035 0.143217
 0.1337979 0.12231 0.1107828 0.1012379 0.09469 0.09093086 0.08896576 0.08770691 0.0865989 0.08580748
 0.08584775 0.08705872 0.0894168 0.09269977 0.09664893 0.100934 0.1050926 0.1086773 0.1114956 0.1136234
 0.1151851 0.1162186 0.1167396 0.1168114 0.1165189 0.1159454 0.1151702 0.1142295 0.113091 0.1117185
 0.1101796 0.1086827 0.1074835 0.1067171 0.106319 0.1061293 0.106044 0.1060368 0.1060943 0.106196
 0.1063326 0.1065098 0.1067436 0.1070498 0.1074108 0.1077652 0.1080501 0.108242 0.10835 0.108382
 0.1083127 0.1080944 0.1077352 0.1073311 0.106934 0.1064062 0.1055289 0.1042919 0.1030056 0.1020998
 0.1018221 0.1020944 0.1026037 0.1030331 0.1032517 0.1033242 0.1033631 0.10337 0.1032165 0.1027846
</values></Ydata></ScRf><Data_Parameters_AB><parameter name="DPF">1</parameter><parameter name="NPT">3497</parameter><parameter name="FXV">3996</parameter><parameter name="LXV">500</parameter><parameter name="CSF">1</parameter><parameter name="MXY">0.601297736167908</parameter><parameter name="MNY">-0.0758377239108086</parameter><parameter name="DAT">17/01/2024</parameter><parameter name="TIM">13:32:47.512 (GMT+1)</parameter><parameter name="DXU">WN</parameter></Data_Parameters_AB><AB__Qtest><MainReport name="Quality Test Report"><Header><Line><Legend>Test result ok/not ok [1/0]: </Legend><Value>1</Value></Line><Line><Legend>Method file: </Legend><Value>C:\Users\Public\Documents\Bruker\OPUS_8.2.28\QT\IRBT_v3_default.QT</Value></Line></Header><Matrix><Line><Legend></Legend><Legend>min</Legend><Legend>max</Legend><Legend>measured</Legend></Line><Line><Value>Absorption (X-Range 1):</Value><Value>0.400000</Value><Value>2.000000</Value><Value>0.492941</Value></Line><Line><Value>Noise (X-Range 4):</Value><Value></Value><Value>0.000300</Value><Value>0.000046</Value></Line><Line><Value>Signal/Noise (X-Range 2):</Value><Value>200.000000</Value><Value></Value><Value>339.183128</Value></Line><Line><Value>Signal/Noise (X-Range 3):</Value><Value>40.000000</Value><Value></Value><Value>168.865282</Value></Line><Line><Value>Water vapour (X-Range 5):</Value><Value></Value><Value>0.000300</Value><Value>0.000016</Value></Line><Line><Value>Signal/Water (X-Range 2):</Value><Value>100.000000</Value><Value></Value><Value>998.575221</Value></Line><Line><Value>Signal/Water (X-Range 3):</Value><Value>20.000000</Value><Value></Value><Value>497.149392</Value></Line><Line><Value>Fringes (X-Range 6):</Value><Value></Value><Value>0.000100</Value><Value>0.000025</Value></Line></Matrix></MainReport></AB__Qtest><Data_Parameters_ScSm><parameter name="DPF">1</parameter><parameter name="NPT">1814</parameter><parameter name="FXV">3996.63438082617</parameter><parameter name="LXV">499.579297603271</parameter><parameter name="CSF">1</parameter><parameter name="MXY">0.315206468105316</parameter><parameter name="MNY">0.0379503071308136</parameter><parameter name="DAT">17/01/2024</parameter><parameter name="TIM">13:32:47.512 (GMT+1)</parameter><parameter name="DXU">WN</parameter></Data_Parameters_ScSm><Data_Parameters_ScRf><parameter name="DPF">1</parameter><parameter name="NPT">1820</parameter><parameter name="FXV">4004.34989121387</parameter><parameter name="LXV">495.721542409425</parameter><parameter name="CSF">1</parameter><parameter name="MXY">0.317515194416046</parameter><parameter name="MNY">0.0680870935320854</parameter><parameter name="DAT">17/01/2024</parameter><parameter name="TIM">13:32:21.483 (GMT+1)</parameter><parameter name="DXU">WN</parameter></Data_Parameters_ScRf><Optic_Parameters_Rf><parameter name="APR">0</parameter><parameter name="APT">Open</parameter><parameter name="BMS">KBr</parameter><parameter name="DTC">RT-DLaTGS_IR-Biotyper [Microplate reader]</parameter><parameter name="HPF">0</parameter><parameter name="LPF">10.0</parameter><parameter name="LPV">4000</parameter><parameter name="PGR">0</parameter><parameter name="RCH">Module port</parameter><parameter name="RDX">0</parameter><parameter name="SRC">MIR</parameter><parameter name="VEL">10.0</parameter><parameter name="SON">Off</parameter></Optic_Parameters_Rf><Acquisition_Parameters_Rf><parameter name="ADT">1</parameter><parameter name="AQM">DD</parameter><parameter name="CFE">0</parameter><parameter name="COR">0</parameter><parameter name="DEL">0</parameter><parameter name="DLY">0</parameter><parameter name="HFW">8000</parameter><parameter name="LFW">0</parameter><parameter name="NSR">32</parameter><parameter name="PLF">AB</parameter><parameter name="RES">6</parameter><parameter name="RGN">-1</parameter><parameter name="STR">0</parameter><parameter name="TCL">MakeCompatibleScalar (0, {WSV=1.000000, ARV=0});</parameter><parameter name="TDL">37</parameter><parameter name="RPO">0</parameter></Acquisition_Parameters_Rf><FT_-_Parameters_Rf><parameter name="APF">B3</parameter><parameter name="HFQ">500</parameter><parameter name="LFQ">4000</parameter><parameter name="NLI">0</parameter><parameter name="PHR">24</parameter><parameter name="PHZ">ML</parameter><parameter name="SPZ">NO</parameter><parameter name="ZFF">1</parameter></FT_-_Parameters_Rf><Optic_Parameters_><parameter name="APR">0</parameter><parameter name="APT">Open</parameter><parameter name="BMS">KBr</parameter><parameter name="CHN">Module port</parameter><parameter name="DTC">RT-DLaTGS_IR-Biotyper [Microplate reader]</parameter><parameter name="HPF">0</parameter><parameter name="LPF">10.0</parameter><parameter name="LPV">4000</parameter><parameter name="PGN">0</parameter><parameter name="RDX">0</parameter><parameter name="SRC">MIR</parameter><parameter name="VEL">10.0</parameter><parameter name="SON">Off</parameter></Optic_Parameters_><FT_-_Parameters_><parameter name="APF">B3</parameter><parameter name="HFQ">500</parameter><parameter name="LFQ">4000</parameter><parameter name="NLI">0</parameter><parameter name="PHR">24</parameter><parameter name="PHZ">ML</parameter><parameter name="SPZ">NO</parameter><parameter name="ZFF">1</parameter></FT_-_Parameters_><Acquisition_Parameters_><parameter name="ADT">1</parameter><parameter name="AQM">DD</parameter><parameter name="CFE">0</parameter><parameter name="COR">0</parameter><parameter name="DEL">0</parameter><parameter name="DLY">0</parameter><parameter name="HFW">8000</parameter><parameter name="LFW">0</parameter><parameter name="NSS">32</parameter><parameter name="PLF">AB</parameter><parameter name="RES">6</parameter><parameter name="SOT">0</parameter><parameter name="TCL">MakeCompatibleScalar (0, {WSV=1.000000, ARV=0});</parameter><parameter name="TDL">37</parameter><parameter name="SPO">0</parameter><parameter name="SGN">-1</parameter></Acquisition_Parameters_><Instrument_Parameters_Rf><parameter name="HFL">15801.365274</parameter><parameter name="LFL">0</parameter><parameter name="LWN">15801.365274</parameter><parameter name="ABP">32157</parameter><parameter name="SSP">1</parameter><parameter name="ARG">2</parameter><parameter name="ASG">2</parameter><parameter name="ASS">32</parameter><parameter name="GFW">16</parameter><parameter name="GBW">16</parameter><parameter name="BFW">0</parameter><parameter name="BBW">0</parameter><parameter name="PKA">9115</parameter><parameter name="PKL">4987</parameter><parameter name="PRA">9126</parameter><parameter name="PRL">5010</parameter><parameter name="P2A">1</parameter><parameter name="P2L">1</parameter><parameter name="P2R">1</parameter><parameter name="P2K">1</parameter><parameter name="DAQ">0</parameter><parameter name="AG2">1</parameter><parameter name="SSM">1</parameter><parameter name="RSN">46366</parameter><parameter name="CRR">0</parameter><parameter name="SRT">1705498341.483</parameter><parameter name="DUR">19.6449890136719</parameter><parameter name="TSC">30.9</parameter><parameter name="MVD">0.307266712188721</parameter><parameter name="AN1">0.226016701712132</parameter><parameter name="AN2">0</parameter><parameter name="VSN">2.485 Apr  4 2017</parameter><parameter name="SRN">0085</parameter><parameter name="CAM">0</parameter><parameter name="INS">IR-Biotyper</parameter><parameter name="FOC">69</parameter><parameter name="RDY">1</parameter><parameter name="ARS">32</parameter></Instrument_Parameters_Rf><Sample_Parameters_><parameter name="BLD"></parameter><parameter name="CNM">Admin</parameter><parameter name="CPY"></parameter><parameter name="DPM"></parameter><parameter name="EXP">IRBT_v3_32Scans.XPM</parameter><parameter name="LCT"></parameter><parameter name="SFM">Microplate, HTS-XT</parameter><parameter name="SNM">240117-1222-Cdiff_SCFA_1_C14_232117486_F9_3755c1a8-27ea-432b-b109-e21641811a10.0</parameter><parameter name="XPP">C:\Users\Public\Documents\Bruker\OPUS_8.2.28\XPM</parameter><parameter name="IST">OK</parameter><parameter name="CPG">1252</parameter><parameter name="UID">8d3463c4-f6b7-4ec8-bd0c-3f43b93d2997</parameter></Sample_Parameters_><Instrument_Parameters_><parameter name="HFL">15801.365274</parameter><parameter name="LFL">0</parameter><parameter name="LWN">15801.365274</parameter><parameter name="ABP">32157</parameter><parameter name="SSP">1</parameter><parameter name="ASG">2</parameter><parameter name="ARG">2</parameter><parameter name="ASS">32</parameter><parameter name="GFW">16</parameter><parameter name="GBW">16</parameter><parameter name="BFW">0</parameter><parameter name="BBW">0</parameter><parameter name="PKA">7755</parameter><parameter name="PKL">4979</parameter><parameter name="PRA">7926</parameter><parameter name="PRL">5002</parameter><parameter name="P2A">1</parameter><parameter name="P2L">1</parameter><parameter name="P2R">1</parameter><parameter name="P2K">1</parameter><parameter name="DAQ">0</parameter><parameter name="AG2">1</parameter><parameter name="SSM">1</parameter><parameter name="RSN">23876</parameter><parameter name="CRR">0</parameter><parameter name="SRT">1705498367.512</parameter><parameter name="DUR">19.6439971923828</parameter><parameter name="TSC">30.9</parameter><parameter name="MVD">0.288658052682877</parameter><parameter name="AN1">0.226006581502949</parameter><parameter name="AN2">0</parameter><parameter name="VSN">2.485 Apr  4 2017</parameter><parameter name="SRN">0085</parameter><parameter name="CAM">0</parameter><parameter name="INS">IR-Biotyper</parameter><parameter name="FOC">69</parameter><parameter name="RDY">1</parameter></Instrument_Parameters_><History/></OPUSDataFile>
