<?xml version="1.0" encoding="UTF-8" ?>
<OPUSDataFile><AB><Ydata ylabel="Absorbance Units"><values byteorder="INTEL" format="FLOAT32" numvalues="3497"> -0.08239915 -0.08240115 -0.08239266 -0.08237424 -0.08234652 -0.08231223 -0.08227768 -0.08224436 -0.08221771 -0.08219668
 -0.08218221 -0.08217285 -0.08216779 -0.08216628 -0.08216815 -0.08217151 -0.08217613 -0.08217891 -0.08217899 -0.08217525
 -0.08216723 -0.08215629 -0.08214259 -0.08212607 -0.08210669 -0.082082 -0.08205209 -0.08201665 -0.08197682 -0.08193823
 -0.08190226 -0.0818768 -0.08186132 -0.08185939 -0.08186751 -0.08188219 -0.08189991 -0.08191511 -0.08192772 -0.08193538
 -0.08194079 -0.08194501 -0.08194897 -0.08195382 -0.081957 -0.08195798 -0.08195557 -0.08194932 -0.08194073 -0.08192997
 -0.08191694 -0.08190162 -0.08188101 -0.08185536 -0.08182581 -0.08179361 -0.08176647 -0.08174465 -0.08173395 -0.08173163
 -0.08173481 -0.08174022 -0.08174051 -0.08173698 -0.08172713 -0.08171627 -0.08170794 -0.08170451 -0.08170941 -0.08171834
 -0.08173114 -0.08174152 -0.08174766 -0.08174743 -0.08173984 -0.08172785 -0.08171152 -0.08169522 -0.08167919 -0.08166607
 -0.08165587 -0.0816493 -0.08164617 -0.081646 -0.0816485 -0.08165269 -0.08165796 -0.08166278 -0.08166614 -0.08166598
 -0.08166111 -0.08164921 -0.08163048 -0.08160331 -0.08157185 -0.08153699 -0.08150513 -0.08147901 -0.08146131 -0.08145411
 -0.08145284 -0.08145762 -0.08146016 -0.08145963 -0.08145115 -0.08143444 -0.08141076 -0.08138049 -0.08134858 -0.08131541
 -0.08128566 -0.08125933 -0.08123928 -0.08122468 -0.08121531 -0.08120974 -0.08120539 -0.08120198 -0.08119784 -0.08119419
 -0.08119156 -0.08119045 -0.0811919 -0.08119362 -0.08119515 -0.08119404 -0.08118932 -0.081181 -0.08116886 -0.08115399
 -0.08113641 -0.0811178 -0.08109827 -0.08108235 -0.08107035 -0.08106779 -0.08107393 -0.08108819 -0.08110756 -0.08112128
 -0.08112665 -0.08110996 -0.08107524 -0.0810211 -0.08095704 -0.08089405 -0.08083659 -0.08079257 -0.08076052 -0.08074166
 -0.08073425 -0.08073837 -0.08075078 -0.08077195 -0.0807924 -0.08081119 -0.08081722 -0.08080877 -0.08078572 -0.08074789
 -0.08070812 -0.08066703 -0.08063672 -0.08061638 -0.08060738 -0.08060805 -0.08061315 -0.08062129 -0.08062639 -0.08062824
 -0.08062317 -0.08061322 -0.08059855 -0.08058334 -0.08057173 -0.08056405 -0.08056356 -0.08056228 -0.08055812 -0.08054416
 -0.08051658 -0.08048087 -0.08043645 -0.08039586 -0.08036064 -0.08033562 -0.08032125 -0.08031162 -0.08030631 -0.08029781
 -0.0802864 -0.08026985 -0.0802489 -0.08022509 -0.08019876 -0.08017162 -0.08014364 -0.08011593 -0.08008727 -0.08005682
 -0.08002301 -0.07998321 -0.07994018 -0.07989326 -0.07985049 -0.07981472 -0.07979202 -0.07978594 -0.07979181 -0.07981043
 -0.07982955 -0.07984804 -0.07985661 -0.07985459 -0.07984116 -0.07981659 -0.07978495 -0.07974675 -0.07970701 -0.0796663
 -0.07962927 -0.07959656 -0.07957238 -0.07955635 -0.07955055 -0.07955201 -0.07955863 -0.07956604 -0.0795695 -0.07956748
 -0.07955673 -0.07954114 -0.07952101 -0.0795018 -0.07948527 -0.0794737 -0.07946811 -0.07946724 -0.07947132 -0.07947627
 -0.07948187 -0.07948305 -0.07947968 -0.07946919 -0.07945249 -0.07943492 -0.07941711 -0.07940557 -0.07939774 -0.0793907
 -0.07938091 -0.07935905 -0.07932762 -0.07928437 -0.07923704 -0.07919209 -0.0791532 -0.07912609 -0.07910544 -0.07909146
 -0.07907478 -0.07905214 -0.07902122 -0.07897998 -0.07893615 -0.0788902 -0.07885034 -0.07881729 -0.07879026 -0.0787688
 -0.07874352 -0.07871405 -0.07867271 -0.07862131 -0.07856239 -0.07849939 -0.07844325 -0.07839501 -0.0783629 -0.07834311
 -0.0783354 -0.07833233 -0.07832689 -0.0783153 -0.07829136 -0.07826106 -0.07822463 -0.07819078 -0.07816315 -0.07814127
 -0.0781267 -0.07811012 -0.07809065 -0.07806124 -0.07802119 -0.0779717 -0.07791305 -0.07785197 -0.0777887 -0.07772831
 -0.07767004 -0.07761347 -0.07755743 -0.07749806 -0.0774358 -0.07736862 -0.07730012 -0.07723403 -0.07717337 -0.07712314
 -0.07708161 -0.07704993 -0.07702323 -0.07700008 -0.07697541 -0.07694791 -0.07691211 -0.07686672 -0.0768086 -0.07673691
 -0.07665395 -0.07655975 -0.07645873 -0.07635096 -0.07623696 -0.07611678 -0.07599061 -0.07585971 -0.07572956 -0.07560157
 -0.07548295 -0.07537324 -0.07527553 -0.0751873 -0.07510694 -0.075031 -0.07495562 -0.07487909 -0.07479876 -0.07471568
 -0.07462991 -0.07454167 -0.07445232 -0.07435536 -0.07425033 -0.07412833 -0.07398748 -0.07382953 -0.07365408 -0.07347509
 -0.07329322 -0.07312082 -0.07295758 -0.07280647 -0.07266656 -0.07253538 -0.07241212 -0.07229313 -0.07217827 -0.07206572
 -0.07195521 -0.07184691 -0.07173691 -0.07162285 -0.07149781 -0.07135516 -0.07119596 -0.07101599 -0.07083047 -0.07064297
 -0.07046556 -0.07030305 -0.07015024 -0.0700078 -0.06986267 -0.06971376 -0.06955624 -0.06939019 -0.06922211 -0.06905244
 -0.06888806 -0.06872796 -0.06857134 -0.0684166 -0.0682583 -0.06809629 -0.06792721 -0.0677527 -0.06757379 -0.06739143
 -0.06720733 -0.06702049 -0.06683061 -0.06663739 -0.0664399 -0.0662411 -0.06604136 -0.06584474 -0.06565248 -0.06546503
 -0.06528303 -0.06510214 -0.06492217 -0.06473731 -0.06454736 -0.06435028 -0.06414676 -0.06394192 -0.06373669 -0.06353869
 -0.06334711 -0.0631639 -0.06298684 -0.06281224 -0.06263886 -0.06246312 -0.06228548 -0.06210527 -0.06192285 -0.0617383
 -0.06155178 -0.06136324 -0.06117338 -0.06098244 -0.06079081 -0.06059876 -0.0604055 -0.06021101 -0.06001398 -0.05981428
 -0.0596119 -0.0594069 -0.05920142 -0.05899568 -0.05879276 -0.05859255 -0.05839654 -0.05820385 -0.05801264 -0.05782193
 -0.05762851 -0.05743252 -0.05723251 -0.0570296 -0.05682432 -0.05661788 -0.05641113 -0.05620527 -0.05600118 -0.0557991
 -0.0555996 -0.05540122 -0.05520361 -0.05500625 -0.05480866 -0.05461398 -0.05442237 -0.05423738 -0.05405909 -0.05388603
 -0.05371771 -0.05354847 -0.05337799 -0.05320138 -0.05301933 -0.05283115 -0.05263837 -0.05244352 -0.05224862 -0.05205792
 -0.05187224 -0.05169477 -0.0515232 -0.05135788 -0.05119323 -0.05102681 -0.05085412 -0.0506723 -0.05048309 -0.0502855
 -0.0500868 -0.04988777 -0.04969461 -0.0495081 -0.04932853 -0.04915588 -0.04898611 -0.04881907 -0.04865154 -0.04848362
 -0.04831388 -0.04814279 -0.04797095 -0.04779912 -0.04762926 -0.04746181 -0.04729884 -0.0471388 -0.04698115 -0.04682356
 -0.04666387 -0.04650177 -0.04633601 -0.04616896 -0.0460009 -0.04583493 -0.04567181 -0.04551343 -0.04536041 -0.04521155
 -0.04506699 -0.04492194 -0.04477613 -0.04462496 -0.04446874 -0.04430936 -0.04414787 -0.04399134 -0.04383959 -0.04369652
 -0.04355934 -0.04342382 -0.04328724 -0.0431424 -0.04299115 -0.04283144 -0.04266967 -0.04250994 -0.04235675 -0.04221475
 -0.04208106 -0.04195642 -0.04183439 -0.04171328 -0.04159061 -0.04146539 -0.04134004 -0.04121473 -0.04109106 -0.04096912
 -0.04084782 -0.04072712 -0.0406062 -0.04048518 -0.04036445 -0.04024389 -0.04012346 -0.04000256 -0.03988006 -0.03975482
 -0.03962468 -0.03948842 -0.03934325 -0.0391905 -0.03902872 -0.03886468 -0.03870051 -0.03854511 -0.0384025 -0.03827624
 -0.03816907 -0.03807542 -0.03799544 -0.03791932 -0.03784614 -0.03776924 -0.03768821 -0.03760303 -0.03751392 -0.03742397
 -0.03733316 -0.03724285 -0.03715256 -0.03706134 -0.03696873 -0.03687335 -0.03677475 -0.03667164 -0.0365637 -0.03644931
 -0.03633075 -0.03620836 -0.03608713 -0.03596976 -0.03585971 -0.03575986 -0.03566718 -0.0355821 -0.03549811 -0.03541396
 -0.03532736 -0.03523754 -0.0351496 -0.03506377 -0.03498714 -0.03491958 -0.03486142 -0.03481131 -0.03476107 -0.03470988
 -0.03464948 -0.03458199 -0.03450792 -0.03443054 -0.03435624 -0.03428503 -0.03422009 -0.03415842 -0.03409831 -0.0340385
 -0.03397711 -0.03391647 -0.03385704 -0.03380064 -0.03374827 -0.0336984 -0.03365135 -0.03360265 -0.03355204 -0.03349403
 -0.03342827 -0.03335255 -0.03326728 -0.03317822 -0.03308664 -0.0330039 -0.03293015 -0.03287292 -0.03282957 -0.03279797
 -0.03277425 -0.03275082 -0.03272556 -0.03269278 -0.03265268 -0.03260369 -0.03254611 -0.03247975 -0.03240472 -0.03232043
 -0.03222955 -0.03213162 -0.03203449 -0.03193904 -0.03185388 -0.03178033 -0.03171989 -0.03167283 -0.03163113 -0.03159424
 -0.03155214 -0.03150507 -0.0314493 -0.03138627 -0.03131936 -0.03124986 -0.03118306 -0.03111859 -0.03105872 -0.03100125
 -0.03094479 -0.03088648 -0.0308232 -0.03075421 -0.0306776 -0.03059586 -0.03050908 -0.03042138 -0.03033392 -0.03024899
 -0.03016739 -0.03008856 -0.03001263 -0.0299376 -0.02986338 -0.02978749 -0.02970977 -0.02962761 -0.02954074 -0.0294461
 -0.02934342 -0.02922973 -0.02910555 -0.0289698 -0.0288253 -0.02867532 -0.02852534 -0.02838312 -0.02825319 -0.02814329
 -0.02805125 -0.02797975 -0.02791929 -0.02786722 -0.02781434 -0.02775679 -0.02769385 -0.0276238 -0.02755471 -0.02748699
 -0.02743045 -0.02738577 -0.02735763 -0.02734582 -0.02734651 -0.02735875 -0.02737388 -0.0273916 -0.02740538 -0.0274169
 -0.02742673 -0.02743783 -0.02745605 -0.02748283 -0.02752319 -0.0275749 -0.02763849 -0.02770936 -0.02778438 -0.02786252
 -0.02794107 -0.02802672 -0.02812017 -0.02823015 -0.02835921 -0.02850685 -0.02867418 -0.02884906 -0.02903079 -0.02920833
 -0.02938157 -0.02955029 -0.02971508 -0.02988072 -0.03004653 -0.03021223 -0.0303768 -0.0305365 -0.03069274 -0.03084634
 -0.03099891 -0.03115399 -0.03130911 -0.03146413 -0.03161407 -0.03175513 -0.03188673 -0.03200647 -0.03212021 -0.03222872
 -0.03233863 -0.03245163 -0.03256942 -0.03269283 -0.03281733 -0.03294276 -0.03306186 -0.03317441 -0.03327684 -0.03337008
 -0.03345943 -0.0335463 -0.03364033 -0.03374033 -0.03384908 -0.03396224 -0.03407277 -0.03417793 -0.03426974 -0.03435165
 -0.03442285 -0.0344907 -0.03455966 -0.03463439 -0.03471893 -0.03481118 -0.03491204 -0.03501542 -0.03512054 -0.03522145
 -0.03531725 -0.03540535 -0.03548541 -0.03555913 -0.0356267 -0.03569243 -0.03575655 -0.03582308 -0.03589163 -0.03596282
 -0.03603581 -0.03610837 -0.0361804 -0.03625014 -0.0363191 -0.03638853 -0.03645993 -0.03653567 -0.03661489 -0.03669792
 -0.03678311 -0.03686946 -0.0369574 -0.03704658 -0.03713893 -0.03723495 -0.03733473 -0.03743848 -0.03754458 -0.0376529
 -0.03776298 -0.03787477 -0.03798797 -0.03810219 -0.03821397 -0.03832274 -0.03842358 -0.03851715 -0.0386023 -0.03868112
 -0.0387572 -0.03883215 -0.03891013 -0.03899049 -0.03907456 -0.03915988 -0.0392453 -0.03932884 -0.03940897 -0.03948614
 -0.0395598 -0.0396324 -0.03970442 -0.03977723 -0.03985126 -0.03992529 -0.03999928 -0.0400714 -0.04014166 -0.0402114
 -0.0402809 -0.04035367 -0.04042948 -0.04050964 -0.04059276 -0.04067556 -0.04075668 -0.04083139 -0.04090017 -0.04096112
 -0.04101682 -0.04106887 -0.04111988 -0.04117218 -0.04122679 -0.04128508 -0.04134587 -0.0414095 -0.04147284 -0.04153555
 -0.04159378 -0.04164683 -0.04169354 -0.04173358 -0.04177039 -0.04180414 -0.04183915 -0.04187506 -0.04191067 -0.04194472
 -0.04197018 -0.04198691 -0.04198964 -0.04198181 -0.04196688 -0.04195079 -0.0419439 -0.0419489 -0.04197406 -0.04201398
 -0.04206926 -0.04212864 -0.04218699 -0.04223682 -0.04227331 -0.04229949 -0.04231436 -0.04232663 -0.04233756 -0.04235148
 -0.04236908 -0.04238806 -0.04240832 -0.04242785 -0.04244696 -0.04246803 -0.04249129 -0.04251951 -0.0425519 -0.04258739
 -0.04262534 -0.04266366 -0.04270274 -0.04274239 -0.04278271 -0.04282405 -0.04286541 -0.04290579 -0.04294578 -0.04298436
 -0.04302631 -0.04307229 -0.04312913 -0.04319862 -0.04328409 -0.04338685 -0.04350337 -0.04363386 -0.04376766 -0.0439042
 -0.04403136 -0.04414923 -0.04425365 -0.04434652 -0.0444354 -0.04452195 -0.04461635 -0.04471694 -0.0448257 -0.04493885
 -0.04505111 -0.04516121 -0.04526501 -0.04536502 -0.04546159 -0.04555751 -0.04565447 -0.04575326 -0.04585455 -0.04595831
 -0.0460647 -0.04617345 -0.04628482 -0.0463961 -0.04650723 -0.0466131 -0.04671346 -0.04680506 -0.04688814 -0.04696426
 -0.047034 -0.04710138 -0.0471662 -0.04723013 -0.04729221 -0.04735097 -0.04740621 -0.0474565 -0.04750341 -0.04754781
 -0.04759185 -0.04763725 -0.04768577 -0.04773878 -0.04779704 -0.04786143 -0.04793069 -0.04800513 -0.04808114 -0.04815841
 -0.04823277 -0.04830369 -0.04837043 -0.04843293 -0.04849293 -0.04855046 -0.04860632 -0.04866039 -0.04871203 -0.0487618
 -0.04881083 -0.04886055 -0.04891511 -0.04897463 -0.04904202 -0.04911434 -0.04919025 -0.04926489 -0.04933394 -0.04939521
 -0.04944565 -0.0494878 -0.04952171 -0.04955057 -0.04957559 -0.04959611 -0.04961252 -0.04962108 -0.0496214 -0.04961226
 -0.04959361 -0.04956811 -0.04953586 -0.04949942 -0.04945833 -0.04941142 -0.04935799 -0.04929471 -0.04922187 -0.04913799
 -0.04904473 -0.04894409 -0.04883736 -0.04872711 -0.04861289 -0.0484951 -0.04837327 -0.04824647 -0.04811737 -0.04798612
 -0.0478576 -0.04773339 -0.04761467 -0.04750243 -0.04739201 -0.04728307 -0.04717124 -0.04705625 -0.04694212 -0.0468297
 -0.04673117 -0.0466472 -0.04658876 -0.04655438 -0.04654553 -0.04655884 -0.04658711 -0.04662802 -0.04667424 -0.04672576
 -0.04678017 -0.04683692 -0.04689621 -0.04695307 -0.04700581 -0.04704743 -0.04707441 -0.04708494 -0.04707667 -0.04705631
 -0.04702416 -0.04698901 -0.04695195 -0.04691606 -0.04688159 -0.04684475 -0.04680546 -0.04676107 -0.04671268 -0.04666534
 -0.04662123 -0.04659095 -0.0465757 -0.04658424 -0.04661509 -0.04667053 -0.04674637 -0.04683929 -0.04694409 -0.04705534
 -0.04717058 -0.04728565 -0.04740503 -0.04752798 -0.04766503 -0.04781837 -0.04799712 -0.04820384 -0.04843855 -0.04870219
 -0.04898504 -0.04928664 -0.04959231 -0.04990124 -0.05019917 -0.05048561 -0.05075031 -0.05099356 -0.05121053 -0.05140278
 -0.05157103 -0.0517185 -0.05185029 -0.05197078 -0.05208713 -0.05220215 -0.05232123 -0.05244284 -0.05256839 -0.05269292
 -0.05281502 -0.0529305 -0.05303785 -0.05313573 -0.05322373 -0.053301 -0.05336748 -0.05342113 -0.05346178 -0.05348933
 -0.05350411 -0.05351102 -0.05351071 -0.05351002 -0.0535087 -0.05350937 -0.05351146 -0.05351384 -0.05351858 -0.05352757
 -0.05354578 -0.05358014 -0.05363351 -0.05371233 -0.05381194 -0.05393302 -0.05406541 -0.05420568 -0.05434531 -0.05448113
 -0.05460983 -0.05473012 -0.05484236 -0.05494634 -0.05504389 -0.05513512 -0.0552211 -0.05530182 -0.05537702 -0.05544706
 -0.05551352 -0.05557831 -0.0556493 -0.05572927 -0.05583007 -0.05595165 -0.05610092 -0.05627251 -0.05646402 -0.05666644
 -0.05687156 -0.05707259 -0.05726258 -0.05744098 -0.05760529 -0.05775941 -0.05790397 -0.0580419 -0.05817422 -0.05829976
 -0.05841864 -0.05852817 -0.05862815 -0.05871812 -0.05879818 -0.05887048 -0.05893539 -0.05899642 -0.05905392 -0.05911111
 -0.05916817 -0.05922723 -0.05928825 -0.05935223 -0.05941876 -0.05948815 -0.05955864 -0.05962946 -0.05969709 -0.0597592
 -0.05981345 -0.05985755 -0.05989379 -0.05992176 -0.05994689 -0.05997015 -0.05999503 -0.06002219 -0.06005166 -0.06008347
 -0.06011705 -0.06015239 -0.06018929 -0.0602276 -0.06026598 -0.06030431 -0.06034112 -0.06037692 -0.06041228 -0.06044779
 -0.06048515 -0.06052376 -0.0605638 -0.06060372 -0.060642 -0.06067821 -0.0607113 -0.06074248 -0.06077181 -0.06080114
 -0.06083113 -0.0608625 -0.06089564 -0.0609298 -0.06096502 -0.06099963 -0.06103352 -0.06106547 -0.06109546 -0.06112356
 -0.06114985 -0.06117487 -0.06119855 -0.06122087 -0.06124192 -0.06126172 -0.06128105 -0.06130131 -0.06132342 -0.06134927
 -0.06137895 -0.06141356 -0.06145166 -0.06149315 -0.06153521 -0.06157683 -0.06161518 -0.06164913 -0.06167756 -0.06169978
 -0.06171754 -0.06173078 -0.06174286 -0.06175403 -0.06176689 -0.06178151 -0.06179847 -0.06181758 -0.06183777 -0.06185872
 -0.06187837 -0.06189656 -0.06191158 -0.06192396 -0.06193355 -0.06194173 -0.06195009 -0.0619603 -0.06197468 -0.06199359
 -0.0620186 -0.06204714 -0.06207911 -0.06210972 -0.06213742 -0.06215958 -0.06217479 -0.0621861 -0.06219345 -0.06220236
 -0.0622133 -0.06222768 -0.0622454 -0.06226228 -0.06227817 -0.0622895 -0.06229706 -0.06230261 -0.06230714 -0.06231477
 -0.06232535 -0.06234077 -0.06235974 -0.06238117 -0.06240421 -0.0624274 -0.062451 -0.06247459 -0.06249915 -0.06252522
 -0.06255267 -0.06258204 -0.06261063 -0.06263828 -0.06266093 -0.0626779 -0.06268743 -0.06268913 -0.06268581 -0.06267767
 -0.06267045 -0.06266446 -0.06266452 -0.06267046 -0.06268424 -0.06270487 -0.0627309 -0.06276038 -0.06278887 -0.06281446
 -0.06283198 -0.06284222 -0.06284314 -0.06283917 -0.0628324 -0.06282727 -0.06282706 -0.0628314 -0.06284153 -0.06285319
 -0.06286556 -0.06287657 -0.06288556 -0.06289434 -0.06290302 -0.06291293 -0.06292406 -0.0629347 -0.06294479 -0.06295276
 -0.06295905 -0.06296512 -0.0629713 -0.06297944 -0.06298923 -0.0630008 -0.06301402 -0.06302867 -0.06304514 -0.06306409
 -0.06308472 -0.06310728 -0.063129 -0.06314876 -0.0631641 -0.06317362 -0.06317782 -0.06317625 -0.06317154 -0.0631639
 -0.06315592 -0.06314783 -0.06314154 -0.06313717 -0.06313641 -0.06313919 -0.06314598 -0.06315641 -0.06316897 -0.06318311
 -0.06319635 -0.06320841 -0.06321733 -0.06322328 -0.06322553 -0.06322461 -0.06322042 -0.06321468 -0.06320822 -0.06320356
 -0.06320245 -0.06320512 -0.06321274 -0.06322166 -0.06323147 -0.06323806 -0.06324044 -0.06323938 -0.06323468 -0.06323091
 -0.06322825 -0.0632282 -0.06323044 -0.06323171 -0.06323189 -0.06322823 -0.06322166 -0.06321359 -0.06320497 -0.06319876
 -0.06319457 -0.06319325 -0.06319383 -0.0631953 -0.0631978 -0.06320085 -0.06320567 -0.06321294 -0.06322269 -0.06323559
 -0.06324904 -0.06326284 -0.06327345 -0.06328021 -0.06328183 -0.06327796 -0.06327099 -0.06326102 -0.06325157 -0.06324263
 -0.06323536 -0.06322929 -0.06322259 -0.06321495 -0.06320412 -0.06319088 -0.06317558 -0.06315968 -0.06314579 -0.06313431
 -0.06312721 -0.06312278 -0.06312057 -0.06311837 -0.06311461 -0.06310934 -0.06310191 -0.06309424 -0.06308675 -0.06308026
 -0.06307517 -0.06307004 -0.06306477 -0.06305814 -0.0630501 -0.0630415 -0.06303247 -0.0630248 -0.06301848 -0.06301439
 -0.06301221 -0.06301145 -0.06301151 -0.0630108 -0.06300877 -0.06300368 -0.06299573 -0.06298404 -0.06297031 -0.06295519
 -0.06294121 -0.06293 -0.06292261 -0.06292046 -0.06292082 -0.06292385 -0.0629242 -0.06292105 -0.06291103 -0.06289348
 -0.06287108 -0.06284394 -0.06281892 -0.06279619 -0.06278013 -0.06277005 -0.06276429 -0.06276178 -0.06275751 -0.0627515
 -0.06274084 -0.06272704 -0.06271114 -0.06269483 -0.06268068 -0.06266895 -0.06266087 -0.06265552 -0.06265274 -0.06265175
 -0.06265221 -0.06265377 -0.06265647 -0.06265923 -0.06266197 -0.06266332 -0.06266308 -0.06266116 -0.06265755 -0.06265403
 -0.06265069 -0.06264919 -0.06264928 -0.06265035 -0.06265177 -0.06265087 -0.06264754 -0.06263968 -0.06262856 -0.06261504
 -0.06260101 -0.06258924 -0.06258019 -0.06257573 -0.06257368 -0.06257361 -0.06257275 -0.06256974 -0.06256384 -0.06255434
 -0.06254265 -0.0625288 -0.06251463 -0.0625003 -0.06248727 -0.06247563 -0.06246595 -0.06245815 -0.06245109 -0.06244452
 -0.06243614 -0.06242602 -0.06241286 -0.06239732 -0.06238024 -0.0623624 -0.06234566 -0.06233012 -0.06231668 -0.06230494
 -0.06229484 -0.06228599 -0.06227822 -0.06227106 -0.06226444 -0.06225737 -0.06224971 -0.06224002 -0.06222793 -0.06221327
 -0.0621958 -0.06217794 -0.06215978 -0.06214428 -0.06213141 -0.06212135 -0.06211368 -0.06210563 -0.06209707 -0.06208563
 -0.06207217 -0.06205754 -0.06204277 -0.06203032 -0.06201997 -0.06201287 -0.06200722 -0.06200191 -0.06199558 -0.06198682
 -0.06197614 -0.06196326 -0.06194951 -0.0619354 -0.06192082 -0.06190592 -0.06188958 -0.0618716 -0.06185227 -0.06183155
 -0.06181149 -0.06179219 -0.06177524 -0.06176049 -0.06174774 -0.06173667 -0.06172593 -0.06171539 -0.06170401 -0.06169188
 -0.06167857 -0.06166458 -0.0616504 -0.06163623 -0.06162254 -0.06160894 -0.0615954 -0.06158138 -0.06156653 -0.06155113
 -0.06153511 -0.0615192 -0.06150354 -0.06148842 -0.06147386 -0.0614604 -0.06144807 -0.06143746 -0.06142851 -0.06142039
 -0.06141277 -0.06140278 -0.06139036 -0.06137336 -0.06135279 -0.06132995 -0.06130627 -0.06128498 -0.06126659 -0.06125335
 -0.06124431 -0.06123966 -0.06123767 -0.0612376 -0.06123742 -0.06123611 -0.06123264 -0.06122612 -0.06121816 -0.06120844
 -0.06120172 -0.0611984 -0.06120318 -0.06121646 -0.0612381 -0.06126774 -0.06129849 -0.06132953 -0.06135166 -0.06136477
 -0.06136319 -0.06134799 -0.06131853 -0.06127731 -0.06122796 -0.0611742 -0.06112245 -0.06107444 -0.06103519 -0.06100072
 -0.06097031 -0.06093947 -0.06090485 -0.06086934 -0.06083237 -0.06080061 -0.06077571 -0.06075885 -0.06075102 -0.06074473
 -0.06073966 -0.0607255 -0.06070213 -0.06066884 -0.06062694 -0.06058689 -0.06054882 -0.06051966 -0.06049681 -0.06047631
 -0.06045654 -0.06043151 -0.06040349 -0.06037242 -0.06034219 -0.06031707 -0.06029716 -0.06028501 -0.06027531 -0.06026687
 -0.06025364 -0.060233 -0.06020447 -0.06016691 -0.06012495 -0.06007895 -0.06003312 -0.05998784 -0.05994361 -0.05990041
 -0.05985711 -0.05981382 -0.05977095 -0.05972882 -0.05968911 -0.05965184 -0.05961789 -0.05958724 -0.05956033 -0.05953706
 -0.05951772 -0.05950151 -0.05948823 -0.05947581 -0.059463 -0.05944819 -0.05943011 -0.05940906 -0.05938472 -0.0593583
 -0.05933012 -0.05930007 -0.05926814 -0.05923421 -0.05919818 -0.05916271 -0.05912801 -0.05909843 -0.05907387 -0.05905568
 -0.05904285 -0.05903158 -0.059021 -0.05900623 -0.05898788 -0.05896441 -0.05893788 -0.05891051 -0.05888391 -0.0588607
 -0.05884069 -0.0588249 -0.05881132 -0.05879948 -0.05878702 -0.05877318 -0.05875615 -0.05873533 -0.05871047 -0.05868125
 -0.05864993 -0.05861658 -0.05858508 -0.05855561 -0.05853043 -0.05850925 -0.05849046 -0.05847345 -0.05845451 -0.05843364
 -0.05840867 -0.05838045 -0.05834946 -0.05831677 -0.05828411 -0.05825204 -0.0582219 -0.05819329 -0.05816657 -0.05814057
 -0.05811493 -0.05808842 -0.05806038 -0.05803113 -0.05800031 -0.0579704 -0.05794161 -0.05791663 -0.05789578 -0.05787852
 -0.05786471 -0.05784986 -0.05783368 -0.05781152 -0.05778383 -0.05775007 -0.05771147 -0.05767144 -0.05763087 -0.05759335
 -0.0575587 -0.0575284 -0.05750155 -0.0574779 -0.05745646 -0.05743662 -0.05741716 -0.05739743 -0.05737638 -0.05735346
 -0.0573285 -0.05730123 -0.05727258 -0.05724253 -0.05721254 -0.0571827 -0.05715398 -0.05712641 -0.05709986 -0.05707422
 -0.05704845 -0.05702254 -0.05699584 -0.05696867 -0.05694181 -0.05691531 -0.05688982 -0.05686469 -0.05683926 -0.05681283
 -0.05678407 -0.05675369 -0.05672144 -0.05668917 -0.05665774 -0.05662827 -0.05660155 -0.05657686 -0.0565543 -0.05653236
 -0.05651079 -0.05648898 -0.05646685 -0.05644416 -0.05642089 -0.05639664 -0.05637147 -0.05634544 -0.05631887 -0.05629351
 -0.05626949 -0.05624847 -0.05622958 -0.05621206 -0.05619423 -0.05617282 -0.05614789 -0.05611755 -0.05608472 -0.05605072
 -0.0560185 -0.05599044 -0.05596577 -0.05594536 -0.05592515 -0.05590435 -0.05588029 -0.05585212 -0.0558213 -0.05578774
 -0.05575554 -0.05572491 -0.05569834 -0.05567562 -0.05565555 -0.05563757 -0.05561801 -0.05559687 -0.05557194 -0.05554412
 -0.05551419 -0.05548324 -0.05545362 -0.05542503 -0.05539841 -0.0553721 -0.05534513 -0.05531641 -0.05528471 -0.05525123
 -0.05521582 -0.05518109 -0.05514768 -0.05511679 -0.05508895 -0.05506226 -0.05503664 -0.05500968 -0.05498127 -0.05495152
 -0.0549206 -0.05489074 -0.05486194 -0.05483548 -0.0548109 -0.05478726 -0.05476431 -0.05474092 -0.05471752 -0.05469443
 -0.05467172 -0.05464989 -0.05462793 -0.05460526 -0.054581 -0.05455427 -0.05452567 -0.05449507 -0.05446382 -0.05443232
 -0.05440085 -0.05436955 -0.05433794 -0.05430597 -0.05427359 -0.05424078 -0.05420789 -0.0541749 -0.05414167 -0.05410809
 -0.05407354 -0.05403793 -0.0540008 -0.05396194 -0.05392063 -0.05387672 -0.05382947 -0.05377948 -0.05372672 -0.05367301
 -0.05361957 -0.05356816 -0.0535203 -0.05347588 -0.0534355 -0.05339728 -0.05336096 -0.05332457 -0.05328777 -0.05324934
 -0.05320911 -0.05316649 -0.05312144 -0.05307448 -0.05302576 -0.05297742 -0.05292974 -0.05288568 -0.05284525 -0.05281035
 -0.05278035 -0.05275487 -0.05273284 -0.05271223 -0.05269264 -0.05267259 -0.05265276 -0.05263301 -0.05261468 -0.05259863
 -0.05258515 -0.05257481 -0.05256648 -0.05256009 -0.05255413 -0.05254827 -0.0525421 -0.05253546 -0.05252904 -0.05252288
 -0.05251779 -0.05251374 -0.05251048 -0.05250786 -0.05250479 -0.05250125 -0.0524966 -0.05249118 -0.05248554 -0.05247993
 -0.05247543 -0.05247112 -0.0524666 -0.05246033 -0.05245068 -0.05243747 -0.05241958 -0.05239934 -0.05237717 -0.05235585
 -0.0523365 -0.05231901 -0.05230388 -0.05228803 -0.0522712 -0.05225113 -0.05222767 -0.0522016 -0.05217307 -0.05214443
 -0.05211573 -0.05208847 -0.05206229 -0.05203682 -0.05201161 -0.05198524 -0.05195779 -0.05192845 -0.05189823 -0.05186785
 -0.05183851 -0.05181183 -0.05178714 -0.05176507 -0.05174276 -0.05171929 -0.05169243 -0.05166098 -0.0516262 -0.05158785
 -0.05154915 -0.05151045 -0.05147366 -0.05143895 -0.05140554 -0.05137336 -0.05134107 -0.0513087 -0.05127576 -0.05124252
 -0.05120981 -0.05117762 -0.05114636 -0.05111577 -0.05108561 -0.05105548 -0.0510246 -0.05099324 -0.05096131 -0.05092922
 -0.05089732 -0.05086539 -0.05083354 -0.05080096 -0.05076742 -0.05073254 -0.05069613 -0.05065862 -0.05062001 -0.05058075
 -0.05054088 -0.05050065 -0.05046007 -0.05041952 -0.05037906 -0.05033924 -0.05030012 -0.05026221 -0.05022549 -0.05019036
 -0.05015641 -0.05012324 -0.05009021 -0.05005617 -0.05002139 -0.04998542 -0.04994952 -0.04991439 -0.0498806 -0.04984907
 -0.04981765 -0.04978605 -0.04975189 -0.04971445 -0.04967416 -0.04963081 -0.04958742 -0.0495442 -0.04950324 -0.04946451
 -0.04942722 -0.04939124 -0.04935515 -0.04931908 -0.04928277 -0.04924631 -0.04920986 -0.04917312 -0.04913551 -0.04909709
 -0.04905733 -0.04901751 -0.04897841 -0.04894147 -0.04890829 -0.04887783 -0.04885071 -0.04882307 -0.0487941 -0.04876025
 -0.04872037 -0.0486749 -0.04862346 -0.04857014 -0.04851518 -0.04846277 -0.04841297 -0.04836638 -0.0483226 -0.04827907
 -0.04823562 -0.04819007 -0.04814307 -0.04809522 -0.04804717 -0.04800062 -0.04795533 -0.04791182 -0.04786939 -0.04782759
 -0.04778596 -0.04774401 -0.04770184 -0.04765938 -0.04761681 -0.0475743 -0.04753135 -0.04748805 -0.04744289 -0.04739574
 -0.04734517 -0.04729101 -0.04723417 -0.04717479 -0.04711625 -0.04705884 -0.0470063 -0.04695845 -0.04691673 -0.04688017
 -0.04684718 -0.04681607 -0.04678288 -0.04674648 -0.04670316 -0.04665431 -0.04659913 -0.04654147 -0.04648342 -0.04642792
 -0.04637717 -0.04633079 -0.04628952 -0.04625063 -0.0462138 -0.04617642 -0.04613814 -0.04609711 -0.04605316 -0.0460056
 -0.04595448 -0.04590106 -0.04584557 -0.04579061 -0.04573625 -0.04568451 -0.0456346 -0.04558555 -0.04553616 -0.04548337
 -0.04542736 -0.04536654 -0.04530314 -0.04523863 -0.04517499 -0.04511434 -0.04505607 -0.0450005 -0.0449465 -0.0448936
 -0.04484198 -0.04479178 -0.0447422 -0.04469338 -0.0446425 -0.04458938 -0.04453194 -0.04447019 -0.04440566 -0.04433864
 -0.0442722 -0.04420647 -0.04414368 -0.04408368 -0.04402737 -0.04397395 -0.04392254 -0.04387176 -0.04381928 -0.04376422
 -0.04370453 -0.04364119 -0.04357409 -0.04350475 -0.04343382 -0.04336239 -0.04329083 -0.04322018 -0.0431507 -0.04308305
 -0.04301753 -0.04295283 -0.0428889 -0.04282343 -0.04275632 -0.04268695 -0.04261545 -0.04254275 -0.04246874 -0.04239364
 -0.04231697 -0.04223716 -0.04215433 -0.04206751 -0.04197829 -0.04188829 -0.04179943 -0.04171471 -0.04163345 -0.04155701
 -0.04148117 -0.04140455 -0.04132311 -0.04123468 -0.04114005 -0.04103859 -0.04093425 -0.04082765 -0.04072007 -0.04061186
 -0.04049931 -0.04038227 -0.0402571 -0.04012416 -0.0399854 -0.03984156 -0.03969769 -0.03955307 -0.03940877 -0.03926213
 -0.03910804 -0.03894477 -0.03876664 -0.03857596 -0.03837175 -0.03816025 -0.037945 -0.03773177 -0.03752466 -0.03732473
 -0.03713374 -0.03694873 -0.03676932 -0.03659339 -0.03642019 -0.03625255 -0.03609049 -0.03593979 -0.03580067 -0.03567488
 -0.03556199 -0.03545818 -0.03536308 -0.03527284 -0.03518734 -0.03510477 -0.03502393 -0.03494192 -0.03485643 -0.03476244
 -0.0346598 -0.03454535 -0.03442332 -0.03429553 -0.03416597 -0.03403798 -0.03390992 -0.0337826 -0.03365112 -0.03351453
 -0.03336943 -0.03321514 -0.0330506 -0.03287571 -0.03268922 -0.03249105 -0.03227778 -0.03204942 -0.03180446 -0.03154385
 -0.03127185 -0.03098886 -0.03069913 -0.03040082 -0.03009218 -0.02977104 -0.0294332 -0.02907795 -0.02870391 -0.02830815
 -0.02789041 -0.02744081 -0.0269557 -0.02642324 -0.02583688 -0.02519794 -0.02450239 -0.02377213 -0.02300826 -0.02224001
 -0.02146997 -0.02071796 -0.01998499 -0.01927728 -0.01859374 -0.01792599 -0.01727029 -0.01660271 -0.01591961 -0.01519296
 -0.01442934 -0.01362509 -0.01279927 -0.01198148 -0.01117997 -0.01041984 -0.009686812 -0.008979545 -0.00828056 -0.007578721
 -0.006870782 -0.006151856 -0.005428799 -0.00470229 -0.003978088 -0.003256765 -0.002544971 -0.001843057 -0.001160627 -0.0004981895
 0.0001391127 0.0007509227 0.001332808 0.00188259 0.00238573 0.002840294 0.00323066 0.003559481 0.003824777 0.004030454
 0.00418237 0.004281489 0.00432972 0.004331376 0.00428746 0.004210618 0.00410653 0.003987738 0.003860199 0.003729522
 0.003598551 0.003466859 0.003335171 0.003199266 0.003059123 0.002907148 0.002742911 0.002554855 0.002342334 0.002093636
 0.001809331 0.001486342 0.001126341 0.0007342299 0.0003095218 -0.0001460115 -0.0006346448 -0.001160515 -0.001721708 -0.002320539
 -0.002946015 -0.003592655 -0.004244956 -0.00489325 -0.005528487 -0.006145319 -0.006739859 -0.007311665 -0.007851 -0.008357129
 -0.008816178 -0.009226309 -0.009584763 -0.009891294 -0.01015583 -0.01037885 -0.01056926 -0.01072649 -0.01085138 -0.01094342
 -0.01100074 -0.01102448 -0.01101615 -0.0109775 -0.01091211 -0.01082089 -0.01070614 -0.01056843 -0.01040863 -0.01022796
 -0.01002707 -0.009807499 -0.00956969 -0.009315783 -0.009046064 -0.008763739 -0.0084693 -0.008165448 -0.00785266 -0.007530179
 -0.007197988 -0.006854251 -0.006498984 -0.006132132 -0.0057538 -0.00536428 -0.004964155 -0.00455437 -0.004138356 -0.003723861
 -0.003316186 -0.002928798 -0.002561678 -0.002220879 -0.001902352 -0.001603192 -0.001325514 -0.001068112 -0.0008390956 -0.0006418512
 -0.0004792269 -0.0003532479 -0.0002609093 -0.0002014753 -0.0001765462 -0.0001859332 -0.0002352988 -0.0003250266 -0.0004531266 -0.0006190733
 -0.0008139483 -0.001037823 -0.001286533 -0.001561254 -0.001864188 -0.00219636 -0.00256141 -0.002959752 -0.003393597 -0.003863328
 -0.004370708 -0.004914457 -0.005497124 -0.006107379 -0.00674386 -0.007381921 -0.008011442 -0.008617553 -0.009191558 -0.009742613
 -0.01027036 -0.01078845 -0.01129891 -0.01180253 -0.01229958 -0.01278268 -0.01325155 -0.01370132 -0.01413175 -0.01453948
 -0.01492322 -0.01527579 -0.01559674 -0.01587898 -0.01612843 -0.01634885 -0.01655468 -0.01676273 -0.01698998 -0.01725639
 -0.01757129 -0.01794736 -0.01838081 -0.01887483 -0.01941684 -0.02000653 -0.0206224 -0.02126426 -0.02189114 -0.02249978
 -0.02304589 -0.02352605 -0.02393436 -0.02427223 -0.02456669 -0.0248193 -0.0250538 -0.02526916 -0.02547363 -0.02566591
 -0.02584684 -0.02601567 -0.02617216 -0.02631421 -0.0264398 -0.02654536 -0.02662705 -0.02668298 -0.02671065 -0.02671047
 -0.02668218 -0.02662571 -0.02654125 -0.02642727 -0.0262835 -0.02610892 -0.02590332 -0.02566655 -0.02539854 -0.02510046
 -0.02477286 -0.02442524 -0.02405995 -0.02369879 -0.02334325 -0.02301261 -0.02270324 -0.02241584 -0.02214518 -0.02188107
 -0.02162287 -0.02136539 -0.02111002 -0.02085764 -0.02060503 -0.0203506 -0.02009146 -0.01982328 -0.01955643 -0.01929138
 -0.01904476 -0.01882133 -0.01862039 -0.01844363 -0.01827442 -0.01811174 -0.01794362 -0.01776998 -0.01759178 -0.01740999
 -0.01723253 -0.01705953 -0.01689628 -0.01674116 -0.01659311 -0.01644918 -0.01630394 -0.01615391 -0.01599276 -0.0158174
 -0.01562349 -0.01540745 -0.01516678 -0.01489619 -0.014593 -0.01425339 -0.01387454 -0.0134607 -0.01301099 -0.01253769
 -0.01204205 -0.01153395 -0.0110143 -0.01048423 -0.009943839 -0.009393212 -0.008834 -0.008278521 -0.007730068 -0.007209696
 -0.006719034 -0.006273068 -0.005872563 -0.005524282 -0.005232669 -0.005004873 -0.0048484 -0.004772805 -0.00478201 -0.004882912
 -0.005070641 -0.00534661 -0.005698467 -0.006124452 -0.006608014 -0.00714667 -0.007723313 -0.008336255 -0.008967831 -0.009616939
 -0.01026343 -0.01090627 -0.0115268 -0.012125 -0.01269188 -0.01322877 -0.01373694 -0.01421717 -0.01467273 -0.01510275
 -0.01550668 -0.01588454 -0.01623483 -0.01656156 -0.01686655 -0.01715753 -0.01743917 -0.01771945 -0.01800312 -0.01829421
 -0.01859565 -0.01890515 -0.01922331 -0.01954411 -0.01986694 -0.0201867 -0.02050297 -0.02081271 -0.02111566 -0.02140646
 -0.02168421 -0.02193876 -0.02216924 -0.02236556 -0.02252879 -0.02265611 -0.02275055 -0.02281642 -0.02285696 -0.02287816
 -0.02288271 -0.02287491 -0.02285742 -0.02283286 -0.02280394 -0.02277251 -0.02273994 -0.02270709 -0.02267412 -0.02264119
 -0.02260819 -0.02257507 -0.02254214 -0.02250943 -0.02247635 -0.02244281 -0.02240692 -0.02236864 -0.02232676 -0.02228159
 -0.02223393 -0.02218396 -0.02213289 -0.02208011 -0.02202491 -0.02196689 -0.02190484 -0.02183957 -0.02177114 -0.02170123
 -0.02163072 -0.02156158 -0.02149447 -0.0214324 -0.0213761 -0.02132929 -0.02129306 -0.0212685 -0.0212563 -0.02125292
 -0.02125824 -0.02126697 -0.0212789 -0.02129163 -0.02130542 -0.02132167 -0.02134046 -0.02136329 -0.02138924 -0.02141657
 -0.02144376 -0.02146664 -0.02148464 -0.02149481 -0.02149813 -0.02149441 -0.02148493 -0.02147072 -0.02145182 -0.02142845
 -0.0214006 -0.02136793 -0.02133218 -0.02129331 -0.02125489 -0.02121743 -0.02118329 -0.02115286 -0.02112446 -0.02109791
 -0.0210673 -0.02103223 -0.02098642 -0.02093011 -0.02086096 -0.02078021 -0.02069042 -0.02059284 -0.02049149 -0.02038678
 -0.02028117 -0.02017424 -0.02006648 -0.01995746 -0.01984679 -0.01973492 -0.01962177 -0.01950846 -0.01939531 -0.01928312
 -0.01917217 -0.0190626 -0.01895433 -0.01884888 -0.01874627 -0.01864917 -0.01855769 -0.01847296 -0.01839474 -0.01832082
 -0.01825088 -0.01818195 -0.01811425 -0.01804695 -0.01798034 -0.0179147 -0.01784999 -0.01778612 -0.01772358 -0.01766234
 -0.01760444 -0.01755101 -0.0175046 -0.01746673 -0.01743914 -0.01742291 -0.01741826 -0.01742566 -0.01744366 -0.01747237
 -0.01750854 -0.01755196 -0.01759937 -0.0176506 -0.01770496 -0.01776266 -0.01782599 -0.01789512 -0.01797228 -0.01805703
 -0.01814929 -0.01824808 -0.01835139 -0.01845798 -0.01856538 -0.018672 -0.01877538 -0.0188741 -0.01896622 -0.01905147
 -0.0191291 -0.01919972 -0.0192636 -0.01932022 -0.01936963 -0.01941064 -0.01944283 -0.01946737 -0.01948418 -0.01949725
 -0.01950679 -0.0195152 -0.01952229 -0.01952632 -0.0195269 -0.01952092 -0.01950857 -0.01948897 -0.01946239 -0.01942913
 -0.01938891 -0.01934155 -0.01928641 -0.0192229 -0.01915006 -0.01906739 -0.01897296 -0.01886589 -0.01874397 -0.01860625
 -0.01845135 -0.01827882 -0.01808782 -0.01787827 -0.01764883 -0.01739929 -0.0171293 -0.01683883 -0.01653153 -0.01620794
 -0.01587558 -0.01553521 -0.01519495 -0.01485507 -0.01452088 -0.01419201 -0.01387037 -0.01355515 -0.0132459 -0.01294198
 -0.01264251 -0.01234696 -0.01205447 -0.01176535 -0.0114791 -0.01119786 -0.01092182 -0.0106547 -0.01039747 -0.01015251
 -0.009920687 -0.009700374 -0.009491695 -0.009290267 -0.009095852 -0.008904781 -0.008717027 -0.008531333 -0.008348025 -0.008168424
 -0.007992839 -0.007823628 -0.007659643 -0.007500259 -0.007341976 -0.007178999 -0.007008081 -0.00682216 -0.006622977 -0.006408264
 -0.00618478 -0.005955741 -0.005725458 -0.005497526 -0.005268282 -0.005038069 -0.004800016 -0.004552649 -0.004294396 -0.004024548
 -0.003748377 -0.003466149 -0.003182469 -0.002897212 -0.002609181 -0.002318016 -0.002020284 -0.001717009 -0.001409523 -0.001100436
 -0.0007965911 -0.0005003212 -0.0002185007 4.740437E-05 0.0002933432 0.0005178006 0.0007182924 0.0008939845 0.001042776 0.00116819
 0.00126993 0.001355974 0.001427732 0.001493794 0.001555682 0.00161953 0.001686028 0.001760082 0.001842004 0.001936696
 0.002044395 0.002169378 0.002311697 0.002474097 0.002656036 0.002857704 0.003076901 0.003309208 0.003550462 0.003792328
 0.004029733 0.004253847 0.004460119 0.004642433 0.004796741 0.004919655 0.005007194 0.005057205 0.005066892 0.005034561
 0.004961719 0.004847323 0.004700416 0.004520999 0.004326208 0.004116996 0.003912489 0.00371328 0.003530674 0.003363816
 0.003212494 0.003075636 0.002948455 0.002831708 0.002724612 0.002629029 0.002548427 0.00248263 0.002433653 0.002398311
 0.002374939 0.002359894 0.002350669 0.002344863 0.002341446 0.002337154 0.002331629 0.002319021 0.002298404 0.002264631
 0.002216743 0.002154996 0.002079252 0.001995067 0.001902792 0.0018089 0.001713536 0.001621 0.001530829 0.001443871
 0.001358749 0.001272814 0.001183756 0.001086132 0.0009786717 0.0008567893 0.0007226089 0.0005758145 0.0004204451 0.0002593881
 9.326463E-05 -7.562932E-05 -0.0002534393 -0.0004407229 -0.0006458995 -0.0008708203 -0.001119249 -0.00139212 -0.001687762 -0.002006148
 -0.00234479 -0.002703555 -0.003080563 -0.003475123 -0.003881875 -0.004299006 -0.004716224 -0.005132035 -0.005536737 -0.00593094
 -0.006311059 -0.006678832 -0.007035436 -0.007381127 -0.007717121 -0.008041469 -0.008353626 -0.008650998 -0.008932204 -0.009196338
 -0.009442387 -0.009672604 -0.00988678 -0.01009 -0.01028272 -0.01046963 -0.01065111 -0.01082932 -0.01100434 -0.01117732
 -0.0113483 -0.01151837 -0.01168699 -0.01185282 -0.01201456 -0.01216781 -0.01231198 -0.01244324 -0.01256346 -0.01267313
 -0.01277524 -0.01287281 -0.01296741 -0.0130612 -0.0131537 -0.01324503 -0.01333529 -0.01342406 -0.01351392 -0.01360499
 -0.01370132 -0.01380365 -0.01391248 -0.01402811 -0.01414392 -0.01425944 -0.01436438 -0.01445847 -0.01453474 -0.014594
 -0.0146358 -0.01466186 -0.01467629 -0.01468147 -0.01468364 -0.01468482 -0.01469079 -0.01470092 -0.01471781 -0.01473647
 -0.014755 -0.01476775 -0.01477114 -0.01476444 -0.01474597 -0.01471998 -0.01468707 -0.01465024 -0.01461041 -0.01456446
 -0.01451233 -0.01444834 -0.0143724 -0.01428513 -0.01418764 -0.01408952 -0.01399195 -0.01390608 -0.0138309 -0.01377002
 -0.0137202 -0.01367686 -0.01363729 -0.01359544 -0.01355137 -0.01350236 -0.0134512 -0.01339861 -0.01334791 -0.01330092
 -0.01325908 -0.01322365 -0.01319302 -0.01316759 -0.01314257 -0.01311769 -0.01308642 -0.01304827 -0.01299817 -0.01293604
 -0.01286297 -0.01277978 -0.01269405 -0.01260643 -0.01252438 -0.01244697 -0.01237552 -0.0123084 -0.01224256 -0.01217789
 -0.01211286 -0.01204811 -0.01198419 -0.01192013 -0.01185575 -0.01178908 -0.01171865 -0.01164527 -0.01156822 -0.01149163
 -0.01141609 -0.01134557 -0.0112809 -0.01122231 -0.01117002 -0.01112094 -0.01107494 -0.01102931 -0.01098408 -0.01093848
 -0.01089235 -0.01084496 -0.01079517 -0.01073911 -0.01067601 -0.0106016 -0.01051797 -0.01042527 -0.01032847 -0.0102325
 -0.01014089 -0.01005819 -0.00998379 -0.00991891 -0.009860763 -0.00980866 -0.0097608 -0.009716728 -0.009675262 -0.009636427
 -0.009597352 -0.009557928 -0.009513546 -0.009463966 -0.009405102 -0.00933692 -0.009257245 -0.009166672 -0.009066571 -0.008958398
 -0.008847208 -0.008734444 -0.008625804 -0.008521352 -0.00842375 -0.008332154 -0.008246016 -0.008166643 -0.008094144 -0.008031784
 -0.007981705 -0.00794383 -0.007919746 -0.007903253 -0.007893811 -0.007883509 -0.007871144 -0.007851968 -0.007825476 -0.007788891
 -0.007742065 -0.007683178 -0.007612615 -0.007533183 -0.007446202 -0.007360105 -0.00727554 -0.007199611 -0.007130768 -0.007069367
 -0.007013155 -0.006958758 -0.006905123 -0.00685011 -0.006792708 -0.00673181 -0.006666013 -0.006593758 -0.006516647 -0.006433866
 -0.006351779 -0.006271593 -0.006198387 -0.006133721 -0.006074647 -0.00602131 -0.005966137 -0.005908782 -0.005845909 -0.005777813
 -0.005706883 -0.00563316 -0.005558413 -0.005481665 -0.005400469 -0.005314304 -0.005220261 -0.005119744 -0.00501302 -0.004903186
 -0.004793271 -0.004686571 -0.00458669 -0.004494564 -0.004412482 -0.004336915 -0.00426824 -0.004198398 -0.004125827 -0.004043593
 -0.00394984 -0.003845479 -0.003729882 -0.003613388 -0.003496567 -0.003394248 -0.003306655 -0.003241884 -0.003197985 -0.003168931
 -0.003151787 -0.003132871 -0.003112083 -0.003081455 -0.003044744 -0.003004713 -0.002963537 -0.002925994 -0.00288881 -0.002851519
 -0.002809579 -0.002759787 -0.002702221 -0.002635643 -0.002563502 -0.002486404 -0.002406733 -0.002324765 -0.002243172 -0.002162014
 -0.002086678 -0.002017448 -0.001957256 -0.001905536 -0.001856335 -0.001808397 -0.001750868 -0.001684298 -0.001603933 -0.00151306
 -0.001416634 -0.001317991 -0.001224962 -0.001138436 -0.001062905 -0.0009965121 -0.0009400226 -0.0008890192 -0.0008422736 -0.000793261
 -0.0007398524 -0.0006757185 -0.0005986631 -0.0005065405 -0.0003979314 -0.0002781972 -0.0001471933 -1.69515E-05 0.0001118719 0.0002278669
 0.0003311334 0.0004196342 0.0004950889 0.0005663588 0.0006353208 0.0007138161 0.0008014289 0.0009039872 0.001017942 0.00114113
 0.001267651 0.001390894 0.001504037 0.001599769 0.001673728 0.001720451 0.001742793 0.001738845 0.001719547 0.001686037
 0.001652973 0.001622586 0.001606636 0.001606692 0.001627494 0.001669421 0.001728322 0.001803444 0.00188351 0.001967558
 0.002043508 0.002112027 0.002168297 0.002215302 0.002257822 0.002298236 0.002343526 0.002392336 0.002445732 0.00250224
 0.002558989 0.00262188 0.002692243 0.002779087 0.002889407 0.003014194 0.003157453 0.003282264 0.00338194 0.003438671
 0.003446962 0.003439814 0.00341882 0.003417781 0.003436433 0.003475863 0.003532855 0.003586857 0.003637163 0.00366875
 0.003686345 0.00369378 0.003696282 0.003705722 0.003721659 0.003749551 0.003783633 0.003821267 0.003856893 0.00388543
 0.003908342 0.003923218 0.003940274 0.00396114 0.003996611 0.004049851 0.004119601 0.0042072 0.004295874 0.004384784
 0.004453044 0.004500188 0.0045163 0.004502854 0.004463932 0.004402352 0.004330039 0.004250902 0.004180077 0.00412159
 0.004090913 0.004085403 0.004111907 0.004154814 0.004204437 0.004245508 0.004262947 0.004262097 0.004239318 0.004211498
 0.004183455 0.004161441 0.004147821 0.0041407 0.004139502 0.004150284 0.004173327 0.004218034 0.004284151 0.004367931
 0.004467373 0.004566521 0.004664511 0.004748965 0.004821425 0.004878784 0.004924878 0.004964127 0.005002094 0.005047524
 0.005103654 0.005177563 0.005265829 0.005369355 0.005481193 0.005598479 0.005717736 0.005837415 0.005956372 0.006074856
 0.006187432 0.006293701 0.006387488 0.006468273 0.00653643 0.006592186 0.006640316 0.006680867 0.006716011 0.006746104
 0.006772974 0.006798665 0.006829761 0.006867299 0.006917784 0.006976974 0.007042788 0.007109463 0.007169619 0.007225035
 0.007273354 0.007322057 0.007375161 0.007431681 0.007494346 0.007549456 0.007594934 0.007620326 0.007622962 0.007610688
 0.007583567 0.00756012 0.007540906 0.007535782 0.007543096 0.007555558 0.007570396 0.007571695 0.007558979 0.007521139
 0.007463146 0.007387534 0.007302982 0.007222497 0.007149677 0.007094931 0.007050152 0.007014241 0.006976707 0.006930384
 0.006879288 0.006821278 0.006771063 0.00673255 0.00670631 0.0066948 0.006675204 0.006646254 0.006585178 0.006491719
 0.006366423 0.006211398 0.006043346 0.005863674 0.005686427 0.005513136 0.005353677 0.005212552 0.005103385 0.005027887
 0.004997884 0.005001254 0.005035111 0.005076068 0.005108353 0.00511758 0.005090349 0.005034713 0.004947768 0.004851446
 0.004749253 0.004658637 0.004583052 0.004523538 0.004480815 0.004440935 0.00440369</values></Ydata></AB><ScSm><Ydata ylabel="Single channel"><values byteorder="INTEL" format="FLOAT32" numvalues="1814"> 0.08481339 0.0849223 0.08504295 0.08518393 0.08534165 0.08550218 0.08564932 0.08577639 0.0858878 0.0859878
 0.08607813 0.08617124 0.08629011 0.08644424 0.08661429 0.08676652 0.08687985 0.08696406 0.08705653 0.08718823
 0.0873429 0.08745857 0.0874827 0.08742668 0.08736011 0.08734906 0.08741201 0.0875513 0.08779353 0.08812697
 0.08841128 0.08846657 0.08829769 0.08812839 0.08815418 0.08834606 0.08853966 0.08861725 0.08855584 0.08841338
 0.08835126 0.08858271 0.08918002 0.08991799 0.09034405 0.09003986 0.0888997 0.0872805 0.08591633 0.08553565
 0.08633691 0.08776736 0.08893521 0.08932832 0.08909393 0.08866054 0.08829048 0.08806957 0.08810382 0.08850428
 0.08920494 0.08988762 0.0901053 0.0895768 0.0885058 0.08754262 0.08725242 0.0876769 0.08853544 0.08956432
 0.09026432 0.08964828 0.08711621 0.08378142 0.08212276 0.08369421 0.08749792 0.0910213 0.09252553 0.09196652
 0.09026542 0.08849495 0.08759624 0.08805951 0.08960529 0.09146138 0.09297509 0.09378519 0.0936598 0.09260848
 0.09110069 0.08986491 0.08947883 0.09020045 0.09186874 0.0937476 0.09481761 0.09457581 0.09341302 0.09211025
 0.0912655 0.09126388 0.09230534 0.09416723 0.09622522 0.09791461 0.0990252 0.09957753 0.09968197 0.09951448
 0.09923132 0.09894815 0.09885897 0.09913576 0.09958979 0.09971192 0.09924024 0.09851634 0.09813915 0.09834737
 0.09881587 0.09904829 0.09886813 0.09832427 0.09718641 0.09505871 0.09219421 0.08962076 0.08813827 0.08775812
 0.08835578 0.09000987 0.0922129 0.09363163 0.09344897 0.09246819 0.0922461 0.09341031 0.09526446 0.09679952
 0.09767285 0.09826316 0.09907784 0.1001805 0.1010494 0.1009649 0.09974747 0.09821453 0.09763896 0.09851721
 0.1000837 0.1012484 0.1017398 0.1020687 0.1026249 0.1031121 0.1028089 0.1013447 0.09934565 0.09821311
 0.09896779 0.1012393 0.1034622 0.1040588 0.1025587 0.09985098 0.09744072 0.09636839 0.09680441 0.09848057
 0.1010646 0.1039991 0.1064095 0.1075459 0.107301 0.1061932 0.1047999 0.1032175 0.1012665 0.09933138
 0.09858303 0.09988458 0.1026826 0.1054478 0.107087 0.1075492 0.1072028 0.1060959 0.1040563 0.1014535
 0.09953889 0.09951691 0.1011726 0.1029267 0.1035142 0.1031678 0.1028974 0.1031127 0.1034021 0.103377
 0.1032521 0.103537 0.104383 0.1053883 0.1060224 0.1061139 0.1058863 0.1056449 0.1054868 0.1052439
 0.1047396 0.1041787 0.104131 0.1049306 0.1062282 0.1073437 0.1079378 0.1081461 0.1081661 0.1079234
 0.1072012 0.1060652 0.1050677 0.1048543 0.105536 0.1066062 0.1074799 0.1079293 0.1080222 0.1079006
 0.1076858 0.1074494 0.1072283 0.1071058 0.1071969 0.1074929 0.1078197 0.1080113 0.1080445 0.1079721
 0.1078124 0.1075568 0.1072433 0.1069775 0.1068657 0.1069308 0.1071068 0.1073076 0.1074648 0.1075167
 0.1074288 0.1072395 0.1070359 0.1068748 0.10676 0.1066907 0.1066848 0.1067445 0.1068286 0.1068808
 0.1068763 0.1068275 0.1067514 0.1066532 0.106541 0.1064381 0.1063736 0.1063626 0.1063927 0.1064311
 0.1064615 0.1065042 0.106573 0.1066281 0.1066113 0.1065212 0.1064182 0.1063597 0.1063568 0.1063857
 0.1064138 0.10641 0.1063491 0.1062283 0.1060908 0.1060143 0.106052 0.1061918 0.1063841 0.106586
 0.1067632 0.1068867 0.1069554 0.1070001 0.1070447 0.1070834 0.1071045 0.107119 0.1071612 0.1072625
 0.1074209 0.1075945 0.1077369 0.107832 0.1078911 0.1079402 0.1080158 0.1081358 0.1082642 0.1083394
 0.1083533 0.1083673 0.1084358 0.1085432 0.1086297 0.1086622 0.1086647 0.1086854 0.1087471 0.1088323
 0.1089136 0.1089855 0.1090655 0.1091652 0.1092623 0.1093098 0.1092821 0.1092097 0.1091507 0.1091321
 0.1091384 0.1091525 0.1091804 0.1092283 0.1092781 0.1093002 0.1092849 0.1092535 0.1092332 0.109224
 0.1091989 0.1091364 0.1090445 0.1089499 0.1088734 0.1088182 0.1087718 0.1087161 0.1086381 0.1085359
 0.1084172 0.1082914 0.1081642 0.1080398 0.1079325 0.1078646 0.1078376 0.1078066 0.1077061 0.1075125
 0.1072705 0.1070505 0.1068885 0.1067683 0.1066504 0.1065091 0.106347 0.1061847 0.1060404 0.1059187
 0.1058139 0.10572 0.1056419 0.1055966 0.105598 0.1056326 0.1056575 0.1056358 0.105573 0.1055088
 0.1054763 0.1054788 0.1055004 0.1055262 0.1055559 0.1056025 0.1056747 0.1057578 0.1058231 0.1058617
 0.1058968 0.1059592 0.1060631 0.1062045 0.1063642 0.1065101 0.1066163 0.1066913 0.1067719 0.1068857
 0.1070289 0.1071845 0.1073481 0.1075263 0.107721 0.1079267 0.1081422 0.1083754 0.1086338 0.1089137
 0.1091991 0.1094735 0.1097341 0.1099967 0.110285 0.1106106 0.1109636 0.1113214 0.1116678 0.1120028
 0.1123379 0.1126814 0.1130317 0.1133851 0.1137466 0.114125 0.1145205 0.1149216 0.1153185 0.1157105
 0.1161025 0.1164967 0.1168917 0.1172892 0.1176983 0.1181299 0.1185783 0.1190141 0.1194055 0.1197504
 0.1200807 0.1204341 0.1208256 0.1212396 0.1216412 0.1220013 0.1223224 0.1226373 0.1229742 0.1233287
 0.12368 0.124028 0.1243977 0.1248034 0.1252197 0.125596 0.1259024 0.1261594 0.126416 0.1267002
 0.1269952 0.1272699 0.1275194 0.1277651 0.1280228 0.1282904 0.1285669 0.1288655 0.1291937 0.1295318
 0.1298464 0.1301229 0.1303743 0.1306193 0.1308604 0.1310841 0.131278 0.1314477 0.131618 0.1318125
 0.1320302 0.1322514 0.1324659 0.1326862 0.1329282 0.1331942 0.1334818 0.1337949 0.1341329 0.1344777
 0.1348102 0.1351388 0.1354919 0.1358729 0.1362412 0.1365536 0.1368115 0.1370511 0.1372981 0.1375564
 0.1378332 0.1381469 0.1385044 0.1388873 0.1392662 0.1396234 0.1399648 0.1403142 0.1406888 0.1410728
 0.1414255 0.1417206 0.141972 0.1422179 0.1424895 0.1427945 0.1431202 0.1434437 0.1437443 0.1440066
 0.144215 0.1443557 0.1444307 0.1444629 0.1444701 0.1444391 0.1443322 0.1441189 0.1437896 0.1433419
 0.142766 0.1420557 0.141235 0.1403745 0.1395811 0.1389666 0.1386154 0.1385674 0.1388186 0.1393256
 0.1400073 0.1407539 0.1414477 0.141984 0.1422811 0.1422883 0.1419972 0.1414455 0.1407 0.1398338
 0.1389147 0.1379977 0.1371221 0.1363301 0.1357016 0.1353669 0.1354706 0.1361158 0.1373272 0.1390314
 0.1410539 0.143155 0.1451169 0.1468244 0.148276 0.1495266 0.1506328 0.1516385 0.1525823 0.1534906
 0.1543663 0.1551965 0.1559718 0.1566913 0.1573511 0.1579362 0.1584275 0.1588113 0.1590847 0.1592612
 0.159368 0.1594359 0.1594901 0.1595505 0.1596231 0.1596811 0.1596635 0.1595045 0.1591718 0.1586872
 0.1581302 0.1576419 0.1574184 0.1576663 0.1585155 0.1599373 0.1617397 0.1636573 0.1654646 0.167031
 0.1683113 0.1693203 0.1701145 0.1707667 0.1713366 0.1718592 0.172352 0.1728239 0.1732793 0.1737222
 0.1741565 0.1745847 0.1750085 0.1754302 0.1758498 0.1762621 0.1766633 0.1770601 0.1774674 0.1778951
 0.1783369 0.1787764 0.1792052 0.1796307 0.1800618 0.1804919 0.1809044 0.1812938 0.1816718 0.1820549
 0.1824528 0.1828659 0.1832853 0.183694 0.1840785 0.1844389 0.1847864 0.1851309 0.185476 0.1858232
 0.1861743 0.1865281 0.1868789 0.1872213 0.1875557 0.1878879 0.1882202 0.188547 0.1888614 0.189164
 0.1894627 0.1897648 0.1900712 0.1903793 0.1906886 0.191003 0.1913262 0.1916556 0.191982 0.1922967
 0.1925975 0.1928888 0.1931773 0.1934692 0.1937677 0.1940718 0.194378 0.1946832 0.1949882 0.1952953
 0.1956045 0.1959112 0.1962101 0.1965011 0.1967891 0.1970791 0.1973726 0.1976697 0.197969 0.1982681
 0.1985647 0.1988575 0.1991466 0.1994324 0.1997162 0.1999983 0.2002782 0.2005551 0.2008298 0.2011043
 0.2013817 0.2016651 0.2019549 0.202248 0.2025414 0.2028346 0.2031278 0.2034188 0.2037051 0.2039864
 0.2042642 0.2045412 0.20482 0.2051013 0.205384 0.2056675 0.2059505 0.2062303 0.2065046 0.2067741
 0.2070415 0.2073106 0.2075847 0.2078641 0.2081451 0.208424 0.2087004 0.2089729 0.2092392 0.2095014
 0.2097658 0.2100363 0.2103116 0.2105871 0.2108594 0.2111288 0.2113985 0.2116696 0.2119385 0.212203
 0.2124667 0.2127344 0.2130059 0.2132767 0.2135433 0.2138065 0.2140715 0.2143425 0.2146163 0.2148863
 0.2151514 0.2154161 0.2156827 0.2159498 0.2162163 0.2164837 0.2167554 0.2170345 0.2173191 0.2176016
 0.2178775 0.2181496 0.2184236 0.2187022 0.2189862 0.219273 0.2195565 0.2198335 0.2201092 0.2203912
 0.2206814 0.220975 0.2212633 0.2215397 0.221806 0.2220687 0.222331 0.2225914 0.22285 0.2231065
 0.2233584 0.2236066 0.2238566 0.2241111 0.2243696 0.2246335 0.224904 0.2251783 0.225454 0.2257325
 0.2260135 0.2262946 0.2265766 0.2268604 0.2271437 0.2274261 0.2277112 0.228 0.22829 0.2285808
 0.2288718 0.229161 0.2294491 0.2297395 0.2300312 0.2303227 0.2306168 0.2309138 0.2312082 0.2314988
 0.2317917 0.2320881 0.2323845 0.2326807 0.2329781 0.233276 0.2335766 0.2338825 0.2341879 0.2344866
 0.2347818 0.2350769 0.2353685 0.2356578 0.2359531 0.2362566 0.2365638 0.2368733 0.2371816 0.2374822
 0.2377755 0.2380674 0.2383577 0.2386456 0.2389372 0.2392322 0.2395215 0.2398041 0.2400862 0.2403612
 0.2406049 0.2407594 0.2406728 0.2400319 0.2383213 0.2348277 0.2287733 0.2196225 0.2074029 0.1928046
 0.1769926 0.1612425 0.1465913 0.1336921 0.122892 0.1143679 0.108224 0.1045801 0.1036411 0.1057904
 0.1117135 0.1219893 0.1356023 0.1486638 0.155871 0.1545191 0.1469498 0.1384268 0.1328554 0.1308709
 0.1311615 0.1324241 0.1341375 0.1364227 0.1395949 0.1436951 0.1484425 0.1536894 0.1596879 0.1666974
 0.1744774 0.1823756 0.1898759 0.1969298 0.2037633 0.210474 0.2168803 0.222696 0.2277503 0.2320417
 0.2356813 0.238826 0.2416162 0.2441411 0.2464584 0.2486052 0.2505524 0.2521778 0.2533367 0.2539797
 0.2542114 0.2542397 0.254259 0.2543654 0.2545698 0.2548594 0.2552263 0.2556606 0.2561533 0.2566982
 0.2572798 0.2578745 0.2584656 0.2590437 0.2595994 0.2601289 0.2606354 0.2611189 0.2615747 0.262005
 0.2624167 0.262814 0.2632008 0.2635824 0.2639586 0.2643248 0.2646818 0.2650324 0.2653731 0.2656983
 0.2660066 0.2662974 0.266571 0.2668345 0.2670963 0.2673573 0.2676157 0.2678713 0.2681237 0.2683721
 0.2686197 0.2688691 0.2691168 0.2693589 0.2695979 0.2698369 0.2700767 0.2703173 0.2705579 0.2707971
 0.2710367 0.2712797 0.2715239 0.2717641 0.2720009 0.2722404 0.2724877 0.2727447 0.2730098 0.2732772
 0.273543 0.2738102 0.2740825 0.2743577 0.2746336 0.2749129 0.2751967 0.2754817 0.2757647 0.2760441
 0.2763147 0.2765688 0.2768023 0.2770184 0.2772279 0.2774448 0.277676 0.2779173 0.2781599 0.2784001
 0.2786398 0.2788828 0.279131 0.279381 0.2796293 0.2798817 0.2801492 0.2804327 0.2807229 0.2810139
 0.2813063 0.2815982 0.2818871 0.2821754 0.2824647 0.2827487 0.2830195 0.2832801 0.2835467 0.2838375
 0.2841563 0.2844846 0.2847981 0.2850905 0.2853739 0.2856634 0.2859671 0.2862789 0.2865703 0.2868109
 0.2870154 0.28725 0.2875727 0.2879768 0.2884063 0.2888128 0.2891861 0.2895409 0.2898888 0.2902252
 0.2905354 0.2908112 0.2910686 0.2913511 0.2917011 0.2921164 0.2925469 0.2929452 0.2933035 0.2936339
 0.2939446 0.2942414 0.2945167 0.2947288 0.294845 0.2949252 0.2951126 0.2954992 0.2960253 0.2965415
 0.2969559 0.2972908 0.2976066 0.2979227 0.298223 0.2984741 0.2985964 0.2985048 0.2982685 0.2981646
 0.2984552 0.2991233 0.2999068 0.3005638 0.3010303 0.3013651 0.3016421 0.3019029 0.3021308 0.3022497
 0.3022062 0.3020918 0.3021313 0.3024783 0.3030422 0.3035863 0.3039758 0.3042563 0.3045251 0.3048213
 0.3051008 0.3052176 0.3049904 0.3044477 0.3039871 0.3041155 0.3049613 0.30613 0.3070992 0.3076814
 0.3080274 0.3082644 0.3083054 0.3080126 0.3073713 0.3064929 0.3056599 0.3053718 0.306019 0.3073785
 0.3087054 0.3094793 0.3098518 0.3102661 0.3108827 0.3115134 0.3119285 0.3120633 0.311979 0.311726
 0.3113174 0.3108853 0.3107747 0.3112986 0.3123721 0.3135317 0.3143726 0.3148691 0.3151886 0.3152177
 0.3144379 0.3125399 0.3102323 0.3090655 0.3100542 0.3126099 0.3151796 0.3167807 0.3175406 0.3179725
 0.3183048 0.3184168 0.3178242 0.3158386 0.3125034 0.3094157 0.3087593 0.3111531 0.3149584 0.3178656
 0.3186593 0.3174703 0.3151891 0.3130534 0.3122082 0.3130856 0.315223 0.3177358 0.3198485 0.3211057
 0.3214037 0.3209515 0.3201848 0.3196461 0.3196406 0.3197821 0.3192374 0.3178083 0.3163157 0.3153366
 0.3141462 0.311901 0.3095139 0.309088 0.3113155 0.3144805 0.3164504 0.3168575 0.316716 0.3163702
 0.3146579 0.3104422 0.3047204 0.3005965 0.3006261 0.3042613 0.3083888 0.3103853 0.3101937 0.3094413
 0.3091598 0.3087035 0.3067302 0.3031127 0.2996891 0.2986223 0.2999788 0.3016316 0.301613 0.2994986
 0.2953891 0.2894085 0.2833101 0.2808149 0.2843281 0.2919412 0.299113 0.302587 0.301416 0.2956196
 0.2865087 0.2780747 0.2751954 0.2791393 0.2860835 0.2908089 0.2908145 0.2864315 0.2786915 0.2688583
 0.259518 0.2542713 0.2554367 0.2621864 0.2707237 0.2759534 0.2740839 0.2656438 0.2562143 0.2522298
 0.2549492 0.2596396 0.2611547 0.2587772 0.2551549 0.2526808 0.2521631 0.2532903 0.2549964 0.2563013
 0.2570726 0.2566489 0.2524356 0.242795 0.2313858 0.2252291 0.2274537 0.2347648 0.2427887 0.2504568
 0.2575575 0.2615927 0.2604399 0.2565747 0.2554947 0.2598656 0.2669892 0.2722518 0.2738111 0.2733462
 0.2729831 0.2727213 0.271524 0.2701275 0.2710795 0.2755444 0.2814637 0.2857851 0.2875265 0.2877745
 0.2876341 0.2873024 0.2866353 0.2856033 0.284255 0.2827393 0.2812881 0.2799676 0.278636 0.2772315
 0.2756973 0.2733625 0.2690023 0.2624381 0.2558963 0.2524749 0.2529058 0.255105 0.2571836 0.2588284
 0.258795 0.2538649 0.2430576 0.2314166 0.2265427 0.2312479 0.241316 0.2502345 0.2543405 0.253274
 0.2477728 0.2393293 0.2317705 0.2306033 0.2387603 0.2535228 0.2689663 0.2809757 0.2887996 0.292744
 0.2926069 0.2888812 0.2840926 0.281805 0.2841896 0.2906228 0.2981886 0.3030193 0.3019646 0.2951975
 0.2879951 0.2875344 0.2957056 0.3065286 0.3127316 0.3133793 0.3127816 0.3136935 0.3149667 0.315328
 0.3160301 0.3187314 0.3227577 0.3256584 0.3254005 0.3212271 0.3136438 0.3050011 0.2991196 0.2982864
 0.3007559 0.3027675 0.3024105 0.2996803 0.2941233 0.2858371 0.2784057 0.2769876 0.2824576 0.2900834
 0.2949185 0.2964092 0.2968742 0.2973294 0.2962979 0.2922946 0.2864617 0.2820697 0.2812973 0.2831593
 0.2850927 0.2857179 0.2850605 0.2829592 0.2790541 0.2744603 0.2719198 0.273384 0.2779494 0.2827628
 0.2856683 0.2865426 0.286451 0.2863066 0.2863833 0.2864818 0.2863772 0.2864457 0.2877053 0.2906891
 0.2944486 0.2973911 0.2990987 0.3006636 0.3031451 0.3062743 0.3088782 0.310196 0.3105638 0.3110105
 0.3123395 0.3144722 0.3165199 0.3175546 0.3175024 0.3173141 0.3181009 0.3200669 0.3224229 0.3242978
 0.3254789 0.3262823 0.3270456 0.3278468 0.3284752 0.3286108 0.328253 0.3279775 0.3285107 0.3299768
 0.3317515 0.3330922 0.3337437 0.3339039 0.3338095 0.3335102 0.3329836 0.3323207 0.331731 0.3313832
 0.3312878 0.3313364 0.3314171 0.3314762 0.3315098 0.331545 0.3316196 0.3317495 0.3319187 0.3321055
 0.3322956 0.332464 0.3325781 0.3326393 0.3326871 0.3327359 0.3327299 0.3325795 0.3322193 0.3316142
 0.3307333 0.3295453 0.3280289 0.3261595 0.3239102 0.3213477 0.3188024 0.3169099 0.3163505 0.3174148
 0.3197705 0.3226489 0.3252854 0.3272527 0.3284991 0.3291823 0.3294951 0.3295847 0.329544 0.3294222
 0.3292407 0.3290122 0.3287491 0.3284631 0.3281714 0.3279029 0.3276877 0.327534 0.3274178 0.3272928
 0.3271096 0.3268338 0.326455 0.3259813 0.3254237 0.3247821 0.3240407 0.3231792 0.3221983 0.3211374
 0.3200617 0.3190254 0.3180389 0.3170673 0.31606 0.3149711 0.3137435 0.3123001 0.3106142 0.3088056
 0.3071068 0.3056773 0.304466 0.3032821 0.3019734 0.3005062 0.2989157 0.2972437 0.2955246 0.2937856
 0.292038 0.2902732 0.28847 0.2866032 0.2846555 0.2826283 0.2805372 0.2784008 0.2762366 0.2740569
 0.2718406 0.269502 0.2668966 0.2638655 0.2602777 0.2560485 0.2511507 0.2456413 0.2396788 0.2334971
 0.227341 0.2214147 0.2158743 0.2108506 0.2064633 0.2028177 0.1999934 0.1980393 0.1969763 0.1968015
 0.1974912 0.1989957 0.2012302 0.2040665 0.2073357 0.2108413 0.2143761 0.2177497 0.2208372 0.2236233
 0.2261874 0.2286222 0.2309597 0.2331733 0.2352281 0.2371082 0.2388014 0.2402844 0.2415369 0.2425658
 0.2434108 0.244122 0.2447336 0.2452534 0.245672 0.2459835 0.2462015 0.2463609 0.2465078 0.2466849
 0.2469193 0.2472168 0.2475688 0.2479689 0.2484246 0.2489552 0.2495819 0.2503145 0.251141 0.2520325
 0.2529683 0.2539597 0.2550498 0.2562962 0.2577487 0.2594325 0.2613384 0.2634211 0.2655968 0.2677453
 0.2697342 0.271458 0.2728628 0.2739394 0.2747014 0.2751719 0.2753827 0.2753772 0.2752021 0.2748904
 0.274461 0.2739337 0.2733355 0.2726816 0.2719618 0.271157 0.2702709 0.2693403 0.2684118 0.2675119
 0.2666422 0.2657976 0.2649804 0.2641925 0.2634261 0.2626704 0.2619194 0.2611743 0.260443 0.2597378
 0.2590624 0.2583983 0.2577018 0.2569149 0.2559865 0.2548898 0.2536201 0.2521781 0.2505666 0.2488019
 0.2469138 0.244931 0.2428713 0.2407428 0.2385473 0.2362819 0.2339366 0.2314982 0.2289766 0.2264336
 0.2239654 0.2216477 0.2195036 0.2175185 0.2156662 0.2139206 0.2122614 0.210675 0.2091506 0.2076822
 0.2062724 0.2049255 0.2036434 0.202433 0.2013084 0.2002818 0.1993636 0.1985648 0.1978847 0.1973046
 0.1967998 0.196355 0.1959755 0.1956968 0.1955643 0.1955789 0.1956687 0.195734 0.1957126 0.1956051
 0.1954549 0.1953114 0.1951986 0.1951155 0.1950489 0.1949598 0.1947663 0.1943659 0.1936713 0.1926169
 0.1911631 0.1893228 0.1871751 0.1848537 0.1825256 0.1803577 0.1784734 0.1769365 0.1757603 0.1748995
 0.1742536 0.1737285 0.173307 0.1730528 0.1730493 0.1733086 0.1737023 0.1740181 0.1741497 0.174215
 0.1744473 0.1749943 0.1758334 0.1768241 0.177803 0.1786588 0.1793476 0.1798608 0.1802078 0.1804194
 0.180525 0.1805275 0.1804236 0.1802222 0.1799251 0.1795267 0.1790379 0.1784736 0.1778247 0.1770767
 0.1762278 0.1752734 0.1742106 0.1730509 0.171785 0.1703756 0.1688617 0.1674461 0.1664234 0.1660211
 0.1662853 0.1670613 0.1681015 0.1692292 0.1703616 0.1713923 0.1721971 0.1728266 0.1735896 0.1748489
 0.1767195 0.1789561 0.1811209 0.1828631 0.1840383 0.1846238 0.1846458 0.1841807 0.1832954 0.1819829
 0.1802493 0.1782017 0.1759752 0.1736789 0.1714509 0.1694329 0.1676921 0.1662543 0.1651246 0.1642854
 0.1637805 0.1633366 0.1614096 0.1557095 0.1464463 0.1384568 0.1375684 0.1443215 0.1532219 0.1586422
 0.1596121 0.1584919 0.1572493 0.1563089 0.1555921 0.1551653 0.1550831 0.155249 0.1554523 0.155461
 0.1551616 0.1545604 0.1535467 0.1516535 0.1480275 0.1417314 0.1324431 0.1211034 0.1097138 0.1002679
 0.09376565 0.09000641 0.08802181 0.08675363 0.08566073 0.08489701 0.0849489 0.0861368 0.08844446 0.09166893
 0.09556033 0.09978557 0.10388 0.107396 0.1101381 0.1121807 0.113654 0.1146064 0.1150636 0.1150937
 0.1147775 0.1141853 0.1133854 0.1124176 0.1112627 0.1098908 0.1083636 0.1068806 0.1056929 0.1049337
 0.1045367 0.1043423 0.1042499 0.1042378 0.1042926 0.1043883 0.104511 0.1046695 0.1048897 0.1051965
 0.1055725 0.1059461 0.1062463 0.1064528 0.1065833 0.106643 0.1065948 0.1063904 0.1060541 0.1056955
 0.1053615 0.1049017 0.1040921 0.1029209 0.101691 0.1008233 0.1005698 0.1008697 0.1014216 0.1019023
 0.1021653 0.1022631 0.1023063 0.1023072</values></Ydata></ScSm><ScRf><Ydata ylabel="Single channel"><values byteorder="INTEL" format="FLOAT32" numvalues="1820"> 0.06970625 0.06984226 0.06996463 0.07006808 0.07015713 0.07024606 0.07035084 0.07047751 0.07061858 0.07075883
 0.07088439 0.0709907 0.07108217 0.07116367 0.07123866 0.07131834 0.07142112 0.07155493 0.07170504 0.07184339
 0.07194878 0.07202442 0.07209961 0.07220341 0.072327 0.07242062 0.07243927 0.0723915 0.0723363 0.07232922
 0.07238485 0.07250524 0.07271391 0.07300018 0.07324308 0.07329048 0.0731491 0.07300943 0.07303419 0.07319523
 0.0733536 0.07341401 0.0733616 0.07324614 0.07319978 0.07339662 0.07389493 0.07450764 0.07486007 0.0746064
 0.0736604 0.07231966 0.07119412 0.0708878 0.07156257 0.0727559 0.07372607 0.07405075 0.07385701 0.0735031
 0.07320578 0.07303315 0.07307029 0.07340769 0.07399113 0.07455865 0.0747405 0.07430279 0.07341391 0.07261474
 0.07237579 0.0727319 0.07344976 0.07430953 0.07489417 0.07438147 0.07227497 0.06950602 0.06813852 0.06946088
 0.07263722 0.07557525 0.07682928 0.07636298 0.07494372 0.07346857 0.0727255 0.07312174 0.07441834 0.07596712
 0.07722499 0.07789543 0.07779026 0.07691976 0.07567246 0.07464927 0.07432884 0.07493067 0.07632636 0.07790214
 0.07880313 0.0786075 0.07764331 0.0765643 0.07586884 0.0758761 0.0767514 0.07830937 0.0800322 0.0814522
 0.08239267 0.08286393 0.08295222 0.08280638 0.08256471 0.08232994 0.08226426 0.08250806 0.08290072 0.08301482
 0.08262904 0.08202687 0.08171022 0.08188317 0.0822778 0.08247854 0.0823341 0.08188301 0.08093411 0.07916056
 0.0767763 0.07463831 0.07340931 0.0730956 0.07359632 0.07498325 0.07683404 0.07803084 0.07788718 0.07707488
 0.07689818 0.07788287 0.0794445 0.0807365 0.08147323 0.08197644 0.08267418 0.08361712 0.08436134 0.08430013
 0.08328551 0.0820085 0.08153743 0.08228379 0.08360192 0.08458073 0.08499925 0.08528918 0.0857758 0.08620693
 0.08597584 0.08477253 0.08312303 0.08220024 0.08285519 0.08477435 0.08664715 0.087156 0.08591095 0.08366051
 0.08166736 0.08080224 0.08120653 0.08265641 0.08487404 0.08738818 0.08945835 0.09045069 0.09027593 0.08937399
 0.08823323 0.08693446 0.08532591 0.08373578 0.08315746 0.08432031 0.08675159 0.08915263 0.09059572 0.09103748
 0.09079111 0.08989815 0.08821261 0.0860516 0.08448354 0.08453296 0.0860098 0.0875637 0.08811982 0.08788347
 0.08771737 0.08796683 0.08827674 0.08831628 0.08827262 0.08858397 0.08937955 0.09031466 0.09093527 0.0910937
 0.09097865 0.09084846 0.09078594 0.09064978 0.09029154 0.08988874 0.08992925 0.09069753 0.09189218 0.09292892
 0.09351656 0.09377252 0.09386705 0.09373514 0.09318695 0.09227822 0.09148951 0.09138477 0.09206253 0.09308093
 0.09392745 0.09440127 0.09456275 0.09453808 0.09443442 0.09431331 0.09420556 0.09418301 0.09434654 0.09469011
 0.09506115 0.09531081 0.09541577 0.0954236 0.0953548 0.09520516 0.09500833 0.09485487 0.09483494 0.09496628
 0.09519236 0.09544228 0.09566009 0.09579013 0.09579587 0.09570614 0.09559811 0.09552534 0.09549396 0.09550428
 0.09557192 0.09569696 0.09584102 0.09595497 0.09601943 0.09604638 0.09604935 0.09603009 0.0959941 0.09596331
 0.09596753 0.09602392 0.09611961 0.09621953 0.09630653 0.09640343 0.09652928 0.09664823 0.09670049 0.09667853
 0.09663829 0.09663735 0.09668839 0.09676841 0.09684647 0.09689502 0.09689158 0.09683336 0.0967599 0.09674349
 0.09683535 0.09702714 0.09727316 0.09752747 0.0977495 0.09790808 0.09800608 0.09807944 0.09815557 0.09822963
 0.09828851 0.09834135 0.09842034 0.09855609 0.09874803 0.09895873 0.09914345 0.09928158 0.09937915 0.09946208
 0.09956918 0.09971926 0.09987518 0.09997486 0.1000108 0.1000466 0.100139 0.1002721 0.1003843 0.1004426
 0.1004716 0.100518 0.1006012 0.1007033 0.1007998 0.1008896 0.1009934 0.1011233 0.1012537 0.1013316
 0.1013272 0.1012721 0.1012283 0.1012274 0.101257 0.1013014 0.101366 0.1014542 0.1015425 0.1015957
 0.1016032 0.1015914 0.1015937 0.1016128 0.1016203 0.1015917 0.1015325 0.1014702 0.1014286 0.1014125
 0.1014084 0.1013955 0.1013593 0.1012982 0.101221 0.1011386 0.1010586 0.1009878 0.1009418 0.1009417
 0.1009838 0.1010158 0.1009673 0.1008161 0.1006126 0.1004325 0.1003113 0.1002278 0.1001366 0.1000098
 0.09985321 0.09969337 0.09955248 0.09943355 0.09932488 0.09921642 0.09911367 0.0990376 0.09900335 0.09899285
 0.09895813 0.09886461 0.09872695 0.098591 0.09848814 0.098418 0.09836606 0.09832139 0.09828229 0.09825792
 0.09825838 0.09827562 0.09828478 0.09827296 0.0982558 0.09826003 0.09830212 0.09838399 0.09849045 0.09858696
 0.09864213 0.09866256 0.09869004 0.09875727 0.098859 0.09897144 0.09908427 0.0992042 0.09933798 0.09948583
 0.099649 0.09983347 0.1000428 0.1002701 0.1005005 0.1007208 0.1009295 0.1011394 0.1013697 0.1016311
 0.1019161 0.1022039 0.1024778 0.1027379 0.1029958 0.1032595 0.1035281 0.1038017 0.1040884 0.1043972
 0.1047239 0.1050538 0.1053769 0.1056954 0.1060161 0.1063413 0.1066677 0.1069952 0.1073334 0.1076932
 0.1080684 0.1084293 0.1087462 0.1090208 0.109287 0.1095804 0.1099114 0.1102619 0.1105982 0.1108944
 0.1111558 0.1114161 0.1117022 0.112007 0.1123083 0.1126074 0.1129337 0.1133042 0.1136901 0.114032
 0.1142939 0.1144982 0.1147029 0.1149434 0.1152034 0.1154465 0.1156638 0.1158764 0.1161002 0.1163309
 0.1165654 0.1168169 0.1170942 0.1173798 0.1176433 0.1178727 0.1180796 0.1182757 0.1184557 0.1186034
 0.1187107 0.1187931 0.1188846 0.1190098 0.1191601 0.1193073 0.1194416 0.1195812 0.1197451 0.1199334
 0.1201403 0.1203676 0.1206144 0.1208649 0.1211044 0.1213458 0.1216174 0.1219209 0.1222159 0.122462
 0.1226624 0.1228509 0.1230482 0.1232541 0.123472 0.123717 0.1239962 0.1242967 0.1245967 0.1248815
 0.1251547 0.1254368 0.1257436 0.1260591 0.1263418 0.126566 0.126748 0.1269305 0.1271459 0.1273997
 0.1276765 0.1279566 0.128225 0.1284693 0.1286732 0.1288218 0.1289187 0.1289875 0.1290454 0.1290774
 0.1290462 0.1289238 0.1287021 0.1283757 0.1279299 0.1273569 0.1266828 0.1259749 0.1253246 0.1248201
 0.1245265 0.1244798 0.1246853 0.1251133 0.1256944 0.126332 0.1269272 0.1273958 0.1276684 0.1276928
 0.1274522 0.1269768 0.1263296 0.1255782 0.1247773 0.1239642 0.1231652 0.1224172 0.1217993 0.1214379
 0.1214679 0.1219775 0.1229759 0.1243856 0.1260473 0.1277551 0.1293296 0.1306847 0.1318317 0.132826
 0.1337166 0.1345346 0.1353025 0.1360353 0.1367354 0.1373975 0.1380194 0.138603 0.1391463 0.1396385
 0.1400628 0.1404012 0.1406435 0.1407984 0.1408905 0.1409415 0.140962 0.1409604 0.1409461 0.1409098
 0.1408105 0.1405959 0.1402381 0.1397543 0.1392137 0.13874 0.1385029 0.138673 0.139349 0.1404975
 0.1419564 0.1435096 0.1449748 0.1462425 0.1472697 0.1480662 0.148683 0.1491869 0.1496309 0.1500432
 0.1504344 0.1508079 0.1511648 0.1515071 0.1518387 0.152165 0.1524943 0.1528334 0.1531801 0.153523
 0.1538538 0.1541776 0.1545081 0.1548543 0.1552125 0.1555701 0.1559187 0.1562624 0.1566096 0.1569576
 0.1572938 0.1576117 0.157919 0.1582287 0.1585499 0.1588852 0.1592283 0.1595646 0.1598815 0.1601793
 0.1604672 0.1607511 0.1610309 0.1613064 0.1615812 0.1618591 0.1621401 0.1624215 0.1627019 0.1629816
 0.1632593 0.1635291 0.1637868 0.1640358 0.1642852 0.1645407 0.1647996 0.1650546 0.1653035 0.1655529
 0.1658137 0.1660883 0.1663652 0.1666296 0.1668776 0.1671184 0.1673621 0.1676113 0.1678627 0.1681131
 0.1683615 0.1686084 0.1688546 0.1691006 0.1693465 0.1695921 0.1698388 0.1700892 0.1703439 0.1705991
 0.1708494 0.1710922 0.1713297 0.1715682 0.1718145 0.172069 0.1723238 0.1725702 0.1728078 0.1730427
 0.1732779 0.1735106 0.1737398 0.1739696 0.1742043 0.1744447 0.1746882 0.174932 0.1751736 0.1754118
 0.175648 0.1758853 0.1761265 0.1763712 0.1766172 0.1768628 0.1771071 0.1773483 0.1775852 0.1778196
 0.1780545 0.1782907 0.1785275 0.1787645 0.1790002 0.1792327 0.1794635 0.1796979 0.1799392 0.1801836
 0.1804245 0.1806587 0.1808889 0.1811202 0.1813555 0.1815934 0.1818316 0.1820682 0.1823006 0.1825269
 0.1827496 0.1829734 0.1832011 0.1834327 0.1836683 0.1839069 0.1841469 0.1843872 0.1846279 0.1848683
 0.1851078 0.1853469 0.1855855 0.1858225 0.1860579 0.1862927 0.1865276 0.1867631 0.1870002 0.1872388
 0.1874791 0.1877227 0.1879691 0.1882148 0.188459 0.1887051 0.1889544 0.1892036 0.1894507 0.1896971
 0.189946 0.1902004 0.1904609 0.1907239 0.1909845 0.1912416 0.1914958 0.1917459 0.1919901 0.1922286
 0.1924616 0.1926889 0.1929121 0.1931318 0.1933478 0.193563 0.1937822 0.1940053 0.1942292 0.1944566
 0.1946932 0.1949392 0.1951899 0.1954401 0.1956863 0.19593 0.1961776 0.1964319 0.1966892 0.196946
 0.197203 0.1974602 0.1977174 0.1979779 0.198243 0.1985089 0.1987727 0.1990354 0.1992966 0.1995558
 0.1998167 0.2000813 0.2003475 0.2006146 0.2008842 0.2011527 0.201417 0.2016814 0.2019507 0.2022222
 0.2024929 0.2027637 0.2030337 0.2033011 0.2035689 0.2038377 0.2041043 0.2043715 0.2046462 0.2049268
 0.2052071 0.205486 0.2057632 0.2060348 0.2063018 0.2065682 0.2068326 0.207095 0.2073619 0.2076326
 0.207898 0.2081566 0.2084129 0.2086601 0.208879 0.2090243 0.2089673 0.2084325 0.2069651 0.2039411
 0.1986861 0.1907389 0.1801279 0.1674545 0.1537274 0.1400489 0.1273159 0.1160983 0.1067052 0.09929749
 0.09396805 0.09081915 0.09002446 0.09191173 0.09707379 0.1060174 0.1178663 0.1292397 0.1355194 0.1343492
 0.1277718 0.1203733 0.115549 0.1138422 0.1141075 0.1152162 0.1167208 0.1187256 0.1214986 0.1250735
 0.1292114 0.133792 0.1390373 0.1451696 0.1519753 0.1588856 0.1654516 0.1716303 0.1776157 0.1834911
 0.1890969 0.1941828 0.1986013 0.2023556 0.205547 0.2083126 0.2107729 0.2130059 0.2150617 0.2169679
 0.2186915 0.220124 0.2211464 0.2217247 0.2219519 0.2220033 0.2220415 0.2221493 0.2223396 0.2226072
 0.222949 0.2233572 0.2238202 0.2243254 0.2248555 0.2253929 0.2259301 0.2264628 0.2269809 0.2274765
 0.2279492 0.2283989 0.228824 0.2292292 0.2296205 0.2299969 0.2303566 0.2307055 0.2310518 0.2313999
 0.2317507 0.2320993 0.2324345 0.2327487 0.2330422 0.2333174 0.233578 0.2338333 0.2340912 0.2343511
 0.2346084 0.2348613 0.2351096 0.2353545 0.2355999 0.2358465 0.2360903 0.23633 0.2365706 0.2368143
 0.2370571 0.2372959 0.237531 0.2377639 0.2379977 0.2382357 0.2384767 0.2387156 0.2389494 0.2391806
 0.2394167 0.2396673 0.2399339 0.2402044 0.2404668 0.2407237 0.2409862 0.2412586 0.2415365 0.2418146
 0.2420893 0.24236 0.2426315 0.2429064 0.2431775 0.2434325 0.2436667 0.2438869 0.2441064 0.2443354
 0.2445747 0.2448176 0.2450595 0.2453021 0.2455466 0.2457922 0.2460383 0.2462841 0.2465286 0.2467762
 0.2470361 0.2473117 0.2475977 0.2478882 0.2481807 0.2484729 0.2487632 0.2490538 0.2493458 0.2496337
 0.249912 0.2501848 0.250468 0.2507792 0.2511203 0.2514692 0.2517986 0.2521017 0.2523931 0.2526909
 0.253005 0.2533314 0.2536436 0.2539102 0.2541376 0.2543809 0.254693 0.2550735 0.2554766 0.2558585
 0.2562065 0.256532 0.2568475 0.2571524 0.2574347 0.257686 0.2579188 0.2581723 0.2584865 0.2588605
 0.2592484 0.2596064 0.2599301 0.2602358 0.2605328 0.2608212 0.2610872 0.2612933 0.2614164 0.2615146
 0.2617134 0.2620894 0.2625869 0.2630744 0.2634737 0.2638059 0.2641212 0.264432 0.2647246 0.2649764
 0.2651227 0.2650863 0.2649215 0.2648702 0.2651665 0.2657984 0.2665338 0.267156 0.2676073 0.2679407
 0.2682241 0.2684942 0.268735 0.268879 0.2688807 0.2688226 0.2689039 0.2692603 0.2698108 0.2703438
 0.2707378 0.2710322 0.2713131 0.2716168 0.2719074 0.272055 0.2718942 0.2714486 0.2710767 0.2712369
 0.2720432 0.2731377 0.2740498 0.2746136 0.2749665 0.2752227 0.2753041 0.2750891 0.2745649 0.2738267
 0.2731215 0.2728972 0.2735125 0.2747772 0.276026 0.2767848 0.2771793 0.2776046 0.2782102 0.2788323
 0.2792633 0.2794408 0.2794186 0.2792437 0.2789298 0.2785952 0.2785489 0.2790726 0.2800942 0.2812016
 0.2820294 0.2825465 0.2828943 0.2829681 0.282308 0.2806476 0.2786327 0.2776543 0.2786131 0.2809713
 0.2833323 0.2848186 0.2855511 0.2859955 0.286359 0.2865297 0.2860655 0.2843419 0.281401 0.2786883
 0.2781739 0.2804105 0.2839151 0.2866059 0.2873887 0.2863802 0.2843847 0.2825249 0.281839 0.2827144
 0.2847275 0.2870745 0.2890531 0.290255 0.2905939 0.2902641 0.2896582 0.2892621 0.2893488 0.2895657
 0.2891567 0.2879445 0.2866776 0.2858806 0.2848948 0.2829545 0.2808911 0.2806146 0.2827492 0.2857292
 0.2876164 0.2880865 0.2880729 0.2878885 0.2864658 0.2827646 0.2776977 0.2741001 0.2743007 0.2777957
 0.2817468 0.283772 0.2838299 0.2834029 0.2834149 0.2832541 0.2816805 0.2785797 0.275644 0.274859
 0.2762783 0.2779419 0.2780443 0.2762017 0.2725104 0.2670928 0.2615793 0.2594116 0.262807 0.2699973
 0.2767882 0.2801751 0.2792839 0.2741269 0.2659126 0.2583454 0.2559631 0.2599546 0.2667717 0.2715594
 0.271984 0.2683426 0.2615913 0.2529237 0.2447887 0.2405872 0.2425085 0.249765 0.258738 0.2645419
 0.2635208 0.2561798 0.2479134 0.244946 0.2484782 0.2538904 0.2561713 0.254634 0.2518737 0.2502365
 0.2505229 0.2524257 0.254874 0.2568769 0.2582842 0.2583912 0.2545414 0.2450682 0.2336791 0.227487
 0.2296751 0.2369429 0.2449017 0.2524895 0.2594949 0.2633942 0.2620402 0.2579083 0.2565044 0.2604856
 0.2671333 0.2718229 0.2727178 0.2715156 0.2703741 0.2693439 0.2674354 0.265394 0.2657404 0.2696303
 0.2750455 0.2789866 0.2804842 0.2806025 0.2804238 0.2801349 0.2795838 0.2787333 0.2776254 0.2763997
 0.275277 0.2743161 0.27337 0.272371 0.2712639 0.2693905 0.2655374 0.2595158 0.2535124 0.2505788
 0.2514258 0.2539836 0.256383 0.2583061 0.2584876 0.2536973 0.2429556 0.2313062 0.2263446 0.2308794
 0.2406967 0.2492939 0.25302 0.2515268 0.2455674 0.2366458 0.2285672 0.2267737 0.2341473 0.2479966
 0.2624879 0.2735874 0.2805871 0.2838273 0.2831499 0.279063 0.2740359 0.2715144 0.2735546 0.2794772
 0.2863871 0.2905139 0.2888506 0.2816335 0.2739875 0.2728237 0.2799815 0.2897839 0.295306 0.2956286
 0.2948084 0.2954409 0.2964449 0.2966329 0.2972004 0.2997177 0.3035533 0.3064057 0.3063653 0.302716
 0.2959219 0.2881826 0.2830785 0.2827358 0.2854756 0.2877381 0.2877317 0.2854589 0.2804799 0.2728883
 0.2661095 0.2650599 0.2705584 0.2780826 0.2829245 0.2845736 0.2852486 0.2859062 0.2851135 0.2814429
 0.276008 0.2719797 0.2714805 0.2735836 0.2758367 0.276917 0.2768357 0.2754006 0.2722273 0.2683884
 0.2665625 0.268651 0.2737417 0.2789964 0.2822573 0.2833608 0.283317 0.2830054 0.2827051 0.2822517
 0.2814683 0.2807709 0.2811979 0.2833074 0.2862083 0.2883728 0.2894013 0.2903496 0.2922416 0.2948157
 0.2969284 0.2978233 0.2977977 0.2978246 0.2986749 0.3002847 0.3018168 0.3023971 0.3019744 0.3014817
 0.3019993 0.3037239 0.305891 0.3076531 0.3087906 0.3095889 0.3103569 0.3111627 0.3118047 0.3119793
 0.3116849 0.3114701 0.3120293 0.3134839 0.315239 0.3165864 0.3172858 0.3175281 0.3175358 0.3173498
 0.3169406 0.3163852 0.3158714 0.3155565 0.3154592 0.3154894 0.3155469 0.3155773 0.315574 0.3155696
 0.3156127 0.3157273 0.3158974 0.3160978 0.3163136 0.3165208 0.3166836 0.3167937 0.3168823 0.3169675
 0.3170116 0.3169454 0.3167116 0.3162683 0.315573 0.314588 0.3132911 0.3116596 0.3096659 0.3073701
 0.3050855 0.3034196 0.3030211 0.3041641 0.3065291 0.3093857 0.3120081 0.3139882 0.3152752 0.3160195
 0.3164037 0.3165608 0.31657 0.3164715 0.316284 0.3160233 0.31571 0.3153639 0.3150031 0.3146498
 0.3143274 0.314045 0.3137867 0.3135179 0.3132016 0.3128135 0.3123466 0.3118077 0.3112084 0.3105516
 0.3098191 0.3089818 0.3080344 0.3070189 0.3060054 0.3050479 0.3041554 0.3032959 0.3024237 0.3014991
 0.3004737 0.2992808 0.2978985 0.2964433 0.2951411 0.2941455 0.2933983 0.292697 0.2918738 0.2908821
 0.2897509 0.2885223 0.2872329 0.2859121 0.2845706 0.2831947 0.2817538 0.2802171 0.2785709 0.2768267
 0.2750084 0.2731366 0.2712257 0.2692834 0.267294 0.2651917 0.2628526 0.2601197 0.2568446 0.2529276
 0.2483456 0.2431666 0.2375485 0.2317112 0.2258882 0.2202843 0.2150604 0.2103435 0.2062404 0.2028444
 0.2002287 0.1984396 0.1974975 0.1974078 0.1981622 0.1997276 0.2020311 0.204954 0.2083368 0.2119913
 0.2157157 0.2193189 0.2226638 0.2257129 0.2285193 0.2311539 0.2336314 0.2359105 0.2379459 0.2397217
 0.2412424 0.2425186 0.2435685 0.2444227 0.2451216 0.2457071 0.2462138 0.2466579 0.2470329 0.2473245
 0.2475349 0.247691 0.2478304 0.247983 0.2481646 0.2483809 0.2486341 0.2489313 0.2492884 0.2497257
 0.2502564 0.2508758 0.2515609 0.2522849 0.2530385 0.2538364 0.2547088 0.2556933 0.2568289 0.2581415
 0.2596255 0.2612397 0.2629131 0.264551 0.2660458 0.267303 0.2682679 0.268931 0.2693122 0.2694429
 0.2693591 0.2690993 0.2686979 0.268177 0.2675496 0.2668325 0.2660502 0.2652222 0.2643493 0.2634211
 0.2624372 0.2614218 0.2604126 0.2594347 0.2584888 0.2575645 0.2566552 0.2557618 0.2548908 0.2540528
 0.2532563 0.2525018 0.2517854 0.2511019 0.2504399 0.2497782 0.2490868 0.248326 0.2474508 0.2464272
 0.2452441 0.2439074 0.2424298 0.2408243 0.2390995 0.2372613 0.2353221 0.2333022 0.2312187 0.2290738
 0.2268523 0.2245329 0.2221211 0.2196793 0.2173102 0.2150989 0.2130763 0.2112256 0.2095076 0.2078842
 0.2063346 0.2048518 0.2034281 0.2020574 0.2007439 0.1994963 0.1983157 0.1972021 0.1961622 0.1952075
 0.1943527 0.193613 0.1929895 0.192466 0.1920254 0.1916596 0.19137 0.1911777 0.1911156 0.1911831
 0.1913144 0.1914153 0.1914278 0.1913569 0.1912525 0.1911693 0.1911341 0.1911427 0.1911726 0.1911753
 0.1910656 0.1907431 0.1901192 0.1891228 0.1877141 0.1859154 0.1838176 0.18156 0.1793106 0.1772353
 0.1754498 0.1740043 0.1729021 0.1720997 0.1715053 0.171031 0.1706637 0.1704693 0.1705282 0.1708433
 0.1712802 0.1716331 0.1718071 0.1719229 0.1722081 0.1728067 0.1737007 0.1747555 0.1758077 0.176739
 0.1774966 0.1780677 0.1784662 0.1787353 0.1789153 0.1790086 0.1789966 0.1788665 0.1786095 0.1782303
 0.1777613 0.1772281 0.1766158 0.175902 0.1750892 0.1741816 0.1731776 0.172084 0.1708871 0.1695453
 0.1680903 0.1667205 0.1657383 0.1653853 0.165713 0.1665586 0.1676622 0.1688402 0.170011 0.1710757
 0.1719223 0.1726123 0.1734587 0.1748174 0.1767874 0.1791076 0.1813372 0.1831386 0.1843853 0.1850622
 0.1851871 0.1848179 0.1840003 0.1827137 0.1809669 0.1788854 0.1766291 0.1743259 0.1721211 0.1701499
 0.1684633 0.1670706 0.1659721 0.1651588 0.1646859 0.1642796 0.1623843 0.1567029 0.1474551 0.1394955
 0.1386571 0.1454708 0.1544315 0.159907 0.1609223 0.1598285 0.1585906 0.1576453 0.1569315 0.1565227
 0.1564654 0.1566512 0.1568674 0.1568933 0.1566298 0.1560822 0.1551173 0.1532368 0.1495669 0.1431698
 0.1337417 0.1222568 0.1107508 0.1012315 0.09468617 0.0908944 0.08888082 0.08759005 0.08648178 0.08571095
 0.08577272 0.08699697 0.08936568 0.09266377 0.09662984 0.1009248 0.1050839 0.1086651 0.1114794 0.1136006
 0.1151528 0.1161793 0.1167034 0.1167881 0.116509 0.1159372 0.1151464 0.1141795 0.1130197 0.1116437
 0.1101193 0.1086444 0.1074648 0.1067158 0.1063376 0.1061682 0.1060937 0.1060824 0.1061268 0.1062156
 0.1063429 0.1065104 0.1067299 0.1070179 0.1073616 0.107705 0.107986 0.1081784 0.1082881 0.108322
 0.1082555 0.1080408 0.1076834 0.1072755 0.1068654 0.1063158 0.1054138 0.1041598 0.1028744 0.1019911
 0.1017515 0.1020657 0.1026077 0.1030538 0.1032745 0.1033394 0.1033627 0.1033464 0.1031684 0.1027199
</values></Ydata></ScRf><Data_Parameters_AB><parameter name="DPF">1</parameter><parameter name="NPT">3497</parameter><parameter name="FXV">3996</parameter><parameter name="LXV">500</parameter><parameter name="CSF">1</parameter><parameter name="MXY">0.00762296188622713</parameter><parameter name="MNY">-0.0824011489748955</parameter><parameter name="DAT">17/01/2024</parameter><parameter name="TIM">13:26:23.447 (GMT+1)</parameter><parameter name="DXU">WN</parameter></Data_Parameters_AB><AB__Qtest><MainReport name="Quality Test Report"><Header><Line><Legend>Test result ok/not ok [1/0]: </Legend><Value>0</Value></Line><Line><Legend>Method file: </Legend><Value>C:\Users\Public\Documents\Bruker\OPUS_8.2.28\QT\IRBT_v3_default.QT</Value></Line></Header><Matrix><Line><Legend></Legend><Legend>min</Legend><Legend>max</Legend><Legend>measured</Legend></Line><Line><Value>Absorption (X-Range 1):</Value><Value>0.400000</Value><Value>2.000000</Value><Value>0.058539</Value></Line><Line><Value>Noise (X-Range 4):</Value><Value></Value><Value>0.000300</Value><Value>0.000047</Value></Line><Line><Value>Signal/Noise (X-Range 2):</Value><Value>200.000000</Value><Value></Value><Value>30.075508</Value></Line><Line><Value>Signal/Noise (X-Range 3):</Value><Value>40.000000</Value><Value></Value><Value>15.675656</Value></Line><Line><Value>Water vapour (X-Range 5):</Value><Value></Value><Value>0.000300</Value><Value>0.000009</Value></Line><Line><Value>Signal/Water (X-Range 2):</Value><Value>100.000000</Value><Value></Value><Value>161.008542</Value></Line><Line><Value>Signal/Water (X-Range 3):</Value><Value>20.000000</Value><Value></Value><Value>83.919264</Value></Line><Line><Value>Fringes (X-Range 6):</Value><Value></Value><Value>0.000100</Value><Value>0.000033</Value></Line></Matrix></MainReport></AB__Qtest><Data_Parameters_ScSm><parameter name="DPF">1</parameter><parameter name="NPT">1814</parameter><parameter name="FXV">3996.63438082617</parameter><parameter name="LXV">499.579297603271</parameter><parameter name="CSF">1</parameter><parameter name="MXY">0.333903908729553</parameter><parameter name="MNY">0.0821227580308914</parameter><parameter name="DAT">17/01/2024</parameter><parameter name="TIM">13:26:23.447 (GMT+1)</parameter><parameter name="DXU">WN</parameter></Data_Parameters_ScSm><Data_Parameters_ScRf><parameter name="DPF">1</parameter><parameter name="NPT">1820</parameter><parameter name="FXV">4004.34989121387</parameter><parameter name="LXV">495.721542409425</parameter><parameter name="CSF">1</parameter><parameter name="MXY">0.317535817623138</parameter><parameter name="MNY">0.068138524889946</parameter><parameter name="DAT">17/01/2024</parameter><parameter name="TIM">13:25:57.586 (GMT+1)</parameter><parameter name="DXU">WN</parameter></Data_Parameters_ScRf><Optic_Parameters_Rf><parameter name="APR">0</parameter><parameter name="APT">Open</parameter><parameter name="BMS">KBr</parameter><parameter name="DTC">RT-DLaTGS_IR-Biotyper [Microplate reader]</parameter><parameter name="HPF">0</parameter><parameter name="LPF">10.0</parameter><parameter name="LPV">4000</parameter><parameter name="PGR">0</parameter><parameter name="RCH">Module port</parameter><parameter name="RDX">0</parameter><parameter name="SRC">MIR</parameter><parameter name="VEL">10.0</parameter><parameter name="SON">Off</parameter></Optic_Parameters_Rf><Acquisition_Parameters_Rf><parameter name="ADT">1</parameter><parameter name="AQM">DD</parameter><parameter name="CFE">0</parameter><parameter name="COR">0</parameter><parameter name="DEL">0</parameter><parameter name="DLY">0</parameter><parameter name="HFW">8000</parameter><parameter name="LFW">0</parameter><parameter name="NSR">32</parameter><parameter name="PLF">AB</parameter><parameter name="RES">6</parameter><parameter name="RGN">-1</parameter><parameter name="STR">0</parameter><parameter name="TCL">MakeCompatibleScalar (0, {WSV=1.000000, ARV=0});</parameter><parameter name="TDL">37</parameter><parameter name="RPO">0</parameter></Acquisition_Parameters_Rf><FT_-_Parameters_Rf><parameter name="APF">B3</parameter><parameter name="HFQ">500</parameter><parameter name="LFQ">4000</parameter><parameter name="NLI">0</parameter><parameter name="PHR">24</parameter><parameter name="PHZ">ML</parameter><parameter name="SPZ">NO</parameter><parameter name="ZFF">1</parameter></FT_-_Parameters_Rf><Optic_Parameters_><parameter name="APR">0</parameter><parameter name="APT">Open</parameter><parameter name="BMS">KBr</parameter><parameter name="CHN">Module port</parameter><parameter name="DTC">RT-DLaTGS_IR-Biotyper [Microplate reader]</parameter><parameter name="HPF">0</parameter><parameter name="LPF">10.0</parameter><parameter name="LPV">4000</parameter><parameter name="PGN">0</parameter><parameter name="RDX">0</parameter><parameter name="SRC">MIR</parameter><parameter name="VEL">10.0</parameter><parameter name="SON">Off</parameter></Optic_Parameters_><FT_-_Parameters_><parameter name="APF">B3</parameter><parameter name="HFQ">500</parameter><parameter name="LFQ">4000</parameter><parameter name="NLI">0</parameter><parameter name="PHR">24</parameter><parameter name="PHZ">ML</parameter><parameter name="SPZ">NO</parameter><parameter name="ZFF">1</parameter></FT_-_Parameters_><Acquisition_Parameters_><parameter name="ADT">1</parameter><parameter name="AQM">DD</parameter><parameter name="CFE">0</parameter><parameter name="COR">0</parameter><parameter name="DEL">0</parameter><parameter name="DLY">0</parameter><parameter name="HFW">8000</parameter><parameter name="LFW">0</parameter><parameter name="NSS">32</parameter><parameter name="PLF">AB</parameter><parameter name="RES">6</parameter><parameter name="SOT">0</parameter><parameter name="TCL">MakeCompatibleScalar (0, {WSV=1.000000, ARV=0});</parameter><parameter name="TDL">37</parameter><parameter name="SPO">0</parameter><parameter name="SGN">-1</parameter></Acquisition_Parameters_><Instrument_Parameters_Rf><parameter name="HFL">15801.365274</parameter><parameter name="LFL">0</parameter><parameter name="LWN">15801.365274</parameter><parameter name="ABP">32157</parameter><parameter name="SSP">1</parameter><parameter name="ARG">2</parameter><parameter name="ASG">2</parameter><parameter name="ASS">32</parameter><parameter name="GFW">16</parameter><parameter name="GBW">16</parameter><parameter name="BFW">0</parameter><parameter name="BBW">0</parameter><parameter name="PKA">9116</parameter><parameter name="PKL">4987</parameter><parameter name="PRA">9130</parameter><parameter name="PRL">5010</parameter><parameter name="P2A">1</parameter><parameter name="P2L">1</parameter><parameter name="P2R">1</parameter><parameter name="P2K">1</parameter><parameter name="DAQ">0</parameter><parameter name="AG2">1</parameter><parameter name="SSM">1</parameter><parameter name="RSN">46352</parameter><parameter name="CRR">0</parameter><parameter name="SRT">1705497957.587</parameter><parameter name="DUR">19.6449890136719</parameter><parameter name="TSC">30.9</parameter><parameter name="MVD">0.934067726135254</parameter><parameter name="AN1">0.225997053545537</parameter><parameter name="AN2">0</parameter><parameter name="VSN">2.485 Apr  4 2017</parameter><parameter name="SRN">0085</parameter><parameter name="CAM">0</parameter><parameter name="INS">IR-Biotyper</parameter><parameter name="FOC">69</parameter><parameter name="RDY">1</parameter><parameter name="ARS">32</parameter></Instrument_Parameters_Rf><Sample_Parameters_><parameter name="BLD"></parameter><parameter name="CNM">Admin</parameter><parameter name="CPY"></parameter><parameter name="DPM"></parameter><parameter name="EXP">IRBT_v3_32Scans.XPM</parameter><parameter name="LCT"></parameter><parameter name="SFM">Microplate, HTS-XT</parameter><parameter name="SNM">240117-1222-Cdiff_SCFA_1_C15_232117575_G8_7700d5c6-f67e-400a-b6c7-97a21eaffb6d.0</parameter><parameter name="XPP">C:\Users\Public\Documents\Bruker\OPUS_8.2.28\XPM</parameter><parameter name="IST">OK</parameter><parameter name="CPG">1252</parameter><parameter name="UID">483610f7-f36c-4cec-99ac-6898edeb6732</parameter></Sample_Parameters_><Instrument_Parameters_><parameter name="HFL">15801.365274</parameter><parameter name="LFL">0</parameter><parameter name="LWN">15801.365274</parameter><parameter name="ABP">32157</parameter><parameter name="SSP">1</parameter><parameter name="ASG">2</parameter><parameter name="ARG">2</parameter><parameter name="ASS">32</parameter><parameter name="GFW">16</parameter><parameter name="GBW">16</parameter><parameter name="BFW">0</parameter><parameter name="BBW">0</parameter><parameter name="PKA">9953</parameter><parameter name="PKL">4987</parameter><parameter name="PRA">10088</parameter><parameter name="PRL">5010</parameter><parameter name="P2A">1</parameter><parameter name="P2L">1</parameter><parameter name="P2R">1</parameter><parameter name="P2K">1</parameter><parameter name="DAQ">0</parameter><parameter name="AG2">1</parameter><parameter name="SSM">1</parameter><parameter name="RSN">23869</parameter><parameter name="CRR">0</parameter><parameter name="SRT">1705497983.448</parameter><parameter name="DUR">19.6449890136719</parameter><parameter name="TSC">30.9</parameter><parameter name="MVD">1.44114542007446</parameter><parameter name="AN1">0.226001816266425</parameter><parameter name="AN2">0</parameter><parameter name="VSN">2.485 Apr  4 2017</parameter><parameter name="SRN">0085</parameter><parameter name="CAM">0</parameter><parameter name="INS">IR-Biotyper</parameter><parameter name="FOC">69</parameter><parameter name="RDY">1</parameter></Instrument_Parameters_><History/></OPUSDataFile>
