<?xml version="1.0" encoding="UTF-8" ?>
<OPUSDataFile><AB><Ydata ylabel="Absorbance Units"><values byteorder="INTEL" format="FLOAT32" numvalues="3497"> -0.08586796 -0.08585134 -0.08584173 -0.08583852 -0.08584046 -0.08584576 -0.08584996 -0.0858519 -0.08584753 -0.0858379
 -0.08582184 -0.08580282 -0.08578238 -0.08576474 -0.0857527 -0.08574726 -0.08575023 -0.0857575 -0.08576865 -0.08577938
 -0.08578875 -0.08579639 -0.08580209 -0.08580784 -0.08581366 -0.08581688 -0.08581702 -0.08580752 -0.08578861 -0.08575711
 -0.08571565 -0.0856704 -0.08562475 -0.08558945 -0.08556525 -0.08555909 -0.08556707 -0.08558869 -0.0856173 -0.08564828
 -0.0856761 -0.0856966 -0.08570804 -0.08570825 -0.08570027 -0.08568382 -0.08566487 -0.08564413 -0.08562677 -0.08561347
 -0.08560508 -0.08560164 -0.08559962 -0.08559863 -0.08559289 -0.08558219 -0.08556187 -0.08553272 -0.08549426 -0.08544886
 -0.08540115 -0.08535382 -0.08531345 -0.08528033 -0.08525765 -0.08524358 -0.0852379 -0.08523846 -0.08524413 -0.08525344
 -0.08526585 -0.08527959 -0.08529426 -0.08530843 -0.08532188 -0.08533336 -0.08534285 -0.08534769 -0.08534773 -0.0853398
 -0.08532411 -0.08530169 -0.08527362 -0.08524635 -0.0852207 -0.08520316 -0.08519304 -0.08519218 -0.08519891 -0.08521166
 -0.08522843 -0.08524667 -0.08526432 -0.08527914 -0.08528971 -0.0852943 -0.08529398 -0.08528852 -0.0852801 -0.08526952
 -0.08525611 -0.08524012 -0.08521877 -0.0851917 -0.08515872 -0.08511981 -0.08508091 -0.08504251 -0.0850127 -0.08499119
 -0.08498096 -0.08498047 -0.08498609 -0.08499649 -0.08500637 -0.08501634 -0.08502482 -0.08503346 -0.08504407 -0.08505617
 -0.08507103 -0.08508438 -0.08509476 -0.08509738 -0.0850893 -0.08507173 -0.08504345 -0.08501168 -0.08497736 -0.08494589
 -0.08491813 -0.08489352 -0.08487206 -0.08485413 -0.0848401 -0.08483536 -0.08483988 -0.08485775 -0.08488594 -0.084917
 -0.08494564 -0.08495406 -0.08494292 -0.08490235 -0.08484332 -0.08477402 -0.08470477 -0.08464739 -0.08460394 -0.0845795
 -0.08457036 -0.08457742 -0.08459219 -0.08461375 -0.08463033 -0.08463977 -0.08463502 -0.08461447 -0.08458389 -0.08454347
 -0.08450656 -0.08447345 -0.08445095 -0.08443798 -0.08443148 -0.08443017 -0.08442756 -0.08442364 -0.084415 -0.0844027
 -0.08438678 -0.08436884 -0.0843508 -0.08433359 -0.08431904 -0.084306 -0.08429483 -0.08428263 -0.08426815 -0.08425049
 -0.08422857 -0.08420573 -0.08418193 -0.08416316 -0.08414997 -0.08414721 -0.08415524 -0.0841732 -0.08420057 -0.08422929
 -0.08425815 -0.08427507 -0.08427985 -0.08426446 -0.08423106 -0.08417998 -0.08411554 -0.08404483 -0.08397229 -0.08390598
 -0.08384848 -0.08380511 -0.08377491 -0.08375979 -0.08375435 -0.08375765 -0.08376249 -0.08376671 -0.08376645 -0.08376019
 -0.0837499 -0.08373544 -0.08372132 -0.08370782 -0.08369756 -0.0836905 -0.08368603 -0.08368395 -0.08368264 -0.08368191
 -0.08368038 -0.08367749 -0.08367122 -0.08366062 -0.08364281 -0.08361803 -0.08358467 -0.08354554 -0.08350162 -0.08345779
 -0.08341713 -0.08338261 -0.08335674 -0.083338 -0.08332662 -0.08332002 -0.08331739 -0.08332001 -0.0833277 -0.08334453
 -0.08337083 -0.08340437 -0.08344449 -0.08347958 -0.08350881 -0.08352022 -0.08351505 -0.08349147 -0.08345191 -0.08340146
 -0.08334249 -0.08328092 -0.08321994 -0.08316594 -0.08312047 -0.08308841 -0.08306553 -0.08305202 -0.08303929 -0.08302376
 -0.08300047 -0.08296601 -0.08292533 -0.08287822 -0.08283339 -0.08279196 -0.08275813 -0.0827323 -0.08271351 -0.08270162
 -0.08269405 -0.08269058 -0.08268841 -0.08268736 -0.08268511 -0.0826816 -0.08267559 -0.08266681 -0.0826546 -0.08263758
 -0.08261401 -0.08258227 -0.08253947 -0.08248755 -0.0824254 -0.08236036 -0.08229496 -0.08223552 -0.08218552 -0.08214206
 -0.08210584 -0.0820687 -0.08202951 -0.08198553 -0.08193628 -0.08188815 -0.08184148 -0.08180325 -0.08177269 -0.08174767
 -0.08172607 -0.0816975 -0.08166117 -0.08160833 -0.08154216 -0.08146328 -0.08137814 -0.08129574 -0.08121938 -0.08115631
 -0.08110365 -0.08106213 -0.08102711 -0.08099698 -0.08096783 -0.08093862 -0.08090504 -0.08086631 -0.0808185 -0.08076088
 -0.08069304 -0.08061481 -0.08052839 -0.08043393 -0.08033422 -0.08022964 -0.08012439 -0.08001884 -0.0799173 -0.07981895
 -0.07972398 -0.07963081 -0.07953633 -0.07943995 -0.07933927 -0.07923533 -0.07912786 -0.07901911 -0.07890993 -0.07880384
 -0.07870296 -0.07860806 -0.07852127 -0.07843495 -0.07834885 -0.07825069 -0.07813826 -0.07801025 -0.07786598 -0.07771898
 -0.07756988 -0.07743026 -0.07729929 -0.07717523 -0.0770564 -0.07693396 -0.076808 -0.07667334 -0.07653295 -0.07639009
 -0.0762475 -0.07611195 -0.07597994 -0.07585257 -0.07572003 -0.07557529 -0.07541522 -0.0752333 -0.07504319 -0.07484671
 -0.07465979 -0.07448728 -0.07433033 -0.07419054 -0.07405787 -0.07393175 -0.07380246 -0.07366965 -0.07352859 -0.07337943
 -0.07322136 -0.07305472 -0.07288044 -0.07269904 -0.07251237 -0.07232118 -0.07212763 -0.07193269 -0.0717385 -0.07154592
 -0.07135681 -0.07117076 -0.07098846 -0.07080782 -0.0706284 -0.07044731 -0.07026342 -0.07007569 -0.06988322 -0.06968897
 -0.0694929 -0.06930063 -0.0691127 -0.0689305 -0.06875392 -0.0685763 -0.06839705 -0.06820748 -0.06800854 -0.06779947
 -0.06758316 -0.06736796 -0.06715572 -0.06695504 -0.06676403 -0.06658456 -0.0664116 -0.06624107 -0.06606872 -0.06588942
 -0.06570466 -0.06551292 -0.06532004 -0.06512797 -0.06493895 -0.06475481 -0.06456993 -0.0643841 -0.06418949 -0.06398521
 -0.06377097 -0.06354693 -0.06332096 -0.06309357 -0.06287311 -0.06265924 -0.06245491 -0.06225891 -0.06206932 -0.06188473
 -0.06170155 -0.06151816 -0.06133081 -0.06113833 -0.06093753 -0.06073009 -0.06051487 -0.06029824 -0.06008249 -0.05987388
 -0.05967591 -0.05948728 -0.05930939 -0.05913347 -0.05895851 -0.05877798 -0.05859097 -0.0583992 -0.05820281 -0.05800881
 -0.05781742 -0.0576338 -0.05745694 -0.05728495 -0.0571158 -0.05694182 -0.05676229 -0.05657089 -0.05637053 -0.05616206
 -0.05595041 -0.05574128 -0.05553717 -0.05534256 -0.05515499 -0.05497476 -0.054798 -0.0546232 -0.05444901 -0.05427466
 -0.05410105 -0.05392831 -0.05375674 -0.05358652 -0.05341505 -0.05324219 -0.05306484 -0.0528831 -0.05269656 -0.05250595
 -0.05231493 -0.05212423 -0.05193837 -0.05175713 -0.0515825 -0.05141335 -0.05124869 -0.05108798 -0.05092997 -0.05077538
 -0.05062463 -0.05047724 -0.05033403 -0.05019073 -0.0500464 -0.04989635 -0.04973874 -0.04957445 -0.04940274 -0.0492303
 -0.04905765 -0.04888962 -0.04872644 -0.04856667 -0.04840994 -0.04825106 -0.04808998 -0.04792349 -0.04775241 -0.04757742
 -0.04740023 -0.0472248 -0.04705269 -0.04688838 -0.04673171 -0.04658474 -0.04644503 -0.04631155 -0.04618184 -0.04605394
 -0.04592803 -0.04580351 -0.04568207 -0.04556426 -0.04544983 -0.04533925 -0.0452286 -0.04511768 -0.04500187 -0.04488094
 -0.04475399 -0.04462132 -0.04448634 -0.04434938 -0.04421407 -0.04408023 -0.04394913 -0.04382057 -0.04369472 -0.04357152
 -0.04345125 -0.04333305 -0.04321631 -0.04309966 -0.04298156 -0.04286221 -0.04274092 -0.04261948 -0.04249863 -0.04237852
 -0.04225991 -0.04213911 -0.04201559 -0.04188684 -0.04175218 -0.04161574 -0.04147772 -0.04134679 -0.04122308 -0.04111096
 -0.04100941 -0.04091496 -0.04082646 -0.04073799 -0.0406494 -0.04055737 -0.04046234 -0.0403635 -0.04026143 -0.04015617
 -0.04004913 -0.03994088 -0.03983413 -0.03973033 -0.03963184 -0.03954014 -0.03945517 -0.03937776 -0.0393042 -0.03923436
 -0.03916276 -0.03908877 -0.03900984 -0.03892578 -0.03883891 -0.03874939 -0.03866019 -0.03857109 -0.03848194 -0.0383928
 -0.03830336 -0.03821484 -0.03812997 -0.0380499 -0.03797823 -0.03791422 -0.0378589 -0.03780979 -0.03776593 -0.03772314
 -0.03767937 -0.03763005 -0.03757257 -0.03750619 -0.03742919 -0.0373478 -0.03726251 -0.03718061 -0.03710324 -0.03703001
 -0.036961 -0.03689005 -0.03681707 -0.03673958 -0.03665847 -0.03657819 -0.0364996 -0.03642865 -0.03636493 -0.03631076
 -0.03626475 -0.03622589 -0.03619221 -0.03616149 -0.03613104 -0.0360986 -0.03606049 -0.03601429 -0.03595698 -0.03588597
 -0.03580364 -0.03570875 -0.03561103 -0.0355113 -0.0354214 -0.03534297 -0.0352799 -0.03523265 -0.0351929 -0.03515984
 -0.03511909 -0.03507064 -0.03500639 -0.03492897 -0.0348435 -0.03475359 -0.0346716 -0.03459783 -0.03454001 -0.03449281
 -0.03445401 -0.03441559 -0.03437012 -0.03431243 -0.03423632 -0.03414407 -0.03403342 -0.0339148 -0.03378952 -0.03367071
 -0.03356127 -0.03346666 -0.03338869 -0.03331836 -0.03325533 -0.03318401 -0.03310396 -0.03300705 -0.03289444 -0.03276997
 -0.03263505 -0.03249748 -0.03235719 -0.03221777 -0.03207892 -0.03194084 -0.03180583 -0.03167602 -0.03155551 -0.03144919
 -0.0313574 -0.0312836 -0.03121988 -0.03116501 -0.03110808 -0.03104526 -0.03097303 -0.0308889 -0.03080093 -0.03070915
 -0.03062692 -0.03055511 -0.03050341 -0.03047191 -0.0304621 -0.03047298 -0.03049857 -0.03053759 -0.03058153 -0.03063006
 -0.03067772 -0.03072545 -0.03077215 -0.03081955 -0.03086935 -0.03092293 -0.03098234 -0.03104734 -0.03111885 -0.0311946
 -0.03127378 -0.03135521 -0.03143751 -0.03152479 -0.03161686 -0.03172215 -0.0318417 -0.03198032 -0.03213862 -0.03231173
 -0.03249905 -0.03268838 -0.03287907 -0.03306014 -0.03323248 -0.03339316 -0.03354488 -0.03369333 -0.03384044 -0.03399332
 -0.03415016 -0.0343124 -0.0344753 -0.03463502 -0.03478861 -0.03493247 -0.03506792 -0.03519437 -0.03531475 -0.03542956
 -0.03554196 -0.03565244 -0.03576412 -0.03587756 -0.03599299 -0.03611061 -0.03622445 -0.03633423 -0.03643415 -0.03652515
 -0.03661146 -0.03669511 -0.03678797 -0.03688923 -0.03700427 -0.03712768 -0.03725177 -0.03737244 -0.03747959 -0.03757603
 -0.03765975 -0.03773737 -0.03781294 -0.0378892 -0.03796879 -0.03805061 -0.03813466 -0.03822081 -0.03830896 -0.03839972
 -0.03849343 -0.03858734 -0.03868133 -0.03877129 -0.03885715 -0.03893876 -0.03901646 -0.03909295 -0.03916818 -0.03924329
 -0.0393182 -0.03939269 -0.03946797 -0.03954618 -0.0396286 -0.03971862 -0.03981458 -0.03991691 -0.0400214 -0.04012552
 -0.04022626 -0.04032117 -0.04041089 -0.04049472 -0.04057565 -0.04065395 -0.04073317 -0.04081368 -0.04089884 -0.04098895
 -0.04108549 -0.04118845 -0.04129629 -0.04140851 -0.04152019 -0.04163095 -0.04173616 -0.04183657 -0.04193156 -0.04202282
 -0.04211368 -0.04220463 -0.04229826 -0.04239287 -0.04248775 -0.04258154 -0.04267269 -0.04276219 -0.04285007 -0.04293749
 -0.04302532 -0.04311174 -0.04319664 -0.04327771 -0.04335444 -0.04342756 -0.04349701 -0.04356546 -0.04363298 -0.04370057
 -0.0437682 -0.04383611 -0.0439046 -0.04397538 -0.04404853 -0.04412562 -0.04420541 -0.04428645 -0.04436701 -0.04444385
 -0.04451651 -0.04458285 -0.04464477 -0.04470253 -0.04475907 -0.0448159 -0.04487443 -0.04493583 -0.04499858 -0.04506281
 -0.04512536 -0.04518574 -0.04524259 -0.04529566 -0.04534652 -0.04539524 -0.04544326 -0.04549025 -0.04553383 -0.04557309
 -0.04560209 -0.0456208 -0.04562485 -0.04561738 -0.04560155 -0.04558324 -0.04557224 -0.04557221 -0.04559198 -0.04562756
 -0.04568047 -0.04574106 -0.04580524 -0.04586605 -0.04591985 -0.04596581 -0.04600307 -0.04603261 -0.04605447 -0.04606904
 -0.04607614 -0.04608069 -0.04608308 -0.04609339 -0.0461118 -0.04614466 -0.04619011 -0.04624255 -0.04629929 -0.04634835
 -0.0463899 -0.04641734 -0.04643495 -0.04644558 -0.0464544 -0.04646823 -0.04648858 -0.04651931 -0.04655786 -0.04660396
 -0.0466553 -0.04671044 -0.04677102 -0.0468366 -0.0469123 -0.0469989 -0.04709897 -0.04721309 -0.04733679 -0.04746974
 -0.04760099 -0.04773006 -0.04784763 -0.04795463 -0.04805039 -0.04813718 -0.04822206 -0.04830613 -0.04839588 -0.04848968
 -0.04858802 -0.04868892 -0.04878998 -0.04889158 -0.04899314 -0.04909563 -0.04920001 -0.04930443 -0.04940892 -0.04950989
 -0.04960627 -0.04969748 -0.04978305 -0.04986532 -0.04994453 -0.05002124 -0.05009547 -0.05016494 -0.05022976 -0.05029006
 -0.05034676 -0.05040503 -0.05046542 -0.05053312 -0.05060662 -0.05068553 -0.05076739 -0.05084778 -0.05092653 -0.05100126
 -0.05107401 -0.05114586 -0.05121733 -0.05128959 -0.05136034 -0.051429 -0.05149392 -0.0515542 -0.05161152 -0.05166587
 -0.05171996 -0.05177413 -0.05182851 -0.05188309 -0.05193542 -0.05198542 -0.0520311 -0.05207299 -0.05211252 -0.05215109
 -0.0521942 -0.05224272 -0.05230205 -0.05237029 -0.05244784 -0.05253002 -0.05261209 -0.0526902 -0.05275942 -0.05281971
 -0.05286948 -0.05291077 -0.05294436 -0.05297012 -0.05298845 -0.05299715 -0.05299585 -0.05298345 -0.05295965 -0.05292622
 -0.05288326 -0.05283383 -0.05277797 -0.05271744 -0.0526518 -0.05257969 -0.0525004 -0.05241076 -0.05231073 -0.0521981
 -0.0520748 -0.05194258 -0.05180407 -0.05166291 -0.05152044 -0.05137907 -0.05123855 -0.05109917 -0.05096139 -0.05082532
 -0.05069187 -0.05056155 -0.05043348 -0.0503079 -0.05018148 -0.05005389 -0.04992337 -0.0497898 -0.04965688 -0.0495252
 -0.04940328 -0.0492918 -0.04919939 -0.04912592 -0.04907591 -0.04904782 -0.04904086 -0.04905231 -0.04907781 -0.04911436
 -0.04915747 -0.04920354 -0.0492491 -0.04928946 -0.04932164 -0.04934129 -0.04934556 -0.04933491 -0.04930807 -0.04927101
 -0.04922436 -0.04917394 -0.04912061 -0.04906503 -0.04900728 -0.04894476 -0.04887759 -0.04880662 -0.04873282 -0.0486622
 -0.0485961 -0.04854245 -0.04850195 -0.04848035 -0.04847717 -0.04849477 -0.04853072 -0.04858364 -0.04865 -0.04872648
 -0.04881103 -0.04890048 -0.04899845 -0.04910432 -0.04922678 -0.04936742 -0.04953489 -0.04973117 -0.04995911 -0.05021967
 -0.05050794 -0.05082377 -0.0511543 -0.05149837 -0.05183643 -0.05216701 -0.05247016 -0.05274668 -0.05298761 -0.05319745
 -0.05338227 -0.05354704 -0.0537038 -0.05385289 -0.05400009 -0.05414231 -0.05427839 -0.0544073 -0.05452745 -0.05464095
 -0.05474862 -0.05485049 -0.05494744 -0.05503534 -0.05511356 -0.05517937 -0.05523206 -0.05527472 -0.05530746 -0.05533627
 -0.05536132 -0.05538617 -0.05541033 -0.05543231 -0.05545144 -0.05546388 -0.05547019 -0.05546873 -0.0554632 -0.05545824
 -0.05545967 -0.05547634 -0.05551209 -0.0555744 -0.05566051 -0.05577261 -0.05590121 -0.05604412 -0.05619007 -0.05633575
 -0.05647367 -0.05660188 -0.05671754 -0.05682003 -0.0569095 -0.0569859 -0.05705026 -0.05710276 -0.05714583 -0.05718035
 -0.05721251 -0.05724487 -0.05728991 -0.05735135 -0.05744563 -0.0575735 -0.05774632 -0.05795633 -0.0582012 -0.05846575
 -0.05873699 -0.05900201 -0.05924826 -0.05947427 -0.05967524 -0.0598585 -0.06002523 -0.06018089 -0.06032724 -0.06046297
 -0.06058815 -0.06070095 -0.06080113 -0.06089289 -0.06097661 -0.06106028 -0.0611437 -0.06122975 -0.06131678 -0.06139972
 -0.06147715 -0.06154198 -0.06159576 -0.0616372 -0.06167045 -0.06170027 -0.06172974 -0.06176387 -0.06180197 -0.06184551
 -0.06189147 -0.06193864 -0.06198597 -0.06203257 -0.06208003 -0.06212864 -0.06217889 -0.06223122 -0.0622817 -0.06233015
 -0.06237096 -0.06240407 -0.06242858 -0.06244534 -0.06246005 -0.06247371 -0.0624937 -0.06251973 -0.06255527 -0.06259848
 -0.06264774 -0.06270107 -0.06275526 -0.06280918 -0.06286082 -0.06290954 -0.06295435 -0.06299529 -0.06303193 -0.0630654
 -0.06309566 -0.06312519 -0.06315453 -0.06318481 -0.06321641 -0.06324786 -0.06327909 -0.06330789 -0.0633342 -0.06335813
 -0.06337992 -0.06340174 -0.06342372 -0.06344762 -0.06347313 -0.06350033 -0.06352853 -0.06355665 -0.06358367 -0.06360766
 -0.06362841 -0.06364444 -0.06365795 -0.0636693 -0.06368237 -0.06369923 -0.06372099 -0.06374911 -0.0637801 -0.06381385
 -0.06384543 -0.06387404 -0.06389824 -0.06391779 -0.06393442 -0.06394824 -0.06396165 -0.0639747 -0.06398902 -0.06400467
 -0.06402291 -0.06404346 -0.06406654 -0.06409116 -0.06411556 -0.06413888 -0.06415889 -0.06417622 -0.06419025 -0.06420317
 -0.0642162 -0.06423087 -0.06424864 -0.06426837 -0.06429027 -0.06431207 -0.06433333 -0.06435277 -0.06437012 -0.0643855
 -0.06439887 -0.0644111 -0.06442222 -0.06443314 -0.064444 -0.06445625 -0.06447007 -0.06448707 -0.06450695 -0.06452981
 -0.0645548 -0.06458033 -0.06460571 -0.06462907 -0.06465077 -0.06467042 -0.06468868 -0.06470599 -0.06472231 -0.06473788
 -0.06475196 -0.06476422 -0.06477496 -0.06478399 -0.06479289 -0.06480177 -0.06481235 -0.0648248 -0.06484046 -0.06485936
 -0.06488175 -0.06490726 -0.06493296 -0.06495818 -0.06497794 -0.06499245 -0.06499926 -0.0650003 -0.06499819 -0.06499486
 -0.06499467 -0.06499705 -0.06500354 -0.06501141 -0.0650192 -0.06502513 -0.06502748 -0.06502768 -0.06502542 -0.06502406
 -0.06502428 -0.06502835 -0.06503679 -0.06504983 -0.06506757 -0.06508879 -0.06511339 -0.0651392 -0.06516603 -0.06519104
 -0.06521407 -0.06523267 -0.0652473 -0.06525793 -0.06526539 -0.06527159 -0.06527656 -0.06528141 -0.06528538 -0.06528778
 -0.06528917 -0.06528933 -0.06529028 -0.06529314 -0.06529848 -0.06530722 -0.06531685 -0.06532698 -0.06533536 -0.06534132
 -0.06534626 -0.06535015 -0.06535584 -0.06536342 -0.06537262 -0.06538311 -0.06539138 -0.06539731 -0.06539814 -0.06539469
 -0.06538784 -0.06537889 -0.0653711 -0.06536514 -0.06536365 -0.0653661 -0.06537317 -0.06538333 -0.06539591 -0.06540906
 -0.06542186 -0.06543271 -0.06544097 -0.06544533 -0.0654452 -0.06544092 -0.06543212 -0.06542224 -0.06541139 -0.06540457
 -0.065402 -0.06540594 -0.06541599 -0.06542888 -0.06544391 -0.06545565 -0.06546436 -0.06546763 -0.06546693 -0.06546432
 -0.06546088 -0.06545956 -0.06545962 -0.06546178 -0.06546402 -0.06546498 -0.06546371 -0.06545889 -0.0654522 -0.06544363
 -0.06543601 -0.06543005 -0.06542694 -0.0654271 -0.06542941 -0.06543384 -0.06543873 -0.06544397 -0.06544864 -0.06545273
 -0.06545591 -0.06545813 -0.06545898 -0.06545836 -0.06545565 -0.06545079 -0.06544313 -0.06543303 -0.06542046 -0.06540676
 -0.06539324 -0.06538138 -0.06537305 -0.0653678 -0.06536634 -0.06536614 -0.06536656 -0.06536543 -0.06536195 -0.0653559
 -0.06534702 -0.06533636 -0.06532396 -0.06531119 -0.06529812 -0.0652863 -0.06527577 -0.06526741 -0.065261 -0.06525593
 -0.06525192 -0.06524773 -0.0652433 -0.06523792 -0.0652317 -0.06522439 -0.06521645 -0.06520808 -0.06520016 -0.06519356
 -0.06518823 -0.06518488 -0.06518117 -0.06517667 -0.06516835 -0.06515509 -0.0651368 -0.06511286 -0.06508729 -0.06506029
 -0.06503673 -0.06501688 -0.06500247 -0.0649933 -0.06498727 -0.06498404 -0.06498049 -0.06497652 -0.06497001 -0.0649612
 -0.06494951 -0.06493551 -0.06491972 -0.06490313 -0.06488693 -0.0648722 -0.06486031 -0.06485131 -0.0648457 -0.06484278
 -0.06484234 -0.06484403 -0.06484775 -0.06485305 -0.06485999 -0.06486692 -0.06487369 -0.06487851 -0.06488127 -0.06488162
 -0.06487958 -0.06487583 -0.06487036 -0.06486329 -0.0648547 -0.06484474 -0.06483399 -0.06482393 -0.0648149 -0.06480846
 -0.06480394 -0.06480151 -0.06479947 -0.06479651 -0.06479137 -0.06478276 -0.064771 -0.06475545 -0.06473878 -0.06472135
 -0.06470624 -0.06469422 -0.06468581 -0.06468135 -0.06467789 -0.06467528 -0.06466983 -0.06466152 -0.06464911 -0.06463296
 -0.06461452 -0.06459432 -0.06457516 -0.06455719 -0.06454252 -0.06453033 -0.06452052 -0.06451155 -0.06450133 -0.06448933
 -0.06447385 -0.06445667 -0.06443805 -0.06442042 -0.06440506 -0.06439214 -0.06438234 -0.06437307 -0.06436396 -0.06435329
 -0.06434069 -0.06432754 -0.06431388 -0.06430268 -0.06429391 -0.06428789 -0.06428426 -0.06428073 -0.06427733 -0.06427273
 -0.06426749 -0.06426259 -0.06425764 -0.0642528 -0.06424633 -0.06423601 -0.06422128 -0.06420025 -0.06417529 -0.06414685
 -0.06411806 -0.06409045 -0.06406493 -0.06404219 -0.06402162 -0.06400318 -0.06398685 -0.06397261 -0.06396062 -0.06395089
 -0.06394201 -0.06393386 -0.06392425 -0.06391309 -0.06389846 -0.06388056 -0.06385895 -0.06383441 -0.06380848 -0.06378232
 -0.06375889 -0.06373843 -0.06372285 -0.06371059 -0.06370121 -0.06369262 -0.06368329 -0.06367262 -0.06365992 -0.06364556
 -0.0636297 -0.06361163 -0.06359144 -0.06356718 -0.06353854 -0.06350503 -0.06346653 -0.06342611 -0.06338406 -0.06334618
 -0.06331268 -0.0632883 -0.06327227 -0.06326441 -0.06326292 -0.06326296 -0.06326354 -0.06326 -0.06325386 -0.06324483
 -0.06323539 -0.06322804 -0.06322298 -0.06322156 -0.06322154 -0.06322211 -0.06322238 -0.06322154 -0.06322143 -0.0632223
 -0.06322529 -0.06323083 -0.06323635 -0.06324173 -0.06324411 -0.06324358 -0.0632418 -0.06323929 -0.06324092 -0.06324635
 -0.06325717 -0.06327163 -0.0632863 -0.06329888 -0.06330381 -0.06329922 -0.06328042 -0.06324696 -0.06319585 -0.06313061
 -0.06305076 -0.06296573 -0.06287842 -0.06279911 -0.06273169 -0.06268006 -0.06264628 -0.06262681 -0.06262201 -0.06262278
 -0.06262859 -0.06262977 -0.06262617 -0.06261616 -0.06260078 -0.06258769 -0.06257667 -0.06257177 -0.06256972 -0.06256362
 -0.06255075 -0.06252133 -0.06247822 -0.06241933 -0.0623532 -0.06228646 -0.06222652 -0.06218128 -0.06214961 -0.06213465
 -0.06212673 -0.06212438 -0.06211678 -0.0621011 -0.06207409 -0.06203434 -0.06198828 -0.06193614 -0.06188718 -0.06184167
 -0.06180326 -0.06177144 -0.06174385 -0.06172003 -0.0616967 -0.06167419 -0.06165183 -0.06162986 -0.06160867 -0.06158774
 -0.06156652 -0.06154461 -0.06152116 -0.06149678 -0.0614716 -0.06144624 -0.06142126 -0.06139604 -0.06137056 -0.06134399
 -0.06131592 -0.06128736 -0.06125823 -0.06123106 -0.06120605 -0.06118457 -0.06116659 -0.06115074 -0.06113675 -0.06112167
 -0.06110545 -0.06108603 -0.06106385 -0.06103884 -0.06101193 -0.06098487 -0.06095845 -0.06093472 -0.06091328 -0.06089488
 -0.06087767 -0.06086078 -0.06084242 -0.06082119 -0.06079768 -0.06077139 -0.060745 -0.06071894 -0.06069544 -0.06067503
 -0.06065702 -0.06064147 -0.06062538 -0.06060859 -0.06058806 -0.06056391 -0.06053582 -0.06050437 -0.06047195 -0.06043917
 -0.06040923 -0.06038195 -0.0603588 -0.06033868 -0.06032082 -0.06030396 -0.06028656 -0.06026799 -0.06024721 -0.06022466
 -0.06020021 -0.06017467 -0.06014832 -0.06012148 -0.06009432 -0.06006657 -0.06003813 -0.06000946 -0.05998052 -0.05995274
 -0.0599262 -0.05990221 -0.05988069 -0.0598615 -0.05984434 -0.05982782 -0.05981162 -0.05979397 -0.05977491 -0.05975351
 -0.05973039 -0.05970597 -0.05968085 -0.05965587 -0.05963098 -0.05960657 -0.05958176 -0.0595562 -0.05952931 -0.05950064
 -0.05947078 -0.05943971 -0.05940819 -0.05937628 -0.05934465 -0.05931332 -0.05928331 -0.05925466 -0.05922855 -0.05920491
 -0.05918346 -0.05916385 -0.05914401 -0.05912377 -0.05910132 -0.05907718 -0.05905139 -0.05902495 -0.05899951 -0.05897529
 -0.05895349 -0.05893286 -0.05891319 -0.05889239 -0.0588692 -0.05884306 -0.05881306 -0.05878138 -0.05874805 -0.05871663
 -0.05868771 -0.05866284 -0.05864232 -0.05862419 -0.0586083 -0.05859108 -0.05857245 -0.05855016 -0.0585246 -0.05849649
 -0.05846648 -0.05843713 -0.05840872 -0.05838345 -0.05836035 -0.05833928 -0.05831838 -0.05829565 -0.05827006 -0.05823972
 -0.05820611 -0.05816892 -0.0581317 -0.0580955 -0.05806318 -0.05803585 -0.05801329 -0.05799585 -0.05798074 -0.0579678
 -0.05795408 -0.05793943 -0.05792202 -0.05790185 -0.05787824 -0.0578513 -0.05782109 -0.05778806 -0.0577536 -0.05771842
 -0.05768488 -0.05765295 -0.05762391 -0.05759668 -0.05757068 -0.05754476 -0.05751761 -0.05748958 -0.05746032 -0.05743118
 -0.05740273 -0.05737521 -0.057349 -0.05732289 -0.05729679 -0.05726951 -0.05724088 -0.05721106 -0.05718007 -0.05714887
 -0.05711755 -0.05708725 -0.05705808 -0.05703127 -0.05700684 -0.05698566 -0.0569674 -0.05695197 -0.05693855 -0.05692601
 -0.05691332 -0.05689901 -0.0568822 -0.05686177 -0.05683737 -0.05680828 -0.05677539 -0.05673863 -0.0566999 -0.05665952
 -0.0566196 -0.05658064 -0.05654307 -0.05650707 -0.05647101 -0.05643481 -0.05639626 -0.05635545 -0.05631261 -0.05626815
 -0.0562246 -0.05618201 -0.05614207 -0.05610408 -0.0560673 -0.05603091 -0.05599313 -0.05595379 -0.05591192 -0.05586789
 -0.05582157 -0.05577371 -0.05572429 -0.05567535 -0.05562742 -0.05558277 -0.05554233 -0.05550568 -0.05547328 -0.05544121
 -0.05540916 -0.05537368 -0.05533455 -0.05529205 -0.05524644 -0.05520135 -0.05515692 -0.05511589 -0.05507778 -0.05504238
 -0.05500912 -0.05497642 -0.05494443 -0.05491245 -0.05488134 -0.05485165 -0.05482446 -0.05480072 -0.0547813 -0.05476695
 -0.05475802 -0.05475516 -0.05475684 -0.05476328 -0.05477047 -0.05477798 -0.05478173 -0.05478117 -0.05477503 -0.05476318
 -0.05474782 -0.05472915 -0.05471054 -0.05469207 -0.05467605 -0.05466236 -0.05465193 -0.05464439 -0.05463942 -0.05463646
 -0.05463457 -0.05463314 -0.0546312 -0.05462807 -0.05462291 -0.05461535 -0.05460483 -0.05459173 -0.05457598 -0.05455843
 -0.05453929 -0.05451921 -0.05449836 -0.05447685 -0.05445469 -0.05443208 -0.05440902 -0.05438584 -0.05436249 -0.05433837
 -0.05431333 -0.05428605 -0.05425654 -0.05422394 -0.05418879 -0.05415176 -0.05411385 -0.05407704 -0.05404201 -0.05401064
 -0.05398231 -0.05395763 -0.05393421 -0.05391093 -0.05388582 -0.0538574 -0.05382675 -0.0537934 -0.05376105 -0.05373034
 -0.05370333 -0.05368053 -0.05366003 -0.05364177 -0.05362171 -0.05359968 -0.05357255 -0.05354054 -0.05350322 -0.05346124
 -0.05341664 -0.05337037 -0.05332598 -0.05328362 -0.05324544 -0.05321056 -0.05317892 -0.05314915 -0.05312008 -0.05309086
 -0.05306071 -0.05302929 -0.05299623 -0.05296179 -0.05292575 -0.05288952 -0.0528533 -0.05281813 -0.05278429 -0.05275062
 -0.0527171 -0.05268163 -0.05264426 -0.05260544 -0.05256554 -0.05252751 -0.0524914 -0.05245923 -0.05243028 -0.05240389
 -0.05237904 -0.05235369 -0.05232707 -0.05229742 -0.05226437 -0.05222692 -0.05218534 -0.05213905 -0.05209016 -0.05203904
 -0.05198866 -0.0519399 -0.05189458 -0.0518534 -0.05181553 -0.05178104 -0.05174782 -0.05171573 -0.05168309 -0.05164987
 -0.05161523 -0.05157924 -0.05154191 -0.05150337 -0.05146409 -0.05142426 -0.05138465 -0.05134536 -0.05130688 -0.05126923
 -0.05123262 -0.05119701 -0.05116266 -0.05112888 -0.05109562 -0.05106135 -0.05102551 -0.05098676 -0.05094438 -0.05089902
 -0.05085053 -0.05080085 -0.05075015 -0.05070009 -0.05065082 -0.0506027 -0.05055571 -0.05050934 -0.05046362 -0.05041843
 -0.05037395 -0.05033101 -0.0502895 -0.05024979 -0.05021108 -0.05017212 -0.05013218 -0.05008948 -0.05004469 -0.04999773
 -0.04994953 -0.04990089 -0.04985151 -0.04980164 -0.04975018 -0.04969664 -0.04964134 -0.04958411 -0.04952653 -0.04946874
 -0.04941236 -0.04935751 -0.04930521 -0.04925548 -0.04920888 -0.04916521 -0.04912332 -0.04908289 -0.04904169 -0.04899991
 -0.04895685 -0.04891301 -0.04886927 -0.04882527 -0.04878112 -0.04873585 -0.04868832 -0.04863892 -0.04858714 -0.04853502
 -0.04848335 -0.04843334 -0.04838591 -0.04833946 -0.04829399 -0.04824724 -0.04819882 -0.04814868 -0.04809673 -0.04804501
 -0.04799359 -0.04794388 -0.04789571 -0.0478485 -0.04780189 -0.04775415 -0.04770502 -0.04765292 -0.04759757 -0.04753751
 -0.04747306 -0.04740359 -0.04733091 -0.04725618 -0.04718169 -0.04710934 -0.04704009 -0.04697497 -0.04691357 -0.04685602
 -0.04680157 -0.04675026 -0.04670051 -0.04665227 -0.04660299 -0.04655248 -0.04649922 -0.0464432 -0.04638508 -0.046325
 -0.04626425 -0.04620277 -0.04614089 -0.04607846 -0.04601527 -0.04595128 -0.04588616 -0.04582027 -0.04575377 -0.04568744
 -0.04562215 -0.04555808 -0.04549599 -0.04543439 -0.04537287 -0.04530986 -0.04524427 -0.04517768 -0.04510999 -0.04504435
 -0.04498143 -0.04492091 -0.04486299 -0.04480265 -0.04473966 -0.04467002 -0.04459414 -0.04451393 -0.04443021 -0.0443483
 -0.04426795 -0.04419163 -0.04411777 -0.04404437 -0.04397026 -0.04389263 -0.04381206 -0.04372802 -0.04364151 -0.04355317
 -0.04346315 -0.04337173 -0.04327872 -0.04318407 -0.04308784 -0.04299019 -0.04289031 -0.04278828 -0.04268206 -0.04257152
 -0.0424547 -0.04233153 -0.04220165 -0.04206531 -0.04192466 -0.04177994 -0.04163391 -0.04148591 -0.04133588 -0.04118202
 -0.04102034 -0.04085022 -0.0406682 -0.04047698 -0.04027737 -0.04007364 -0.03986927 -0.03966585 -0.03946522 -0.03926679
 -0.03907043 -0.03887686 -0.03868588 -0.03849996 -0.03831929 -0.03814639 -0.03798148 -0.03782622 -0.03768066 -0.03754449
 -0.03741744 -0.03729674 -0.03718214 -0.03707079 -0.03696297 -0.03685835 -0.03675679 -0.03665844 -0.03656164 -0.03646417
 -0.03636441 -0.03625927 -0.03614994 -0.03603601 -0.03591968 -0.03580257 -0.03568343 -0.03556279 -0.03543662 -0.03530405
 -0.03516281 -0.03501229 -0.03485302 -0.03468512 -0.03450675 -0.03431777 -0.03411179 -0.03388872 -0.03364437 -0.03338021
 -0.03310171 -0.03281003 -0.03251284 -0.03220785 -0.03189414 -0.03156847 -0.03122525 -0.03086354 -0.03048083 -0.03007535
 -0.02964736 -0.02918794 -0.02869453 -0.02815401 -0.02755979 -0.02691137 -0.02620397 -0.02546044 -0.02468171 -0.02390008
 -0.02311856 -0.02235662 -0.02161518 -0.02089513 -0.02019505 -0.01950085 -0.01880934 -0.01809575 -0.01735905 -0.01657861
 -0.01576462 -0.01492609 -0.01408096 -0.01326456 -0.01247724 -0.01173797 -0.01102576 -0.01033143 -0.009637233 -0.008929021
 -0.00820815 -0.007470458 -0.006727461 -0.005981164 -0.005239436 -0.00450342 -0.003780203 -0.003070346 -0.002381659 -0.001714542
 -0.001070068 -0.0004485323 0.0001478944 0.0007163678 0.001239869 0.001715683 0.002123913 0.002467602 0.002743308 0.002956191
 0.003113284 0.003216936 0.003271179 0.00328061 0.003247776 0.003182916 0.00309133 0.002981856 0.002858586 0.002726964
 0.002588724 0.002448312 0.002307121 0.002164121 0.002020087 0.001862386 0.001690338 0.001483578 0.001241542 0.0009506135
 0.0006129164 0.0002335298 -0.000184901 -0.0006293994 -0.001101375 -0.001597332 -0.002120434 -0.002675682 -0.003261205 -0.003879646
 -0.004520057 -0.005176869 -0.005835361 -0.006486302 -0.007120981 -0.007734168 -0.008322532 -0.0088855 -0.009415325 -0.009911434
 -0.01036245 -0.01076684 -0.01112267 -0.01142975 -0.01169684 -0.01192427 -0.01211883 -0.01227993 -0.01240723 -0.01250068
 -0.01255928 -0.01258474 -0.01258053 -0.01254826 -0.01249239 -0.01241301 -0.01231176 -0.01218892 -0.01204486 -0.01188095
 -0.01169812 -0.01149675 -0.01127742 -0.01103914 -0.01078153 -0.01050516 -0.01020972 -0.009898533 -0.009571756 -0.009233652
 -0.008884465 -0.008528657 -0.008166363 -0.007800705 -0.007431114 -0.007055718 -0.006673707 -0.006279791 -0.005876474 -0.00546546
 -0.005053574 -0.004653322 -0.004268561 -0.003909645 -0.003574845 -0.003265559 -0.002981394 -0.002721684 -0.002489169 -0.002284784
 -0.002110164 -0.001965607 -0.001853393 -0.00177308 -0.001733037 -0.001734058 -0.001782847 -0.001879959 -0.002017204 -0.002193764
 -0.00239503 -0.002621567 -0.00286952 -0.003140881 -0.003441129 -0.003771579 -0.004138573 -0.0045416 -0.004982682 -0.005460832
 -0.005975635 -0.00652635 -0.007114738 -0.00773186 -0.008377886 -0.009028354 -0.009674445 -0.01029706 -0.01088655 -0.01144952
 -0.01198463 -0.01250735 -0.01301972 -0.0135251 -0.01402393 -0.01450901 -0.01497998 -0.01543072 -0.0158611 -0.01626777
 -0.01664989 -0.01700195 -0.01732392 -0.01761083 -0.01786831 -0.01810092 -0.0183219 -0.01854711 -0.01879193 -0.01907484
 -0.01940359 -0.0197894 -0.02022828 -0.02072262 -0.02126164 -0.02184488 -0.02245465 -0.02309145 -0.02371662 -0.02432751
 -0.02487755 -0.02536321 -0.02577553 -0.026116 -0.0264134 -0.02666974 -0.0269133 -0.0271425 -0.02736638 -0.02758144
 -0.02778305 -0.02796904 -0.02813321 -0.02827523 -0.0283923 -0.02848464 -0.02855153 -0.02859346 -0.02861085 -0.02860294
 -0.02857014 -0.02850923 -0.02841984 -0.02829734 -0.0281408 -0.02794736 -0.02771638 -0.02744859 -0.02714387 -0.02680773
 -0.02644095 -0.02605755 -0.02565986 -0.02527192 -0.02489494 -0.02454815 -0.02422791 -0.02393502 -0.02366408 -0.02340509
 -0.02315598 -0.02291023 -0.02266711 -0.02242504 -0.02217993 -0.02192871 -0.02166933 -0.02139718 -0.02112477 -0.02085321
 -0.02060028 -0.02037136 -0.02016436 -0.01998092 -0.01980272 -0.01962855 -0.01944752 -0.01925976 -0.01907109 -0.01888257
 -0.01870562 -0.01853947 -0.01838749 -0.01824709 -0.01811287 -0.01798287 -0.0178507 -0.01771621 -0.017577 -0.01743222
 -0.01728192 -0.01712025 -0.01694519 -0.01674683 -0.0165206 -0.01625973 -0.01596007 -0.01562503 -0.01525336 -0.01485706
 -0.01443717 -0.01400494 -0.01356134 -0.01311006 -0.01265123 -0.01218531 -0.01171329 -0.01124219 -0.0107749 -0.01032738
 -0.009902631 -0.00951701 -0.009172456 -0.008879554 -0.008640734 -0.008462893 -0.008349066 -0.008304382 -0.008330463 -0.008430501
 -0.008602331 -0.008847098 -0.009157263 -0.009532333 -0.009959462 -0.01043712 -0.01095004 -0.01149685 -0.01206108 -0.01264173
 -0.01321934 -0.01379286 -0.01434304 -0.01486981 -0.01536349 -0.01582585 -0.01625941 -0.01666622 -0.01705363 -0.01742201
 -0.01777576 -0.01811384 -0.01843621 -0.01874309 -0.01903362 -0.01931148 -0.01957755 -0.01983896 -0.02009838 -0.0203633
 -0.02063692 -0.0209218 -0.02121983 -0.02152631 -0.02184135 -0.02215666 -0.02247168 -0.02277955 -0.02307986 -0.02336567
 -0.02363622 -0.02388194 -0.02410194 -0.02428638 -0.02443627 -0.02454852 -0.02462682 -0.02467632 -0.02470176 -0.02471161
 -0.02470942 -0.02470158 -0.02468976 -0.02467704 -0.02466322 -0.0246491 -0.02463338 -0.02461585 -0.02459524 -0.02457117
 -0.02454348 -0.02451195 -0.02447787 -0.02444128 -0.02440371 -0.02436521 -0.02432598 -0.02428586 -0.02424344 -0.02419864
 -0.02415031 -0.02409864 -0.02404367 -0.0239854 -0.02392387 -0.02385889 -0.02379005 -0.02371779 -0.02364191 -0.02356433
 -0.02348575 -0.02340947 -0.02333688 -0.0232714 -0.02321445 -0.02316779 -0.02313233 -0.02310687 -0.02309158 -0.02308335
 -0.02308193 -0.02308515 -0.02309293 -0.02310519 -0.02312203 -0.02314442 -0.02317215 -0.02320507 -0.02324227 -0.02328126
 -0.02332022 -0.0233543 -0.02338194 -0.02339828 -0.0234041 -0.02339755 -0.02338239 -0.02336028 -0.02333534 -0.02331015
 -0.02328636 -0.0232654 -0.023246 -0.02322833 -0.02321 -0.02319082 -0.02316794 -0.02314116 -0.02310742 -0.02306657
 -0.02301642 -0.0229571 -0.02288895 -0.02281238 -0.02272959 -0.02264088 -0.0225483 -0.02245207 -0.02235359 -0.02225307
 -0.02215161 -0.02204873 -0.02194462 -0.02183804 -0.02172804 -0.02161427 -0.02149562 -0.02137481 -0.02125203 -0.02113155
 -0.02101438 -0.02090312 -0.02079854 -0.02069963 -0.02060648 -0.02051607 -0.02042824 -0.02033962 -0.02025022 -0.02015876
 -0.02006579 -0.01997332 -0.01988245 -0.01979789 -0.01972006 -0.01965258 -0.0195944 -0.01954579 -0.01950479 -0.01946934
 -0.01943848 -0.0194105 -0.01938647 -0.01936627 -0.01935169 -0.01934349 -0.0193419 -0.0193472 -0.01935864 -0.01937607
 -0.01939953 -0.01942892 -0.01946607 -0.01951106 -0.0195656 -0.01962958 -0.01970259 -0.01978422 -0.01987216 -0.01996601
 -0.02006329 -0.02016368 -0.02026533 -0.02036776 -0.02046958 -0.02057009 -0.02066808 -0.02076292 -0.02085386 -0.02094028
 -0.02102179 -0.02109759 -0.02116756 -0.02122999 -0.02128453 -0.02132957 -0.02136471 -0.02138978 -0.02140458 -0.02141143
 -0.02141046 -0.02140525 -0.02139599 -0.02138588 -0.02137485 -0.02136432 -0.02135363 -0.02134167 -0.02132704 -0.02130613
 -0.02127766 -0.02123775 -0.02118647 -0.02112211 -0.02104612 -0.02095913 -0.0208621 -0.02075631 -0.02063983 -0.02051285
 -0.02037102 -0.02021352 -0.02003622 -0.01983824 -0.01961796 -0.01937496 -0.01911128 -0.018827 -0.01852649 -0.01821013
 -0.017884 -0.01754871 -0.01721076 -0.01687084 -0.01653491 -0.01620308 -0.0158787 -0.01556115 -0.0152511 -0.01494753
 -0.01464958 -0.01435629 -0.0140668 -0.01378006 -0.01349524 -0.01321185 -0.0129291 -0.01264885 -0.01237074 -0.01209994
 -0.01183689 -0.01158804 -0.01135419 -0.01113794 -0.01093951 -0.01075459 -0.01058262 -0.01041499 -0.01025123 -0.01008396
 -0.009913686 -0.009738353 -0.009558754 -0.009376001 -0.009189997 -0.009001261 -0.008809024 -0.008612338 -0.00841146 -0.008205841
 -0.00799732 -0.007786951 -0.007575283 -0.007363443 -0.007148414 -0.006929971 -0.00670394 -0.006469432 -0.006225159 -0.005970792
 -0.005707425 -0.005435112 -0.005153572 -0.004862764 -0.00456155 -0.004250561 -0.003932577 -0.003609487 -0.00328961 -0.002974683
 -0.002673405 -0.002385734 -0.002115682 -0.001862069 -0.001624812 -0.001403557 -0.001197828 -0.001007977 -0.0008344842 -0.0006760836
 -0.0005331178 -0.0004014001 -0.00028015 -0.0001651616 -5.538695E-05 4.989084E-05 0.0001508706 0.000247069 0.0003384016 0.0004299336
 0.000522402 0.0006281135 0.0007478131 0.0008931421 0.001062856 0.001259329 0.00147899 0.001714875 0.001962425 0.002211509
 0.002456998 0.00268986 0.002903881 0.003091615 0.003247471 0.003365888 0.003445604 0.003484 0.003485157 0.003449031
 0.00338231 0.003285699 0.003166724 0.003025886 0.002872592 0.002707372 0.002541772 0.002376368 0.002221494 0.002077318
 0.001950116 0.001839575 0.001748053 0.001674777 0.001619268 0.001580221 0.001555138 0.00154311 0.001541785 0.001551506
 0.001572 0.001603024 0.001645339 0.001695138 0.001751945 0.00180924 0.001865298 0.001915235 0.001957746 0.001991417
 0.002015876 0.00203152 0.002038348 0.0020369 0.002027203 0.002009759 0.001984593 0.00195205 0.001912259 0.001865783
 0.001813035 0.001755379 0.001693139 0.001627717 0.001558694 0.001486112 0.001409532 0.001328352 0.001243075 0.001153787
 0.001061114 0.000966001 0.0008659857 0.0007615521 0.0006456635 0.0005178166 0.0003681656 0.0001956647 -7.764361E-06 -0.0002428005
 -0.000511601 -0.0008139678 -0.001145607 -0.001505689 -0.001886423 -0.002286813 -0.002698958 -0.003121642 -0.003548007 -0.0039764
 -0.004400886 -0.004819857 -0.005228791 -0.005627203 -0.006012666 -0.006386834 -0.006749701 -0.007103967 -0.007451072 -0.007791445
 -0.008125918 -0.008452105 -0.008769641 -0.009076927 -0.009373388 -0.009662003 -0.009942869 -0.01022079 -0.01049593 -0.0107706
 -0.0110447 -0.01131852 -0.01159198 -0.01186523 -0.01213771 -0.0124084 -0.01267583 -0.01293699 -0.01319015 -0.01343183
 -0.01366092 -0.01387521 -0.01407417 -0.01425639 -0.01442343 -0.01457472 -0.01471536 -0.01484624 -0.01497338 -0.01509823
 -0.01522354 -0.01535016 -0.01547568 -0.0156001 -0.01571824 -0.01582984 -0.01592986 -0.01601845 -0.01609426 -0.01615819
 -0.01621331 -0.01626064 -0.016305 -0.01634604 -0.01638576 -0.01642253 -0.01645502 -0.01648178 -0.01650061 -0.0165119
 -0.0165147 -0.01651158 -0.01650327 -0.01649246 -0.01648063 -0.01646665 -0.01645123 -0.01642849 -0.01639783 -0.01635439
 -0.01629757 -0.01622959 -0.01615072 -0.01606829 -0.01598242 -0.01589741 -0.01581277 -0.01572807 -0.01564374 -0.01556024
 -0.0154797 -0.0154068 -0.0153425 -0.01529126 -0.01524977 -0.01521735 -0.01518832 -0.01515856 -0.01512516 -0.01508516
 -0.01504034 -0.0149904 -0.01493848 -0.01488519 -0.01483251 -0.01478089 -0.01473052 -0.01468162 -0.0146306 -0.01457721
 -0.01451516 -0.01444463 -0.01436372 -0.01427417 -0.01418319 -0.01409226 -0.01401037 -0.01393596 -0.01387077 -0.0138112
 -0.01375265 -0.01369342 -0.01362974 -0.01356259 -0.01349132 -0.01341775 -0.01334221 -0.01326735 -0.01319369 -0.01312471
 -0.01306121 -0.01300531 -0.01295765 -0.01291695 -0.01288329 -0.01285253 -0.01282441 -0.01279319 -0.01275857 -0.01271504
 -0.01266311 -0.01260164 -0.01253261 -0.01246132 -0.01238947 -0.01232371 -0.0122631 -0.01220958 -0.01216033 -0.01211306
 -0.01206624 -0.01201795 -0.01196826 -0.01191708 -0.01186328 -0.01180678 -0.01174534 -0.01167818 -0.01160573 -0.01152758
 -0.01144802 -0.01136736 -0.01128881 -0.01121243 -0.01113612 -0.01105937 -0.01097646 -0.01088722 -0.01078739 -0.01067805
 -0.01055956 -0.01043466 -0.01030877 -0.01018504 -0.01007061 -0.009966409 -0.009876818 -0.009798938 -0.009732429 -0.009673481
 -0.009619613 -0.009570743 -0.009526088 -0.00948741 -0.009455543 -0.009428287 -0.009406001 -0.009381679 -0.009354754 -0.009320251
 -0.009277997 -0.009229962 -0.009176566 -0.009123165 -0.009069487 -0.009017238 -0.008965117 -0.008909544 -0.008850215 -0.008783817
 -0.008712966 -0.008639833 -0.008567548 -0.008501263 -0.008439358 -0.008383639 -0.008327389 -0.008267523 -0.008200243 -0.008122128
 -0.008038606 -0.007949642 -0.007863959 -0.007783275 -0.007709343 -0.007642827 -0.007577621 -0.007513411 -0.007443161 -0.007366779
 -0.007280971 -0.007185901 -0.007080514 -0.006965249 -0.00684026 -0.006707483 -0.006570267 -0.006432646 -0.006302048 -0.006181673
 -0.006078931 -0.005991325 -0.005921047 -0.005859406 -0.00580286 -0.005744246 -0.005679291 -0.005609123 -0.005532667 -0.00545544
 -0.005378395 -0.005303052 -0.005229822 -0.005155898 -0.005081167 -0.005005314 -0.004928621 -0.004854474 -0.004782918 -0.004716036
 -0.004653341 -0.004594133 -0.004538304 -0.004485175 -0.004435048 -0.004388043 -0.004344583 -0.004304977 -0.004270136 -0.004241081
 -0.00421758 -0.004201176 -0.004186027 -0.004171703 -0.004147844 -0.004111462 -0.00405839 -0.003986342 -0.003903895 -0.003811201
 -0.003722007 -0.003637042 -0.003562841 -0.003499071 -0.003443301 -0.003395024 -0.003349985 -0.003308499 -0.003269442 -0.003233325
 -0.003201242 -0.003172319 -0.003146357 -0.003120485 -0.003091898 -0.003057102 -0.003012268 -0.002956311 -0.002887257 -0.00280661
 -0.002714439 -0.002612294 -0.002500449 -0.002380385 -0.002251841 -0.002120036 -0.001985214 -0.001854726 -0.001728989 -0.001610443
 -0.001498768 -0.001390004 -0.001284085 -0.001178468 -0.001073913 -0.000972215 -0.0008731148 -0.0007772765 -0.0006832122 -0.0005877841
 -0.0004927417 -0.0003974565 -0.0003080158 -0.0002292056 -0.0001644887 -0.0001186612 -8.669107E-05 -6.851328E-05 -5.644772E-05 -4.810031E-05
 -4.131217E-05 -3.525999E-05 -3.05794E-05 -2.759504E-05 -2.212387E-05 -1.396642E-05 5.307048E-06 3.593683E-05 8.3265E-05 0.0001466127
 0.000224876 0.0003166216 0.0004167222 0.0005228208 0.0006275936 0.0007273042 0.0008125899 0.0008808644 0.0009236521 0.0009458127
 0.0009453002 0.000937355 0.0009276692 0.0009349812 0.000968912 0.001035224 0.001142083 0.001262993 0.001397012 0.001505333
 0.001582338 0.001624137 0.001630026 0.001620959 0.001597879 0.001577928 0.001561099 0.001556007 0.001561926 0.001581287
 0.001612355 0.00165233 0.001699314 0.001748508 0.001799718 0.001850618 0.001902244 0.001955518 0.002008551 0.002061645
 0.002109061 0.002148176 0.002177204 0.002193607 0.002205714 0.002213944 0.00222963 0.002254522 0.002289611 0.002335205
 0.002379436 0.002421577 0.002448302 0.002459847 0.002451032 0.002423054 0.00237748 0.002315732 0.002241319 0.002157151
 0.002068395 0.001981106 0.001903923 0.001843047 0.001807775 0.001797184 0.001815445 0.001852315 0.00190572 0.001963557
 0.002021505 0.002075847 0.002124134 0.002173784 0.002225067 0.0022877 0.00236247 0.002446866 0.002540171 0.002628858
 0.00271263 0.002782032 0.002839383 0.002888382 0.002932323 0.002981778 0.003038182 0.003109786 0.003194285 0.003293232
 0.003400763 0.003513076 0.003623639 0.003727271 0.003821297 0.003902725 0.003973933 0.004034484 0.004089264 0.004138408
 0.004190042 0.004244696 0.004312812 0.004395186 0.004495685 0.004613734 0.004738016 0.004866776 0.00498135 0.005082095
 0.005159756 0.00521751 0.005259131 0.005287107 0.005307953 0.005322154 0.005332777 0.005340036 0.00534538 0.005347903
 0.00534813 0.005342699 0.005329637 0.005309602 0.00528077 0.005252897 0.005227482 0.005212196 0.005209372 0.005208833
 0.005210305 0.005194246 0.005160467 0.005106614 0.005035894 0.004971456 0.004916042 0.00489536 0.004905656 0.00495181
 0.005024542 0.00510978 0.005198301 0.005272666 0.005327104 0.00534951 0.005340979 0.005296369 0.005226997 0.005134823
 0.005035294 0.004934257 0.004836036 0.0047437 0.004648751 0.004550232 0.00444441 0.004330583 0.004220183 0.004113711
 0.004021678 0.003942387 0.003867239 0.003793902 0.003705343 0.003605659 0.003495193 0.003384219 0.003293702 0.003227375
 0.003203365 0.003208139 0.003238897 0.00327327 0.003295616 0.003294286 0.003258435 0.003192276 0.003094257 0.00297279
 0.002828934 0.002670325 0.002497054 0.002323714 0.002150935 0.00200347 0.001881724</values></Ydata></AB><ScSm><Ydata ylabel="Single channel"><values byteorder="INTEL" format="FLOAT32" numvalues="1814"> 0.08550259 0.08560572 0.08573059 0.08588272 0.08605036 0.08621372 0.08635819 0.08648322 0.08659722 0.08670312
 0.08679864 0.08689363 0.08701181 0.08716626 0.08734103 0.08750218 0.08762437 0.08771332 0.08780658 0.08793857
 0.08809435 0.08820938 0.08822885 0.08816582 0.08809403 0.08808179 0.08814715 0.08829147 0.08854085 0.08888194
 0.08917141 0.0892272 0.08905455 0.08887922 0.08889805 0.08908267 0.08927016 0.0893447 0.08928423 0.08914655
 0.0890927 0.08933475 0.0899422 0.09068643 0.091113 0.0908037 0.08965458 0.08802647 0.08665878 0.08628327
 0.08709548 0.08853519 0.08970535 0.09009533 0.08985759 0.08942335 0.08905448 0.08883688 0.08887854 0.08929067
 0.09000382 0.0906956 0.09091673 0.09038518 0.08930494 0.08832941 0.08802877 0.08844893 0.08931115 0.09035013
 0.09105945 0.09044049 0.087888 0.08452615 0.08285472 0.084439 0.08827201 0.09182203 0.09333817 0.09277595
 0.09106174 0.08927533 0.08836627 0.08883107 0.09038912 0.09226078 0.09378601 0.09460023 0.0944719 0.09341233
 0.0918927 0.09064317 0.09024575 0.09096589 0.09264649 0.09454539 0.09563206 0.09539917 0.09424217 0.09294716
 0.09211163 0.09211788 0.09316486 0.09503115 0.09709474 0.09879285 0.0999143 0.1004756 0.1005842 0.1004166
 0.1001325 0.09985055 0.09976718 0.1000534 0.1005151 0.1006364 0.1001539 0.09941491 0.09902731 0.09923497
 0.09971017 0.0999489 0.09976994 0.09922344 0.09808052 0.09594332 0.09306365 0.09047313 0.08897625 0.08858661
 0.08918195 0.09084332 0.09306003 0.09448975 0.09431002 0.09332873 0.09311092 0.09428604 0.09615275 0.09769753
 0.09857862 0.09917939 0.1000104 0.101133 0.1020172 0.1019342 0.1007019 0.09914723 0.09855765 0.09943691
 0.1010144 0.1021899 0.1026873 0.1030206 0.1035854 0.1040859 0.1037932 0.1023264 0.100311 0.09916091
 0.09991193 0.1021959 0.1044347 0.105035 0.1035208 0.1007888 0.09835695 0.09727621 0.09772108 0.09942286
 0.1020446 0.1050189 0.1074576 0.1086009 0.1083433 0.1072149 0.1058044 0.1042103 0.1022483 0.100303
 0.09955297 0.1008682 0.1036918 0.1064838 0.1081411 0.1086098 0.1082604 0.1071434 0.1050858 0.1024588
 0.100522 0.1004911 0.102153 0.1039193 0.1045152 0.104173 0.1039067 0.1041268 0.1044182 0.1043901
 0.1042597 0.1045421 0.105392 0.1064052 0.1070461 0.1071395 0.1069085 0.1066597 0.1064932 0.1062449
 0.1057413 0.1051869 0.1051471 0.105951 0.1072491 0.1083663 0.1089675 0.1091858 0.1092116 0.1089665
 0.1082355 0.1070894 0.1060849 0.1058697 0.1065548 0.1076313 0.1085104 0.1089616 0.1090533 0.1089296
 0.1087132 0.1084743 0.1082484 0.108121 0.1082113 0.1085119 0.1088445 0.1090378 0.1090673 0.1089898
 0.108828 0.1085733 0.1082603 0.1079914 0.1078737 0.1079323 0.1081041 0.1083036 0.1084623 0.108517
 0.1084314 0.1082428 0.1080377 0.1078719 0.1077497 0.1076734 0.1076644 0.1077249 0.1078111 0.1078654
 0.1078638 0.1078176 0.1077409 0.1076369 0.1075155 0.1074045 0.1073368 0.1073278 0.1073608 0.1073965
 0.1074175 0.1074506 0.1075178 0.1075797 0.10757 0.10748 0.1073707 0.1073059 0.1073013 0.1073327
 0.1073638 0.107361 0.107298 0.1071726 0.1070298 0.1069502 0.1069893 0.1071358 0.1073391 0.1075534
 0.1077401 0.1078653 0.1079262 0.1079566 0.107986 0.1080132 0.1080263 0.1080348 0.108072 0.108171
 0.1083309 0.1085102 0.1086612 0.1087646 0.1088285 0.1088784 0.1089521 0.109068 0.109189 0.1092537
 0.1092573 0.1092646 0.109332 0.1094426 0.109535 0.1095755 0.1095872 0.1096152 0.1096774 0.1097549
 0.1098239 0.1098848 0.1099585 0.1100562 0.1101546 0.110205 0.11018 0.1101085 0.1100485 0.1100279
 0.1100324 0.1100467 0.1100769 0.1101276 0.1101776 0.1101947 0.1101704 0.110129 0.1100998 0.1100833
 0.1100536 0.1099919 0.1099065 0.1098211 0.1097505 0.1096931 0.1096357 0.109564 0.1094716 0.109363
 0.1092461 0.1091233 0.108992 0.1088555 0.1087351 0.1086609 0.1086357 0.1086102 0.1085141 0.108321
 0.1080757 0.1078514 0.1076871 0.1075663 0.107446 0.1072984 0.1071296 0.1069665 0.1068289 0.1067169
 0.1066185 0.1065264 0.1064478 0.1064022 0.1064023 0.1064305 0.1064421 0.106404 0.1063294 0.1062622
 0.1062317 0.1062349 0.1062548 0.106281 0.106315 0.1063659 0.1064391 0.1065215 0.1065878 0.1066286
 0.1066638 0.1067233 0.106824 0.1069642 0.1071245 0.1072707 0.1073771 0.1074536 0.1075375 0.1076558
 0.1078039 0.1079645 0.1081316 0.108311 0.1085066 0.1087162 0.1089384 0.1091776 0.1094392 0.1097208
 0.11001 0.1102922 0.1105646 0.1108409 0.1111408 0.1114736 0.1118296 0.1121883 0.1125341 0.1128678
 0.1132027 0.1135499 0.1139079 0.114271 0.1146417 0.1150278 0.1154282 0.1158315 0.1162293 0.1166239
 0.1170213 0.1174219 0.1178223 0.1182241 0.1186387 0.1190782 0.1195354 0.1199778 0.1203744 0.1207273
 0.1210702 0.1214362 0.1218342 0.122248 0.1226479 0.1230095 0.1233361 0.1236585 0.1240024 0.1243612
 0.1247131 0.1250595 0.1254284 0.1258358 0.1262565 0.1266403 0.1269581 0.12723 0.1275027 0.1278005
 0.1281034 0.1283782 0.1286215 0.1288616 0.1291216 0.129399 0.1296849 0.1299843 0.1303034 0.1306269
 0.1309286 0.1312003 0.1314559 0.1317078 0.131952 0.1321758 0.1323724 0.1325495 0.1327276 0.132925
 0.1331391 0.1333527 0.13356 0.1337763 0.1340176 0.134284 0.1345696 0.1348757 0.135203 0.135538
 0.1358654 0.1361933 0.1365466 0.1369268 0.1372941 0.1376072 0.137871 0.1381233 0.1383883 0.1386648
 0.1389547 0.1392753 0.1396359 0.1400209 0.1404013 0.1407578 0.1410956 0.1414404 0.1418115 0.1421939
 0.142544 0.1428329 0.1430749 0.1433135 0.143584 0.1438922 0.1442188 0.1445382 0.1448326 0.1450902
 0.1452941 0.1454266 0.1454887 0.1455044 0.1454934 0.1454433 0.1453184 0.1450903 0.1447492 0.1442892
 0.1436975 0.1429679 0.1421273 0.1412477 0.1404343 0.1397966 0.1394188 0.1393449 0.1395772 0.1400753
 0.1407552 0.1415006 0.1421891 0.1427157 0.1430012 0.1429972 0.1426955 0.1421315 0.1413696 0.1404826
 0.1395386 0.1385939 0.1376915 0.1368775 0.1362325 0.1358834 0.1359723 0.1366051 0.1378104 0.1395175
 0.141553 0.1436788 0.1456751 0.1474179 0.1488948 0.1501586 0.1512744 0.1522942 0.1532529 0.1541684
 0.1550432 0.1558719 0.1566501 0.1573744 0.1580369 0.1586249 0.159124 0.1595209 0.1598075 0.1599909
 0.1600954 0.1601537 0.1601966 0.1602489 0.1603192 0.1603802 0.1603666 0.1602071 0.1598651 0.1593606
 0.1587764 0.1582595 0.1580122 0.1582462 0.1590967 0.1605391 0.1623785 0.1643384 0.1661818 0.1677747
 0.1690762 0.1701059 0.1709204 0.17159 0.1721733 0.1727073 0.173211 0.1736906 0.1741457 0.1745782
 0.1749963 0.1754118 0.175834 0.176266 0.1767015 0.17713 0.1775467 0.1779574 0.1783725 0.1787983
 0.179232 0.179665 0.1800936 0.1805246 0.1809643 0.1814028 0.1818205 0.1822113 0.1825896 0.1829758
 0.1833795 0.1837972 0.1842163 0.1846206 0.1850007 0.185361 0.1857139 0.1860671 0.1864191 0.1867653
 0.1871064 0.1874475 0.1877924 0.1881401 0.1884876 0.1888325 0.1891703 0.189494 0.1898013 0.1901007
 0.1904045 0.1907173 0.1910338 0.1913466 0.1916544 0.1919625 0.1922773 0.1926008 0.192927 0.1932457
 0.1935511 0.1938455 0.1941376 0.1944362 0.194743 0.195053 0.1953603 0.1956635 0.1959647 0.1962662
 0.1965695 0.1968744 0.197179 0.1974807 0.1977802 0.1980807 0.1983832 0.1986837 0.1989778 0.1992672
 0.1995599 0.1998606 0.2001641 0.2004591 0.2007405 0.2010126 0.201283 0.2015574 0.2018386 0.2021262
 0.202417 0.2027077 0.2029975 0.2032868 0.203575 0.2038622 0.2041496 0.2044389 0.2047295 0.2050178
 0.2053016 0.2055838 0.2058695 0.2061581 0.206444 0.2067224 0.2069949 0.2072658 0.2075388 0.2078155
 0.2080945 0.2083738 0.208652 0.2089275 0.209198 0.2094646 0.2097321 0.2100035 0.2102777 0.2105529
 0.2108285 0.2111024 0.2113718 0.2116371 0.2119032 0.2121745 0.2124516 0.21273 0.2130056 0.2132787
 0.2135518 0.2138247 0.2140955 0.2143656 0.2146368 0.2149071 0.2151745 0.2154417 0.2157126 0.2159885
 0.2162683 0.2165484 0.2168229 0.2170894 0.2173522 0.2176176 0.2178886 0.2181643 0.2184415 0.2187157
 0.2189865 0.2192594 0.2195389 0.2198237 0.2201096 0.2203926 0.2206712 0.2209484 0.2212301 0.2215175
 0.2218063 0.2220946 0.2223811 0.2226609 0.2229294 0.2231879 0.2234405 0.2236914 0.223946 0.2242072
 0.2244718 0.2247347 0.2249937 0.2252486 0.2255019 0.2257598 0.2260272 0.2263034 0.226586 0.2268734
 0.2271614 0.2274457 0.2277271 0.2280089 0.2282912 0.2285742 0.2288591 0.2291444 0.2294287 0.2297156
 0.2300078 0.2303015 0.2305937 0.2308851 0.2311759 0.2314657 0.2317579 0.2320545 0.2323519 0.2326498
 0.232951 0.2332526 0.2335489 0.2338414 0.2341349 0.2344304 0.234728 0.2350277 0.2353262 0.2356214
 0.2359169 0.2362126 0.2365047 0.2367973 0.2370985 0.2374054 0.2377102 0.2380127 0.2383138 0.2386103
 0.2389054 0.2392051 0.2395043 0.2397965 0.2400858 0.2403741 0.2406548 0.2409276 0.2411988 0.2414617
 0.2416939 0.2418411 0.2417552 0.2411215 0.2394176 0.2359233 0.2298567 0.2206803 0.2084203 0.1937684
 0.1778942 0.1620783 0.1473597 0.1343937 0.1235337 0.1149666 0.1088029 0.1051604 0.1042366 0.1064096
 0.1123661 0.1226882 0.1363556 0.1494624 0.1566859 0.1553157 0.1477085 0.1391516 0.1335648 0.1315829
 0.1318855 0.1331602 0.1348786 0.1371593 0.1403217 0.1444177 0.1491756 0.1544485 0.1604806 0.1675244
 0.1753389 0.1832738 0.1908122 0.1979023 0.2047677 0.2115069 0.2179367 0.2237671 0.2288267 0.2331196
 0.2367639 0.2399174 0.2427184 0.2452561 0.2475897 0.2497537 0.251713 0.2533418 0.2544994 0.2551439
 0.2553831 0.2554226 0.2554513 0.2555616 0.2557651 0.2560535 0.2564235 0.2568672 0.257372 0.2579251
 0.2585064 0.2590936 0.259677 0.2602552 0.2608209 0.261364 0.2618794 0.2623636 0.2628164 0.2632466
 0.2636631 0.2640663 0.2644561 0.264839 0.2652202 0.2655995 0.2659758 0.2663437 0.2666922 0.2670154
 0.2673177 0.2676042 0.2678775 0.2681432 0.268408 0.268672 0.2689326 0.2691895 0.2694436 0.2696951
 0.2699463 0.2701978 0.2704462 0.2706907 0.2709353 0.271181 0.2714251 0.2716664 0.2719067 0.2721471
 0.2723887 0.2726321 0.2728735 0.2731092 0.2733424 0.2735807 0.2738301 0.2740934 0.2743671 0.2746409
 0.2749075 0.2751722 0.2754441 0.2757235 0.2760054 0.2762882 0.2765717 0.2768551 0.2771381 0.2774198
 0.2776935 0.2779481 0.2781781 0.2783903 0.2786022 0.27883 0.279074 0.2793203 0.2795585 0.2797922
 0.2800299 0.2802751 0.2805274 0.2807837 0.2810418 0.2813058 0.2815824 0.2818688 0.2821534 0.2824315
 0.2827102 0.2829964 0.2832898 0.283587 0.2838832 0.2841695 0.2844394 0.2846977 0.2849633 0.2852588
 0.2855884 0.2859275 0.2862441 0.2865317 0.2868112 0.2871045 0.2874178 0.2877376 0.2880315 0.2882708
 0.2884725 0.2887028 0.2890195 0.2894173 0.2898417 0.2902445 0.2906164 0.2909749 0.2913341 0.2916874
 0.292014 0.2922994 0.2925568 0.2928305 0.2931679 0.2935739 0.2940019 0.2944024 0.2947626 0.2950937
 0.2954073 0.2957129 0.2960024 0.2962304 0.2963599 0.2964468 0.296632 0.2970091 0.2975224 0.2980272
 0.2984345 0.2987671 0.2990836 0.2994006 0.299702 0.2999565 0.3000875 0.3000103 0.2997897 0.2996964
 0.2999878 0.3006476 0.3014179 0.3020607 0.3025162 0.3028471 0.3031302 0.3034043 0.3036456 0.3037707
 0.3037237 0.3036007 0.3036335 0.3039784 0.3045422 0.3050875 0.3054832 0.3057755 0.3060549 0.3063525
 0.3066255 0.3067345 0.3065016 0.3059552 0.3054944 0.3056278 0.3064803 0.307651 0.3086137 0.3091848
 0.3095226 0.3097588 0.309805 0.3095185 0.3088802 0.3080008 0.307164 0.3068711 0.307515 0.3088757
 0.3102108 0.3109996 0.3113894 0.3118167 0.3124384 0.3130687 0.3134824 0.3136149 0.3135236 0.3132575
 0.3128338 0.3123898 0.3122718 0.3127916 0.3138641 0.3150283 0.3158807 0.3163927 0.3167233 0.316752
 0.3159602 0.3140458 0.3117257 0.3105548 0.3115476 0.3141121 0.316689 0.3182921 0.3190498 0.3194787
 0.3198098 0.3199208 0.3193248 0.3173312 0.3139856 0.3108909 0.3102345 0.312632 0.316438 0.3193421
 0.3201323 0.31894 0.316653 0.3145095 0.3136602 0.3145406 0.3166853 0.3192038 0.3213168 0.322569
 0.3228597 0.3224016 0.321632 0.3210927 0.3210875 0.3212286 0.3206821 0.3192506 0.3177536 0.3167668
 0.3155668 0.313316 0.3109327 0.3105193 0.3127601 0.31593 0.3178938 0.3182911 0.3181457 0.3178007
 0.3160815 0.3118435 0.3060925 0.3019499 0.3019785 0.3056217 0.3097533 0.3117461 0.3115504 0.3108014
 0.3105288 0.3100758 0.3080916 0.304453 0.3010092 0.2999303 0.3012795 0.3029215 0.3028839 0.3007438
 0.2966046 0.2905945 0.2844742 0.2819745 0.2855025 0.2931392 0.3003297 0.3038116 0.3026389 0.296832
 0.2877021 0.2792499 0.2763646 0.2803165 0.2872714 0.2919978 0.2919904 0.287582 0.2798072 0.269935
 0.2605594 0.2552871 0.2564375 0.2631801 0.2717123 0.2769281 0.2750255 0.2665362 0.2570615 0.2530572
 0.2557811 0.2604786 0.261985 0.2595827 0.2559284 0.2534205 0.2528702 0.2539712 0.2556617 0.2569596
 0.2577266 0.2572936 0.2530604 0.2433919 0.2319597 0.2257951 0.2280226 0.2353373 0.2433662 0.2510481
 0.2581699 0.2622229 0.2610839 0.257242 0.2562054 0.2606353 0.2678199 0.2731362 0.2747396 0.274309
 0.273968 0.2737136 0.2725106 0.2711042 0.2720544 0.276531 0.2824686 0.2868042 0.2885507 0.2887967
 0.2886508 0.2883155 0.2876527 0.2866364 0.2853119 0.2838195 0.2823839 0.2810697 0.2797369 0.2783254
 0.2767807 0.2744349 0.2700646 0.2634889 0.2569314 0.2534935 0.2539132 0.2561079 0.2581851 0.2598252
 0.2597754 0.2548112 0.2439584 0.2322805 0.2273958 0.2321166 0.2422116 0.2511522 0.2552665 0.2541932
 0.2486739 0.2402104 0.2326453 0.2314995 0.2397062 0.2545314 0.2700334 0.2820899 0.28995 0.2939165
 0.2937841 0.2900494 0.2852534 0.2829759 0.2853939 0.2918745 0.2994846 0.3043405 0.303283 0.2964901
 0.2892597 0.2887947 0.2969929 0.3078557 0.3140891 0.314755 0.3141741 0.3151037 0.3163854 0.3167407
 0.3174316 0.3201275 0.3241524 0.3270431 0.3267575 0.3225375 0.314894 0.3061877 0.3002526 0.2993852
 0.3018388 0.3038477 0.3034967 0.3007737 0.2952115 0.2869014 0.2794396 0.2780038 0.2834719 0.2910966
 0.2959192 0.2973927 0.2978532 0.2983245 0.2973193 0.2933384 0.2875243 0.2831624 0.2824447 0.2843852
 0.2864104 0.2871312 0.2865672 0.2845514 0.2807224 0.2762037 0.2737519 0.2753232 0.2800041 0.2849254
 0.28792 0.2888561 0.2887912 0.2886358 0.2886712 0.2887086 0.2885301 0.2885174 0.289695 0.2925985
 0.2962753 0.2991297 0.3007514 0.3022479 0.304689 0.3078023 0.3104 0.3117044 0.3120445 0.3124571
 0.3137602 0.3158828 0.3179315 0.3189691 0.3189166 0.3187241 0.3195037 0.3214606 0.3238083 0.3256773
 0.3268547 0.3276587 0.3284307 0.3292486 0.3298949 0.330042 0.3296877 0.3294127 0.3299486 0.3314195
 0.3331957 0.3345309 0.335173 0.3353259 0.3352291 0.334931 0.3344061 0.3337412 0.3331411 0.3327745
 0.3326599 0.3326988 0.3327829 0.3328536 0.3329013 0.3329504 0.3330362 0.3331715 0.3333396 0.3335243
 0.33372 0.3339037 0.3340356 0.3341073 0.3341548 0.3341947 0.3341759 0.3340121 0.3336397 0.3330248
 0.3321388 0.3309527 0.3294417 0.3275727 0.3253127 0.3227322 0.3201717 0.318273 0.3177134 0.3187757
 0.3211223 0.3239883 0.3266174 0.328589 0.329851 0.330556 0.3308909 0.3309995 0.3309736 0.33086
 0.3306735 0.3304237 0.3301328 0.329833 0.3295528 0.3293122 0.3291206 0.3289729 0.328846 0.3287025
 0.3285025 0.3282188 0.3278441 0.3273829 0.3268379 0.3262013 0.3254534 0.3245764 0.323577 0.3225014
 0.3214197 0.3203875 0.3194122 0.3184508 0.3174441 0.3163459 0.3151088 0.3136648 0.311986 0.3101838
 0.3084847 0.3070493 0.3058303 0.3046403 0.3033288 0.3018604 0.3002658 0.2985838 0.2968513 0.295101
 0.2933446 0.2915681 0.2897457 0.2878559 0.2858922 0.2838626 0.2817767 0.2796384 0.277455 0.2752397
 0.272983 0.270613 0.2679926 0.2649595 0.2613724 0.2571391 0.2522325 0.246712 0.2407354 0.2345317
 0.2283416 0.2223704 0.2167816 0.2117158 0.2072997 0.2036397 0.2008111 0.1988547 0.1977827 0.1975892
 0.1982541 0.199735 0.2019542 0.2047888 0.2080689 0.2115911 0.215141 0.2185262 0.2216217 0.2244121
 0.2269785 0.2294187 0.2317666 0.2339874 0.236034 0.2378874 0.2395457 0.2409995 0.242233 0.2432454
 0.2440644 0.2447355 0.2452983 0.2457695 0.2461446 0.2464145 0.2465852 0.2466863 0.2467629 0.2468596
 0.247008 0.247221 0.2474965 0.247831 0.2482321 0.2487165 0.2492972 0.2499707 0.2507187 0.2515211
 0.2523728 0.253289 0.2543022 0.2554576 0.256806 0.2583855 0.2602 0.2622094 0.2643331 0.2664583
 0.2684579 0.2702216 0.2716832 0.2728258 0.2736657 0.2742324 0.2745578 0.2746767 0.2746254 0.2744344
 0.2741257 0.2737208 0.2732462 0.2727218 0.2721441 0.2714911 0.2707489 0.269935 0.2690906 0.2682513
 0.2674327 0.26664 0.2658743 0.2651262 0.2643791 0.2636241 0.2628677 0.2621225 0.2614013 0.2607119
 0.260049 0.2593872 0.2586848 0.2578931 0.2569667 0.2558752 0.2546066 0.2531614 0.2515493 0.2497901
 0.2479067 0.2459177 0.2438392 0.241687 0.2394706 0.2371893 0.2348314 0.232382 0.2298488 0.2272916
 0.2248092 0.2224828 0.220335 0.2183413 0.2164679 0.2146951 0.2130167 0.2114236 0.2098979 0.2084261
 0.2070103 0.2056573 0.2043717 0.2031639 0.2020499 0.2010394 0.2001358 0.1993428 0.1986585 0.1980704
 0.1975631 0.1971258 0.1967605 0.1964963 0.1963759 0.1963989 0.1964897 0.1965437 0.1964986 0.1963617
 0.1961882 0.1960348 0.1959232 0.1958421 0.1957705 0.195672 0.1954718 0.1950701 0.194376 0.1933193
 0.1918588 0.1900068 0.1878426 0.1855028 0.1831604 0.1809896 0.1791155 0.1775952 0.1764287 0.1755623
 0.1748995 0.1743597 0.1739371 0.1736936 0.173701 0.1739618 0.1743491 0.1746603 0.1747961 0.1748708
 0.1751073 0.1756443 0.176458 0.1774172 0.1783745 0.1792293 0.1799335 0.180464 0.1808216 0.1810411
 0.1811579 0.1811714 0.1810675 0.1808488 0.1805233 0.1800992 0.1795974 0.1790307 0.1783824 0.177637
 0.1768006 0.1758728 0.1748403 0.1736966 0.1724242 0.1709924 0.169453 0.1680185 0.1669894 0.1665974
 0.1668876 0.1676985 0.1687728 0.1699257 0.1710681 0.1720916 0.1728793 0.1734945 0.1742551 0.1755253
 0.1774147 0.1796682 0.1818371 0.1835671 0.1847229 0.1852956 0.1853168 0.1848582 0.183979 0.182669
 0.1809335 0.1788799 0.1766464 0.1743494 0.1721309 0.1701237 0.1683774 0.1669073 0.1657274 0.1648434
 0.164322 0.1638963 0.1620057 0.1563325 0.1470711 0.1390671 0.1381688 0.1449291 0.1538524 0.1593021
 0.1602962 0.1591846 0.1579332 0.1569754 0.1562449 0.1558127 0.1557283 0.155886 0.1560723 0.1560645
 0.155765 0.1551857 0.1542003 0.1523161 0.1486676 0.1423265 0.1329881 0.1216048 0.110183 0.1007188
 0.094211 0.09045324 0.08846802 0.08718745 0.0860645 0.08525936 0.08527788 0.08645733 0.08877949 0.09202495
 0.09593029 0.1001582 0.1042453 0.1077513 0.1104934 0.112554 0.1140587 0.1150426 0.1155201 0.1155536
 0.1152238 0.1146059 0.1137754 0.1127766 0.1115945 0.1102073 0.1086837 0.1072191 0.1060535 0.1053167
 0.1049493 0.1047915 0.1047266 0.1047174 0.1047605 0.1048584 0.1050118 0.1052118 0.1054541 0.1057511
 0.1060959 0.1064362 0.1067136 0.10691 0.1070374 0.1070963 0.107053 0.106864 0.1065471 0.1061962
 0.1058501 0.1053673 0.1045376 0.1033522 0.1021085 0.1012273 0.1009672 0.1012707 0.1018299 0.1023156
 0.1025849 0.1026995 0.1027677 0.1027857</values></Ydata></ScSm><ScRf><Ydata ylabel="Single channel"><values byteorder="INTEL" format="FLOAT32" numvalues="1820"> 0.06972258 0.06985295 0.06996981 0.07007123 0.07016125 0.07025141 0.0703554 0.07047895 0.07061565 0.07075199
 0.07087606 0.07098477 0.07108145 0.07116714 0.07124214 0.07131723 0.07141235 0.07153741 0.07168093 0.0718188
 0.07193147 0.07201895 0.0721046 0.07221246 0.07233231 0.07241718 0.07242757 0.07237642 0.07232277 0.07231908
 0.07237688 0.07249671 0.07270206 0.07298548 0.07323199 0.07329186 0.07316546 0.07303321 0.07305469 0.07320742
 0.07335925 0.07341637 0.07336197 0.0732446 0.07319748 0.07339647 0.07390042 0.07452071 0.07487977 0.07462963
 0.07368392 0.072341 0.07121131 0.07089862 0.07156509 0.07275008 0.07371528 0.07404131 0.07385492 0.07351039
 0.07321933 0.07304771 0.07308291 0.07341892 0.07400203 0.074568 0.07474604 0.07430433 0.07341379 0.07261529
 0.07237731 0.07273355 0.07345155 0.07431307 0.07490104 0.07439078 0.07228311 0.06950928 0.06813606 0.06945471
 0.07262997 0.07556821 0.07682249 0.07635674 0.07493935 0.073467 0.07272553 0.07312049 0.07441372 0.0759595
 0.07721622 0.07788786 0.077786 0.07691942 0.07567403 0.07464965 0.07432617 0.07492439 0.07631605 0.07788802
 0.07878736 0.07859275 0.07763074 0.0765546 0.07586414 0.07587883 0.07676158 0.07832427 0.08004712 0.08146071
 0.08238968 0.08285128 0.08293968 0.08280399 0.08257474 0.08234704 0.08228096 0.08251798 0.08289908 0.08300008
 0.08260551 0.08200395 0.08169742 0.08188473 0.08229089 0.08249662 0.08235272 0.08190225 0.08095566 0.07918249
 0.07679288 0.07464573 0.07341136 0.07310124 0.0736108 0.07500251 0.07684964 0.07804001 0.07789615 0.07709181
 0.07692406 0.0779108 0.07946751 0.08075348 0.08148633 0.0819845 0.082672 0.0836012 0.084335 0.084272
 0.08326352 0.08199513 0.08153043 0.08228096 0.08360432 0.08459114 0.08501796 0.08531219 0.08579735 0.08622409
 0.0859904 0.08478826 0.08314109 0.08221802 0.08286993 0.08478634 0.08665873 0.08716846 0.08592352 0.08367094
 0.08167343 0.08080402 0.08120733 0.08265951 0.08487889 0.08739133 0.08945791 0.09044813 0.0902746 0.08937731
 0.08824383 0.08695254 0.08534846 0.08375779 0.08317365 0.08432578 0.08674312 0.08913098 0.09056666 0.09100978
 0.09077281 0.08989322 0.08821929 0.08606342 0.08449306 0.08453619 0.08600809 0.08756111 0.08811805 0.08787939
 0.08770671 0.08795045 0.08826123 0.08830784 0.08827186 0.08858746 0.08938435 0.09031889 0.09093626 0.09108838
 0.09096665 0.09083266 0.09076941 0.0906333 0.09027489 0.08987345 0.08991823 0.09069188 0.09188987 0.09292746
 0.09351596 0.09377466 0.09387244 0.09374167 0.09319191 0.09228078 0.09149139 0.09138887 0.09207125 0.09309489
 0.09394485 0.09441853 0.09457615 0.0945458 0.09443773 0.09431556 0.0942094 0.09418774 0.09434831 0.09468526
 0.09504995 0.09529781 0.09540634 0.09541948 0.09535325 0.09520206 0.09500262 0.09484963 0.09483474 0.09497353
 0.09520571 0.09545735 0.0956714 0.09579372 0.09579161 0.09569751 0.09558965 0.09551986 0.09549209 0.09550524
 0.0955747 0.09570116 0.09584688 0.09596181 0.09602404 0.09604406 0.096038 0.09601297 0.09597762 0.09595175
 0.09596084 0.09602004 0.09611823 0.09622283 0.09631706 0.09642095 0.09654988 0.09666701 0.09671496 0.09668861
 0.09664332 0.0966353 0.09667885 0.09675513 0.0968352 0.09688936 0.09689121 0.09683562 0.09676211 0.09674345
 0.09683008 0.09701291 0.09724817 0.09749491 0.09771648 0.09788185 0.09799129 0.0980773 0.09816362 0.09824225
 0.09829939 0.09834646 0.09841913 0.0985504 0.09874021 0.09895025 0.09913534 0.09927456 0.09937252 0.0994521
 0.09955064 0.0996896 0.09983725 0.09993593 0.09997873 0.100025 0.1001261 0.1002638 0.1003785 0.1004389
 0.100469 0.1005151 0.1005989 0.1007047 0.1008056 0.1008961 0.1009951 0.1011177 0.1012442 0.1013258
 0.1013324 0.1012886 0.1012496 0.1012443 0.1012642 0.1012998 0.101361 0.1014505 0.1015403 0.1015908
 0.1015902 0.1015681 0.1015628 0.1015811 0.1015936 0.1015711 0.1015156 0.1014539 0.1014115 0.1013953
 0.101393 0.1013821 0.1013446 0.1012794 0.1012006 0.101123 0.1010508 0.1009836 0.1009343 0.1009277
 0.1009654 0.1009979 0.1009533 0.1008051 0.1006018 0.100422 0.1003064 0.1002337 0.1001527 0.1000295
 0.09986884 0.09970094 0.0995519 0.09942645 0.09931402 0.09920542 0.09910502 0.09903041 0.09899536 0.09898485
 0.0989539 0.09886496 0.09872647 0.09858309 0.09847198 0.09839895 0.0983499 0.0983097 0.09827336 0.09824937
 0.09824841 0.09826307 0.09826984 0.09825747 0.09824146 0.09824668 0.09828845 0.09836973 0.09847662 0.0985738
 0.09862812 0.0986455 0.09866903 0.09873302 0.09883337 0.09894726 0.09906507 0.09919219 0.09933224 0.09948282
 0.09964487 0.09982553 0.1000299 0.1002536 0.1004843 0.1007086 0.1009212 0.1011315 0.1013585 0.1016156
 0.1018979 0.1021869 0.102466 0.1027327 0.1029962 0.103265 0.1035395 0.1038185 0.1041084 0.1044161
 0.1047372 0.1050592 0.1053758 0.1056911 0.1060099 0.1063315 0.1066543 0.1069817 0.1073236 0.1076888
 0.1080698 0.1084367 0.1087601 0.1090408 0.1093112 0.1096053 0.1099331 0.1102784 0.110611 0.1109068
 0.1111698 0.1114308 0.1117143 0.1120131 0.1123067 0.112599 0.1129205 0.1132891 0.1136767 0.1140249
 0.1142972 0.1145135 0.1147269 0.1149685 0.1152226 0.1154589 0.1156737 0.1158876 0.116112 0.1163393
 0.1165678 0.1168143 0.11709 0.1173757 0.117638 0.1178644 0.1180689 0.1182654 0.1184489 0.1186033
 0.1187196 0.1188093 0.1189012 0.1190206 0.119165 0.1193114 0.1194479 0.1195884 0.1197502 0.1199339
 0.1201333 0.1203512 0.1205923 0.1208452 0.1210946 0.1213469 0.1216264 0.1219338 0.1222282 0.122468
 0.1226587 0.1228398 0.1230352 0.1232417 0.1234601 0.1237078 0.1239951 0.1243069 0.1246146 0.1249009
 0.1251729 0.125455 0.1257623 0.126075 0.1263491 0.12656 0.1267292 0.1269037 0.1271167 0.1273717
 0.1276516 0.127936 0.1282103 0.1284625 0.1286745 0.1288291 0.1289286 0.1289982 0.1290568 0.1290902
 0.1290607 0.1289388 0.128715 0.1283831 0.1279304 0.1273521 0.1266754 0.1259657 0.125313 0.1248062
 0.1245116 0.1244647 0.1246695 0.1250967 0.125679 0.1263202 0.1269192 0.1273892 0.1276603 0.1276831
 0.1274439 0.1269729 0.1263297 0.1255776 0.1247707 0.1239503 0.1231485 0.1224052 0.1217961 0.1214408
 0.1214703 0.1219755 0.1229714 0.1243836 0.1260516 0.1277665 0.129346 0.130702 0.1318464 0.1328363
 0.1337213 0.1345317 0.1352916 0.1360195 0.1367197 0.1373858 0.1380137 0.1386049 0.1391561 0.1396529
 0.1400763 0.1404106 0.1406507 0.1408071 0.1409016 0.1409538 0.1409752 0.1409757 0.1409636 0.1409274
 0.1408257 0.140607 0.1402436 0.1397536 0.1392081 0.1387325 0.1384952 0.1386648 0.139338 0.1404797
 0.1419283 0.14347 0.1449255 0.1461875 0.1472139 0.1480153 0.1486422 0.1491577 0.1496081 0.1500164
 0.1503961 0.1507598 0.1511163 0.1514669 0.1518098 0.152146 0.1524821 0.1528246 0.1531704 0.1535085
 0.1538343 0.1541576 0.1544943 0.1548505 0.1552162 0.1555741 0.1559171 0.1562544 0.1565973 0.1569417
 0.1572729 0.1575859 0.1578918 0.158205 0.1585319 0.1588713 0.1592148 0.1595485 0.1598613 0.1601548
 0.1604398 0.1607254 0.1610134 0.1613019 0.1615878 0.1618692 0.1621464 0.1624228 0.1627026 0.162986
 0.1632672 0.1635369 0.1637909 0.1640347 0.1642793 0.1645318 0.1647912 0.1650512 0.1653067 0.1655589
 0.1658144 0.166078 0.1663466 0.1666114 0.1668664 0.1671119 0.1673537 0.1675968 0.1678431 0.1680913
 0.1683393 0.1685864 0.1688332 0.1690816 0.1693339 0.1695898 0.1698451 0.1700954 0.1703391 0.1705791
 0.1708207 0.1710676 0.1713185 0.1715699 0.171821 0.1720744 0.1723303 0.172583 0.1728267 0.1730601
 0.173286 0.1735086 0.173732 0.1739592 0.1741915 0.1744296 0.1746724 0.174917 0.1751617 0.1754072
 0.1756542 0.1759003 0.1761434 0.1763838 0.1766233 0.1768627 0.1771026 0.177343 0.1775841 0.1778255
 0.1780664 0.1783047 0.178539 0.1787702 0.1790001 0.1792307 0.1794643 0.1797019 0.1799414 0.1801787
 0.1804106 0.1806368 0.1808612 0.1810904 0.181327 0.1815652 0.1817973 0.1820237 0.1822525 0.1824902
 0.1827352 0.182979 0.1832158 0.1834472 0.183678 0.1839094 0.1841404 0.1843729 0.1846097 0.1848497
 0.1850906 0.1853309 0.1855698 0.185808 0.1860488 0.1862931 0.1865367 0.1867761 0.1870128 0.18725
 0.1874887 0.1877296 0.1879718 0.1882127 0.1884522 0.1886939 0.1889395 0.1891875 0.1894383 0.189694
 0.1899537 0.1902144 0.1904736 0.1907293 0.1909814 0.191233 0.1914866 0.1917388 0.1919839 0.1922197
 0.1924464 0.1926665 0.1928856 0.1931072 0.1933293 0.1935502 0.1937709 0.193992 0.1942146 0.1944439
 0.1946832 0.1949292 0.1951773 0.1954267 0.1956782 0.1959315 0.1961876 0.196445 0.1966983 0.1969463
 0.1971946 0.1974477 0.1977062 0.1979707 0.1982386 0.1985033 0.1987633 0.1990243 0.1992894 0.1995553
 0.1998203 0.2000847 0.2003496 0.2006176 0.2008891 0.2011572 0.2014164 0.2016718 0.2019294 0.2021887
 0.2024505 0.2027203 0.2029983 0.2032787 0.203558 0.2038333 0.2041018 0.2043671 0.2046361 0.2049087
 0.205182 0.2054588 0.2057403 0.2060201 0.2062949 0.2065663 0.206833 0.2070944 0.2073564 0.2076205
 0.2078823 0.2081449 0.2084143 0.2086796 0.2089114 0.2090551 0.208984 0.208436 0.2069677 0.2039554
 0.1987165 0.190784 0.1801845 0.167518 0.1537935 0.1401171 0.12739 0.1161812 0.1067938 0.09938554
 0.09405163 0.09089763 0.09009933 0.09198838 0.09716244 0.1061264 0.1179932 0.1293715 0.135643 0.1344601
 0.127872 0.1204662 0.1156368 0.1139266 0.1141901 0.1152993 0.1168067 0.118815 0.1215889 0.1251604
 0.1292914 0.1338639 0.1391031 0.1452342 0.1520431 0.1589556 0.1655179 0.1716869 0.1776609 0.183526
 0.1891228 0.194201 0.1986131 0.2023619 0.2055482 0.2083099 0.2107681 0.2129988 0.2150491 0.2169464
 0.2186624 0.2200931 0.2211199 0.2217057 0.2219399 0.2219964 0.2220389 0.222152 0.2223506 0.2226272
 0.2229741 0.2233799 0.2238348 0.224333 0.2248624 0.2254038 0.225944 0.2264754 0.2269892 0.2274793
 0.227946 0.2283892 0.2288086 0.22921 0.2296005 0.2299806 0.2303495 0.23071 0.2310644 0.231413
 0.2317577 0.2320975 0.2324243 0.2327317 0.233021 0.2332962 0.2335614 0.2338231 0.2340863 0.2343497
 0.2346094 0.2348633 0.23511 0.2353505 0.2355909 0.2358351 0.2360793 0.2363188 0.2365546 0.2367903
 0.2370288 0.2372716 0.237516 0.2377557 0.2379887 0.2382188 0.2384496 0.238682 0.2389171 0.2391558
 0.2393993 0.2396517 0.2399166 0.2401898 0.2404626 0.2407316 0.2409978 0.241261 0.241522 0.2417855
 0.2420551 0.2423315 0.242614 0.2428983 0.243173 0.2434262 0.2436558 0.2438715 0.2440888 0.2443189
 0.2445613 0.2448058 0.2450457 0.2452841 0.2455265 0.2457734 0.2460219 0.2462676 0.2465095 0.2467548
 0.2470144 0.2472899 0.247573 0.247858 0.2481468 0.2484408 0.2487383 0.2490397 0.2493447 0.249645
 0.2499296 0.2501993 0.2504734 0.2507762 0.2511138 0.2514644 0.2517979 0.2521035 0.2523939 0.2526888
 0.2530013 0.2533267 0.253636 0.2538967 0.2541181 0.2543593 0.2546748 0.255061 0.2554673 0.2558473
 0.2561893 0.2565072 0.2568166 0.2571205 0.2574097 0.2576745 0.257922 0.2581841 0.2584979 0.2588655
 0.2592472 0.2596021 0.2599226 0.2602217 0.2605115 0.2607999 0.2610775 0.2613029 0.2614429 0.2615463
 0.2617369 0.2620987 0.2625857 0.2630714 0.2634749 0.2638105 0.2641249 0.2644332 0.2647275 0.2649865
 0.265141 0.265108 0.2649401 0.2648798 0.2651637 0.2657839 0.2665133 0.2671359 0.2675898 0.2679256
 0.2682126 0.2684899 0.2687399 0.2688906 0.268892 0.2688261 0.2688957 0.2692415 0.2697855 0.270316
 0.2707102 0.2710052 0.2712834 0.2715787 0.2718586 0.2720026 0.2718531 0.2714298 0.2710786 0.271246
 0.2720445 0.2731228 0.2740181 0.2745689 0.2749155 0.2751738 0.275263 0.2750548 0.2745316 0.2737915
 0.2730884 0.2728725 0.2734973 0.2747667 0.2760162 0.2767785 0.2771834 0.2776203 0.2782289 0.278842
 0.2792589 0.279426 0.279399 0.2792208 0.2789038 0.2785702 0.2785317 0.2790662 0.2800944 0.2812016
 0.2820249 0.2825374 0.2828839 0.282962 0.2823093 0.2806534 0.2786354 0.2776484 0.2786003 0.2809573
 0.2833217 0.2848139 0.2855535 0.2860031 0.2863646 0.2865256 0.2860513 0.2843271 0.2813973 0.2787014
 0.278201 0.2804439 0.2839478 0.2866351 0.287417 0.2864116 0.2844192 0.2825578 0.2818646 0.2827307
 0.2847361 0.2870799 0.2890621 0.2902731 0.2906205 0.2902915 0.2896782 0.2892722 0.289352 0.2895654
 0.2891534 0.2879377 0.2866683 0.2858732 0.2848949 0.2829641 0.2809049 0.2806234 0.2827479 0.2857217
 0.2876115 0.2880885 0.2880785 0.2878916 0.2864648 0.2827633 0.2777003 0.2741069 0.274308 0.2777993
 0.2817458 0.2837686 0.2838262 0.2833976 0.2834057 0.2832436 0.2816757 0.2785838 0.2756523 0.2748648
 0.2762802 0.2779442 0.2780528 0.2762214 0.2725438 0.2671368 0.2616252 0.2594497 0.26283 0.2700015
 0.2767746 0.2801506 0.2792572 0.2741042 0.2658974 0.2583402 0.2559668 0.2599596 0.2667677 0.2715438
 0.2719634 0.2683259 0.2615833 0.2529257 0.2448017 0.2406086 0.2425269 0.2497649 0.2587129 0.2645046
 0.2634985 0.256197 0.2479733 0.2450258 0.2485452 0.2539271 0.2561841 0.2546396 0.2518799 0.250238
 0.2505094 0.2523921 0.254826 0.2568293 0.2582504 0.2583731 0.2545319 0.2450641 0.2336853 0.2275074
 0.2297046 0.2369705 0.2449187 0.2524945 0.259494 0.2633961 0.2620481 0.2579159 0.2565002 0.2604617
 0.2670908 0.2717725 0.272674 0.2714866 0.2703581 0.2693343 0.2674297 0.2653939 0.2657465 0.2696387
 0.2750509 0.2789858 0.2804777 0.2805911 0.2804055 0.2801072 0.2795492 0.2787001 0.2776003 0.2763806
 0.2752572 0.2742946 0.2733546 0.2723706 0.2712783 0.2694113 0.2655561 0.2595288 0.2535204 0.2505857
 0.2514374 0.2540018 0.2564016 0.258317 0.2584921 0.2537071 0.2429809 0.2313444 0.2263829 0.2309061
 0.2407105 0.2493002 0.2530218 0.2515215 0.2455554 0.2366372 0.2285737 0.2267949 0.2341697 0.2480085
 0.2624891 0.2735857 0.2805879 0.283832 0.2831593 0.2790799 0.274063 0.2715517 0.2735978 0.2795191
 0.2864217 0.2905423 0.2888814 0.2816747 0.2740363 0.2728675 0.2800119 0.2898047 0.2953252 0.2956454
 0.2948149 0.2954363 0.2964388 0.2966341 0.2972074 0.2997209 0.3035449 0.3063842 0.3063378 0.302696
 0.2959222 0.2882046 0.2831122 0.2827683 0.2855005 0.2877563 0.2877473 0.2854752 0.2804989 0.2729109
 0.2661341 0.26508 0.2705648 0.2780707 0.2828986 0.2845431 0.285221 0.2858855 0.2851041 0.2814512
 0.2760363 0.2720203 0.2715181 0.2736069 0.2758456 0.2769182 0.2768346 0.2754002 0.2722295 0.2683932
 0.2665671 0.2686535 0.2737431 0.2789975 0.2822563 0.2833555 0.2833077 0.2829949 0.2826967 0.2822479
 0.2814699 0.2807753 0.2811993 0.2832986 0.2861862 0.288343 0.2893737 0.2903301 0.2922276 0.2948019
 0.2969143 0.2978123 0.2977914 0.2978192 0.2986642 0.3002655 0.3017921 0.3023747 0.3019611 0.301479
 0.3020038 0.303733 0.3059038 0.307665 0.3087906 0.3095683 0.3103178 0.311116 0.311761 0.3119439
 0.3116593 0.3114526 0.3120149 0.3134678 0.315219 0.3165627 0.3172598 0.3175042 0.3175208 0.3173479
 0.3169493 0.3163954 0.3158737 0.3155469 0.3154404 0.3154667 0.3155233 0.3155528 0.3155476 0.3155397
 0.3155788 0.3156922 0.3158664 0.3160741 0.3162942 0.3164973 0.3166476 0.3167437 0.3168274 0.316923
 0.3169874 0.3169375 0.3167068 0.3162566 0.3155549 0.3145708 0.3132811 0.3116581 0.3096719 0.3073819
 0.3051001 0.303431 0.3030232 0.3041558 0.3065166 0.3093793 0.3120159 0.3140106 0.315303 0.3160392
 0.316406 0.3165469 0.3165479 0.3164482 0.3162607 0.3159962 0.315676 0.3153261 0.31497 0.3146281
 0.3143162 0.3140365 0.313773 0.3134952 0.3131702 0.312776 0.3123086 0.3117753 0.3111837 0.3105308
 0.3097987 0.3089643 0.3080246 0.3070153 0.3060002 0.3050365 0.3041426 0.3032894 0.3024248 0.3015007
 0.3004677 0.2992653 0.2978776 0.2964215 0.2951175 0.2941142 0.2933557 0.2926471 0.2918263 0.2908433
 0.2897184 0.2884878 0.2871907 0.2858632 0.2845208 0.2831522 0.2817277 0.2802141 0.27859 0.2768571
 0.2750351 0.2731482 0.2712199 0.2692677 0.2672792 0.2651832 0.2628475 0.2601114 0.2568303 0.2529096
 0.2483266 0.2431464 0.2375249 0.231684 0.22586 0.220256 0.2150272 0.2102973 0.2061784 0.2027727
 0.2001599 0.198385 0.1974629 0.1973923 0.1981623 0.1997393 0.2020489 0.2049688 0.2083388 0.2119775
 0.2156917 0.2192928 0.2226397 0.2256904 0.2284982 0.2311333 0.2336069 0.2358743 0.2378926 0.239655
 0.241175 0.2424629 0.2435265 0.2443869 0.2450859 0.2456744 0.2461903 0.2466441 0.2470253 0.2473238
 0.2475446 0.2477085 0.2478452 0.2479875 0.2481628 0.2483842 0.2486509 0.2489604 0.2493208 0.2497508
 0.2502665 0.2508674 0.2515346 0.2522467 0.2529991 0.2538085 0.2547021 0.2557091 0.2568577 0.2581668
 0.2596336 0.2612257 0.2628788 0.264499 0.2659783 0.2672253 0.2681896 0.2688629 0.2692602 0.2694046
 0.2693264 0.2690654 0.2686616 0.2681392 0.2675099 0.2667897 0.2660038 0.2651719 0.264295 0.2633607
 0.2623665 0.261337 0.2603154 0.2593328 0.2583919 0.2574828 0.2565994 0.2557372 0.2548906 0.2540615
 0.2532578 0.2524842 0.2517424 0.2510361 0.250365 0.2497107 0.249034 0.2482818 0.2474035 0.2463714
 0.2451854 0.2438552 0.2423856 0.2407814 0.2390558 0.2372267 0.2353067 0.2332999 0.2312078 0.2290364
 0.2267909 0.2244667 0.2220694 0.2196505 0.2173012 0.2150999 0.2130746 0.211212 0.2094811 0.2078491
 0.2062945 0.2048079 0.203383 0.2020155 0.2007076 0.1994624 0.1982792 0.1971616 0.1961215 0.1951703
 0.1943182 0.1935783 0.1929571 0.192443 0.1920111 0.1916393 0.1913277 0.1911107 0.191035 0.1911015
 0.191239 0.1913495 0.1913718 0.1913065 0.1912026 0.1911188 0.1910851 0.1910968 0.1911311 0.1911407
 0.1910375 0.1907161 0.190091 0.1891014 0.1877087 0.1859225 0.1838239 0.1815566 0.1792974 0.1772135
 0.1754202 0.1739717 0.1728737 0.1720776 0.1714833 0.1710029 0.1706308 0.1704391 0.1705064 0.170829
 0.1712699 0.1716268 0.1718101 0.1719418 0.172246 0.1728609 0.1737622 0.1748135 0.1758544 0.176772
 0.177519 0.1780878 0.1784932 0.1787705 0.1789468 0.1790186 0.1789753 0.1788197 0.1785548 0.1781856
 0.1777341 0.1772136 0.1766072 0.1758983 0.1750909 0.1741846 0.1731752 0.1720731 0.1708676 0.1695169
 0.1680534 0.1666788 0.1656946 0.1653367 0.1656519 0.166479 0.1675648 0.1687331 0.1699048 0.1709768
 0.1718318 0.1725301 0.1733854 0.1747528 0.1767323 0.1790667 0.1813141 0.1831243 0.184359 0.1850085
 0.1851079 0.1847257 0.1839067 0.1826304 0.1809087 0.1788619 0.1766333 0.1743394 0.1721283 0.1701442
 0.1684432 0.1670382 0.1659341 0.1651233 0.1646564 0.1642534 0.1623559 0.1566681 0.1474151 0.1394594
 0.1386366 0.1454674 0.1544301 0.1598862 0.1608723 0.1597594 0.158523 0.1575928 0.1568944 0.1564961
 0.1564482 0.1566422 0.1568546 0.1568578 0.156564 0.1559996 0.1550391 0.1531722 0.1495119 0.1431195
 0.1336952 0.1222076 0.1106859 0.1011474 0.09460163 0.09083837 0.08886614 0.08760194 0.08649252 0.08570368
 0.08575064 0.08697177 0.08934087 0.09263155 0.09658225 0.1008631 0.105016 0.1085977 0.1114166 0.1135449
 0.1151029 0.1161265 0.1166346 0.1166981 0.1164079 0.1158431 0.1150681 0.1141101 0.1129458 0.1115579
 0.110024 0.1085456 0.1073675 0.1066206 0.1062415 0.1060686 0.105992 0.1059808 0.1060237 0.1061071
 0.1062312 0.1064073 0.1066535 0.1069841 0.1073746 0.1077497 0.1080346 0.1082075 0.1082912 0.1083027
 0.108214 0.1079751 0.1076014 0.1071968 0.1068087 0.1062862 0.105404 0.1041576 0.1028695 0.1019778
 0.1017306 0.1020425 0.1025853 0.1030274 0.1032318 0.1032684 0.1032598 0.1032215 0.1030424 0.1026132
</values></Ydata></ScRf><Data_Parameters_AB><parameter name="DPF">1</parameter><parameter name="NPT">3497</parameter><parameter name="FXV">3996</parameter><parameter name="LXV">500</parameter><parameter name="CSF">1</parameter><parameter name="MXY">0.00534951034933329</parameter><parameter name="MNY">-0.0858679562807083</parameter><parameter name="DAT">17/01/2024</parameter><parameter name="TIM">13:19:10.071 (GMT+1)</parameter><parameter name="DXU">WN</parameter></Data_Parameters_AB><AB__Qtest><MainReport name="Quality Test Report"><Header><Line><Legend>Test result ok/not ok [1/0]: </Legend><Value>0</Value></Line><Line><Legend>Method file: </Legend><Value>C:\Users\Public\Documents\Bruker\OPUS_8.2.28\QT\IRBT_v3_default.QT</Value></Line></Header><Matrix><Line><Legend></Legend><Legend>min</Legend><Legend>max</Legend><Legend>measured</Legend></Line><Line><Value>Absorption (X-Range 1):</Value><Value>0.400000</Value><Value>2.000000</Value><Value>0.059677</Value></Line><Line><Value>Noise (X-Range 4):</Value><Value></Value><Value>0.000300</Value><Value>0.000051</Value></Line><Line><Value>Signal/Noise (X-Range 2):</Value><Value>200.000000</Value><Value></Value><Value>28.614974</Value></Line><Line><Value>Signal/Noise (X-Range 3):</Value><Value>40.000000</Value><Value></Value><Value>14.918012</Value></Line><Line><Value>Water vapour (X-Range 5):</Value><Value></Value><Value>0.000300</Value><Value>0.000015</Value></Line><Line><Value>Signal/Water (X-Range 2):</Value><Value>100.000000</Value><Value></Value><Value>98.737676</Value></Line><Line><Value>Signal/Water (X-Range 3):</Value><Value>20.000000</Value><Value></Value><Value>51.475490</Value></Line><Line><Value>Fringes (X-Range 6):</Value><Value></Value><Value>0.000100</Value><Value>0.000031</Value></Line></Matrix></MainReport></AB__Qtest><Data_Parameters_ScSm><parameter name="DPF">1</parameter><parameter name="NPT">1814</parameter><parameter name="FXV">3996.63438082617</parameter><parameter name="LXV">499.579297603271</parameter><parameter name="CSF">1</parameter><parameter name="MXY">0.335325866937637</parameter><parameter name="MNY">0.0828547179698944</parameter><parameter name="DAT">17/01/2024</parameter><parameter name="TIM">13:19:10.071 (GMT+1)</parameter><parameter name="DXU">WN</parameter></Data_Parameters_ScSm><Data_Parameters_ScRf><parameter name="DPF">1</parameter><parameter name="NPT">1820</parameter><parameter name="FXV">4004.34989121387</parameter><parameter name="LXV">495.721542409425</parameter><parameter name="CSF">1</parameter><parameter name="MXY">0.317520767450333</parameter><parameter name="MNY">0.0681360587477684</parameter><parameter name="DAT">17/01/2024</parameter><parameter name="TIM">13:18:44.210 (GMT+1)</parameter><parameter name="DXU">WN</parameter></Data_Parameters_ScRf><Optic_Parameters_Rf><parameter name="APR">0</parameter><parameter name="APT">Open</parameter><parameter name="BMS">KBr</parameter><parameter name="DTC">RT-DLaTGS_IR-Biotyper [Microplate reader]</parameter><parameter name="HPF">0</parameter><parameter name="LPF">10.0</parameter><parameter name="LPV">4000</parameter><parameter name="PGR">0</parameter><parameter name="RCH">Module port</parameter><parameter name="RDX">0</parameter><parameter name="SRC">MIR</parameter><parameter name="VEL">10.0</parameter><parameter name="SON">Off</parameter></Optic_Parameters_Rf><Acquisition_Parameters_Rf><parameter name="ADT">1</parameter><parameter name="AQM">DD</parameter><parameter name="CFE">0</parameter><parameter name="COR">0</parameter><parameter name="DEL">0</parameter><parameter name="DLY">0</parameter><parameter name="HFW">8000</parameter><parameter name="LFW">0</parameter><parameter name="NSR">32</parameter><parameter name="PLF">AB</parameter><parameter name="RES">6</parameter><parameter name="RGN">-1</parameter><parameter name="STR">0</parameter><parameter name="TCL">MakeCompatibleScalar (0, {WSV=1.000000, ARV=0});</parameter><parameter name="TDL">37</parameter><parameter name="RPO">0</parameter></Acquisition_Parameters_Rf><FT_-_Parameters_Rf><parameter name="APF">B3</parameter><parameter name="HFQ">500</parameter><parameter name="LFQ">4000</parameter><parameter name="NLI">0</parameter><parameter name="PHR">24</parameter><parameter name="PHZ">ML</parameter><parameter name="SPZ">NO</parameter><parameter name="ZFF">1</parameter></FT_-_Parameters_Rf><Optic_Parameters_><parameter name="APR">0</parameter><parameter name="APT">Open</parameter><parameter name="BMS">KBr</parameter><parameter name="CHN">Module port</parameter><parameter name="DTC">RT-DLaTGS_IR-Biotyper [Microplate reader]</parameter><parameter name="HPF">0</parameter><parameter name="LPF">10.0</parameter><parameter name="LPV">4000</parameter><parameter name="PGN">0</parameter><parameter name="RDX">0</parameter><parameter name="SRC">MIR</parameter><parameter name="VEL">10.0</parameter><parameter name="SON">Off</parameter></Optic_Parameters_><FT_-_Parameters_><parameter name="APF">B3</parameter><parameter name="HFQ">500</parameter><parameter name="LFQ">4000</parameter><parameter name="NLI">0</parameter><parameter name="PHR">24</parameter><parameter name="PHZ">ML</parameter><parameter name="SPZ">NO</parameter><parameter name="ZFF">1</parameter></FT_-_Parameters_><Acquisition_Parameters_><parameter name="ADT">1</parameter><parameter name="AQM">DD</parameter><parameter name="CFE">0</parameter><parameter name="COR">0</parameter><parameter name="DEL">0</parameter><parameter name="DLY">0</parameter><parameter name="HFW">8000</parameter><parameter name="LFW">0</parameter><parameter name="NSS">32</parameter><parameter name="PLF">AB</parameter><parameter name="RES">6</parameter><parameter name="SOT">0</parameter><parameter name="TCL">MakeCompatibleScalar (0, {WSV=1.000000, ARV=0});</parameter><parameter name="TDL">37</parameter><parameter name="SPO">0</parameter><parameter name="SGN">-1</parameter></Acquisition_Parameters_><Instrument_Parameters_Rf><parameter name="HFL">15801.365274</parameter><parameter name="LFL">0</parameter><parameter name="LWN">15801.365274</parameter><parameter name="ABP">32157</parameter><parameter name="SSP">1</parameter><parameter name="ARG">2</parameter><parameter name="ASG">2</parameter><parameter name="ASS">32</parameter><parameter name="GFW">16</parameter><parameter name="GBW">16</parameter><parameter name="BFW">0</parameter><parameter name="BBW">0</parameter><parameter name="PKA">9115</parameter><parameter name="PKL">4987</parameter><parameter name="PRA">9128</parameter><parameter name="PRL">5010</parameter><parameter name="P2A">1</parameter><parameter name="P2L">1</parameter><parameter name="P2R">1</parameter><parameter name="P2K">1</parameter><parameter name="DAQ">0</parameter><parameter name="AG2">1</parameter><parameter name="SSM">1</parameter><parameter name="RSN">46336</parameter><parameter name="CRR">0</parameter><parameter name="SRT">1705497524.21</parameter><parameter name="DUR">19.6439971923828</parameter><parameter name="TSC">30.9</parameter><parameter name="MVD">0.320904791355133</parameter><parameter name="AN1">0.225969499209548</parameter><parameter name="AN2">0</parameter><parameter name="VSN">2.485 Apr  4 2017</parameter><parameter name="SRN">0085</parameter><parameter name="CAM">0</parameter><parameter name="INS">IR-Biotyper</parameter><parameter name="FOC">69</parameter><parameter name="RDY">1</parameter><parameter name="ARS">32</parameter></Instrument_Parameters_Rf><Sample_Parameters_><parameter name="BLD"></parameter><parameter name="CNM">Admin</parameter><parameter name="CPY"></parameter><parameter name="DPM"></parameter><parameter name="EXP">IRBT_v3_32Scans.XPM</parameter><parameter name="LCT"></parameter><parameter name="SFM">Microplate, HTS-XT</parameter><parameter name="SNM">240117-1222-Cdiff_SCFA_1_C15_232117575_G7_77501a10-876b-4621-9b50-dcb0471ddc77.0</parameter><parameter name="XPP">C:\Users\Public\Documents\Bruker\OPUS_8.2.28\XPM</parameter><parameter name="IST">OK</parameter><parameter name="CPG">1252</parameter><parameter name="UID">2680346a-2dc9-4f9b-9657-5d836e74d7dd</parameter></Sample_Parameters_><Instrument_Parameters_><parameter name="HFL">15801.365274</parameter><parameter name="LFL">0</parameter><parameter name="LWN">15801.365274</parameter><parameter name="ABP">32157</parameter><parameter name="SSP">1</parameter><parameter name="ASG">2</parameter><parameter name="ARG">2</parameter><parameter name="ASS">32</parameter><parameter name="GFW">16</parameter><parameter name="GBW">16</parameter><parameter name="BFW">0</parameter><parameter name="BBW">0</parameter><parameter name="PKA">10011</parameter><parameter name="PKL">4987</parameter><parameter name="PRA">10140</parameter><parameter name="PRL">5010</parameter><parameter name="P2A">1</parameter><parameter name="P2L">1</parameter><parameter name="P2R">1</parameter><parameter name="P2K">1</parameter><parameter name="DAQ">0</parameter><parameter name="AG2">1</parameter><parameter name="SSM">1</parameter><parameter name="RSN">23861</parameter><parameter name="CRR">0</parameter><parameter name="SRT">1705497550.071</parameter><parameter name="DUR">19.6439971923828</parameter><parameter name="TSC">30.9</parameter><parameter name="MVD">0.543946385383606</parameter><parameter name="AN1">0.225998734469168</parameter><parameter name="AN2">0</parameter><parameter name="VSN">2.485 Apr  4 2017</parameter><parameter name="SRN">0085</parameter><parameter name="CAM">0</parameter><parameter name="INS">IR-Biotyper</parameter><parameter name="FOC">69</parameter><parameter name="RDY">1</parameter></Instrument_Parameters_><History/></OPUSDataFile>
