<?xml version="1.0" encoding="UTF-8" ?>
<OPUSDataFile><AB><Ydata ylabel="Absorbance Units"><values byteorder="INTEL" format="FLOAT32" numvalues="3497"> -0.08816905 -0.08819778 -0.08822504 -0.08824906 -0.0882634 -0.08826957 -0.08826689 -0.08825942 -0.08825251 -0.08825019
 -0.08825917 -0.08827958 -0.08831505 -0.08835936 -0.08841146 -0.08846241 -0.08850925 -0.0885454 -0.08856823 -0.08857806
 -0.08857377 -0.0885637 -0.08854818 -0.08853947 -0.08853817 -0.08855079 -0.08857659 -0.08861054 -0.08865105 -0.0886867
 -0.08871747 -0.08873637 -0.08874631 -0.0887496 -0.08875034 -0.08875594 -0.08876812 -0.08879247 -0.08882615 -0.08887021
 -0.08891726 -0.08896445 -0.08900451 -0.08903381 -0.08905081 -0.08905348 -0.08904807 -0.08903463 -0.0890232 -0.08901472
 -0.08901519 -0.08902487 -0.08904094 -0.08906279 -0.08908278 -0.08910102 -0.08911356 -0.08912216 -0.08913061 -0.08914048
 -0.0891577 -0.08918136 -0.08921314 -0.0892503 -0.08929053 -0.08933165 -0.0893711 -0.08940847 -0.08944295 -0.08947447
 -0.08950289 -0.0895282 -0.0895502 -0.08957001 -0.08958752 -0.08960555 -0.0896243 -0.08964684 -0.08967333 -0.08970379
 -0.08973788 -0.08977166 -0.08980472 -0.08983233 -0.08985516 -0.08987236 -0.08988611 -0.08990055 -0.08991817 -0.0899454
 -0.08998152 -0.09002993 -0.09008396 -0.09014075 -0.09019164 -0.09023038 -0.09025584 -0.09026464 -0.0902652 -0.09025836
 -0.09025392 -0.09025384 -0.09026157 -0.09027795 -0.09029894 -0.09032433 -0.09034681 -0.09036624 -0.09037876 -0.09038552
 -0.09039102 -0.09039684 -0.09041145 -0.09043397 -0.09046742 -0.0905081 -0.090551 -0.09059443 -0.09063375 -0.09067097
 -0.09070645 -0.09074112 -0.09077675 -0.0908092 -0.09083728 -0.09085805 -0.09086946 -0.09087639 -0.09087893 -0.09088431
 -0.09089348 -0.09090738 -0.09092608 -0.09094758 -0.0909721 -0.09100235 -0.09103874 -0.09108625 -0.09114282 -0.09120537
 -0.0912683 -0.09131591 -0.09134667 -0.09134759 -0.09132921 -0.09129741 -0.09126452 -0.09124371 -0.09123711 -0.09125087
 -0.0912786 -0.09132014 -0.09136619 -0.09141468 -0.09145807 -0.09149472 -0.09152116 -0.09153659 -0.09154333 -0.09154146
 -0.09153761 -0.0915321 -0.09153073 -0.09153339 -0.0915423 -0.09155726 -0.0915788 -0.09160649 -0.09164021 -0.09167801
 -0.09171697 -0.09175458 -0.0917864 -0.09181222 -0.09182949 -0.09184176 -0.09185023 -0.09185801 -0.09186715 -0.09187675
 -0.09188706 -0.09189612 -0.09190331 -0.09190956 -0.09191462 -0.09192273 -0.09193411 -0.09195361 -0.09198134 -0.09201999
 -0.09206876 -0.09212454 -0.0921855 -0.09224317 -0.09229612 -0.09233584 -0.09236377 -0.09237785 -0.09238191 -0.09237935
 -0.09237426 -0.0923709 -0.09237224 -0.09238122 -0.09239873 -0.09242658 -0.09246115 -0.09250282 -0.09254348 -0.09258193
 -0.09261157 -0.09263118 -0.0926419 -0.09264366 -0.09264322 -0.09264083 -0.0926417 -0.09264567 -0.0926543 -0.0926673
 -0.09268457 -0.09270573 -0.09272997 -0.09275627 -0.09278243 -0.09280787 -0.09283043 -0.09285177 -0.09287235 -0.09289429
 -0.09291966 -0.09294707 -0.09297723 -0.09300522 -0.09302958 -0.09304795 -0.09305876 -0.09306793 -0.0930756 -0.09309094
 -0.09311458 -0.0931484 -0.09319198 -0.0932375 -0.09328439 -0.09332454 -0.09335892 -0.09338723 -0.09341035 -0.09343077
 -0.09344789 -0.0934614 -0.09347153 -0.09347802 -0.09348246 -0.09348655 -0.09349006 -0.09349373 -0.09349556 -0.09349437
 -0.093491 -0.09348485 -0.09348005 -0.09347744 -0.09347868 -0.09348433 -0.09349182 -0.09350099 -0.09351049 -0.09352037
 -0.09353246 -0.09354664 -0.0935635 -0.09358203 -0.09359815 -0.0936113 -0.0936169 -0.09361731 -0.09361424 -0.09361126
 -0.09361448 -0.09362358 -0.09364197 -0.09366322 -0.09368458 -0.09370041 -0.09370642 -0.09370524 -0.0936961 -0.09368538
 -0.09367441 -0.09366563 -0.09365974 -0.09365498 -0.09365129 -0.0936458 -0.09363848 -0.09362843 -0.09361608 -0.09360422
 -0.0935934 -0.09358805 -0.09358712 -0.09359103 -0.09359616 -0.09359599 -0.09358795 -0.09356443 -0.09352921 -0.0934817
 -0.09342991 -0.09337889 -0.093333 -0.0932965 -0.09326616 -0.09324314 -0.09321777 -0.09318878 -0.09314665 -0.09308964
 -0.09301681 -0.09292781 -0.092829 -0.09272066 -0.09260786 -0.09249041 -0.09236871 -0.09224278 -0.09211244 -0.09197868
 -0.09184381 -0.09170946 -0.09157999 -0.09145607 -0.09134128 -0.0912331 -0.09113122 -0.091031 -0.09092905 -0.0908238
 -0.09071326 -0.09059935 -0.09048296 -0.09036209 -0.09023745 -0.09010087 -0.08995129 -0.08978421 -0.08959893 -0.08940108
 -0.08919109 -0.08897878 -0.08876462 -0.08855655 -0.08835445 -0.08816252 -0.08797947 -0.08780417 -0.08763457 -0.0874662
 -0.08729764 -0.08712542 -0.08694807 -0.08676347 -0.08656943 -0.08636291 -0.0861463 -0.08591841 -0.08568797 -0.0854576
 -0.08523229 -0.08501455 -0.0847994 -0.08458681 -0.08436944 -0.08414659 -0.08391692 -0.08368055 -0.08344202 -0.08320168
 -0.08296452 -0.08273014 -0.08249966 -0.08227143 -0.08204127 -0.08180767 -0.08156495 -0.08131447 -0.08105506 -0.08079034
 -0.08052354 -0.08025666 -0.07999263 -0.07973006 -0.07946935 -0.07920783 -0.07894455 -0.07867878 -0.07840975 -0.07814036
 -0.07787082 -0.0776044 -0.07734162 -0.07707902 -0.07681624 -0.07654242 -0.07625736 -0.0759536 -0.07563341 -0.07530306
 -0.07496581 -0.07463533 -0.0743119 -0.07400354 -0.07370669 -0.0734202 -0.07313921 -0.07285809 -0.07257485 -0.07228547
 -0.07199304 -0.07169775 -0.07140344 -0.07111246 -0.0708219 -0.07053227 -0.07023615 -0.06993235 -0.06961828 -0.06929336
 -0.0689633 -0.0686284 -0.06829473 -0.06796221 -0.06763233 -0.06730489 -0.06697957 -0.06665664 -0.06633678 -0.06602009
 -0.06570753 -0.0653979 -0.06509049 -0.06478246 -0.06447071 -0.06415322 -0.06382661 -0.06349365 -0.0631535 -0.06281408
 -0.06247772 -0.06215023 -0.06183412 -0.06152709 -0.06122983 -0.06093367 -0.06063803 -0.06033519 -0.06002485 -0.0597054
 -0.05937724 -0.05904384 -0.05870541 -0.05836494 -0.05802211 -0.05767686 -0.05733026 -0.05698372 -0.05664031 -0.05630529
 -0.05598046 -0.05567095 -0.05537304 -0.05508682 -0.05480491 -0.05452396 -0.05423825 -0.05394464 -0.05364272 -0.05333122
 -0.0530148 -0.05269389 -0.05237271 -0.05205189 -0.05172987 -0.05140654 -0.051077 -0.05074145 -0.05039991 -0.05005357
 -0.04970894 -0.04936645 -0.04903151 -0.04870258 -0.04837909 -0.04805924 -0.04773984 -0.0474204 -0.04709915 -0.04677645
 -0.04645243 -0.04612609 -0.04579734 -0.04546382 -0.0451244 -0.04477897 -0.04442634 -0.04407263 -0.04371805 -0.04337165
 -0.04303445 -0.04270925 -0.04239614 -0.04208811 -0.04178444 -0.04147482 -0.04115907 -0.04083071 -0.04049044 -0.04013689
 -0.03977155 -0.03939644 -0.03901422 -0.03862936 -0.03824515 -0.03786692 -0.0374961 -0.03713638 -0.03678469 -0.03644129
 -0.03609998 -0.03575848 -0.03541349 -0.03506302 -0.03471046 -0.03435577 -0.03400428 -0.03365659 -0.03331431 -0.03297757
 -0.03264521 -0.03231725 -0.03199343 -0.03167355 -0.03135667 -0.03104194 -0.03072605 -0.03040832 -0.03008542 -0.02975767
 -0.02942401 -0.02908536 -0.02874165 -0.02839571 -0.02804876 -0.02770597 -0.02737043 -0.02704517 -0.0267329 -0.02643047
 -0.02613794 -0.02585051 -0.02556714 -0.02528721 -0.02501047 -0.02473872 -0.02447204 -0.02421042 -0.02395366 -0.02369958
 -0.023448 -0.02319671 -0.02294589 -0.02269475 -0.02244405 -0.022195 -0.02194848 -0.02170704 -0.02146956 -0.02123633
 -0.02100446 -0.02077116 -0.02053661 -0.02029899 -0.02006365 -0.01983208 -0.01960856 -0.01939553 -0.01918888 -0.01898876
 -0.01878774 -0.01858472 -0.0183802 -0.01817413 -0.01797562 -0.01778471 -0.01760459 -0.01743355 -0.01726223 -0.01709007
 -0.01690832 -0.0167215 -0.01653553 -0.01635573 -0.01619565 -0.01605234 -0.01593003 -0.01581768 -0.01570829 -0.01559263
 -0.01546276 -0.01531797 -0.01515558 -0.01497966 -0.01479068 -0.0145924 -0.01438574 -0.01417128 -0.01394946 -0.01371612
 -0.01347106 -0.01320835 -0.01292848 -0.01263622 -0.01233435 -0.01204272 -0.01176339 -0.0115165 -0.01129815 -0.01111064
 -0.01094519 -0.01078784 -0.01063287 -0.0104671 -0.01029108 -0.01010104 -0.009898658 -0.009684143 -0.009457863 -0.009218838
 -0.008972432 -0.008718217 -0.008469227 -0.008227499 -0.008002931 -0.007797621 -0.007606208 -0.007428613 -0.007248271 -0.007064536
 -0.006864657 -0.006649738 -0.006420245 -0.006178453 -0.005933322 -0.005686005 -0.00544443 -0.005207247 -0.004976512 -0.004748386
 -0.004519887 -0.004285567 -0.00404022 -0.003779463 -0.003498415 -0.003198627 -0.002877973 -0.002545705 -0.002203459 -0.001860218
 -0.001518561 -0.001178117 -0.0008396669 -0.0004948519 -0.0001431846 0.0002207016 0.0005966913 0.0009826922 0.0013785 0.00178122
 0.002191981 0.00261406 0.003047832 0.003498369 0.003959403 0.004425695 0.004882282 0.005309923 0.005694654 0.006014729
 0.006274552 0.006465127 0.006613787 0.006727186 0.006834933 0.006948622 0.00707373 0.007216033 0.007353526 0.007485547
 0.00758149 0.007639301 0.007640399 0.007584831 0.007473975 0.007309821 0.00710697 0.00686667 0.00660239 0.006312444
 0.005999388 0.005660823 0.005292529 0.004895857 0.004469459 0.004019017 0.003548749 0.003063582 0.002569063 0.002062463
 0.001546043 0.001007793 0.0004454649 -0.0001530986 -0.0007918297 -0.001468602 -0.002184976 -0.002922146 -0.003679096 -0.004436287
 -0.005193286 -0.005943975 -0.006689053 -0.007431355 -0.008170234 -0.008904966 -0.009633292 -0.01034878 -0.01104975 -0.01172999
 -0.01238921 -0.01302409 -0.01363632 -0.01422516 -0.01479592 -0.0153508 -0.01589663 -0.01643738 -0.01697462 -0.01751095
 -0.0180393 -0.01855952 -0.01906102 -0.01954274 -0.01999532 -0.02041797 -0.02080635 -0.02116074 -0.02148797 -0.02179025
 -0.02208774 -0.02238237 -0.02269501 -0.02302224 -0.02336731 -0.02372148 -0.02406959 -0.0244058 -0.02471431 -0.02499841
 -0.02525437 -0.02549052 -0.0257109 -0.0259218 -0.02612698 -0.02632925 -0.0265302 -0.02673068 -0.02693149 -0.02713016
 -0.02732674 -0.02751634 -0.02769854 -0.02787225 -0.02803767 -0.02820056 -0.02836148 -0.02852768 -0.02869882 -0.02887748
 -0.0290626 -0.02925251 -0.02944627 -0.02964134 -0.02983709 -0.03003178 -0.03022486 -0.03041505 -0.03060266 -0.03078706
 -0.03097029 -0.03115249 -0.03133772 -0.03152701 -0.03172432 -0.03193122 -0.03214597 -0.0323691 -0.0325927 -0.03281623
 -0.0330338 -0.03324546 -0.03345576 -0.03366571 -0.0338862 -0.03411685 -0.03436245 -0.03462014 -0.0348844 -0.03515233
 -0.03541514 -0.03567258 -0.03591988 -0.03616011 -0.0363939 -0.0366259 -0.0368596 -0.03709712 -0.03734132 -0.03758858
 -0.03783902 -0.03808627 -0.0383288 -0.03856407 -0.0387912 -0.03901282 -0.03922904 -0.03944317 -0.0396554 -0.03986828
 -0.04008217 -0.04030141 -0.04052653 -0.04076287 -0.04100947 -0.04126716 -0.04153258 -0.04179989 -0.04206519 -0.04232005
 -0.04256388 -0.04279161 -0.04300857 -0.04321544 -0.04342145 -0.04363136 -0.04384961 -0.04408028 -0.0443166 -0.04455875
 -0.04479494 -0.04502313 -0.04524017 -0.04544527 -0.04564638 -0.04584378 -0.04604235 -0.04624081 -0.04642925 -0.04660566
 -0.04675366 -0.04687537 -0.04696627 -0.04703516 -0.04709679 -0.04716114 -0.04725039 -0.04736517 -0.04751781 -0.04769415
 -0.04789063 -0.04808742 -0.04827319 -0.04844036 -0.04858163 -0.04870716 -0.04881727 -0.04892472 -0.04903212 -0.04913969
 -0.04924794 -0.04934973 -0.0494448 -0.04953111 -0.049609 -0.04968175 -0.04974888 -0.04980968 -0.04986321 -0.04990532
 -0.04993746 -0.04995995 -0.04997625 -0.04999202 -0.05000841 -0.05002934 -0.05005275 -0.05007794 -0.05010455 -0.05013103
 -0.050162 -0.05019771 -0.05024602 -0.05030828 -0.05039244 -0.05049998 -0.05063445 -0.05079674 -0.05098018 -0.05118424
 -0.05139048 -0.05159767 -0.05178575 -0.05195563 -0.05210003 -0.05222343 -0.05233541 -0.0524416 -0.05255907 -0.05269022
 -0.05284721 -0.05302661 -0.05323071 -0.05345141 -0.05368401 -0.05392145 -0.05415832 -0.0543937 -0.0546252 -0.05485781
 -0.05509195 -0.05533344 -0.05558356 -0.05584306 -0.05611258 -0.05638398 -0.05665681 -0.05691876 -0.0571699 -0.05740592
 -0.05762932 -0.05785121 -0.05807396 -0.05831267 -0.05856446 -0.05883162 -0.05910748 -0.05938203 -0.05965289 -0.05991212
 -0.06016465 -0.06041142 -0.06065761 -0.06090682 -0.06115918 -0.06141564 -0.06167491 -0.06193664 -0.0622014 -0.06246946
 -0.06273945 -0.06301162 -0.06327908 -0.06354148 -0.06378906 -0.0640216 -0.06423263 -0.06442355 -0.06459779 -0.06475892
 -0.06492057 -0.06508576 -0.06526943 -0.06546891 -0.06568859 -0.06591942 -0.06615421 -0.06638321 -0.06659672 -0.06678958
 -0.06695668 -0.06709594 -0.0672058 -0.06728455 -0.06733124 -0.06734651 -0.0673298 -0.06728618 -0.0672159 -0.06712516
 -0.06701428 -0.06688569 -0.06673923 -0.06657344 -0.06638805 -0.06618094 -0.0659516 -0.06569737 -0.06541724 -0.06510736
 -0.06476751 -0.06439472 -0.06399173 -0.06355932 -0.06310326 -0.06262772 -0.0621382 -0.06163878 -0.06113211 -0.06062015
 -0.06010316 -0.05958136 -0.05905558 -0.05852555 -0.05799503 -0.05746396 -0.05694059 -0.05642536 -0.05593176 -0.05546097
 -0.05503094 -0.05464318 -0.05431612 -0.05405002 -0.05385658 -0.05373295 -0.0536795 -0.0536903 -0.05375696 -0.05387208
 -0.05402559 -0.05420811 -0.05441127 -0.05462229 -0.05483397 -0.05503199 -0.05521019 -0.05535725 -0.05546907 -0.05554067
 -0.05557012 -0.0555593 -0.05550773 -0.05542333 -0.05530647 -0.05517115 -0.05501826 -0.05486305 -0.0547062 -0.05455922
 -0.05442281 -0.05430511 -0.05420738 -0.0541367 -0.05409374 -0.05408392 -0.05410402 -0.05415417 -0.05422582 -0.05431312
 -0.05440693 -0.05449984 -0.05458977 -0.05467154 -0.0547575 -0.0548468 -0.05496585 -0.05511757 -0.05533038 -0.05560802
 -0.0559618 -0.05639276 -0.05688381 -0.05743269 -0.05800299 -0.05859223 -0.05916621 -0.05972515 -0.06025124 -0.06074695
 -0.06120906 -0.06164094 -0.06204621 -0.06242909 -0.0627951 -0.06314963 -0.06349871 -0.06384593 -0.06419606 -0.06454614
 -0.06489782 -0.06524058 -0.06557301 -0.06588214 -0.06616568 -0.06641436 -0.06662676 -0.06680007 -0.06693402 -0.0670304
 -0.06708943 -0.06711446 -0.06710608 -0.06706873 -0.06700446 -0.06692153 -0.06682552 -0.06673218 -0.06665152 -0.06660625
 -0.06660765 -0.06667826 -0.06682444 -0.06706055 -0.06738321 -0.06779657 -0.06828809 -0.06885587 -0.06948169 -0.07016197
 -0.0708765 -0.0716221 -0.07237998 -0.07314812 -0.07391068 -0.0746666 -0.07540292 -0.07611904 -0.07680442 -0.07745951
 -0.07808079 -0.0786717 -0.07924234 -0.07979932 -0.08036471 -0.08094306 -0.0815552 -0.08219519 -0.08286781 -0.08355484
 -0.08424455 -0.08491645 -0.08555432 -0.08614991 -0.08669401 -0.08719365 -0.08764825 -0.08806861 -0.08845673 -0.08881859
 -0.08915509 -0.08946936 -0.08976157 -0.09003671 -0.09029501 -0.09054127 -0.09077551 -0.091 -0.09121509 -0.09142321
 -0.09162538 -0.0918257 -0.09202448 -0.09222469 -0.0924247 -0.09262363 -0.09282003 -0.09301163 -0.09319992 -0.09338436
 -0.09356923 -0.09375593 -0.09394857 -0.09414881 -0.09435775 -0.09457623 -0.09480184 -0.0950346 -0.09527018 -0.09550831
 -0.09574444 -0.09597833 -0.09620626 -0.09642844 -0.09664433 -0.09685512 -0.09706536 -0.09727623 -0.09749383 -0.09771705
 -0.09794738 -0.09818131 -0.09841467 -0.09864551 -0.09886974 -0.0990895 -0.0993048 -0.09951811 -0.09973112 -0.09994242
 -0.1001525 -0.1003567 -0.1005541 -0.1007414 -0.1009179 -0.1010837 -0.1012389 -0.1013877 -0.1015304 -0.1016743
 -0.1018194 -0.1019713 -0.1021294 -0.1022939 -0.1024634 -0.1026343 -0.1028053 -0.1029726 -0.1031362 -0.1032938
 -0.1034462 -0.103593 -0.1037355 -0.1038742 -0.1040103 -0.1041444 -0.1042771 -0.1044086 -0.1045383 -0.1046661
 -0.1047917 -0.1049149 -0.1050366 -0.1051569 -0.1052772 -0.1053977 -0.1055199 -0.1056438 -0.1057698 -0.1058978
 -0.1060271 -0.1061578 -0.1062896 -0.1064232 -0.1065593 -0.1066983 -0.1068413 -0.1069872 -0.1071356 -0.107284
 -0.1074306 -0.1075735 -0.1077112 -0.1078437 -0.1079703 -0.1080935 -0.1082132 -0.1083326 -0.108452 -0.1085744
 -0.1087001 -0.1088308 -0.1089665 -0.1091072 -0.1092526 -0.1094009 -0.1095518 -0.1097029 -0.1098539 -0.110003
 -0.1101497 -0.1102926 -0.1104312 -0.1105639 -0.1106906 -0.1108101 -0.1109239 -0.1110322 -0.1111374 -0.111241
 -0.1113448 -0.1114497 -0.1115562 -0.1116648 -0.1117747 -0.111886 -0.111998 -0.1121107 -0.112223 -0.1123348
 -0.112446 -0.1125566 -0.1126676 -0.1127793 -0.1128931 -0.1130086 -0.1131256 -0.1132433 -0.1133599 -0.1134747
 -0.1135856 -0.1136928 -0.1137951 -0.1138937 -0.1139886 -0.1140817 -0.1141738 -0.1142668 -0.1143615 -0.1144587
 -0.1145589 -0.1146601 -0.1147626 -0.1148629 -0.1149607 -0.115054 -0.1151426 -0.1152275 -0.1153089 -0.1153895
 -0.1154694 -0.1155511 -0.1156341 -0.1157187 -0.115804 -0.1158882 -0.1159707 -0.1160493 -0.1161253 -0.1161985
 -0.1162715 -0.1163461 -0.1164233 -0.1165048 -0.1165886 -0.1166747 -0.1167599 -0.1168434 -0.1169237 -0.1170005
 -0.1170733 -0.1171424 -0.1172076 -0.117269 -0.1173283 -0.1173858 -0.1174451 -0.1175062 -0.1175722 -0.1176424
 -0.1177163 -0.1177933 -0.1178713 -0.1179504 -0.1180302 -0.1181116 -0.1181957 -0.1182823 -0.1183718 -0.1184621
 -0.1185523 -0.11864 -0.118724 -0.1188048 -0.1188818 -0.1189583 -0.1190348 -0.119114 -0.1191964 -0.1192814
 -0.119369 -0.1194558 -0.1195415 -0.119623 -0.1197006 -0.1197739 -0.1198434 -0.1199107 -0.1199763 -0.1200421
 -0.1201085 -0.1201768 -0.1202474 -0.1203214 -0.1203979 -0.1204768 -0.1205561 -0.1206346 -0.1207107 -0.1207834
 -0.1208535 -0.1209209 -0.1209879 -0.1210549 -0.121124 -0.1211954 -0.1212696 -0.1213465 -0.1214253 -0.1215058
 -0.1215867 -0.1216679 -0.1217487 -0.1218292 -0.1219089 -0.121988 -0.1220658 -0.1221423 -0.1222169 -0.1222903
 -0.1223629 -0.1224359 -0.1225105 -0.1225867 -0.1226655 -0.1227445 -0.1228236 -0.1228992 -0.1229704 -0.1230351
 -0.1230926 -0.1231446 -0.1231908 -0.1232364 -0.1232814 -0.1233307 -0.123384 -0.1234417 -0.123503 -0.1235641
 -0.1236247 -0.1236815 -0.1237356 -0.1237876 -0.1238387 -0.1238918 -0.1239462 -0.1240029 -0.1240598 -0.1241153
 -0.1241692 -0.1242204 -0.1242715 -0.1243233 -0.1243776 -0.1244354 -0.1244942 -0.124554 -0.1246108 -0.124664
 -0.1247134 -0.124759 -0.1248048 -0.1248509 -0.1249001 -0.1249522 -0.1250068 -0.1250634 -0.1251201 -0.1251772
 -0.1252342 -0.1252921 -0.1253526 -0.1254157 -0.1254826 -0.1255515 -0.1256214 -0.125691 -0.1257584 -0.125826
 -0.1258936 -0.1259654 -0.126043 -0.1261263 -0.1262164 -0.1263073 -0.1263987 -0.1264845 -0.1265645 -0.1266379
 -0.1267049 -0.1267688 -0.12683 -0.1268924 -0.1269561 -0.1270239 -0.1270957 -0.1271726 -0.1272538 -0.1273386
 -0.1274259 -0.1275139 -0.1276013 -0.1276867 -0.1277691 -0.1278478 -0.127923 -0.1279944 -0.1280636 -0.1281308
 -0.1281965 -0.1282611 -0.1283232 -0.1283827 -0.128439 -0.1284921 -0.1285443 -0.1285959 -0.1286504 -0.1287076
 -0.128768 -0.1288307 -0.1288931 -0.1289552 -0.1290151 -0.1290741 -0.1291334 -0.1291941 -0.1292585 -0.1293256
 -0.1293961 -0.1294679 -0.1295399 -0.1296107 -0.1296792 -0.1297455 -0.1298094 -0.1298719 -0.1299331 -0.1299943
 -0.1300556 -0.1301176 -0.1301805 -0.1302432 -0.1303056 -0.1303659 -0.1304241 -0.1304792 -0.1305314 -0.1305818
 -0.1306305 -0.1306787 -0.1307265 -0.1307742 -0.1308222 -0.1308709 -0.1309206 -0.130972 -0.1310246 -0.1310786
 -0.1311328 -0.1311867 -0.1312395 -0.131291 -0.1313411 -0.1313897 -0.1314373 -0.1314836 -0.1315304 -0.1315776
 -0.1316279 -0.1316813 -0.1317383 -0.1317982 -0.1318575 -0.1319157 -0.1319689 -0.132018 -0.1320631 -0.132106
 -0.13215 -0.1321957 -0.1322453 -0.1322976 -0.1323521 -0.1324068 -0.1324604 -0.1325115 -0.1325588 -0.1326026
 -0.1326424 -0.1326802 -0.132716 -0.1327526 -0.1327906 -0.1328304 -0.1328722 -0.1329142 -0.1329563 -0.1329973
 -0.1330375 -0.1330781 -0.1331196 -0.133164 -0.133211 -0.1332611 -0.1333137 -0.1333679 -0.1334235 -0.1334796
 -0.1335368 -0.1335952 -0.1336566 -0.1337218 -0.1337934 -0.1338727 -0.1339612 -0.13406 -0.1341671 -0.1342829
 -0.1344027 -0.1345261 -0.1346502 -0.1347747 -0.1348999 -0.1350259 -0.1351527 -0.1352795 -0.1354026 -0.1355209
 -0.1356281 -0.1357234 -0.1358019 -0.1358624 -0.1359013 -0.1359177 -0.1359088 -0.1358751 -0.1358142 -0.1357325
 -0.1356301 -0.1355231 -0.1354161 -0.1353277 -0.1352647 -0.1352344 -0.1352408 -0.1352762 -0.1353415 -0.1354174
 -0.1355028 -0.1355773 -0.1356403 -0.1356862 -0.1357166 -0.135743 -0.1357657 -0.1357933 -0.1358229 -0.1358512
 -0.1358765 -0.1358928 -0.135902 -0.1359039 -0.1359017 -0.1358989 -0.135896 -0.1358952 -0.1358927 -0.1358877
 -0.1358763 -0.1358564 -0.1358306 -0.1357983 -0.1357665 -0.1357362 -0.1357104 -0.1356894 -0.1356691 -0.1356494
 -0.1356259 -0.1355991 -0.1355705 -0.1355409 -0.1355159 -0.1354954 -0.1354828 -0.1354769 -0.1354766 -0.1354804
 -0.1354852 -0.1354903 -0.1354937 -0.1354958 -0.1354961 -0.1354954 -0.135494 -0.1354928 -0.1354922 -0.1354933
 -0.1354965 -0.1355018 -0.1355097 -0.1355185 -0.1355281 -0.1355366 -0.1355439 -0.1355501 -0.1355553 -0.135561
 -0.1355671 -0.1355741 -0.1355814 -0.1355877 -0.1355929 -0.1355964 -0.1355992 -0.1356027 -0.1356081 -0.1356172
 -0.1356291 -0.1356442 -0.1356596 -0.1356744 -0.1356869 -0.1356962 -0.1357023 -0.1357052 -0.1357053 -0.1357026
 -0.1356981 -0.1356917 -0.1356859 -0.1356806 -0.135678 -0.1356777 -0.1356792 -0.135682 -0.135683 -0.1356822
 -0.1356781 -0.1356716 -0.1356641 -0.1356566 -0.135652 -0.1356499 -0.1356516 -0.1356544 -0.1356573 -0.1356569
 -0.1356511 -0.1356401 -0.1356228 -0.1356036 -0.1355833 -0.1355658 -0.1355519 -0.1355408 -0.1355326 -0.1355242
 -0.1355154 -0.1355055 -0.1354947 -0.1354847 -0.1354757 -0.1354684 -0.1354624 -0.1354567 -0.1354507 -0.1354431
 -0.1354343 -0.135424 -0.1354133 -0.135403 -0.1353935 -0.135386 -0.1353786 -0.1353716 -0.1353617 -0.1353477
 -0.135329 -0.1353045 -0.1352783 -0.1352503 -0.135227 -0.1352088 -0.1351988 -0.135197 -0.1352001 -0.1352076
 -0.1352127 -0.1352155 -0.1352119 -0.1352027 -0.1351886 -0.1351703 -0.1351501 -0.135128 -0.1351047 -0.1350804
 -0.1350549 -0.1350298 -0.1350061 -0.1349856 -0.13497 -0.1349582 -0.1349507 -0.1349436 -0.1349362 -0.1349258
 -0.1349116 -0.1348952 -0.1348765 -0.134859 -0.1348429 -0.1348297 -0.1348192 -0.1348094 -0.1348002 -0.1347888
 -0.1347754 -0.1347587 -0.1347392 -0.1347172 -0.1346931 -0.1346677 -0.134641 -0.1346135 -0.1345855 -0.1345569
 -0.1345287 -0.1345011 -0.1344749 -0.1344507 -0.1344275 -0.1344056 -0.1343827 -0.1343585 -0.1343319 -0.1343029
 -0.1342732 -0.1342431 -0.134215 -0.1341891 -0.1341651 -0.1341426 -0.1341188 -0.1340934 -0.1340639 -0.1340307
 -0.1339933 -0.133953 -0.1339116 -0.1338699 -0.13383 -0.1337915 -0.1337548 -0.1337186 -0.133682 -0.1336443
 -0.1336049 -0.1335646 -0.1335236 -0.1334829 -0.1334429 -0.1334035 -0.1333648 -0.1333269 -0.1332897 -0.1332539
 -0.1332191 -0.1331846 -0.1331501 -0.1331132 -0.1330737 -0.1330299 -0.1329818 -0.1329289 -0.1328718 -0.1328111
 -0.1327474 -0.1326821 -0.132615 -0.1325471 -0.1324765 -0.1324028 -0.1323236 -0.1322377 -0.1321446 -0.1320438
 -0.1319367 -0.1318234 -0.1317036 -0.1315775 -0.13144 -0.1312907 -0.1311223 -0.1309343 -0.1307206 -0.130481
 -0.1302119 -0.1299128 -0.1295803 -0.1292128 -0.1288053 -0.1283557 -0.1278588 -0.1273135 -0.1267168 -0.1260689
 -0.1253691 -0.1246186 -0.1238174 -0.1229675 -0.122069 -0.1211266 -0.1201402 -0.1191188 -0.1180631 -0.1169869
 -0.1158911 -0.1147935 -0.113695 -0.112614 -0.1115514 -0.110523 -0.1095298 -0.1085843 -0.1076875 -0.1068493
 -0.1060721 -0.1053647 -0.1047311 -0.104181 -0.1037196 -0.1033561 -0.1030952 -0.1029436 -0.1029027 -0.1029754
 -0.103159 -0.103454 -0.1038539 -0.1043582 -0.1049573 -0.1056506 -0.1064253 -0.1072807 -0.1082017 -0.1091875
 -0.1102216 -0.1113031 -0.1124157 -0.113558 -0.1147138 -0.1158808 -0.1170424 -0.1181951 -0.119323 -0.1204229
 -0.1214826 -0.1224998 -0.1234677 -0.1243843 -0.1252462 -0.1260517 -0.1267988 -0.1274878 -0.1281176 -0.1286929
 -0.1292139 -0.1296888 -0.1301185 -0.1305113 -0.130868 -0.1311932 -0.1314872 -0.1317517 -0.1319868 -0.1321939
 -0.1323734 -0.1325282 -0.1326593 -0.1327711 -0.1328651 -0.1329461 -0.1330155 -0.1330777 -0.1331328 -0.1331829
 -0.1332267 -0.1332638 -0.1332929 -0.1333127 -0.1333248 -0.1333291 -0.1333294 -0.1333268 -0.133323 -0.1333191
 -0.133313 -0.1333046 -0.1332917 -0.1332742 -0.133253 -0.1332284 -0.1332036 -0.1331784 -0.1331543 -0.1331307
 -0.1331059 -0.1330792 -0.1330477 -0.1330119 -0.1329708 -0.132926 -0.1328788 -0.1328311 -0.1327851 -0.1327412
 -0.1327007 -0.1326623 -0.1326261 -0.1325902 -0.132554 -0.1325167 -0.1324781 -0.1324384 -0.1323975 -0.132356
 -0.1323139 -0.1322717 -0.1322294 -0.132187 -0.1321447 -0.1321031 -0.1320623 -0.1320232 -0.1319857 -0.1319504
 -0.131917 -0.1318849 -0.1318535 -0.1318221 -0.1317907 -0.1317589 -0.1317265 -0.1316936 -0.1316587 -0.1316215
 -0.1315809 -0.1315361 -0.1314885 -0.1314378 -0.1313863 -0.1313343 -0.1312833 -0.1312334 -0.1311852 -0.1311386
 -0.1310941 -0.1310515 -0.1310108 -0.1309718 -0.1309339 -0.1308966 -0.130859 -0.1308203 -0.130779 -0.1307348
 -0.1306863 -0.1306344 -0.1305792 -0.1305224 -0.1304654 -0.1304083 -0.1303517 -0.1302951 -0.1302382 -0.130182
 -0.1301263 -0.1300724 -0.1300204 -0.1299694 -0.1299196 -0.1298683 -0.1298156 -0.1297597 -0.1297008 -0.1296384
 -0.1295728 -0.1295042 -0.1294326 -0.1293591 -0.1292836 -0.129207 -0.1291295 -0.1290517 -0.1289745 -0.1288991
 -0.1288262 -0.1287568 -0.1286897 -0.1286251 -0.1285603 -0.1284945 -0.1284268 -0.1283567 -0.128285 -0.1282118
 -0.1281374 -0.1280618 -0.1279851 -0.1279074 -0.12783 -0.1277527 -0.1276773 -0.1276036 -0.1275323 -0.1274633
 -0.1273967 -0.1273314 -0.127266 -0.1271985 -0.1271257 -0.1270471 -0.1269606 -0.1268688 -0.1267724 -0.1266747
 -0.1265777 -0.1264818 -0.1263879 -0.126294 -0.1261999 -0.1261035 -0.1260044 -0.1259025 -0.1257975 -0.1256916
 -0.125585 -0.1254812 -0.1253802 -0.1252841 -0.1251925 -0.1251047 -0.1250195 -0.124933 -0.1248434 -0.1247445
 -0.1246364 -0.1245157 -0.1243875 -0.1242547 -0.1241229 -0.1239979 -0.1238786 -0.1237667 -0.1236569 -0.1235476
 -0.123437 -0.1233239 -0.1232099 -0.1230952 -0.1229794 -0.1228625 -0.1227427 -0.1226199 -0.1224938 -0.1223643
 -0.1222318 -0.1220962 -0.1219571 -0.1218148 -0.12167 -0.121523 -0.121375 -0.1212259 -0.1210763 -0.1209264
 -0.1207765 -0.1206272 -0.1204793 -0.1203322 -0.1201859 -0.1200395 -0.1198924 -0.1197454 -0.1195986 -0.1194517
 -0.1193049 -0.119154 -0.1189986 -0.1188359 -0.1186658 -0.1184912 -0.1183126 -0.118134 -0.117955 -0.1177745
 -0.1175918 -0.1174035 -0.1172102 -0.1170111 -0.1168088 -0.1166064 -0.1164054 -0.1162092 -0.1160156 -0.1158251
 -0.1156333 -0.1154379 -0.1152378 -0.1150314 -0.1148225 -0.1146117 -0.1144022 -0.1141949 -0.113986 -0.1137754
 -0.1135555 -0.1133258 -0.1130816 -0.1128234 -0.1125532 -0.1122725 -0.1119887 -0.1117022 -0.1114185 -0.1111356
 -0.1108522 -0.1105658 -0.110272 -0.1099712 -0.1096615 -0.1093452 -0.1090236 -0.1086967 -0.1083655 -0.108027
 -0.1076809 -0.1073222 -0.10695 -0.1065585 -0.1061462 -0.1057151 -0.1052648 -0.1048087 -0.1043476 -0.1038905
 -0.1034363 -0.1029775 -0.1025131 -0.1020326 -0.1015382 -0.1010321 -0.1005143 -0.09998871 -0.09944753 -0.09888095
 -0.09828274 -0.09763903 -0.09695937 -0.09624418 -0.09550916 -0.09476437 -0.09401028 -0.09325069 -0.09247614 -0.09168448
 -0.09087319 -0.09004156 -0.08919018 -0.08831988 -0.08741572 -0.08647674 -0.08547216 -0.08440226 -0.08325591 -0.08204018
 -0.08078761 -0.07950159 -0.07821574 -0.07691619 -0.07559178 -0.07422291 -0.07277402 -0.07123663 -0.06958968 -0.06782817
 -0.06594996 -0.06392623 -0.06174983 -0.05937094 -0.05676756 -0.05392501 -0.05082399 -0.04753428 -0.04405575 -0.04050858
 -0.03690216 -0.03333715 -0.0298187 -0.0263964 -0.02306687 -0.01981548 -0.0166279 -0.0134208 -0.01018199 -0.006812881
 -0.003343722 0.000222604 0.003814109 0.007307177 0.01068603 0.01386517 0.01691971 0.0198736 0.02280482 0.02576712
 0.02877409 0.03184634 0.03495995 0.03811117 0.04129148 0.04450034 0.04772447 0.05096498 0.05417373 0.05734802
 0.06042847 0.06340928 0.06621281 0.06882323 0.07111508 0.07307086 0.07456651 0.07559158 0.07606704 0.07597779
 0.07525166 0.07392264 0.07195804 0.06952517 0.06672344 0.0637264 0.06066418 0.05757389 0.05449254 0.05143662
 0.04840486 0.04547225 0.0426542 0.03997041 0.03743149 0.03492758 0.03245302 0.02985958 0.02714698 0.02426554
 0.02123327 0.01813034 0.01496806 0.01183445 0.00871436 0.005615316 0.002521842 -0.0005964541 -0.003723768 -0.006865114
 -0.009970423 -0.01300654 -0.01592591 -0.01868897 -0.02129258 -0.02372244 -0.02600592 -0.02814948 -0.03016084 -0.03204533
 -0.03377876 -0.03535908 -0.03677083 -0.03801305 -0.03910016 -0.0400332 -0.04082956 -0.04148861 -0.04201397 -0.04240645
 -0.04266906 -0.04280716 -0.04283419 -0.04275627 -0.04258886 -0.04233671 -0.04200962 -0.04161456 -0.0411585 -0.04065077
 -0.0400979 -0.03950639 -0.03888022 -0.03822161 -0.03753176 -0.03681168 -0.03606174 -0.03528182 -0.03447191 -0.03363186
 -0.03276161 -0.03186801 -0.03095156 -0.03002226 -0.02907835 -0.02811484 -0.02712754 -0.02609561 -0.02502243 -0.02390202
 -0.02274847 -0.0215853 -0.02041564 -0.01925738 -0.01809395 -0.01691577 -0.01571648 -0.01448438 -0.0132388 -0.01198696
 -0.01073331 -0.009489437 -0.008205094 -0.006877772 -0.005435019 -0.003864709 -0.002174678 -0.0003635558 0.001429796 0.003197503
 0.004796957 0.006230399 0.007445757 0.008443581 0.009201755 0.009709915 0.009929955 0.009856327 0.009459914 0.008746673
 0.007712303 0.006363641 0.004695128 0.002744708 0.0005078455 -0.001895577 -0.004429339 -0.006971623 -0.009473296 -0.01192262
 -0.01430603 -0.01666445 -0.0190034 -0.02131992 -0.02361462 -0.02584691 -0.02801572 -0.03009949 -0.03210006 -0.03402046
 -0.03586025 -0.037618 -0.03929434 -0.0408842 -0.04240313 -0.04386866 -0.04531357 -0.04678261 -0.04830413 -0.04992261
 -0.05163276 -0.0534514 -0.05533903 -0.05728528 -0.05925497 -0.06123643 -0.06321272 -0.06518495 -0.06710322 -0.06896637
 -0.07068472 -0.07225179 -0.07364374 -0.07486431 -0.0759837 -0.07700785 -0.07801384 -0.07899684 -0.0799804 -0.08095238
 -0.08189287 -0.08279403 -0.08363308 -0.08440611 -0.0851016 -0.08571134 -0.08622623 -0.08663563 -0.08693106 -0.08710556
 -0.0871542 -0.08707471 -0.08686478 -0.08652775 -0.08606262 -0.08548101 -0.08478315 -0.08398773 -0.08309561 -0.0821332
 -0.08110334 -0.08005664 -0.07900054 -0.07801421 -0.07710085 -0.07632154 -0.07566244 -0.07512194 -0.07467621 -0.07428145
 -0.07392053 -0.07355241 -0.07317432 -0.07276883 -0.07234181 -0.0718891 -0.07142723 -0.07095461 -0.07051528 -0.07011748
 -0.06981185 -0.06961294 -0.0695246 -0.06955232 -0.06965513 -0.069831 -0.07003465 -0.07026435 -0.07049162 -0.07071701
 -0.07093056 -0.07113443 -0.07133203 -0.07152531 -0.07172242 -0.07192132 -0.0721252 -0.07232296 -0.07250543 -0.07265232
 -0.07274495 -0.07276134 -0.07268409 -0.07249575 -0.07218454 -0.07174317 -0.07116367 -0.07046207 -0.06963625 -0.06872614
 -0.06773516 -0.06670269 -0.06563186 -0.0645432 -0.06343766 -0.06232862 -0.06121822 -0.06012952 -0.05906506 -0.05804956
 -0.05708117 -0.05616787 -0.05530591 -0.05448975 -0.05372236 -0.05300214 -0.05234184 -0.0517507 -0.05124417 -0.0508344
 -0.05053136 -0.05034256 -0.05027116 -0.05032015 -0.05048712 -0.05077276 -0.05117028 -0.05167956 -0.05228987 -0.05300076
 -0.05379569 -0.05467361 -0.05561411 -0.0566166 -0.05766737 -0.05876658 -0.05990971 -0.06109314 -0.06230757 -0.06354168
 -0.06477092 -0.06598205 -0.06714684 -0.06825823 -0.06929961 -0.07026934 -0.07116219 -0.07197697 -0.07271182 -0.07336724
 -0.07394203 -0.07444182 -0.07486639 -0.07522745 -0.07552596 -0.075775 -0.07597581 -0.07613319 -0.0762468 -0.07630255
 -0.07629793 -0.07620391 -0.07602058 -0.07572917 -0.07533924 -0.07486483 -0.07432432 -0.07375778 -0.07318588 -0.07265168
 -0.07217348 -0.07178313 -0.07149219 -0.07131849 -0.07126242 -0.07133031 -0.07151189 -0.07180808 -0.07219728 -0.07267907
 -0.07321448 -0.07380152 -0.07438363 -0.07495707 -0.07546488 -0.07590459 -0.07624333 -0.07648291 -0.07662501 -0.07667439
 -0.07665412 -0.07656778 -0.07643815 -0.07626592 -0.07606293 -0.07582927 -0.07556919 -0.07528463 -0.07497825 -0.07465347
 -0.07431297 -0.07396021 -0.07359684 -0.07322717 -0.07285225 -0.0724779 -0.07210527 -0.07173979 -0.0713824 -0.07103593
 -0.07070076 -0.07037722 -0.07006527 -0.06976292 -0.06946976 -0.06918137 -0.06889735 -0.06861304 -0.06832919 -0.06804486
 -0.06776261 -0.06748673 -0.06722084 -0.06697162 -0.06674233 -0.06653825 -0.06636231 -0.06621702 -0.06610765 -0.06603616
 -0.06601047 -0.06603362 -0.06611013 -0.06624301 -0.0664252 -0.06665759 -0.06692121 -0.06721506 -0.06751633 -0.06782381
 -0.06811883 -0.06840087 -0.06865797 -0.06889036 -0.06909247 -0.0692654 -0.06940932 -0.06952596 -0.06961914 -0.06969009
 -0.06974283 -0.06977613 -0.06979112 -0.06978346 -0.06975103 -0.06968843 -0.06959271 -0.06945981 -0.06928795 -0.06907424
 -0.06881779 -0.06851678 -0.06817032 -0.06778173 -0.06735067 -0.06688955 -0.06639912 -0.06589975 -0.06539311 -0.06490308
 -0.06443211 -0.06400471 -0.06362377 -0.06331161 -0.06306941 -0.06291205 -0.06283533 -0.06284163 -0.06292003 -0.06306213
 -0.06325288 -0.0634798 -0.06373022 -0.06399463 -0.06426698 -0.06454302 -0.06482161 -0.06510199 -0.06538289 -0.06566434
 -0.06594288 -0.06621829 -0.06648631 -0.06674669 -0.0669952 -0.06723166 -0.06745271 -0.06765845 -0.06784731 -0.06802022
 -0.06817885 -0.06832508 -0.06846369 -0.06859622 -0.06872761 -0.06885722 -0.06898689 -0.06911336 -0.06923508 -0.06934837
 -0.06945069 -0.0695409 -0.06961764 -0.06968259 -0.06973567 -0.06977969 -0.06981508 -0.06984357 -0.0698655 -0.06987947
 -0.06988539 -0.06987825 -0.06985772 -0.06981838 -0.0697603 -0.06968094 -0.06958101 -0.06946149 -0.06932324 -0.06916856
 -0.06899825 -0.06881445 -0.06861787 -0.06841012 -0.06819136 -0.06796256 -0.06772245 -0.06747134 -0.06720559 -0.06692464
 -0.06662287 -0.06629907 -0.06594807 -0.06556864 -0.06515954 -0.06472024 -0.06425493 -0.06376386 -0.06325699 -0.06273521
 -0.06221215 -0.06168868 -0.06117755 -0.06067775 -0.06019374 -0.05972156 -0.05925506 -0.05878879 -0.05831156 -0.05781916
 -0.05730275 -0.05675988 -0.05618605 -0.05557984 -0.05493908 -0.05426447 -0.05355466 -0.05281557 -0.05204695 -0.05126123
 -0.05045938 -0.04965751 -0.04885704 -0.04807216 -0.04730374 -0.04655888 -0.04583723 -0.04513612 -0.04445421 -0.04378225
 -0.0431189 -0.04245462 -0.04178863 -0.04111483 -0.04043178 -0.0397349 -0.03902206 -0.03828855 -0.03753473 -0.03675795
 -0.03596391 -0.03515403 -0.03433645 -0.03351462 -0.03269313 -0.03187428 -0.03105739 -0.03024299 -0.02942733 -0.02861006
 -0.02778838 -0.02696206 -0.02613404 -0.02530523 -0.02448904 -0.02368771 -0.02292176 -0.02219317 -0.02152023 -0.02090348
 -0.02035321 -0.01986948 -0.01945656 -0.01911544 -0.01884876 -0.01865764 -0.01854444 -0.01850769 -0.01854861 -0.01866053
 -0.01884295 -0.01908352 -0.01938063 -0.01971726 -0.02009143 -0.02048398 -0.020893 -0.02130242 -0.02171111 -0.02211203
 -0.0225053 -0.02289232 -0.0232734 -0.02365101 -0.02402535 -0.02439747 -0.02476959 -0.02514601 -0.02553287 -0.02594139
 -0.02637945 -0.02686095 -0.02739036 -0.0279772 -0.02861874 -0.02931809 -0.03006409 -0.03085502 -0.03167442 -0.03251865
 -0.03337155 -0.03422999 -0.03508266 -0.03592795 -0.0367601 -0.03757864 -0.03838077 -0.03916635 -0.0399329 -0.04068014
 -0.04140494 -0.04210676 -0.04278206 -0.04342988 -0.04404647 -0.04462989 -0.04517556 -0.04568068 -0.04614026 -0.04655195
 -0.04691183 -0.04721978 -0.04747365 -0.04767759 -0.04783086 -0.04794469 -0.04801991 -0.04807512 -0.0481126 -0.04815277
 -0.04819795 -0.0482632 -0.04834969 -0.04846351 -0.04860456 -0.04877088 -0.04896177 -0.04917129 -0.04939919 -0.04964111
 -0.04989774 -0.05016891 -0.05045475 -0.05075604 -0.05107111 -0.05139832 -0.05173594 -0.0520817 -0.05243543 -0.05279671
 -0.05316458 -0.05353961 -0.05391665 -0.05429523 -0.05466736 -0.05503166 -0.05538204 -0.05571754 -0.05603583 -0.05633667
 -0.05661944 -0.05688411 -0.05713027 -0.05735824 -0.05756953 -0.05776533 -0.05795129 -0.05812862 -0.05830396 -0.0584767
 -0.05864955 -0.05881942 -0.05898374 -0.05913911 -0.05928148 -0.05940926 -0.05951999 -0.05961452 -0.05969215 -0.05975598
 -0.05980637 -0.05984759 -0.05988048 -0.05990772 -0.05992983 -0.05994709 -0.05995952 -0.05996785 -0.05997223 -0.05997622
 -0.05997998 -0.05998685 -0.05999602 -0.0600064 -0.06001589 -0.06001846 -0.06001196 -0.05998949 -0.05995002 -0.05988949
 -0.05980743 -0.05970299 -0.05957301 -0.05941676 -0.05922669 -0.05900047 -0.05872865 -0.05840802 -0.05803275 -0.05760039
 -0.0571132 -0.05657001 -0.05598458 -0.05535726 -0.05471493 -0.05405946 -0.05342671 -0.05281917 -0.05227282 -0.05178886
 -0.05139285 -0.05108232 -0.05086534 -0.05073445 -0.05068098 -0.05069398 -0.05075675 -0.05085776 -0.05098191 -0.05111839
 -0.05125698 -0.0513888 -0.05150698 -0.05160958 -0.05169326 -0.05176536 -0.05182617 -0.05188565 -0.05194541 -0.05200845
 -0.05207532 -0.05214132 -0.05220618 -0.05226438 -0.05231609 -0.05236012 -0.0523974 -0.05243124 -0.05246288 -0.05249783
 -0.05253621 -0.0525817 -0.05263175 -0.05268492 -0.05273743 -0.05278475 -0.05282587 -0.0528581 -0.05288394 -0.05290437
 -0.05291941 -0.05293059 -0.05293094 -0.05291985 -0.05288858 -0.05283556 -0.05275874 -0.05265761 -0.05253736 -0.05239825
 -0.0522459 -0.05208025 -0.05190291 -0.05171388 -0.05151351 -0.05130287 -0.05108486 -0.05086149 -0.05063842 -0.05041622
 -0.05019915 -0.04998361 -0.04976842 -0.0495479 -0.04931683 -0.04907542 -0.0488204 -0.04856143 -0.04830017 -0.04804718
 -0.04780579 -0.04757689 -0.04736148 -0.04715411 -0.04695432 -0.04676049 -0.04657263 -0.04639357 -0.046223 -0.04605975
 -0.0459023 -0.04574268 -0.04557975 -0.04540557 -0.0452206 -0.04502221 -0.04481068 -0.04458587 -0.04434634 -0.04409054
 -0.04381751 -0.04352539 -0.04321641 -0.04289079 -0.0425517 -0.04220016 -0.04183821 -0.0414658 -0.04108798 -0.0407046
 -0.04032687 -0.03995549 -0.0396025 -0.03926843 -0.03895878 -0.03867322 -0.03841085 -0.03817102 -0.03795024 -0.03774782
 -0.0375597 -0.03738575 -0.03722352 -0.03707386 -0.03693721 -0.03681365 -0.03670386 -0.0366063 -0.03651964 -0.03644435
 -0.03637958 -0.03632896 -0.03629377 -0.0362753 -0.03627495 -0.0362876 -0.03631328 -0.03634299 -0.03637623 -0.03640269
 -0.03642178 -0.03642214 -0.03640349 -0.03635811 -0.03628713 -0.03619194 -0.0360745 -0.03594187 -0.03579507 -0.03563928
 -0.03547574 -0.03530762 -0.03513809 -0.03497179 -0.03481013 -0.03465735 -0.03450736 -0.03435982 -0.03420352 -0.03403385
 -0.03384703 -0.03363934 -0.0334223 -0.03319619 -0.03297807 -0.03276976 -0.03257693 -0.03239976 -0.0322283 -0.03206159
 -0.03188564 -0.03170051 -0.03149894 -0.03128246 -0.0310519 -0.03080952 -0.03056048 -0.03030664 -0.03005349 -0.02980065
 -0.02955027 -0.02929987 -0.02904804 -0.02879364 -0.02853495 -0.02827454 -0.02801236 -0.0277531 -0.02749778 -0.02724997
 -0.02701063 -0.02677942 -0.02655662 -0.0263376 -0.02612213 -0.02590516 -0.02568679 -0.02546643 -0.02524467 -0.02502463
 -0.02480633 -0.02459182 -0.02437989 -0.02416936 -0.0239578 -0.02374141 -0.02351721 -0.02328015 -0.02302968 -0.02276255
 -0.02248342 -0.02219312 -0.0218982 -0.0216012 -0.02130574 -0.02101265 -0.02072601 -0.02044548 -0.02018239 -0.0199373
 -0.01972572 -0.01954847 -0.01941297 -0.01931824 -0.01925523 -0.01922117 -0.01919596 -0.01917732 -0.01914654 -0.01910366
 -0.01903962 -0.01895544 -0.01884939 -0.01872077 -0.01856866 -0.01839106 -0.01818603 -0.01795278 -0.0176896 -0.0173993
 -0.01708109 -0.01674361 -0.01638751 -0.01602619 -0.0156616 -0.01530475 -0.01495732 -0.01461955 -0.01429152 -0.01396267
 -0.01363216 -0.01328638 -0.01292525 -0.01254006 -0.01213366 -0.01170979 -0.01127472 -0.01084442 -0.01042474 -0.0100327
 -0.009670103 -0.009345435 -0.009058592 -0.008811766 -0.008605506 -0.00844139 -0.008316764 -0.008232598 -0.008179561 -0.00815681
 -0.008150771 -0.008160166 -0.008168423 -0.008174415 -0.008158161 -0.008118477 -0.008039304 -0.007920911 -0.007762979 -0.007568252
 -0.007352798 -0.007119781 -0.006889685 -0.006662806 -0.00645124 -0.006250884 -0.006060847 -0.005875842 -0.005689026 -0.005498011
 -0.005299414 -0.005089897 -0.004868426 -0.004626501 -0.004358324 -0.004068521 -0.003750137 -0.003448222 -0.003167999 -0.002952984
 -0.002811617 -0.002722464 -0.002684921 -0.002653857 -0.002628419 -0.002589215 -0.002538391 -0.002479782 -0.00241542 -0.002354688
 -0.002298396 -0.002253107 -0.002218978 -0.002200173 -0.002193744 -0.002199497 -0.002209703 -0.002218735 -0.002218719 -0.002203001
 -0.002169942 -0.002116271 -0.002047335 -0.00196343 -0.00187162 -0.00177341 -0.001671247 -0.001565554 -0.001456778 -0.001344859
 -0.001237974 -0.001137165 -0.001060281 -0.001008336 -0.0009976485 -0.001026744 -0.001099676 -0.00121225 -0.001357682 -0.001528494
 -0.001710449 -0.00189352 -0.002059667 -0.002203877 -0.002313288 -0.002395661 -0.002451 -0.002490045 -0.002518831 -0.002536374
 -0.002544997 -0.002534433 -0.002502751 -0.00244573 -0.002361584 -0.002262069 -0.002147644 -0.002038452 -0.001934837 -0.001844165
 -0.001764215 -0.001682859 -0.001598598 -0.001497909 -0.001383462 -0.001255316 -0.001116491 -0.0009731927 -0.000825018 -0.0006734699
 -0.0005190359 -0.0003608801 -0.0002051424 -5.465398E-05 8.424085E-05 0.0002067987 0.0003160843 0.0004104343 0.0005018237 0.0005924489
 0.0006888785 0.0007931547 0.0008959616 0.0009969492 0.001081745 0.00115038 0.001204118 0.001244672 0.001286135 0.001327661
 0.001373882 0.001421419 0.001461605 0.001496907 0.001525986 0.001556873 0.001601088 0.001658662 0.001736255 0.001823334
 0.001914737 0.002005072 0.002089117 0.002172268 0.002255109 0.002341881 0.002433625 0.00253139 0.002634903 0.002750563
 0.002878732 0.003026879 0.003194765 0.003376878 0.003570928 0.003757307 0.003933962 0.004081022 0.004199847 0.004282787
 0.004334915 0.004360861 0.00436805 0.004366743 0.004365489 0.004375069 0.004401604 0.004454975 0.004526458 0.004619901
 0.004705231 0.00477609 0.004803259 0.004777031 0.004701747 0.00457437 0.004428691 0.004266915 0.004112361 0.003964944
 0.00381503 0.003660184 0.003476016 0.003263274 0.003010669 0.002724029 0.002412366 0.002083864 0.001757815 0.001440443
 0.001148329 0.0008827933 0.0006519289 0.0004511456 0.000282154 0.0001323803 -1.595322E-06 -0.000135434 -0.0002764879 -0.0004239361
 -0.0005822869 -0.0007246013 -0.0008484208 -0.0009296988 -0.0009655718 -0.00097252 -0.0009507568</values></Ydata></AB><ScSm><Ydata ylabel="Single channel"><values byteorder="INTEL" format="FLOAT32" numvalues="1814"> 0.08591948 0.08603534 0.08616802 0.08632211 0.08649035 0.08665965 0.08681862 0.08696328 0.08709471 0.08721152
 0.08731288 0.08741267 0.08753743 0.08770128 0.08788888 0.08806588 0.08820423 0.08830562 0.08840535 0.08854006
 0.08870045 0.08882637 0.0888615 0.08881319 0.08875134 0.08874585 0.0888191 0.08897527 0.08923987 0.08959644
 0.08989798 0.08996165 0.08979684 0.0896353 0.08967586 0.08988556 0.09009457 0.09018333 0.09013115 0.09000005
 0.08995531 0.0902116 0.09083843 0.09160397 0.09204713 0.09174255 0.09058429 0.08894002 0.0875624 0.08719429
 0.08803236 0.08950691 0.09070867 0.09112126 0.09089896 0.09047572 0.09011301 0.0898978 0.08994524 0.09037454
 0.09111562 0.09183535 0.0920722 0.09154003 0.09044965 0.08946718 0.08917256 0.08961326 0.09050663 0.09158175
 0.09232105 0.09170768 0.08912669 0.08572228 0.08403638 0.08566009 0.08956981 0.09319217 0.09474659 0.0941863
 0.0924526 0.09064547 0.08973335 0.09022211 0.09182495 0.09374671 0.09531464 0.09615792 0.09604197 0.09497847
 0.09344564 0.09218608 0.09179455 0.09254466 0.09427623 0.09622854 0.09734617 0.09711073 0.09592936 0.09461011
 0.09376719 0.09379126 0.09488329 0.09681459 0.09894744 0.1007044 0.1018682 0.1024567 0.1025813 0.1024219
 0.1021397 0.1018569 0.1017782 0.1020833 0.1025739 0.1027197 0.1022486 0.1015147 0.1011385 0.1013681
 0.1018677 0.1021225 0.1019489 0.1013988 0.1002374 0.09805681 0.09511609 0.09247464 0.09095838 0.09058025
 0.09121263 0.09293713 0.09522927 0.09671167 0.09654092 0.09554771 0.09533954 0.09656237 0.0984949 0.1000952
 0.1010122 0.101641 0.1025072 0.1036737 0.1045956 0.1045255 0.1032782 0.1017025 0.1011181 0.1020395
 0.1036739 0.1048919 0.1054141 0.1057737 0.1063762 0.1069094 0.1066182 0.1051157 0.1030546 0.1018913
 0.102684 0.1050468 0.1073559 0.1079766 0.1064224 0.1036157 0.1011166 0.100004 0.1004578 0.1022036
 0.1048953 0.1079469 0.1104439 0.1116089 0.1113385 0.1101771 0.1087233 0.1070731 0.1050372 0.1030155
 0.1022245 0.10356 0.1064469 0.1092978 0.1109781 0.111435 0.1110503 0.1098738 0.1077271 0.1049959
 0.1029807 0.1029312 0.1046219 0.1064127 0.1069923 0.1066028 0.1062901 0.1064777 0.1067404 0.1066782
 0.1065127 0.1067696 0.1076059 0.1086084 0.1092295 0.1092897 0.1090161 0.1087205 0.1085045 0.108203
 0.1076404 0.1070248 0.1069329 0.1077036 0.1089825 0.1100771 0.1106392 0.1108035 0.1107701 0.1104659
 0.1096721 0.1084556 0.1073784 0.1070999 0.1077354 0.1087678 0.1095982 0.1099941 0.1100283 0.1098472
 0.1095722 0.1092713 0.1089806 0.1087893 0.1088203 0.1090666 0.1093469 0.1094859 0.1094572 0.1093161
 0.1090854 0.1087589 0.1083753 0.1080399 0.1078605 0.1078613 0.107977 0.1081191 0.1082164 0.1082055
 0.1080528 0.1077965 0.1075208 0.1072807 0.1070845 0.1069382 0.1068616 0.1068505 0.1068582 0.1068293
 0.1067437 0.1066151 0.106458 0.1062749 0.1060741 0.1058822 0.1057311 0.1056367 0.1055833 0.1055323
 0.1054645 0.1054037 0.1053712 0.1053315 0.1052236 0.1050406 0.1048399 0.1046802 0.1045752 0.104503
 0.1044315 0.1043303 0.1041744 0.1039603 0.1037293 0.1035577 0.103499 0.1035428 0.1036419 0.1037551
 0.1038476 0.1038874 0.1038709 0.1038294 0.1037889 0.1037446 0.1036839 0.1036177 0.1035828 0.1036133
 0.1037072 0.1038211 0.1039066 0.1039457 0.1039491 0.1039427 0.1039616 0.1040221 0.1040901 0.1041093
 0.1040721 0.1040343 0.1040473 0.1040998 0.1041376 0.1041262 0.1040831 0.1040532 0.1040592 0.1040847
 0.1041017 0.1041022 0.1041001 0.1041054 0.1041028 0.1040579 0.1039539 0.1038183 0.103699 0.1036171
 0.1035587 0.1035091 0.1034716 0.103449 0.103425 0.1033746 0.1032893 0.1031863 0.1030885 0.1029967
 0.1028898 0.102752 0.102591 0.1024271 0.1022721 0.1021227 0.1019672 0.1017946 0.1016001 0.1013852
 0.1011549 0.1009146 0.1006672 0.100416 0.1001738 0.09996278 0.09979274 0.09964015 0.09946215 0.0992379
 0.09898994 0.09876277 0.0985854 0.09845478 0.09834945 0.098254 0.0981708 0.0981133 0.09809268 0.09811138
 0.09816356 0.09824084 0.09834282 0.09848343 0.09867832 0.09892004 0.09917276 0.09940121 0.09960312 0.09980574
 0.1000345 0.1002922 0.1005647 0.1008359 0.1010992 0.1013596 0.1016246 0.1018878 0.1021318 0.1023499
 0.1025561 0.1027709 0.1030048 0.1032574 0.1035172 0.1037615 0.103972 0.1041562 0.1043433 0.1045528
 0.1047776 0.1050012 0.1052205 0.105445 0.105682 0.1059312 0.1061911 0.1064664 0.1067634 0.1070812
 0.107409 0.1077331 0.1080492 0.1083678 0.1087064 0.1090751 0.1094684 0.109871 0.1102709 0.1106663
 0.1110625 0.111463 0.1118679 0.1122801 0.1127099 0.1131653 0.1136405 0.1141187 0.1145896 0.1150576
 0.1155307 0.1160083 0.1164831 0.1169545 0.1174359 0.1179437 0.1184736 0.1189954 0.1194785 0.1199228
 0.1203584 0.120816 0.1213036 0.1218066 0.122298 0.1227545 0.1231759 0.1235879 0.1240161 0.1244592
 0.1248977 0.1253256 0.1257604 0.1262174 0.1266826 0.1271209 0.1275101 0.1278622 0.1282065 0.128557
 0.1289001 0.1292163 0.1295068 0.1297913 0.1300835 0.1303805 0.1306784 0.1309858 0.1313098 0.1316361
 0.1319394 0.1322111 0.1324656 0.132717 0.1329644 0.1331992 0.1334188 0.1336306 0.1338483 0.1340801
 0.1343201 0.1345583 0.1348012 0.1350711 0.1353809 0.1357217 0.1360822 0.1364681 0.1368885 0.1373327
 0.1377792 0.1382256 0.1386908 0.1391788 0.139659 0.1400967 0.1404922 0.140873 0.1412583 0.1416523
 0.1420653 0.1425172 0.1430141 0.1435364 0.1440528 0.1445423 0.1450075 0.1454699 0.145947 0.1464269
 0.1468733 0.1472616 0.1476036 0.1479349 0.1482824 0.1486456 0.1490013 0.1493222 0.1495933 0.1498077
 0.1499527 0.1500098 0.149976 0.1498711 0.1497127 0.1494885 0.1491646 0.1487154 0.1481336 0.1474159
 0.1465521 0.1455424 0.1444243 0.1432845 0.1422425 0.1414199 0.1409117 0.1407701 0.1409981 0.1415465
 0.1423166 0.1431762 0.1439869 0.144626 0.1449964 0.1450354 0.1447312 0.1441297 0.1433147 0.1423747
 0.1413829 0.1403952 0.1394554 0.1386134 0.1379511 0.1375909 0.1376674 0.1382817 0.1394691 0.1411776
 0.1432571 0.1454833 0.1476321 0.1495619 0.1512417 0.1527123 0.1540311 0.1552462 0.1563947 0.1574998
 0.1585653 0.1595797 0.1605288 0.1614002 0.1621785 0.1628437 0.1633758 0.1637607 0.1639985 0.1641156
 0.1641659 0.1642147 0.1643196 0.1645213 0.1648318 0.1652177 0.165601 0.1658923 0.166033 0.1660188
 0.1659089 0.1658329 0.1659896 0.166606 0.1678424 0.1696931 0.171963 0.1743565 0.1766103 0.1785698
 0.1801862 0.1814826 0.1825264 0.183399 0.1841672 0.1848705 0.1855289 0.1861546 0.1867566 0.1873425
 0.1879188 0.1884924 0.189071 0.1896605 0.1902612 0.1908671 0.1914721 0.1920771 0.1926893 0.1933134
 0.1939446 0.1945724 0.1951926 0.1958119 0.1964353 0.1970551 0.1976569 0.1982366 0.1988043 0.1993734
 0.1999509 0.2005347 0.2011147 0.2016773 0.2022151 0.2027324 0.2032395 0.2037432 0.2042429 0.2047357
 0.20522 0.2056959 0.2061644 0.2066289 0.207095 0.2075659 0.2080362 0.2084954 0.2089381 0.2093714
 0.209809 0.2102589 0.2107186 0.2111803 0.2116393 0.2120975 0.2125588 0.2130238 0.2134888 0.2139492
 0.2144032 0.2148529 0.2153022 0.2157542 0.2162088 0.2166622 0.2171099 0.2175503 0.217986 0.2184211
 0.2188572 0.2192928 0.2197251 0.2201525 0.2205763 0.220999 0.2214231 0.2218497 0.2222778 0.222707
 0.2231379 0.2235686 0.2239932 0.2244064 0.22481 0.2252093 0.2256064 0.2260011 0.2263938 0.2267867
 0.2271809 0.2275768 0.227974 0.2283705 0.2287646 0.2291583 0.2295549 0.2299544 0.2303528 0.2307458
 0.2311335 0.2315199 0.2319091 0.232301 0.2326923 0.2330808 0.2334671 0.2338515 0.2342344 0.2346182
 0.2350049 0.235394 0.2357851 0.2361779 0.2365716 0.2369651 0.2373585 0.2377509 0.2381403 0.2385271
 0.2389141 0.2393029 0.2396937 0.2400859 0.2404779 0.2408669 0.2412541 0.2416435 0.2420372 0.2424333
 0.2428289 0.2432232 0.2436175 0.2440143 0.244414 0.2448135 0.2452096 0.245602 0.2459913 0.2463789
 0.2467669 0.2471548 0.2475391 0.2479189 0.2482983 0.2486806 0.2490654 0.249451 0.2498361 0.2502204
 0.2506056 0.2509946 0.2513848 0.2517713 0.2521545 0.2525392 0.2529274 0.2533196 0.253717 0.254119
 0.254522 0.2549251 0.2553284 0.2557297 0.2561268 0.25652 0.2569084 0.2572918 0.2576753 0.2580647
 0.2584581 0.2588508 0.2592422 0.259634 0.2600286 0.2604305 0.260841 0.2612556 0.2616721 0.2620928
 0.2625163 0.262937 0.2633541 0.2637692 0.2641814 0.2645909 0.2650022 0.2654182 0.2658399 0.2662678
 0.2666988 0.2671266 0.2675526 0.2679838 0.2684195 0.2688525 0.2692811 0.269707 0.2701302 0.2705549
 0.2709872 0.2714236 0.2718561 0.2722836 0.2727086 0.2731304 0.2735535 0.273986 0.274425 0.2748603
 0.2752882 0.2757095 0.2761241 0.2765386 0.2769629 0.2773968 0.2778341 0.2782732 0.2787103 0.2791394
 0.2795656 0.2799978 0.2804298 0.2808514 0.2812662 0.2816796 0.2820889 0.2824962 0.2829046 0.2833
 0.283652 0.2838974 0.2838652 0.2831888 0.281255 0.2772142 0.2701433 0.2594103 0.2450485 0.2278719
 0.209252 0.1906923 0.1734169 0.1581995 0.1454551 0.1354003 0.1281653 0.1238923 0.1228171 0.1253862
 0.1324113 0.1445855 0.1607184 0.1762146 0.1847944 0.1832443 0.1743243 0.1642643 0.1576948 0.1553752
 0.1557542 0.1572875 0.1593541 0.1620923 0.1658735 0.1707516 0.1764015 0.1826528 0.1898051 0.198167
 0.2074527 0.2168829 0.2258379 0.2342582 0.2424175 0.2504391 0.2581059 0.2650694 0.2711207 0.2762626
 0.2806344 0.2844229 0.2877913 0.2908458 0.2936563 0.2962632 0.2986267 0.3006017 0.3020208 0.3028279
 0.303146 0.3032219 0.3032883 0.3034594 0.3037451 0.3041288 0.3046016 0.3051524 0.3057697 0.3064467
 0.3071671 0.3079048 0.3086401 0.3093626 0.3100609 0.3107284 0.3113666 0.3119744 0.3125455 0.3130822
 0.313595 0.3140912 0.3145762 0.3150568 0.315535 0.3160064 0.316468 0.3169162 0.317344 0.3177489
 0.3181355 0.3185058 0.3188574 0.3191925 0.3195183 0.3198409 0.3201677 0.3205041 0.3208453 0.3211797
 0.3215026 0.3218166 0.3221231 0.3224237 0.3227231 0.3230237 0.3233242 0.3236241 0.3239233 0.3242208
 0.3245191 0.3248239 0.3251352 0.3254448 0.3257448 0.3260337 0.3263182 0.3266121 0.3269248 0.3272513
 0.3275813 0.3279138 0.3282508 0.3285875 0.3289186 0.329248 0.3295794 0.3299105 0.3302378 0.3305593
 0.3308679 0.3311535 0.3314127 0.3316537 0.3318927 0.3321453 0.3324146 0.3326894 0.3329595 0.3332275
 0.3335012 0.3337809 0.3340588 0.3343265 0.3345824 0.3348372 0.3351048 0.3353851 0.3356624 0.3359242
 0.3361685 0.3363935 0.3365923 0.3367552 0.3368662 0.3369003 0.3368327 0.3366534 0.3363692 0.3359917
 0.3355153 0.3349084 0.3341379 0.333203 0.3321397 0.3309977 0.3298254 0.3286595 0.3275146 0.3263997
 0.3253673 0.3245238 0.3239676 0.3237299 0.3237871 0.3241153 0.3247154 0.3255975 0.3267559 0.3281617
 0.3297701 0.3315358 0.3334311 0.3354554 0.3376082 0.3398373 0.3420322 0.3440891 0.3459632 0.3476508
 0.3491569 0.3504933 0.3516626 0.3526313 0.3533747 0.3539719 0.3546 0.3553817 0.3562639 0.3570848
 0.3577468 0.3582844 0.358774 0.3592412 0.3596715 0.3600316 0.3602312 0.3601701 0.3599302 0.3598424
 0.3602197 0.3610407 0.3619916 0.3627816 0.363335 0.3637255 0.3640479 0.3643553 0.3646261 0.3647648
 0.3647031 0.3645501 0.3645802 0.3649848 0.365658 0.3663131 0.3667844 0.3671238 0.3674457 0.3677945
 0.368118 0.3682445 0.3679588 0.3672959 0.3667343 0.3668858 0.3679031 0.3693052 0.3704576 0.3711369
 0.3715331 0.371807 0.3718544 0.3715009 0.3707185 0.3696371 0.3686017 0.3682212 0.3689715 0.3705879
 0.3721742 0.3730994 0.3735386 0.3740212 0.3747401 0.3754698 0.3759352 0.3760574 0.3759082 0.3755493
 0.3750027 0.3744317 0.374249 0.3748287 0.3760715 0.377425 0.3784025 0.3789666 0.3793095 0.3792904
 0.3782901 0.3759428 0.3731013 0.3716292 0.3727489 0.3757554 0.3787776 0.3806283 0.3814584 0.3818874
 0.3821968 0.3822477 0.3814609 0.3790069 0.3749328 0.3711473 0.3702634 0.3730246 0.3774739 0.3808488
 0.3816932 0.3801634 0.377328 0.3746687 0.3735545 0.3744989 0.376941 0.3798151 0.3821951 0.3835459
 0.3837528 0.3830681 0.3820108 0.3812249 0.3810753 0.3811043 0.3803151 0.3784606 0.3765147 0.3751752
 0.3735902 0.3707529 0.3677391 0.3670454 0.3694998 0.3730688 0.375217 0.375502 0.3751318 0.374528
 0.3723186 0.3671473 0.3601823 0.3550936 0.3549083 0.3589894 0.3636682 0.3658466 0.3654483 0.3643842
 0.3638646 0.3631178 0.3605494 0.3559972 0.3516072 0.3499125 0.3510025 0.3523992 0.3517991 0.3487081
 0.3432665 0.3356365 0.3278348 0.3241404 0.3273199 0.3351671 0.3424453 0.3454207 0.3430519 0.3354118
 0.3239983 0.3132922 0.3087588 0.3118141 0.3181623 0.3219301 0.3202896 0.3136176 0.3031016 0.2901387
 0.2774864 0.2689494 0.2669469 0.2705871 0.2759698 0.2780086 0.2730299 0.2616455 0.2493686 0.2424913
 0.242262 0.2441312 0.2431265 0.2384956 0.2327009 0.2279606 0.2249771 0.2234429 0.2224575 0.2212648
 0.2199061 0.2180373 0.2136805 0.205604 0.1969589 0.1936128 0.1980056 0.207092 0.2170009 0.2267414
 0.2359605 0.2422491 0.2436985 0.2427566 0.2446734 0.2519684 0.2620157 0.2703102 0.2749863 0.2775928
 0.2801092 0.2824104 0.2834006 0.2839003 0.2866448 0.2928871 0.300435 0.3060234 0.30859 0.3092916
 0.3093249 0.3089383 0.3080226 0.3065878 0.3047233 0.3026204 0.3005461 0.2985766 0.2965595 0.2944249
 0.2921132 0.2889304 0.2836069 0.2759568 0.2682931 0.2638428 0.2633706 0.2646877 0.2657811 0.2662972
 0.2649924 0.25862 0.2461726 0.2327192 0.2259231 0.2286758 0.2368848 0.2442246 0.2472411 0.2457381
 0.2405147 0.2329934 0.2268367 0.2273803 0.2374529 0.2543117 0.2720442 0.286509 0.2968444 0.3031873
 0.3051841 0.3032666 0.3000468 0.2993169 0.3035122 0.3121546 0.3222474 0.3295838 0.3305472 0.3251249
 0.3190542 0.3203045 0.3310033 0.3444957 0.3526971 0.35463 0.3551686 0.3573762 0.3598741 0.3611506
 0.3625937 0.3660696 0.3707737 0.3738662 0.3730195 0.3674245 0.3577594 0.346826 0.3391066 0.3373264
 0.3395733 0.3415492 0.3409666 0.3376951 0.3311731 0.3215372 0.312893 0.3111411 0.3173552 0.3262394
 0.3321719 0.3344321 0.3355526 0.336637 0.3360032 0.3319771 0.3258595 0.3213412 0.3208396 0.3231589
 0.3253176 0.3257178 0.3244203 0.3213249 0.3161162 0.3101261 0.3064921 0.3074264 0.3118957 0.3166546
 0.3192441 0.3195094 0.3186628 0.3177718 0.3172017 0.316792 0.3163408 0.3162922 0.3177864 0.321424
 0.3261611 0.3302274 0.3331398 0.3360673 0.3401067 0.3448505 0.3488815 0.3512624 0.3523179 0.3531975
 0.3548405 0.3572112 0.3593503 0.3602253 0.3597294 0.3588901 0.3589441 0.3601791 0.3618368 0.363098
 0.3638655 0.3645823 0.3656503 0.3671285 0.3687035 0.3698775 0.3704578 0.370916 0.3719872 0.3738341
 0.3758244 0.3771824 0.3776565 0.3774939 0.3769821 0.3761915 0.3751016 0.3738179 0.3725862 0.3716182
 0.3709514 0.3704777 0.3700615 0.3696169 0.3691267 0.3686389 0.3682353 0.3679725 0.3678575 0.3678823
 0.3680529 0.3683662 0.3687924 0.3693025 0.36988 0.370478 0.3709909 0.3712963 0.3713125 0.3709966
 0.3703136 0.36923 0.3677173 0.3657308 0.3632163 0.3602312 0.3571399 0.3546529 0.3535312 0.3541124
 0.3560663 0.3586143 0.361006 0.3628576 0.3641632 0.3650953 0.3658168 0.3664088 0.3668885 0.3672479
 0.3674838 0.3676133 0.3676679 0.3676725 0.3676363 0.3675665 0.3674794 0.3673927 0.3673091 0.3672078
 0.3670507 0.3667992 0.3664297 0.3659382 0.3653312 0.3646104 0.3637611 0.3627578 0.3615937 0.3603056
 0.3589635 0.3576299 0.356325 0.3550231 0.3536774 0.3522405 0.3506484 0.3488107 0.3466877 0.3444019
 0.3422103 0.3403001 0.3386332 0.3370217 0.3353148 0.3334718 0.3315021 0.3294079 0.3271869 0.3248423
 0.3223768 0.319788 0.3170732 0.3142378 0.3113053 0.3083171 0.3053117 0.3023043 0.2992926 0.2962684
 0.2931985 0.2899886 0.2864822 0.2825071 0.27793 0.2726808 0.2667598 0.2602488 0.2533167 0.2461967
 0.2391397 0.2323789 0.2261154 0.2205162 0.2157149 0.2118127 0.2088794 0.2069525 0.2060411 0.2061332
 0.2071969 0.2091709 0.2119529 0.2153978 0.2193287 0.2235485 0.2278502 0.2320409 0.2359932 0.2396952
 0.243235 0.2467104 0.250141 0.2534655 0.2566051 0.2595105 0.262156 0.2645221 0.2666016 0.2684153
 0.2700101 0.2714354 0.2727186 0.2738538 0.2748104 0.2755594 0.2760983 0.2764605 0.2767089 0.2769224
 0.2771745 0.2775155 0.2779681 0.2785387 0.27923 0.2800456 0.280988 0.2820528 0.2832241 0.2844797
 0.2858047 0.2872012 0.2886863 0.2902852 0.2920219 0.2939071 0.2959305 0.2980554 0.300217 0.3023231
 0.304264 0.3059337 0.3072549 0.3081973 0.3087776 0.3090397 0.3090317 0.3087965 0.3083711 0.3077864
 0.307071 0.3062558 0.3053698 0.3044261 0.3034128 0.3023053 0.3010902 0.2997794 0.2983934 0.2969331
 0.2953791 0.2937185 0.2919643 0.2901542 0.2883505 0.2866385 0.2851081 0.2838207 0.2827898 0.2819839
 0.2813381 0.2807671 0.2801773 0.2794782 0.2786042 0.2775337 0.2762789 0.2748545 0.2732652 0.2715163
 0.2696223 0.2676039 0.2654821 0.263272 0.2609758 0.2585839 0.2560816 0.2534581 0.2507286 0.2479571
 0.2452419 0.2426651 0.2402571 0.2380028 0.2358673 0.2338208 0.2318515 0.229957 0.2281282 0.2263538
 0.2246331 0.2229758 0.2213961 0.2199124 0.218541 0.2172897 0.2161651 0.2151771 0.2143226 0.213578
 0.2129152 0.212317 0.2117815 0.2113307 0.2109978 0.2107777 0.210598 0.2103616 0.210018 0.2095933
 0.2091633 0.2088012 0.2085357 0.2083534 0.2082213 0.208084 0.2078484 0.2074007 0.2066408 0.2054971
 0.2039372 0.2019871 0.1997345 0.1973149 0.1948933 0.1926318 0.1906475 0.1889997 0.1877002 0.186704
 0.1859164 0.185256 0.1847189 0.184371 0.1842862 0.1844657 0.1847774 0.1850092 0.1850514 0.1850178
 0.1851474 0.185601 0.1863626 0.187285 0.1881935 0.1889701 0.1895687 0.1899793 0.1902139 0.1903125
 0.1903116 0.1902081 0.1899813 0.1896288 0.1891592 0.1885828 0.187917 0.1871673 0.1863122 0.1853361
 0.1842513 0.1830695 0.1817931 0.1804284 0.178964 0.1773738 0.1757171 0.1742147 0.1731671 0.1727906
 0.1731035 0.1739159 0.1749518 0.1760247 0.1770578 0.1779538 0.1785945 0.1790421 0.1796319 0.1807539
 0.1825229 0.1846593 0.1866816 0.1882193 0.1891465 0.189482 0.189287 0.1886483 0.187624 0.186196
 0.1843645 0.1822353 0.1799445 0.1775994 0.1753248 0.1732379 0.1713857 0.1697934 0.1684842 0.1674657
 0.1668028 0.1662237 0.1641532 0.1582556 0.1487398 0.1405197 0.1395189 0.1462944 0.1552763 0.1607547
 0.1617383 0.1606107 0.1593615 0.1584214 0.1577083 0.157281 0.1571885 0.1573344 0.1575094 0.1574825
 0.1571474 0.1565162 0.1554709 0.1535295 0.1498344 0.1434579 0.134087 0.1226656 0.1111997 0.101693
 0.09515274 0.09137508 0.08937792 0.08808783 0.08695644 0.08614469 0.0861593 0.08734 0.08967009 0.09292731
 0.09684726 0.1010987 0.1052209 0.1087598 0.111514 0.113562 0.1150417 0.1160027 0.1164656 0.116495
 0.1161755 0.1155829 0.1147819 0.1138003 0.1126142 0.1112038 0.1096407 0.1081247 0.1069051 0.1061177
 0.1056955 0.1054722 0.1053408 0.1052769 0.1052686 0.1052956 0.1053521 0.1054515 0.1056217 0.1058884
 0.106232 0.1065762 0.1068446 0.1070132 0.107102 0.1071319 0.107084 0.106908 0.1066045 0.1062661
 0.1059476 0.1055177 0.1047622 0.103667 0.1025279 0.1017569 0.1015924 0.1019582 0.1025499 0.1030598
 0.1033577 0.103491 0.1035495 0.103537</values></Ydata></ScSm><ScRf><Ydata ylabel="Single channel"><values byteorder="INTEL" format="FLOAT32" numvalues="1820"> 0.06970078 0.06983386 0.06995086 0.07005017 0.07013617 0.07022166 0.07032229 0.07044533 0.07058439 0.07072398
 0.0708492 0.07095495 0.07104591 0.07112738 0.0712036 0.07128626 0.07139227 0.07152605 0.07167143 0.0718035
 0.07190623 0.07198481 0.07206556 0.07217245 0.07229393 0.07238199 0.07239624 0.07234854 0.07229765 0.07229707
 0.07235905 0.07248335 0.0726923 0.07297686 0.07321931 0.07326804 0.07312691 0.07298407 0.07300389 0.07316206
 0.07332128 0.07338452 0.07333501 0.07322252 0.07317983 0.07337971 0.07387866 0.07449044 0.07484286 0.07459027
 0.07364318 0.07229608 0.07116005 0.07084377 0.07151383 0.07270947 0.07368756 0.07402229 0.07383642 0.07348472
 0.07318388 0.0730065 0.073043 0.07338501 0.07397428 0.07454428 0.07472384 0.07428035 0.07338432 0.07257885
 0.07233638 0.07269269 0.07341423 0.07428023 0.07487167 0.0743624 0.07225213 0.06947305 0.06809561 0.06941447
 0.07259324 0.07553403 0.07678757 0.07631908 0.07489868 0.0734233 0.07267959 0.07307571 0.07437546 0.07593124
 0.0771965 0.07787052 0.07776408 0.07688992 0.07563932 0.07461476 0.07429515 0.07489918 0.07629722 0.07787473
 0.07877716 0.07858236 0.07761692 0.07653353 0.07583168 0.07583298 0.07670499 0.07826342 0.07998899 0.08140981
 0.08234625 0.08281107 0.08289664 0.08275445 0.08251947 0.0822899 0.08222695 0.08247205 0.08286397 0.08297436
 0.08258443 0.08198225 0.08167052 0.08184826 0.08224207 0.08243707 0.08228852 0.08184046 0.08089973 0.07913136
 0.07674392 0.07459746 0.07336277 0.07304981 0.07355383 0.07494062 0.07678707 0.07798105 0.07784235 0.07704212
 0.07687619 0.07786286 0.0794192 0.08070633 0.08144209 0.08194397 0.08263575 0.08357102 0.08431329 0.08425792
 0.08325018 0.08197288 0.08149484 0.08223607 0.08355664 0.08454221 0.08496535 0.08525673 0.08574514 0.08617948
 0.08594882 0.08473839 0.08307516 0.08213915 0.08278906 0.0847127 0.08659373 0.08710782 0.08586321 0.08361061
 0.08161523 0.08074892 0.08115393 0.08260708 0.08482983 0.08734919 0.08942306 0.09041699 0.09024252 0.08934122
 0.08820283 0.08690712 0.08529921 0.08370471 0.08311801 0.08427308 0.08670242 0.08910871 0.09056024 0.09100797
 0.0907629 0.08986855 0.08818115 0.08601764 0.08444556 0.08449069 0.08596583 0.08752191 0.08808219 0.08784868
 0.08768265 0.08793086 0.0882398 0.08827816 0.08823231 0.0885423 0.08933988 0.09027918 0.09090176 0.09105738
 0.09093595 0.09079769 0.0907256 0.09057939 0.09021426 0.0898118 0.08986104 0.09064344 0.09185242 0.09289923
 0.09349121 0.09374741 0.0938402 0.09370511 0.09315211 0.09223811 0.09144586 0.09134021 0.09201854 0.09303751
 0.09388442 0.0943591 0.09452163 0.09449638 0.09438874 0.09426104 0.09414783 0.0941245 0.094291 0.09463654
 0.09500542 0.09525186 0.09535828 0.09537375 0.09531511 0.09517442 0.09498459 0.09483574 0.09481686 0.09494568
 0.09516763 0.09541263 0.095624 0.09574703 0.09574814 0.09565732 0.09555008 0.09547865 0.09545012 0.09546499
 0.09553678 0.09566326 0.09580599 0.09591716 0.09597872 0.09600384 0.09600767 0.09599261 0.09596148 0.09593101
 0.09592797 0.09597239 0.09605829 0.09615594 0.09624867 0.09635551 0.0964905 0.09661476 0.09666871 0.09664762
 0.09660986 0.09661299 0.09666789 0.0967502 0.09682882 0.09687613 0.09686926 0.09680569 0.09672676 0.09670664
 0.09679643 0.09698583 0.09722761 0.09747741 0.09769861 0.09786275 0.09797031 0.09805135 0.0981293 0.09819968
 0.09825212 0.09829897 0.09837537 0.09851255 0.09870658 0.09891704 0.09910139 0.09924304 0.09934728 0.09943481
 0.09954168 0.09968944 0.09984532 0.09994851 0.09998971 0.10003 0.1001248 0.1002563 0.1003598 0.100401
 0.1004094 0.1004408 0.1005207 0.1006305 0.1007398 0.1008403 0.1009484 0.1010782 0.1012098 0.1012923
 0.1012929 0.1012387 0.1011924 0.1011892 0.10122 0.1012698 0.1013415 0.1014329 0.1015168 0.1015597
 0.1015572 0.1015395 0.1015391 0.1015563 0.101562 0.1015335 0.1014777 0.1014196 0.1013796 0.101361
 0.1013522 0.1013345 0.1012943 0.1012328 0.1011613 0.1010892 0.101018 0.1009493 0.1008987 0.1008908
 0.1009256 0.1009532 0.1009044 0.1007554 0.1005539 0.1003751 0.100257 0.1001798 0.1000966 0.09997633
 0.09982259 0.09966145 0.09951544 0.0993887 0.0992717 0.09915636 0.09904924 0.09897123 0.09893685 0.09892786
 0.09889707 0.09881021 0.09867996 0.09854925 0.09844841 0.09837838 0.09832646 0.09828311 0.09824784 0.09822873
 0.09823187 0.09824537 0.09824489 0.09822139 0.09819392 0.09819096 0.09823049 0.09831525 0.0984281 0.09853051
 0.09858857 0.09860946 0.09863706 0.09870529 0.09880911 0.09892476 0.09904142 0.09916416 0.09929876 0.09944652
 0.09961008 0.09979445 0.1000008 0.1002226 0.1004476 0.1006646 0.1008724 0.1010827 0.1013135 0.1015741
 0.1018574 0.1021451 0.1024222 0.102688 0.1029538 0.1032276 0.1035055 0.1037812 0.1040608 0.1043577
 0.1046752 0.105002 0.1053263 0.1056461 0.105965 0.1062853 0.1066062 0.1069298 0.1072667 0.1076287
 0.1080095 0.1083771 0.1086991 0.1089761 0.1092428 0.1095369 0.1098703 0.1102248 0.1105649 0.1108634
 0.1111254 0.111385 0.1116687 0.1119691 0.1122652 0.1125611 0.1128875 0.1132593 0.1136448 0.1139859
 0.1142517 0.114467 0.1146838 0.1149271 0.1151772 0.1154047 0.1156091 0.1158142 0.1160342 0.116264
 0.1165011 0.1167569 0.117036 0.1173185 0.1175772 0.1178059 0.1180179 0.1182212 0.1184063 0.118557
 0.1186668 0.1187493 0.1188347 0.1189495 0.1190942 0.119248 0.1193964 0.1195455 0.1197068 0.1198831
 0.1200755 0.120292 0.1205361 0.1207924 0.1210407 0.1212869 0.1215591 0.1218642 0.1221634 0.1224114
 0.1226085 0.1227921 0.122988 0.1231961 0.123418 0.1236693 0.123956 0.1242606 0.1245577 0.1248362
 0.1251083 0.125399 0.1257181 0.1260393 0.1263149 0.1265217 0.1266848 0.1268536 0.1270627 0.1273166
 0.1275983 0.1278844 0.1281567 0.1284033 0.1286104 0.1287638 0.1288632 0.1289291 0.1289811 0.1290111
 0.1289858 0.1288726 0.1286549 0.1283238 0.1278683 0.1272864 0.1266059 0.1258931 0.1252388 0.1247317
 0.1244374 0.1243919 0.1246003 0.1250325 0.1256189 0.1262617 0.1268602 0.1273277 0.1275954 0.127616
 0.1273782 0.1269132 0.1262795 0.1255378 0.1247398 0.1239251 0.1231245 0.122377 0.1217593 0.1213927
 0.1214106 0.1219072 0.1229008 0.1243161 0.1259879 0.1277026 0.1292784 0.1306296 0.1317682 0.1327518
 0.1336353 0.1344551 0.1352333 0.1359784 0.1366856 0.1373472 0.137964 0.1385421 0.139081 0.1395683
 0.1399859 0.1403177 0.1405576 0.1407152 0.1408114 0.1408648 0.1408868 0.1408883 0.1408775 0.1408413
 0.1407383 0.1405198 0.1401616 0.1396815 0.1391459 0.1386757 0.1384387 0.1386066 0.1392796 0.1404229
 0.1418718 0.1434112 0.1448641 0.1461264 0.1471564 0.1479622 0.1485918 0.1491082 0.14956 0.1499738
 0.1503628 0.1507333 0.151087 0.1514263 0.1517588 0.1520936 0.1524353 0.1527826 0.1531288 0.1534669
 0.1537944 0.1541178 0.1544488 0.1547958 0.155155 0.1555114 0.1558538 0.1561869 0.1565228 0.1568617
 0.1571909 0.1575033 0.1578082 0.1581226 0.158457 0.1588098 0.1591672 0.1595093 0.1598232 0.1601125
 0.1603912 0.1606709 0.1609543 0.1612388 0.1615214 0.1617998 0.162074 0.1623473 0.1626245 0.1629071
 0.1631887 0.163459 0.1637133 0.1639579 0.1642036 0.164455 0.1647087 0.1649608 0.1652128 0.1654705
 0.1657376 0.1660118 0.1662854 0.1665507 0.1668037 0.1670462 0.1672838 0.1675227 0.1677658 0.1680129
 0.1682633 0.1685171 0.1687743 0.1690333 0.1692916 0.1695466 0.1697969 0.1700422 0.1702849 0.1705273
 0.1707699 0.1710114 0.1712521 0.1714948 0.1717435 0.1719982 0.1722527 0.1724997 0.1727367 0.1729665
 0.1731932 0.1734211 0.1736539 0.1738919 0.1741321 0.1743715 0.1746098 0.174849 0.1750907 0.1753351
 0.1755796 0.175821 0.1760585 0.1762941 0.1765305 0.1767715 0.1770201 0.1772735 0.1775239 0.1777657
 0.1780002 0.178231 0.1784589 0.1786836 0.1789066 0.1791319 0.1793632 0.1796004 0.1798382 0.1800714
 0.1803007 0.1805302 0.1807632 0.1810001 0.1812404 0.181482 0.1817223 0.1819589 0.1821918 0.1824237
 0.1826584 0.1828984 0.1831416 0.1833829 0.1836195 0.1838522 0.184084 0.1843179 0.1845548 0.1847933
 0.1850315 0.1852677 0.1854994 0.1857267 0.1859547 0.1861893 0.1864317 0.1866788 0.1869264 0.1871702
 0.1874095 0.1876492 0.1878931 0.188139 0.1883837 0.1886285 0.1888757 0.189123 0.1893668 0.1896069
 0.1898486 0.1900983 0.1903574 0.1906197 0.1908782 0.1911329 0.1913869 0.1916387 0.1918835 0.19212
 0.1923513 0.1925806 0.1928087 0.1930325 0.1932498 0.1934659 0.1936897 0.1939239 0.1941652 0.1944104
 0.1946557 0.1948962 0.1951321 0.1953697 0.1956122 0.1958584 0.1961073 0.196358 0.1966089 0.1968619
 0.1971211 0.1973849 0.1976485 0.1979121 0.1981778 0.1984434 0.1987068 0.1989689 0.1992295 0.1994875
 0.1997453 0.2000047 0.200264 0.2005241 0.2007885 0.2010564 0.2013245 0.2015938 0.2018643 0.2021334
 0.2024035 0.2026792 0.2029572 0.2032303 0.2034983 0.2037634 0.2040258 0.2042898 0.20456 0.204832
 0.205101 0.2053721 0.2056488 0.2059255 0.2061987 0.2064707 0.2067391 0.2070015 0.2072645 0.2075328
 0.207801 0.2080657 0.2083281 0.2085804 0.2088021 0.2089442 0.2088775 0.2083319 0.2068588 0.2038355
 0.1985837 0.1906365 0.1800167 0.1673236 0.1535722 0.1398745 0.1271325 0.1159118 0.1065142 0.09909895
 0.09376277 0.09060998 0.08981334 0.09170099 0.09686895 0.1058242 0.1176848 0.1290632 0.135341 0.1341676
 0.1275901 0.1201936 0.1153696 0.1136604 0.113923 0.1150311 0.1165362 0.1185389 0.1213056 0.1248738
 0.1290098 0.1335941 0.1388449 0.1449808 0.1517888 0.158703 0.1652751 0.1714594 0.1774483 0.1833267
 0.1889372 0.1940302 0.1984572 0.2022212 0.2054225 0.2081957 0.210658 0.2128866 0.2149348 0.2168358
 0.2185604 0.2199999 0.2210314 0.2216166 0.2218464 0.2218975 0.2219359 0.2220461 0.2222413 0.2225136
 0.2228572 0.2232629 0.2237205 0.2242208 0.2247485 0.2252859 0.2258243 0.2263587 0.2268772 0.2273688
 0.2278336 0.2282767 0.2287022 0.2291127 0.2295079 0.229885 0.2302488 0.2306097 0.2309705 0.231325
 0.2316694 0.2320036 0.2323254 0.2326328 0.232926 0.2332049 0.2334707 0.2337318 0.2339958 0.2342599
 0.2345174 0.2347665 0.2350098 0.2352518 0.2354965 0.2357442 0.2359911 0.2362364 0.2364823 0.2367262
 0.2369616 0.2371893 0.2374172 0.2376504 0.2378882 0.2381285 0.2383683 0.2386054 0.2388392 0.2390707
 0.2393042 0.2395475 0.2398064 0.2400762 0.2403472 0.2406168 0.240888 0.2411613 0.2414353 0.241709
 0.2419805 0.2422483 0.2425157 0.2427864 0.2430554 0.2433101 0.243543 0.2437595 0.2439753 0.244204
 0.2444463 0.2446918 0.2449325 0.24517 0.2454095 0.2456532 0.2459003 0.2461486 0.2463978 0.2466537
 0.2469234 0.2472057 0.2474932 0.2477829 0.2480755 0.2483675 0.2486551 0.2489415 0.2492307 0.2495174
 0.2497917 0.2500552 0.2503264 0.2506281 0.2509648 0.2513144 0.2516488 0.2519615 0.2522674 0.252583
 0.2529135 0.2532485 0.2535593 0.2538177 0.2540361 0.2542734 0.2545831 0.254962 0.2553617 0.2557396
 0.256086 0.2564122 0.256727 0.2570275 0.2573052 0.2575564 0.2577944 0.2580539 0.2583716 0.2587472
 0.2591379 0.2595 0.2598235 0.2601212 0.2604066 0.2606909 0.2609669 0.2611919 0.26133 0.2614297
 0.2616176 0.2619805 0.2624716 0.2629605 0.2633619 0.2636896 0.2639949 0.2642992 0.2645957 0.2648568
 0.2650069 0.2649671 0.2648012 0.2647571 0.2650629 0.2656966 0.2664244 0.2670371 0.2674851 0.2678241
 0.2681181 0.2683983 0.2686452 0.2687905 0.2687886 0.2687221 0.2687931 0.2691416 0.2696887 0.2702225
 0.2706194 0.2709154 0.271194 0.2714896 0.2717664 0.2718984 0.271728 0.2712846 0.2709244 0.2710972
 0.2719113 0.2730079 0.2739165 0.274471 0.2748121 0.2750605 0.2751424 0.2749334 0.2744157 0.2736831
 0.2729856 0.2727724 0.273397 0.2746622 0.2759016 0.2766492 0.27704 0.2774702 0.2780837 0.2787127
 0.2791508 0.2793373 0.2793226 0.279148 0.2788266 0.2784821 0.2784282 0.2789466 0.2799625 0.2810646
 0.2818894 0.2824063 0.2827547 0.2828279 0.2821644 0.2804965 0.2784702 0.277481 0.278437 0.2808032
 0.2831799 0.2846832 0.28543 0.2858839 0.2862503 0.2864171 0.285945 0.284214 0.2812697 0.278559
 0.2780497 0.280288 0.283786 0.2864649 0.28724 0.2862325 0.2842427 0.2823864 0.2817002 0.2825743
 0.2845876 0.2869377 0.2889233 0.290136 0.2904857 0.2901602 0.289549 0.2891412 0.2892166 0.2894273
 0.2890175 0.2878076 0.2865434 0.2857494 0.2847686 0.2828347 0.2807746 0.2804953 0.282624 0.2856011
 0.2874895 0.2879595 0.2879401 0.2877454 0.2863121 0.2826014 0.2775238 0.2739148 0.2741105 0.2776144
 0.2815865 0.2836323 0.2836982 0.2832655 0.2832685 0.2831063 0.2815407 0.2784509 0.2755235 0.2747425
 0.2761616 0.2778217 0.2779211 0.2760806 0.2723937 0.2669728 0.261444 0.2592576 0.262643 0.2698345
 0.2766308 0.2800223 0.2791342 0.2739794 0.2657667 0.2582031 0.2558286 0.2598289 0.2666486 0.2714314
 0.2718499 0.2682063 0.2614532 0.2527797 0.2446374 0.2404327 0.2423531 0.2496055 0.2585719 0.2643749
 0.2633631 0.256036 0.2477779 0.2448084 0.248332 0.2537374 0.2560186 0.2544856 0.2517256 0.2500788
 0.2503484 0.2522357 0.2546777 0.2566853 0.2581047 0.2582225 0.254373 0.2448883 0.233486 0.227291
 0.2294881 0.2367677 0.2447338 0.2523269 0.259342 0.2632534 0.2619062 0.2577734 0.256367 0.2603499
 0.2670018 0.271693 0.272585 0.2713761 0.2702265 0.2691901 0.2672818 0.2652478 0.2656066 0.269508
 0.2749285 0.2788669 0.2803578 0.280469 0.2802816 0.2799807 0.2794183 0.2785631 0.2774577 0.2762371
 0.2751187 0.2741622 0.2732236 0.2722369 0.271144 0.2692802 0.2654273 0.259398 0.2533861 0.2504496
 0.2513005 0.2538624 0.2562586 0.2581705 0.2583387 0.2535367 0.2427857 0.2311308 0.2261706 0.2307127
 0.2405391 0.2491419 0.2528664 0.2513625 0.2453878 0.2364578 0.2283856 0.2266101 0.2340019 0.2478609
 0.2623526 0.2734494 0.2804492 0.2836945 0.2830227 0.2789351 0.2738991 0.2713656 0.2733992 0.2793236
 0.2862388 0.290368 0.288703 0.2814827 0.2738342 0.2726694 0.2798297 0.2896367 0.2951596 0.2954755
 0.2946462 0.295276 0.2962845 0.296476 0.2970419 0.2995559 0.3033917 0.3062467 0.3062084 0.3025597
 0.2957655 0.2880265 0.2829277 0.282599 0.2853562 0.2876272 0.2876147 0.2853273 0.280333 0.2727281
 0.2659401 0.2648903 0.2703974 0.2779304 0.2827719 0.2844128 0.2850815 0.2857414 0.2849568 0.2812945
 0.2758652 0.2718414 0.2713462 0.2734528 0.2757095 0.2767944 0.2767177 0.2752852 0.27211 0.268264
 0.2664279 0.2685098 0.2736018 0.278863 0.2821279 0.2832279 0.283172 0.2828432 0.2825264 0.2820645
 0.2812827 0.2805933 0.2810305 0.2831496 0.2860572 0.2882253 0.2892571 0.2902129 0.292116 0.2946987
 0.2968109 0.2976938 0.2976486 0.2976549 0.2984895 0.3000904 0.3016194 0.3022019 0.3017875 0.3013088
 0.3018422 0.3035787 0.3057488 0.3075034 0.3086256 0.3094089 0.3101718 0.310986 0.3116442 0.3118327
 0.3115429 0.3113236 0.3118761 0.3133304 0.3150947 0.3164557 0.3171656 0.3174141 0.3174277 0.3172482
 0.3168428 0.3162841 0.3157616 0.3154393 0.3153417 0.3153766 0.3154347 0.315455 0.3154343 0.3154134
 0.3154457 0.3155547 0.3157237 0.3159286 0.3161541 0.316371 0.316538 0.3166468 0.3167326 0.3168164
 0.3168582 0.3167869 0.3165477 0.3161025 0.3154092 0.3144276 0.3131334 0.3115035 0.3095106 0.3072165
 0.304939 0.303288 0.3029076 0.3040617 0.306423 0.309263 0.3118659 0.3138321 0.3151111 0.3158526
 0.3162437 0.3164227 0.3164615 0.3163826 0.3161919 0.3159092 0.3155714 0.3152114 0.3148486 0.3144981
 0.3141769 0.3138934 0.3136341 0.3133661 0.3130538 0.312675 0.3122239 0.3117031 0.311115 0.3104534
 0.309701 0.3088396 0.307876 0.3068548 0.3058411 0.3048844 0.3039941 0.3031403 0.3022773 0.3013617
 0.3003412 0.2991481 0.2977631 0.2963041 0.294995 0.2939863 0.2932211 0.2925033 0.2916715 0.290682
 0.2895643 0.2883564 0.2870863 0.2857738 0.2844281 0.2830448 0.2816049 0.2800802 0.278451 0.2767195
 0.2749043 0.2730266 0.2711072 0.2691625 0.2671789 0.2650837 0.2627448 0.260003 0.2567152 0.2527875
 0.248199 0.243019 0.2374067 0.2315816 0.2257711 0.2201705 0.2149368 0.2102039 0.2060909 0.2026973
 0.2000934 0.1983183 0.1973867 0.1973007 0.1980508 0.1996051 0.2018947 0.2048052 0.2081783 0.2118237
 0.2155404 0.219142 0.2224955 0.2255591 0.2283769 0.2310126 0.233481 0.2357464 0.2377724 0.2395517
 0.2410889 0.2423829 0.2434367 0.2442784 0.2449602 0.2455377 0.2460476 0.2464994 0.2468828 0.2471853
 0.2474098 0.2475782 0.2477215 0.2478687 0.2480405 0.2482487 0.2484998 0.2488031 0.2491727 0.2496203
 0.2501481 0.2507513 0.2514209 0.2521439 0.2529095 0.2537218 0.2546076 0.255607 0.2567555 0.2580685
 0.2595388 0.261135 0.2627961 0.2644283 0.2659207 0.2671768 0.2681403 0.2688004 0.2691815 0.269322
 0.2692571 0.2690136 0.2686171 0.2680929 0.2674637 0.2667487 0.2659669 0.2651338 0.2642555 0.263329
 0.2623542 0.2613466 0.2603338 0.2593368 0.2583625 0.2574141 0.2564973 0.2556138 0.2547585 0.2539288
 0.2531273 0.2523564 0.2516178 0.2509159 0.2502486 0.2495964 0.2489217 0.2481757 0.2473104 0.246293
 0.2451135 0.2437782 0.2422996 0.2406929 0.2389728 0.2371496 0.2352303 0.233222 0.2311336 0.2289699
 0.2267243 0.2243829 0.2219585 0.2195199 0.21717 0.2149845 0.2129813 0.2111367 0.209416 0.2077908
 0.2062435 0.2047605 0.2033273 0.2019407 0.200615 0.1993615 0.1981767 0.1970576 0.1960159 0.1950666
 0.1942189 0.1934786 0.1928466 0.1923154 0.1918733 0.1915097 0.1912242 0.191041 0.1909933 0.1910739
 0.1912115 0.1913134 0.1913248 0.1912509 0.1911417 0.191055 0.1910189 0.1910275 0.1910578 0.1910629
 0.1909563 0.1906331 0.1900038 0.1890025 0.1875936 0.1857983 0.1837058 0.1814552 0.1792143 0.1771487
 0.1753757 0.1739464 0.1728595 0.1720647 0.1714675 0.1709831 0.1706022 0.1703949 0.1704485 0.1707726
 0.1712309 0.1716033 0.1717789 0.1718765 0.1721378 0.1727228 0.1736155 0.1746702 0.1757148 0.1766363
 0.1773949 0.1779839 0.1784106 0.1787042 0.1788927 0.1789727 0.1789311 0.1787724 0.178505 0.1781339
 0.1776728 0.1771301 0.1764937 0.1757591 0.1749416 0.174045 0.1730591 0.1719824 0.1707966 0.1694602
 0.1680091 0.166646 0.1656736 0.1653291 0.1656577 0.1664919 0.167572 0.1687229 0.1698767 0.1709432
 0.171805 0.1725083 0.1733554 0.174707 0.1766755 0.1790074 0.181257 0.1830762 0.1843308 0.1850053
 0.1851233 0.1847496 0.183934 0.1826559 0.1809202 0.1788468 0.1765927 0.1742901 0.1720902 0.170129
 0.1684506 0.1670545 0.1659339 0.1650805 0.1645637 0.1641299 0.1622319 0.1565624 0.1473275 0.1393784
 0.13855 0.1453688 0.1543245 0.1597896 0.1608024 0.1597256 0.1585236 0.1576151 0.1569138 0.1564829
 0.1563872 0.1565476 0.156762 0.1567947 0.1565295 0.1559739 0.1550083 0.1531398 0.1494897 0.1431145
 0.1337058 0.1222291 0.1107141 0.1011791 0.09463084 0.09085397 0.08885816 0.08757409 0.08646307 0.08568785
 0.08574472 0.0869595 0.08931215 0.09259114 0.09654438 0.100843 0.1050229 0.108629 0.1114577 0.1135783
 0.115119 0.1161292 0.1166403 0.1167232 0.116454 0.1158959 0.115115 0.1141518 0.1129856 0.1115888
 0.110035 0.1085381 0.107353 0.1066053 0.1062208 0.1060359 0.1059475 0.1059328 0.1059855 0.1060908
 0.1062376 0.1064214 0.1066529 0.1069519 0.1073059 0.1076529 0.1079322 0.1081313 0.1082644 0.108323
 0.1082582 0.1080201 0.1076379 0.1072252 0.1068294 0.1062976 0.1054067 0.1041553 0.1028642 0.1019646
 0.1017015 0.1019945 0.1025252 0.1029698 0.1031971 0.1032766 0.1033179 0.1033149 0.1031423 0.1026967
</values></Ydata></ScRf><Data_Parameters_AB><parameter name="DPF">1</parameter><parameter name="NPT">3497</parameter><parameter name="FXV">3996</parameter><parameter name="LXV">500</parameter><parameter name="CSF">1</parameter><parameter name="MXY">0.0760670378804207</parameter><parameter name="MNY">-0.135917738080025</parameter><parameter name="DAT">17/01/2024</parameter><parameter name="TIM">13:34:36.867 (GMT+1)</parameter><parameter name="DXU">WN</parameter></Data_Parameters_AB><AB__Qtest><MainReport name="Quality Test Report"><Header><Line><Legend>Test result ok/not ok [1/0]: </Legend><Value>0</Value></Line><Line><Legend>Method file: </Legend><Value>C:\Users\Public\Documents\Bruker\OPUS_8.2.28\QT\IRBT_v3_default.QT</Value></Line></Header><Matrix><Line><Legend></Legend><Legend>min</Legend><Legend>max</Legend><Legend>measured</Legend></Line><Line><Value>Absorption (X-Range 1):</Value><Value>0.400000</Value><Value>2.000000</Value><Value>0.209396</Value></Line><Line><Value>Noise (X-Range 4):</Value><Value></Value><Value>0.000300</Value><Value>0.002228</Value></Line><Line><Value>Signal/Noise (X-Range 2):</Value><Value>200.000000</Value><Value></Value><Value>2.971682</Value></Line><Line><Value>Signal/Noise (X-Range 3):</Value><Value>40.000000</Value><Value></Value><Value>0.748161</Value></Line><Line><Value>Water vapour (X-Range 5):</Value><Value></Value><Value>0.000300</Value><Value>0.000019</Value></Line><Line><Value>Signal/Water (X-Range 2):</Value><Value>100.000000</Value><Value></Value><Value>346.420031</Value></Line><Line><Value>Signal/Water (X-Range 3):</Value><Value>20.000000</Value><Value></Value><Value>87.215962</Value></Line><Line><Value>Fringes (X-Range 6):</Value><Value></Value><Value>0.000100</Value><Value>0.001513</Value></Line></Matrix></MainReport></AB__Qtest><Data_Parameters_ScSm><parameter name="DPF">1</parameter><parameter name="NPT">1814</parameter><parameter name="FXV">3996.63438082617</parameter><parameter name="LXV">499.579297603271</parameter><parameter name="CSF">1</parameter><parameter name="MXY">0.383752763271332</parameter><parameter name="MNY">0.0840363800525665</parameter><parameter name="DAT">17/01/2024</parameter><parameter name="TIM">13:34:36.867 (GMT+1)</parameter><parameter name="DXU">WN</parameter></Data_Parameters_ScSm><Data_Parameters_ScRf><parameter name="DPF">1</parameter><parameter name="NPT">1820</parameter><parameter name="FXV">4004.34989121387</parameter><parameter name="LXV">495.721542409425</parameter><parameter name="CSF">1</parameter><parameter name="MXY">0.317427664995193</parameter><parameter name="MNY">0.0680956095457077</parameter><parameter name="DAT">17/01/2024</parameter><parameter name="TIM">13:34:10.792 (GMT+1)</parameter><parameter name="DXU">WN</parameter></Data_Parameters_ScRf><Optic_Parameters_Rf><parameter name="APR">0</parameter><parameter name="APT">Open</parameter><parameter name="BMS">KBr</parameter><parameter name="DTC">RT-DLaTGS_IR-Biotyper [Microplate reader]</parameter><parameter name="HPF">0</parameter><parameter name="LPF">10.0</parameter><parameter name="LPV">4000</parameter><parameter name="PGR">0</parameter><parameter name="RCH">Module port</parameter><parameter name="RDX">0</parameter><parameter name="SRC">MIR</parameter><parameter name="VEL">10.0</parameter><parameter name="SON">Off</parameter></Optic_Parameters_Rf><Acquisition_Parameters_Rf><parameter name="ADT">1</parameter><parameter name="AQM">DD</parameter><parameter name="CFE">0</parameter><parameter name="COR">0</parameter><parameter name="DEL">0</parameter><parameter name="DLY">0</parameter><parameter name="HFW">8000</parameter><parameter name="LFW">0</parameter><parameter name="NSR">32</parameter><parameter name="PLF">AB</parameter><parameter name="RES">6</parameter><parameter name="RGN">-1</parameter><parameter name="STR">0</parameter><parameter name="TCL">MakeCompatibleScalar (0, {WSV=1.000000, ARV=0});</parameter><parameter name="TDL">37</parameter><parameter name="RPO">0</parameter></Acquisition_Parameters_Rf><FT_-_Parameters_Rf><parameter name="APF">B3</parameter><parameter name="HFQ">500</parameter><parameter name="LFQ">4000</parameter><parameter name="NLI">0</parameter><parameter name="PHR">24</parameter><parameter name="PHZ">ML</parameter><parameter name="SPZ">NO</parameter><parameter name="ZFF">1</parameter></FT_-_Parameters_Rf><Optic_Parameters_><parameter name="APR">0</parameter><parameter name="APT">Open</parameter><parameter name="BMS">KBr</parameter><parameter name="CHN">Module port</parameter><parameter name="DTC">RT-DLaTGS_IR-Biotyper [Microplate reader]</parameter><parameter name="HPF">0</parameter><parameter name="LPF">10.0</parameter><parameter name="LPV">4000</parameter><parameter name="PGN">0</parameter><parameter name="RDX">0</parameter><parameter name="SRC">MIR</parameter><parameter name="VEL">10.0</parameter><parameter name="SON">Off</parameter></Optic_Parameters_><FT_-_Parameters_><parameter name="APF">B3</parameter><parameter name="HFQ">500</parameter><parameter name="LFQ">4000</parameter><parameter name="NLI">0</parameter><parameter name="PHR">24</parameter><parameter name="PHZ">ML</parameter><parameter name="SPZ">NO</parameter><parameter name="ZFF">1</parameter></FT_-_Parameters_><Acquisition_Parameters_><parameter name="ADT">1</parameter><parameter name="AQM">DD</parameter><parameter name="CFE">0</parameter><parameter name="COR">0</parameter><parameter name="DEL">0</parameter><parameter name="DLY">0</parameter><parameter name="HFW">8000</parameter><parameter name="LFW">0</parameter><parameter name="NSS">32</parameter><parameter name="PLF">AB</parameter><parameter name="RES">6</parameter><parameter name="SOT">0</parameter><parameter name="TCL">MakeCompatibleScalar (0, {WSV=1.000000, ARV=0});</parameter><parameter name="TDL">37</parameter><parameter name="SPO">0</parameter><parameter name="SGN">-1</parameter></Acquisition_Parameters_><Instrument_Parameters_Rf><parameter name="HFL">15801.365274</parameter><parameter name="LFL">0</parameter><parameter name="LWN">15801.365274</parameter><parameter name="ABP">32157</parameter><parameter name="SSP">1</parameter><parameter name="ARG">2</parameter><parameter name="ASG">2</parameter><parameter name="ASS">32</parameter><parameter name="GFW">16</parameter><parameter name="GBW">16</parameter><parameter name="BFW">0</parameter><parameter name="BBW">0</parameter><parameter name="PKA">9113</parameter><parameter name="PKL">4987</parameter><parameter name="PRA">9126</parameter><parameter name="PRL">5010</parameter><parameter name="P2A">1</parameter><parameter name="P2L">1</parameter><parameter name="P2R">1</parameter><parameter name="P2K">1</parameter><parameter name="DAQ">0</parameter><parameter name="AG2">1</parameter><parameter name="SSM">1</parameter><parameter name="RSN">46370</parameter><parameter name="CRR">0</parameter><parameter name="SRT">1705498450.792</parameter><parameter name="DUR">19.6449890136719</parameter><parameter name="TSC">30.9</parameter><parameter name="MVD">0.312173455953598</parameter><parameter name="AN1">0.226007007079352</parameter><parameter name="AN2">0</parameter><parameter name="VSN">2.485 Apr  4 2017</parameter><parameter name="SRN">0085</parameter><parameter name="CAM">0</parameter><parameter name="INS">IR-Biotyper</parameter><parameter name="FOC">69</parameter><parameter name="RDY">1</parameter><parameter name="ARS">32</parameter></Instrument_Parameters_Rf><Sample_Parameters_><parameter name="BLD"></parameter><parameter name="CNM">Admin</parameter><parameter name="CPY"></parameter><parameter name="DPM"></parameter><parameter name="EXP">IRBT_v3_32Scans.XPM</parameter><parameter name="LCT"></parameter><parameter name="SFM">Microplate, HTS-XT</parameter><parameter name="SNM">240117-1222-Cdiff_SCFA_1_C16_232117484_H9_7f4d0ce1-9a44-4be0-ac02-aa95be53f267.0</parameter><parameter name="XPP">C:\Users\Public\Documents\Bruker\OPUS_8.2.28\XPM</parameter><parameter name="IST">OK</parameter><parameter name="CPG">1252</parameter><parameter name="UID">232d4fc5-1806-4df5-9f04-2d77355f4de3</parameter></Sample_Parameters_><Instrument_Parameters_><parameter name="HFL">15801.365274</parameter><parameter name="LFL">0</parameter><parameter name="LWN">15801.365274</parameter><parameter name="ABP">32157</parameter><parameter name="SSP">1</parameter><parameter name="ASG">2</parameter><parameter name="ARG">2</parameter><parameter name="ASS">32</parameter><parameter name="GFW">16</parameter><parameter name="GBW">16</parameter><parameter name="BFW">0</parameter><parameter name="BBW">0</parameter><parameter name="PKA">11005</parameter><parameter name="PKL">4979</parameter><parameter name="PRA">11035</parameter><parameter name="PRL">5002</parameter><parameter name="P2A">1</parameter><parameter name="P2L">1</parameter><parameter name="P2R">1</parameter><parameter name="P2K">1</parameter><parameter name="DAQ">0</parameter><parameter name="AG2">1</parameter><parameter name="SSM">1</parameter><parameter name="RSN">23878</parameter><parameter name="CRR">0</parameter><parameter name="SRT">1705498476.867</parameter><parameter name="DUR">19.6449890136719</parameter><parameter name="TSC">30.9</parameter><parameter name="MVD">0.317898452281952</parameter><parameter name="AN1">0.225998123305635</parameter><parameter name="AN2">0</parameter><parameter name="VSN">2.485 Apr  4 2017</parameter><parameter name="SRN">0085</parameter><parameter name="CAM">0</parameter><parameter name="INS">IR-Biotyper</parameter><parameter name="FOC">69</parameter><parameter name="RDY">1</parameter></Instrument_Parameters_><History/></OPUSDataFile>
