<?xml version="1.0" encoding="UTF-8" ?>
<OPUSDataFile><AB><Ydata ylabel="Absorbance Units"><values byteorder="INTEL" format="FLOAT32" numvalues="3497"> -0.08297189 -0.08295706 -0.08294643 -0.08294051 -0.08294168 -0.0829481 -0.08295749 -0.08296692 -0.08297074 -0.08296821
 -0.08295526 -0.08293614 -0.08291188 -0.08288839 -0.08286919 -0.08285622 -0.08285144 -0.0828524 -0.08285909 -0.08286831
 -0.08287983 -0.08288969 -0.08289775 -0.08289731 -0.08288804 -0.08286548 -0.08283029 -0.08278713 -0.08273782 -0.08269439
 -0.08265773 -0.08263784 -0.08263259 -0.08264321 -0.0826649 -0.08269148 -0.08271804 -0.08273666 -0.08274638 -0.08274282
 -0.08273081 -0.08271071 -0.08269019 -0.0826721 -0.08266054 -0.08265763 -0.08266091 -0.08267067 -0.08268145 -0.08269277
 -0.08270109 -0.08270624 -0.08270792 -0.08270624 -0.08270234 -0.08269632 -0.08268939 -0.0826815 -0.08267312 -0.08266416
 -0.08265454 -0.0826443 -0.08263327 -0.08262215 -0.08261143 -0.0826022 -0.0825955 -0.08259183 -0.08259192 -0.08259513
 -0.08260188 -0.08260933 -0.08261747 -0.08262063 -0.08261814 -0.08260421 -0.08257787 -0.08254138 -0.0824949 -0.08245205
 -0.08241367 -0.08239458 -0.08239368 -0.08241352 -0.08245069 -0.08249528 -0.08254448 -0.08258673 -0.08262197 -0.08264482
 -0.08265689 -0.08265787 -0.08264951 -0.08263273 -0.08260977 -0.08258158 -0.08255121 -0.08251987 -0.08248974 -0.08246175
 -0.08243571 -0.08241163 -0.08238962 -0.08236948 -0.08235431 -0.08234429 -0.08234356 -0.08235193 -0.08236878 -0.08239282
 -0.08241649 -0.08243839 -0.08244896 -0.08244908 -0.08243496 -0.08241054 -0.0823797 -0.08234759 -0.08232157 -0.08230437
 -0.08230162 -0.08231018 -0.0823312 -0.08235653 -0.08238366 -0.08240619 -0.08242153 -0.0824296 -0.0824298 -0.08242463
 -0.08241426 -0.08240051 -0.08238346 -0.08236846 -0.08235603 -0.08235507 -0.08236481 -0.08238674 -0.08241673 -0.08244088
 -0.08245557 -0.08244178 -0.08240691 -0.082352 -0.08229168 -0.08224557 -0.08221577 -0.0822133 -0.08222655 -0.08225252
 -0.08228055 -0.08230516 -0.08232421 -0.08233576 -0.08234224 -0.08234403 -0.08234088 -0.08233285 -0.08231901 -0.08229933
 -0.08227625 -0.08224997 -0.0822238 -0.08219781 -0.08217394 -0.08215243 -0.08213523 -0.0821225 -0.08211591 -0.08211453
 -0.08211766 -0.08212422 -0.08213254 -0.0821423 -0.0821531 -0.08216349 -0.08217298 -0.08217896 -0.08217984 -0.08217605
 -0.08216671 -0.08215666 -0.08214674 -0.08213912 -0.08213443 -0.08212878 -0.08212197 -0.08211138 -0.0820973 -0.0820838
 -0.08207119 -0.08206406 -0.08206114 -0.08205996 -0.08205953 -0.08205523 -0.08204924 -0.08204314 -0.08203923 -0.08204208
 -0.08204936 -0.0820616 -0.08207342 -0.08208168 -0.08208365 -0.08207686 -0.08206327 -0.08204258 -0.08201849 -0.08199142
 -0.0819649 -0.0819393 -0.0819176 -0.08190003 -0.08188651 -0.08187684 -0.08186752 -0.08185847 -0.08184712 -0.08183449
 -0.08182307 -0.08181402 -0.08181208 -0.08181659 -0.08182929 -0.08184711 -0.08186729 -0.08188671 -0.0819015 -0.08191106
 -0.08191364 -0.08191074 -0.08190265 -0.08189043 -0.08187421 -0.08185549 -0.08183412 -0.08181433 -0.08179644 -0.08178512
 -0.08178073 -0.08178305 -0.08179187 -0.08180325 -0.08181702 -0.08183053 -0.08184343 -0.08185354 -0.0818593 -0.08185496
 -0.0818409 -0.0818133 -0.08177807 -0.08174068 -0.0817069 -0.08168557 -0.08167322 -0.08167221 -0.0816716 -0.08166756
 -0.08165218 -0.08162107 -0.08157788 -0.08152138 -0.08146398 -0.08140671 -0.08136109 -0.081328 -0.08131152 -0.08131137
 -0.0813216 -0.08134104 -0.08135782 -0.08137195 -0.08137654 -0.08137351 -0.08136441 -0.08135097 -0.08133768 -0.08132374
 -0.08131033 -0.08129512 -0.081276 -0.08125262 -0.08122323 -0.08119139 -0.08115804 -0.08112641 -0.08109835 -0.08107164
 -0.08104641 -0.08101877 -0.08098783 -0.08095586 -0.0809228 -0.08089624 -0.08087631 -0.08086495 -0.08086083 -0.08085492
 -0.08084545 -0.08081958 -0.08077766 -0.08071283 -0.0806293 -0.08053071 -0.0804236 -0.08031839 -0.08021791 -0.08012955
 -0.08004973 -0.07997868 -0.07991172 -0.07984662 -0.07978159 -0.07971577 -0.07964817 -0.07957888 -0.07950452 -0.07942492
 -0.07933515 -0.07923484 -0.07912101 -0.07899372 -0.07885502 -0.07870565 -0.07855234 -0.07839562 -0.07824169 -0.07809
 -0.07794213 -0.07779738 -0.07765492 -0.07751493 -0.07737771 -0.0772423 -0.07710865 -0.07697368 -0.07683546 -0.07669188
 -0.07654165 -0.07638352 -0.07621755 -0.07603964 -0.07584896 -0.07564262 -0.07541917 -0.07518753 -0.07494804 -0.0747151
 -0.07448907 -0.07427292 -0.07406558 -0.07385913 -0.07365324 -0.07344195 -0.07322686 -0.07300951 -0.07279162 -0.07257824
 -0.07236788 -0.07216238 -0.07195471 -0.07173979 -0.07150948 -0.07125447 -0.07097933 -0.0706804 -0.07037722 -0.07007533
 -0.06978663 -0.06951647 -0.06925703 -0.06900857 -0.06875774 -0.06850334 -0.0682414 -0.0679719 -0.06769904 -0.06742284
 -0.0671453 -0.06686576 -0.06658196 -0.06629397 -0.06600018 -0.06570236 -0.06540329 -0.06510434 -0.06480955 -0.06451656
 -0.06422511 -0.0639311 -0.0636311 -0.06332469 -0.06300987 -0.06269094 -0.06236892 -0.06204654 -0.06172498 -0.0614027
 -0.06107968 -0.06075441 -0.06042676 -0.06009592 -0.05976183 -0.05942272 -0.05907868 -0.05872924 -0.05837538 -0.05802165
 -0.05766871 -0.05732152 -0.0569789 -0.05664128 -0.05630626 -0.05597057 -0.05563265 -0.05528925 -0.05494148 -0.05458833
 -0.05423401 -0.05388022 -0.05353007 -0.05318594 -0.05284426 -0.05250545 -0.05216145 -0.051811 -0.05145065 -0.05107974
 -0.05070291 -0.05032043 -0.04993941 -0.04955998 -0.04918654 -0.0488186 -0.0484564 -0.04809861 -0.04774122 -0.04738316
 -0.04701963 -0.04665187 -0.04627905 -0.04590416 -0.04553006 -0.04515838 -0.04479158 -0.04442867 -0.04407021 -0.04371338
 -0.04335766 -0.04299951 -0.04263791 -0.04227146 -0.04189944 -0.04152495 -0.0411481 -0.0407728 -0.0403992 -0.04002731
 -0.03965686 -0.03928524 -0.03891259 -0.03853821 -0.03816289 -0.03778879 -0.03741637 -0.0370478 -0.03668297 -0.03632274
 -0.03596667 -0.03561492 -0.03526621 -0.0349205 -0.03457413 -0.03422599 -0.03387097 -0.03350673 -0.03313197 -0.03274487
 -0.03235214 -0.03195402 -0.03156003 -0.03117119 -0.03079053 -0.03041814 -0.03004997 -0.02968577 -0.02932178 -0.02895819
 -0.02859431 -0.02823024 -0.0278656 -0.02750097 -0.02713709 -0.02677539 -0.02641899 -0.02606705 -0.02572118 -0.02537623
 -0.02502936 -0.02467547 -0.02431041 -0.02393477 -0.02354695 -0.02315264 -0.02275255 -0.02235267 -0.02195409 -0.0215596
 -0.02116971 -0.02078318 -0.02039993 -0.02001612 -0.01963161 -0.01924348 -0.01885192 -0.0184563 -0.01805711 -0.01765544
 -0.01725198 -0.01684864 -0.01644631 -0.01604727 -0.01565189 -0.01526165 -0.01487587 -0.01449492 -0.01411683 -0.01374119
 -0.01336466 -0.01298621 -0.01260267 -0.01221288 -0.01181629 -0.01141224 -0.01100415 -0.01059211 -0.01018116 -0.009771571
 -0.009368349 -0.008971608 -0.008584561 -0.008206569 -0.007836089 -0.007471738 -0.007107682 -0.006743702 -0.006375996 -0.006006041
 -0.005634702 -0.005262737 -0.004891846 -0.004520695 -0.004148517 -0.003775178 -0.003399336 -0.003025281 -0.002653713 -0.002290268
 -0.001936667 -0.001595012 -0.001266245 -0.0009481331 -0.0006407016 -0.0003398778 -4.544068E-05 0.0002457855 0.0005339803 0.0008221373
 0.001110504 0.001402311 0.001697266 0.001996522 0.002298632 0.002601029 0.002901974 0.003197076 0.003486623 0.003768956
 0.004045716 0.004317918 0.004585932 0.004850567 0.005110509 0.005365236 0.005614712 0.005858433 0.006098959 0.006336801
 0.006572591 0.006806792 0.007034318 0.00725491 0.007462481 0.007657449 0.007843753 0.008023072 0.008208324 0.00839922
 0.00860302 0.008815208 0.009028679 0.009239488 0.00943631 0.009621871 0.009793454 0.009958846 0.01012281 0.01029276
 0.01047394 0.01067079 0.01088677 0.01112102 0.01137522 0.0116408 0.01191703 0.01219399 0.01247006 0.0127462
 0.01302231 0.01330847 0.01360457 0.01391163 0.01422707 0.01453484 0.014833 0.01510409 0.01535183 0.01557531
 0.01578178 0.01598379 0.01618423 0.01639264 0.01660584 0.01682342 0.01704532 0.01726956 0.01750346 0.01774976
 0.01801219 0.01829465 0.01858528 0.01888391 0.01917134 0.01944495 0.01969975 0.0199351 0.02016689 0.0203963
 0.02064467 0.0209113 0.0212036 0.02151737 0.02184117 0.0221704 0.02248665 0.02279053 0.02307211 0.0233408
 0.02360177 0.02386955 0.02415804 0.02447607 0.02483531 0.02522856 0.0256588 0.02610495 0.02656293 0.02701283
 0.02744948 0.02786912 0.02826972 0.02866431 0.0290535 0.02945286 0.02986272 0.03028944 0.03073252 0.03119138
 0.03166645 0.03215946 0.03267042 0.033203 0.03375027 0.03430602 0.03485261 0.03536769 0.03583373 0.03622461
 0.03654364 0.03677906 0.03696164 0.03709821 0.03722361 0.03735103 0.03748866 0.03764327 0.03779225 0.03793501
 0.03803967 0.03810409 0.0381102 0.03805808 0.03794981 0.03778723 0.03758419 0.03734184 0.03707252 0.03677515
 0.03645327 0.03610507 0.03572842 0.03532343 0.03488866 0.03442662 0.03393856 0.0334278 0.03289738 0.03234668
 0.03177837 0.03118182 0.03055617 0.02988493 0.02916388 0.0283892 0.02755791 0.0266929 0.02579507 0.02490061
 0.02401081 0.02314839 0.0223118 0.02150066 0.02071254 0.0199369 0.01917344 0.01841538 0.01766495 0.01692256
 0.01619189 0.01547795 0.01478289 0.0141115 0.0134608 0.01283117 0.01221659 0.01161406 0.01102202 0.01043835
 0.009868526 0.009312923 0.00877806 0.008264755 0.007777005 0.00731515 0.006881606 0.006476235 0.006096116 0.005739789
 0.005394951 0.005059851 0.00471931 0.004375077 0.004022851 0.00366822 0.003319695 0.002981475 0.00266362 0.002364893
 0.002088599 0.001829594 0.00158596 0.001352538 0.001126681 0.000905311 0.0006869344 0.0004705344 0.0002555921 4.243942E-05
 -0.0001689623 -0.0003780609 -0.0005848252 -0.0007887346 -0.0009897499 -0.001187016 -0.001380571 -0.001570137 -0.001756142 -0.001940145
 -0.002122916 -0.002307271 -0.002494056 -0.002686116 -0.002884139 -0.003090575 -0.00330461 -0.003527099 -0.003754728 -0.003986083
 -0.00421715 -0.004445129 -0.004670623 -0.004892462 -0.005115839 -0.005341733 -0.005573038 -0.005810756 -0.006050901 -0.006293331
 -0.00653235 -0.006767899 -0.007001347 -0.007233427 -0.007471323 -0.007714893 -0.007967957 -0.008228408 -0.008492043 -0.008757276
 -0.009018203 -0.009276334 -0.009530846 -0.009784705 -0.01004115 -0.01029993 -0.01056271 -0.01082568 -0.01108714 -0.01134596
 -0.01160038 -0.01185569 -0.01211255 -0.01237616 -0.01264801 -0.01292402 -0.01320431 -0.01347667 -0.01374066 -0.01399037
 -0.01422722 -0.0144611 -0.01469423 -0.01494329 -0.0152068 -0.01549081 -0.01578874 -0.01609061 -0.01639029 -0.01667373
 -0.01694145 -0.01718703 -0.01741853 -0.01763844 -0.01785659 -0.01807857 -0.01830839 -0.01854984 -0.01879752 -0.01905173
 -0.01930258 -0.01954852 -0.01978546 -0.02001267 -0.02023466 -0.02045157 -0.02066658 -0.02087867 -0.02107987 -0.02126839
 -0.02143017 -0.02156678 -0.02167348 -0.02175763 -0.02183063 -0.02190223 -0.02199201 -0.02210345 -0.02224991 -0.02242231
 -0.02262115 -0.02282877 -0.02303723 -0.02323396 -0.02341177 -0.02357191 -0.0237126 -0.02384209 -0.02396151 -0.02407465
 -0.02418212 -0.02428191 -0.02437394 -0.02445605 -0.0245284 -0.02459159 -0.0246458 -0.02469212 -0.02473084 -0.02476319
 -0.02478992 -0.02481315 -0.02483368 -0.02485363 -0.02487339 -0.02489404 -0.02491585 -0.02493913 -0.0249647 -0.02499267
 -0.025025 -0.02506158 -0.02510733 -0.02516247 -0.02523548 -0.02532738 -0.02544593 -0.02559229 -0.02576375 -0.02595997
 -0.0261629 -0.026371 -0.0265607 -0.02673271 -0.02687652 -0.02699771 -0.02710755 -0.0272129 -0.02733498 -0.02747477
 -0.02764461 -0.02783799 -0.02805334 -0.02828294 -0.02852007 -0.02876227 -0.02900613 -0.02925331 -0.02950379 -0.02975868
 -0.0300184 -0.03028253 -0.03055117 -0.03082324 -0.03109876 -0.03137512 -0.03165217 -0.03192614 -0.03219717 -0.03246511
 -0.032731 -0.03300056 -0.03327411 -0.03355674 -0.03384591 -0.03413891 -0.0344322 -0.03471812 -0.03499741 -0.03526667
 -0.03553152 -0.03579502 -0.03606129 -0.03633411 -0.03661189 -0.03689513 -0.03718081 -0.03746806 -0.03775662 -0.03804648
 -0.03833681 -0.03862783 -0.03891344 -0.03919332 -0.03945946 -0.03971185 -0.03994739 -0.04016734 -0.04037659 -0.04057726
 -0.04077913 -0.04098324 -0.04119756 -0.04141997 -0.04165196 -0.0418875 -0.0421216 -0.04234662 -0.04255538 -0.04274303
 -0.04290474 -0.04304047 -0.04314868 -0.04323262 -0.04329294 -0.04333132 -0.04334861 -0.04334126 -0.0433092 -0.04324627
 -0.04315213 -0.04302489 -0.04286489 -0.04267595 -0.04245825 -0.04221527 -0.04194593 -0.04164838 -0.04132143 -0.0409607
 -0.04056739 -0.0401406 -0.0396843 -0.03920204 -0.03869826 -0.0381776 -0.03764227 -0.03709487 -0.03653522 -0.03596366
 -0.03538025 -0.03478427 -0.03418022 -0.03356786 -0.03295706 -0.03234832 -0.03175445 -0.03117617 -0.03062559 -0.03010347
 -0.02962191 -0.02918221 -0.02879791 -0.02847046 -0.02821247 -0.02802403 -0.02791255 -0.02787501 -0.02791142 -0.02801424
 -0.02817769 -0.02838757 -0.02863467 -0.02889712 -0.02916358 -0.02940999 -0.02962534 -0.0297945 -0.02991028 -0.02997347
 -0.02998193 -0.02994808 -0.02987262 -0.02976908 -0.02963828 -0.02949074 -0.02932717 -0.02915887 -0.02898725 -0.02882653
 -0.0286782 -0.02855557 -0.02845862 -0.02839442 -0.02836103 -0.02835871 -0.02838487 -0.02843691 -0.02851213 -0.02860769
 -0.02872141 -0.02885111 -0.02899663 -0.02915625 -0.02933547 -0.02953378 -0.02976415 -0.03002794 -0.0303397 -0.03070149
 -0.03111746 -0.03158809 -0.03209902 -0.0326485 -0.03320852 -0.03377721 -0.03432834 -0.03486268 -0.0353684 -0.03584899
 -0.03630685 -0.03674545 -0.0371719 -0.03758779 -0.03799763 -0.03840223 -0.03880367 -0.03920225 -0.03959966 -0.03999204
 -0.04037999 -0.04075288 -0.04110908 -0.04143575 -0.04173045 -0.04198516 -0.04219852 -0.04236924 -0.04249712 -0.04258442
 -0.04263145 -0.04264297 -0.04261984 -0.04256934 -0.04249346 -0.04240241 -0.0423005 -0.04220145 -0.04211383 -0.04205604
 -0.042041 -0.04209013 -0.04221573 -0.04243609 -0.0427541 -0.04317951 -0.04369984 -0.04431575 -0.04500242 -0.04575542
 -0.04654714 -0.0473728 -0.04821041 -0.04905732 -0.04989767 -0.05073034 -0.05154376 -0.05233762 -0.05310566 -0.05384893
 -0.05457043 -0.05527304 -0.05596931 -0.05666218 -0.05736646 -0.05808143 -0.05881484 -0.05955867 -0.06030853 -0.06105046
 -0.0617718 -0.06246081 -0.06310557 -0.06370589 -0.06425694 -0.06476976 -0.06524593 -0.06569677 -0.06612512 -0.0665338
 -0.06692374 -0.06729189 -0.06763804 -0.06796177 -0.06826331 -0.06854744 -0.06881459 -0.06907016 -0.06931433 -0.06955051
 -0.06977914 -0.0700028 -0.07022239 -0.07044075 -0.07065846 -0.07087762 -0.07109757 -0.07131851 -0.07153954 -0.07176002
 -0.07197995 -0.07219876 -0.0724185 -0.07263934 -0.07286441 -0.07309426 -0.07333136 -0.07357631 -0.07382779 -0.07408584
 -0.0743461 -0.07460836 -0.07486847 -0.07512658 -0.07538185 -0.0756346 -0.07588602 -0.07613578 -0.0763838 -0.07662926
 -0.07687015 -0.07710718 -0.07733957 -0.07757069 -0.07780313 -0.07803984 -0.07828441 -0.07853462 -0.07879162 -0.079048
 -0.07930215 -0.07954741 -0.0797819 -0.08000433 -0.08021395 -0.08041434 -0.08060562 -0.08079282 -0.0809762 -0.08116034
 -0.08134514 -0.08153223 -0.08172089 -0.08190897 -0.08209606 -0.08227961 -0.08246048 -0.08263917 -0.08281653 -0.08299444
 -0.0831718 -0.08334889 -0.08352277 -0.08369169 -0.08385365 -0.08400683 -0.08415255 -0.08429035 -0.08442403 -0.0845541
 -0.08468422 -0.08481499 -0.0849479 -0.08508315 -0.08522084 -0.08536101 -0.08550442 -0.08565116 -0.0858025 -0.08595826
 -0.08611847 -0.08628257 -0.08644897 -0.08661731 -0.08678598 -0.08695506 -0.08712415 -0.08729301 -0.08746159 -0.08762889
 -0.08779439 -0.08795674 -0.08811494 -0.08826929 -0.08841912 -0.0885677 -0.08871541 -0.08886593 -0.08901985 -0.08917844
 -0.08934189 -0.08950942 -0.08968101 -0.08985642 -0.09003542 -0.09021629 -0.09039812 -0.09057574 -0.09074867 -0.09091218
 -0.09106797 -0.09121674 -0.09136122 -0.0915058 -0.09165131 -0.09180034 -0.09195204 -0.09210668 -0.09226308 -0.09242108
 -0.09257859 -0.09273535 -0.09288798 -0.09303564 -0.09317686 -0.09331097 -0.09344106 -0.09356726 -0.09369331 -0.09381934
 -0.09394621 -0.09407375 -0.09420065 -0.09432698 -0.09445235 -0.09457722 -0.09470282 -0.0948293 -0.09495778 -0.09508756
 -0.09521829 -0.09534894 -0.09547802 -0.095606 -0.09573235 -0.09585904 -0.09598695 -0.09611717 -0.09625085 -0.09638532
 -0.09652061 -0.09665211 -0.09677906 -0.09690009 -0.09701487 -0.09712688 -0.0972363 -0.09734689 -0.09745844 -0.09757049
 -0.09768233 -0.09779013 -0.09789389 -0.09799131 -0.09808367 -0.09817243 -0.09825897 -0.09834595 -0.09843413 -0.09852517
 -0.09861959 -0.09871815 -0.09882138 -0.0989302 -0.09904279 -0.09915934 -0.09927554 -0.09939058 -0.09950098 -0.09960581
 -0.09970611 -0.09980177 -0.09989624 -0.09998969 -0.1000838 -0.1001786 -0.100274 -0.10037 -0.1004671 -0.1005655
 -0.1006666 -0.10077 -0.1008764 -0.1009846 -0.1010939 -0.1012026 -0.1013091 -0.1014122 -0.1015107 -0.1016049
 -0.1016942 -0.1017809 -0.1018654 -0.1019505 -0.1020372 -0.102127 -0.1022206 -0.1023173 -0.1024174 -0.1025196
 -0.1026239 -0.1027291 -0.1028353 -0.1029422 -0.1030498 -0.1031587 -0.1032689 -0.1033807 -0.1034936 -0.1036069
 -0.1037197 -0.1038302 -0.1039384 -0.1040435 -0.104147 -0.1042498 -0.1043538 -0.1044605 -0.1045694 -0.1046812
 -0.1047929 -0.104904 -0.1050119 -0.1051161 -0.1052168 -0.1053139 -0.1054104 -0.1055063 -0.1056048 -0.105706
 -0.1058121 -0.1059228 -0.106038 -0.1061568 -0.1062765 -0.1063955 -0.106509 -0.106617 -0.1067163 -0.1068091
 -0.1068964 -0.1069813 -0.1070667 -0.1071536 -0.1072436 -0.1073352 -0.1074281 -0.1075208 -0.1076128 -0.1077036
 -0.1077933 -0.1078819 -0.1079696 -0.1080562 -0.108142 -0.1082274 -0.1083125 -0.1083981 -0.1084839 -0.1085695
 -0.1086545 -0.1087376 -0.1088191 -0.1088987 -0.1089775 -0.1090571 -0.1091381 -0.1092221 -0.1093077 -0.1093948
 -0.1094809 -0.1095646 -0.1096454 -0.1097223 -0.1097972 -0.1098704 -0.1099435 -0.110017 -0.1100903 -0.1101634
 -0.1102358 -0.1103073 -0.1103791 -0.1104513 -0.1105257 -0.1106024 -0.1106822 -0.1107649 -0.1108506 -0.1109393
 -0.1110315 -0.1111269 -0.1112258 -0.1113275 -0.1114314 -0.1115367 -0.1116421 -0.1117476 -0.1118529 -0.1119585
 -0.1120646 -0.1121714 -0.1122792 -0.1123873 -0.1124957 -0.1126037 -0.1127113 -0.1128173 -0.1129217 -0.1130237
 -0.1131233 -0.1132214 -0.1133184 -0.1134169 -0.1135173 -0.1136217 -0.1137293 -0.113839 -0.1139494 -0.1140574
 -0.1141628 -0.1142636 -0.1143615 -0.1144568 -0.1145515 -0.1146469 -0.1147434 -0.1148417 -0.1149409 -0.1150408
 -0.1151405 -0.1152397 -0.1153384 -0.1154365 -0.1155349 -0.1156337 -0.1157338 -0.1158354 -0.1159384 -0.1160426
 -0.1161459 -0.116248 -0.1163456 -0.116439 -0.116527 -0.116611 -0.1166927 -0.1167739 -0.1168574 -0.1169434
 -0.1170334 -0.1171264 -0.1172224 -0.11732 -0.1174188 -0.1175174 -0.1176154 -0.1177111 -0.1178042 -0.1178945
 -0.117982 -0.1180685 -0.1181542 -0.1182407 -0.118328 -0.118416 -0.1185044 -0.1185927 -0.1186809 -0.1187695
 -0.1188583 -0.1189477 -0.1190371 -0.1191259 -0.1192137 -0.1192992 -0.1193831 -0.1194655 -0.1195479 -0.1196316
 -0.1197175 -0.1198068 -0.1198984 -0.1199924 -0.1200863 -0.1201795 -0.1202705 -0.1203588 -0.1204449 -0.1205286
 -0.1206106 -0.1206907 -0.1207693 -0.1208465 -0.1209235 -0.1210008 -0.1210806 -0.1211632 -0.1212499 -0.1213397
 -0.1214314 -0.1215228 -0.1216106 -0.1216936 -0.121769 -0.1218382 -0.1219003 -0.1219594 -0.1220167 -0.1220756
 -0.1221376 -0.1222035 -0.1222738 -0.1223471 -0.1224235 -0.1225016 -0.1225813 -0.1226618 -0.1227432 -0.1228239
 -0.1229036 -0.1229797 -0.1230523 -0.1231199 -0.1231839 -0.1232467 -0.1233106 -0.1233811 -0.1234593 -0.1235493
 -0.1236492 -0.1237591 -0.1238755 -0.1239961 -0.1241193 -0.1242435 -0.1243703 -0.1244997 -0.124633 -0.1247708
 -0.1249111 -0.1250539 -0.1251948 -0.1253336 -0.1254681 -0.1255985 -0.1257267 -0.1258532 -0.1259819 -0.1261123
 -0.126245 -0.1263778 -0.1265056 -0.1266248 -0.1267271 -0.1268096 -0.1268653 -0.1268937 -0.1268904 -0.1268612
 -0.1268048 -0.1267383 -0.1266663 -0.1266097 -0.1265756 -0.1265743 -0.1266103 -0.1266786 -0.1267804 -0.1268988
 -0.1270328 -0.1271602 -0.12728 -0.1273782 -0.1274558 -0.1275149 -0.1275574 -0.1275929 -0.1276222 -0.1276527
 -0.1276842 -0.1277203 -0.1277588 -0.1277986 -0.1278372 -0.1278707 -0.1279004 -0.1279251 -0.127949 -0.1279743
 -0.1280015 -0.1280323 -0.1280614 -0.1280881 -0.1281077 -0.1281194 -0.1281242 -0.128122 -0.1281179 -0.128112
 -0.1281089 -0.1281085 -0.1281127 -0.1281212 -0.1281346 -0.1281527 -0.1281757 -0.1282036 -0.1282364 -0.1282735
 -0.1283142 -0.1283567 -0.1283994 -0.1284407 -0.128479 -0.1285144 -0.1285463 -0.1285767 -0.1286062 -0.1286373
 -0.1286708 -0.128707 -0.1287465 -0.1287863 -0.1288263 -0.1288631 -0.1288965 -0.128927 -0.1289549 -0.1289843
 -0.1290151 -0.1290511 -0.1290916 -0.1291372 -0.129187 -0.1292394 -0.1292933 -0.1293469 -0.1293998 -0.1294505
 -0.1294994 -0.1295463 -0.1295917 -0.129636 -0.1296788 -0.1297202 -0.1297587 -0.1297939 -0.1298254 -0.1298528
 -0.1298778 -0.1299005 -0.1299239 -0.1299482 -0.1299754 -0.1300053 -0.1300375 -0.1300718 -0.1301065 -0.1301414
 -0.1301752 -0.1302078 -0.130239 -0.1302685 -0.1302962 -0.1303216 -0.130344 -0.1303637 -0.13038 -0.130395
 -0.130409 -0.1304245 -0.1304425 -0.1304638 -0.130489 -0.1305163 -0.1305458 -0.1305752 -0.1306047 -0.1306331
 -0.1306606 -0.1306865 -0.1307106 -0.130732 -0.130751 -0.1307684 -0.130785 -0.1308037 -0.1308246 -0.1308498
 -0.1308777 -0.1309074 -0.1309367 -0.130963 -0.1309855 -0.1310026 -0.1310162 -0.1310263 -0.1310363 -0.1310474
 -0.1310623 -0.1310821 -0.1311058 -0.1311337 -0.1311611 -0.1311876 -0.1312097 -0.1312274 -0.1312429 -0.1312566
 -0.1312734 -0.131293 -0.1313164 -0.1313424 -0.1313673 -0.1313908 -0.1314099 -0.1314262 -0.1314412 -0.1314566
 -0.1314755 -0.1314972 -0.1315226 -0.1315493 -0.1315764 -0.1316027 -0.1316275 -0.131651 -0.1316732 -0.1316933
 -0.1317111 -0.1317263 -0.1317385 -0.1317496 -0.1317597 -0.1317714 -0.1317847 -0.1317988 -0.1318134 -0.131826
 -0.131837 -0.1318462 -0.1318543 -0.1318635 -0.1318734 -0.131885 -0.1318976 -0.1319107 -0.1319236 -0.1319359
 -0.1319468 -0.1319557 -0.1319621 -0.1319652 -0.1319664 -0.1319655 -0.1319652 -0.1319661 -0.131969 -0.1319741
 -0.1319794 -0.1319847 -0.1319878 -0.1319887 -0.1319868 -0.1319824 -0.1319764 -0.1319692 -0.1319627 -0.1319575
 -0.1319558 -0.1319575 -0.1319637 -0.1319731 -0.1319849 -0.1319972 -0.1320086 -0.1320171 -0.1320214 -0.1320206
 -0.1320139 -0.1320024 -0.1319859 -0.1319681 -0.1319494 -0.1319336 -0.1319214 -0.1319139 -0.1319111 -0.1319106
 -0.1319121 -0.1319116 -0.1319092 -0.1319023 -0.1318914 -0.1318765 -0.131858 -0.1318374 -0.1318149 -0.131792
 -0.1317684 -0.1317447 -0.1317198 -0.1316936 -0.1316644 -0.1316317 -0.1315935 -0.1315491 -0.1314974 -0.1314379
 -0.1313699 -0.1312935 -0.131208 -0.1311135 -0.1310077 -0.1308903 -0.1307558 -0.1306037 -0.1304266 -0.1302237
 -0.1299881 -0.129719 -0.1294101 -0.12906 -0.1286625 -0.128216 -0.1277154 -0.12716 -0.1265471 -0.1258778
 -0.1251515 -0.1243699 -0.123533 -0.1226433 -0.1217011 -0.1207107 -0.1196725 -0.118594 -0.1174755 -0.1163279
 -0.1151519 -0.1139633 -0.1127631 -0.1115721 -0.1103915 -0.1092431 -0.1081283 -0.107065 -0.1060545 -0.1051095
 -0.1042318 -0.1034304 -0.1027086 -0.1020747 -0.1015345 -0.1010965 -0.1007673 -0.1005546 -0.1004621 -0.1004948
 -0.1006506 -0.1009312 -0.101328 -0.1018406 -0.1024556 -0.1031715 -0.1039739 -0.1048614 -0.1058218 -0.1068544
 -0.1079488 -0.1091043 -0.1103081 -0.1115581 -0.1128351 -0.1141353 -0.1154351 -0.11673 -0.1179986 -0.1192377
 -0.120433 -0.1215826 -0.1226794 -0.1237215 -0.1247055 -0.1256304 -0.1264943 -0.127299 -0.1280442 -0.1287345
 -0.1293707 -0.1299577 -0.1304965 -0.1309909 -0.1314413 -0.1318521 -0.1322236 -0.1325622 -0.1328682 -0.1331484
 -0.1334029 -0.133636 -0.1338479 -0.1340408 -0.134215 -0.1343723 -0.1345131 -0.1346392 -0.1347515 -0.1348514
 -0.1349405 -0.1350202 -0.1350917 -0.1351561 -0.135214 -0.1352657 -0.1353124 -0.135354 -0.1353928 -0.1354292
 -0.1354644 -0.1354989 -0.1355315 -0.1355622 -0.1355886 -0.1356107 -0.1356276 -0.1356394 -0.135647 -0.1356507
 -0.1356524 -0.1356526 -0.1356535 -0.135655 -0.1356585 -0.135663 -0.135668 -0.1356727 -0.1356758 -0.1356778
 -0.1356784 -0.1356781 -0.1356774 -0.1356755 -0.1356725 -0.1356673 -0.1356595 -0.1356493 -0.1356366 -0.1356231
 -0.1356089 -0.1355963 -0.1355854 -0.1355773 -0.1355717 -0.1355677 -0.1355648 -0.1355608 -0.1355559 -0.1355498
 -0.1355435 -0.1355392 -0.1355371 -0.1355391 -0.1355431 -0.1355484 -0.1355521 -0.1355519 -0.1355468 -0.1355356
 -0.1355207 -0.1355023 -0.1354845 -0.1354681 -0.1354551 -0.135446 -0.1354401 -0.1354374 -0.1354362 -0.1354364
 -0.1354358 -0.1354344 -0.1354298 -0.1354222 -0.1354107 -0.1353959 -0.1353793 -0.1353617 -0.1353453 -0.1353301
 -0.135317 -0.1353054 -0.1352951 -0.1352844 -0.1352726 -0.1352576 -0.1352384 -0.1352148 -0.135186 -0.1351557
 -0.1351243 -0.1350961 -0.1350719 -0.135051 -0.1350333 -0.1350144 -0.134994 -0.1349683 -0.1349376 -0.1349021
 -0.1348625 -0.1348217 -0.1347803 -0.1347412 -0.1347042 -0.13467 -0.1346373 -0.1346045 -0.1345706 -0.1345337
 -0.1344941 -0.1344514 -0.1344069 -0.1343609 -0.1343142 -0.134267 -0.1342196 -0.1341719 -0.1341242 -0.1340765
 -0.1340293 -0.1339826 -0.1339371 -0.1338928 -0.1338488 -0.1338052 -0.1337604 -0.1337149 -0.1336697 -0.1336257
 -0.1335863 -0.1335508 -0.1335199 -0.1334902 -0.1334571 -0.1334184 -0.1333695 -0.1333129 -0.1332483 -0.1331804
 -0.1331115 -0.1330432 -0.1329767 -0.1329107 -0.1328451 -0.1327786 -0.1327111 -0.132643 -0.1325741 -0.1325059
 -0.1324385 -0.1323728 -0.1323085 -0.1322445 -0.1321807 -0.1321155 -0.1320485 -0.1319788 -0.1319053 -0.1318259
 -0.1317407 -0.1316476 -0.1315501 -0.1314502 -0.1313518 -0.131259 -0.1311703 -0.1310867 -0.1310031 -0.1309177
 -0.1308292 -0.1307365 -0.130642 -0.130546 -0.1304488 -0.1303506 -0.1302488 -0.1301433 -0.1300333 -0.1299192
 -0.1298029 -0.1296848 -0.1295675 -0.1294514 -0.1293387 -0.1292287 -0.1291215 -0.1290156 -0.1289089 -0.1288004
 -0.1286881 -0.1285724 -0.1284529 -0.12833 -0.1282038 -0.1280753 -0.1279445 -0.1278133 -0.1276824 -0.1275518
 -0.1274218 -0.1272889 -0.1271528 -0.1270118 -0.1268657 -0.1267179 -0.1265686 -0.1264211 -0.1262747 -0.1261278
 -0.1259791 -0.1258241 -0.1256626 -0.1254915 -0.1253127 -0.1251271 -0.1249375 -0.1247472 -0.1245569 -0.1243688
 -0.12418 -0.1239897 -0.123796 -0.1235973 -0.1233966 -0.1231941 -0.1229938 -0.1227967 -0.1226009 -0.1224068
 -0.1222065 -0.1219997 -0.1217787 -0.1215438 -0.1212949 -0.1210336 -0.1207688 -0.1205011 -0.1202386 -0.1199782
 -0.1197179 -0.1194535 -0.1191771 -0.1188887 -0.1185844 -0.1182683 -0.1179423 -0.1176086 -0.1172695 -0.1169231
 -0.11657 -0.1162055 -0.1158291 -0.1154351 -0.1150222 -0.1145901 -0.1141383 -0.1136764 -0.1132049 -0.1127318
 -0.1122564 -0.1117739 -0.1112836 -0.1107798 -0.110264 -0.1097401 -0.1092062 -0.1086633 -0.1081013 -0.1075051
 -0.1068686 -0.106175 -0.1054379 -0.1046594 -0.1038603 -0.1030538 -0.1022416 -0.1014291 -0.1006042 -0.09976462
 -0.09890439 -0.09802222 -0.09711698 -0.09618925 -0.09522428 -0.09422108 -0.09314944 -0.09200943 -0.09078823 -0.08949223
 -0.08814965 -0.08676318 -0.08536169 -0.08393163 -0.08245979 -0.08092827 -0.07930327 -0.07757746 -0.0757331 -0.07376114
 -0.0716599 -0.06938931 -0.06693798 -0.06424367 -0.06127824 -0.05802475 -0.05446042 -0.05066684 -0.04664395 -0.04253086
 -0.03833837 -0.03418439 -0.03007498 -0.02607163 -0.02217054 -0.01835788 -0.01461667 -0.01085006 -0.007043181 -0.003078807
 0.001007824 0.005214894 0.009457361 0.01358981 0.01759365 0.02136788 0.02500216 0.02852561 0.03203046 0.0355814
 0.03919073 0.04288222 0.04662281 0.05040628 0.05422299 0.05807147 0.06194249 0.06583764 0.0697081 0.07355115
 0.07730427 0.08096072 0.08443297 0.08770087 0.09061109 0.09314001 0.09512789 0.09656183 0.09734008 0.09744716
 0.09679862 0.09543496 0.09331931 0.09064602 0.08752996 0.08417588 0.08073612 0.07725727 0.07378466 0.07033543
 0.06690854 0.06358606 0.06038476 0.05732778 0.05442705 0.05156073 0.04872255 0.04574482 0.04262697 0.03930996
 0.0358139 0.03222657 0.02856085 0.024915 0.02127201 0.01763992 0.01400153 0.01032224 0.006621591 0.002894833
 -0.0007974994 -0.004415017 -0.007899987 -0.01120451 -0.01432419 -0.01724136 -0.01998964 -0.02257679 -0.02501345 -0.0273064
 -0.02942601 -0.03136986 -0.03311805 -0.03466934 -0.03604106 -0.03723459 -0.03827297 -0.0391553 -0.03988657 -0.04046685
 -0.040897 -0.0411823 -0.04133464 -0.04136105 -0.04127757 -0.04109037 -0.0408108 -0.04044757 -0.04000905 -0.03950716
 -0.03894999 -0.03834621 -0.03770118 -0.03701729 -0.03629635 -0.03553734 -0.03474037 -0.0339042 -0.03302846 -0.03211574
 -0.03116613 -0.03019 -0.02918777 -0.02816886 -0.02713062 -0.02606219 -0.0249586 -0.02379241 -0.02256836 -0.02127988
 -0.0199442 -0.01859025 -0.01722218 -0.01586185 -0.01449078 -0.01309866 -0.01167906 -0.0102191 -0.008742048 -0.007257064
 -0.00576834 -0.004289466 -0.002759725 -0.00117599 0.0005487939 0.002429036 0.004457438 0.006635724 0.008802888 0.01094973
 0.01290997 0.01468599 0.01621587 0.01749956 0.01850825 0.01922904 0.01961378 0.01965602 0.01931982 0.01861334
 0.01753229 0.01608538 0.01426754 0.01212136 0.009641477 0.006964366 0.004130675 0.001281569 -0.00152634 -0.004278572
 -0.006958899 -0.009617114 -0.01225964 -0.01488731 -0.01750111 -0.02005541 -0.02254869 -0.02495234 -0.02726794 -0.02949372
 -0.03162913 -0.03366947 -0.0356162 -0.0374638 -0.03923067 -0.04093852 -0.04262401 -0.04433821 -0.04611224 -0.04799525
 -0.04998231 -0.05209163 -0.05428352 -0.05654742 -0.05884966 -0.06117915 -0.06351888 -0.06587189 -0.06817429 -0.07042476
 -0.07250823 -0.07441646 -0.07611536 -0.07760932 -0.07898109 -0.08023808 -0.08147392 -0.0826835 -0.08389851 -0.08510491
 -0.08628221 -0.08742044 -0.08849309 -0.08949387 -0.0904075 -0.09122232 -0.09192531 -0.09250287 -0.09294336 -0.09323964
 -0.09338558 -0.093381 -0.09322377 -0.09291978 -0.09246838 -0.09188364 -0.09116607 -0.0903366 -0.08939625 -0.08837312
 -0.08727019 -0.08614014 -0.08499105 -0.08390737 -0.08289356 -0.08201876 -0.08126974 -0.08065125 -0.0801381 -0.07968755
 -0.07927933 -0.07886937 -0.07845083 -0.07800183 -0.07752548 -0.07701372 -0.07648557 -0.0759379 -0.07542443 -0.07495494
 -0.07459179 -0.07435246 -0.07424443 -0.07427445 -0.07439708 -0.07461017 -0.07486156 -0.07514919 -0.07543798 -0.07572839
 -0.07600635 -0.07627475 -0.0765377 -0.07679843 -0.0770692 -0.07734828 -0.0776421 -0.07793725 -0.07822397 -0.07847656
 -0.07867198 -0.07878216 -0.07878476 -0.07865854 -0.07838854 -0.07796731 -0.07738578 -0.07666275 -0.0757962 -0.07482994
 -0.07376789 -0.07265148 -0.071484 -0.07028634 -0.06905957 -0.06781913 -0.06656777 -0.06533404 -0.06412097 -0.06295862
 -0.06184472 -0.06078889 -0.05978652 -0.05883096 -0.0579252 -0.05706666 -0.05627013 -0.05554572 -0.05491256 -0.05438494
 -0.05397673 -0.05369745 -0.05355333 -0.05354868 -0.05368259 -0.05395629 -0.05436342 -0.0549041 -0.05556651 -0.05635024
 -0.05723469 -0.05821852 -0.05927533 -0.06040434 -0.06158723 -0.06282464 -0.06411151 -0.06544486 -0.06681718 -0.06821676
 -0.06961992 -0.07101082 -0.07235868 -0.07365248 -0.0748712 -0.07600997 -0.07705983 -0.07801932 -0.07888515 -0.07965975
 -0.08034185 -0.08094033 -0.08145531 -0.0819025 -0.08228329 -0.0826147 -0.08289839 -0.08313915 -0.08333643 -0.08346978
 -0.08353595 -0.08349664 -0.08335199 -0.08307819 -0.08268649 -0.08219288 -0.08161836 -0.08100887 -0.08038781 -0.07980399
 -0.07927866 -0.07884812 -0.07852703 -0.07833643 -0.07827873 -0.07836229 -0.07857633 -0.07892251 -0.079376 -0.07993623
 -0.08055945 -0.08124328 -0.08192604 -0.08260366 -0.08321348 -0.08375271 -0.08418205 -0.08450303 -0.0847121 -0.08481432
 -0.0848313 -0.08476755 -0.08464772 -0.08447386 -0.08426123 -0.0840115 -0.08373258 -0.08342725 -0.08310078 -0.08275536
 -0.08239397 -0.0820176 -0.08162665 -0.08122449 -0.08081091 -0.08039463 -0.07997665 -0.07956802 -0.07917037 -0.07879093
 -0.07843066 -0.07808865 -0.0777647 -0.07745037 -0.07714502 -0.07683863 -0.07653175 -0.07622118 -0.07590902 -0.07559989
 -0.07529571 -0.07500246 -0.07472152 -0.07445644 -0.07421071 -0.07398766 -0.07379439 -0.07363548 -0.07351998 -0.07345296
 -0.07344119 -0.07348871 -0.07359537 -0.07376347 -0.07398166 -0.07425008 -0.07454745 -0.07487246 -0.07520184 -0.07553439
 -0.07585291 -0.0761572 -0.07643875 -0.07669799 -0.07693248 -0.07714254 -0.07732794 -0.07748848 -0.07762371 -0.07773324
 -0.07781638 -0.07787263 -0.07790165 -0.07790179 -0.07787257 -0.07781 -0.07771263 -0.07757521 -0.07739586 -0.07717069
 -0.07689823 -0.0765782 -0.07620991 -0.07579735 -0.07534045 -0.07484827 -0.07432142 -0.07377501 -0.07321091 -0.07265276
 -0.07210439 -0.07159723 -0.07113597 -0.07075236 -0.07044853 -0.07024603 -0.07014068 -0.07013799 -0.07022583 -0.07039627
 -0.07063134 -0.07091759 -0.07123674 -0.07157685 -0.07192573 -0.07227644 -0.07262459 -0.07296763 -0.07330633 -0.07364046
 -0.07397117 -0.07429875 -0.07462107 -0.07493802 -0.0752444 -0.07554001 -0.07582033 -0.0760858 -0.07633623 -0.07657239
 -0.0767967 -0.07700971 -0.07721357 -0.07740904 -0.07759792 -0.07778142 -0.07796179 -0.07813879 -0.07831383 -0.07848335
 -0.07864647 -0.0787982 -0.07893641 -0.07905909 -0.07916497 -0.07925572 -0.07933128 -0.0793944 -0.07944541 -0.07948516
 -0.07951368 -0.07952968 -0.07953292 -0.07952058 -0.07949221 -0.07944396 -0.07937535 -0.07928248 -0.07916564 -0.0790232
 -0.0788567 -0.07866746 -0.07845791 -0.07823095 -0.07798883 -0.07773422 -0.07746791 -0.07719184 -0.07690278 -0.07660124
 -0.07627895 -0.07593475 -0.07555854 -0.07514843 -0.07469919 -0.07420968 -0.07368394 -0.07312217 -0.07253757 -0.07193138
 -0.07132239 -0.07071199 -0.07011833 -0.06954107 -0.0689901 -0.06846116 -0.06795111 -0.0674515 -0.06694888 -0.06643301
 -0.06588767 -0.06530558 -0.06467501 -0.06399613 -0.06326431 -0.06248782 -0.0616672 -0.06081546 -0.05993487 -0.05903964
 -0.05813178 -0.05722461 -0.05631941 -0.05542756 -0.05454976 -0.05369414 -0.05286077 -0.05205263 -0.05126861 -0.05050454
 -0.04975761 -0.04901632 -0.04827706 -0.04752574 -0.04675999 -0.04596947 -0.04515388 -0.04430848 -0.04343523 -0.0425332
 -0.04160749 -0.04065945 -0.0396971 -0.03872314 -0.03774529 -0.03676619 -0.03578915 -0.03481551 -0.03384351 -0.03287315
 -0.03190177 -0.03092917 -0.02995772 -0.02898828 -0.02803314 -0.02709473 -0.02619361 -0.02533282 -0.02453427 -0.02379975
 -0.02314457 -0.02256892 -0.02207992 -0.02167712 -0.02136271 -0.02113596 -0.02099763 -0.02094492 -0.02097793 -0.02108921
 -0.02127787 -0.02153044 -0.02184492 -0.02220364 -0.02260422 -0.02302885 -0.02347567 -0.02393055 -0.02439253 -0.02485241
 -0.02530995 -0.02576037 -0.02620418 -0.02664159 -0.02707442 -0.02750897 -0.02794838 -0.02840304 -0.0288766 -0.02937927
 -0.02991528 -0.03049285 -0.03111677 -0.03179408 -0.03252607 -0.03331741 -0.0341602 -0.03505483 -0.0359844 -0.03694576
 -0.03792104 -0.03890694 -0.03989064 -0.04087043 -0.04183874 -0.04279502 -0.04373391 -0.04465514 -0.04555405 -0.04643036
 -0.0472798 -0.04810213 -0.04889428 -0.04965571 -0.05038411 -0.05107761 -0.05173284 -0.05234566 -0.05291026 -0.05342207
 -0.053875 -0.05426749 -0.05459569 -0.05486416 -0.05507175 -0.05523123 -0.05534372 -0.05542909 -0.05548971 -0.05554805
 -0.05560644 -0.05568393 -0.05578191 -0.05591192 -0.05607409 -0.05627069 -0.05650059 -0.05675744 -0.05703973 -0.05733772
 -0.0576513 -0.05797464 -0.05830987 -0.05865801 -0.05902131 -0.05940369 -0.05980444 -0.06022566 -0.06066171 -0.0611109
 -0.06156508 -0.06202076 -0.06247197 -0.06291632 -0.0633512 -0.06377602 -0.06418781 -0.06458642 -0.0649665 -0.06532764
 -0.06566712 -0.06598508 -0.06628491 -0.06656722 -0.06683829 -0.06709827 -0.06735107 -0.06759633 -0.06783509 -0.06806716
 -0.06829275 -0.06851172 -0.06872434 -0.0689294 -0.06912674 -0.06931274 -0.0694858 -0.0696411 -0.06977598 -0.06988863
 -0.06997699 -0.07004593 -0.07009518 -0.07013477 -0.0701656 -0.07019729 -0.07023063 -0.07027007 -0.07031555 -0.07036524
 -0.0704184 -0.07046887 -0.07051579 -0.07055223 -0.07057805 -0.0705894 -0.07058641 -0.07056808 -0.07053316 -0.07048069
 -0.07040634 -0.07030715 -0.070176 -0.07000857 -0.06979695 -0.06953739 -0.06922263 -0.06885006 -0.06841452 -0.0679139
 -0.06734964 -0.06672022 -0.06604176 -0.06531456 -0.06457207 -0.06381649 -0.0630906 -0.06239695 -0.06177502 -0.06122579
 -0.06077575 -0.0604222 -0.06017342 -0.06002134 -0.05995666 -0.05996708 -0.06003388 -0.06014444 -0.06028157 -0.06043507
 -0.06059412 -0.06075187 -0.0609028 -0.06104397 -0.06117301 -0.06129114 -0.06139803 -0.06149638 -0.06158652 -0.06167004
 -0.06174709 -0.06181893 -0.06188565 -0.06194953 -0.06201064 -0.06207075 -0.06212967 -0.06218753 -0.06224409 -0.06229859
 -0.0623514 -0.06240273 -0.06245346 -0.06250495 -0.06255759 -0.06261266 -0.06266882 -0.06272643 -0.06278127 -0.06283261
 -0.06287316 -0.06290121 -0.06290884 -0.06289393 -0.06285314 -0.06278528 -0.06269412 -0.06257977 -0.06244847 -0.06230047
 -0.06213866 -0.06196313 -0.06177536 -0.06157609 -0.06136969 -0.06115659 -0.06094102 -0.06072129 -0.06049619 -0.06026355
 -0.06001914 -0.05976361 -0.05949526 -0.05921779 -0.05893282 -0.05864438 -0.05835444 -0.05806649 -0.05778182 -0.05750342
 -0.05723217 -0.0569696 -0.05671625 -0.0564708 -0.05623329 -0.05600019 -0.05577137 -0.05554452 -0.05531998 -0.05509984
 -0.05488451 -0.05467802 -0.05447864 -0.05428436 -0.05409064 -0.05388746 -0.05367089 -0.05342987 -0.05316615 -0.05287626
 -0.05256652 -0.05224031 -0.05190204 -0.05155597 -0.0511988 -0.05083111 -0.05044574 -0.05004022 -0.04961588 -0.04917094
 -0.04872269 -0.04827186 -0.04784245 -0.04743553 -0.04706499 -0.04673015 -0.04642994 -0.04616301 -0.04592225 -0.04570676
 -0.04551054 -0.04533212 -0.04516591 -0.04500988 -0.04485809 -0.04471123 -0.04456643 -0.04442926 -0.04430199 -0.04419142
 -0.04410202 -0.04403525 -0.04399356 -0.04397179 -0.04396954 -0.04398088 -0.04400493 -0.04403834 -0.04408101 -0.04412642
 -0.04417409 -0.04421005 -0.04423339 -0.04422917 -0.04419778 -0.04413261 -0.04403591 -0.04391098 -0.04376038 -0.04359094
 -0.04340479 -0.04320779 -0.04300167 -0.04278995 -0.04257478 -0.0423584 -0.04214322 -0.0419312 -0.04172267 -0.04151887
 -0.04131613 -0.04111425 -0.04090789 -0.04069608 -0.04047677 -0.04024951 -0.04001676 -0.03977865 -0.03953886 -0.03929733
 -0.03905506 -0.03881117 -0.03856146 -0.03830503 -0.03803587 -0.03775558 -0.03746392 -0.03716483 -0.03686439 -0.03656493
 -0.03627201 -0.03598391 -0.03570146 -0.03542152 -0.03514266 -0.03486282 -0.03458087 -0.03429638 -0.03400856 -0.0337204
 -0.03343174 -0.03314913 -0.03287317 -0.03260804 -0.03235394 -0.03210747 -0.03186801 -0.0316272 -0.03138458 -0.03113304
 -0.03087301 -0.0306018 -0.03032071 -0.03003122 -0.02973461 -0.02943369 -0.02912867 -0.02882083 -0.02851002 -0.02819607
 -0.02788021 -0.02756259 -0.02724566 -0.02692974 -0.02661896 -0.02631342 -0.02602122 -0.02574295 -0.02548953 -0.02526206
 -0.02506755 -0.02490639 -0.0247779 -0.02468131 -0.02460809 -0.02455597 -0.02450847 -0.02446236 -0.02439747 -0.0243127
 -0.02419459 -0.02404616 -0.02386591 -0.02365813 -0.02342743 -0.02317547 -0.02290546 -0.02261629 -0.0223082 -0.02197995
 -0.02163029 -0.02126226 -0.02087508 -0.02047846 -0.02007324 -0.01967084 -0.01927267 -0.01888279 -0.01850149 -0.01812249
 -0.01774501 -0.0173572 -0.01695851 -0.0165388 -0.01609989 -0.01564125 -0.01516874 -0.01469464 -0.01422671 -0.01378263
 -0.01336826 -0.0129967 -0.01267157 -0.01240005 -0.01218262 -0.01202366 -0.01191395 -0.01185438 -0.01182278 -0.01181581
 -0.0118072 -0.01179227 -0.01175435 -0.01169085 -0.01159908 -0.01147872 -0.01133658 -0.01117316 -0.01099714 -0.01080858
 -0.01061234 -0.01040788 -0.01019589 -0.009975868 -0.009746738 -0.009508932 -0.009261648 -0.009008323 -0.008751685 -0.008497288
 -0.008252214 -0.008013945 -0.007786528 -0.007553347 -0.007308545 -0.007041987 -0.006743674 -0.006444545 -0.006145644 -0.005892754
 -0.005693061 -0.005542803 -0.005442322 -0.005362986 -0.005304302 -0.005255255 -0.005216661 -0.005189356 -0.005171751 -0.005158245
 -0.005146767 -0.005128271 -0.005104486 -0.005074173 -0.005039718 -0.005004631 -0.00496699 -0.004927515 -0.004880536 -0.004822874
 -0.004751351 -0.004662736 -0.004561346 -0.004446719 -0.004328132 -0.00420746 -0.004088177 -0.003971192 -0.00385278 -0.003732644
 -0.003616082 -0.003504558 -0.003422491 -0.003371979 -0.003380507 -0.003445726 -0.003575479 -0.003761419 -0.003989015 -0.004245469
 -0.004503947 -0.004750827 -0.004958275 -0.005121341 -0.005222685 -0.005275504 -0.005278898 -0.005258448 -0.005222667 -0.005194653
 -0.005183344 -0.005196001 -0.005238215 -0.005290615 -0.005353666 -0.005387256 -0.005388841 -0.005331745 -0.00521667 -0.005055501
 -0.004852127 -0.004639571 -0.004418922 -0.004212801 -0.004017994 -0.003838189 -0.003668669 -0.003502314 -0.003337066 -0.003166329
 -0.002993201 -0.002817598 -0.002644182 -0.002476415 -0.002314543 -0.002159649 -0.002010298 -0.001865432 -0.00172869 -0.001600402
 -0.001484699 -0.001382524 -0.001290967 -0.00120993 -0.001135069 -0.001066443 -0.001006097 -0.0009537907 -0.0009098049 -0.0008716913
 -0.0008294694 -0.0007812065 -0.0007149873 -0.0006344405 -0.0005391359 -0.0004370196 -0.0003384351 -0.0002476203 -0.00017445 -0.0001117301
 -6.042711E-05 -4.798876E-06 6.137461E-05 0.000148915 0.0002636731 0.0004026996 0.0005674542 0.000746634 0.0009394507 0.001134185
 0.001330081 0.001516172 0.001691985 0.001849034 0.001987765 0.002106928 0.002208266 0.002297782 0.00237806 0.002458411
 0.002542168 0.002640741 0.002753459 0.002887911 0.003030839 0.003176598 0.003303042 0.003393722 0.003439191 0.003427161
 0.003373604 0.00327858 0.003166773 0.003043986 0.002918714 0.002793831 0.002659543 0.002515429 0.002351113 0.002166488
 0.001962388 0.001739331 0.001502153 0.001250191 0.0009823946 0.0006991897 0.0003991116 8.794304E-05 -0.000225548 -0.0005326043
 -0.0008171886 -0.001076459 -0.00130062 -0.001494911 -0.001659671 -0.001800338 -0.001920216 -0.002019021 -0.002097595 -0.002153396
 -0.002185131 -0.00219691 -0.002187874 -0.00217411 -0.0021565 -0.002153928 -0.002166709</values></Ydata></AB><ScSm><Ydata ylabel="Single channel"><values byteorder="INTEL" format="FLOAT32" numvalues="1814"> 0.0848937 0.08499724 0.08512168 0.08527049 0.08543313 0.08559366 0.08574015 0.08587111 0.08599161 0.08610215
 0.08619997 0.08629436 0.08640717 0.08655013 0.08671013 0.08685985 0.08697943 0.08707426 0.08717636 0.08731372
 0.08746824 0.08757733 0.08759162 0.08752955 0.08746611 0.08746536 0.08753833 0.08768173 0.08792238 0.08825207
 0.08853306 0.08858632 0.08841676 0.08824766 0.08827312 0.08846328 0.08865562 0.08873574 0.08868118 0.08854577
 0.08848574 0.08871321 0.08930466 0.09004091 0.09047246 0.09017898 0.08904987 0.08743854 0.08607943 0.08570333
 0.08650898 0.08794199 0.08911042 0.08950502 0.0892758 0.08885049 0.0884883 0.08827277 0.08831 0.08871207
 0.08941377 0.09009734 0.09031571 0.08978686 0.08871327 0.08774562 0.08745213 0.08787835 0.08874509 0.08978622
 0.09049799 0.08988862 0.08735467 0.08400972 0.08233905 0.08390708 0.08772236 0.09126784 0.09279171 0.09223899
 0.09053092 0.08875018 0.08784828 0.0883182 0.08987552 0.09174173 0.09326145 0.09407464 0.09395181 0.09290341
 0.09139721 0.0901595 0.08976964 0.09049258 0.09217254 0.09407005 0.09515622 0.09492269 0.09376346 0.09246577
 0.09162988 0.09163859 0.09268923 0.09455936 0.09662707 0.09832906 0.0994527 0.1000141 0.1001213 0.0999518
 0.09966487 0.09937885 0.09929001 0.0995715 0.1000333 0.1001636 0.09969817 0.09897819 0.0986044 0.09881824
 0.09929521 0.09953628 0.09936199 0.09882095 0.09768285 0.09554996 0.09267487 0.09009002 0.0886011 0.08822097
 0.08882345 0.09048679 0.09270358 0.09413745 0.09396641 0.09299242 0.09277616 0.09395014 0.09581996 0.09737451
 0.09826687 0.09887236 0.09969857 0.1008119 0.1016907 0.1016117 0.1003916 0.09885134 0.09827134 0.09915234
 0.1007259 0.1018969 0.1023933 0.1027308 0.1033036 0.1038112 0.1035208 0.1020522 0.1000336 0.09887861
 0.09962048 0.101891 0.1041157 0.1047055 0.1031852 0.10045 0.09801513 0.09692749 0.0973583 0.09903778
 0.1016301 0.1045704 0.1069744 0.1080881 0.1078093 0.1066659 0.1052402 0.1036271 0.1016429 0.09967118
 0.09888655 0.1001568 0.1029288 0.1056683 0.1072761 0.1076986 0.1073062 0.1061517 0.1040654 0.1014173
 0.09945631 0.09938563 0.1009915 0.1026976 0.1032397 0.1028472 0.1025247 0.1026811 0.1029085 0.1028226
 0.1026384 0.1028638 0.1036498 0.104596 0.1051738 0.1052116 0.10493 0.1046301 0.1044085 0.1041034
 0.103543 0.1029273 0.1028133 0.1035281 0.1047294 0.1057496 0.1062552 0.1063794 0.1063184 0.1060038
 0.1052249 0.1040426 0.1029923 0.1027053 0.103293 0.1042619 0.1050391 0.1054008 0.1054128 0.1052137
 0.1049224 0.1046097 0.1043131 0.1041143 0.1041251 0.1043363 0.1045775 0.1046847 0.1046331 0.1044732
 0.1042265 0.10389 0.1035045 0.1031727 0.1029945 0.1029854 0.1030758 0.1031811 0.1032388 0.1031945
 0.103018 0.1027463 0.1024617 0.1022172 0.1020167 0.1018597 0.1017631 0.1017289 0.1017192 0.1016812
 0.1015891 0.1014505 0.10128 0.1010838 0.1008711 0.1006648 0.1004936 0.1003742 0.1002956 0.1002234
 0.1001391 0.1000649 0.1000213 0.09997225 0.09985548 0.09966145 0.09944706 0.09927258 0.09915285 0.09906498
 0.09897627 0.09885839 0.09869 0.09846838 0.09823102 0.09804961 0.09797697 0.09800525 0.09808746 0.09817858
 0.09824207 0.0982506 0.09820829 0.09814999 0.09809981 0.09804824 0.0979782 0.09789805 0.09784286 0.09784752
 0.09791359 0.09800191 0.09806567 0.09808522 0.09806961 0.09804542 0.09804867 0.09809638 0.09815458 0.09816627
 0.09812167 0.09807363 0.09807201 0.0981069 0.09812793 0.09810451 0.09805439 0.0980166 0.09800696 0.09800822
 0.09799881 0.09797843 0.09796153 0.09795361 0.09793645 0.09787823 0.09776553 0.09762415 0.09749699 0.09740274
 0.09732965 0.09726465 0.09720963 0.09716671 0.09712309 0.09705855 0.09696457 0.09685212 0.09673734 0.09662026
 0.09648547 0.09632498 0.09615074 0.09598009 0.09581688 0.09565137 0.09547231 0.09527522 0.09506212 0.09483664
 0.09460014 0.09435249 0.09409426 0.09382971 0.09357195 0.0933416 0.0931486 0.09297381 0.09278077 0.0925523
 0.09230964 0.09209186 0.09192164 0.09179306 0.0916871 0.09159264 0.09151357 0.09146098 0.09144324 0.09146231
 0.09151487 0.0915965 0.09170895 0.09186347 0.09206992 0.09231927 0.09258236 0.09283283 0.09306805 0.09330368
 0.09355242 0.0938149 0.09408622 0.0943623 0.09464146 0.09492461 0.09521052 0.09548825 0.09574181 0.09596808
 0.09618337 0.09640845 0.09665304 0.09691447 0.09717926 0.09742454 0.0976326 0.09781051 0.09798584 0.09817909
 0.09838793 0.09860121 0.09881715 0.09904156 0.09927674 0.09952066 0.09977442 0.100044 0.1003335 0.1006396
 0.1009513 0.1012572 0.1015563 0.1018617 0.1021914 0.1025531 0.1029378 0.1033283 0.1037124 0.10409
 0.1044694 0.1048573 0.1052535 0.1056568 0.1060724 0.1065064 0.1069564 0.1074122 0.1078662 0.1083174
 0.1087675 0.1092187 0.1096753 0.1101437 0.1106298 0.1111335 0.1116425 0.1121337 0.1125907 0.1130204
 0.1134485 0.1138965 0.1143676 0.1148475 0.1153136 0.1157472 0.1161501 0.1165473 0.1169637 0.1173973
 0.1178263 0.1182405 0.1186555 0.1190894 0.1195325 0.1199506 0.1203201 0.1206528 0.1209815 0.1213218
 0.1216576 0.1219648 0.1222415 0.1225085 0.1227822 0.1230612 0.1233402 0.1236254 0.1239228 0.1242214
 0.1244998 0.1247516 0.1249893 0.1252257 0.1254596 0.1256822 0.1258908 0.1260935 0.1263038 0.126527
 0.1267534 0.1269739 0.1271995 0.1274553 0.127753 0.1280833 0.1284374 0.1288207 0.1292363 0.1296675
 0.1300934 0.1305186 0.1309678 0.131446 0.131919 0.1323478 0.1327311 0.133098 0.133471 0.1338553
 0.1342598 0.1347016 0.1351856 0.1356934 0.1361956 0.1366721 0.137124 0.1375724 0.1380364 0.1385067
 0.1389473 0.1393305 0.1396638 0.1399802 0.1403071 0.1406495 0.1409908 0.1413069 0.1415768 0.1417847
 0.1419146 0.1419529 0.1419026 0.1417845 0.1416137 0.1413758 0.1410368 0.1405734 0.1399828 0.1392653
 0.1384117 0.1374205 0.1363274 0.1352151 0.1341967 0.1333867 0.132875 0.132713 0.132907 0.1334145
 0.1341447 0.1349707 0.1357546 0.1363722 0.1367268 0.1367597 0.1364631 0.1358812 0.1350915 0.1341799
 0.1332241 0.1322848 0.1314032 0.13062 0.130009 0.1296895 0.1297957 0.1304272 0.1316137 0.133294
 0.135309 0.1374348 0.1394621 0.141272 0.1428497 0.1442399 0.1454965 0.1466628 0.147771 0.1488391
 0.1498673 0.1508435 0.1517543 0.1525885 0.1533318 0.1539645 0.1544666 0.1548241 0.155039 0.1551383
 0.1551729 0.1552038 0.1552891 0.155476 0.1557845 0.1561845 0.156596 0.156925 0.1571088 0.1571414
 0.1570833 0.1570683 0.1572961 0.1579814 0.1592595 0.1611008 0.163306 0.1655988 0.1677459 0.1696157
 0.1711666 0.1724185 0.1734317 0.1742829 0.1750358 0.1757287 0.1763807 0.1770021 0.1776 0.1781814
 0.1787544 0.179327 0.1799056 0.1804928 0.1810851 0.1816755 0.1822622 0.1828518 0.1834546 0.1840747
 0.1847041 0.1853278 0.1859394 0.1865478 0.1871641 0.1877835 0.1883886 0.1889692 0.1895325 0.1900944
 0.1906663 0.191249 0.1918311 0.1923956 0.1929318 0.1934431 0.193941 0.1944355 0.1949293 0.19542
 0.1959032 0.1963755 0.196838 0.1972972 0.1977612 0.1982316 0.1987 0.1991558 0.1995969 0.2000326
 0.2004751 0.2009294 0.201391 0.2018516 0.2023078 0.2027637 0.2032265 0.203698 0.2041712 0.2046367
 0.2050929 0.2055467 0.2060048 0.2064666 0.206927 0.2073833 0.207837 0.2082891 0.2087389 0.2091849
 0.2096264 0.2100627 0.2104936 0.2109214 0.2113503 0.2117823 0.2122158 0.2126483 0.2130801 0.213514
 0.2139524 0.2143928 0.2148286 0.2152538 0.2156678 0.2160728 0.2164705 0.2168635 0.2172576 0.2176575
 0.2180617 0.2184659 0.2188682 0.2192692 0.2196691 0.2200679 0.2204674 0.2208696 0.2212737 0.2216758
 0.2220736 0.2224701 0.2228702 0.2232735 0.2236755 0.2240743 0.2244725 0.2248725 0.2252741 0.2256744
 0.2260692 0.2264577 0.2268448 0.2272371 0.2276358 0.2280377 0.2284411 0.2288457 0.2292517 0.2296584
 0.230066 0.2304745 0.2308848 0.231297 0.2317079 0.2321126 0.2325107 0.232907 0.2333061 0.2337104
 0.2341198 0.2345316 0.2349434 0.2353564 0.2357718 0.2361865 0.2365953 0.236997 0.2373943 0.2377906
 0.238189 0.2385893 0.2389875 0.2393823 0.2397782 0.2401796 0.2405862 0.2409952 0.2414041 0.2418105
 0.2422152 0.2426199 0.2430229 0.2434224 0.2438228 0.24423 0.2446427 0.2450562 0.2454699 0.2458851
 0.2463024 0.2467228 0.2471453 0.2475662 0.2479838 0.2484003 0.2488147 0.2492232 0.2496261 0.2500279
 0.2504317 0.2508397 0.2512529 0.2516683 0.2520828 0.2525007 0.2529278 0.2533627 0.2538001 0.2542365
 0.2546697 0.2551006 0.2555363 0.2559814 0.2564323 0.256883 0.2573316 0.2577764 0.2582174 0.2586591
 0.2591033 0.2595468 0.2599903 0.2604397 0.2608941 0.2613488 0.2618038 0.2622599 0.262714 0.2631673
 0.2636247 0.2640841 0.2645398 0.2649938 0.2654498 0.2659053 0.2663597 0.266816 0.267272 0.2677246
 0.268177 0.2686308 0.2690827 0.2695365 0.2700004 0.2704713 0.270941 0.2714092 0.2718763 0.2723371
 0.2727924 0.2732469 0.2736964 0.274137 0.2745764 0.275017 0.2754499 0.2758754 0.2763028 0.2767264
 0.2771178 0.2774079 0.2774215 0.2767997 0.2749523 0.271057 0.2642108 0.2537866 0.2398085 0.2230676
 0.2049041 0.186788 0.1699176 0.1550528 0.1426046 0.1327893 0.1257358 0.1215828 0.1205615 0.1231103
 0.1300234 0.141978 0.1578077 0.1730126 0.1814428 0.1799489 0.1712318 0.1613936 0.1549726 0.1527143
 0.1530988 0.154615 0.1566593 0.1593701 0.1631082 0.1679221 0.1734942 0.1796603 0.1867128 0.1949501
 0.2040915 0.2133776 0.2222042 0.2305112 0.2385619 0.2464743 0.2540376 0.2609128 0.2668952 0.2719834
 0.2763101 0.2800601 0.283399 0.2864349 0.2892348 0.2918333 0.2941897 0.2961646 0.2975993 0.2984431
 0.2988143 0.2989462 0.2990582 0.2992626 0.2995783 0.2999972 0.3005102 0.3011026 0.3017595 0.3024722
 0.3032257 0.3039965 0.3047673 0.3055251 0.3062551 0.3069496 0.3076124 0.308246 0.3088496 0.3094285
 0.3099903 0.3105353 0.3110636 0.3115823 0.3120953 0.3126017 0.3131026 0.3135967 0.314073 0.3145206
 0.3149401 0.3153383 0.315722 0.3161002 0.3164794 0.3168591 0.3172361 0.3176097 0.3179787 0.3183423
 0.3187032 0.3190631 0.3194195 0.3197736 0.32013 0.3204877 0.3208416 0.3211921 0.3215427 0.3218902
 0.3222317 0.3225699 0.3229073 0.3232405 0.3235676 0.3238939 0.3242294 0.3245832 0.324956 0.3253351
 0.3257059 0.3260672 0.3264283 0.3267952 0.3271674 0.3275436 0.327922 0.3283004 0.3286778 0.3290518
 0.3294134 0.3297538 0.3300721 0.3303754 0.3306737 0.3309766 0.3312872 0.3316014 0.3319156 0.3322316
 0.3325505 0.3328686 0.3331825 0.3334917 0.3337984 0.3341104 0.334436 0.3347713 0.335102 0.3354188
 0.3357211 0.3360046 0.3362588 0.3364725 0.3366305 0.336708 0.3366808 0.3365376 0.33628 0.3359112
 0.3354205 0.3347787 0.3339563 0.3329526 0.3317992 0.3305423 0.3292313 0.3279087 0.3265986 0.3253207
 0.3241353 0.3231522 0.3224695 0.322117 0.3220731 0.3223198 0.3228667 0.3237289 0.3248996 0.3263427
 0.3280075 0.3298495 0.3318473 0.3340051 0.3363193 0.3387285 0.3411134 0.3433641 0.3454311 0.3473089
 0.3490027 0.350524 0.3518709 0.3530019 0.353888 0.3546139 0.3553674 0.3562775 0.3572876 0.3582283
 0.358996 0.3596239 0.3601911 0.3607297 0.3612332 0.3616724 0.3619542 0.361972 0.3618036 0.3617807
 0.3622202 0.3631039 0.364118 0.3649709 0.3655881 0.3660453 0.366437 0.3668136 0.3671514 0.3673528
 0.3673485 0.3672497 0.367336 0.3678016 0.3685383 0.369255 0.3697844 0.3701795 0.3705567 0.3709624
 0.3713456 0.3715309 0.3712985 0.3706834 0.3701709 0.370379 0.3714617 0.3729346 0.3741591 0.3749076
 0.3753663 0.3756948 0.375792 0.3754892 0.3747613 0.3737363 0.3727559 0.372431 0.3732424 0.3749254
 0.3765782 0.3775643 0.3780602 0.3786003 0.3793792 0.3801685 0.380689 0.3808611 0.3807579 0.380442
 0.3799362 0.3794081 0.3792792 0.3799277 0.3812463 0.3826695 0.3837056 0.384324 0.3847238 0.3847606
 0.3838037 0.3814821 0.3786592 0.3772203 0.3784014 0.3814893 0.3845932 0.3865151 0.3874113 0.3879104
 0.388293 0.3884089 0.3876634 0.3852166 0.3811244 0.3773287 0.3764803 0.3793325 0.3838995 0.3873761
 0.3882799 0.386767 0.3839248 0.3812613 0.3801666 0.3811604 0.3836749 0.3866333 0.3890986 0.3905255
 0.3907923 0.390151 0.3891246 0.3883657 0.3882476 0.3883111 0.3875458 0.3856989 0.3837569 0.3824281
 0.3808485 0.3779996 0.3749784 0.3743181 0.3768496 0.3804995 0.3826963 0.3830002 0.382644 0.3820558
 0.379838 0.3746096 0.3675575 0.3624139 0.3622571 0.3664371 0.3712209 0.3734573 0.3730673 0.3719929
 0.3714637 0.3706945 0.3680649 0.3634116 0.3589206 0.3571715 0.3582548 0.359648 0.3590057 0.3558259
 0.3502515 0.3424422 0.3344421 0.3306033 0.3337495 0.3416481 0.348976 0.3519294 0.3494409 0.341582
 0.3298769 0.3188784 0.3141322 0.3170674 0.3233163 0.3269162 0.3250031 0.3179675 0.307012 0.2935335
 0.2802941 0.2711193 0.2684469 0.2713892 0.2760523 0.2773789 0.2717385 0.2597573 0.2469047 0.2394054
 0.2384957 0.239692 0.238093 0.2329522 0.2266847 0.2214579 0.2179389 0.2158126 0.2142101 0.2124155
 0.2104924 0.2081665 0.2036242 0.1957434 0.1875262 0.1845163 0.1889775 0.1979672 0.2077825 0.2174733
 0.2266845 0.23309 0.2348635 0.2343822 0.2367221 0.2443227 0.254649 0.2633369 0.2685639 0.2718112
 0.2749725 0.2778888 0.2794659 0.2805118 0.2837304 0.290363 0.2982441 0.3041432 0.3070026 0.3079577
 0.3081894 0.3079488 0.3071364 0.3057681 0.3039371 0.3018408 0.2997526 0.2977517 0.2956829 0.2934728
 0.2910646 0.2877776 0.2823549 0.2746062 0.2668184 0.2621923 0.2614943 0.2625602 0.2633927 0.263638
 0.2620733 0.2555036 0.2429369 0.22936 0.222309 0.2246294 0.2323157 0.2391869 0.2418945 0.2402874
 0.2351688 0.2279194 0.2220916 0.2228797 0.2330414 0.2498928 0.2676501 0.2822568 0.2928514 0.2995342
 0.3019239 0.3004257 0.2976098 0.2972309 0.3017235 0.310651 0.3210753 0.3288249 0.3302761 0.3253821
 0.3198506 0.3216382 0.3328583 0.3468307 0.3554539 0.3577669 0.358683 0.3612854 0.3641753 0.3658092
 0.3675636 0.3713083 0.3762277 0.3794521 0.378626 0.372929 0.3630514 0.35184 0.3438478 0.3418563
 0.3439627 0.3458454 0.3451915 0.3418438 0.3352036 0.3253909 0.3165573 0.3146865 0.320896 0.3298624
 0.3359087 0.3382835 0.3395159 0.3407078 0.3401689 0.3362221 0.3301817 0.3257608 0.3253828 0.3278227
 0.3300507 0.3304394 0.3290494 0.325793 0.3203712 0.3141449 0.3102908 0.3110442 0.315361 0.3199672
 0.3223851 0.3224652 0.3214403 0.3203983 0.3197156 0.3192358 0.3187616 0.3187463 0.3203402 0.3241423
 0.3290896 0.3333876 0.3365436 0.3397367 0.3440756 0.3491442 0.3534967 0.3561673 0.3574712 0.3585663
 0.3604034 0.3629512 0.3652475 0.366251 0.3658436 0.3650458 0.3650978 0.3662989 0.3679044 0.3691108
 0.3698393 0.3705525 0.3716677 0.3732498 0.3749774 0.3763313 0.3770963 0.3777304 0.3789603 0.3809371
 0.3830154 0.384413 0.3848831 0.3846852 0.3841186 0.3832586 0.382086 0.3807105 0.3793888 0.3783445
 0.3776196 0.3771008 0.3766446 0.3761614 0.3756357 0.375116 0.3746789 0.3743781 0.3742283 0.3742374
 0.374422 0.3747761 0.3752586 0.3758302 0.3764713 0.3771366 0.3777206 0.3780981 0.3781821 0.3779244
 0.3772843 0.3762231 0.3747097 0.3726997 0.3701383 0.3670815 0.3638965 0.3613061 0.3600882 0.3605908
 0.3624825 0.364976 0.3673167 0.3691285 0.3704199 0.3713729 0.3721481 0.3728166 0.3733868 0.3738455
 0.374185 0.3744177 0.3745736 0.3746804 0.3747518 0.3747979 0.3748327 0.3748636 0.3748794 0.3748551
 0.3747637 0.3745833 0.3742982 0.3738977 0.3733746 0.3727189 0.3719115 0.3709297 0.3697749 0.368492
 0.3671541 0.3658201 0.3645033 0.3631722 0.3617796 0.3602809 0.3586151 0.356692 0.3544693 0.3520672
 0.3497424 0.3476848 0.3458622 0.3440962 0.3422488 0.3402874 0.338216 0.3360193 0.3336756 0.3311795
 0.3285375 0.3257557 0.322839 0.3197978 0.3166583 0.3134648 0.310261 0.30707 0.3038918 0.3007085
 0.2974712 0.2940775 0.2903732 0.2861914 0.2813987 0.2759202 0.2697526 0.2629815 0.2557884 0.2484221
 0.241142 0.2341799 0.2277348 0.2219792 0.2170559 0.2130693 0.2100835 0.2081281 0.2072082 0.2073109
 0.208404 0.2104262 0.2132748 0.2168019 0.2208223 0.2251306 0.2295186 0.2337994 0.2378522 0.2416658
 0.2453257 0.2489295 0.2525017 0.2559847 0.2592963 0.2623798 0.2652071 0.2677618 0.2700369 0.2720451
 0.2738222 0.2754127 0.2768478 0.2781268 0.2792174 0.2800794 0.2806994 0.2811104 0.2813883 0.2816276
 0.2819123 0.2822956 0.2828004 0.2834323 0.2841925 0.2850833 0.286109 0.2872708 0.2885561 0.2899379
 0.2913904 0.2929067 0.2945046 0.2962168 0.2980734 0.3000848 0.3022375 0.3044935 0.306787 0.30902
 0.3110753 0.3128461 0.3142622 0.315299 0.3159663 0.3162943 0.3163258 0.316112 0.3157049 0.3151466
 0.3144674 0.3136907 0.3128326 0.3118951 0.3108665 0.3097306 0.3084815 0.3071309 0.3056939 0.3041656
 0.302521 0.3007432 0.298847 0.2968796 0.2949161 0.2930531 0.2913904 0.2900011 0.2889091 0.2880826
 0.287442 0.2868833 0.2863047 0.2856217 0.284773 0.2837268 0.2824768 0.281031 0.2794063 0.2776265
 0.2757127 0.2736771 0.271528 0.2692739 0.2669217 0.2644753 0.261932 0.259279 0.2565168 0.2536972
 0.2509196 0.2482747 0.2457964 0.2434691 0.2412618 0.2391515 0.2371255 0.2351705 0.2332699 0.2314177
 0.2296247 0.2279052 0.2262676 0.2247226 0.2232864 0.221971 0.2207848 0.2197375 0.2188304 0.2180453
 0.2173494 0.2167105 0.216118 0.2156037 0.2152196 0.2149695 0.2147729 0.2145164 0.2141358 0.213653
 0.2131508 0.2127159 0.2123911 0.2121702 0.2120175 0.2118647 0.2116044 0.21112 0.210322 0.2091496
 0.2075691 0.205598 0.2033201 0.2008724 0.19842 0.1961221 0.1940937 0.1923958 0.1910458 0.1900049
 0.18918 0.1884845 0.1879101 0.1875271 0.1874189 0.1875892 0.1878949 0.1881097 0.1881212 0.1880545
 0.1881588 0.1885921 0.1893289 0.1902211 0.1911031 0.1918626 0.1924483 0.1928412 0.1930487 0.1931114
 0.1930697 0.1929268 0.1926669 0.192287 0.1917902 0.1911807 0.1904729 0.1896717 0.1887583 0.1877253
 0.1865925 0.1853715 0.1840567 0.1826505 0.1811461 0.1795222 0.1778352 0.1763022 0.175228 0.1748357
 0.1751409 0.1759418 0.1769555 0.1779989 0.1790033 0.1798748 0.1804941 0.1809219 0.1814906 0.182583
 0.1843086 0.1863929 0.188369 0.1898739 0.1907711 0.1910615 0.1908005 0.1900911 0.1890175 0.1875784
 0.1857676 0.1836614 0.1813619 0.1789643 0.1766145 0.1744667 0.1725887 0.1709958 0.1696868 0.1686539
 0.1679637 0.1673528 0.1652473 0.1593039 0.1497305 0.1414599 0.1404389 0.1472248 0.1562242 0.1617111
 0.1627027 0.1615934 0.1603636 0.1594255 0.1586949 0.1582455 0.1581361 0.1582618 0.1583992 0.1583203
 0.1579399 0.157288 0.1562423 0.1543013 0.1505944 0.1441942 0.1347917 0.1233296 0.11181 0.1022384
 0.09563418 0.09181091 0.08979694 0.08851913 0.08742398 0.08666155 0.08671856 0.08791719 0.09024423 0.09349717
 0.09742008 0.101669 0.1057715 0.1092833 0.1120226 0.114072 0.1155562 0.1165144 0.1169715 0.1170003
 0.116683 0.1160896 0.1152883 0.1143117 0.1131283 0.1117059 0.1101215 0.1085934 0.1073778 0.1065946
 0.1061592 0.1059038 0.1057322 0.1056291 0.1055902 0.105604 0.1056691 0.1057892 0.1059711 0.1062263
 0.1065412 0.1068593 0.1071211 0.1073058 0.1074217 0.1074693 0.1074168 0.1072202 0.1069003 0.1065646
 0.1062664 0.1058644 0.1051346 0.1040551 0.1029162 0.1021322 0.1019546 0.1023201 0.1029202 0.1034273
 0.1036955 0.1037837 0.1038124 0.1038028</values></Ydata></ScSm><ScRf><Ydata ylabel="Single channel"><values byteorder="INTEL" format="FLOAT32" numvalues="1820"> 0.06969102 0.06982459 0.06994168 0.07004045 0.07012807 0.07021845 0.07032344 0.0704449 0.07057631 0.0707088
 0.07083483 0.07095058 0.07105554 0.07114795 0.0712266 0.07130116 0.07139225 0.07151344 0.07165627 0.07179507
 0.07190595 0.07198745 0.07206625 0.07217124 0.07229432 0.07238674 0.07240503 0.07235892 0.07230707 0.07230346
 0.07236035 0.07247724 0.07267656 0.07295088 0.07318564 0.07323252 0.0730956 0.07295939 0.0729837 0.07314269
 0.07330136 0.07336539 0.07331809 0.0732076 0.07316659 0.07336906 0.07387035 0.07448052 0.07482663 0.07456818
 0.07362218 0.07228461 0.07116219 0.07085736 0.07153264 0.07272755 0.07370286 0.07403705 0.0738538 0.07350505
 0.07320297 0.07301746 0.07304122 0.07337277 0.07395992 0.07453583 0.07472372 0.07428551 0.07338997 0.0725812
 0.07233401 0.07268664 0.07340689 0.07427339 0.07486603 0.07435921 0.07225426 0.06948232 0.0681088 0.06942382
 0.07259285 0.07552541 0.07677735 0.07631227 0.07489561 0.07342206 0.07267867 0.0730737 0.07437067 0.07592362
 0.07718882 0.07786669 0.07776614 0.07689661 0.07564688 0.07461893 0.07429355 0.074892 0.07628547 0.07785916
 0.07875998 0.0785692 0.07761429 0.0765443 0.07585366 0.07586114 0.07673272 0.07828261 0.07999258 0.08139719
 0.08232516 0.08279304 0.0828896 0.08275908 0.08253063 0.0823002 0.08223042 0.08246695 0.08285393 0.08296534
 0.082579 0.08197692 0.08166012 0.08183265 0.08222744 0.08243046 0.0822922 0.08185165 0.080915 0.07914976
 0.07676546 0.07461999 0.07338257 0.07306555 0.07356805 0.07495641 0.07680491 0.07799889 0.07785749 0.0770531
 0.07688539 0.07787749 0.07944676 0.08074723 0.08148789 0.08198379 0.08266369 0.08358713 0.08432025 0.08425982
 0.08325343 0.08198372 0.08151366 0.08225639 0.08357215 0.08455342 0.08497693 0.08526915 0.08575222 0.08617584
 0.08593849 0.08473364 0.08308605 0.08216459 0.0828189 0.08473825 0.0866152 0.08713102 0.08589127 0.08364065
 0.08164264 0.08077294 0.08117748 0.0826319 0.08485344 0.08736733 0.08943373 0.09042142 0.09024286 0.08933894
 0.08819974 0.08690682 0.0853068 0.08372389 0.08314719 0.08430401 0.08672419 0.08911517 0.09055412 0.09099722
 0.09075338 0.0898613 0.08817603 0.0860169 0.08445222 0.08450467 0.08598381 0.08754084 0.08810076 0.08786539
 0.08769454 0.08793586 0.08824 0.08827882 0.08823678 0.08854806 0.08934116 0.09027397 0.09089469 0.09105505
 0.09094134 0.09081109 0.09074902 0.09061572 0.09026179 0.08986206 0.08990325 0.09067036 0.09186269 0.09289612
 0.09347998 0.093733 0.09382648 0.09369545 0.09314905 0.09224172 0.09145345 0.09134877 0.09202719 0.09304689
 0.09389427 0.09436792 0.09452887 0.09450385 0.09439887 0.09427363 0.09415892 0.09412903 0.09428793 0.09463149
 0.09500705 0.09526358 0.09537467 0.09538595 0.09531832 0.09516893 0.09497289 0.09482257 0.09480938 0.09494866
 0.09517817 0.09542379 0.09563293 0.09575664 0.09576137 0.09567352 0.09556677 0.09549347 0.0954602 0.09546753
 0.0955316 0.09565336 0.09579466 0.09590587 0.09596793 0.09599407 0.09599862 0.09598279 0.09595017 0.09591994
 0.09592019 0.0959701 0.09606162 0.09616245 0.09625366 0.09635456 0.09648249 0.09660155 0.09665161 0.09662503
 0.09658001 0.09657821 0.09663506 0.09672593 0.09681493 0.09687023 0.09686839 0.09680812 0.09673108 0.09671088
 0.0967989 0.09698651 0.09722866 0.09748127 0.09770435 0.09786528 0.09796555 0.09804124 0.09811962 0.09819393
 0.09824966 0.09829769 0.09837379 0.09851027 0.09870471 0.09891648 0.09909979 0.09923539 0.09933126 0.09941408
 0.09952234 0.0996739 0.09983042 0.09992946 0.09996461 0.1000001 0.1000915 0.1002213 0.1003276 0.1003787
 0.1004016 0.1004462 0.100535 0.1006507 0.1007642 0.1008669 0.1009739 0.1010983 0.1012211 0.1012954
 0.1012931 0.1012422 0.1012006 0.1011975 0.1012202 0.101255 0.1013106 0.1013934 0.1014809 0.1015358
 0.1015447 0.1015317 0.1015307 0.1015469 0.1015526 0.1015225 0.1014623 0.101401 0.1013641 0.1013561
 0.1013616 0.101357 0.1013253 0.1012654 0.1011888 0.101108 0.1010289 0.1009562 0.1009054 0.1008996
 0.1009376 0.100968 0.1009193 0.1007675 0.1005633 0.1003841 0.1002661 0.1001862 0.1000975 0.09997281
 0.09981814 0.09965736 0.09950998 0.09938091 0.0992645 0.09915517 0.09905747 0.09898755 0.09895602 0.09894367
 0.09890454 0.09880659 0.09866526 0.09852625 0.09842118 0.09835017 0.09829916 0.09825842 0.0982277 0.09821391
 0.09822047 0.09823436 0.09823337 0.09821215 0.09819162 0.09819853 0.09824634 0.09833404 0.09844493 0.09854531
 0.09860524 0.09862984 0.09865648 0.09871597 0.09880809 0.0989169 0.09903471 0.09916356 0.09930433 0.09945501
 0.09961715 0.09979713 0.09999979 0.1002217 0.1004503 0.1006715 0.1008811 0.1010899 0.1013159 0.1015701
 0.1018483 0.1021337 0.10241 0.1026745 0.1029383 0.1032124 0.1034952 0.1037798 0.1040684 0.1043715
 0.1046919 0.1050195 0.1053428 0.1056601 0.1059764 0.1062956 0.1066175 0.1069437 0.107283 0.1076454
 0.1080235 0.1083859 0.1087019 0.1089747 0.1092415 0.109539 0.1098754 0.1102292 0.1105662 0.1108623
 0.1111233 0.1113823 0.1116673 0.1119731 0.1122768 0.1125767 0.1129002 0.113267 0.113652 0.1139983
 0.1142688 0.1144819 0.1146896 0.1149237 0.1151706 0.1154003 0.1156073 0.1158124 0.1160333 0.1162682
 0.1165108 0.1167653 0.1170351 0.1173067 0.1175586 0.1177836 0.1179926 0.1181952 0.1183848 0.1185444
 0.1186636 0.118753 0.1188429 0.1189609 0.1191065 0.1192568 0.1193981 0.1195411 0.1197021 0.1198841
 0.1200848 0.1203086 0.1205571 0.1208149 0.1210638 0.1213104 0.1215813 0.1218808 0.1221712 0.1224121
 0.1226068 0.1227918 0.1229899 0.1231992 0.1234209 0.1236711 0.1239571 0.1242627 0.1245622 0.1248433
 0.1251153 0.1254002 0.1257096 0.1260239 0.1263017 0.1265183 0.1266916 0.1268658 0.1270759 0.1273284
 0.1276057 0.127884 0.128148 0.1283898 0.128597 0.1287535 0.1288585 0.1289335 0.1289965 0.1290337
 0.1290064 0.1288837 0.1286571 0.1283249 0.1278771 0.1273064 0.1266341 0.1259227 0.1252648 0.1247547
 0.1244635 0.1244269 0.1246444 0.1250791 0.1256594 0.1262906 0.1268781 0.1273412 0.1276129 0.1276415
 0.1274074 0.1269366 0.126289 0.1255314 0.1247204 0.1238982 0.1230968 0.1223555 0.1217487 0.1213938
 0.1214202 0.1219213 0.1229178 0.1243367 0.1260112 0.127725 0.1292969 0.1306468 0.1317911 0.1327858
 0.1336778 0.134498 0.1352694 0.1360053 0.1367045 0.137361 0.1379764 0.1385576 0.1391028 0.1395974
 0.1400213 0.1403563 0.1405947 0.1407461 0.1408346 0.1408835 0.1409062 0.1409112 0.1409026 0.140866
 0.1407614 0.1405411 0.1401792 0.1396921 0.1391487 0.1386746 0.1384402 0.1386151 0.1392957 0.1404441
 0.1418955 0.1434364 0.1448912 0.1461553 0.1471834 0.1479799 0.1485934 0.1490935 0.1495359 0.149948
 0.1503395 0.1507146 0.1510753 0.1514232 0.1517621 0.1520988 0.1524404 0.1527892 0.1531395 0.1534811
 0.153809 0.1541302 0.1544588 0.1548033 0.1551579 0.155509 0.1558516 0.1561959 0.1565508 0.1569056
 0.1572388 0.1575437 0.1578368 0.1581414 0.1584699 0.1588188 0.1591719 0.1595092 0.1598201 0.1601104
 0.160393 0.160675 0.160956 0.1612353 0.1615147 0.1617956 0.162078 0.162362 0.1626491 0.162938
 0.1632214 0.1634893 0.1637387 0.1639774 0.1642178 0.1644665 0.1647207 0.1649742 0.1652265 0.1654834
 0.1657509 0.1660259 0.1662973 0.1665556 0.1667999 0.1670365 0.1672741 0.1675196 0.1677752 0.1680361
 0.1682952 0.1685488 0.1687963 0.1690384 0.1692782 0.1695203 0.1697669 0.1700162 0.1702665 0.1705181
 0.1707712 0.1710242 0.1712754 0.1715257 0.1717781 0.1720335 0.1722864 0.1725288 0.1727579 0.1729792
 0.1732005 0.1734262 0.1736565 0.1738901 0.1741267 0.1743684 0.1746166 0.1748686 0.1751194 0.1753652
 0.1756051 0.1758396 0.1760704 0.1763011 0.1765356 0.1767754 0.1770196 0.1772653 0.1775088 0.1777478
 0.1779824 0.1782144 0.1784463 0.17868 0.1789158 0.1791528 0.1793915 0.1796319 0.1798721 0.1801097
 0.1803449 0.1805793 0.1808132 0.1810457 0.1812763 0.1815071 0.181742 0.1819821 0.1822218 0.1824531
 0.1826754 0.1828971 0.1831261 0.183364 0.1836066 0.1838468 0.1840798 0.1843068 0.1845346 0.1847688
 0.18501 0.1852533 0.185493 0.185728 0.1859625 0.1861992 0.1864358 0.1866711 0.1869086 0.1871506
 0.187396 0.1876437 0.1878937 0.1881439 0.1883915 0.1886352 0.1888758 0.1891168 0.1893636 0.1896182
 0.1898766 0.1901359 0.1903962 0.1906569 0.1909157 0.1911718 0.1914245 0.1916703 0.191908 0.192141
 0.1923714 0.1925971 0.1928173 0.1930352 0.193254 0.1934766 0.1937056 0.1939398 0.1941752 0.1944106
 0.1946473 0.1948867 0.1951307 0.19538 0.1956303 0.195878 0.1961267 0.1963813 0.1966406 0.1969003
 0.1971575 0.1974093 0.1976559 0.1979042 0.1981608 0.1984247 0.198692 0.1989605 0.1992268 0.1994885
 0.1997482 0.2000096 0.2002735 0.200541 0.2008129 0.2010849 0.2013529 0.2016194 0.2018868 0.2021529
 0.202419 0.2026895 0.2029617 0.2032291 0.2034912 0.2037506 0.2040094 0.2042733 0.2045488 0.2048325
 0.2051175 0.2054014 0.2056801 0.2059475 0.206208 0.2064732 0.2067461 0.2070228 0.2073013 0.207576
 0.2078374 0.2080879 0.2083367 0.208581 0.2088021 0.2089528 0.2089026 0.2083756 0.2069159 0.2038983
 0.1986488 0.1907083 0.1801044 0.1674344 0.1537067 0.1400287 0.1273032 0.116099 0.1067178 0.09931524
 0.09398445 0.09083096 0.09003169 0.09191807 0.09708603 0.1060407 0.1178984 0.1292728 0.1355472 0.1343708
 0.1277876 0.1203823 0.1155518 0.1138444 0.1141152 0.1152293 0.1167334 0.1187327 0.1215004 0.1250728
 0.1292081 0.1337824 0.1390184 0.1451444 0.1519514 0.1588688 0.1654409 0.1716199 0.1776004 0.1834695
 0.1890697 0.1941508 0.1985653 0.2023173 0.2055071 0.2082684 0.2107196 0.2129399 0.2149837 0.2168828
 0.2186061 0.2200434 0.2210708 0.2216499 0.221873 0.2219185 0.2219525 0.2220584 0.2222495 0.2225201
 0.2228664 0.2232786 0.2237427 0.2242467 0.2247758 0.2253134 0.2258498 0.2263782 0.2268887 0.2273765
 0.227846 0.2282993 0.2287316 0.2291411 0.2295312 0.2299049 0.2302662 0.230622 0.230977 0.2313316
 0.2316849 0.2320297 0.2323543 0.2326549 0.2329398 0.2332181 0.2334914 0.2337584 0.2340176 0.2342699
 0.2345217 0.234779 0.2350368 0.2352854 0.2355258 0.2357667 0.2360119 0.2362576 0.2364997 0.2367367
 0.2369699 0.2372031 0.237439 0.2376772 0.2379162 0.2381548 0.2383901 0.2386209 0.2388503 0.2390821
 0.2393195 0.2395678 0.239829 0.2400962 0.2403613 0.2406251 0.2408922 0.2411616 0.2414311 0.2417034
 0.2419815 0.2422649 0.2425508 0.2428327 0.2430991 0.2433417 0.2435635 0.2437762 0.2439936 0.2442257
 0.2444728 0.2447242 0.2449689 0.2452056 0.2454401 0.2456774 0.24592 0.2461672 0.2464174 0.2466733
 0.2469403 0.247218 0.2475003 0.2477853 0.2480762 0.2483714 0.2486647 0.2489534 0.2492381 0.2495166
 0.249787 0.2500559 0.2503405 0.2506568 0.2510037 0.2513587 0.2516955 0.252006 0.2523022 0.2526012
 0.2529151 0.2532414 0.2535532 0.2538182 0.2540431 0.2542836 0.2545938 0.2549727 0.2553736 0.2557531
 0.2561006 0.2564279 0.2567466 0.2570564 0.2573478 0.2576113 0.2578523 0.2581022 0.2584018 0.2587597
 0.2591395 0.259498 0.2598229 0.2601253 0.2604172 0.2607061 0.2609812 0.2612011 0.261336 0.2614391
 0.261635 0.262004 0.2624942 0.2629754 0.2633674 0.2636896 0.2639948 0.2643 0.264596 0.2648586
 0.2650165 0.2649868 0.2648233 0.2647709 0.2650663 0.2656981 0.2664346 0.267058 0.267508 0.2678376
 0.2681185 0.2683909 0.2686377 0.2687864 0.2687874 0.2687249 0.268803 0.2691602 0.2697124 0.2702441
 0.2706355 0.2709303 0.2712137 0.2715144 0.2717911 0.2719211 0.2717534 0.271318 0.2709646 0.2711358
 0.2719392 0.273021 0.2739177 0.2744675 0.274812 0.2750695 0.2751616 0.2749591 0.2744411 0.2737032
 0.2730009 0.2727879 0.2734173 0.2746874 0.2759277 0.2766728 0.2770619 0.2774947 0.2781133 0.2787428
 0.2791712 0.2793387 0.2793044 0.2791199 0.2788025 0.2784721 0.2784359 0.278971 0.2799984 0.2811018
 0.2819186 0.2824279 0.2827785 0.2828611 0.2822037 0.2805343 0.2785029 0.2775092 0.2784594 0.2808174
 0.2831858 0.2846842 0.2854298 0.2858847 0.2862522 0.2864198 0.2859513 0.2842305 0.2813014 0.2786024
 0.2780939 0.2803244 0.2838143 0.286491 0.2872694 0.2862682 0.2842858 0.2824373 0.2817583 0.2826372
 0.2846503 0.2869934 0.2889656 0.2901624 0.2904994 0.2901694 0.2895614 0.2891596 0.2892397 0.2894552
 0.2890525 0.2878493 0.286585 0.2857815 0.2847866 0.2828428 0.2807809 0.2805055 0.2826382 0.285617
 0.2875065 0.2879795 0.2879661 0.2877813 0.2863615 0.2826651 0.2775998 0.2739991 0.2741951 0.2776875
 0.2816392 0.2836668 0.2837268 0.2832993 0.2833101 0.2831526 0.2815892 0.2784989 0.2755648 0.2747717
 0.2761811 0.2778414 0.2779487 0.2761151 0.2724309 0.2670137 0.2614924 0.2593124 0.2626969 0.2698811
 0.2766708 0.2800602 0.2791754 0.2740285 0.2658243 0.2582599 0.255868 0.2598405 0.2666396 0.2714214
 0.2718541 0.2682291 0.2614957 0.2528452 0.2447254 0.2405329 0.2424511 0.2496938 0.2586516 0.26445
 0.2634369 0.2561121 0.2478578 0.2448865 0.2483974 0.2537856 0.2560588 0.2545353 0.2517952 0.2501642
 0.2504346 0.2523094 0.2547351 0.2567316 0.2581464 0.2582654 0.2544267 0.2449656 0.2335918 0.2274136
 0.229607 0.2368698 0.2448178 0.2523953 0.259395 0.2632937 0.2619426 0.2578154 0.2564166 0.2604027
 0.2670526 0.2717395 0.2726265 0.2714121 0.2702584 0.2692227 0.2673199 0.265291 0.2656471 0.269538
 0.2749484 0.2788838 0.280375 0.2804817 0.2802844 0.2799758 0.2794141 0.2785666 0.2774717 0.2762607
 0.2751499 0.2741996 0.2732668 0.2722837 0.2711887 0.2693188 0.2654632 0.2594398 0.2534379 0.2505066
 0.2513559 0.2539156 0.2563137 0.2582282 0.2583958 0.2535953 0.2428548 0.2312145 0.2262587 0.2307891
 0.2405956 0.2491823 0.2529002 0.2514016 0.2454465 0.2365467 0.2284999 0.2267282 0.2341006 0.2479329
 0.2624081 0.2735013 0.2805012 0.2837428 0.2830659 0.2789798 0.273954 0.2714323 0.2734694 0.2793891
 0.2863019 0.2904394 0.2887895 0.2815813 0.2739344 0.2727593 0.2799015 0.2896926 0.29521 0.2955285
 0.2946997 0.2953239 0.2963264 0.2965167 0.2970828 0.2995941 0.3034275 0.3062868 0.30626 0.3026239
 0.2958363 0.2880924 0.2829744 0.2826161 0.2853474 0.2876104 0.2876093 0.2853442 0.280375 0.2727938
 0.2660202 0.2649668 0.2704561 0.2779723 0.2828093 0.2844541 0.2851248 0.2857822 0.2849987 0.2813464
 0.2759303 0.27191 0.2714044 0.2734957 0.2757422 0.2768207 0.2767348 0.2752916 0.2721139 0.2682784
 0.2664585 0.2685503 0.2736424 0.2789 0.2821655 0.2832733 0.2832312 0.2829178 0.2826121 0.2821519
 0.2813628 0.2806614 0.2810854 0.2831918 0.2860893 0.288251 0.2892777 0.2902249 0.2921147 0.2946856
 0.2967966 0.2976941 0.2976753 0.2977105 0.298566 0.3001728 0.3016927 0.3022586 0.3018294 0.3013416
 0.3018683 0.3035985 0.3057655 0.307523 0.308651 0.3094365 0.3101953 0.3110021 0.311655 0.3118423
 0.3115541 0.3113366 0.3118903 0.3133463 0.3151152 0.3164845 0.3172027 0.3174529 0.3174579 0.3172643
 0.3168483 0.3162884 0.3157724 0.3154557 0.3153546 0.3153774 0.3154262 0.3154515 0.3154469 0.3154382
 0.3154708 0.3155742 0.3157411 0.3159474 0.3161715 0.3163823 0.3165414 0.3166446 0.3167319 0.3168274
 0.3168891 0.3168359 0.3166026 0.3161505 0.3154479 0.314465 0.3131787 0.3115579 0.3095691 0.3072738
 0.304989 0.3033202 0.3029122 0.3040411 0.3063964 0.3092544 0.3118882 0.3138829 0.3151796 0.3159238
 0.3162994 0.3164458 0.3164475 0.3163445 0.3161509 0.3158789 0.3155519 0.3151988 0.3148447 0.3145092
 0.3142039 0.3139277 0.3136641 0.3133851 0.31306 0.3126693 0.3122106 0.311691 0.3111127 0.3104641
 0.309722 0.3088654 0.3078984 0.306866 0.3058391 0.3048764 0.3039918 0.3031518 0.3023039 0.3013988
 0.3003795 0.2991771 0.2977773 0.2963061 0.2949924 0.2939862 0.2932279 0.2925201 0.2917004 0.2907193
 0.2895965 0.2883678 0.2870736 0.285751 0.2844139 0.2830458 0.2816132 0.2800854 0.27845 0.2767168
 0.2749059 0.2730324 0.2711098 0.2691535 0.267157 0.2650547 0.2627168 0.2599844 0.2567149 0.2528091
 0.2482345 0.2430521 0.2374256 0.2315858 0.2257675 0.2201652 0.2149326 0.2102016 0.2060914 0.2027016
 0.2001012 0.1983281 0.1973979 0.1973146 0.1980709 0.1996358 0.2019384 0.2048588 0.2082346 0.2118784
 0.2155919 0.2191856 0.222523 0.2255675 0.2283733 0.2310077 0.2334813 0.2357532 0.2377836 0.2395617
 0.2410939 0.2423859 0.2434468 0.2443019 0.2449955 0.2455775 0.2460848 0.2465302 0.2469064 0.2472001
 0.2474105 0.2475596 0.2476858 0.2478277 0.2480093 0.2482359 0.2485023 0.2488089 0.2491701 0.2496082
 0.2501382 0.250756 0.2514399 0.2521644 0.2529205 0.2537243 0.2546082 0.2556085 0.2567582 0.2580774
 0.25956 0.2611666 0.2628271 0.2644494 0.2659314 0.267182 0.2681428 0.2687977 0.2691676 0.2692939
 0.2692201 0.2689801 0.2685954 0.2680796 0.2674485 0.2667263 0.265941 0.2651106 0.2642342 0.2633017
 0.2623142 0.2612974 0.2602877 0.2593052 0.2583479 0.2574133 0.2565092 0.2556393 0.2547941 0.2539647
 0.2531534 0.2523698 0.2516252 0.2509272 0.2502688 0.2496216 0.2489428 0.248186 0.2473096 0.2462854
 0.2451028 0.2437648 0.2422831 0.2406739 0.238952 0.237128 0.2352101 0.2332047 0.2311141 0.2289394
 0.2266809 0.2243374 0.2219252 0.219505 0.2171693 0.214989 0.2129818 0.2111281 0.209397 0.2077603
 0.2062002 0.2047088 0.2032803 0.2019105 0.2006011 0.1993549 0.1981713 0.197054 0.1960143 0.1950656
 0.1942208 0.1934925 0.1928786 0.1923584 0.1919099 0.1915255 0.1912169 0.1910156 0.1909559 0.1910305
 0.1911718 0.1912904 0.1913275 0.1912749 0.1911691 0.1910661 0.191006 0.1909955 0.1910142 0.1910122
 0.1909039 0.1905864 0.1899678 0.1889776 0.1875801 0.1857989 0.1837203 0.1814749 0.1792232 0.1771298
 0.1753191 0.1738543 0.1727436 0.1719397 0.1713469 0.1708789 0.1705216 0.1703335 0.1703893 0.1706981
 0.171138 0.1715066 0.1716981 0.1718213 0.172103 0.1726949 0.173583 0.1746306 0.1756743 0.1766002
 0.1773609 0.1779435 0.1783587 0.1786447 0.1788342 0.17892 0.1788813 0.1787199 0.1784506 0.1780877
 0.1776477 0.1771315 0.176516 0.1757914 0.174975 0.1740752 0.1730819 0.1719903 0.1707813 0.1694192
 0.1679477 0.1665741 0.1656011 0.1652654 0.1656123 0.1664712 0.167576 0.1687448 0.1699066 0.1709729
 0.171832 0.1725367 0.1733896 0.1747412 0.1766924 0.1789918 0.1812095 0.1830101 0.1842576 0.1849236
 0.1850219 0.1846198 0.1837799 0.1824956 0.180776 0.1787337 0.1765116 0.1742291 0.1720324 0.1700618
 0.1683704 0.1669666 0.1658487 0.1650111 0.164519 0.1641069 0.1622166 0.1565418 0.1472986 0.1393456
 0.1385171 0.1453368 0.1542926 0.1597555 0.1607638 0.159682 0.1584755 0.1575637 0.1568645 0.1564455
 0.156367 0.1565348 0.1567349 0.1567368 0.1564436 0.1558792 0.1549247 0.1530738 0.149431 0.1430459
 0.1336175 0.1221218 0.1105912 0.1010406 0.09448023 0.09070517 0.08872835 0.0874679 0.08636969 0.08559529
 0.08565284 0.08687919 0.08925582 0.09256244 0.09653082 0.1008185 0.1049638 0.1085317 0.1113385 0.1134588
 0.1150133 0.1160405 0.116561 0.1166423 0.1163681 0.1158117 0.1150396 0.1140854 0.1129279 0.1115456
 0.110012 0.1085311 0.1073488 0.1065909 0.1061899 0.1059911 0.1058974 0.1058842 0.1059363 0.1060326
 0.1061644 0.1063348 0.1065569 0.1068528 0.1072205 0.1076071 0.1079367 0.1081582 0.1082632 0.1082643
 0.1081526 0.1078938 0.1075022 0.1070772 0.1066731 0.106152 0.1052897 0.1040664 0.1027858 0.1018799
 0.1016077 0.1019015 0.1024477 0.102919 0.1031727 0.1032639 0.1032991 0.103284 0.1031067 0.102664
</values></Ydata></ScRf><Data_Parameters_AB><parameter name="DPF">1</parameter><parameter name="NPT">3497</parameter><parameter name="FXV">3996</parameter><parameter name="LXV">500</parameter><parameter name="CSF">1</parameter><parameter name="MXY">0.0974471569061279</parameter><parameter name="MNY">-0.135678365826607</parameter><parameter name="DAT">17/01/2024</parameter><parameter name="TIM">13:20:03.908 (GMT+1)</parameter><parameter name="DXU">WN</parameter></Data_Parameters_AB><AB__Qtest><MainReport name="Quality Test Report"><Header><Line><Legend>Test result ok/not ok [1/0]: </Legend><Value>0</Value></Line><Line><Legend>Method file: </Legend><Value>C:\Users\Public\Documents\Bruker\OPUS_8.2.28\QT\IRBT_v3_default.QT</Value></Line></Header><Matrix><Line><Legend></Legend><Legend>min</Legend><Legend>max</Legend><Legend>measured</Legend></Line><Line><Value>Absorption (X-Range 1):</Value><Value>0.400000</Value><Value>2.000000</Value><Value>0.233126</Value></Line><Line><Value>Noise (X-Range 4):</Value><Value></Value><Value>0.000300</Value><Value>0.002452</Value></Line><Line><Value>Signal/Noise (X-Range 2):</Value><Value>200.000000</Value><Value></Value><Value>3.160795</Value></Line><Line><Value>Signal/Noise (X-Range 3):</Value><Value>40.000000</Value><Value></Value><Value>0.794198</Value></Line><Line><Value>Water vapour (X-Range 5):</Value><Value></Value><Value>0.000300</Value><Value>0.000011</Value></Line><Line><Value>Signal/Water (X-Range 2):</Value><Value>100.000000</Value><Value></Value><Value>703.810555</Value></Line><Line><Value>Signal/Water (X-Range 3):</Value><Value>20.000000</Value><Value></Value><Value>176.843173</Value></Line><Line><Value>Fringes (X-Range 6):</Value><Value></Value><Value>0.000100</Value><Value>0.001678</Value></Line></Matrix></MainReport></AB__Qtest><Data_Parameters_ScSm><parameter name="DPF">1</parameter><parameter name="NPT">1814</parameter><parameter name="FXV">3996.63438082617</parameter><parameter name="LXV">499.579297603271</parameter><parameter name="CSF">1</parameter><parameter name="MXY">0.390792310237885</parameter><parameter name="MNY">0.0823390483856201</parameter><parameter name="DAT">17/01/2024</parameter><parameter name="TIM">13:20:03.908 (GMT+1)</parameter><parameter name="DXU">WN</parameter></Data_Parameters_ScSm><Data_Parameters_ScRf><parameter name="DPF">1</parameter><parameter name="NPT">1820</parameter><parameter name="FXV">4004.34989121387</parameter><parameter name="LXV">495.721542409425</parameter><parameter name="CSF">1</parameter><parameter name="MXY">0.317457884550095</parameter><parameter name="MNY">0.0681088045239449</parameter><parameter name="DAT">17/01/2024</parameter><parameter name="TIM">13:19:38.048 (GMT+1)</parameter><parameter name="DXU">WN</parameter></Data_Parameters_ScRf><Optic_Parameters_Rf><parameter name="APR">0</parameter><parameter name="APT">Open</parameter><parameter name="BMS">KBr</parameter><parameter name="DTC">RT-DLaTGS_IR-Biotyper [Microplate reader]</parameter><parameter name="HPF">0</parameter><parameter name="LPF">10.0</parameter><parameter name="LPV">4000</parameter><parameter name="PGR">0</parameter><parameter name="RCH">Module port</parameter><parameter name="RDX">0</parameter><parameter name="SRC">MIR</parameter><parameter name="VEL">10.0</parameter><parameter name="SON">Off</parameter></Optic_Parameters_Rf><Acquisition_Parameters_Rf><parameter name="ADT">1</parameter><parameter name="AQM">DD</parameter><parameter name="CFE">0</parameter><parameter name="COR">0</parameter><parameter name="DEL">0</parameter><parameter name="DLY">0</parameter><parameter name="HFW">8000</parameter><parameter name="LFW">0</parameter><parameter name="NSR">32</parameter><parameter name="PLF">AB</parameter><parameter name="RES">6</parameter><parameter name="RGN">-1</parameter><parameter name="STR">0</parameter><parameter name="TCL">MakeCompatibleScalar (0, {WSV=1.000000, ARV=0});</parameter><parameter name="TDL">37</parameter><parameter name="RPO">0</parameter></Acquisition_Parameters_Rf><FT_-_Parameters_Rf><parameter name="APF">B3</parameter><parameter name="HFQ">500</parameter><parameter name="LFQ">4000</parameter><parameter name="NLI">0</parameter><parameter name="PHR">24</parameter><parameter name="PHZ">ML</parameter><parameter name="SPZ">NO</parameter><parameter name="ZFF">1</parameter></FT_-_Parameters_Rf><Optic_Parameters_><parameter name="APR">0</parameter><parameter name="APT">Open</parameter><parameter name="BMS">KBr</parameter><parameter name="CHN">Module port</parameter><parameter name="DTC">RT-DLaTGS_IR-Biotyper [Microplate reader]</parameter><parameter name="HPF">0</parameter><parameter name="LPF">10.0</parameter><parameter name="LPV">4000</parameter><parameter name="PGN">0</parameter><parameter name="RDX">0</parameter><parameter name="SRC">MIR</parameter><parameter name="VEL">10.0</parameter><parameter name="SON">Off</parameter></Optic_Parameters_><FT_-_Parameters_><parameter name="APF">B3</parameter><parameter name="HFQ">500</parameter><parameter name="LFQ">4000</parameter><parameter name="NLI">0</parameter><parameter name="PHR">24</parameter><parameter name="PHZ">ML</parameter><parameter name="SPZ">NO</parameter><parameter name="ZFF">1</parameter></FT_-_Parameters_><Acquisition_Parameters_><parameter name="ADT">1</parameter><parameter name="AQM">DD</parameter><parameter name="CFE">0</parameter><parameter name="COR">0</parameter><parameter name="DEL">0</parameter><parameter name="DLY">0</parameter><parameter name="HFW">8000</parameter><parameter name="LFW">0</parameter><parameter name="NSS">32</parameter><parameter name="PLF">AB</parameter><parameter name="RES">6</parameter><parameter name="SOT">0</parameter><parameter name="TCL">MakeCompatibleScalar (0, {WSV=1.000000, ARV=0});</parameter><parameter name="TDL">37</parameter><parameter name="SPO">0</parameter><parameter name="SGN">-1</parameter></Acquisition_Parameters_><Instrument_Parameters_Rf><parameter name="HFL">15801.365274</parameter><parameter name="LFL">0</parameter><parameter name="LWN">15801.365274</parameter><parameter name="ABP">32157</parameter><parameter name="SSP">1</parameter><parameter name="ARG">2</parameter><parameter name="ASG">2</parameter><parameter name="ASS">32</parameter><parameter name="GFW">16</parameter><parameter name="GBW">16</parameter><parameter name="BFW">0</parameter><parameter name="BBW">0</parameter><parameter name="PKA">9111</parameter><parameter name="PKL">4987</parameter><parameter name="PRA">9123</parameter><parameter name="PRL">5010</parameter><parameter name="P2A">1</parameter><parameter name="P2L">1</parameter><parameter name="P2R">1</parameter><parameter name="P2K">1</parameter><parameter name="DAQ">0</parameter><parameter name="AG2">1</parameter><parameter name="SSM">1</parameter><parameter name="RSN">46338</parameter><parameter name="CRR">0</parameter><parameter name="SRT">1705497578.048</parameter><parameter name="DUR">19.6449890136719</parameter><parameter name="TSC">30.9</parameter><parameter name="MVD">0.460205107927322</parameter><parameter name="AN1">0.22599738550955</parameter><parameter name="AN2">0</parameter><parameter name="VSN">2.485 Apr  4 2017</parameter><parameter name="SRN">0085</parameter><parameter name="CAM">0</parameter><parameter name="INS">IR-Biotyper</parameter><parameter name="FOC">69</parameter><parameter name="RDY">1</parameter><parameter name="ARS">32</parameter></Instrument_Parameters_Rf><Sample_Parameters_><parameter name="BLD"></parameter><parameter name="CNM">Admin</parameter><parameter name="CPY"></parameter><parameter name="DPM"></parameter><parameter name="EXP">IRBT_v3_32Scans.XPM</parameter><parameter name="LCT"></parameter><parameter name="SFM">Microplate, HTS-XT</parameter><parameter name="SNM">240117-1222-Cdiff_SCFA_1_C16_232117484_H7_49696b1b-6ed5-49dc-931a-3ce33c93ca88.0</parameter><parameter name="XPP">C:\Users\Public\Documents\Bruker\OPUS_8.2.28\XPM</parameter><parameter name="IST">OK</parameter><parameter name="CPG">1252</parameter><parameter name="UID">12e832bb-24e4-4084-8505-39c9f5203a91</parameter></Sample_Parameters_><Instrument_Parameters_><parameter name="HFL">15801.365274</parameter><parameter name="LFL">0</parameter><parameter name="LWN">15801.365274</parameter><parameter name="ABP">32157</parameter><parameter name="SSP">1</parameter><parameter name="ASG">2</parameter><parameter name="ARG">2</parameter><parameter name="ASS">32</parameter><parameter name="GFW">16</parameter><parameter name="GBW">16</parameter><parameter name="BFW">0</parameter><parameter name="BBW">0</parameter><parameter name="PKA">10893</parameter><parameter name="PKL">4979</parameter><parameter name="PRA">10924</parameter><parameter name="PRL">5002</parameter><parameter name="P2A">1</parameter><parameter name="P2L">1</parameter><parameter name="P2R">1</parameter><parameter name="P2K">1</parameter><parameter name="DAQ">0</parameter><parameter name="AG2">1</parameter><parameter name="SSM">1</parameter><parameter name="RSN">23862</parameter><parameter name="CRR">0</parameter><parameter name="SRT">1705497603.909</parameter><parameter name="DUR">19.6449890136719</parameter><parameter name="TSC">30.9</parameter><parameter name="MVD">0.328543812036514</parameter><parameter name="AN1">0.226000654629531</parameter><parameter name="AN2">0</parameter><parameter name="VSN">2.485 Apr  4 2017</parameter><parameter name="SRN">0085</parameter><parameter name="CAM">0</parameter><parameter name="INS">IR-Biotyper</parameter><parameter name="FOC">69</parameter><parameter name="RDY">1</parameter></Instrument_Parameters_><History/></OPUSDataFile>
