<?xml version="1.0" encoding="UTF-8" ?>
<OPUSDataFile><AB><Ydata ylabel="Absorbance Units"><values byteorder="INTEL" format="FLOAT32" numvalues="3497"> -0.08834242 -0.0883225 -0.08830726 -0.08829469 -0.08827824 -0.0882579 -0.08823057 -0.08819675 -0.08815598 -0.08810838
 -0.08805355 -0.08799262 -0.08792533 -0.0878556 -0.08778479 -0.08771739 -0.08765541 -0.08760036 -0.08755337 -0.08751208
 -0.08747642 -0.08744324 -0.08741225 -0.08738191 -0.08735215 -0.08732229 -0.08729233 -0.08726201 -0.08723143 -0.08720103
 -0.08717052 -0.08713952 -0.08710697 -0.08707022 -0.08702911 -0.0869813 -0.08692986 -0.0868766 -0.08682568 -0.08678174
 -0.0867433 -0.08671205 -0.08668113 -0.08664824 -0.08661007 -0.08656438 -0.08651642 -0.08646642 -0.08642094 -0.08638088
 -0.08634508 -0.08631346 -0.08627862 -0.0862404 -0.08619408 -0.08614071 -0.08608321 -0.0860232 -0.08596795 -0.08591733
 -0.08587551 -0.08583947 -0.08580666 -0.08577378 -0.0857356 -0.08569247 -0.08564198 -0.08558874 -0.08553419 -0.08548275
 -0.08543666 -0.08539648 -0.08536323 -0.08533358 -0.08530733 -0.08528052 -0.08525269 -0.08522235 -0.08518941 -0.08515558
 -0.0851209 -0.08508647 -0.08505198 -0.08501623 -0.08497899 -0.08493864 -0.08489573 -0.08485056 -0.08480412 -0.08475828
 -0.08471321 -0.08467009 -0.08462785 -0.08458625 -0.08454382 -0.08449958 -0.08445332 -0.08440448 -0.08435452 -0.08430348
 -0.08425363 -0.08420538 -0.0841597 -0.08411676 -0.0840764 -0.08403862 -0.08400335 -0.08397056 -0.08394014 -0.0839119
 -0.08388474 -0.08385818 -0.08382975 -0.08379941 -0.08376565 -0.08372909 -0.08369002 -0.08364912 -0.08360738 -0.08356472
 -0.08352147 -0.08347727 -0.08343177 -0.08338568 -0.08333896 -0.08329316 -0.08324888 -0.0832058 -0.08316428 -0.08312125
 -0.08307643 -0.0830273 -0.08297368 -0.0829178 -0.08286007 -0.08280669 -0.08275795 -0.08271936 -0.08268969 -0.08266831
 -0.08265175 -0.08263151 -0.08260489 -0.08256187 -0.08250654 -0.08243848 -0.08236548 -0.08229385 -0.082228 -0.08217268
 -0.08212725 -0.08209337 -0.08206575 -0.0820441 -0.08202046 -0.08199359 -0.08195753 -0.0819113 -0.08185541 -0.08178983
 -0.08172009 -0.08164656 -0.08157524 -0.0815064 -0.08144469 -0.08139031 -0.081347 -0.0813137 -0.0812905 -0.08127453
 -0.08126141 -0.0812481 -0.08122901 -0.08120365 -0.08116947 -0.08112799 -0.08107927 -0.08102513 -0.08096607 -0.0809042
 -0.08083963 -0.0807765 -0.08071524 -0.08066069 -0.08061351 -0.08057541 -0.08054658 -0.0805222 -0.08050167 -0.08047482
 -0.08044128 -0.08039299 -0.08033144 -0.08025738 -0.08017378 -0.08008833 -0.08000312 -0.07992568 -0.0798554 -0.0797952
 -0.07974179 -0.0796938 -0.07964727 -0.07959938 -0.07954835 -0.07949227 -0.07943312 -0.07937061 -0.07930889 -0.07924841
 -0.07919376 -0.07914554 -0.07910593 -0.07907517 -0.07904901 -0.07902683 -0.07899749 -0.07896075 -0.07890897 -0.07884421
 -0.07876997 -0.07868905 -0.07861079 -0.0785355 -0.07846846 -0.07840765 -0.07835254 -0.07830163 -0.07825337 -0.07820723
 -0.07816281 -0.07811882 -0.07807491 -0.07802908 -0.0779805 -0.07792907 -0.07787423 -0.0778192 -0.07776418 -0.07771282
 -0.0776654 -0.07762173 -0.07758162 -0.07754171 -0.07750198 -0.0774608 -0.07741835 -0.0773751 -0.07732988 -0.07727993
 -0.07722411 -0.07715773 -0.07708408 -0.07700451 -0.07692461 -0.07685064 -0.07678297 -0.0767251 -0.07667059 -0.07661785
 -0.07656097 -0.07649714 -0.07642763 -0.07635161 -0.07627547 -0.0761999 -0.07612894 -0.07606299 -0.07600061 -0.07594153
 -0.07588046 -0.07581718 -0.07574709 -0.07567126 -0.07559131 -0.07550909 -0.07543061 -0.0753563 -0.07529069 -0.07523081
 -0.07517581 -0.07511978 -0.07505714 -0.07498429 -0.0748955 -0.07479668 -0.07468729 -0.07457954 -0.07447725 -0.07438592
 -0.07430839 -0.07423861 -0.07417677 -0.07411128 -0.07404134 -0.07395874 -0.07386338 -0.07375446 -0.07363303 -0.07350626
 -0.07337555 -0.07325113 -0.07313243 -0.07302435 -0.07292271 -0.07282245 -0.07271879 -0.07260246 -0.07247364 -0.07232816
 -0.07217115 -0.0720043 -0.07183269 -0.07165917 -0.07148553 -0.07131298 -0.07114143 -0.07097114 -0.07080128 -0.07063203
 -0.07046039 -0.07028633 -0.07010263 -0.06990902 -0.06970022 -0.0694771 -0.06924404 -0.06900247 -0.06876151 -0.06852043
 -0.06828211 -0.06804471 -0.0678054 -0.0675646 -0.06732153 -0.0670773 -0.06683347 -0.06658817 -0.06634098 -0.06608935
 -0.06583168 -0.06556813 -0.06529885 -0.06502222 -0.06473833 -0.06444317 -0.06413572 -0.06381891 -0.06349266 -0.06316733
 -0.06284327 -0.06252535 -0.06221277 -0.06190098 -0.06158945 -0.06127312 -0.06095285 -0.06062847 -0.06030113 -0.05997357
 -0.05964487 -0.05931605 -0.05898267 -0.05864142 -0.05828745 -0.05791467 -0.05752756 -0.0571244 -0.0567188 -0.05631547
 -0.05591897 -0.05553282 -0.05514614 -0.05475812 -0.05435823 -0.05394513 -0.0535247 -0.05309753 -0.05267978 -0.05227126
 -0.05187806 -0.05149733 -0.05111906 -0.05074096 -0.05034981 -0.04994804 -0.04953328 -0.04911105 -0.04868883 -0.04826817
 -0.04785472 -0.04744375 -0.04703434 -0.04662058 -0.04619953 -0.04576759 -0.04532252 -0.04486513 -0.04439419 -0.04391747
 -0.04343539 -0.04295825 -0.04248714 -0.04202272 -0.0415648 -0.04110332 -0.04063832 -0.04016533 -0.0396864 -0.03920955
 -0.03873524 -0.03827025 -0.03781096 -0.03735328 -0.03689372 -0.03642484 -0.03594689 -0.03545652 -0.03495774 -0.03445129
 -0.03394383 -0.03343817 -0.03294054 -0.03245432 -0.0319789 -0.03151589 -0.03105638 -0.03059966 -0.03013645 -0.02966577
 -0.02918554 -0.02869576 -0.02820125 -0.02770239 -0.02720485 -0.02670818 -0.02621352 -0.02571962 -0.02522291 -0.02472338
 -0.02421852 -0.02371066 -0.02320228 -0.02269475 -0.0221911 -0.02168946 -0.0211895 -0.02068941 -0.02018769 -0.01968568
 -0.01918342 -0.01868259 -0.01818358 -0.01768711 -0.01719322 -0.01670315 -0.01621705 -0.01573552 -0.01525852 -0.01478249
 -0.014307 -0.01382629 -0.01334032 -0.01284574 -0.01234328 -0.01183315 -0.01131672 -0.0107967 -0.01027465 -0.00975411
 -0.009235811 -0.00872201 -0.008212239 -0.007706593 -0.007205396 -0.006708483 -0.006217476 -0.005733077 -0.005255477 -0.004785328
 -0.004319596 -0.003858307 -0.003395921 -0.002932047 -0.002461294 -0.001983411 -0.00149649 -0.001000819 -0.00049875 9.261325E-06
 0.0005196322 0.00103217 0.001544591 0.002056457 0.002565907 0.003072149 0.003572922 0.004068536 0.004558153 0.005043267
 0.005524312 0.006003754 0.006482464 0.00696388 0.007449288 0.007941164 0.008440933 0.00894596 0.009456307 0.0099673
 0.01047833 0.01098989 0.01150201 0.01201837 0.01253864 0.01306019 0.01358194 0.01409575 0.01460253 0.0151
 0.01559187 0.01608528 0.01658314 0.01709427 0.0176164 0.01815201 0.01869348 0.01923651 0.01977365 0.02029877
 0.02081244 0.02131173 0.0218069 0.02229938 0.02279963 0.02331013 0.02383122 0.02436363 0.02489888 0.02543652
 0.02596742 0.02649152 0.02700517 0.02750918 0.02800604 0.02849673 0.02898601 0.0294741 0.0299639 0.03045496
 0.03094796 0.03144202 0.03193695 0.03243042 0.03292098 0.03340581 0.03388239 0.03435191 0.03481333 0.03527232
 0.03573043 0.03618957 0.03665116 0.03710857 0.0375615 0.03800143 0.03842789 0.03883964 0.03923729 0.03962817
 0.04001314 0.0404014 0.04079254 0.04119056 0.0415932 0.04199733 0.04240052 0.04279717 0.04318679 0.04356656
 0.04393722 0.04429881 0.0446509 0.04499323 0.04532559 0.04564708 0.04596121 0.04626779 0.04657465 0.04688314
 0.04719793 0.04752027 0.04784356 0.04816751 0.04847779 0.04877438 0.04905301 0.04931628 0.04957832 0.04984065
 0.0501184 0.05040634 0.05070035 0.05099301 0.05126779 0.05152696 0.05176367 0.05199106 0.05221679 0.05245248
 0.05270806 0.05298387 0.05328383 0.05359893 0.05392794 0.05426203 0.0545988 0.05493881 0.05528115 0.05563751
 0.0560085 0.05640414 0.05682356 0.05725692 0.05770051 0.05812551 0.05853032 0.05889126 0.05921453 0.05950153
 0.05976332 0.06001974 0.0602768 0.06055085 0.06083914 0.06114451 0.0614641 0.06179561 0.0621425 0.06250631
 0.0628868 0.0632869 0.06369087 0.06409764 0.06448638 0.06485388 0.06519834 0.06551926 0.06583838 0.06615698
 0.06649905 0.0668633 0.06725453 0.06766799 0.06808858 0.06851203 0.06891873 0.06931042 0.06967869 0.07003339
 0.07038113 0.0707356 0.07111031 0.07151404 0.07195739 0.07243691 0.0729562 0.07349958 0.07406518 0.07463273
 0.0751982 0.0757501 0.07628581 0.07681086 0.07732528 0.07784496 0.07837047 0.078913 0.07947212 0.08005018
 0.0806475 0.08126692 0.08190876 0.08257864 0.08326821 0.08397116 0.08466407 0.08531823 0.08590953 0.08640265
 0.08680223 0.08709214 0.08731544 0.08748167 0.08763997 0.08780878 0.08800042 0.08822469 0.08844926 0.08867356
 0.08884913 0.08897281 0.08901235 0.08896771 0.08883846 0.08862834 0.08836316 0.0880464 0.08770731 0.08734357
 0.0869656 0.08656566 0.08613393 0.0856662 0.08515061 0.08459367 0.08399477 0.08336733 0.08272033 0.08205854
 0.08139009 0.0806985 0.07998352 0.07921721 0.07839306 0.07750181 0.07653905 0.07553097 0.07447848 0.07342484
 0.07237166 0.07134711 0.07034981 0.06938316 0.06844473 0.0675264 0.06662702 0.06573892 0.06486335 0.06399786
 0.06314716 0.06231603 0.06150906 0.06073376 0.0599868 0.05927043 0.05857318 0.05789038 0.05721577 0.05654453
 0.05588495 0.05523657 0.05461522 0.05402269 0.0534702 0.05295885 0.05248858 0.05205879 0.05165611 0.05127863
 0.05090511 0.0505351 0.05015384 0.04976521 0.04937137 0.04897818 0.04859827 0.04823371 0.04789323 0.04757437
 0.04727819 0.04700115 0.04674145 0.04649626 0.04626457 0.04604224 0.04582851 0.0456176 0.04540834 0.04519659
 0.04498146 0.04476308 0.0445413 0.04432009 0.04409969 0.0438846 0.04367481 0.04347238 0.04327662 0.04308593
 0.04289914 0.04271233 0.04252456 0.042332 0.04213479 0.04193133 0.04172266 0.04150914 0.04129171 0.04107096
 0.04084774 0.0406223 0.04039619 0.04017001 0.03994432 0.03971985 0.03949344 0.03926513 0.03902869 0.03878362
 0.03852677 0.03825818 0.037981 0.03769576 0.03740845 0.03711891 0.03682981 0.03654013 0.0362481 0.03595344
 0.03565394 0.03535204 0.03504969 0.03475032 0.03445857 0.03417429 0.03389987 0.03363046 0.03336491 0.03309783
 0.03282703 0.03255085 0.03226812 0.03198117 0.03168971 0.0313999 0.03111206 0.03083407 0.03056614 0.03030998
 0.0300642 0.02981748 0.02956788 0.02929925 0.02901329 0.02870477 0.0283806 0.02805145 0.02772447 0.02741545
 0.02712432 0.02685889 0.02660991 0.02637459 0.02614179 0.02590457 0.0256608 0.02540662 0.02515108 0.02489521
 0.02464755 0.02441018 0.02418061 0.02395909 0.0237365 0.02351261 0.02328641 0.02305943 0.02284517 0.02264566
 0.02247912 0.02234392 0.02224712 0.02218038 0.02213212 0.02209005 0.02203133 0.02194943 0.02182623 0.02167066
 0.0214797 0.02127505 0.02106548 0.02086855 0.02069361 0.02054056 0.02041222 0.02029762 0.02019534 0.02010016
 0.02001131 0.01993169 0.01986136 0.01980027 0.01974794 0.01969884 0.01965369 0.01961237 0.01957775 0.01955958
 0.01955804 0.01958034 0.01961992 0.01967139 0.01972604 0.01977227 0.01980716 0.01982382 0.01982669 0.01981585
 0.0197967 0.01977206 0.01974048 0.01970366 0.01965037 0.01957984 0.01947835 0.01934422 0.01917684 0.01897649
 0.01876442 0.0185426 0.01834011 0.01815601 0.01800253 0.01787325 0.01775491 0.01764032 0.01750626 0.01735252
 0.0171668 0.01695712 0.01672666 0.01648431 0.01623842 0.01599078 0.01574554 0.01549778 0.01524709 0.01498766
 0.01471794 0.01443524 0.01413852 0.01383006 0.01350951 0.01318694 0.01286293 0.01255151 0.01225242 0.011969
 0.0116983 0.01142618 0.01115063 0.01085556 0.01054545 0.01022101 0.009890174 0.00956693 0.009252171 0.008954332
 0.00866513 0.008381134 0.008095633 0.007802759 0.007505238 0.007202098 0.006899597 0.006599742 0.006302349 0.006008072
 0.005712249 0.005414234 0.005115265 0.004815463 0.004525767 0.00424687 0.003991114 0.003757249 0.003546073 0.003353254
 0.003164902 0.002977216 0.002773203 0.002555558 0.002318794 0.00207294 0.001825704 0.001588202 0.001371435 0.001180944
 0.001022832 0.0008972505 0.0008054757 0.0007468172 0.0007211932 0.0007287567 0.0007695582 0.00084342 0.0009503707 0.001089577
 0.001260997 0.001464228 0.001699337 0.001966925 0.00226728 0.002602173 0.002972148 0.003380261 0.003826288 0.004311986
 0.00483497 0.005392993 0.005981918 0.006596695 0.007233386 0.007887205 0.008556713 0.009239436 0.009937025 0.01064909
 0.01137935 0.01212906 0.01289857 0.01368938 0.01449146 0.01530503 0.01610778 0.01689849 0.01764954 0.0183595
 0.01900356 0.01958074 0.02007236 0.02047855 0.02078894 0.02100608 0.02112961 0.02116494 0.02111921 0.02100066
 0.02081833 0.02058693 0.02031626 0.02003109 0.01974428 0.01948261 0.01925897 0.01908754 0.01897566 0.01892099
 0.01892477 0.01897895 0.01908297 0.01923033 0.01942068 0.01964331 0.01989691 0.02016174 0.02043581 0.02069705
 0.02094432 0.02116177 0.02134919 0.02149801 0.0216091 0.02167931 0.02171188 0.02170835 0.02167456 0.02161519
 0.02153583 0.02144132 0.02133268 0.02121324 0.0210744 0.0209175 0.02071984 0.02047949 0.02016764 0.01978059
 0.01930612 0.01874306 0.01811317 0.01741918 0.01670593 0.01597584 0.01526737 0.01457904 0.01392597 0.01330504
 0.01271588 0.01215685 0.01162537 0.0111198 0.01063851 0.01017649 0.009729946 0.009292725 0.008859311 0.008430082
 0.008001815 0.007585332 0.007181339 0.006806117 0.006462174 0.006162828 0.005909881 0.005709607 0.005562537 0.005468674
 0.005427718 0.005435321 0.005490268 0.005583561 0.005712231 0.005862101 0.006026723 0.006185608 0.006327232 0.006424997
 0.006464189 0.006417384 0.006273641 0.006013203 0.005636772 0.005136292 0.004526741 0.003809063 0.003008279 0.002128667
 0.001200236 0.0002273227 -0.000760178 -0.001759014 -0.002745005 -0.003716424 -0.004658857 -0.005572025 -0.006450583 -0.007295507
 -0.008109448 -0.008895638 -0.009666512 -0.01042823 -0.01120293 -0.01199475 -0.01282432 -0.01368414 -0.01457809 -0.01548348
 -0.0163851 -0.01725726 -0.01807901 -0.01884176 -0.01953371 -0.02016862 -0.02074642 -0.02128754 -0.02179629 -0.02228118
 -0.02274429 -0.02318167 -0.02359321 -0.02397453 -0.0243258 -0.02465022 -0.02494879 -0.02523006 -0.02549501 -0.02575221
 -0.02600204 -0.02624987 -0.02649538 -0.02674046 -0.02698443 -0.02722713 -0.02746813 -0.02770676 -0.02794364 -0.02817852
 -0.02841364 -0.02864945 -0.02888932 -0.02913416 -0.02938671 -0.02964795 -0.02991727 -0.03019502 -0.03047701 -0.03076302
 -0.03104806 -0.03133206 -0.03161369 -0.03189346 -0.03217461 -0.03245744 -0.03274558 -0.03303747 -0.03333122 -0.03362393
 -0.0339089 -0.03418534 -0.03444823 -0.03470164 -0.03494659 -0.03518946 -0.0354347 -0.0356856 -0.03594546 -0.03621191
 -0.03648573 -0.03676037 -0.03703528 -0.03730212 -0.03755984 -0.03780274 -0.03803021 -0.03824329 -0.03844228 -0.0386341
 -0.0388192 -0.03900439 -0.03918955 -0.03937791 -0.03956907 -0.03976376 -0.03996144 -0.04016195 -0.04036342 -0.04056383
 -0.04076037 -0.04094971 -0.0411304 -0.04129989 -0.04146019 -0.04161087 -0.04175662 -0.04189859 -0.04204069 -0.04218403
 -0.04232975 -0.04247826 -0.04262831 -0.04277983 -0.04293161 -0.04308367 -0.04323682 -0.04339118 -0.04354828 -0.04370808
 -0.04387121 -0.04403756 -0.04420699 -0.04437958 -0.04455553 -0.04473459 -0.04491686 -0.04510088 -0.04528574 -0.045469
 -0.04564867 -0.04582385 -0.04599322 -0.04615835 -0.04631921 -0.04647835 -0.0466363 -0.04679465 -0.04695372 -0.04711368
 -0.04727454 -0.04743685 -0.04760069 -0.04776853 -0.04794057 -0.04811982 -0.04830595 -0.04849947 -0.04869885 -0.04890022
 -0.04910166 -0.04929715 -0.04948658 -0.04966674 -0.04983972 -0.05000615 -0.05016866 -0.05032932 -0.05048921 -0.05064939
 -0.05080988 -0.05097095 -0.0511321 -0.05129349 -0.05145333 -0.05161148 -0.05176555 -0.05191527 -0.05206086 -0.05220241
 -0.05234342 -0.05248399 -0.0526266 -0.05277066 -0.05291469 -0.05305802 -0.05319759 -0.05333382 -0.05346577 -0.05359488
 -0.05372281 -0.05385054 -0.0539799 -0.05411058 -0.05424328 -0.0543763 -0.05450899 -0.05464016 -0.05476899 -0.05489628
 -0.05502177 -0.05514823 -0.05527598 -0.0554072 -0.0555422 -0.05567994 -0.05582028 -0.05595909 -0.05609614 -0.05622728
 -0.05635277 -0.05647135 -0.05658399 -0.0566929 -0.05679902 -0.05690562 -0.0570126 -0.05712156 -0.05723111 -0.05734049
 -0.05744844 -0.05755344 -0.05765628 -0.05775651 -0.05785672 -0.05795756 -0.05806127 -0.05816867 -0.05827966 -0.05839456
 -0.05851115 -0.05862935 -0.05874624 -0.05886169 -0.05897344 -0.05908167 -0.05918694 -0.05928981 -0.05939343 -0.05949809
 -0.05960674 -0.05971839 -0.05983248 -0.05994786 -0.06006223 -0.06017603 -0.06028873 -0.06040148 -0.06051543 -0.06062967
 -0.0607444 -0.06085732 -0.06096735 -0.06107461 -0.06117831 -0.06128283 -0.06138861 -0.06149981 -0.06161703 -0.06173931
 -0.06186656 -0.06199332 -0.06211938 -0.06224026 -0.0623566 -0.0624692 -0.06257899 -0.06268954 -0.06280085 -0.06291484
 -0.06303061 -0.06314744 -0.06326509 -0.06338277 -0.06350134 -0.06362122 -0.06374288 -0.06386691 -0.06399264 -0.0641202
 -0.06424809 -0.06437606 -0.06450276 -0.0646279 -0.06475104 -0.06487204 -0.06499154 -0.06510957 -0.06522693 -0.06534357
 -0.06545914 -0.0655736 -0.06568652 -0.06579812 -0.06590889 -0.06601926 -0.06613047 -0.06624278 -0.0663572 -0.06647345
 -0.06659194 -0.06671126 -0.06683081 -0.06694847 -0.06706281 -0.06717342 -0.06727917 -0.06738332 -0.06748617 -0.06759172
 -0.06770089 -0.06781378 -0.06793072 -0.06804725 -0.06816314 -0.06827395 -0.06837978 -0.06848035 -0.06857622 -0.06867043
 -0.06876314 -0.06885666 -0.06895036 -0.06904368 -0.06913664 -0.06922848 -0.06932096 -0.06941583 -0.0695141 -0.06961809
 -0.06972475 -0.06983388 -0.06993987 -0.07004021 -0.07013337 -0.07021768 -0.07029787 -0.07037415 -0.0704525 -0.07053361
 -0.07061937 -0.07070992 -0.07080364 -0.07090048 -0.07099907 -0.0710996 -0.07120251 -0.07130788 -0.07141638 -0.07152769
 -0.07164147 -0.07175732 -0.07187421 -0.07199248 -0.07211196 -0.07223348 -0.07235757 -0.07248491 -0.07261621 -0.07275106
 -0.07288989 -0.07303035 -0.07317217 -0.07331236 -0.07345026 -0.07358506 -0.0737164 -0.07384705 -0.07397713 -0.07410932
 -0.07424347 -0.07437854 -0.07451411 -0.0746471 -0.07477775 -0.07490513 -0.0750301 -0.07515441 -0.0752785 -0.07540403
 -0.07553072 -0.07565897 -0.07578802 -0.07591742 -0.07604653 -0.07617474 -0.07630223 -0.0764287 -0.07655547 -0.07668284
 -0.07681156 -0.07694198 -0.07707307 -0.07720482 -0.0773352 -0.07746408 -0.07759023 -0.07771365 -0.07783403 -0.07795148
 -0.07806641 -0.07817908 -0.07829064 -0.07840141 -0.07851276 -0.07862476 -0.07873811 -0.07885289 -0.07896937 -0.07908792
 -0.07920898 -0.07933251 -0.07945895 -0.07958679 -0.07971579 -0.0798438 -0.07997017 -0.08009382 -0.08021434 -0.08033239
 -0.08044792 -0.08056234 -0.08067572 -0.08078908 -0.08090243 -0.08101609 -0.08113011 -0.08124518 -0.08136149 -0.08148021
 -0.08160125 -0.08172526 -0.0818513 -0.08197826 -0.08210483 -0.08222893 -0.08234996 -0.08246657 -0.08257935 -0.08268785
 -0.08279421 -0.08289884 -0.08300465 -0.08311248 -0.08322411 -0.08334029 -0.08345958 -0.08358203 -0.08370433 -0.08382626
 -0.08394647 -0.08406497 -0.08418239 -0.0842986 -0.08441313 -0.08452556 -0.08463375 -0.0847382 -0.08483869 -0.08493701
 -0.0850362 -0.08513761 -0.08524465 -0.08535622 -0.08547323 -0.08559217 -0.08571152 -0.08582781 -0.08593898 -0.08604459
 -0.08614349 -0.08623954 -0.08633301 -0.08642871 -0.08652738 -0.08662984 -0.08673622 -0.0868437 -0.08695215 -0.0870595
 -0.08716609 -0.08727353 -0.08738215 -0.08749419 -0.0876093 -0.08772769 -0.08784901 -0.08797248 -0.08809854 -0.08822718
 -0.08835948 -0.08849659 -0.08863858 -0.08878619 -0.08893797 -0.08909378 -0.08925124 -0.08940957 -0.08956767 -0.08972484
 -0.08988313 -0.09004255 -0.09020654 -0.0903754 -0.09054952 -0.09072861 -0.09090708 -0.09108422 -0.09125209 -0.09141051
 -0.09155432 -0.09168416 -0.09179944 -0.09189987 -0.09198514 -0.09205351 -0.09210243 -0.09213125 -0.09213612 -0.09212491
 -0.09209784 -0.09207365 -0.09205935 -0.09207093 -0.09211601 -0.09219437 -0.09230898 -0.09244522 -0.09260266 -0.0927598
 -0.09291516 -0.09305144 -0.09316847 -0.09326603 -0.09334598 -0.09342263 -0.09349643 -0.09357751 -0.09366362 -0.09375384
 -0.09384584 -0.09393443 -0.09401946 -0.09409794 -0.0941724 -0.09424387 -0.09431514 -0.09438918 -0.09446424 -0.09454118
 -0.09461439 -0.09468212 -0.09474188 -0.09479204 -0.09483758 -0.0948786 -0.09492255 -0.09497001 -0.09502444 -0.0950858
 -0.09515232 -0.09522356 -0.09529546 -0.09536768 -0.09543645 -0.09550223 -0.0955641 -0.0956234 -0.09568214 -0.09574163
 -0.09580473 -0.09587137 -0.0959428 -0.09601762 -0.09609556 -0.09617469 -0.09625412 -0.09633259 -0.09640944 -0.09648472
 -0.09655818 -0.09663102 -0.09670329 -0.09677642 -0.09685051 -0.09692664 -0.09700483 -0.09708508 -0.09716725 -0.09725025
 -0.097334 -0.0974174 -0.09750059 -0.09758338 -0.09766597 -0.09774885 -0.09783186 -0.09791512 -0.09799801 -0.0980799
 -0.0981606 -0.09823953 -0.09831752 -0.09839475 -0.09847213 -0.09855016 -0.09862835 -0.09870686 -0.09878391 -0.09885923
 -0.09893202 -0.09900214 -0.09907106 -0.09913889 -0.09920758 -0.09927711 -0.09934802 -0.09942023 -0.0994937 -0.09956842
 -0.09964438 -0.09972142 -0.09979932 -0.09987766 -0.09995565 -0.1000333 -0.1001103 -0.1001865 -0.100262 -0.1003354
 -0.1004061 -0.1004727 -0.1005343 -0.1005925 -0.1006475 -0.1007026 -0.1007584 -0.1008165 -0.1008771 -0.1009394
 -0.1010035 -0.1010695 -0.1011373 -0.1012074 -0.1012792 -0.1013511 -0.1014223 -0.1014894 -0.1015528 -0.1016108
 -0.1016651 -0.1017172 -0.101769 -0.1018232 -0.1018807 -0.1019432 -0.1020094 -0.1020798 -0.1021518 -0.1022248
 -0.1022965 -0.1023662 -0.1024333 -0.1024973 -0.10256 -0.1026214 -0.1026845 -0.1027495 -0.1028179 -0.1028896
 -0.1029624 -0.1030359 -0.1031064 -0.1031741 -0.1032369 -0.1032957 -0.1033513 -0.1034045 -0.103457 -0.1035092
 -0.1035621 -0.1036163 -0.1036721 -0.1037297 -0.1037897 -0.1038511 -0.103914 -0.1039767 -0.1040389 -0.1040991
 -0.1041568 -0.1042128 -0.1042669 -0.1043214 -0.1043764 -0.1044328 -0.1044905 -0.1045482 -0.104606 -0.1046628
 -0.1047193 -0.1047768 -0.1048355 -0.1048969 -0.10496 -0.1050244 -0.1050889 -0.1051516 -0.1052125 -0.1052706
 -0.1053265 -0.1053801 -0.1054318 -0.1054815 -0.1055294 -0.1055752 -0.1056188 -0.1056601 -0.1056997 -0.1057376
 -0.1057766 -0.1058168 -0.1058615 -0.1059109 -0.1059658 -0.1060256 -0.1060869 -0.1061492 -0.1062079 -0.1062633
 -0.1063137 -0.1063603 -0.1064041 -0.1064465 -0.1064891 -0.1065324 -0.1065772 -0.1066232 -0.1066702 -0.1067177
 -0.1067656 -0.106813 -0.10686 -0.1069055 -0.1069494 -0.1069918 -0.1070328 -0.1070739 -0.1071151 -0.1071572
 -0.1072 -0.107242 -0.1072832 -0.1073219 -0.1073586 -0.1073941 -0.1074288 -0.1074645 -0.1075004 -0.1075365
 -0.107571 -0.107602 -0.1076283 -0.1076482 -0.1076622 -0.10767 -0.1076732 -0.1076723 -0.1076681 -0.1076612
 -0.1076496 -0.1076337 -0.1076086 -0.107574 -0.1075237 -0.1074571 -0.1073675 -0.1072543 -0.1071116 -0.1069389
 -0.1067315 -0.1064883 -0.1062043 -0.105877 -0.1054992 -0.1050678 -0.1045747 -0.1040179 -0.103392 -0.1026963
 -0.1019285 -0.1010891 -0.1001773 -0.0991951 -0.09814203 -0.0970237 -0.09584025 -0.09460194 -0.09330925 -0.09197778
 -0.0906084 -0.08922161 -0.08781859 -0.08642074 -0.08502915 -0.08366239 -0.08232182 -0.08102372 -0.07977087 -0.07858058
 -0.07745748 -0.07641976 -0.0754733 -0.07463454 -0.07390995 -0.07331228 -0.07284737 -0.07252403 -0.07234426 -0.0723125
 -0.07242471 -0.07268155 -0.07307414 -0.07360115 -0.07425246 -0.07502683 -0.07591373 -0.07691245 -0.07801013 -0.07920605
 -0.08048247 -0.08183797 -0.08325023 -0.08471699 -0.08621389 -0.08773799 -0.08926664 -0.09079628 -0.09230807 -0.09379786
 -0.09525129 -0.09666401 -0.0980262 -0.09933358 -0.1005798 -0.1017622 -0.1028772 -0.1039257 -0.1049062 -0.1058231
 -0.1066769 -0.1074736 -0.1082143 -0.1089044 -0.1095447 -0.1101394 -0.1106886 -0.1111958 -0.111661 -0.1120883
 -0.1124779 -0.1128345 -0.1131588 -0.1134555 -0.1137258 -0.1139742 -0.1142024 -0.114415 -0.1146137 -0.1148027
 -0.114983 -0.1151572 -0.115325 -0.1154873 -0.1156432 -0.1157925 -0.1159349 -0.1160703 -0.1161985 -0.1163192
 -0.116433 -0.1165398 -0.1166416 -0.1167385 -0.1168336 -0.1169269 -0.117019 -0.1171093 -0.1171958 -0.1172783
 -0.1173555 -0.1174284 -0.1174991 -0.1175685 -0.1176395 -0.117711 -0.1177833 -0.1178547 -0.1179233 -0.1179888
 -0.1180501 -0.1181093 -0.1181667 -0.1182249 -0.1182849 -0.1183475 -0.1184134 -0.1184799 -0.1185471 -0.1186112
 -0.118672 -0.1187278 -0.1187788 -0.1188266 -0.1188715 -0.1189171 -0.1189634 -0.1190133 -0.1190666 -0.119124
 -0.1191847 -0.1192475 -0.1193115 -0.1193747 -0.1194374 -0.1194987 -0.1195597 -0.119621 -0.1196823 -0.1197439
 -0.1198048 -0.1198643 -0.119923 -0.1199806 -0.1200389 -0.1200983 -0.120159 -0.1202211 -0.1202822 -0.1203424
 -0.1203996 -0.1204541 -0.1205065 -0.1205573 -0.1206092 -0.1206624 -0.1207189 -0.1207782 -0.1208403 -0.1209038
 -0.120967 -0.1210284 -0.1210864 -0.12114 -0.1211879 -0.1212306 -0.1212676 -0.1213017 -0.1213333 -0.1213664
 -0.1214021 -0.1214407 -0.1214826 -0.1215241 -0.1215649 -0.1216023 -0.1216364 -0.121669 -0.1217001 -0.1217323
 -0.1217652 -0.1217986 -0.1218321 -0.1218646 -0.1218963 -0.1219271 -0.1219574 -0.1219876 -0.1220176 -0.1220477
 -0.1220775 -0.1221071 -0.1221358 -0.1221633 -0.1221885 -0.122211 -0.1222313 -0.1222493 -0.1222669 -0.1222846
 -0.1223036 -0.1223243 -0.1223463 -0.1223697 -0.1223926 -0.1224148 -0.1224346 -0.1224522 -0.1224676 -0.1224817
 -0.1224967 -0.1225127 -0.1225316 -0.1225518 -0.1225722 -0.1225907 -0.1226047 -0.1226135 -0.1226156 -0.1226123
 -0.1226035 -0.1225925 -0.1225799 -0.1225696 -0.1225627 -0.1225595 -0.1225605 -0.1225613 -0.1225617 -0.1225574
 -0.1225483 -0.1225363 -0.1225218 -0.1225111 -0.122504 -0.1225044 -0.1225103 -0.122519 -0.1225272 -0.1225272
 -0.1225182 -0.1224942 -0.1224597 -0.1224154 -0.1223681 -0.1223226 -0.122282 -0.1222494 -0.1222236 -0.1222052
 -0.1221907 -0.1221798 -0.1221662 -0.1221492 -0.1221228 -0.1220863 -0.1220406 -0.1219861 -0.1219299 -0.1218723
 -0.1218173 -0.1217639 -0.1217103 -0.1216562 -0.1216001 -0.1215429 -0.1214858 -0.121429 -0.1213736 -0.1213186
 -0.1212632 -0.1212062 -0.1211462 -0.1210826 -0.1210142 -0.1209434 -0.1208703 -0.1207989 -0.1207308 -0.1206658
 -0.1206049 -0.1205411 -0.1204742 -0.1203985 -0.1203141 -0.120224 -0.1201285 -0.1200339 -0.1199395 -0.1198463
 -0.1197528 -0.1196544 -0.1195508 -0.1194383 -0.1193189 -0.1191939 -0.1190664 -0.1189404 -0.1188154 -0.1186933
 -0.1185693 -0.1184415 -0.1183079 -0.1181663 -0.1180216 -0.1178741 -0.1177286 -0.1175864 -0.1174452 -0.117305
 -0.1171586 -0.1170054 -0.1168389 -0.1166593 -0.1164661 -0.1162608 -0.1160499 -0.1158339 -0.1156191 -0.1154032
 -0.1151844 -0.11496 -0.1147241 -0.1144775 -0.1142187 -0.1139503 -0.1136744 -0.1133902 -0.1130984 -0.1127956
 -0.1124809 -0.1121513 -0.111806 -0.1114417 -0.1110574 -0.1106529 -0.1102277 -0.1097898 -0.1093397 -0.1088837
 -0.1084213 -0.1079476 -0.1074624 -0.1069609 -0.1064447 -0.1059185 -0.1053798 -0.1048286 -0.1042545 -0.103641
 -0.1029828 -0.1022633 -0.1014975 -0.1006887 -0.09985667 -0.09901471 -0.09816275 -0.09730528 -0.09643068 -0.09553654
 -0.09461823 -0.09367497 -0.09270393 -0.09170589 -0.09065911 -0.08956224 -0.08837715 -0.08710437 -0.08573217 -0.08426913
 -0.08275597 -0.08119579 -0.07962696 -0.07803133 -0.07639132 -0.07468231 -0.07285855 -0.07090841 -0.06880549 -0.06653807
 -0.06410163 -0.06144913 -0.05856757 -0.05538031 -0.05185454 -0.04796132 -0.04367197 -0.0390754 -0.03416915 -0.02912244
 -0.02394767 -0.01879898 -0.01368431 -0.008689591 -0.003810206 0.0009668628 0.005663469 0.01040187 0.01520123 0.02021139
 0.02538683 0.03072509 0.03611467 0.04136575 0.04645133 0.05123656 0.05583684 0.060287 0.0647103 0.0691907
 0.07375136 0.07842548 0.08317556 0.08799592 0.09287273 0.09780471 0.1027739 0.1077815 0.1127635 0.1177163
 0.1225724 0.1273244 0.1318796 0.136211 0.1401262 0.1435917 0.1463919 0.1485147 0.1498324 0.1503356
 0.1499399 0.1486859 0.146533 0.1436868 0.1402616 0.1364968 0.1325592 0.1285299 0.1244685 0.1204152
 0.1163763 0.11245 0.1086574 0.1050241 0.1015636 0.09813841 0.09474151 0.09117983 0.08745189 0.08347934
 0.07928407 0.07495327 0.07050348 0.06604528 0.06156414 0.05707922 0.05257592 0.04802724 0.04345794 0.03887072
 0.03433309 0.02989312 0.02561259 0.02154427 0.01769127 0.01407201 0.01065033 0.007417234 0.004364535 0.001485342
 -0.001185919 -0.003646045 -0.005876978 -0.007877533 -0.009672258 -0.01126256 -0.01267402 -0.01390476 -0.01495513 -0.01582459
 -0.01650895 -0.01701455 -0.017353 -0.0175332 -0.01757366 -0.01748325 -0.01727679 -0.01696646 -0.0165646 -0.01608475
 -0.01553745 -0.01492973 -0.01426697 -0.01354957 -0.01277831 -0.01195388 -0.01107619 -0.01014771 -0.00916846 -0.008142616
 -0.007070379 -0.005962212 -0.004818474 -0.003648329 -0.002448819 -0.001207251 8.168787E-05 0.001448519 0.002886886 0.004401692
 0.005972466 0.007562769 0.00917006 0.01076964 0.01238767 0.01404071 0.01573747 0.01749625 0.01928452 0.02109016
 0.02290447 0.02470856 0.02658132 0.02852616 0.03066033 0.03300285 0.0355482 0.03829888 0.04104647 0.04377913
 0.04628215 0.04855964 0.05053804 0.05221928 0.05357698 0.05459559 0.05522174 0.0554457 0.05522294 0.05456146
 0.0534533 0.05190833 0.04992069 0.047536 0.0447475 0.04170488 0.0384515 0.03514698 0.03185374 0.02859481
 0.02538885 0.02218889 0.01898838 0.01579617 0.01261178 0.00949551 0.006449359 0.003511172 0.0006789348 -0.002043961
 -0.004657141 -0.007155557 -0.009540649 -0.01180537 -0.01397142 -0.01606307 -0.01812676 -0.02022481 -0.02240016 -0.02471679
 -0.0271727 -0.02979435 -0.03253249 -0.03537545 -0.03827834 -0.04122698 -0.04419712 -0.04719174 -0.0501309 -0.05301265
 -0.05569587 -0.05817046 -0.06039508 -0.06237499 -0.06420985 -0.06590842 -0.06758223 -0.06922486 -0.07087233 -0.07250871
 -0.07411014 -0.07566713 -0.07715281 -0.07856068 -0.07987684 -0.08108389 -0.08216608 -0.08309974 -0.08386648 -0.08445293
 -0.08484806 -0.08505262 -0.08506379 -0.08488941 -0.08452956 -0.08399636 -0.08329023 -0.08242903 -0.08141344 -0.08027571
 -0.07901979 -0.07771558 -0.07637378 -0.07510629 -0.07391893 -0.07290243 -0.07204023 -0.07134029 -0.07077124 -0.07028088
 -0.06984358 -0.06940468 -0.06895441 -0.06846482 -0.06793788 -0.06736235 -0.06676027 -0.06612629 -0.06552831 -0.06497794
 -0.06455687 -0.06428742 -0.06418257 -0.06425127 -0.06443847 -0.06474162 -0.06509801 -0.0655052 -0.06592251 -0.06635035
 -0.06677165 -0.0671892 -0.06760482 -0.06802197 -0.06845243 -0.06889442 -0.0693549 -0.06981831 -0.07027339 -0.07068957
 -0.07103956 -0.07128984 -0.07141405 -0.07138594 -0.07118836 -0.07080788 -0.07023344 -0.06947947 -0.06854203 -0.06746788
 -0.06626047 -0.06497038 -0.06360142 -0.06218396 -0.0607195 -0.05923034 -0.05771964 -0.05622239 -0.05474215 -0.05331483
 -0.0519383 -0.05062549 -0.04937172 -0.0481715 -0.04702835 -0.0459408 -0.04492412 -0.04398902 -0.04315555 -0.04243747
 -0.04185387 -0.04141476 -0.04113691 -0.0410274 -0.04109436 -0.04134191 -0.04176406 -0.04236171 -0.04311809 -0.04403251
 -0.04508039 -0.04626022 -0.04754227 -0.04892531 -0.0503861 -0.05192458 -0.05353013 -0.05519914 -0.05691984 -0.05867914
 -0.06044925 -0.0622119 -0.06393193 -0.0655952 -0.06717649 -0.06866848 -0.07005948 -0.07134674 -0.07252593 -0.0735986
 -0.07456332 -0.07542715 -0.07618995 -0.07686562 -0.0774551 -0.0779765 -0.07843149 -0.0788276 -0.07916425 -0.07941969
 -0.07958996 -0.07962996 -0.07953943 -0.0792882 -0.07888933 -0.07835988 -0.07772481 -0.07703752 -0.07632637 -0.07564905
 -0.07503309 -0.07452258 -0.07414042 -0.07391454 -0.07385502 -0.07397553 -0.07426869 -0.07473937 -0.0753586 -0.07612713
 -0.07698721 -0.07793609 -0.07888968 -0.07984247 -0.08070872 -0.08148466 -0.08211816 -0.08261172 -0.0829647 -0.08318416
 -0.0833029 -0.08332605 -0.0832862 -0.08318383 -0.08303495 -0.08283904 -0.08260091 -0.08232291 -0.08200812 -0.08166092
 -0.08128446 -0.08088388 -0.08046124 -0.0800238 -0.07957316 -0.07911901 -0.07866322 -0.07821457 -0.07777449 -0.07734828
 -0.07693655 -0.07654087 -0.0761612 -0.07579471 -0.07544085 -0.07509317 -0.0747513 -0.07440975 -0.0740695 -0.0737301
 -0.0733941 -0.07306577 -0.07274915 -0.07245102 -0.07217649 -0.07193214 -0.07172427 -0.07155788 -0.07144122 -0.07137815
 -0.07137867 -0.07144692 -0.07158846 -0.07180695 -0.0720944 -0.07245201 -0.07285649 -0.07330672 -0.07377284 -0.07425328
 -0.0747217 -0.07517735 -0.07560256 -0.07599776 -0.0763553 -0.07667661 -0.07696197 -0.07721283 -0.07743262 -0.07762171
 -0.0777826 -0.07791369 -0.07801504 -0.07808273 -0.07811494 -0.07810583 -0.07805283 -0.07794958 -0.07779394 -0.07757986
 -0.0773057 -0.07696746 -0.07656384 -0.07609654 -0.07556502 -0.07498129 -0.07434619 -0.07368323 -0.07299493 -0.07231459
 -0.07164671 -0.0710309 -0.07047283 -0.07001162 -0.0696503 -0.06941631 -0.06930488 -0.06932411 -0.06945844 -0.06969824
 -0.07001986 -0.07040542 -0.07083248 -0.07128569 -0.07175197 -0.07222319 -0.07269599 -0.07316816 -0.07363956 -0.07411011
 -0.07457823 -0.07504395 -0.07550324 -0.07595586 -0.07639677 -0.07682578 -0.0772391 -0.07763702 -0.07801908 -0.0783859
 -0.07873922 -0.0790796 -0.0794091 -0.07972827 -0.08003853 -0.08034101 -0.08063758 -0.08092837 -0.08121463 -0.08149418
 -0.08176693 -0.08202847 -0.08227757 -0.08250973 -0.08272365 -0.08291686 -0.08308859 -0.08323945 -0.08336934 -0.08348035
 -0.08357256 -0.0836466 -0.08370232 -0.08373798 -0.08375335 -0.0837462 -0.08371646 -0.0836627 -0.08358498 -0.08348257
 -0.08335602 -0.08320556 -0.0830325 -0.08283835 -0.08262412 -0.0823914 -0.08213948 -0.0818691 -0.0815767 -0.08126218
 -0.08091842 -0.08054471 -0.0801304 -0.07967392 -0.07916644 -0.07860649 -0.07799601 -0.07733507 -0.07664067 -0.07591458
 -0.07518374 -0.07445002 -0.07373878 -0.07304917 -0.07239371 -0.07176615 -0.0711605 -0.07056547 -0.0699617 -0.06933706
 -0.06867053 -0.06795527 -0.06717817 -0.06634088 -0.06543923 -0.06448252 -0.06347155 -0.06242077 -0.0613325 -0.06022378
 -0.05909674 -0.05796907 -0.05684239 -0.05573229 -0.05463971 -0.05357491 -0.05253782 -0.05153043 -0.05055116 -0.04959239
 -0.04865123 -0.04771372 -0.04677694 -0.04582717 -0.04486259 -0.04387436 -0.04286131 -0.0418189 -0.04074641 -0.03964101
 -0.03850531 -0.03733835 -0.03614862 -0.03493792 -0.03371743 -0.03249064 -0.03126251 -0.03003522 -0.02880382 -0.02756818
 -0.0263213 -0.0250627 -0.02379597 -0.0225226 -0.02126356 -0.02002255 -0.01883253 -0.01769738 -0.01664897 -0.01568883
 -0.01483708 -0.01409205 -0.01346024 -0.01293853 -0.01252594 -0.0122193 -0.01201607 -0.01191305 -0.01190847 -0.01199794
 -0.01218075 -0.0124484 -0.01280063 -0.0132208 -0.01370798 -0.01423683 -0.01480544 -0.01538625 -0.0159775 -0.01656029
 -0.01713444 -0.01769466 -0.01824225 -0.01878235 -0.01931723 -0.01985719 -0.02040568 -0.02097529 -0.02157098 -0.02220605
 -0.02288601 -0.02362222 -0.02441902 -0.02528398 -0.02621805 -0.02722518 -0.02829979 -0.02944324 -0.03063952 -0.03188742
 -0.03316103 -0.03445711 -0.03574828 -0.03703123 -0.03828872 -0.03951936 -0.04072037 -0.04189201 -0.04303916 -0.04416172
 -0.04526186 -0.04633801 -0.04738566 -0.04840242 -0.04938034 -0.050317 -0.05120549 -0.0520419 -0.05281992 -0.05353344
 -0.05417542 -0.05474151 -0.05522558 -0.05563203 -0.05595858 -0.05622058 -0.05641958 -0.05657774 -0.05669766 -0.05680475
 -0.05690125 -0.05701367 -0.05714376 -0.05731296 -0.05752165 -0.05777676 -0.05807655 -0.05841232 -0.05878234 -0.05917422
 -0.05958923 -0.06002367 -0.06048129 -0.06096775 -0.06148411 -0.0620361 -0.06261728 -0.06322602 -0.06385031 -0.06448291
 -0.06511459 -0.06573912 -0.06635527 -0.06696141 -0.06755903 -0.06814896 -0.06872696 -0.06929313 -0.06983829 -0.07036179
 -0.07085828 -0.07132788 -0.07177354 -0.07219624 -0.07260446 -0.07299895 -0.0733876 -0.07376985 -0.07414886 -0.07452226
 -0.07488755 -0.0752419 -0.07558051 -0.07590207 -0.07620338 -0.0764853 -0.07674705 -0.07699116 -0.07721821 -0.07743121
 -0.07763106 -0.07781981 -0.077998 -0.07816637 -0.07832495 -0.07847537 -0.07861766 -0.07875634 -0.07889163 -0.07902824
 -0.07916583 -0.07930467 -0.07944334 -0.07957648 -0.07970189 -0.07981124 -0.07990208 -0.07996637 -0.08000164 -0.08000209
 -0.07996465 -0.0798856 -0.0797599 -0.0795847 -0.07935219 -0.07905938 -0.07869726 -0.0782629 -0.07774937 -0.07715415
 -0.07647792 -0.07571894 -0.07489335 -0.07400128 -0.07308051 -0.0721338 -0.07121629 -0.07033187 -0.06953672 -0.06883231
 -0.06825653 -0.06780559 -0.06749039 -0.06730156 -0.06722844 -0.06725793 -0.06737074 -0.0675505 -0.06777844 -0.06803504
 -0.06830437 -0.06856891 -0.06881661 -0.06904095 -0.06923591 -0.0694085 -0.06955829 -0.06969744 -0.0698275 -0.06995568
 -0.07008273 -0.0702104 -0.07033875 -0.07046821 -0.07059866 -0.07072956 -0.07086044 -0.07098878 -0.07111453 -0.07123583
 -0.07135386 -0.07147025 -0.07158559 -0.07170217 -0.07181767 -0.07193124 -0.07203897 -0.07213783 -0.07222608 -0.07230219
 -0.07236584 -0.07241718 -0.0724535 -0.07247466 -0.07247619 -0.07245745 -0.07241631 -0.07235253 -0.07226656 -0.0721584
 -0.07202719 -0.07187287 -0.07169416 -0.07149157 -0.07126652 -0.07102033 -0.07075742 -0.07047918 -0.07019036 -0.06989188
 -0.06958683 -0.06927601 -0.06896091 -0.06864311 -0.06832368 -0.06800496 -0.06768828 -0.06737494 -0.06706586 -0.06676042
 -0.06645831 -0.06616081 -0.06586755 -0.06558456 -0.06531223 -0.06505574 -0.06481516 -0.06458795 -0.06437334 -0.06416332
 -0.06395716 -0.06374752 -0.0635336 -0.06330964 -0.06307431 -0.06282216 -0.0625523 -0.06226113 -0.06194858 -0.06161359
 -0.06125545 -0.06087352 -0.06046677 -0.06003393 -0.05957688 -0.05909494 -0.05859457 -0.0580762 -0.05754939 -0.05701506
 -0.05648319 -0.05595445 -0.05543948 -0.05493888 -0.05446445 -0.05401693 -0.05360822 -0.05323831 -0.05291427 -0.05263382
 -0.05239478 -0.05219236 -0.0520164 -0.05186112 -0.05171382 -0.05157091 -0.05142264 -0.05127264 -0.05111763 -0.05097149
 -0.05083818 -0.05073526 -0.05067009 -0.05064984 -0.05067958 -0.05074845 -0.0508573 -0.05098196 -0.05112105 -0.05124709
 -0.05135867 -0.05143367 -0.05147206 -0.05146449 -0.05141279 -0.05132081 -0.05119098 -0.05103262 -0.05084778 -0.05064462
 -0.05042593 -0.05019861 -0.04996623 -0.04973504 -0.04950677 -0.04928512 -0.04906848 -0.04885738 -0.04864855 -0.0484412
 -0.04823216 -0.04802072 -0.04780415 -0.04758201 -0.04735231 -0.04711485 -0.04686788 -0.04661131 -0.0463445 -0.04606755
 -0.04578108 -0.04548527 -0.0451816 -0.04486977 -0.04454982 -0.04422076 -0.04388034 -0.04352801 -0.04316116 -0.04278195
 -0.04239037 -0.04199254 -0.04159212 -0.04119617 -0.04080961 -0.04043486 -0.04007456 -0.03972561 -0.0393879 -0.03905791
 -0.03873509 -0.03841755 -0.03810515 -0.03779564 -0.0374889 -0.0371824 -0.03687618 -0.03656993 -0.03626367 -0.0359579
 -0.03565158 -0.03534183 -0.03502697 -0.03470164 -0.03436523 -0.03401391 -0.03364926 -0.03327087 -0.0328824 -0.03248586
 -0.03208582 -0.03168502 -0.03128667 -0.03089206 -0.03050454 -0.03012387 -0.02975914 -0.02941064 -0.02909371 -0.02880972
 -0.02857053 -0.02837678 -0.02822661 -0.02811867 -0.02803679 -0.02797825 -0.02791978 -0.02785915 -0.027776 -0.02767055
 -0.027533 -0.02736532 -0.02716666 -0.02693801 -0.02668056 -0.02639371 -0.0260769 -0.0257312 -0.02535611 -0.02495603
 -0.02453168 -0.02408946 -0.02363071 -0.02316148 -0.02268314 -0.02219736 -0.02170472 -0.02120142 -0.02068726 -0.02015944
 -0.0196182 -0.01906596 -0.01850316 -0.01793365 -0.01735746 -0.01677553 -0.01619004 -0.01560438 -0.015026 -0.0144663
 -0.01393695 -0.0134544 -0.01302969 -0.0126775 -0.0124008 -0.01220842 -0.012087 -0.01203808 -0.01203054 -0.01205969
 -0.01208896 -0.01211205 -0.0121042 -0.01206182 -0.01197797 -0.01185206 -0.01168799 -0.01148627 -0.01125425 -0.01099279
 -0.01071034 -0.01040821 -0.01009529 -0.009773182 -0.009449728 -0.00912676 -0.008810417 -0.008502707 -0.008208859 -0.007928132
 -0.007664104 -0.007407196 -0.007156025 -0.006892266 -0.006607882 -0.006294228 -0.005941581 -0.005580428 -0.005211278 -0.004883171
 -0.00460302 -0.004377187 -0.004206594 -0.004070313 -0.003967808 -0.003888556 -0.003832691 -0.003797166 -0.00377965 -0.003769815
 -0.003765099 -0.003752537 -0.003734613 -0.003709125 -0.003680666 -0.003655577 -0.003631722 -0.003611795 -0.00358546 -0.003547743
 -0.003490926 -0.003409249 -0.003306109 -0.003180168 -0.003041463 -0.002891402 -0.002737513 -0.002580612 -0.002426161 -0.002274412
 -0.002137786 -0.002017497 -0.001934357 -0.001889577 -0.001902459 -0.001971298 -0.002101843 -0.00228743 -0.002516611 -0.002778095
 -0.003048774 -0.003316603 -0.003557914 -0.003766107 -0.003926639 -0.004041617 -0.004106086 -0.004131853 -0.004119722 -0.004090539
 -0.004049513 -0.004013356 -0.003987815 -0.003967474 -0.003953768 -0.003923008 -0.003873758 -0.003790309 -0.00367283 -0.003524701
 -0.003346893 -0.003147375 -0.002926663 -0.002689681 -0.002439127 -0.002183887 -0.001927497 -0.001681299 -0.001444446 -0.001221223
 -0.001007405 -0.0007995637 -0.0005985493 -0.0004022209 -0.0002181414 -4.949583E-05 0.0001009497 0.0002296707 0.0003473971 0.0004548218
 0.0005655032 0.0006817677 0.0008035841 0.000931273 0.001054605 0.001173477 0.001285962 0.001393373 0.001505341 0.001621184
 0.001744572 0.001870974 0.001989651 0.002098412 0.002185667 0.002258377 0.002318707 0.002378921 0.00245088 0.002541435
 0.002659921 0.002802036 0.002969418 0.003152083 0.003347507 0.003549067 0.003754952 0.003963158 0.004173497 0.004382435
 0.004589817 0.004789183 0.004980334 0.005159949 0.005328434 0.005487667 0.005637477 0.005778106 0.005909064 0.006028043
 0.006137362 0.006239839 0.006338669 0.006441256 0.006543091 0.006645593 0.006735035 0.006803961 0.006840838 0.006837618
 0.00679429 0.006708465 0.006586321 0.00642882 0.006239359 0.006018459 0.005767485 0.005486348 0.005182797 0.004857592
 0.00452677 0.004191085 0.003864672 0.003545872 0.003235778 0.002930844 0.002621511 0.002306056 0.001975382 0.001632923
 0.001277268 0.0009185182 0.0005632605 0.0002258529 -8.28335E-05 -0.0003539171 -0.000578678 -0.0007630545 -0.0009054405 -0.001020266
 -0.001110399 -0.001183501 -0.001241243 -0.001282977 -0.001308587 -0.001323531 -0.001327893</values></Ydata></AB><ScSm><Ydata ylabel="Single channel"><values byteorder="INTEL" format="FLOAT32" numvalues="1814"> 0.08600537 0.08610547 0.08622199 0.08635886 0.08650851 0.08665602 0.08678784 0.08690105 0.08700197 0.0870935
 0.08717424 0.08725449 0.08735819 0.08749862 0.08766003 0.08780912 0.08792165 0.08800291 0.08808689 0.08820466
 0.08834312 0.08844337 0.08845255 0.08837985 0.08829498 0.08826689 0.08831634 0.08844581 0.08868066 0.08900707
 0.08928233 0.08932587 0.08914384 0.08896075 0.08897047 0.08914259 0.0893148 0.0893733 0.08929709 0.0891441
 0.08907597 0.08930614 0.0899046 0.09064094 0.09105743 0.09073345 0.08956522 0.08791559 0.08652643 0.08613168
 0.08692881 0.08835895 0.08952439 0.08991147 0.08966871 0.08922501 0.08884233 0.088608 0.08863238 0.08902926
 0.08972996 0.09040952 0.09061508 0.09006472 0.08896679 0.08797909 0.08767205 0.08808751 0.08894143 0.08996563
 0.09065489 0.09001575 0.08744918 0.0840814 0.08240677 0.08398174 0.08779614 0.09132312 0.09281793 0.09223793
 0.09050903 0.08871137 0.0877936 0.08824785 0.08978882 0.09163736 0.09313904 0.09393604 0.09380002 0.09274045
 0.09122291 0.08997183 0.08956597 0.09026997 0.09192728 0.09379832 0.09485715 0.09460044 0.09342442 0.0921134
 0.09126287 0.09125314 0.09228156 0.094127 0.09616986 0.09784869 0.09895119 0.09949285 0.09958147 0.09939443
 0.09909171 0.09879327 0.0986951 0.0989653 0.09940741 0.09950781 0.09900743 0.09825476 0.09785439 0.0980462
 0.09850217 0.09872146 0.09852545 0.09796438 0.096811 0.09467197 0.09179981 0.08921877 0.08772543 0.08733094
 0.08791126 0.08954397 0.09172171 0.09311573 0.0929141 0.09191943 0.09168284 0.09282774 0.0946589 0.09617078
 0.09702224 0.0975914 0.09838552 0.09946948 0.1003224 0.100225 0.09899573 0.09744754 0.09684785 0.09769349
 0.09922651 0.1003632 0.1008308 0.101135 0.1016643 0.1021244 0.1017982 0.1003196 0.09831212 0.09716319
 0.09787816 0.1000859 0.1022374 0.1027754 0.1012392 0.09851217 0.09608443 0.0949821 0.0953685 0.09697503
 0.09947283 0.1023116 0.1046272 0.1056802 0.1053684 0.1042066 0.102764 0.1011354 0.09914431 0.09716877
 0.09635642 0.09755209 0.1002128 0.1028401 0.1043626 0.1047288 0.1042995 0.103125 0.1010406 0.09840783
 0.09644461 0.09632236 0.09783173 0.09943707 0.09990802 0.09946951 0.09910181 0.0992047 0.09938106 0.09925291
 0.09902429 0.09918807 0.09989418 0.1007561 0.1012592 0.1012353 0.1008991 0.1005438 0.1002647 0.09990722
 0.09930727 0.09865791 0.09849484 0.09913158 0.1002364 0.1011653 0.1015974 0.101661 0.1015437 0.1011796
 0.1003697 0.09917703 0.09811631 0.09778868 0.09829731 0.09916937 0.09985754 0.1001456 0.1000947 0.09984045
 0.09950353 0.09915427 0.09882328 0.09858133 0.09853247 0.09867132 0.09884045 0.09888682 0.0987863 0.09858482
 0.09829979 0.09792612 0.09750154 0.09712452 0.09689227 0.0968221 0.09684945 0.0968954 0.09690212 0.09681685
 0.09660703 0.09630397 0.09598526 0.09570366 0.09546441 0.09526604 0.09512251 0.0950352 0.09497004 0.09487967
 0.09474139 0.09456199 0.09435281 0.09411766 0.0938665 0.09362352 0.09341586 0.09325726 0.0931364 0.09302253
 0.09289847 0.09278164 0.09268712 0.09258264 0.0924169 0.09218712 0.09194444 0.09173681 0.09157315 0.09143569
 0.09130031 0.09114167 0.09093625 0.09067985 0.09040953 0.09019288 0.09007674 0.09005287 0.09008139 0.09012449
 0.09014629 0.09011483 0.09002992 0.08992592 0.08983056 0.08973889 0.08963552 0.08952588 0.08943905 0.08940475
 0.08942382 0.08946244 0.08948162 0.08946647 0.0894243 0.08937426 0.08934375 0.08934742 0.08935967 0.08933532
 0.08926709 0.08919831 0.08916988 0.08917374 0.08916748 0.08912278 0.08905135 0.08898627 0.08894432 0.0889134
 0.0888734 0.08881921 0.08876055 0.08870504 0.08864328 0.08855231 0.08842045 0.08826717 0.0881265 0.08801255
 0.087914 0.08781911 0.08772986 0.08764955 0.08756943 0.08747391 0.08735562 0.08722199 0.08708423 0.08694135
 0.08678202 0.08660252 0.08641374 0.08622765 0.08604436 0.08585414 0.08564728 0.08542065 0.08517871 0.08492837
 0.08467316 0.08441174 0.08414097 0.08386125 0.08358273 0.08332437 0.08309853 0.08289559 0.08269072 0.08246863
 0.08223828 0.08202375 0.08184442 0.08170375 0.08159412 0.08150961 0.08145184 0.08142519 0.08143145 0.08147132
 0.08154579 0.08165354 0.08179224 0.08196476 0.08217825 0.08243182 0.08270927 0.08298984 0.08326522 0.08354089
 0.08382354 0.084113 0.08440577 0.08469987 0.08499521 0.08529186 0.08558676 0.0858705 0.08613238 0.08637185
 0.08660034 0.08683026 0.08706769 0.08731424 0.08756483 0.08780241 0.0880086 0.08818503 0.0883548 0.08853779
 0.08873256 0.0889273 0.08911923 0.08931649 0.08952664 0.08975084 0.08998813 0.09023941 0.090506 0.09078529
 0.09106901 0.09134749 0.09161834 0.091892 0.0921862 0.09251219 0.09286462 0.09322543 0.09357853 0.09392181
 0.09426498 0.09461679 0.09497813 0.09534881 0.09573502 0.09614341 0.09656921 0.09699705 0.0974153 0.09782544
 0.09823658 0.09865466 0.0990793 0.09950952 0.09994931 0.1004041 0.1008692 0.1013264 0.1017574 0.1021618
 0.1025569 0.1029619 0.1033847 0.1038198 0.1042495 0.1046538 0.1050291 0.1053963 0.105778 0.1061728
 0.1065605 0.1069327 0.1073036 0.1076872 0.1080731 0.1084345 0.1087565 0.1090528 0.1093502 0.1096592
 0.1099633 0.1102403 0.110487 0.1107192 0.1109523 0.111189 0.1114284 0.1116748 0.1119299 0.1121828
 0.1124171 0.112629 0.1128294 0.113028 0.1132244 0.1134141 0.1135986 0.113785 0.1139793 0.1141802
 0.1143794 0.1145745 0.1147796 0.1150168 0.1152935 0.115599 0.115924 0.1162741 0.1166545 0.1170532
 0.1174526 0.1178534 0.1182721 0.1187108 0.1191439 0.1195442 0.1199112 0.1202632 0.1206129 0.1209659
 0.1213354 0.1217389 0.1221797 0.1226427 0.1231059 0.1235528 0.1239789 0.1243952 0.1248164 0.1252391
 0.1256379 0.1259905 0.1263002 0.1265913 0.1268852 0.1271845 0.1274732 0.1277302 0.12794 0.1280909
 0.1281658 0.1281474 0.1280365 0.1278554 0.1276233 0.1273318 0.1269524 0.1264623 0.125855 0.1251264
 0.124266 0.1232742 0.1221878 0.1210894 0.1200893 0.1192958 0.11879 0.1186142 0.1187697 0.1192164
 0.1198724 0.1206221 0.1213366 0.1218976 0.1222143 0.1222329 0.1219452 0.1213912 0.1206447 0.1197885
 0.1188953 0.1180182 0.1171944 0.1164622 0.1158888 0.1155796 0.1156514 0.1161901 0.1172215 0.1187004
 0.1205042 0.1224478 0.1243384 0.1260478 0.1275443 0.1288617 0.1300479 0.1311404 0.1321679 0.1331515
 0.1340991 0.135004 0.1358529 0.1366303 0.1373174 0.137893 0.138338 0.1386413 0.1388072 0.1388636
 0.1388627 0.1388689 0.1389433 0.1391329 0.1394556 0.1398832 0.14034 0.1407324 0.140992 0.141106
 0.141128 0.1411785 0.141435 0.1420931 0.1432891 0.1450165 0.1471042 0.1492903 0.1513401 0.1531195
 0.1545929 0.1557876 0.1567615 0.1575796 0.1582951 0.1589443 0.1595515 0.160132 0.1606932 0.1612393
 0.161775 0.1623057 0.1628368 0.1633738 0.1639185 0.1644681 0.1650192 0.1655741 0.1661396 0.1667207
 0.1673137 0.1679082 0.1684952 0.1690743 0.1696492 0.1702179 0.1707733 0.1713147 0.1718502 0.1723882
 0.1729302 0.1734715 0.1740033 0.1745154 0.1750019 0.175468 0.1759272 0.1763908 0.1768586 0.1773216
 0.1777712 0.1782065 0.1786326 0.1790558 0.1794801 0.179906 0.1803301 0.1807479 0.1811582 0.1815664
 0.1819801 0.1824024 0.1828294 0.1832542 0.1836742 0.184096 0.1845292 0.1849754 0.1854241 0.1858616
 0.1862842 0.1866997 0.1871196 0.187549 0.1879839 0.188416 0.1888405 0.1892585 0.1896731 0.1900865
 0.1904995 0.1909129 0.1913258 0.1917357 0.1921402 0.1925393 0.1929344 0.1933276 0.1937216 0.1941193
 0.1945227 0.1949291 0.195331 0.1957216 0.1961013 0.1964754 0.1968486 0.197223 0.1975997 0.1979789
 0.198359 0.1987375 0.1991134 0.1994875 0.1998607 0.2002327 0.2006016 0.200967 0.201332 0.2017013
 0.2020771 0.2024571 0.202837 0.2032123 0.2035821 0.2039504 0.2043216 0.2046949 0.205067 0.205438
 0.20581 0.2061831 0.2065565 0.2069306 0.2073069 0.2076867 0.2080696 0.2084523 0.2088311 0.2092064
 0.2095818 0.2099587 0.2103365 0.2107168 0.2111018 0.2114919 0.2118855 0.2122804 0.2126735 0.2130626
 0.2134485 0.2138323 0.2142139 0.2145935 0.2149725 0.2153527 0.2157366 0.2161264 0.2165198 0.2169105
 0.2172962 0.2176799 0.2180648 0.2184504 0.2188334 0.2192098 0.2195801 0.2199513 0.2203297 0.2207135
 0.2210986 0.2214853 0.2218737 0.2222597 0.2226411 0.2230213 0.2234062 0.2237994 0.2242001 0.2246026
 0.2250017 0.2253999 0.2258023 0.2262083 0.2266124 0.2270108 0.2274033 0.2277944 0.2281904 0.2285922
 0.2289947 0.2293967 0.2298033 0.2302166 0.2306328 0.2310491 0.231466 0.2318839 0.2323049 0.2327325
 0.2331655 0.2335986 0.2340305 0.2344626 0.2348954 0.2353301 0.2357677 0.2362042 0.2366356 0.2370662
 0.2375015 0.2379409 0.238382 0.2388256 0.2392709 0.2397156 0.2401597 0.2406017 0.2410394 0.2414768
 0.2419204 0.2423682 0.242815 0.2432633 0.2437159 0.2441697 0.2446245 0.2450846 0.2455461 0.2460006
 0.2464472 0.2468902 0.2473321 0.2477788 0.2482367 0.2487026 0.2491694 0.2496347 0.2500944 0.250545
 0.2509941 0.2514511 0.2519093 0.2523585 0.252802 0.2532437 0.25368 0.2541125 0.2545462 0.2549709
 0.2553599 0.2556549 0.2556993 0.2551621 0.2534926 0.249926 0.2436272 0.2340187 0.2211242 0.2056742
 0.188907 0.1721824 0.1566101 0.1428926 0.1314059 0.1223458 0.1158306 0.1119926 0.1110496 0.1134075
 0.1197997 0.1308575 0.145514 0.1596154 0.1674642 0.1661265 0.1580882 0.149 0.1430743 0.1410081
 0.141394 0.1428274 0.1447439 0.1472729 0.1507574 0.155248 0.1604441 0.1661846 0.1727433 0.1804095
 0.1889313 0.1975996 0.2058434 0.2136011 0.2211189 0.228512 0.2355891 0.2420354 0.2476575 0.2524509
 0.2565364 0.2600828 0.2632418 0.2661148 0.2687686 0.2712429 0.2735004 0.2754037 0.2767967 0.2776306
 0.278021 0.2781897 0.2783408 0.278577 0.2789159 0.2793514 0.2798768 0.2804781 0.2811418 0.2818609
 0.2826205 0.2833961 0.2841693 0.28493 0.2856675 0.2863755 0.287056 0.2877089 0.2883295 0.2889201
 0.2894912 0.2900493 0.2905968 0.2911366 0.29167 0.292196 0.2927157 0.2932274 0.293722 0.2941924
 0.2946417 0.2950766 0.2955019 0.2959224 0.2963395 0.2967505 0.297156 0.2975615 0.297969 0.2983748
 0.2987764 0.2991734 0.2995632 0.299946 0.3003267 0.3007081 0.3010892 0.30147 0.3018515 0.3022308
 0.3026071 0.3029849 0.303367 0.303751 0.3041335 0.3045141 0.3048963 0.3052883 0.305695 0.3061099
 0.3065221 0.3069299 0.3073381 0.307747 0.308155 0.3085656 0.3089837 0.3094093 0.3098387 0.3102659
 0.3106799 0.3110691 0.31143 0.3117709 0.3121085 0.3124589 0.3128252 0.3131969 0.3135653 0.3139325
 0.3143033 0.314676 0.3150467 0.3154134 0.3157765 0.3161417 0.3165176 0.316904 0.3172908 0.3176698
 0.3180375 0.3183869 0.3187062 0.3189839 0.3192031 0.3193353 0.319352 0.3192397 0.3190007 0.3186373
 0.3181331 0.3174482 0.3165461 0.3154261 0.3141265 0.3127005 0.3112016 0.3096746 0.3081431 0.3066261
 0.3051872 0.3039449 0.3030109 0.3024281 0.3021843 0.3022673 0.3026881 0.3034621 0.3045831 0.3060199
 0.3077279 0.3096639 0.3117983 0.314122 0.3166232 0.3192415 0.321862 0.3243724 0.3267134 0.3288673
 0.3308307 0.3326111 0.3342067 0.3355783 0.3366977 0.3376447 0.3385959 0.3396708 0.3408161 0.3418766
 0.3427621 0.3435091 0.3441946 0.3448507 0.3454729 0.3460329 0.3464384 0.346583 0.3465397 0.3466301
 0.347164 0.3481262 0.3492131 0.350142 0.3508417 0.3513872 0.3518698 0.3523346 0.3527555 0.3530413
 0.3531349 0.3531494 0.353347 0.3539013 0.354702 0.355476 0.3560742 0.3565547 0.3570272 0.3575289
 0.3580045 0.3582858 0.3581646 0.357675 0.3572835 0.3575875 0.3587379 0.360266 0.3615515 0.3623742
 0.3629185 0.3633419 0.3635459 0.3633646 0.3627709 0.3618852 0.361037 0.3608213 0.3617116 0.3634543
 0.3651688 0.3662298 0.3668095 0.3674344 0.3682973 0.369173 0.3697854 0.3700583 0.3700666 0.3698731
 0.3694965 0.3690943 0.3690736 0.3698047 0.3711907 0.3726873 0.3738132 0.3745294 0.3750246 0.3751613
 0.3743284 0.3721625 0.3695056 0.3682027 0.3694649 0.3725925 0.3757323 0.3777146 0.3786949 0.3792842
 0.3797515 0.3799526 0.379315 0.3770203 0.3731164 0.3694991 0.3687682 0.371667 0.3762512 0.3797715
 0.3807743 0.3794068 0.3767224 0.3741949 0.3732001 0.3742671 0.3768458 0.37987 0.3824062 0.3839126
 0.3842714 0.3837354 0.3828223 0.382176 0.3821648 0.3823351 0.3816879 0.3799696 0.3781513 0.3769321
 0.3754613 0.3727355 0.3698411 0.3692859 0.3718953 0.3756194 0.3779072 0.3783141 0.3780568 0.3775616
 0.3754467 0.3703441 0.3634313 0.358412 0.3583418 0.362577 0.3674115 0.3697156 0.3694123 0.3684315
 0.3679883 0.367292 0.364729 0.3601459 0.3557254 0.3540316 0.3551473 0.3565579 0.3559313 0.3527729
 0.3472296 0.3394601 0.3314941 0.3276565 0.3307523 0.3385556 0.3457699 0.3486166 0.3460413 0.3381205
 0.3263657 0.3152893 0.3103913 0.313094 0.3190657 0.3223799 0.3201774 0.3128383 0.3015586 0.2877142
 0.2740038 0.2641574 0.2605407 0.2622807 0.2656224 0.2657455 0.2592302 0.246703 0.2333649 0.2251253
 0.2231842 0.2233336 0.2209415 0.2152645 0.2085409 0.2027892 0.1986191 0.1957309 0.1933356 0.1907899
 0.1881721 0.1853074 0.1806717 0.1733136 0.1658887 0.1632918 0.1675104 0.1758985 0.1851189 0.1942851
 0.2030489 0.209308 0.2114224 0.2115544 0.2143221 0.2219688 0.23221 0.2410561 0.2467976 0.2507393
 0.2545798 0.2581428 0.2604009 0.2621106 0.2658072 0.2726608 0.2806436 0.2867149 0.289865 0.2911456
 0.2916606 0.2916485 0.2910225 0.2898075 0.2881054 0.2861155 0.2841013 0.2821362 0.2800742 0.2778516
 0.2754217 0.2721435 0.266827 0.2592874 0.2516851 0.2470539 0.2461307 0.2468692 0.2473635 0.2472701
 0.2454614 0.2389597 0.2268205 0.2136793 0.2065756 0.2081977 0.2148542 0.2208245 0.2230245 0.2213432
 0.2165436 0.2099 0.2046851 0.2057 0.2155023 0.231612 0.2486663 0.2628873 0.2734407 0.2803693
 0.2832639 0.2824624 0.2803577 0.2804944 0.2852153 0.2941788 0.3046683 0.3127448 0.3149188 0.311078
 0.3066384 0.3092159 0.3208351 0.3350601 0.3440856 0.3470016 0.3485729 0.3517794 0.3552469 0.3574632
 0.35976 0.3639386 0.3691655 0.3726013 0.3719228 0.3663216 0.3564843 0.3452411 0.3371253 0.3349348
 0.3368407 0.3385974 0.3379018 0.3345644 0.3279787 0.3182578 0.3094828 0.3075535 0.3136106 0.3224594
 0.3285199 0.3310232 0.3324276 0.3338074 0.3334996 0.3298506 0.3241475 0.3200386 0.3198962 0.322484
 0.3247793 0.3251518 0.3236609 0.3202421 0.3146279 0.3081795 0.3040369 0.3044081 0.3082758 0.3124331
 0.3144596 0.3142212 0.3129358 0.3116763 0.310826 0.3102552 0.3097875 0.3098611 0.3115866 0.3155449
 0.320702 0.3253045 0.3288623 0.3325146 0.3373278 0.3428704 0.347698 0.3508383 0.3525869 0.3540817
 0.3562656 0.3591128 0.3616726 0.3629087 0.3626888 0.3620026 0.3620659 0.3631812 0.3646381 0.3656841
 0.3662936 0.3669725 0.3681654 0.3699477 0.3719895 0.3737394 0.3749256 0.3759427 0.3774751 0.3796689
 0.3818997 0.383409 0.3839616 0.3838171 0.383272 0.3824006 0.3811871 0.3797512 0.3783614 0.377248
 0.3764534 0.3758648 0.3753417 0.3747953 0.3742058 0.3736195 0.3731189 0.3727678 0.3725863 0.3725836
 0.3727801 0.3731816 0.3737616 0.3744884 0.3753359 0.3762379 0.3770604 0.3776537 0.3779215 0.3778214
 0.3773233 0.3763936 0.3749978 0.3730838 0.3705883 0.3675601 0.3643598 0.3617042 0.3603696 0.3607098
 0.3624088 0.3647036 0.3668716 0.3685698 0.3698303 0.3708407 0.3717486 0.3726011 0.3733833 0.3740657
 0.3746325 0.3750929 0.3754756 0.3758078 0.3761017 0.3763638 0.3766056 0.3768371 0.3770534 0.3772318
 0.3773404 0.3773491 0.377238 0.3769996 0.3766314 0.3761237 0.375452 0.3745891 0.3735342 0.3723318
 0.3710557 0.3697681 0.3684863 0.3671819 0.3658085 0.3643183 0.3626408 0.3606774 0.3583839 0.3558812
 0.3534245 0.3512055 0.3492033 0.3472546 0.3452291 0.3430936 0.3408454 0.3384598 0.3359065 0.3331751
 0.3302684 0.3271917 0.3239561 0.3205863 0.3171249 0.313625 0.3101314 0.3066645 0.3032223 0.2997866
 0.2963085 0.2926828 0.2887493 0.2843325 0.2792944 0.2735653 0.2671544 0.2601554 0.252748 0.2451738
 0.2376902 0.230534 0.2239151 0.2180198 0.2130009 0.208961 0.2059494 0.2039792 0.2030495 0.203155
 0.2042724 0.2063378 0.2092368 0.2128102 0.2168694 0.22121 0.2256272 0.229941 0.2340419 0.2379322
 0.2417085 0.2454732 0.2492505 0.2529818 0.2565821 0.2599823 0.2631315 0.2659933 0.2685577 0.2708508
 0.2729211 0.2748121 0.2765413 0.2780956 0.2794373 0.2805227 0.2813317 0.2818921 0.2822796 0.2825938
 0.2829314 0.2833654 0.2839369 0.2846584 0.2855285 0.2865487 0.2877298 0.2890808 0.2905889 0.2922119
 0.2939017 0.2956401 0.297453 0.2993875 0.3014775 0.3037269 0.3061141 0.3085993 0.3111179 0.3135731
 0.3158463 0.3178267 0.3194424 0.3206682 0.3215145 0.3220129 0.3222089 0.3221542 0.3218956 0.3214678
 0.3209006 0.3202271 0.3194749 0.3186487 0.3177255 0.3166735 0.3154759 0.3141376 0.312667 0.3110532
 0.3092706 0.3073054 0.305176 0.3029356 0.3006778 0.2985342 0.2966428 0.2950999 0.293933 0.2931053
 0.2925305 0.292089 0.2916469 0.2910807 0.2903075 0.2893026 0.2880834 0.2866747 0.2850923 0.2833509
 0.281469 0.2794643 0.2773514 0.2751409 0.2728349 0.270427 0.2679028 0.2652452 0.2624607 0.2596122
 0.2568065 0.2541339 0.2516256 0.2492628 0.2470089 0.2448319 0.2427164 0.2406602 0.2386634 0.2367271
 0.2348585 0.2330644 0.231349 0.2297226 0.2282058 0.2268203 0.2255828 0.2245014 0.2235661 0.222747
 0.2220101 0.2213302 0.2207 0.2201417 0.2196916 0.2193463 0.2190339 0.218658 0.2181656 0.2175775
 0.2169725 0.2164436 0.2160477 0.2157863 0.2156158 0.2154514 0.2151721 0.2146555 0.2138158 0.212604
 0.2110005 0.2090287 0.2067645 0.2043282 0.2018721 0.1995533 0.1974933 0.1957606 0.1943755 0.1933008
 0.1924485 0.1917389 0.1911639 0.190785 0.1906764 0.1908389 0.1911304 0.1913221 0.191296 0.1911761
 0.1912225 0.191611 0.1923242 0.1931993 0.1940458 0.1947419 0.1952495 0.1955666 0.1957071 0.1957115
 0.1956207 0.1954361 0.1951358 0.1947092 0.1941567 0.1934868 0.19272 0.1918623 0.1908889 0.1897851
 0.1885701 0.1872626 0.1858657 0.1843842 0.18281 0.1811247 0.1793932 0.1778355 0.1767471 0.1763399
 0.1766288 0.177419 0.1784279 0.1794619 0.1804373 0.1812532 0.1817965 0.182142 0.1826334 0.1836553
 0.1853111 0.1873181 0.1892039 0.1906087 0.1914032 0.1915937 0.1912406 0.1904535 0.1893242 0.187855
 0.1860384 0.1839431 0.1816585 0.1792651 0.1768981 0.1747067 0.172763 0.1710974 0.1697252 0.1686447
 0.1679192 0.1672806 0.1651502 0.1591808 0.1495778 0.1412704 0.1402005 0.1469306 0.1558852 0.1613487
 0.1623264 0.1611984 0.1599513 0.1590158 0.1583142 0.1579061 0.1578295 0.1579691 0.1581101 0.1580368
 0.1576612 0.1569998 0.1559295 0.153968 0.150263 0.1438893 0.1345289 0.1231165 0.1116504 0.1021325
 0.09557535 0.0917832 0.08978066 0.08849631 0.08737918 0.0865845 0.08661109 0.08779097 0.09010545 0.09333673
 0.09722321 0.1014313 0.1055012 0.1089897 0.1117061 0.1137296 0.1151935 0.1161444 0.1166006 0.1166224
 0.1162898 0.1156783 0.1148562 0.1138553 0.1126553 0.1112381 0.1096749 0.1081576 0.1069237 0.1061022
 0.1056319 0.1053565 0.1051747 0.1050666 0.1050292 0.1050477 0.1051098 0.1052148 0.1053812 0.105633
 0.1059521 0.106266 0.1065069 0.1066615 0.1067517 0.1067892 0.10675 0.1065955 0.1063437 0.1060886
 0.1058661 0.1055211 0.1048273 0.1037747 0.1026733 0.1019435 0.1018178 0.1022083 0.1028057 0.1033053
 0.1035829 0.1036961 0.1037467 0.1037419</values></Ydata></ScSm><ScRf><Ydata ylabel="Single channel"><values byteorder="INTEL" format="FLOAT32" numvalues="1820"> 0.06973413 0.0698653 0.06998152 0.07008284 0.07017277 0.07026085 0.07036015 0.07047787 0.07060982 0.0707442
 0.07087 0.07098397 0.07108837 0.07118216 0.07126273 0.07133964 0.07143433 0.07155866 0.07170022 0.07183189
 0.0719337 0.07201046 0.07209181 0.07220419 0.07233432 0.07242982 0.07244739 0.0723989 0.07234409 0.07233675
 0.07239013 0.07250682 0.07271177 0.07299626 0.0732412 0.07329381 0.07315686 0.07301722 0.07303835 0.07319644
 0.07335526 0.0734178 0.07336587 0.07324886 0.07320205 0.07340185 0.07390505 0.07452179 0.07487652 0.07462408
 0.0736783 0.07233587 0.07120638 0.07089472 0.07156512 0.07275836 0.07373461 0.07406914 0.07388319 0.07352996
 0.07322533 0.07304151 0.0730703 0.07340723 0.07399666 0.07457034 0.0747539 0.07431428 0.07342325 0.07262309
 0.07238381 0.07274039 0.07346034 0.07432383 0.07491216 0.07440018 0.07228902 0.06951071 0.06813365 0.06945127
 0.07262851 0.07556942 0.07682405 0.07635496 0.07493129 0.07345241 0.07270764 0.07310481 0.0744053 0.07596029
 0.07722418 0.0778975 0.07779113 0.07691689 0.07566573 0.07464038 0.07432039 0.07492444 0.07632169 0.0778958
 0.07879133 0.07858845 0.07761911 0.07654123 0.07585426 0.07587335 0.07675748 0.07831797 0.08003788 0.08145221
 0.08238789 0.08285983 0.08295649 0.08282244 0.08258755 0.08235032 0.08227722 0.08251584 0.08290724 0.08302
 0.08263051 0.08202544 0.0817104 0.08188777 0.08228478 0.08248428 0.0823385 0.08188945 0.08094485 0.07917304
 0.07678498 0.07463934 0.07340379 0.07308824 0.07359152 0.07498181 0.07683265 0.07802507 0.0778757 0.07706055
 0.07688442 0.07787063 0.07943308 0.08072548 0.08146189 0.08196287 0.08265719 0.08359806 0.08434322 0.0842846
 0.08327134 0.0819935 0.08152239 0.08227387 0.08360185 0.08458842 0.08500648 0.08529004 0.08577254 0.08620629
 0.0859803 0.08477658 0.08311847 0.08218439 0.0828343 0.08475946 0.08664633 0.08716947 0.08593224 0.08368082
 0.08168019 0.08080605 0.08120465 0.08265366 0.08487274 0.08738827 0.08946054 0.09045738 0.09028818 0.08938959
 0.08824969 0.08695121 0.08534212 0.08374794 0.08316147 0.08431492 0.08673906 0.08913726 0.09058228 0.09102912
 0.09078746 0.08989611 0.08820869 0.08604278 0.08446804 0.08451234 0.08598983 0.08755124 0.08811852 0.08789264
 0.08773305 0.08798377 0.08829052 0.08832513 0.08827776 0.0885886 0.08938642 0.09032287 0.09093979 0.09108998
 0.0909683 0.09083793 0.09077925 0.09064494 0.09028469 0.08987979 0.08992167 0.09069397 0.09189275 0.09293354
 0.09352703 0.09379128 0.09389418 0.09376673 0.09321614 0.09229814 0.09149711 0.09138271 0.09205766 0.09307992
 0.09393283 0.09441079 0.09457206 0.09454438 0.09443816 0.09431702 0.09421115 0.09419018 0.09435356 0.09469593
 0.09506629 0.09531636 0.0954217 0.09542871 0.09535816 0.09520711 0.09501113 0.09486311 0.09485481 0.09500186
 0.09524159 0.09549646 0.09570801 0.09582342 0.09581217 0.09570906 0.09559506 0.09552422 0.0955001 0.09551857
 0.09559177 0.09571952 0.09586566 0.095982 0.09604681 0.0960694 0.09606454 0.09603842 0.09599933 0.09596843
 0.09597381 0.09603223 0.09612998 0.09622944 0.09631208 0.0964032 0.09652649 0.0966486 0.09670755 0.09669068
 0.09664994 0.09664381 0.09669099 0.096774 0.09686109 0.09691817 0.09691717 0.09685548 0.09677651 0.09675521
 0.09684269 0.09702981 0.09727121 0.09752291 0.09774641 0.09791145 0.09801941 0.0981025 0.09818423 0.0982583
 0.09831384 0.09836414 0.09844401 0.09858276 0.09877592 0.09898344 0.09916201 0.09929454 0.09938872 0.09946871
 0.09957165 0.09971803 0.0998743 0.09997895 0.100021 0.1000608 0.1001556 0.1002904 0.1004018 0.1004549
 0.1004769 0.1005207 0.100609 0.1007214 0.100827 0.1009199 0.1010202 0.1011439 0.1012709 0.1013503
 0.1013496 0.1012957 0.1012496 0.101245 0.1012717 0.1013139 0.1013768 0.101464 0.1015525 0.1016066
 0.1016155 0.1016052 0.1016078 0.101625 0.101629 0.1015977 0.1015386 0.1014779 0.1014364 0.1014176
 0.1014097 0.1013954 0.1013611 0.1013038 0.1012316 0.1011554 0.1010808 0.1010107 0.1009599 0.1009534
 0.1009922 0.1010247 0.1009776 0.1008253 0.1006176 0.100433 0.100312 0.1002349 0.1001526 0.1000311
 0.09987281 0.09970528 0.09955517 0.09943046 0.09932142 0.09921576 0.09911461 0.09903621 0.09899651 0.09898126
 0.09894654 0.09885824 0.09872669 0.0985931 0.09848821 0.09841461 0.0983611 0.09831886 0.09828694 0.09827198
 0.09827831 0.09829403 0.0982963 0.09827758 0.09825674 0.09826089 0.09830642 0.09839505 0.0985098 0.0986141
 0.09867609 0.09870136 0.09872864 0.0987886 0.09887959 0.09898479 0.09909762 0.09922288 0.0993636 0.09951717
 0.09968231 0.09986313 0.1000647 0.1002856 0.1005151 0.1007385 0.1009496 0.1011584 0.1013853 0.1016437
 0.1019287 0.102222 0.1025067 0.1027777 0.1030407 0.1033024 0.1035663 0.1038372 0.1041238 0.1044316
 0.1047539 0.1050775 0.1053956 0.1057113 0.1060302 0.1063528 0.1066763 0.1070013 0.1073376 0.1076976
 0.1080773 0.1084466 0.1087716 0.1090493 0.1093118 0.1095975 0.1099217 0.1102695 0.1106083 0.110912
 0.1111844 0.1114558 0.1117489 0.1120544 0.1123511 0.1126431 0.1129623 0.1133275 0.1137112 0.1140556
 0.114324 0.1145354 0.1147432 0.1149809 0.115235 0.115473 0.115686 0.1158928 0.116109 0.1163331
 0.1165651 0.1168194 0.1171034 0.1173959 0.1176625 0.1178901 0.1180927 0.1182866 0.1184707 0.1186294
 0.1187508 0.118842 0.11893 0.1190412 0.1191771 0.1193186 0.1194546 0.1195956 0.1197576 0.1199434
 0.1201493 0.1203767 0.1206244 0.1208767 0.1211172 0.121357 0.121626 0.1219287 0.1222239 0.1224682
 0.1226651 0.1228512 0.1230479 0.1232522 0.1234671 0.1237112 0.1239942 0.1243012 0.1246058 0.1248926
 0.1251685 0.1254565 0.1257708 0.1260912 0.1263733 0.1265917 0.1267661 0.1269421 0.1271539 0.127407
 0.1276854 0.1279685 0.1282407 0.1284894 0.1286974 0.128848 0.1289438 0.1290103 0.1290677 0.1291025
 0.1290759 0.1289554 0.1287289 0.1283919 0.1279367 0.1273623 0.1266947 0.1259949 0.1253488 0.1248446
 0.1245498 0.1245005 0.124701 0.1251215 0.1256944 0.126325 0.1269166 0.1273855 0.1276599 0.1276849
 0.1274444 0.1269715 0.1263301 0.1255844 0.1247859 0.1239731 0.1231758 0.1224327 0.1218198 0.1214579
 0.1214797 0.1219776 0.122969 0.1243803 0.1260492 0.1277644 0.1293438 0.1307012 0.1318475 0.1328372
 0.1337212 0.1345355 0.135306 0.1360454 0.136751 0.1374145 0.1380353 0.1386181 0.1391619 0.1396541
 0.1400768 0.1404135 0.1406565 0.1408135 0.1409047 0.1409511 0.1409669 0.1409643 0.1409527 0.1409202
 0.1408236 0.140609 0.1402475 0.1397584 0.1392138 0.1387391 0.1385026 0.1386749 0.1393547 0.1405049
 0.1419589 0.1435007 0.1449551 0.1462202 0.1472536 0.1480584 0.1486796 0.1491833 0.1496256 0.1500374
 0.1504308 0.1508091 0.1511722 0.1515213 0.1518615 0.1521989 0.1525377 0.1528795 0.1532212 0.1535558
 0.1538805 0.1542025 0.1545342 0.1548817 0.1552376 0.1555882 0.155929 0.1562705 0.1566224 0.1569773
 0.1573166 0.1576319 0.1579325 0.1582351 0.1585526 0.1588884 0.1592335 0.1595698 0.1598829 0.1601731
 0.1604521 0.1607313 0.1610156 0.1613041 0.161594 0.1618823 0.1621669 0.1624472 0.1627248 0.1630013
 0.1632752 0.1635413 0.1637966 0.1640451 0.1642936 0.1645449 0.1647959 0.1650437 0.1652913 0.1655473
 0.1658185 0.1661028 0.1663879 0.1666613 0.1669185 0.1671631 0.1674016 0.1676385 0.167877 0.1681197
 0.1683666 0.1686159 0.168865 0.1691126 0.1693588 0.1696051 0.1698531 0.1701039 0.1703551 0.1706022
 0.1708432 0.1710825 0.1713266 0.1715791 0.1718381 0.1720977 0.1723508 0.1725942 0.1728303 0.1730632
 0.1732932 0.1735187 0.1737424 0.1739701 0.1742063 0.1744502 0.1746971 0.1749423 0.1751845 0.1754257
 0.1756677 0.1759094 0.1761492 0.1763877 0.1766262 0.1768659 0.1771071 0.1773492 0.1775903 0.1778289
 0.178065 0.1782993 0.178533 0.1787665 0.1789995 0.1792331 0.1794706 0.1797124 0.1799538 0.1801896
 0.1804205 0.1806516 0.1808857 0.1811218 0.1813573 0.1815905 0.1818226 0.1820558 0.1822908 0.1825266
 0.1827627 0.1829996 0.1832368 0.1834734 0.1837093 0.1839443 0.1841788 0.1844134 0.1846485 0.1848831
 0.1851177 0.1853543 0.1855937 0.1858353 0.1860785 0.1863213 0.1865599 0.1867933 0.1870251 0.1872584
 0.187494 0.1877333 0.1879781 0.1882277 0.1884789 0.1887277 0.1889704 0.1892084 0.1894503 0.1897032
 0.1899655 0.1902308 0.1904951 0.1907553 0.1910092 0.1912582 0.1915056 0.1917519 0.1919941 0.1922287
 0.1924539 0.1926714 0.192887 0.1931055 0.1933275 0.1935537 0.1937844 0.1940175 0.1942515 0.1944889
 0.1947311 0.1949751 0.1952197 0.1954673 0.1957185 0.1959707 0.1962226 0.1964734 0.1967221 0.1969712
 0.1972248 0.1974815 0.1977386 0.1979988 0.1982646 0.1985327 0.1988 0.199066 0.199329 0.199587
 0.1998425 0.2000986 0.2003555 0.2006161 0.2008833 0.2011538 0.2014225 0.2016904 0.2019576 0.202221
 0.2024837 0.2027541 0.2030322 0.2033107 0.2035848 0.2038522 0.2041114 0.2043693 0.2046363 0.2049123
 0.205191 0.2054712 0.2057532 0.2060331 0.2063104 0.2065857 0.2068538 0.2071139 0.2073769 0.2076485
 0.2079192 0.208182 0.2084391 0.2086867 0.208906 0.2090465 0.2089767 0.2084263 0.2069476 0.2039177
 0.1986555 0.1906943 0.180062 0.1673634 0.1536119 0.1399125 0.1271632 0.1159332 0.1065303 0.09911488
 0.09378112 0.09063125 0.08983809 0.0917299 0.09690127 0.1058576 0.1177172 0.1290946 0.1353723 0.1341987
 0.127619 0.1202194 0.1153955 0.1136911 0.1139593 0.1150679 0.1165671 0.1185636 0.1213304 0.1249032
 0.1290403 0.1336182 0.1388609 0.1449963 0.1518128 0.1587351 0.165306 0.1714812 0.1774641 0.1833487
 0.1889773 0.1940922 0.1985363 0.2023085 0.2055103 0.2082806 0.2107416 0.212973 0.2150259 0.2169302
 0.2186561 0.2200961 0.2211276 0.2217124 0.2219424 0.2219951 0.2220355 0.2221464 0.2223402 0.2226102
 0.2229515 0.2233562 0.2238148 0.2243194 0.2248545 0.2253994 0.2259397 0.2264674 0.2269748 0.2274587
 0.2279217 0.2283643 0.2287864 0.2291931 0.2295898 0.2299749 0.230347 0.2307093 0.2310626 0.2314059
 0.2317442 0.2320828 0.2324167 0.2327353 0.2330331 0.2333107 0.2335735 0.2338305 0.2340881 0.2343462
 0.2346019 0.234854 0.2351015 0.2353452 0.2355905 0.2358406 0.2360911 0.2363379 0.2365817 0.2368227
 0.2370591 0.2372929 0.237528 0.2377657 0.2380041 0.2382429 0.2384825 0.2387232 0.2389637 0.2392008
 0.2394346 0.2396738 0.2399271 0.2401917 0.2404586 0.2407258 0.2409974 0.2412739 0.2415526 0.2418308
 0.2421057 0.242376 0.2426458 0.2429194 0.2431917 0.2434499 0.2436859 0.2439036 0.2441165 0.2443388
 0.2445747 0.2448177 0.2450608 0.2453028 0.2455461 0.2457923 0.2460412 0.2462893 0.2465336 0.2467801
 0.247042 0.2473244 0.2476194 0.2479171 0.2482129 0.2485051 0.2487945 0.249086 0.2493812 0.2496714
 0.2499457 0.2502073 0.2504776 0.2507806 0.2511188 0.2514676 0.2517979 0.2521031 0.2523993 0.252704
 0.2530249 0.2533529 0.2536605 0.2539215 0.25415 0.2544026 0.2547265 0.2551125 0.2555102 0.2558787
 0.2562134 0.2565327 0.2568496 0.2571587 0.2574441 0.2576953 0.2579244 0.2581715 0.2584803 0.2588544
 0.2592493 0.2596167 0.2599445 0.2602454 0.2605332 0.2608179 0.2610909 0.2613091 0.2614393 0.2615352
 0.2617265 0.2620966 0.2625934 0.2630855 0.2634913 0.2638257 0.2641355 0.2644376 0.2647266 0.2649823
 0.2651352 0.2651048 0.2649461 0.2649006 0.2651985 0.2658268 0.2665581 0.2671791 0.2676299 0.2679612
 0.2682435 0.2685177 0.2687661 0.268915 0.2689138 0.2688463 0.2689174 0.2692669 0.2698144 0.2703483
 0.2707475 0.2710498 0.2713372 0.2716419 0.2719272 0.272067 0.2719009 0.2714551 0.2710865 0.2712474
 0.2720482 0.2731322 0.2740338 0.2745904 0.2749401 0.2751962 0.2752793 0.2750652 0.2745397 0.2738013
 0.2731037 0.2728967 0.273531 0.2748047 0.2760501 0.2768026 0.2771983 0.2776316 0.2782431 0.2788632
 0.2792862 0.2794545 0.2794234 0.2792401 0.2789195 0.2785828 0.27854 0.2790693 0.280093 0.2811964
 0.2820171 0.2825297 0.2828805 0.2829654 0.2823175 0.2806594 0.2786317 0.2776348 0.2785865 0.2809565
 0.283339 0.2848418 0.2855804 0.2860253 0.2863886 0.2865575 0.2860861 0.2843499 0.2813953 0.2786739
 0.2781593 0.2804028 0.2839164 0.2866116 0.2873909 0.2863739 0.2843713 0.2825094 0.2818249 0.2827022
 0.284718 0.2870717 0.2890613 0.2902734 0.2906159 0.2902828 0.2896711 0.2892708 0.2893555 0.2895714
 0.2891608 0.287946 0.2866746 0.28587 0.2848739 0.2829233 0.2808536 0.2805774 0.2827187 0.285709
 0.2876061 0.2880816 0.2880676 0.2878779 0.2864464 0.2827309 0.2776433 0.2740257 0.2742188 0.2777241
 0.2816968 0.2837433 0.283815 0.2833928 0.2834031 0.2832383 0.2816602 0.2785524 0.2756062 0.2748117
 0.276228 0.2778951 0.2780032 0.2761642 0.2724712 0.2670441 0.261517 0.2593424 0.262746 0.2699565
 0.2767671 0.2801623 0.279265 0.2740919 0.2658603 0.2582852 0.2559097 0.2599179 0.2667498 0.2715427
 0.2719642 0.268317 0.2615587 0.2528819 0.2447392 0.2405388 0.2424706 0.2497383 0.258716 0.2645208
 0.2635025 0.2561644 0.247894 0.244914 0.2484318 0.2538354 0.2561151 0.254581 0.2518246 0.2501893
 0.2504737 0.2523709 0.2548135 0.2568163 0.2582312 0.2583464 0.2544929 0.2450017 0.2335953 0.2274039
 0.2296098 0.2368959 0.2448626 0.2524513 0.2594581 0.2633574 0.2619985 0.2578612 0.2564591 0.2604497
 0.2671066 0.2717994 0.2726932 0.2714884 0.2703437 0.2693085 0.2673964 0.2653584 0.2657185 0.2696283
 0.2750612 0.2790104 0.2805043 0.2806082 0.2804089 0.2801015 0.2795426 0.2786951 0.2775944 0.2763741
 0.2752563 0.2743039 0.273371 0.2723868 0.2712914 0.2694232 0.2655675 0.2595353 0.2535174 0.2505722
 0.2514163 0.2539784 0.2563832 0.2583082 0.2584865 0.2536868 0.2429292 0.2312615 0.2262874 0.2308206
 0.2406457 0.2492526 0.2529824 0.2514831 0.2455109 0.2365783 0.2284979 0.2267131 0.2340993 0.2479569
 0.2624486 0.273544 0.2805418 0.2837859 0.2831147 0.2790284 0.2739927 0.2714598 0.273497 0.279429
 0.2863532 0.2904867 0.288815 0.2815778 0.2739126 0.2727427 0.2799096 0.2897255 0.2952552 0.2955807
 0.2947659 0.2954078 0.2964174 0.2966012 0.2971617 0.2996802 0.3035283 0.3063951 0.3063618 0.3027104
 0.2959076 0.2881559 0.2830428 0.2827021 0.2854534 0.287726 0.2877204 0.2854412 0.2804522 0.2728481
 0.2660578 0.2650056 0.2705146 0.2780572 0.2829134 0.2845652 0.2852342 0.2858866 0.2850942 0.2814266
 0.2759933 0.2719681 0.2714781 0.2735935 0.2758522 0.2769253 0.2768285 0.275379 0.2721963 0.2683502
 0.2665174 0.2686034 0.2736994 0.2789637 0.2822311 0.2833363 0.2832939 0.2829902 0.2827051 0.2822692
 0.2814974 0.2808009 0.2812204 0.2833173 0.2862026 0.288353 0.2893757 0.2903292 0.2922309 0.2948107
 0.296923 0.2978127 0.2977782 0.2977943 0.2986361 0.3002423 0.3017734 0.3023538 0.3019363 0.3014576
 0.3019938 0.3037321 0.3059026 0.307661 0.3087928 0.309586 0.3103501 0.3111523 0.3117881 0.3119509
 0.3116422 0.3114195 0.3119842 0.3134552 0.3152289 0.3165899 0.3172962 0.3175429 0.3175571 0.3173788
 0.3169726 0.3164117 0.3158897 0.3155732 0.3154836 0.3155233 0.3155825 0.315604 0.3155847 0.3155622
 0.3155892 0.3156922 0.3158572 0.3160605 0.316286 0.3165038 0.316671 0.3167793 0.3168674 0.3169584
 0.3170105 0.3169465 0.3167068 0.3162553 0.3155568 0.3145771 0.3132917 0.3116713 0.3096827 0.3073859
 0.3050978 0.3034277 0.3030235 0.3041595 0.3065186 0.3093734 0.3120002 0.3139892 0.3152835 0.3160284
 0.3164086 0.3165674 0.3165882 0.3165035 0.3163193 0.3160476 0.3157177 0.3153633 0.3150084 0.3146679
 0.3143525 0.314065 0.3137949 0.313517 0.3131984 0.3128115 0.3123463 0.3118103 0.311216 0.3105632
 0.309831 0.3089918 0.3080436 0.307027 0.3060083 0.3050421 0.3041436 0.3032866 0.3024261 0.3015164
 0.300499 0.299301 0.2979038 0.296434 0.2951244 0.2941292 0.2933891 0.2927004 0.2918909 0.2909058
 0.2897695 0.2885287 0.2872313 0.2859128 0.28458 0.2832109 0.2817726 0.2802386 0.2785993 0.2768628
 0.2750449 0.2731616 0.2712326 0.2692783 0.2672907 0.265198 0.2628654 0.2601334 0.256861 0.2529512
 0.248373 0.2431891 0.2375666 0.2317384 0.2259356 0.2203436 0.2151081 0.2103624 0.2062356 0.2028356
 0.2002316 0.198457 0.1975269 0.1974481 0.1982118 0.1997801 0.2020784 0.2049937 0.2083719 0.212024
 0.2157428 0.2193345 0.2226653 0.225703 0.2285057 0.2311442 0.2336282 0.2359088 0.2379395 0.2397125
 0.2412424 0.2425378 0.2436025 0.2444569 0.245146 0.2457234 0.2462275 0.2466693 0.2470403 0.2473303
 0.2475422 0.2476963 0.2478261 0.2479693 0.2481537 0.2483864 0.2486581 0.2489656 0.249325 0.2497623
 0.2502913 0.2509044 0.2515787 0.2522929 0.2530403 0.2538349 0.254707 0.2556953 0.2568371 0.2581539
 0.2596387 0.2612513 0.2629185 0.2645417 0.2660156 0.2672573 0.2682227 0.2689022 0.2693066 0.2694573
 0.269385 0.269128 0.2687232 0.2681958 0.2675608 0.2668363 0.2660461 0.2652084 0.2643263 0.263396
 0.2624223 0.2614252 0.2604292 0.2594473 0.2584807 0.2575335 0.2566174 0.2557385 0.2548912 0.2540671
 0.2532641 0.2524874 0.2517468 0.2510507 0.250393 0.2497471 0.2490729 0.2483243 0.247456 0.2464363
 0.2452553 0.2439179 0.2424332 0.240813 0.2390749 0.2372389 0.2353208 0.2333252 0.2312505 0.2290967
 0.2268628 0.2245404 0.2221364 0.2197086 0.2173547 0.2151544 0.2131325 0.2112737 0.2095477 0.207923
 0.2063766 0.2048963 0.2034745 0.2021076 0.2007966 0.1995422 0.1983449 0.197214 0.1961657 0.1952095
 0.1943528 0.1936075 0.1929787 0.1924538 0.1920148 0.1916504 0.1913618 0.1911712 0.1911126 0.191186
 0.1913266 0.1914391 0.1914605 0.1913914 0.1912828 0.1911972 0.1911663 0.1911821 0.1912128 0.1912056
 0.1910805 0.1907481 0.1901298 0.1891554 0.1877731 0.1859884 0.1838856 0.1816104 0.1793411 0.1772491
 0.1754537 0.1740073 0.1729115 0.1721181 0.1715344 0.1710765 0.17073 0.1705509 0.1706113 0.1709181
 0.171349 0.1717025 0.1718747 0.1719776 0.1722442 0.1728319 0.1737269 0.1747872 0.1758446 0.1767852
 0.17756 0.1781508 0.178562 0.178833 0.1790061 0.1790857 0.1790547 0.1789065 0.1786416 0.1782677
 0.1778086 0.1772787 0.1766606 0.1759384 0.1751213 0.1742163 0.1732183 0.1721253 0.1709158 0.1695506
 0.168075 0.1666996 0.1657268 0.1653901 0.1657342 0.1665915 0.1676993 0.1688749 0.170041 0.1711012
 0.1719415 0.172621 0.1734553 0.1748089 0.1767884 0.1791321 0.1813868 0.1832005 0.1844421 0.1851026
 0.1852075 0.1848177 0.1839834 0.1826916 0.1809559 0.1788967 0.1766621 0.1743705 0.1721638 0.1701806
 0.168479 0.1670751 0.1659702 0.1651505 0.1646676 0.1642508 0.162347 0.1566568 0.1473977 0.1394295
 0.1385942 0.1454248 0.1544066 0.1598938 0.1609054 0.1598029 0.1585713 0.1576551 0.1569785 0.1565909
 0.1565306 0.1567002 0.1569012 0.1569177 0.156649 0.1560998 0.1551386 0.1532676 0.1496114 0.1432287
 0.1338104 0.1223231 0.1107982 0.1012519 0.09469202 0.09091455 0.08893747 0.08768035 0.08658323 0.08580262
 0.08584885 0.08706285 0.08942686 0.09272268 0.09668936 0.100989 0.1051535 0.108736 0.1115474 0.1136648
 0.1152114 0.1162279 0.116741 0.1168234 0.1165555 0.1160039 0.1152351 0.1142894 0.1131477 0.11178
 0.1102476 0.1087513 0.1075489 0.106783 0.1063907 0.106206 0.1061198 0.1061095 0.1061689 0.1062778
 0.1064209 0.106599 0.1068309 0.1071397 0.1075113 0.1078788 0.1081698 0.1083542 0.1084383 0.1084311
 0.1083131 0.108049 0.1076597 0.107248 0.1068646 0.1063651 0.1055219 0.1043169 0.1030551 0.1021602
 0.1018769 0.1021341 0.1026341 0.1030704 0.103307 0.1033941 0.1034325 0.1034256 0.1032552 0.1028098
</values></Ydata></ScRf><Data_Parameters_AB><parameter name="DPF">1</parameter><parameter name="NPT">3497</parameter><parameter name="FXV">3996</parameter><parameter name="LXV">500</parameter><parameter name="CSF">1</parameter><parameter name="MXY">0.15033558011055</parameter><parameter name="MNY">-0.122615590691566</parameter><parameter name="DAT">17/01/2024</parameter><parameter name="TIM">13:41:58.150 (GMT+1)</parameter><parameter name="DXU">WN</parameter></Data_Parameters_AB><AB__Qtest><MainReport name="Quality Test Report"><Header><Line><Legend>Test result ok/not ok [1/0]: </Legend><Value>0</Value></Line><Line><Legend>Method file: </Legend><Value>C:\Users\Public\Documents\Bruker\OPUS_8.2.28\QT\IRBT_v3_default.QT</Value></Line></Header><Matrix><Line><Legend></Legend><Legend>min</Legend><Legend>max</Legend><Legend>measured</Legend></Line><Line><Value>Absorption (X-Range 1):</Value><Value>0.400000</Value><Value>2.000000</Value><Value>0.272951</Value></Line><Line><Value>Noise (X-Range 4):</Value><Value></Value><Value>0.000300</Value><Value>0.002889</Value></Line><Line><Value>Signal/Noise (X-Range 2):</Value><Value>200.000000</Value><Value></Value><Value>3.357177</Value></Line><Line><Value>Signal/Noise (X-Range 3):</Value><Value>40.000000</Value><Value></Value><Value>0.873470</Value></Line><Line><Value>Water vapour (X-Range 5):</Value><Value></Value><Value>0.000300</Value><Value>0.000030</Value></Line><Line><Value>Signal/Water (X-Range 2):</Value><Value>100.000000</Value><Value></Value><Value>324.325851</Value></Line><Line><Value>Signal/Water (X-Range 3):</Value><Value>20.000000</Value><Value></Value><Value>84.383085</Value></Line><Line><Value>Fringes (X-Range 6):</Value><Value></Value><Value>0.000100</Value><Value>0.002028</Value></Line></Matrix></MainReport></AB__Qtest><Data_Parameters_ScSm><parameter name="DPF">1</parameter><parameter name="NPT">1814</parameter><parameter name="FXV">3996.63438082617</parameter><parameter name="LXV">499.579297603271</parameter><parameter name="CSF">1</parameter><parameter name="MXY">0.384271442890167</parameter><parameter name="MNY">0.0814251899719238</parameter><parameter name="DAT">17/01/2024</parameter><parameter name="TIM">13:41:58.150 (GMT+1)</parameter><parameter name="DXU">WN</parameter></Data_Parameters_ScSm><Data_Parameters_ScRf><parameter name="DPF">1</parameter><parameter name="NPT">1820</parameter><parameter name="FXV">4004.34989121387</parameter><parameter name="LXV">495.721542409425</parameter><parameter name="CSF">1</parameter><parameter name="MXY">0.317557096481323</parameter><parameter name="MNY">0.0681336522102356</parameter><parameter name="DAT">17/01/2024</parameter><parameter name="TIM">13:41:31.805 (GMT+1)</parameter><parameter name="DXU">WN</parameter></Data_Parameters_ScRf><Optic_Parameters_Rf><parameter name="APR">0</parameter><parameter name="APT">Open</parameter><parameter name="BMS">KBr</parameter><parameter name="DTC">RT-DLaTGS_IR-Biotyper [Microplate reader]</parameter><parameter name="HPF">0</parameter><parameter name="LPF">10.0</parameter><parameter name="LPV">4000</parameter><parameter name="PGR">0</parameter><parameter name="RCH">Module port</parameter><parameter name="RDX">0</parameter><parameter name="SRC">MIR</parameter><parameter name="VEL">10.0</parameter><parameter name="SON">Off</parameter></Optic_Parameters_Rf><Acquisition_Parameters_Rf><parameter name="ADT">1</parameter><parameter name="AQM">DD</parameter><parameter name="CFE">0</parameter><parameter name="COR">0</parameter><parameter name="DEL">0</parameter><parameter name="DLY">0</parameter><parameter name="HFW">8000</parameter><parameter name="LFW">0</parameter><parameter name="NSR">32</parameter><parameter name="PLF">AB</parameter><parameter name="RES">6</parameter><parameter name="RGN">-1</parameter><parameter name="STR">0</parameter><parameter name="TCL">MakeCompatibleScalar (0, {WSV=1.000000, ARV=0});</parameter><parameter name="TDL">37</parameter><parameter name="RPO">0</parameter></Acquisition_Parameters_Rf><FT_-_Parameters_Rf><parameter name="APF">B3</parameter><parameter name="HFQ">500</parameter><parameter name="LFQ">4000</parameter><parameter name="NLI">0</parameter><parameter name="PHR">24</parameter><parameter name="PHZ">ML</parameter><parameter name="SPZ">NO</parameter><parameter name="ZFF">1</parameter></FT_-_Parameters_Rf><Optic_Parameters_><parameter name="APR">0</parameter><parameter name="APT">Open</parameter><parameter name="BMS">KBr</parameter><parameter name="CHN">Module port</parameter><parameter name="DTC">RT-DLaTGS_IR-Biotyper [Microplate reader]</parameter><parameter name="HPF">0</parameter><parameter name="LPF">10.0</parameter><parameter name="LPV">4000</parameter><parameter name="PGN">0</parameter><parameter name="RDX">0</parameter><parameter name="SRC">MIR</parameter><parameter name="VEL">10.0</parameter><parameter name="SON">Off</parameter></Optic_Parameters_><FT_-_Parameters_><parameter name="APF">B3</parameter><parameter name="HFQ">500</parameter><parameter name="LFQ">4000</parameter><parameter name="NLI">0</parameter><parameter name="PHR">24</parameter><parameter name="PHZ">ML</parameter><parameter name="SPZ">NO</parameter><parameter name="ZFF">1</parameter></FT_-_Parameters_><Acquisition_Parameters_><parameter name="ADT">1</parameter><parameter name="AQM">DD</parameter><parameter name="CFE">0</parameter><parameter name="COR">0</parameter><parameter name="DEL">0</parameter><parameter name="DLY">0</parameter><parameter name="HFW">8000</parameter><parameter name="LFW">0</parameter><parameter name="NSS">32</parameter><parameter name="PLF">AB</parameter><parameter name="RES">6</parameter><parameter name="SOT">0</parameter><parameter name="TCL">MakeCompatibleScalar (0, {WSV=1.000000, ARV=0});</parameter><parameter name="TDL">37</parameter><parameter name="SPO">0</parameter><parameter name="SGN">-1</parameter></Acquisition_Parameters_><Instrument_Parameters_Rf><parameter name="HFL">15801.365274</parameter><parameter name="LFL">0</parameter><parameter name="LWN">15801.365274</parameter><parameter name="ABP">32157</parameter><parameter name="SSP">1</parameter><parameter name="ARG">2</parameter><parameter name="ASG">2</parameter><parameter name="ASS">32</parameter><parameter name="GFW">16</parameter><parameter name="GBW">16</parameter><parameter name="BFW">0</parameter><parameter name="BBW">0</parameter><parameter name="PKA">9118</parameter><parameter name="PKL">4987</parameter><parameter name="PRA">9132</parameter><parameter name="PRL">5010</parameter><parameter name="P2A">1</parameter><parameter name="P2L">1</parameter><parameter name="P2R">1</parameter><parameter name="P2K">1</parameter><parameter name="DAQ">0</parameter><parameter name="AG2">1</parameter><parameter name="SSM">1</parameter><parameter name="RSN">46386</parameter><parameter name="CRR">0</parameter><parameter name="SRT">1705498891.805</parameter><parameter name="DUR">19.6449890136719</parameter><parameter name="TSC">30.9</parameter><parameter name="MVD">0.761986374855042</parameter><parameter name="AN1">0.225988126093478</parameter><parameter name="AN2">0</parameter><parameter name="VSN">2.485 Apr  4 2017</parameter><parameter name="SRN">0085</parameter><parameter name="CAM">0</parameter><parameter name="INS">IR-Biotyper</parameter><parameter name="FOC">69</parameter><parameter name="RDY">1</parameter><parameter name="ARS">32</parameter></Instrument_Parameters_Rf><Sample_Parameters_><parameter name="BLD"></parameter><parameter name="CNM">Admin</parameter><parameter name="CPY"></parameter><parameter name="DPM"></parameter><parameter name="EXP">IRBT_v3_32Scans.XPM</parameter><parameter name="LCT"></parameter><parameter name="SFM">Microplate, HTS-XT</parameter><parameter name="SNM">240117-1222-Cdiff_SCFA_1_C16_232117484_H10_e249bac8-8ed2-4c0b-abe6-3d32f5fd9b4e.0</parameter><parameter name="XPP">C:\Users\Public\Documents\Bruker\OPUS_8.2.28\XPM</parameter><parameter name="IST">OK</parameter><parameter name="CPG">1252</parameter><parameter name="UID">0e2f0da1-d400-4590-b1cf-99574ca21246</parameter></Sample_Parameters_><Instrument_Parameters_><parameter name="HFL">15801.365274</parameter><parameter name="LFL">0</parameter><parameter name="LWN">15801.365274</parameter><parameter name="ABP">32157</parameter><parameter name="SSP">1</parameter><parameter name="ASG">2</parameter><parameter name="ARG">2</parameter><parameter name="ASS">32</parameter><parameter name="GFW">16</parameter><parameter name="GBW">16</parameter><parameter name="BFW">0</parameter><parameter name="BBW">0</parameter><parameter name="PKA">10433</parameter><parameter name="PKL">4979</parameter><parameter name="PRA">10474</parameter><parameter name="PRL">5011</parameter><parameter name="P2A">1</parameter><parameter name="P2L">1</parameter><parameter name="P2R">1</parameter><parameter name="P2K">1</parameter><parameter name="DAQ">0</parameter><parameter name="AG2">1</parameter><parameter name="SSM">1</parameter><parameter name="RSN">23886</parameter><parameter name="CRR">0</parameter><parameter name="SRT">1705498918.15</parameter><parameter name="DUR">19.6449890136719</parameter><parameter name="TSC">30.9</parameter><parameter name="MVD">0.46582755446434</parameter><parameter name="AN1">0.226001092656737</parameter><parameter name="AN2">0</parameter><parameter name="VSN">2.485 Apr  4 2017</parameter><parameter name="SRN">0085</parameter><parameter name="CAM">0</parameter><parameter name="INS">IR-Biotyper</parameter><parameter name="FOC">69</parameter><parameter name="RDY">1</parameter></Instrument_Parameters_><History/></OPUSDataFile>
