<?xml version="1.0" encoding="UTF-8" ?>
<OPUSDataFile><AB><Ydata ylabel="Absorbance Units"><values byteorder="INTEL" format="FLOAT32" numvalues="3497"> -0.05590281 -0.05591495 -0.05591818 -0.0559121 -0.05589386 -0.05586705 -0.05583765 -0.05580945 -0.05579159 -0.05578315
 -0.05578795 -0.05579981 -0.05581611 -0.05583013 -0.05583734 -0.05583626 -0.0558247 -0.05580632 -0.05578138 -0.05575407
 -0.05572505 -0.05569686 -0.05566978 -0.05564522 -0.05562326 -0.05560458 -0.05558912 -0.0555767 -0.05556696 -0.05555807
 -0.05554929 -0.05553713 -0.05552135 -0.05549913 -0.05547225 -0.05544145 -0.05541028 -0.05538239 -0.05536117 -0.0553509
 -0.05535093 -0.05536323 -0.05538166 -0.05540539 -0.05542601 -0.05544118 -0.05544757 -0.0554438 -0.05543371 -0.0554175
 -0.05539884 -0.05537789 -0.05535222 -0.05532178 -0.05528414 -0.05524071 -0.05519743 -0.05515654 -0.05512922 -0.05511516
 -0.05512036 -0.0551405 -0.05517237 -0.0552101 -0.05524602 -0.05527692 -0.05529756 -0.05530855 -0.05530848 -0.0553001
 -0.05528389 -0.05526263 -0.05523685 -0.05520939 -0.05518067 -0.05515331 -0.05512768 -0.05510435 -0.05508332 -0.05506277
 -0.05504275 -0.05502317 -0.05500467 -0.05499096 -0.05498221 -0.05498178 -0.05498766 -0.05499758 -0.05500811 -0.05501257
 -0.05500975 -0.05499464 -0.05497085 -0.05493857 -0.05490433 -0.05487162 -0.05484448 -0.0548258 -0.05481424 -0.05481053
 -0.05480997 -0.05481215 -0.05481188 -0.05480852 -0.05480028 -0.05478702 -0.05477135 -0.05475355 -0.05473822 -0.05472502
 -0.05471451 -0.05470575 -0.05469535 -0.05468362 -0.05466877 -0.05465356 -0.05464191 -0.0546351 -0.05463784 -0.05464482
 -0.05465473 -0.05465882 -0.05465093 -0.05463015 -0.05459237 -0.05454972 -0.05450371 -0.05446751 -0.05444456 -0.05443371
 -0.05443579 -0.05443921 -0.05444335 -0.05444222 -0.05443624 -0.05443038 -0.0544248 -0.05442386 -0.05442512 -0.05442235
 -0.05441299 -0.05438558 -0.05434471 -0.05429083 -0.05423388 -0.05418695 -0.05415191 -0.05413648 -0.05413311 -0.05414037
 -0.0541497 -0.05415713 -0.0541597 -0.05415555 -0.05414613 -0.05413139 -0.05411293 -0.05409095 -0.05406564 -0.05403702
 -0.05400575 -0.05397194 -0.05393692 -0.05390103 -0.05386664 -0.05383475 -0.05381009 -0.05379368 -0.05379092 -0.05380061
 -0.0538244 -0.05385726 -0.05389486 -0.05393064 -0.05395768 -0.05397306 -0.05397208 -0.05395873 -0.05393275 -0.05390088
 -0.05386464 -0.0538294 -0.0537962 -0.05376868 -0.05374741 -0.05373359 -0.05372738 -0.05372523 -0.05372662 -0.05372316
 -0.05371456 -0.05369408 -0.05366343 -0.05362461 -0.05358097 -0.05354221 -0.05350941 -0.05349031 -0.05348054 -0.05347873
 -0.05347856 -0.05347367 -0.05346243 -0.0534406 -0.05341429 -0.05338445 -0.05335808 -0.05333803 -0.053324 -0.05331723
 -0.05330999 -0.05330175 -0.05328426 -0.05325691 -0.05321813 -0.05316838 -0.0531151 -0.05305938 -0.05301236 -0.05297389
 -0.05294989 -0.05293813 -0.05293631 -0.05294151 -0.05294766 -0.05295267 -0.05295141 -0.05294367 -0.05292698 -0.05290367
 -0.05287367 -0.05284166 -0.05280921 -0.05278052 -0.05275732 -0.05274033 -0.05273024 -0.05272477 -0.05272386 -0.0527247
 -0.05272712 -0.05272834 -0.05272831 -0.05272565 -0.05272069 -0.05271536 -0.05270923 -0.05270238 -0.05269249 -0.05267294
 -0.05264342 -0.05259836 -0.05254368 -0.05248396 -0.0524258 -0.05237769 -0.05233923 -0.05231334 -0.05229532 -0.05228372
 -0.05227581 -0.05227062 -0.05226663 -0.05226395 -0.05225791 -0.05224806 -0.0522304 -0.05220451 -0.05217358 -0.05213799
 -0.05210527 -0.05207542 -0.05205239 -0.05203496 -0.05202033 -0.05200734 -0.05199126 -0.05197226 -0.05194828 -0.05192056
 -0.05188974 -0.05185726 -0.0518245 -0.05179267 -0.05176295 -0.05173561 -0.05171121 -0.05168894 -0.05166877 -0.05164956
 -0.05163117 -0.05161222 -0.05159275 -0.05156963 -0.05154271 -0.05150766 -0.05146446 -0.05141305 -0.05135435 -0.05129525
 -0.05123653 -0.05118589 -0.0511419 -0.051105 -0.05107249 -0.05103891 -0.05100429 -0.05096561 -0.05092607 -0.05088783
 -0.05085221 -0.05082135 -0.05079307 -0.05076723 -0.05074083 -0.05071304 -0.05068157 -0.05064582 -0.05060469 -0.05055781
 -0.05050648 -0.05045075 -0.05039288 -0.05033298 -0.05027227 -0.05021076 -0.05014887 -0.05008677 -0.05002547 -0.04996493
 -0.04990575 -0.04984742 -0.04978924 -0.04973081 -0.04967119 -0.04961049 -0.0495482 -0.04948543 -0.04942247 -0.04936111
 -0.04930243 -0.04924672 -0.04919501 -0.04914355 -0.04909213 -0.04903528 -0.04897207 -0.04890125 -0.04882252 -0.04874
 -0.04865389 -0.04856866 -0.04848429 -0.0484027 -0.04832372 -0.04824766 -0.04817427 -0.04810278 -0.04803348 -0.04796659
 -0.04790227 -0.04784181 -0.0477824 -0.04772305 -0.04765765 -0.04758109 -0.0474926 -0.04738808 -0.04727867 -0.04716652
 -0.0470621 -0.04696929 -0.04688472 -0.04680912 -0.04673165 -0.04665145 -0.04656345 -0.04646765 -0.04636859 -0.04626681
 -0.04616904 -0.04607503 -0.04598729 -0.04590488 -0.04582618 -0.04575076 -0.04567697 -0.0456049 -0.04553427 -0.04546449
 -0.04539552 -0.04532497 -0.04525134 -0.04517258 -0.04508686 -0.04499539 -0.04489763 -0.04479755 -0.04469575 -0.04459571
 -0.04449806 -0.04440389 -0.0443134 -0.04422542 -0.04413983 -0.04405402 -0.04396785 -0.04387891 -0.0437873 -0.04369235
 -0.04359433 -0.04349369 -0.04339078 -0.04328647 -0.04318119 -0.04307571 -0.04297089 -0.04286771 -0.04276709 -0.04266995
 -0.04257669 -0.04248798 -0.04240287 -0.04232169 -0.04224137 -0.0421616 -0.04207848 -0.04199133 -0.0418987 -0.04180032
 -0.04169787 -0.04159148 -0.04148469 -0.04137775 -0.04127453 -0.04117524 -0.0410834 -0.04099815 -0.04091929 -0.04084435
 -0.04076811 -0.04068874 -0.04060047 -0.04050506 -0.04040134 -0.04029388 -0.04018546 -0.04007952 -0.03997894 -0.03988319
 -0.03979296 -0.03970591 -0.03962163 -0.03953851 -0.03945631 -0.03937362 -0.03929035 -0.03920432 -0.03911546 -0.03902311
 -0.03892766 -0.03883258 -0.03873815 -0.03864815 -0.03856164 -0.03847781 -0.03839549 -0.03831142 -0.0382259 -0.03813786
 -0.03804824 -0.03795812 -0.03786671 -0.03777395 -0.03767861 -0.03757946 -0.03747819 -0.03737442 -0.0372728 -0.0371741
 -0.03708271 -0.03699962 -0.03692556 -0.03686098 -0.03680031 -0.03674321 -0.03667953 -0.03660906 -0.03652532 -0.03642962
 -0.03632506 -0.03621393 -0.03610559 -0.03600071 -0.03590596 -0.03581915 -0.0357403 -0.03566585 -0.03559208 -0.03551644
 -0.03543529 -0.03534967 -0.03525853 -0.03516568 -0.03507221 -0.03498073 -0.03489259 -0.03480575 -0.03472032 -0.03463248
 -0.03454175 -0.03444795 -0.03435109 -0.03425469 -0.03415902 -0.03406825 -0.03398217 -0.03390202 -0.03382694 -0.03375494
 -0.03368491 -0.03361338 -0.03353984 -0.03346173 -0.03337979 -0.03329351 -0.03320468 -0.0331143 -0.03302415 -0.03293541
 -0.03284902 -0.03276565 -0.03268535 -0.03260837 -0.0325339 -0.03246189 -0.0323915 -0.03232269 -0.03225427 -0.03218618
 -0.03211701 -0.03204678 -0.03197531 -0.03190303 -0.03183228 -0.0317634 -0.03169916 -0.0316389 -0.03158275 -0.0315294
 -0.03147665 -0.03142424 -0.0313708 -0.03131729 -0.03126412 -0.03121155 -0.03116012 -0.03110871 -0.03105705 -0.03100436
 -0.03095025 -0.03089525 -0.03083932 -0.03078317 -0.03072681 -0.03067129 -0.03061669 -0.0305657 -0.03051842 -0.03047712
 -0.03044136 -0.03041005 -0.03038218 -0.03035349 -0.03032382 -0.03029036 -0.03025423 -0.03021601 -0.03017651 -0.03013724
 -0.03009747 -0.03005703 -0.03001559 -0.02997247 -0.02992926 -0.02988638 -0.02984503 -0.02980597 -0.02976765 -0.02972992
 -0.02969143 -0.02965177 -0.02961431 -0.02957922 -0.02955104 -0.02952965 -0.02951453 -0.02950498 -0.02949619 -0.02948831
 -0.02947915 -0.02946981 -0.02946226 -0.02945615 -0.02945235 -0.02944854 -0.02944221 -0.02943206 -0.02941551 -0.02939449
 -0.02936888 -0.02934233 -0.02931615 -0.02929292 -0.02927362 -0.02925901 -0.02924953 -0.0292438 -0.02924183 -0.02924073
 -0.0292403 -0.02923842 -0.02923512 -0.02923053 -0.02922499 -0.0292207 -0.02921789 -0.02921859 -0.02922268 -0.02923114
 -0.02924311 -0.02925768 -0.02927389 -0.02929012 -0.02930607 -0.02932102 -0.02933468 -0.02934708 -0.02935656 -0.02936231
 -0.02936397 -0.02936046 -0.02935634 -0.02935177 -0.02935372 -0.02936318 -0.02938144 -0.02940872 -0.02943753 -0.02946743
 -0.02948984 -0.02950527 -0.0295124 -0.02951294 -0.02951267 -0.02951269 -0.0295192 -0.02953109 -0.02954985 -0.02957246
 -0.02959616 -0.02961771 -0.02963311 -0.02964196 -0.0296421 -0.02963715 -0.02962754 -0.02961844 -0.02961161 -0.02960875
 -0.02961087 -0.02961511 -0.02962132 -0.02962672 -0.02963108 -0.02963543 -0.02963983 -0.02964597 -0.02965328 -0.02965894
 -0.02966175 -0.02965489 -0.02963898 -0.029611 -0.029575 -0.02953611 -0.02949936 -0.02947366 -0.02946002 -0.02946399
 -0.02947946 -0.02950581 -0.02953281 -0.02955616 -0.02956955 -0.02956921 -0.02955872 -0.02953701 -0.02951599 -0.0294966
 -0.0294902 -0.02949767 -0.02952136 -0.02956085 -0.02960768 -0.02966077 -0.02970816 -0.02974994 -0.02977943 -0.02979884
 -0.02981025 -0.02981642 -0.02982344 -0.02983255 -0.02984802 -0.02986934 -0.02989762 -0.02993166 -0.02997129 -0.03001472
 -0.0300615 -0.03010905 -0.03015652 -0.03020257 -0.03024643 -0.03029038 -0.03033435 -0.03038323 -0.03043738 -0.03049934
 -0.03056894 -0.03064276 -0.03072005 -0.03079354 -0.03086315 -0.03092423 -0.03097827 -0.03102665 -0.03107145 -0.03111745
 -0.03116507 -0.03121732 -0.03127242 -0.03133005 -0.03138781 -0.03144401 -0.03149768 -0.03154757 -0.03159533 -0.03164073
 -0.03168764 -0.03173675 -0.03179077 -0.03185051 -0.03191327 -0.03197908 -0.03204001 -0.03209573 -0.03213977 -0.03217281
 -0.03219659 -0.03221302 -0.03223123 -0.03225231 -0.03228476 -0.03232678 -0.03237975 -0.03243953 -0.03250134 -0.03256209
 -0.03261657 -0.03266566 -0.03270796 -0.03274658 -0.03278263 -0.03281795 -0.03285365 -0.03288881 -0.03292348 -0.03295631
 -0.03298704 -0.03301593 -0.03304297 -0.03306935 -0.03309507 -0.03312025 -0.03314472 -0.03316711 -0.03318749 -0.03320501
 -0.03322072 -0.03323693 -0.03325496 -0.03327886 -0.03330813 -0.03334447 -0.03338508 -0.03342791 -0.03347086 -0.03351152
 -0.03355046 -0.03358727 -0.03362319 -0.03365875 -0.03369347 -0.03372726 -0.03375992 -0.03379121 -0.03382294 -0.03385519
 -0.03388943 -0.03392566 -0.03396323 -0.03400209 -0.03404128 -0.03408101 -0.03412183 -0.0341637 -0.03420707 -0.03425095
 -0.03429366 -0.03433426 -0.03437036 -0.03440276 -0.03443086 -0.03445727 -0.03448331 -0.03451152 -0.03454365 -0.03457982
 -0.03462084 -0.03466417 -0.03470961 -0.03475383 -0.03479633 -0.03483523 -0.03487031 -0.03490192 -0.03493014 -0.0349566
 -0.03498143 -0.03500631 -0.03503128 -0.03505747 -0.0350849 -0.0351143 -0.03514557 -0.03517886 -0.03521385 -0.03525029
 -0.03528756 -0.03532492 -0.03536227 -0.03539912 -0.03543633 -0.03547439 -0.03551307 -0.0355529 -0.03559114 -0.03562737
 -0.03565912 -0.03568557 -0.03570941 -0.0357306 -0.03575597 -0.03578575 -0.0358224 -0.03586511 -0.03590741 -0.03594815
 -0.0359777 -0.03599707 -0.03600335 -0.03600012 -0.03599326 -0.03598571 -0.03598499 -0.03599001 -0.03600327 -0.03602038
 -0.03603901 -0.03605619 -0.03606922 -0.03607962 -0.03608681 -0.0360949 -0.03610469 -0.03611903 -0.0361385 -0.03616367
 -0.03619468 -0.03623042 -0.03627079 -0.03631332 -0.03635767 -0.03639958 -0.0364387 -0.03647088 -0.03649652 -0.0365144
 -0.03652583 -0.03653281 -0.03653675 -0.03654055 -0.03654515 -0.03655262 -0.03656317 -0.03657785 -0.03659547 -0.03661596
 -0.03663726 -0.03665872 -0.03667865 -0.03669621 -0.03671273 -0.03672811 -0.03674532 -0.03676461 -0.03678802 -0.03681561
 -0.03684689 -0.03688169 -0.03691822 -0.03695626 -0.0369937 -0.03703045 -0.0370649 -0.03709757 -0.03712859 -0.03715903
 -0.03719056 -0.0372237 -0.03725995 -0.03729831 -0.03733839 -0.03737983 -0.03742201 -0.03746621 -0.03751297 -0.03756218
 -0.0376146 -0.03766586 -0.03771571 -0.03775843 -0.03779337 -0.03781869 -0.03783436 -0.03784461 -0.03785 -0.03785819
 -0.03786962 -0.03789117 -0.03792184 -0.03796273 -0.03801105 -0.03806141 -0.03811117 -0.03815322 -0.03818848 -0.03821433
 -0.03823528 -0.03825384 -0.03827334 -0.03829699 -0.03832309 -0.03835221 -0.03838035 -0.03840655 -0.03842904 -0.03844722
 -0.038462 -0.03847342 -0.03848219 -0.03848832 -0.03849208 -0.03849357 -0.03849397 -0.0384935 -0.03849405 -0.03849546
 -0.03849817 -0.03850186 -0.03850593 -0.0385106 -0.03851613 -0.03852236 -0.03852982 -0.03853633 -0.03854078 -0.03854029
 -0.03853254 -0.03851807 -0.03849611 -0.03846974 -0.03843982 -0.03840703 -0.03837194 -0.03833154 -0.03828549 -0.03823294
 -0.03817385 -0.03811352 -0.03805233 -0.03799707 -0.03794708 -0.0379027 -0.03786179 -0.03781703 -0.03776716 -0.03770461
 -0.03763195 -0.03754899 -0.03746106 -0.03737419 -0.03729162 -0.03721896 -0.03715337 -0.03709565 -0.03703976 -0.03698349
 -0.03692381 -0.03685895 -0.03679129 -0.03672064 -0.03665161 -0.03658459 -0.03652311 -0.03646737 -0.03641856 -0.03637669
 -0.03634205 -0.03631468 -0.03629497 -0.03628296 -0.03627927 -0.0362834 -0.03629487 -0.03631235 -0.03633397 -0.03635733
 -0.03637933 -0.03639719 -0.0364077 -0.03640933 -0.03639981 -0.03638089 -0.03635224 -0.03631771 -0.03627821 -0.03623626
 -0.03619263 -0.03614685 -0.03609891 -0.03604862 -0.03599596 -0.03594352 -0.03589149 -0.03584307 -0.03579827 -0.0357587
 -0.03572408 -0.03569419 -0.03566884 -0.03564722 -0.03562974 -0.03561622 -0.03560834 -0.03560737 -0.03561645 -0.03563875
 -0.0356754 -0.03572882 -0.03579552 -0.03587534 -0.03596271 -0.03605574 -0.03615326 -0.0362542 -0.03636299 -0.03648001
 -0.03660867 -0.03674924 -0.03689799 -0.03705433 -0.03720833 -0.03735935 -0.03749804 -0.03762481 -0.03773582 -0.03783253
 -0.03791631 -0.03798883 -0.0380535 -0.03811151 -0.03816544 -0.03821639 -0.038266 -0.03831518 -0.03836493 -0.03841539
 -0.03846715 -0.03851878 -0.03857039 -0.03861878 -0.03866355 -0.03870164 -0.0387326 -0.03875566 -0.03877073 -0.03877947
 -0.03878205 -0.03878092 -0.03877614 -0.0387693 -0.0387605 -0.03875095 -0.03874074 -0.03873054 -0.0387206 -0.03871122
 -0.03870393 -0.0387002 -0.03870277 -0.03871473 -0.03873665 -0.03877104 -0.03881269 -0.03886089 -0.03890819 -0.03895204
 -0.03898995 -0.03902058 -0.03904706 -0.03906962 -0.03909032 -0.03910936 -0.0391247 -0.03913628 -0.03914231 -0.03914346
 -0.03914287 -0.03914219 -0.03914922 -0.0391659 -0.03920127 -0.03925607 -0.0393368 -0.03944036 -0.03956719 -0.03970915
 -0.03986074 -0.04001186 -0.04015493 -0.04028436 -0.0403953 -0.04048911 -0.04056455 -0.04062734 -0.04067819 -0.0407221
 -0.04075972 -0.04079393 -0.04082495 -0.0408542 -0.04088168 -0.04090772 -0.04093214 -0.04095391 -0.04097285 -0.04098755
 -0.04099848 -0.04100595 -0.04101112 -0.04101618 -0.0410221 -0.04103112 -0.04104332 -0.0410598 -0.04107938 -0.04110193
 -0.04112552 -0.04114957 -0.0411719 -0.04119165 -0.04120826 -0.0412212 -0.04123227 -0.04124156 -0.04125097 -0.04126066
 -0.04127056 -0.04128058 -0.04128892 -0.04129562 -0.04129989 -0.04130232 -0.04130479 -0.04130803 -0.04131524 -0.04132632
 -0.0413431 -0.04136385 -0.04138745 -0.04141147 -0.04143329 -0.04145169 -0.04146473 -0.04147359 -0.04147802 -0.04148052
 -0.04148173 -0.04148355 -0.0414866 -0.04149088 -0.04149665 -0.04150145 -0.04150513 -0.04150486 -0.04150059 -0.0414924
 -0.0414807 -0.04146911 -0.04145788 -0.04145029 -0.04144575 -0.04144429 -0.0414453 -0.04144723 -0.04145081 -0.04145633
 -0.04146453 -0.04147683 -0.04149143 -0.04150828 -0.04152349 -0.04153516 -0.04154151 -0.04154108 -0.04153603 -0.04152634
 -0.04151516 -0.04150301 -0.0414906 -0.04147808 -0.04146453 -0.04144994 -0.04143446 -0.04141818 -0.04140198 -0.04138583
 -0.04136994 -0.04135447 -0.04133973 -0.04132658 -0.0413168 -0.04131112 -0.04131174 -0.04131767 -0.04132919 -0.04134391
 -0.04136054 -0.04137675 -0.04139115 -0.04140263 -0.04141063 -0.04141444 -0.04141377 -0.04140872 -0.04139912 -0.04138673
 -0.0413716 -0.04135722 -0.04134376 -0.04133462 -0.04132978 -0.04133096 -0.04133761 -0.04134837 -0.04136219 -0.0413753
 -0.04138707 -0.04139419 -0.0413973 -0.04139561 -0.04139085 -0.04138445 -0.0413775 -0.0413714 -0.04136575 -0.04136074
 -0.04135562 -0.04135 -0.0413442 -0.04133796 -0.04133353 -0.0413311 -0.04133319 -0.04134012 -0.04135125 -0.04136642
 -0.0413803 -0.04139245 -0.0413964 -0.04139265 -0.04137959 -0.04135907 -0.04133565 -0.04131084 -0.04129029 -0.04127373
 -0.04126334 -0.04125779 -0.04125655 -0.04125849 -0.04126285 -0.04126833 -0.04127454 -0.04127901 -0.04128092 -0.04127849
 -0.0412708 -0.04125936 -0.04124398 -0.04122865 -0.04121368 -0.04120174 -0.04119292 -0.04118693 -0.04118363 -0.04118168
 -0.04118115 -0.04118186 -0.04118378 -0.04118695 -0.04119084 -0.04119452 -0.04119713 -0.04119683 -0.04119369 -0.04118676
 -0.04117733 -0.04116573 -0.04115386 -0.04114269 -0.04113341 -0.04112675 -0.04112258 -0.04112126 -0.0411207 -0.0411208
 -0.04111858 -0.04111376 -0.04110539 -0.04109348 -0.04108084 -0.04106782 -0.04105921 -0.04105489 -0.04105714 -0.04106476
 -0.04107539 -0.04108746 -0.04109623 -0.04110134 -0.04109982 -0.04109293 -0.04108073 -0.04106479 -0.0410463 -0.04102609
 -0.04100469 -0.04098312 -0.04096132 -0.04094223 -0.0409265 -0.04091631 -0.04091244 -0.04091268 -0.04091705 -0.04092062
 -0.04092317 -0.04092244 -0.04091874 -0.04091473 -0.04091049 -0.0409082 -0.040907 -0.04090504 -0.04090202 -0.04089572
 -0.04088799 -0.04088059 -0.04087526 -0.04087551 -0.04087906 -0.04088633 -0.04089197 -0.04089307 -0.04088755 -0.04087308
 -0.04085371 -0.04082958 -0.04080616 -0.04078446 -0.0407663 -0.04075205 -0.04074022 -0.04073076 -0.04072214 -0.04071436
 -0.04070676 -0.04069945 -0.04069246 -0.040686 -0.04068076 -0.04067674 -0.04067448 -0.04067333 -0.04067251 -0.04067156
 -0.04066968 -0.04066655 -0.04066174 -0.04065502 -0.04064609 -0.04063507 -0.04062156 -0.04060754 -0.0405933 -0.04058082
 -0.04057073 -0.04056192 -0.04055449 -0.0405447 -0.04053237 -0.04051617 -0.04049639 -0.04047623 -0.04045597 -0.04043923
 -0.0404255 -0.04041508 -0.0404072 -0.04040008 -0.0403936 -0.04038686 -0.04037974 -0.04037206 -0.04036298 -0.0403518
 -0.04033808 -0.04032087 -0.04030203 -0.04028147 -0.04026324 -0.0402484 -0.04023921 -0.04023671 -0.04023767 -0.04024214
 -0.04024363 -0.04024179 -0.04023305 -0.04021772 -0.04019846 -0.04017596 -0.04015573 -0.04013772 -0.04012497 -0.04011643
 -0.04011127 -0.0401084 -0.04010556 -0.04010243 -0.04009773 -0.04009174 -0.0400842 -0.04007569 -0.04006636 -0.04005694
 -0.04004769 -0.04003932 -0.04003218 -0.04002602 -0.04002095 -0.04001605 -0.04001128 -0.04000562 -0.03999902 -0.03999112
 -0.03998195 -0.03997184 -0.03996086 -0.0399496 -0.03993798 -0.03992612 -0.03991384 -0.0399005 -0.03988681 -0.03987332
 -0.03986152 -0.03985346 -0.03984971 -0.03985218 -0.03985818 -0.03986719 -0.03987546 -0.03988112 -0.03988334 -0.03988125
 -0.03987669 -0.03986993 -0.03986158 -0.03985182 -0.03983932 -0.03982399 -0.03980614 -0.03978597 -0.0397663 -0.03974729
 -0.0397315 -0.03971861 -0.03970883 -0.03970147 -0.03969496 -0.03968858 -0.03968025 -0.03966995 -0.0396565 -0.03964114
 -0.03962424 -0.03960762 -0.03959264 -0.03957948 -0.03956889 -0.03955903 -0.03954957 -0.03953888 -0.03952651 -0.03951227
 -0.03949605 -0.03947854 -0.03945979 -0.03944133 -0.03942329 -0.03940789 -0.03939518 -0.03938694 -0.03938262 -0.0393814
 -0.03938233 -0.03938255 -0.03938165 -0.03937734 -0.03937035 -0.03936051 -0.0393489 -0.03933639 -0.03932371 -0.03931165
 -0.03930007 -0.03928924 -0.03927816 -0.03926666 -0.03925374 -0.03923904 -0.03922318 -0.03920607 -0.03918965 -0.03917403
 -0.03915993 -0.03914725 -0.03913431 -0.03912111 -0.03910653 -0.03909099 -0.03907555 -0.03906034 -0.03904647 -0.03903348
 -0.03902104 -0.03900871 -0.03899565 -0.03898218 -0.03896822 -0.03895433 -0.03894082 -0.03892794 -0.03891578 -0.0389047
 -0.0388949 -0.0388863 -0.03887909 -0.03887199 -0.03886495 -0.03885619 -0.03884561 -0.038832 -0.03881536 -0.03879521
 -0.03877174 -0.03874579 -0.03871804 -0.03869167 -0.0386673 -0.0386485 -0.03863459 -0.03862638 -0.03862191 -0.03861905
 -0.0386165 -0.03861216 -0.03860623 -0.03859821 -0.03858879 -0.03857835 -0.03856654 -0.03855336 -0.0385384 -0.03852144
 -0.03850325 -0.03848375 -0.03846523 -0.03844782 -0.0384333 -0.03842161 -0.03841146 -0.03840261 -0.03839235 -0.03838116
 -0.03836953 -0.03835825 -0.03835041 -0.03834458 -0.03834025 -0.03833414 -0.03832119 -0.03830124 -0.03827099 -0.03823584
 -0.03819778 -0.03816222 -0.03813249 -0.03810908 -0.03809321 -0.03808212 -0.03807561 -0.03807087 -0.03806764 -0.03806323
 -0.03805744 -0.03804819 -0.03803543 -0.03801861 -0.0379981 -0.03797664 -0.03795464 -0.03793563 -0.0379191 -0.03790589
 -0.03789444 -0.03788203 -0.03786813 -0.03785027 -0.03783041 -0.03780959 -0.03778908 -0.03777101 -0.03775217 -0.03773206
 -0.03770655 -0.03767341 -0.03763481 -0.03759 -0.03754686 -0.03750632 -0.03747324 -0.03744819 -0.0374277 -0.03741146
 -0.03739245 -0.03737067 -0.03734271 -0.03730963 -0.0372742 -0.03723767 -0.03720526 -0.0371769 -0.03715524 -0.03713874
 -0.0371265 -0.03711697 -0.03710825 -0.03709997 -0.03709146 -0.03708233 -0.0370725 -0.03706064 -0.03704637 -0.03702862
 -0.0370068 -0.03698259 -0.03695592 -0.03693036 -0.03690619 -0.03688498 -0.0368667 -0.03684874 -0.03683085 -0.03680937
 -0.03678486 -0.03675765 -0.03672908 -0.03670342 -0.0366809 -0.03666462 -0.03665243 -0.03664292 -0.03663363 -0.03662116
 -0.03660588 -0.03658646 -0.03656567 -0.03654465 -0.03652458 -0.03650644 -0.03648864 -0.03647099 -0.0364522 -0.03643187
 -0.03641145 -0.03639099 -0.03637251 -0.03635606 -0.036341 -0.03632715 -0.03631248 -0.03629713 -0.03628056 -0.03626302
 -0.03624513 -0.03622647 -0.03620654 -0.03618486 -0.03616009 -0.03613323 -0.03610432 -0.0360757 -0.03604914 -0.03602559
 -0.03600645 -0.03598988 -0.03597585 -0.03596153 -0.03594617 -0.03592888 -0.03590932 -0.03588875 -0.03586725 -0.03584615
 -0.03582548 -0.03580516 -0.03578509 -0.03576433 -0.03574293 -0.03572064 -0.03569766 -0.03567449 -0.03565107 -0.03562763
 -0.03560357 -0.0355781 -0.03555077 -0.0355205 -0.03548824 -0.0354538 -0.03541984 -0.03538738 -0.03535894 -0.03533579
 -0.03531805 -0.03530644 -0.03529765 -0.03529156 -0.03528348 -0.03527294 -0.03525784 -0.03523814 -0.03521567 -0.03519069
 -0.03516674 -0.03514372 -0.03512307 -0.03510432 -0.03508683 -0.03507006 -0.03505258 -0.03503422 -0.03501404 -0.03499226
 -0.03496865 -0.03494389 -0.03491813 -0.03489276 -0.03486855 -0.03484622 -0.03482641 -0.03480834 -0.03479212 -0.03477602
 -0.03475978 -0.03474253 -0.03472413 -0.03470545 -0.03468653 -0.03466818 -0.03465027 -0.03463163 -0.03461207 -0.03458969
 -0.03456478 -0.03453721 -0.03450766 -0.03447761 -0.03444736 -0.03441801 -0.0343896 -0.03436247 -0.03433687 -0.034313
 -0.03429126 -0.03427233 -0.03425469 -0.03423837 -0.03422029 -0.03419967 -0.03417505 -0.03414571 -0.03411442 -0.03408118
 -0.03405134 -0.03402516 -0.03400532 -0.03399145 -0.03398045 -0.0339715 -0.03395837 -0.03394097 -0.03391515 -0.03388255
 -0.03384437 -0.03380323 -0.03376371 -0.03372737 -0.03369822 -0.03367477 -0.03365795 -0.03364343 -0.03362952 -0.03361225
 -0.03358942 -0.03356101 -0.03352598 -0.03348888 -0.03344996 -0.03341483 -0.03338409 -0.03336047 -0.03334408 -0.03333277
 -0.03332606 -0.03331799 -0.03330819 -0.03329103 -0.0332671 -0.03323488 -0.03319601 -0.03315331 -0.03310829 -0.0330647
 -0.03302277 -0.03298433 -0.0329485 -0.03291551 -0.03288338 -0.03285142 -0.03281733 -0.03278003 -0.0327386 -0.03269228
 -0.03264288 -0.03259049 -0.03253755 -0.03248445 -0.03243062 -0.03237605 -0.0323176 -0.03225516 -0.03218637 -0.03211128
 -0.03202906 -0.03193964 -0.0318423 -0.03173707 -0.03162347 -0.03150217 -0.03137394 -0.03123971 -0.03110098 -0.03095771
 -0.03081046 -0.03065863 -0.03050171 -0.03034055 -0.03017484 -0.03000755 -0.02983901 -0.02967324 -0.02951076 -0.02935531
 -0.02920727 -0.02906913 -0.02894106 -0.02882345 -0.02871625 -0.02861855 -0.0285304 -0.02845157 -0.0283826 -0.0283252
 -0.02827994 -0.02824908 -0.02823258 -0.02823139 -0.0282452 -0.02827393 -0.02831755 -0.02837628 -0.02844908 -0.02853616
 -0.02863413 -0.02874227 -0.02885614 -0.02897436 -0.02909504 -0.02921743 -0.02934279 -0.02947115 -0.02960409 -0.02974171
 -0.02988331 -0.03002865 -0.03017449 -0.03032039 -0.03046208 -0.03059925 -0.03072843 -0.03084983 -0.03096209 -0.03106583
 -0.03116147 -0.03124944 -0.03133028 -0.03140453 -0.03147259 -0.03153541 -0.03159355 -0.03164794 -0.03169925 -0.03174698
 -0.03179125 -0.03183088 -0.03186561 -0.03189551 -0.0319205 -0.03194165 -0.03195902 -0.03197287 -0.03198312 -0.03198886
 -0.0319901 -0.0319864 -0.03197811 -0.03196613 -0.03195092 -0.03193403 -0.03191562 -0.03189664 -0.03187706 -0.03185722
 -0.03183695 -0.03181606 -0.03179485 -0.03177335 -0.03175196 -0.03173084 -0.03171019 -0.03169023 -0.03167043 -0.03165083
 -0.03163053 -0.03160941 -0.03158717 -0.03156376 -0.03153997 -0.03151589 -0.03149268 -0.0314703 -0.03144905 -0.03142871
 -0.03140857 -0.03138846 -0.03136762 -0.03134597 -0.03132299 -0.03129872 -0.03127283 -0.03124607 -0.03121872 -0.0311921
 -0.03116704 -0.03114446 -0.03112528 -0.03110834 -0.03109378 -0.03107909 -0.03106383 -0.0310465 -0.03102678 -0.03100521
 -0.03098179 -0.03095757 -0.03093255 -0.0309068 -0.03088033 -0.03085331 -0.03082588 -0.03079871 -0.03077185 -0.0307459
 -0.03072048 -0.03069512 -0.03066954 -0.03064291 -0.03061589 -0.03058865 -0.03056219 -0.03053737 -0.03051407 -0.03049276
 -0.03047185 -0.03045113 -0.03042863 -0.0304039 -0.03037609 -0.03034489 -0.03031173 -0.03027667 -0.0302428 -0.03021029
 -0.03018207 -0.03015796 -0.03013814 -0.03012201 -0.03010726 -0.03009344 -0.03007814 -0.0300615 -0.03004265 -0.03002191
 -0.02999942 -0.02997528 -0.02994964 -0.02992256 -0.029894 -0.02986435 -0.02983364 -0.02980266 -0.02977166 -0.02974109
 -0.02971115 -0.02968137 -0.02965177 -0.02962137 -0.02959009 -0.02955799 -0.02952516 -0.02949394 -0.02946443 -0.0294387
 -0.02941637 -0.02939707 -0.02937988 -0.0293621 -0.02934331 -0.02932138 -0.02929666 -0.0292687 -0.02923808 -0.02920517
 -0.02917046 -0.02913401 -0.02909736 -0.02906088 -0.02902683 -0.02899606 -0.02896928 -0.02894714 -0.02892718 -0.02890933
 -0.02889 -0.02886891 -0.02884483 -0.02881785 -0.02879018 -0.02876202 -0.02873599 -0.0287118 -0.02868981 -0.02866912
 -0.02864729 -0.02862382 -0.02859627 -0.0285655 -0.02853131 -0.0284956 -0.02846014 -0.02842601 -0.02839478 -0.02836549
 -0.02833829 -0.02831144 -0.02828441 -0.02825633 -0.02822684 -0.02819604 -0.02816383 -0.02813091 -0.0280973 -0.02806392
 -0.02803082 -0.02799853 -0.02796701 -0.02793605 -0.02790553 -0.02787482 -0.02784367 -0.02781102 -0.02777685 -0.02774026
 -0.02770218 -0.02766313 -0.02762502 -0.02759005 -0.0275588 -0.02753306 -0.02751013 -0.02748971 -0.02746788 -0.02744335
 -0.02741398 -0.02737879 -0.02733892 -0.0272942 -0.02724769 -0.02719955 -0.02715353 -0.02710976 -0.02707052 -0.02703564
 -0.02700472 -0.02697727 -0.02695087 -0.02692513 -0.02689773 -0.02686841 -0.02683542 -0.02679916 -0.02675907 -0.02671681
 -0.02667356 -0.02663126 -0.02659186 -0.02655518 -0.02652211 -0.02649005 -0.02645838 -0.02642506 -0.02638927 -0.02635185
 -0.02631262 -0.0262742 -0.02623679 -0.02620213 -0.02617025 -0.02614055 -0.02611278 -0.02608448 -0.02605542 -0.0260233
 -0.02598821 -0.0259492 -0.02590658 -0.02586042 -0.02581124 -0.02575959 -0.02570644 -0.02565288 -0.02559963 -0.02554764
 -0.02549678 -0.02544738 -0.02539862 -0.02535019 -0.02530205 -0.02525405 -0.02520669 -0.02516012 -0.0251137 -0.02506743
 -0.02501963 -0.02497022 -0.02491847 -0.02486454 -0.02480965 -0.02475391 -0.02469868 -0.02464352 -0.02458775 -0.02453097
 -0.02447175 -0.02441065 -0.02434771 -0.02428393 -0.02422057 -0.02415744 -0.02409527 -0.02403217 -0.02396761 -0.02389967
 -0.02382739 -0.02375081 -0.02366947 -0.02358561 -0.02349935 -0.02341365 -0.02332875 -0.02324673 -0.02316765 -0.02309142
 -0.02301791 -0.02294591 -0.02287538 -0.02280561 -0.02273641 -0.02266712 -0.02259673 -0.02252285 -0.02244439 -0.02235824
 -0.02226529 -0.02216442 -0.02205946 -0.0219527 -0.02184711 -0.02174553 -0.02164622 -0.02154975 -0.02145161 -0.02135093
 -0.02124454 -0.02113175 -0.02101191 -0.02088487 -0.02075073 -0.02060948 -0.02046137 -0.02030661 -0.02014754 -0.0199846
 -0.01982182 -0.01965838 -0.01949423 -0.01932739 -0.01915315 -0.01897116 -0.01877827 -0.01857641 -0.01836691 -0.01815002
 -0.01792794 -0.01769495 -0.01744971 -0.01718426 -0.01689455 -0.01658068 -0.01624013 -0.0158853 -0.01551695 -0.01515052
 -0.01478754 -0.01443631 -0.01409726 -0.01377128 -0.01345792 -0.0131531 -0.01285552 -0.01255625 -0.01225411 -0.01193897
 -0.01161381 -0.01127852 -0.01094086 -0.01061364 -0.01029956 -0.01000861 -0.009733924 -0.009473773 -0.009221519 -0.008972082
 -0.008726589 -0.008483434 -0.008248834 -0.008024254 -0.007812281 -0.007613789 -0.007427454 -0.007253229 -0.007090166 -0.006938214
 -0.006796733 -0.006665697 -0.006544294 -0.006432932 -0.006333335 -0.006246223 -0.006175326 -0.006120197 -0.006082118 -0.006059241
 -0.006049629 -0.00605071 -0.006058767 -0.006072775 -0.006090586 -0.006112721 -0.006139136 -0.006169554 -0.006204105 -0.006241467
 -0.006281318 -0.006322943 -0.006366105 -0.006411142 -0.006458062 -0.006507148 -0.006558417 -0.006612425 -0.00666938 -0.006731974
 -0.006800574 -0.006878847 -0.00696662 -0.007065369 -0.007174414 -0.007293021 -0.007420383 -0.007555205 -0.007696086 -0.007841735
 -0.007988842 -0.008135176 -0.008276122 -0.008408907 -0.008529874 -0.00863703 -0.008728823 -0.008804297 -0.008864154 -0.008908142
 -0.00893886 -0.008956479 -0.008963667 -0.008960581 -0.008948019 -0.008925972 -0.00889431 -0.008853246 -0.008803758 -0.008746526
 -0.008684375 -0.008618095 -0.00855108 -0.008483426 -0.008416891 -0.008351017 -0.008285898 -0.008221237 -0.008156636 -0.008092574
 -0.00802934 -0.007966796 -0.007905267 -0.007843118 -0.007779786 -0.007715239 -0.007648894 -0.007584833 -0.007523206 -0.007469967
 -0.007425476 -0.007392013 -0.007369405 -0.007355524 -0.007350113 -0.007350417 -0.007356686 -0.00736838 -0.007385885 -0.007410154
 -0.007440712 -0.007477282 -0.007519127 -0.007565079 -0.007615285 -0.007669411 -0.007727949 -0.007791499 -0.007858795 -0.007929484
 -0.008002583 -0.008077151 -0.008156087 -0.008239221 -0.008332958 -0.008438083 -0.008557257 -0.008690749 -0.008832417 -0.008981944
 -0.009133134 -0.009286589 -0.009443268 -0.009603796 -0.009771477 -0.009945477 -0.01012568 -0.01031035 -0.01049627 -0.01068291
 -0.01086792 -0.01105278 -0.01123822 -0.01142456 -0.01161332 -0.01180024 -0.01198428 -0.01216103 -0.0123284 -0.01248797
 -0.01263926 -0.01278738 -0.01293285 -0.01307902 -0.01322616 -0.01337293 -0.01351903 -0.01365938 -0.01379366 -0.01391692
 -0.01402978 -0.0141315 -0.01422393 -0.01431103 -0.01439514 -0.01448185 -0.01457343 -0.01467434 -0.01478739 -0.01491666
 -0.01506276 -0.01522822 -0.01540889 -0.01560446 -0.01580838 -0.016019 -0.0162314 -0.01644494 -0.01665361 -0.01685715
 -0.01704586 -0.01721909 -0.01737105 -0.01750191 -0.01761512 -0.01771147 -0.01779822 -0.01787558 -0.01794849 -0.01801606
 -0.01807863 -0.01813501 -0.01818302 -0.0182226 -0.01825263 -0.01827381 -0.01828663 -0.01829083 -0.0182868 -0.01827271
 -0.01824796 -0.01821098 -0.0181611 -0.01809811 -0.01802181 -0.01793268 -0.01783081 -0.01771584 -0.01758774 -0.01744578
 -0.01729023 -0.01712542 -0.01695286 -0.01678551 -0.01662464 -0.01648337 -0.01635988 -0.01625673 -0.01617011 -0.016094
 -0.01602643 -0.01596203 -0.01590135 -0.01584321 -0.01578795 -0.01573575 -0.01568578 -0.01563727 -0.01559168 -0.01554867
 -0.01551278 -0.0154851 -0.01546681 -0.01545864 -0.01545554 -0.0154573 -0.01545718 -0.01545499 -0.01544745 -0.01543497
 -0.01541932 -0.01540068 -0.01538128 -0.01536005 -0.0153357 -0.01530622 -0.01526716 -0.01521751 -0.01515383 -0.01507676
 -0.01498576 -0.01488141 -0.01476463 -0.01463327 -0.014487 -0.01432258 -0.01413838 -0.01393555 -0.01371317 -0.01347839
 -0.01323162 -0.01298193 -0.01273003 -0.01248053 -0.01223351 -0.01198922 -0.01174795 -0.01151151 -0.01128167 -0.01106661
 -0.01086882 -0.01069947 -0.01055971 -0.01045728 -0.01039121 -0.01036376 -0.01037246 -0.01041617 -0.01049194 -0.01059792
 -0.01073102 -0.01089014 -0.01107069 -0.01127179 -0.01148699 -0.01171526 -0.01195001 -0.01219052 -0.01243064 -0.01266996
 -0.01290184 -0.01312597 -0.01333697 -0.01353498 -0.0137187 -0.01388871 -0.01404711 -0.01419396 -0.01433066 -0.0144567
 -0.01457167 -0.01467525 -0.01476646 -0.01484628 -0.01491463 -0.01497443 -0.0150269 -0.01507633 -0.01512478 -0.01517554
 -0.01523056 -0.01528885 -0.01535108 -0.01541255 -0.01547283 -0.01552791 -0.01557742 -0.01562034 -0.01565663 -0.01568625
 -0.01570911 -0.01572417 -0.01573136 -0.01572958 -0.01571927 -0.01570086 -0.01567557 -0.01564577 -0.01561317 -0.01558093
 -0.01555054 -0.01552475 -0.01550369 -0.01548864 -0.01547789 -0.01547109 -0.01546654 -0.01546355 -0.01546167 -0.0154606
 -0.01546082 -0.01546231 -0.01546584 -0.0154715 -0.01547903 -0.01548837 -0.01549763 -0.01550662 -0.01551252 -0.0155155
 -0.01551456 -0.01551052 -0.01550526 -0.0154995 -0.01549597 -0.01549396 -0.01549409 -0.01549422 -0.01549278 -0.01548731
 -0.01547559 -0.01545654 -0.01542856 -0.01539358 -0.01535115 -0.01530649 -0.01526013 -0.01521892 -0.01518386 -0.01515946
 -0.01514634 -0.01514332 -0.01515025 -0.01516196 -0.01517818 -0.01519423 -0.01521042 -0.0152258 -0.01524115 -0.01525834
 -0.015278 -0.0153025 -0.01533169 -0.0153667 -0.01540617 -0.01544959 -0.01549441 -0.015539 -0.01558071 -0.01561775
 -0.01564923 -0.01567427 -0.01569385 -0.01570799 -0.01571802 -0.01572421 -0.01572655 -0.01572512 -0.01571901 -0.01570819
 -0.01569249 -0.01567201 -0.01564776 -0.01561974 -0.01558857 -0.01555396 -0.0155151 -0.0154721 -0.01542437 -0.01537311
 -0.01531966 -0.01526558 -0.01521322 -0.01516272 -0.01511532 -0.01506928 -0.01502418 -0.01497819 -0.01493039 -0.01488074
 -0.01482881 -0.01477644 -0.01472373 -0.01467306 -0.01462465 -0.01457999 -0.01453917 -0.0145022 -0.01446894 -0.01443771
 -0.01440812 -0.01437724 -0.01434482 -0.01430831 -0.01426843 -0.01422499 -0.01418011 -0.01413673 -0.01409698 -0.01406438
 -0.01403946 -0.01402419 -0.01401676 -0.01401718 -0.01402228 -0.0140311 -0.01404092 -0.01405083 -0.01406 -0.01406803
 -0.0140762 -0.01408462 -0.01409426 -0.01410517 -0.01411619 -0.01412717 -0.01413586 -0.01414219 -0.01414443 -0.01414286
 -0.01413732 -0.01412843 -0.01411727 -0.01410488 -0.01409333 -0.01408334 -0.0140767 -0.01407299 -0.01407264 -0.01407463
 -0.01407863 -0.0140836 -0.01408932 -0.01409416 -0.01409778 -0.0140987 -0.01409637 -0.01409226 -0.01408626 -0.01408287
 -0.01408231 -0.01408757 -0.0140983 -0.01411156 -0.01412646 -0.01413621 -0.01414067 -0.01413518 -0.01412136 -0.01410011
 -0.01407418 -0.01404856 -0.0140244 -0.0140057 -0.01399 -0.01397747 -0.01396334 -0.01394514 -0.01391994 -0.01388586
 -0.01384291 -0.01379077 -0.01372993 -0.01366046 -0.01358249 -0.01349589 -0.01340297 -0.01330385 -0.01320399 -0.01310373
 -0.01300907 -0.01292001 -0.01283994 -0.01276794 -0.01270301 -0.01264334 -0.01258439 -0.01252459 -0.01245886 -0.01238791
 -0.01230983 -0.01222808 -0.01214449 -0.01206254 -0.0119849 -0.0119123 -0.01184609 -0.01178392 -0.0117257 -0.01166826
 -0.01161116 -0.0115518 -0.01148992 -0.01142374 -0.01135315 -0.01127634 -0.01119328 -0.01110273 -0.01100484 -0.01089958
 -0.01078743 -0.01066995 -0.01054773 -0.01042308 -0.0102961 -0.01016819 -0.01003881 -0.009907613 -0.009774884 -0.00963995
 -0.009505768 -0.009373039 -0.009246689 -0.009128644 -0.009022345 -0.008929485 -0.008849147 -0.008781732 -0.008723691 -0.008674704
 -0.008632268 -0.008596207 -0.00856657 -0.008543434 -0.0085281 -0.008520512 -0.008521222 -0.008529569 -0.008543794 -0.008562457
 -0.008581327 -0.008599005 -0.008611089 -0.008617302 -0.008615256 -0.00860626 -0.008590367 -0.00856953 -0.008545082 -0.008517449
 -0.00848782 -0.008452946 -0.008412771 -0.008361668 -0.008298612 -0.008220315 -0.008125992 -0.008018152 -0.007896847 -0.007768878
 -0.007634649 -0.007501288 -0.00736897 -0.007242488 -0.007121528 -0.007007646 -0.006900072 -0.006797357 -0.006699712 -0.006606082
 -0.006518975 -0.006440479 -0.006374117 -0.006323881 -0.006290644 -0.006276906 -0.006279134 -0.0062972 -0.006325243 -0.006361749
 -0.006402562 -0.006446476 -0.006493224 -0.006542605 -0.006595617 -0.006652356 -0.006710669 -0.006770195 -0.006824478 -0.006873307
 -0.006911567 -0.006940477 -0.006961848 -0.006977448 -0.006993475 -0.007009081 -0.007026579 -0.007041988 -0.007051131 -0.007051598
 -0.00703836 -0.007015652 -0.006983533 -0.006949487 -0.006917167 -0.006888616 -0.006866015 -0.006844532 -0.006823234 -0.006800968
 -0.006776626 -0.006760464 -0.006752941 -0.006768922 -0.006808707 -0.006878089 -0.006975547 -0.00709351 -0.007229815 -0.007371601
 -0.007518198 -0.007661127 -0.007801266 -0.007936559 -0.00806742 -0.00819408 -0.008315263 -0.00842986 -0.00853722 -0.008635907
 -0.00872844 -0.008815194 -0.008899539 -0.008982874 -0.009065194 -0.009146981 -0.00922578 -0.009301192 -0.009373473 -0.009442562
 -0.009511208 -0.009579436 -0.009647685 -0.009715512 -0.009779661 -0.009840046 -0.009894309 -0.00994329 -0.00998793 -0.01002931
 -0.01006997 -0.01011022 -0.01015168 -0.01019372 -0.01023665 -0.01027879 -0.01031941 -0.01035664 -0.0103893 -0.01041715
 -0.01043963 -0.01045822 -0.01047307 -0.01048575 -0.01049656 -0.01050501 -0.01051107 -0.01051412 -0.01051426 -0.01051387
 -0.0105135 -0.01051866 -0.01052944 -0.01054993 -0.01057834 -0.01061244 -0.010649 -0.01068064 -0.01070599 -0.01071906
 -0.01072311 -0.01071816 -0.01071003 -0.01070253 -0.01069895 -0.01070222 -0.01071115 -0.01072632 -0.01074439 -0.01076492
 -0.01078495 -0.01080415 -0.0108198 -0.01083171 -0.01083642 -0.01083377 -0.01082104 -0.01079854 -0.01076699 -0.01072743
 -0.01068465 -0.0106398 -0.0105988 -0.01056172 -0.01053177 -0.01050784 -0.01049009 -0.01047665 -0.01046616 -0.01045626
 -0.01044539 -0.01043089 -0.0104112 -0.01038496 -0.01035097 -0.01031131 -0.0102657 -0.01021913 -0.01017207 -0.01012916
 -0.01009086 -0.01005828 -0.01003139 -0.01000818 -0.009988381 -0.009968868 -0.00994952 -0.009928035 -0.009904692 -0.009878829
 -0.009851438 -0.009823941 -0.009797677 -0.009775087 -0.009756942 -0.009745304 -0.00973891 -0.009738144 -0.009739684 -0.009742527
 -0.009742759 -0.009738986 -0.009728814 -0.009711249 -0.009686932 -0.009655626 -0.009620106 -0.009580569 -0.00953895 -0.009495271
 -0.009448528 -0.009398644 -0.009344027 -0.009285525 -0.009225751 -0.009166673 -0.009115797 -0.009073701 -0.009046369 -0.009030212
 -0.009023905 -0.009020739 -0.009013546 -0.008998411 -0.00896942 -0.008929223 -0.008876924 -0.008818083 -0.008754423 -0.008688856
 -0.008622316 -0.008555827 -0.00848937 -0.008425985 -0.008365816 -0.008313324 -0.008268665 -0.008233148 -0.008206272 -0.008184021
 -0.008165644 -0.008145335 -0.008122931 -0.008094789 -0.008061456 -0.008022518 -0.007978015 -0.007928275 -0.007871957 -0.007807612
 -0.007735016 -0.007652249 -0.007564146 -0.007471178 -0.007382358 -0.007300912 -0.007231555 -0.00717702 -0.007131957 -0.00709644
 -0.007061409 -0.007025865 -0.006989088 -0.006951218 -0.006921846 -0.006901393 -0.006898567 -0.006911634 -0.006937191 -0.006971882
 -0.007003115 -0.007029637 -0.007041958 -0.00704236 -0.007029877 -0.007007672 -0.006978699 -0.006944896 -0.006908201 -0.006870635
 -0.006833646 -0.006798294 -0.006765646 -0.006734006 -0.006703222 -0.006671546 -0.00663837 -0.006605918 -0.006574322 -0.006545709
 -0.006520091 -0.00649314 -0.006464648 -0.006430112 -0.006390895 -0.006351768 -0.006314136 -0.006286257 -0.006265739 -0.006252134
 -0.006241042 -0.006224586 -0.006203012 -0.006172466 -0.006137917 -0.006101926 -0.006067657 -0.006038168 -0.006011626 -0.005988567
 -0.005964731 -0.005939407 -0.005908715 -0.005871869 -0.00582752 -0.005775238 -0.005718752 -0.005658282 -0.005600784 -0.005546256
 -0.005497421 -0.005453202 -0.00540912 -0.005364523 -0.00531433 -0.005259923 -0.005201818 -0.005141582 -0.005082572 -0.005023606
 -0.004965195 -0.00490446 -0.004839003 -0.004768398 -0.004690966 -0.004610244 -0.004526486 -0.004445188 -0.004367368 -0.00429829
 -0.004238828 -0.004192704 -0.004160542 -0.004141214 -0.004134631 -0.004133492 -0.00413726 -0.004137275 -0.004133649 -0.004122523
 -0.004104438 -0.004079421 -0.004047313 -0.004007434 -0.003960349 -0.003905323 -0.003846682 -0.003787807 -0.003735204 -0.003695707
 -0.003670129 -0.003662632 -0.003664779 -0.003675693 -0.003683291 -0.00368413 -0.003672963 -0.003647629 -0.00361318 -0.003569603
 -0.00352574 -0.003482051 -0.003441953 -0.003405071 -0.00336741 -0.003328775 -0.003285455 -0.003238879 -0.003191919 -0.003146247
 -0.003107834 -0.003075747 -0.003051887 -0.0030328 -0.003015433 -0.002996983 -0.002973711 -0.002946271 -0.002913321 -0.002878696
 -0.002843287 -0.002810864 -0.002783056 -0.002758977 -0.002739414 -0.002717445 -0.002692542 -0.002658557 -0.002615126 -0.002564143
 -0.002506065 -0.002447789 -0.002389129 -0.002332702 -0.002277368 -0.002219979 -0.002160703 -0.002097591 -0.0020332 -0.00197064
 -0.001912506 -0.001863586 -0.001823316 -0.001793618 -0.00177066 -0.00175347 -0.001736971 -0.001719121 -0.001696561 -0.001667608
 -0.00163325 -0.001592939 -0.001551651 -0.00150982 -0.001471182 -0.00143599 -0.001402768 -0.001371273 -0.00133751 -0.001301629
 -0.001262408 -0.001220566 -0.001178383 -0.001135729 -0.001093638 -0.001051179 -0.001006745 -0.0009610773 -0.0009133856 -0.0008676342
 -0.0008264863 -0.0007936255 -0.0007726402 -0.0007622914 -0.0007643727 -0.0007707602 -0.0007806245 -0.0007828522 -0.0007748647 -0.0007542534
 -0.0007199044 -0.0006796949 -0.0006340295 -0.0005890217 -0.0005446568 -0.0005015382 -0.0004592754 -0.0004156509 -0.0003705884 -0.0003220524
 -0.0002714834 -0.0002207352 -0.0001727967 -0.0001335898 -0.0001051233 -9.331333E-05 -9.518479E-05 -0.0001118823 -0.0001350778 -0.0001607107
 -0.0001818606 -0.0001936734 -0.0001980902 -0.0001934935 -0.0001892678 -0.0001869407 -0.0001921428 -0.0002063103 -0.0002237335 -0.000244227
 -0.0002565991 -0.0002605061 -0.0002491811 -0.0002231742 -0.0001824628 -0.0001282749 -6.434218E-05 6.510892E-06 7.622199E-05 0.0001405054
 0.0001872817 0.0002167323 0.0002211136 0.0002116886 0.0001945185 0.0001809708 0.0001826808 0.0001930832 0.0002143252 0.0002302178
 0.0002344605 0.000228853 0.0002102154 0.000201203 0.0002041581 0.0002333794 0.0002903078 0.0003597092 0.000440301 0.0005073619
 0.0005617359 0.0005974054 0.0006167142 0.0006264261 0.0006264407 0.0006189767 0.0006052697 0.0005864745 0.0005692457 0.0005626989
 0.0005703379 0.0006017474 0.0006463618 0.0007028479 0.0007542398 0.0007915709 0.0008118794 0.0008100344 0.0008004964 0.0007846684
 0.000776838 0.0007795829 0.0007921127 0.0008147491 0.0008354057 0.0008536372 0.0008605231 0.0008574428 0.0008495687 0.0008395797
 0.000842123 0.0008566431 0.0008911224 0.0009389484 0.000992025 0.00104427 0.00108249 0.001110143 0.001123978 0.001133958
 0.001146206 0.001163917 0.001191694 0.001222279 0.001254698 0.001282115 0.001302312 0.00131684 0.00132521 0.001333972
 0.001343498 0.001359924 0.001383446 0.001417449 0.001461438 0.001513726 0.001573012 0.001632723 0.001692438 0.001746968
 0.001798203 0.001847584 0.001895963 0.001946514 0.001995058 0.002039301 0.002074764 0.002096688 0.002107488 0.002106442
 0.002098846 0.002087228 0.00206911 0.002044937 0.002008315 0.001957803 0.001897086 0.001826082 0.001756766 0.001689394
 0.001627514 0.001569552 0.001504373 0.001430975 0.001337606 0.0012277 0.001102692 0.0009711076 0.0008487799 0.0007445187
 0.0006781268 0.0006493343 0.0006688557 0.0007207535 0.0008014799 0.0008863091 0.0009642346 0.001017409 0.001036942 0.001021059
 0.000966227 0.0008854175 0.0007785657 0.0006682744 0.0005558886 0.000466759 0.0004013118</values></Ydata></AB><ScSm><Ydata ylabel="Single channel"><values byteorder="INTEL" format="FLOAT32" numvalues="1814"> 0.07977755 0.07988138 0.07999924 0.08013512 0.08028446 0.08043619 0.08057769 0.08070281 0.08081301 0.08090936
 0.08099245 0.0810742 0.0811777 0.08131576 0.08147526 0.08162611 0.08174349 0.08182798 0.08190937 0.08201925
 0.08214962 0.08224857 0.08226843 0.08221795 0.08215965 0.08215328 0.08221499 0.08234717 0.08257534 0.08288775
 0.08315107 0.08319701 0.08303436 0.08287743 0.08290856 0.08309431 0.08327599 0.08334437 0.08328155 0.08314375
 0.08308274 0.08329955 0.08386304 0.08456108 0.08496584 0.08468037 0.08360215 0.0820675 0.08077271 0.08040987
 0.08116662 0.08251745 0.08361837 0.08398867 0.08377114 0.08337005 0.08302897 0.08282506 0.0828571 0.08323084
 0.08388652 0.08452716 0.08473192 0.08423208 0.08321522 0.08229537 0.08201179 0.08240966 0.08322417 0.08420122
 0.0848645 0.08428133 0.08188732 0.07873532 0.07716642 0.07864901 0.08224271 0.08557484 0.08699994 0.08647208
 0.08486042 0.08318135 0.08232673 0.08275926 0.08421308 0.0859592 0.08738407 0.08814903 0.08803508 0.0870482
 0.085627 0.08445676 0.08408579 0.08476427 0.08634289 0.08812267 0.08913632 0.08890922 0.08781374 0.08658788
 0.08579358 0.08579254 0.08677547 0.0885362 0.09048679 0.0920908 0.09314455 0.09366575 0.0937614 0.0936006
 0.09333054 0.09305841 0.09296761 0.09322384 0.09365188 0.09376985 0.09332588 0.09263925 0.0922768 0.09246731
 0.09290527 0.09312169 0.09295088 0.0924409 0.09137334 0.08937049 0.08666842 0.08423877 0.08283864 0.08247744
 0.08303498 0.08458652 0.08665723 0.0879916 0.08781867 0.08689685 0.08669563 0.08780399 0.08955848 0.09100385
 0.09182103 0.09237507 0.09314856 0.09419854 0.09502633 0.09494919 0.09379838 0.09234948 0.09180696 0.09263883
 0.09411922 0.09521718 0.09567855 0.09599017 0.09652261 0.09699428 0.09672073 0.09535019 0.09347337 0.09241223
 0.09312977 0.09527685 0.0973765 0.09793978 0.09652335 0.09396867 0.0916989 0.09069785 0.09112798 0.09273764
 0.09521133 0.0980157 0.1003165 0.1014026 0.1011773 0.100138 0.09883437 0.09735564 0.09552822 0.09371531
 0.09302792 0.094286 0.09696548 0.09961545 0.1011976 0.1016624 0.1013596 0.1003343 0.09842032 0.09596767
 0.09416767 0.09417056 0.09577599 0.09748222 0.09808204 0.09779175 0.09756894 0.09780481 0.09811144 0.09812188
 0.09804045 0.09835199 0.09920146 0.1002068 0.1008608 0.1009954 0.1008202 0.1006259 0.1005095 0.1003166
 0.09988185 0.09939937 0.09940879 0.1002253 0.101513 0.1026213 0.1032272 0.1034645 0.1035264 0.1033418
 0.1026988 0.1016559 0.1007426 0.1005819 0.1012834 0.1023605 0.1032491 0.1037294 0.1038667 0.1037973
 0.1036381 0.1034586 0.1032943 0.1032246 0.1033607 0.1036966 0.1040636 0.1042969 0.1043696 0.1043344
 0.1042154 0.1040103 0.1037578 0.1035567 0.1035033 0.1036133 0.103821 0.1040464 0.1042295 0.1043152
 0.104272 0.1041359 0.1039878 0.1038783 0.1038087 0.1037795 0.1038106 0.1039051 0.1040227 0.1041083
 0.1041366 0.1041189 0.1040743 0.1040111 0.1039358 0.1038667 0.103831 0.1038489 0.1039118 0.1039846
 0.1040475 0.1041215 0.1042245 0.1043161 0.1043321 0.1042663 0.1041821 0.1041438 0.1041662 0.104224
 0.1042813 0.1043047 0.1042685 0.104172 0.1040606 0.1040119 0.1040779 0.1042492 0.1044797 0.1047244
 0.1049404 0.1050924 0.1051813 0.1052441 0.1053086 0.1053684 0.10541 0.1054449 0.1055091 0.1056361
 0.1058242 0.1060323 0.1062123 0.1063436 0.1064332 0.1065076 0.1066066 0.1067498 0.1069002 0.1069947
 0.1070267 0.1070616 0.1071569 0.107295 0.107411 0.1074686 0.1074926 0.1075343 0.1076186 0.1077291
 0.1078372 0.1079354 0.1080401 0.1081647 0.10829 0.108368 0.1083693 0.1083217 0.1082832 0.108284
 0.1083133 0.1083592 0.1084289 0.1085237 0.108617 0.1086744 0.1086891 0.1086874 0.108698 0.10872
 0.1087266 0.1086988 0.1086466 0.1085968 0.1085671 0.1085563 0.10855 0.1085319 0.1084922 0.1084306
 0.1083542 0.1082716 0.1081883 0.108109 0.1080489 0.1080326 0.1080619 0.1080884 0.1080392 0.1078854
 0.107672 0.1074756 0.1073389 0.1072478 0.1071601 0.1070453 0.1069018 0.1067482 0.1066045 0.1064787
 0.1063673 0.1062642 0.1061729 0.1061116 0.1060939 0.1061006 0.1060819 0.1060039 0.1058847 0.105774
 0.1057025 0.1056642 0.1056397 0.1056179 0.1056007 0.1055992 0.1056213 0.1056558 0.1056778 0.1056778
 0.1056757 0.1057023 0.1057752 0.105893 0.106034 0.106159 0.1062383 0.1062828 0.1063364 0.1064296
 0.1065564 0.106696 0.1068412 0.1069973 0.1071663 0.1073455 0.1075365 0.1077452 0.1079747 0.1082204
 0.108472 0.1087188 0.1089588 0.1092037 0.1094717 0.1097718 0.1100952 0.110421 0.1107338 0.1110335
 0.1113323 0.1116396 0.1119554 0.1122781 0.1126139 0.1129696 0.1133397 0.1137088 0.1140671 0.114419
 0.1147755 0.1151421 0.1155162 0.1158936 0.11628 0.1166872 0.1171113 0.1175219 0.1178855 0.1182027
 0.11851 0.1188461 0.1192216 0.1196167 0.1199968 0.1203351 0.1206365 0.1209366 0.1212666 0.1216213
 0.1219737 0.1223174 0.1226777 0.1230751 0.1234892 0.1238672 0.1241729 0.1244221 0.1246649 0.1249323
 0.1252107 0.1254719 0.125714 0.1259596 0.12622 0.1264857 0.1267519 0.1270339 0.1273422 0.1276575
 0.1279473 0.1282005 0.1284316 0.1286544 0.1288627 0.1290399 0.1291791 0.1292957 0.1294219 0.1295804
 0.1297621 0.1299391 0.1301016 0.1302688 0.1304618 0.1306823 0.1309254 0.1311956 0.1314936 0.1317995
 0.1320907 0.1323753 0.1326861 0.1330308 0.1333684 0.1336517 0.1338814 0.1340958 0.1343221 0.1345614
 0.1348165 0.1351025 0.1354264 0.1357717 0.136111 0.1364276 0.1367291 0.1370418 0.1373823 0.1377292
 0.1380354 0.1382753 0.1384697 0.1386642 0.1388914 0.1391564 0.1394441 0.1397326 0.1400041 0.140245
 0.1404391 0.140572 0.1406479 0.1406904 0.140715 0.1407048 0.140621 0.1404354 0.1401407 0.139734
 0.1392038 0.1385432 0.1377772 0.1369749 0.1362369 0.1356655 0.1353368 0.1352883 0.1355198 0.1359923
 0.1366279 0.1373208 0.1379621 0.1384574 0.138731 0.138732 0.1384483 0.1379126 0.1371876 0.1363437
 0.1354447 0.134539 0.1336602 0.1328499 0.1321926 0.1318227 0.1318833 0.1324714 0.1336036 0.1352021
 0.1370947 0.1390515 0.1408674 0.1424375 0.1437656 0.1449101 0.1459294 0.1468644 0.147743 0.1485808
 0.149378 0.1501274 0.1508271 0.1514813 0.1520892 0.1526385 0.1531087 0.1534801 0.1537433 0.1539091
 0.1540039 0.154054 0.1540783 0.1540935 0.1541093 0.1541052 0.1540245 0.1538052 0.1534201 0.1528937
 0.1523046 0.1517889 0.1515331 0.1517313 0.1525032 0.1538211 0.1555045 0.1573007 0.1589914 0.1604467
 0.1616215 0.1625341 0.1632464 0.163833 0.1643491 0.164822 0.1652636 0.1656823 0.1660848 0.166476
 0.1668598 0.1672394 0.1676195 0.1680043 0.168392 0.1687738 0.1691448 0.1695115 0.1698875 0.1702794
 0.1706786 0.1710696 0.1714476 0.1718262 0.1722184 0.1726166 0.1729982 0.1733521 0.1736892 0.17403
 0.1743889 0.1747668 0.1751502 0.1755176 0.1758574 0.1761766 0.1764906 0.1768066 0.1771225 0.1774371
 0.1777516 0.1780656 0.1783752 0.1786782 0.1789774 0.1792765 0.1795741 0.1798638 0.1801405 0.1804073
 0.1806738 0.1809477 0.1812288 0.1815114 0.1817921 0.1820744 0.1823641 0.1826601 0.1829532 0.1832349
 0.1835044 0.1837676 0.184032 0.184302 0.1845782 0.1848573 0.1851344 0.1854074 0.1856767 0.1859446
 0.1862136 0.1864863 0.1867641 0.1870461 0.187329 0.187607 0.1878763 0.1881382 0.1883988 0.1886647
 0.188939 0.1892198 0.1895003 0.189772 0.1900295 0.1902739 0.1905117 0.1907514 0.1909987 0.1912547
 0.1915167 0.1917825 0.1920505 0.1923177 0.1925813 0.1928417 0.1931012 0.1933599 0.1936167 0.1938713
 0.1941264 0.1943848 0.1946461 0.1949068 0.1951645 0.1954213 0.1956801 0.1959404 0.1961986 0.1964514
 0.1966968 0.1969357 0.1971731 0.1974168 0.197671 0.1979332 0.1981964 0.1984542 0.1987045 0.1989506
 0.1991972 0.1994477 0.1997039 0.1999649 0.2002245 0.2004754 0.2007169 0.2009558 0.201199 0.2014487
 0.2017033 0.2019591 0.2022136 0.2024679 0.2027237 0.2029793 0.2032324 0.2034839 0.2037348 0.2039851
 0.2042354 0.2044875 0.2047413 0.2049949 0.2052477 0.2054997 0.2057529 0.2060105 0.206273 0.2065365
 0.206797 0.2070543 0.2073092 0.2075628 0.2078193 0.2080831 0.208354 0.2086288 0.2089052 0.2091809
 0.2094544 0.2097274 0.21 0.2102681 0.2105269 0.210776 0.211017 0.2112531 0.2114891 0.211727
 0.2119644 0.2122009 0.2124396 0.212681 0.2129237 0.2131702 0.2134239 0.2136836 0.213948 0.2142183
 0.2144921 0.2147635 0.2150308 0.215297 0.2155631 0.2158289 0.2160946 0.2163592 0.2166229 0.2168904
 0.2171649 0.2174433 0.2177213 0.2179979 0.2182729 0.2185482 0.2188284 0.2191127 0.2193941 0.2196708
 0.2199475 0.2202263 0.2205066 0.2207894 0.2210737 0.2213558 0.2216387 0.2219287 0.2222222 0.2225116
 0.2227963 0.223078 0.2233555 0.2236341 0.2239217 0.2242153 0.2245063 0.2247946 0.2250822 0.2253657
 0.2256454 0.2259263 0.2262081 0.2264878 0.2267688 0.227051 0.2273284 0.2276011 0.2278717 0.2281286
 0.2283467 0.2284759 0.2283822 0.2277735 0.2261539 0.2228327 0.2170623 0.2083353 0.1966858 0.1827765
 0.1677184 0.1527252 0.1387832 0.126513 0.1162435 0.1081425 0.1023093 0.09885701 0.09797633 0.1000255
 0.1056521 0.1154082 0.1283346 0.14074 0.1475849 0.1462996 0.1391134 0.1310321 0.1257619 0.1238962
 0.1241822 0.1253851 0.1270158 0.1291917 0.1322093 0.1361032 0.1406039 0.1455744 0.1512636 0.1579289
 0.1653445 0.1728807 0.1800322 0.1867463 0.1932452 0.1996352 0.2057484 0.2113063 0.2161386 0.2202436
 0.2237282 0.2267387 0.2294059 0.2318193 0.23404 0.2361024 0.2379694 0.2395169 0.2406105 0.2412155
 0.2414406 0.2414804 0.2415091 0.2416118 0.2418033 0.242079 0.2424329 0.2428521 0.2433259 0.2438492
 0.2444091 0.2449836 0.2455565 0.2461176 0.2466554 0.2471638 0.2476462 0.2481055 0.2485401 0.2489527
 0.2493494 0.2497332 0.2501067 0.2504746 0.2508385 0.2511968 0.2515502 0.2518971 0.2522292 0.2525393
 0.2528278 0.253098 0.2533554 0.2536103 0.25387 0.2541321 0.2543913 0.2546464 0.254897 0.2551432
 0.255388 0.2556339 0.2558784 0.2561187 0.2563553 0.2565876 0.2568143 0.2570391 0.2572672 0.2574991
 0.2577331 0.2579701 0.2582098 0.2584477 0.2586797 0.2589062 0.2591337 0.2593723 0.2596275 0.259893
 0.2601596 0.2604243 0.2606881 0.2609496 0.2612098 0.261475 0.2617492 0.2620285 0.2623058 0.262574
 0.2628255 0.2630554 0.263267 0.2634717 0.263682 0.2639043 0.2641348 0.2643653 0.2645947 0.2648304
 0.2650756 0.2653236 0.2655647 0.2657931 0.2660119 0.2662344 0.2664752 0.2667353 0.2670012 0.2672617
 0.2675174 0.2677729 0.2680286 0.2682811 0.2685225 0.2687416 0.2689307 0.2690944 0.269251 0.2694221
 0.2696126 0.2698028 0.2699674 0.2701023 0.2702262 0.2703622 0.2705269 0.2707204 0.2709163 0.2710833
 0.2712346 0.2714373 0.2717529 0.2721788 0.27266 0.2731459 0.2736217 0.2740968 0.2745787 0.2750622
 0.2755333 0.2759801 0.2764081 0.2768501 0.2773443 0.2778914 0.278444 0.2789523 0.2794042 0.2798131
 0.2801933 0.280555 0.2808895 0.2811545 0.2813192 0.2814424 0.2816607 0.2820611 0.2825866 0.2830965
 0.2835061 0.2838377 0.2841474 0.2844533 0.284747 0.2850045 0.2851489 0.2850888 0.2848821 0.2847944
 0.2850816 0.2857303 0.2864895 0.2871267 0.2875808 0.2879093 0.2881848 0.2884477 0.2886809 0.2888092
 0.2887804 0.2886841 0.28874 0.2890972 0.2896636 0.2902056 0.2905938 0.2908756 0.2911432 0.2914286
 0.2916912 0.2918018 0.2915964 0.2911023 0.290692 0.2908418 0.2916696 0.2927985 0.2937324 0.2942978
 0.294643 0.2948902 0.2949522 0.2946919 0.2940926 0.2932611 0.2924711 0.2922061 0.2928447 0.2941737
 0.2954752 0.2962458 0.2966294 0.2970533 0.2976735 0.2983084 0.2987341 0.2988861 0.2988221 0.2985911
 0.2982083 0.2978051 0.2977167 0.2982445 0.2993058 0.3004555 0.3013035 0.3018213 0.3021635 0.3022168
 0.3014806 0.2996604 0.2974445 0.296331 0.2972987 0.2997804 0.3022794 0.3038473 0.304604 0.3050442
 0.3053923 0.3055338 0.304997 0.3031117 0.2999199 0.2969676 0.2963652 0.298709 0.3024157 0.3052565
 0.3060574 0.3049406 0.3027632 0.3007225 0.29993 0.3008074 0.3029081 0.3053727 0.3074462 0.3086863
 0.3089969 0.3085864 0.30788 0.3074014 0.3074419 0.3076234 0.3071382 0.3057968 0.3043961 0.3034953
 0.3023931 0.3002723 0.2980154 0.2976556 0.2998611 0.3029706 0.3049224 0.3053662 0.3052895 0.3050256
 0.3034444 0.2994418 0.2939857 0.2900891 0.2902303 0.2938763 0.2980077 0.3000872 0.3000679 0.2995269
 0.2994503 0.2991928 0.2974376 0.2940575 0.2908415 0.2898963 0.2912872 0.2929456 0.2929617 0.2909281
 0.2869437 0.2811293 0.275198 0.272783 0.2762319 0.2836842 0.2907146 0.2941519 0.2930738 0.2874945
 0.2786874 0.27055 0.2678514 0.2718371 0.2787744 0.2835636 0.2837607 0.2796885 0.272357 0.2630112
 0.2541978 0.2494566 0.251063 0.2581944 0.2670969 0.2727249 0.2713163 0.2633958 0.254514 0.2510766
 0.2543333 0.2595546 0.2615964 0.2597438 0.2566522 0.2547271 0.2547861 0.2565113 0.258813 0.2606893
 0.2619944 0.2620149 0.2580498 0.2483995 0.2368236 0.230543 0.2327888 0.2402055 0.248331 0.2560851
 0.2632554 0.2672752 0.2659554 0.2618126 0.2604567 0.2646047 0.2714955 0.2764177 0.2774931 0.2764395
 0.2754433 0.2745431 0.2727208 0.2707326 0.2711528 0.2751639 0.2807048 0.2847095 0.2861898 0.2862394
 0.2859715 0.2855843 0.2849296 0.283974 0.2827609 0.2814314 0.2802098 0.2791566 0.2781256 0.2770548
 0.2758931 0.2739693 0.270042 0.2639139 0.2578126 0.2548509 0.2557547 0.2584099 0.2609071 0.2629258
 0.26318 0.2583711 0.2474952 0.2357046 0.2307646 0.23555 0.2457585 0.2547426 0.2587611 0.2574409
 0.2515363 0.2425826 0.2344887 0.2328495 0.2406311 0.2550704 0.2701708 0.2817845 0.2891802 0.2927001
 0.2921661 0.2880876 0.2830097 0.2805052 0.2827256 0.288996 0.2963387 0.3008475 0.2993821 0.2921565
 0.2844746 0.2835157 0.2911912 0.3015839 0.3074759 0.3079149 0.307143 0.3078748 0.3089771 0.3092026
 0.3098012 0.3124192 0.3163971 0.3193208 0.3191879 0.3152493 0.3079916 0.299715 0.2941731 0.2936137
 0.2963088 0.2985466 0.2984453 0.2960004 0.290755 0.282801 0.2756915 0.2745407 0.2802133 0.2880159
 0.2930468 0.294761 0.2954568 0.2961293 0.2952899 0.2914497 0.2857553 0.2814918 0.2808574 0.282886
 0.2850284 0.28591 0.2855479 0.2837597 0.2801685 0.2758956 0.2737101 0.2755788 0.2805759 0.2857971
 0.2890382 0.2901448 0.2901647 0.2900002 0.2899211 0.2897314 0.2892223 0.2888033 0.2895343 0.2919831
 0.2952236 0.2976788 0.2989426 0.3001086 0.3022263 0.3050125 0.3072829 0.3082681 0.3082963 0.3083895
 0.3093482 0.3110958 0.3127516 0.3134027 0.3129965 0.312503 0.3130405 0.3148102 0.3170203 0.3188002
 0.3199328 0.3207232 0.3214979 0.32233 0.3230069 0.3232054 0.3229179 0.3227122 0.323309 0.324831
 0.3266566 0.328051 0.3287691 0.3290133 0.3290132 0.3288011 0.3283356 0.3276973 0.3270976 0.3267213
 0.3265976 0.3266263 0.3266902 0.3267267 0.3267328 0.3267484 0.3268288 0.327001 0.3272465 0.3275282
 0.3278139 0.3280666 0.3282503 0.328368 0.3284603 0.3285443 0.3285724 0.3284666 0.3281684 0.3276408
 0.3268483 0.325759 0.3243515 0.3225979 0.3204657 0.3180178 0.3155823 0.3137906 0.3133141 0.3144355
 0.316822 0.3197174 0.322373 0.3243692 0.3256513 0.3263735 0.326731 0.3268746 0.3268912 0.3268111
 0.326636 0.3263744 0.3260535 0.3257034 0.3253449 0.3249949 0.3246684 0.3243691 0.324082 0.3237798
 0.3234345 0.3230279 0.3225563 0.3220238 0.3214294 0.3207595 0.3199922 0.319113 0.3181326 0.3170916
 0.3160454 0.3150403 0.3140934 0.3131848 0.3122703 0.3112978 0.3102034 0.3089121 0.3074034 0.3057992
 0.3043337 0.3031735 0.3022747 0.3014404 0.3004974 0.2993886 0.2981361 0.2967798 0.2953587 0.2939052
 0.2924335 0.2909324 0.2893721 0.2877179 0.2859487 0.2840685 0.2820972 0.2800561 0.2779639 0.2758343
 0.2736537 0.2713501 0.2687927 0.2658283 0.2623242 0.2581961 0.2534248 0.2480735 0.242296 0.2363118
 0.2303542 0.2246251 0.2192843 0.2144639 0.2102787 0.206824 0.204167 0.2023466 0.2013805 0.2012705
 0.2019998 0.2035241 0.2057662 0.2086131 0.2119165 0.2154988 0.2191632 0.2227171 0.2260191 0.2290298
 0.2318074 0.234431 0.2369213 0.2392369 0.2413294 0.2431817 0.2447987 0.246183 0.2473328 0.2482589
 0.2489994 0.2496116 0.2501439 0.2506106 0.2509937 0.2512734 0.2514585 0.2515874 0.2517042 0.2518387
 0.2520102 0.2522376 0.2525414 0.2529379 0.2534359 0.2540362 0.2547333 0.2555126 0.2563488 0.2572138
 0.2580966 0.2590156 0.2600099 0.2611207 0.2623804 0.2638082 0.2654006 0.267121 0.2688967 0.2706263
 0.2721994 0.2735249 0.274553 0.2752774 0.275718 0.2759025 0.2758593 0.27562 0.2752185 0.2746847
 0.2740441 0.2733215 0.2725398 0.2717099 0.2708284 0.2698877 0.2688936 0.2678724 0.2668582 0.2658705
 0.2649096 0.2639711 0.2630557 0.2621607 0.2612772 0.2604001 0.2595364 0.2587005 0.2579067 0.2571612
 0.2564543 0.2557591 0.255035 0.2542336 0.253309 0.2522339 0.2510028 0.2496191 0.2480854 0.2464096
 0.2446065 0.2426938 0.2406896 0.2386105 0.2364661 0.2342561 0.2319687 0.2295858 0.2271103 0.2245976
 0.2221455 0.21984 0.2177168 0.2157654 0.2139522 0.212243 0.210619 0.2090732 0.2075953 0.2061724
 0.2048008 0.2034843 0.202227 0.2010375 0.1999303 0.1989201 0.1980207 0.197245 0.196591 0.1960365
 0.1955565 0.1951371 0.1947814 0.194517 0.1943842 0.1943885 0.19447 0.1945365 0.194524 0.1944278
 0.1942971 0.1941988 0.1941685 0.1941941 0.1942359 0.1942364 0.1941122 0.1937651 0.1931075 0.1920716
 0.1906202 0.1887724 0.1866156 0.1842921 0.1819761 0.179836 0.1779917 0.1765017 0.1753699 0.1745405
 0.1739105 0.1733961 0.1729939 0.1727701 0.1728007 0.1730916 0.1735145 0.1738572 0.1740101 0.174089
 0.1743326 0.174898 0.1757656 0.1767891 0.1777977 0.1786775 0.1793851 0.1799123 0.1802717 0.1805047
 0.1806514 0.1807112 0.1806609 0.1804907 0.1802037 0.1798123 0.1793386 0.1787876 0.1781368 0.1773784
 0.1765351 0.1756163 0.1746073 0.1734955 0.172258 0.1708609 0.1693543 0.1679496 0.1669456 0.1665722
 0.1668766 0.1677008 0.1687877 0.1699491 0.1710982 0.1721367 0.1729553 0.173617 0.1744353 0.1757694
 0.177723 0.1800353 0.1822565 0.1840343 0.1852335 0.1858428 0.1858943 0.185464 0.1846102 0.1833118
 0.1815648 0.17948 0.1772094 0.1748815 0.1726435 0.1706308 0.168894 0.1674449 0.1662885 0.1654218
 0.1649072 0.1644753 0.1625616 0.1568507 0.1475565 0.1395545 0.138703 0.1455291 0.1544987 0.1599609
 0.1609485 0.1598309 0.1585805 0.1576295 0.1569122 0.1565032 0.1564533 0.1566523 0.1568776 0.1568999
 0.1566248 0.1560719 0.1551146 0.153246 0.1495792 0.1431712 0.133724 0.1222176 0.1106877 0.1011406
 0.09456954 0.09076575 0.08875994 0.08748983 0.08639862 0.08562751 0.08567202 0.08687475 0.08922699 0.09251119
 0.09646301 0.1007504 0.1049144 0.1085038 0.1113146 0.1134187 0.1149508 0.1159638 0.1164806 0.11656
 0.116277 0.1157064 0.1149234 0.1139622 0.1127927 0.1113891 0.1098337 0.1083401 0.1071542 0.1063974
 0.1060007 0.1058075 0.1057155 0.1056944 0.1057273 0.1057953 0.1058957 0.1060404 0.1062493 0.1065404
 0.106894 0.1072419 0.1075186 0.1077053 0.1078133 0.1078449 0.1077717 0.1075551 0.1072122 0.1068369
 0.1064738 0.105986 0.105159 0.1039775 0.1027373 0.1018552 0.1015803 0.1018488 0.1023623 0.1028086
 0.1030537 0.1031557 0.1032138 0.1032159</values></Ydata></ScSm><ScRf><Ydata ylabel="Single channel"><values byteorder="INTEL" format="FLOAT32" numvalues="1820"> 0.06971833 0.06985039 0.06996478 0.07006014 0.07014397 0.07023099 0.07033582 0.0704628 0.0706031 0.07074054
 0.07086238 0.07096756 0.07106306 0.07115196 0.07123294 0.07131391 0.07141343 0.07154185 0.0716872 0.07182324
 0.0719294 0.07200846 0.07208813 0.0721948 0.07231753 0.07240659 0.07241949 0.0723678 0.07231225 0.07230799
 0.07236741 0.07249059 0.0727012 0.07298985 0.07323501 0.07328129 0.07313329 0.07298364 0.07300015 0.07315829
 0.07331917 0.07338506 0.07333817 0.07322602 0.07318054 0.07337846 0.07388142 0.07450245 0.07486229 0.07460947
 0.07365611 0.07230389 0.07116927 0.07086001 0.07153665 0.07273263 0.07370412 0.07403008 0.07383962 0.07349026
 0.07319515 0.07301977 0.07305104 0.07338425 0.07396731 0.07453518 0.07471409 0.07427084 0.07337827 0.07257962
 0.07234338 0.07270125 0.07341956 0.07428046 0.07486728 0.07435456 0.07224239 0.06946404 0.06809079 0.06941622
 0.07260132 0.07554626 0.07680165 0.07633366 0.0749127 0.07343538 0.07268804 0.07307918 0.07437399 0.07592808
 0.07719767 0.07787988 0.07777739 0.07689558 0.07562774 0.07458684 0.07426098 0.0748693 0.07627571 0.07785904
 0.07876183 0.07856356 0.07759552 0.0765152 0.07582286 0.07583606 0.07671678 0.07827817 0.08000304 0.08142395
 0.0823642 0.08283561 0.08292711 0.08278766 0.08255246 0.08232188 0.0822591 0.0825057 0.08289918 0.08300923
 0.08261523 0.08200538 0.08168617 0.08186194 0.08226088 0.08246394 0.08232063 0.08187246 0.08092736 0.07915279
 0.0767597 0.07460932 0.0733712 0.0730543 0.07355669 0.07494801 0.07680294 0.07800077 0.07785542 0.07704182
 0.07686514 0.07784908 0.07940853 0.08069922 0.08143628 0.08193851 0.08263147 0.08356795 0.08430909 0.08425045
 0.08324105 0.081967 0.08149591 0.08224303 0.08356473 0.08454656 0.08496386 0.08525107 0.08574022 0.08618104
 0.08596022 0.08475937 0.08310358 0.08217265 0.08282509 0.08474857 0.08662769 0.08713891 0.08588967 0.08363006
 0.08162712 0.0807559 0.08116037 0.08261646 0.08484355 0.08736609 0.08944023 0.09043197 0.09025517 0.08935289
 0.08821405 0.08691652 0.08530469 0.08370543 0.08311512 0.08426842 0.08669604 0.08909869 0.09054571 0.0909916
 0.09074877 0.08985684 0.08816618 0.08599274 0.08441025 0.08445252 0.08593416 0.08750065 0.08806916 0.08784017
 0.08767699 0.08792827 0.08824094 0.0882832 0.08823991 0.08854891 0.08934155 0.0902749 0.09089456 0.09105129
 0.09093294 0.09079855 0.09073262 0.09059496 0.09023679 0.08983538 0.08988029 0.09065765 0.09186408 0.09291036
 0.09350257 0.09376003 0.09385589 0.09372506 0.09317544 0.0922623 0.09146909 0.09136309 0.09204352 0.09306629
 0.09391585 0.0943891 0.09454605 0.09451567 0.09440938 0.09429003 0.09418522 0.09416308 0.09432478 0.09466664
 0.09503654 0.09528495 0.09538905 0.095397 0.09532808 0.09517743 0.09498133 0.09483305 0.09482158 0.09496057
 0.09519057 0.09543958 0.09565119 0.09577109 0.09576631 0.09566904 0.09555791 0.09548716 0.09546284 0.09548221
 0.09555571 0.09568084 0.09582162 0.09593223 0.09599367 0.09601647 0.09601491 0.09599409 0.09596134 0.09593621
 0.09594427 0.0960014 0.09609653 0.09619653 0.09628491 0.09638458 0.09651428 0.09663673 0.0966903 0.0966671
 0.09662442 0.09662174 0.09667338 0.09675668 0.09683922 0.09689111 0.09688844 0.09682851 0.0967514 0.09672943
 0.09681346 0.09699579 0.09723315 0.09748308 0.09770675 0.09787187 0.09797898 0.09806193 0.09814559 0.098222
 0.09827678 0.09832188 0.09839468 0.09852847 0.09872102 0.09893247 0.09911847 0.09925998 0.09936229 0.09944899
 0.09955817 0.0997093 0.09986498 0.09996302 0.09999774 0.100034 0.1001272 0.1002591 0.1003692 0.1004266
 0.1004573 0.1005079 0.1005979 0.1007094 0.1008145 0.1009073 0.1010055 0.1011235 0.1012429 0.1013172
 0.1013171 0.1012677 0.1012248 0.1012183 0.1012391 0.1012769 0.10134 0.1014301 0.1015186 0.1015677
 0.1015697 0.1015551 0.1015577 0.1015772 0.1015833 0.1015528 0.1014946 0.1014378 0.1014044 0.1013951
 0.1013934 0.1013791 0.101341 0.1012809 0.1012075 0.1011283 0.1010474 0.100972 0.1009219 0.1009215
 0.1009659 0.1009994 0.1009494 0.1007938 0.1005854 0.100403 0.1002845 0.1002068 0.1001213 0.09999745
 0.0998407 0.09967855 0.09953451 0.09941351 0.09930591 0.09920143 0.09910265 0.09902736 0.09899026 0.09897581
 0.09893903 0.09884644 0.09871134 0.09857812 0.09847812 0.09841186 0.09836459 0.09832416 0.09828763 0.09826277
 0.09825817 0.09826617 0.09826513 0.09824498 0.09822122 0.09821993 0.09825952 0.09834488 0.09846064 0.09856866
 0.09863319 0.09865753 0.09868218 0.09874183 0.09883662 0.09894809 0.099067 0.09919608 0.09933758 0.09949022
 0.09965523 0.09983722 0.100039 0.1002574 0.1004832 0.1007041 0.1009142 0.1011236 0.1013524 0.1016123
 0.101895 0.1021806 0.1024547 0.1027177 0.1029791 0.1032469 0.1035212 0.1038013 0.1040925 0.104401
 0.1047238 0.1050489 0.1053672 0.1056796 0.1059931 0.1063121 0.1066362 0.1069647 0.1073047 0.1076667
 0.108046 0.1084127 0.108735 0.1090127 0.1092795 0.1095714 0.1098994 0.1102455 0.110577 0.1108694
 0.1111297 0.1113931 0.111686 0.1119977 0.1123016 0.112598 0.1129187 0.1132846 0.1136694 0.1140161
 0.1142898 0.11451 0.1147272 0.1149694 0.1152201 0.11545 0.1156569 0.1158623 0.1160794 0.1163034
 0.1165342 0.1167864 0.1170672 0.1173549 0.1176167 0.1178411 0.1180427 0.1182364 0.1184186 0.1185731
 0.1186906 0.1187832 0.1188811 0.1190068 0.1191542 0.1192991 0.1194321 0.1195684 0.1197257 0.1199064
 0.1201066 0.1203291 0.1205746 0.1208292 0.1210777 0.1213298 0.121611 0.1219207 0.1222145 0.1224491
 0.1226323 0.1228079 0.1230023 0.1232111 0.1234313 0.1236774 0.1239599 0.1242661 0.1245704 0.1248567
 0.1251316 0.1254179 0.1257288 0.1260444 0.1263222 0.1265383 0.1267122 0.1268888 0.1271024 0.127358
 0.1276386 0.1279231 0.1281982 0.128452 0.1286642 0.128815 0.1289087 0.1289754 0.1290375 0.1290774
 0.1290492 0.1289187 0.1286808 0.1283401 0.1278901 0.1273229 0.1266561 0.1259496 0.1252946 0.1247849
 0.12449 0.1244444 0.1246489 0.125071 0.1256443 0.1262777 0.1268747 0.1273471 0.1276214 0.1276473
 0.1274135 0.1269498 0.1263114 0.1255596 0.1247515 0.123932 0.1231329 0.122392 0.1217843 0.1214282
 0.1214527 0.1219499 0.1229409 0.1243553 0.1260298 0.1277493 0.1293288 0.1306829 0.1318258 0.1328158
 0.1337046 0.134525 0.1352982 0.1360356 0.1367352 0.1373896 0.1379988 0.1385706 0.139108 0.1396009
 0.140029 0.1403711 0.1406171 0.1407749 0.1408679 0.1409189 0.1409415 0.1409452 0.1409365 0.1409029
 0.1408026 0.1405833 0.1402172 0.1397245 0.1391789 0.1387063 0.1384727 0.1386449 0.1393204 0.1404657
 0.1419179 0.1434606 0.1449136 0.1461713 0.1471939 0.147992 0.1486157 0.1491291 0.1495805 0.1499945
 0.1503835 0.1507564 0.1511187 0.1514709 0.1518129 0.1521462 0.1524764 0.1528106 0.1531503 0.1534888
 0.1538197 0.1541465 0.1544817 0.1548334 0.1551944 0.1555477 0.1558847 0.1562156 0.1565556 0.1569033
 0.1572422 0.1575612 0.1578666 0.158174 0.1584964 0.1588376 0.1591889 0.1595306 0.1598472 0.1601412
 0.1604265 0.1607116 0.1609939 0.1612702 0.1615444 0.1618226 0.1621051 0.1623874 0.162668 0.162949
 0.1632301 0.1635051 0.1637684 0.1640223 0.1642745 0.1645288 0.164782 0.1650294 0.1652724 0.1655192
 0.1657775 0.1660476 0.1663212 0.1665881 0.1668427 0.1670858 0.167322 0.167558 0.1678001 0.1680503
 0.1683047 0.1685579 0.1688072 0.1690545 0.1693034 0.1695556 0.1698094 0.1700606 0.170307 0.170551
 0.1707977 0.1710498 0.1713052 0.1715608 0.1718161 0.1720712 0.1723227 0.1725655 0.172799 0.1730276
 0.1732554 0.1734844 0.1737163 0.1739519 0.1741909 0.1744314 0.1746724 0.174913 0.1751542 0.1753974
 0.1756425 0.1758861 0.1761243 0.176357 0.1765894 0.1768285 0.1770751 0.1773221 0.1775604 0.1777891
 0.1780155 0.1782471 0.1784855 0.1787266 0.1789652 0.1791995 0.1794323 0.1796656 0.1798999 0.1801355
 0.1803734 0.1806105 0.1808415 0.1810667 0.1812934 0.1815272 0.1817654 0.1820015 0.1822324 0.1824617
 0.1826942 0.1829308 0.1831692 0.1834082 0.183648 0.1838874 0.1841251 0.184362 0.1845986 0.1848326
 0.1850638 0.1852948 0.185528 0.1857638 0.1860029 0.1862439 0.1864834 0.1867211 0.1869617 0.1872071
 0.1874544 0.187701 0.1879475 0.1881932 0.1884363 0.1886778 0.1889203 0.1891663 0.1894167 0.1896686
 0.1899175 0.1901651 0.190419 0.1906826 0.1909502 0.1912146 0.1914715 0.1917191 0.1919576 0.1921893
 0.1924158 0.1926391 0.192862 0.1930849 0.1933059 0.1935258 0.1937492 0.1939772 0.1942078 0.1944426
 0.1946846 0.1949332 0.1951853 0.195437 0.1956833 0.1959234 0.1961632 0.1964082 0.196657 0.1969083
 0.1971641 0.1974227 0.1976799 0.1979359 0.1981936 0.1984532 0.1987153 0.1989805 0.1992464 0.1995105
 0.1997755 0.2000438 0.200312 0.200579 0.2008482 0.2011187 0.2013862 0.2016491 0.2019086 0.2021667
 0.2024304 0.2027048 0.2029843 0.2032594 0.2035294 0.2037974 0.2040644 0.2043342 0.2046111 0.2048912
 0.2051691 0.2054465 0.2057233 0.2059946 0.2062616 0.2065306 0.2068009 0.2070689 0.2073366 0.2076035
 0.2078639 0.2081201 0.2083775 0.2086278 0.2088485 0.2089919 0.2089291 0.2083866 0.2069104 0.2038742
 0.1985992 0.1906218 0.1799714 0.1672542 0.1534865 0.1397775 0.1270271 0.1158025 0.1064068 0.09899617
 0.093661 0.09050313 0.08969901 0.0915818 0.09674735 0.1056986 0.117552 0.1289237 0.1351978 0.1340225
 0.1274429 0.1200463 0.1152281 0.1135295 0.1138003 0.1149087 0.1164101 0.1184143 0.1211913 0.1247708
 0.1289093 0.1334867 0.1387305 0.1448689 0.1516883 0.1586144 0.1651917 0.1713767 0.1773691 0.1832583
 0.1888855 0.1939971 0.1984411 0.2022178 0.2054268 0.2082051 0.210675 0.212916 0.2149784 0.2168909
 0.2186238 0.2200689 0.2211011 0.2216802 0.2219006 0.2219465 0.2219864 0.2221005 0.222297 0.2225683
 0.2229114 0.2233169 0.2237726 0.2242703 0.2247995 0.2253432 0.2258875 0.2264222 0.2269381 0.227432
 0.227905 0.2283535 0.2287722 0.2291664 0.2295477 0.229921 0.2302866 0.2306466 0.2310024 0.2313542
 0.2317032 0.2320468 0.2323773 0.2326904 0.2329885 0.2332729 0.2335424 0.2337999 0.2340512 0.2343
 0.2345504 0.2348057 0.2350623 0.2353134 0.2355592 0.2358039 0.2360483 0.2362921 0.2365358 0.236777
 0.2370111 0.2372389 0.2374667 0.2376981 0.2379335 0.2381722 0.2384126 0.238653 0.238893 0.2391329
 0.2393751 0.2396262 0.2398901 0.24016 0.2404261 0.2406888 0.2409556 0.2412287 0.2415039 0.2417769
 0.2420464 0.2423152 0.2425895 0.2428705 0.2431463 0.2433999 0.2436243 0.2438309 0.2440418 0.244274
 0.2445255 0.2447799 0.245025 0.2452617 0.2454973 0.2457379 0.2459857 0.2462376 0.2464886 0.2467415
 0.2470055 0.2472824 0.2475648 0.2478487 0.2481375 0.248432 0.2487281 0.2490233 0.2493165 0.2496022
 0.2498752 0.2501417 0.250419 0.2507246 0.251059 0.2514026 0.251733 0.2520446 0.252348 0.2526558
 0.2529749 0.2532999 0.2536049 0.2538623 0.2540841 0.254329 0.2546492 0.25504 0.25545 0.2558317
 0.256174 0.2564939 0.2568096 0.2571214 0.2574144 0.2576745 0.2579084 0.2581539 0.2584564 0.2588242
 0.2592158 0.2595838 0.2599148 0.2602192 0.260507 0.260785 0.2610458 0.2612526 0.2613768 0.2614711
 0.2616618 0.2620316 0.2625282 0.2630186 0.26342 0.2637508 0.2640621 0.264371 0.2646692 0.2649333
 0.265091 0.2650585 0.2648912 0.2648371 0.2651323 0.2657622 0.2664926 0.2671092 0.2675571 0.2678909
 0.2681786 0.2684556 0.2687014 0.2688431 0.2688338 0.2687629 0.2688387 0.269199 0.2697563 0.2702927
 0.2706871 0.270982 0.2712621 0.2715588 0.2718359 0.2719715 0.2718093 0.2713744 0.2710175 0.2711875
 0.2719971 0.2730917 0.274002 0.2745594 0.2749023 0.2751502 0.2752278 0.2750093 0.2744785 0.2737345
 0.2730321 0.272822 0.2734558 0.2747333 0.2759853 0.2767435 0.2771418 0.2775742 0.2781822 0.2787976
 0.2792185 0.2793897 0.2793664 0.2791923 0.2788795 0.2785466 0.2785008 0.2790218 0.2800376 0.2811399
 0.2819666 0.2824861 0.2828372 0.2829136 0.2822532 0.2805859 0.2785543 0.2775546 0.2784986 0.2808573
 0.2832329 0.2847396 0.2854896 0.2859446 0.2863129 0.2864858 0.2860214 0.2842926 0.2813411 0.2786181
 0.2781006 0.2803414 0.2838513 0.2865444 0.2873291 0.2863263 0.2843381 0.2824812 0.2817912 0.28266
 0.2846697 0.2870191 0.2890049 0.2902156 0.2905609 0.2902302 0.2896152 0.289207 0.2892865 0.2895036
 0.2890968 0.2878816 0.2866037 0.2857915 0.2847904 0.2828363 0.2807621 0.2804829 0.2826271 0.2856257
 0.2875316 0.288013 0.2880025 0.2878147 0.286382 0.2826629 0.2775736 0.2739596 0.2741605 0.2776727
 0.281647 0.2836884 0.2837501 0.283318 0.2833244 0.2831633 0.2815939 0.2784948 0.2755541 0.2747616
 0.2761769 0.2778405 0.2779432 0.276099 0.2724025 0.2669737 0.2614453 0.2592695 0.2626716 0.2698789
 0.2766864 0.2800848 0.2791992 0.2740391 0.2658106 0.2582255 0.2558339 0.2598291 0.2666566 0.2714535
 0.2718809 0.2682329 0.2614646 0.2527755 0.2446266 0.2404292 0.2423717 0.2496563 0.2586537 0.2644736
 0.2634579 0.2561101 0.2478283 0.2448471 0.2483758 0.2537936 0.256082 0.2545487 0.2517879 0.2501457
 0.2504227 0.252313 0.2547492 0.2567466 0.2581611 0.2582843 0.2544432 0.2449588 0.233547 0.2273421
 0.2295367 0.2368206 0.2447932 0.2523919 0.2594088 0.2633146 0.2619547 0.2578088 0.2563962 0.2603803
 0.2670354 0.2717269 0.2726165 0.2714049 0.2702537 0.2692167 0.2673077 0.2652737 0.2656354 0.2695442
 0.2749754 0.2789248 0.2804242 0.2805418 0.2803601 0.2800643 0.2795044 0.2786473 0.2775363 0.2763086
 0.2751848 0.2742279 0.2732946 0.2723153 0.2712266 0.2693637 0.2655105 0.2594795 0.2534629 0.2505197
 0.2513639 0.2539192 0.2563093 0.2582181 0.2583858 0.2535792 0.2428131 0.2311362 0.2261587 0.2306968
 0.2405311 0.2491471 0.2528839 0.2513892 0.2454202 0.2364899 0.2284107 0.2266247 0.2340092 0.2478686
 0.2623664 0.2734672 0.2804615 0.283692 0.2830052 0.2789121 0.2738802 0.2713537 0.2733929 0.2793237
 0.2862469 0.2903815 0.2887133 0.2814817 0.2738224 0.2726558 0.2798234 0.2896398 0.2951682 0.2954851
 0.294654 0.2952793 0.2962798 0.2964625 0.2970245 0.2995449 0.3033972 0.3062728 0.3062518 0.3026112
 0.2958131 0.2880608 0.2829482 0.2826124 0.2853689 0.2876419 0.2876351 0.2853579 0.2803718 0.2727641
 0.2659631 0.2649013 0.270406 0.2779458 0.2828 0.2844575 0.2851439 0.2858157 0.2850318 0.2813598
 0.275918 0.2718866 0.2713908 0.2734995 0.2757569 0.2768416 0.2767658 0.2753332 0.272152 0.2682955
 0.2664557 0.2685496 0.2736643 0.2789419 0.2822064 0.2832974 0.2832434 0.2829366 0.2826513 0.2822104
 0.2814285 0.2807218 0.281135 0.2832312 0.2861212 0.2882795 0.2893107 0.2902721 0.2921801 0.2947622
 0.2968714 0.2977554 0.2977175 0.2977338 0.2985774 0.3001851 0.3017171 0.3022962 0.301873 0.3013855
 0.3019148 0.3036526 0.3058272 0.3075871 0.3087122 0.3094933 0.3102492 0.311056 0.3117104 0.3118994
 0.3116141 0.3114032 0.311967 0.3134308 0.3151969 0.3165502 0.3172467 0.3174821 0.3174866 0.3173025
 0.3168958 0.3163397 0.3158238 0.3155071 0.3154057 0.3154252 0.3154656 0.3154783 0.3154626 0.3154511
 0.3154903 0.3156041 0.3157791 0.31599 0.3162162 0.3164266 0.3165849 0.3166903 0.3167818 0.3168779
 0.316933 0.3168695 0.3166294 0.3161789 0.3154841 0.3145078 0.3132205 0.311592 0.309595 0.307296
 0.3050129 0.3033515 0.3029555 0.304095 0.3064491 0.309291 0.3119047 0.3138902 0.315193 0.3159501
 0.3163368 0.3164929 0.3165062 0.316416 0.3162329 0.3159682 0.3156454 0.3152915 0.3149295 0.3145815
 0.3142665 0.3139877 0.3137264 0.3134487 0.3131217 0.3127273 0.3122647 0.3117417 0.3111622 0.3105169
 0.3097814 0.3089304 0.3079678 0.306941 0.3059209 0.3049634 0.3040794 0.3032332 0.3023708 0.3014469
 0.3004146 0.2992126 0.2978226 0.2963613 0.2950545 0.2940579 0.2933156 0.2926224 0.2918027 0.2908053
 0.2896652 0.2884355 0.2871562 0.2858484 0.2845129 0.2831344 0.2816888 0.2801503 0.2785049 0.2767607
 0.2749411 0.2730693 0.2711623 0.2692292 0.2672505 0.2651524 0.2628074 0.2600645 0.256785 0.2528728
 0.2482993 0.243128 0.2375171 0.2316881 0.2258706 0.2202615 0.2150182 0.2102754 0.2061555 0.2027606
 0.2001608 0.198392 0.1974672 0.1973868 0.1981397 0.1996931 0.2019782 0.204882 0.2082492 0.2118936
 0.2156135 0.2192163 0.2225647 0.2256194 0.2284291 0.2310585 0.2335213 0.2357818 0.2378048 0.239583
 0.2411228 0.2424256 0.2434945 0.244353 0.2450482 0.2456316 0.2461382 0.2465795 0.2469511 0.2472455
 0.2474636 0.2476248 0.2477645 0.2479206 0.2481141 0.2483433 0.2485991 0.2488866 0.2492307 0.2496604
 0.2501887 0.2508063 0.2514887 0.2522125 0.2529698 0.2537735 0.2546536 0.2556493 0.2567969 0.2581147
 0.259594 0.2611983 0.2628634 0.264495 0.2659823 0.2672295 0.2681842 0.2688409 0.2692242 0.269367
 0.269299 0.2690479 0.2686433 0.2681152 0.2674891 0.2667836 0.2660088 0.265168 0.2642658 0.2633152
 0.2623357 0.2613469 0.2603644 0.259395 0.2584395 0.2575009 0.2565868 0.2557011 0.2548424 0.2540109
 0.2532108 0.2524446 0.2517128 0.2510145 0.2503418 0.2496744 0.248981 0.2482227 0.2473586 0.2463584
 0.2452062 0.2438955 0.2424265 0.2408109 0.2390696 0.2372243 0.2352933 0.2332886 0.2312128 0.2290613
 0.2268245 0.2244925 0.2220773 0.2196386 0.2172709 0.2150536 0.213018 0.2111553 0.2094343 0.2078156
 0.2062665 0.2047713 0.2033278 0.2019438 0.2006301 0.1993885 0.1982128 0.197105 0.1960768 0.1951373
 0.1942936 0.1935568 0.1929317 0.1924065 0.1919624 0.1915868 0.1912828 0.1910809 0.1910225 0.1911044
 0.1912508 0.1913615 0.1913801 0.1913157 0.1912181 0.1911387 0.1911003 0.1910984 0.1911161 0.1911124
 0.1910052 0.1906903 0.1900744 0.1890854 0.1876836 0.1858899 0.1837928 0.1815297 0.1792694 0.1771837
 0.1753963 0.173957 0.172859 0.1720507 0.1714443 0.1709619 0.1705921 0.170393 0.170441 0.1707482
 0.1711941 0.1715718 0.171768 0.1718874 0.1721627 0.1727553 0.1736533 0.1747106 0.1757534 0.1766697
 0.1774226 0.178006 0.1784272 0.178718 0.1789088 0.1789931 0.1789497 0.1787793 0.1784977 0.1781231
 0.1776775 0.1771666 0.1765665 0.1758585 0.1750486 0.174141 0.1731331 0.1720321 0.1708249 0.1694714
 0.1680092 0.1666435 0.1656758 0.1653388 0.1656747 0.1665184 0.1676133 0.1687799 0.1699401 0.1709969
 0.1718364 0.1725146 0.1733436 0.1746897 0.176665 0.1790087 0.1812642 0.1830776 0.1843187 0.1849774
 0.1850781 0.1846864 0.183858 0.1825787 0.1808543 0.1788014 0.1765708 0.1742831 0.1720798 0.170098
 0.1683933 0.166979 0.165857 0.1650236 0.1645433 0.1641465 0.1622638 0.1565753 0.1472955 0.1393029
 0.1384591 0.1452951 0.1542809 0.1597668 0.1607836 0.159699 0.1584847 0.1575685 0.1568745 0.156469
 0.1564054 0.1565878 0.1568062 0.1568312 0.1565567 0.1559946 0.1550249 0.1531551 0.1495063 0.1431339
 0.1337299 0.1222589 0.1107432 0.10119 0.09460906 0.09080562 0.08880653 0.08753661 0.08643897 0.08567007
 0.08573544 0.08696868 0.0893454 0.09264341 0.09660209 0.1008905 0.1050519 0.1086463 0.1114793 0.113614
 0.1151652 0.1161786 0.1166894 0.1167708 0.1164981 0.1159353 0.11515 0.1141827 0.1130167 0.1116317
 0.1100987 0.1086173 0.1074341 0.1066821 0.1062977 0.1061185 0.1060354 0.1060186 0.1060566 0.1061359
 0.1062568 0.1064291 0.106667 0.1069841 0.1073623 0.1077355 0.1080329 0.1082289 0.1083361 0.1083615
 0.1082751 0.1080329 0.1076555 0.1072467 0.1068539 0.1063301 0.105451 0.1042064 0.1029124 0.1020076
 0.1017478 0.1020541 0.1026005 0.1030527 0.1032717 0.103326 0.1033347 0.1033063 0.1031242 0.1026822
</values></Ydata></ScRf><Data_Parameters_AB><parameter name="DPF">1</parameter><parameter name="NPT">3497</parameter><parameter name="FXV">3996</parameter><parameter name="LXV">500</parameter><parameter name="CSF">1</parameter><parameter name="MXY">0.0021074884571135</parameter><parameter name="MNY">-0.0559181794524193</parameter><parameter name="DAT">17/01/2024</parameter><parameter name="TIM">13:50:18.746 (GMT+1)</parameter><parameter name="DXU">WN</parameter></Data_Parameters_AB><AB__Qtest><MainReport name="Quality Test Report"><Header><Line><Legend>Test result ok/not ok [1/0]: </Legend><Value>0</Value></Line><Line><Legend>Method file: </Legend><Value>C:\Users\Public\Documents\Bruker\OPUS_8.2.28\QT\IRBT_v3_default.QT</Value></Line></Header><Matrix><Line><Legend></Legend><Legend>min</Legend><Legend>max</Legend><Legend>measured</Legend></Line><Line><Value>Absorption (X-Range 1):</Value><Value>0.400000</Value><Value>2.000000</Value><Value>0.026268</Value></Line><Line><Value>Noise (X-Range 4):</Value><Value></Value><Value>0.000300</Value><Value>0.000307</Value></Line><Line><Value>Signal/Noise (X-Range 2):</Value><Value>200.000000</Value><Value></Value><Value>1.619066</Value></Line><Line><Value>Signal/Noise (X-Range 3):</Value><Value>40.000000</Value><Value></Value><Value>0.883336</Value></Line><Line><Value>Water vapour (X-Range 5):</Value><Value></Value><Value>0.000300</Value><Value>0.000011</Value></Line><Line><Value>Signal/Water (X-Range 2):</Value><Value>100.000000</Value><Value></Value><Value>43.657848</Value></Line><Line><Value>Signal/Water (X-Range 3):</Value><Value>20.000000</Value><Value></Value><Value>23.819018</Value></Line><Line><Value>Fringes (X-Range 6):</Value><Value></Value><Value>0.000100</Value><Value>0.000205</Value></Line></Matrix></MainReport></AB__Qtest><Data_Parameters_ScSm><parameter name="DPF">1</parameter><parameter name="NPT">1814</parameter><parameter name="FXV">3996.63438082617</parameter><parameter name="LXV">499.579297603271</parameter><parameter name="CSF">1</parameter><parameter name="MXY">0.329013347625732</parameter><parameter name="MNY">0.077166423201561</parameter><parameter name="DAT">17/01/2024</parameter><parameter name="TIM">13:50:18.746 (GMT+1)</parameter><parameter name="DXU">WN</parameter></Data_Parameters_ScSm><Data_Parameters_ScRf><parameter name="DPF">1</parameter><parameter name="NPT">1820</parameter><parameter name="FXV">4004.34989121387</parameter><parameter name="LXV">495.721542409425</parameter><parameter name="CSF">1</parameter><parameter name="MXY">0.317486643791199</parameter><parameter name="MNY">0.0680907890200615</parameter><parameter name="DAT">17/01/2024</parameter><parameter name="TIM">13:49:51.522 (GMT+1)</parameter><parameter name="DXU">WN</parameter></Data_Parameters_ScRf><Optic_Parameters_Rf><parameter name="APR">0</parameter><parameter name="APT">Open</parameter><parameter name="BMS">KBr</parameter><parameter name="DTC">RT-DLaTGS_IR-Biotyper [Microplate reader]</parameter><parameter name="HPF">0</parameter><parameter name="LPF">10.0</parameter><parameter name="LPV">4000</parameter><parameter name="PGR">0</parameter><parameter name="RCH">Module port</parameter><parameter name="RDX">0</parameter><parameter name="SRC">MIR</parameter><parameter name="VEL">10.0</parameter><parameter name="SON">Off</parameter></Optic_Parameters_Rf><Acquisition_Parameters_Rf><parameter name="ADT">1</parameter><parameter name="AQM">DD</parameter><parameter name="CFE">0</parameter><parameter name="COR">0</parameter><parameter name="DEL">0</parameter><parameter name="DLY">0</parameter><parameter name="HFW">8000</parameter><parameter name="LFW">0</parameter><parameter name="NSR">32</parameter><parameter name="PLF">AB</parameter><parameter name="RES">6</parameter><parameter name="RGN">-1</parameter><parameter name="STR">0</parameter><parameter name="TCL">MakeCompatibleScalar (0, {WSV=1.000000, ARV=0});</parameter><parameter name="TDL">37</parameter><parameter name="RPO">0</parameter></Acquisition_Parameters_Rf><FT_-_Parameters_Rf><parameter name="APF">B3</parameter><parameter name="HFQ">500</parameter><parameter name="LFQ">4000</parameter><parameter name="NLI">0</parameter><parameter name="PHR">24</parameter><parameter name="PHZ">ML</parameter><parameter name="SPZ">NO</parameter><parameter name="ZFF">1</parameter></FT_-_Parameters_Rf><Optic_Parameters_><parameter name="APR">0</parameter><parameter name="APT">Open</parameter><parameter name="BMS">KBr</parameter><parameter name="CHN">Module port</parameter><parameter name="DTC">RT-DLaTGS_IR-Biotyper [Microplate reader]</parameter><parameter name="HPF">0</parameter><parameter name="LPF">10.0</parameter><parameter name="LPV">4000</parameter><parameter name="PGN">0</parameter><parameter name="RDX">0</parameter><parameter name="SRC">MIR</parameter><parameter name="VEL">10.0</parameter><parameter name="SON">Off</parameter></Optic_Parameters_><FT_-_Parameters_><parameter name="APF">B3</parameter><parameter name="HFQ">500</parameter><parameter name="LFQ">4000</parameter><parameter name="NLI">0</parameter><parameter name="PHR">24</parameter><parameter name="PHZ">ML</parameter><parameter name="SPZ">NO</parameter><parameter name="ZFF">1</parameter></FT_-_Parameters_><Acquisition_Parameters_><parameter name="ADT">1</parameter><parameter name="AQM">DD</parameter><parameter name="CFE">0</parameter><parameter name="COR">0</parameter><parameter name="DEL">0</parameter><parameter name="DLY">0</parameter><parameter name="HFW">8000</parameter><parameter name="LFW">0</parameter><parameter name="NSS">32</parameter><parameter name="PLF">AB</parameter><parameter name="RES">6</parameter><parameter name="SOT">0</parameter><parameter name="TCL">MakeCompatibleScalar (0, {WSV=1.000000, ARV=0});</parameter><parameter name="TDL">37</parameter><parameter name="SPO">0</parameter><parameter name="SGN">-1</parameter></Acquisition_Parameters_><Instrument_Parameters_Rf><parameter name="HFL">15801.365274</parameter><parameter name="LFL">0</parameter><parameter name="LWN">15801.365274</parameter><parameter name="ABP">32157</parameter><parameter name="SSP">1</parameter><parameter name="ARG">2</parameter><parameter name="ASG">2</parameter><parameter name="ASS">32</parameter><parameter name="GFW">16</parameter><parameter name="GBW">16</parameter><parameter name="BFW">0</parameter><parameter name="BBW">0</parameter><parameter name="PKA">9116</parameter><parameter name="PKL">4987</parameter><parameter name="PRA">9128</parameter><parameter name="PRL">5010</parameter><parameter name="P2A">1</parameter><parameter name="P2L">1</parameter><parameter name="P2R">1</parameter><parameter name="P2K">1</parameter><parameter name="DAQ">0</parameter><parameter name="AG2">1</parameter><parameter name="SSM">1</parameter><parameter name="RSN">46404</parameter><parameter name="CRR">0</parameter><parameter name="SRT">1705499391.522</parameter><parameter name="DUR">19.6449890136719</parameter><parameter name="TSC">31</parameter><parameter name="MVD">0.284641116857529</parameter><parameter name="AN1">0.226011603442573</parameter><parameter name="AN2">0</parameter><parameter name="VSN">2.485 Apr  4 2017</parameter><parameter name="SRN">0085</parameter><parameter name="CAM">0</parameter><parameter name="INS">IR-Biotyper</parameter><parameter name="FOC">69</parameter><parameter name="RDY">1</parameter><parameter name="ARS">32</parameter></Instrument_Parameters_Rf><Sample_Parameters_><parameter name="BLD"></parameter><parameter name="CNM">Admin</parameter><parameter name="CPY"></parameter><parameter name="DPM"></parameter><parameter name="EXP">IRBT_v3_32Scans.XPM</parameter><parameter name="LCT"></parameter><parameter name="SFM">Microplate, HTS-XT</parameter><parameter name="SNM">240117-1222-Cdiff_SCFA_1_C17_232118758_A12_01645eb9-eaa5-484f-bd01-2c68c8fd9ba1.0</parameter><parameter name="XPP">C:\Users\Public\Documents\Bruker\OPUS_8.2.28\XPM</parameter><parameter name="IST">OK</parameter><parameter name="CPG">1252</parameter><parameter name="UID">92438d17-2a64-45aa-ad85-70990e6f97a1</parameter></Sample_Parameters_><Instrument_Parameters_><parameter name="HFL">15801.365274</parameter><parameter name="LFL">0</parameter><parameter name="LWN">15801.365274</parameter><parameter name="ABP">32157</parameter><parameter name="SSP">1</parameter><parameter name="ASG">2</parameter><parameter name="ARG">2</parameter><parameter name="ASS">32</parameter><parameter name="GFW">16</parameter><parameter name="GBW">16</parameter><parameter name="BFW">0</parameter><parameter name="BBW">0</parameter><parameter name="PKA">9688</parameter><parameter name="PKL">4987</parameter><parameter name="PRA">9781</parameter><parameter name="PRL">5010</parameter><parameter name="P2A">1</parameter><parameter name="P2L">1</parameter><parameter name="P2R">1</parameter><parameter name="P2K">1</parameter><parameter name="DAQ">0</parameter><parameter name="AG2">1</parameter><parameter name="SSM">1</parameter><parameter name="RSN">23895</parameter><parameter name="CRR">0</parameter><parameter name="SRT">1705499418.746</parameter><parameter name="DUR">19.6439971923828</parameter><parameter name="TSC">31</parameter><parameter name="MVD">0.325405657291412</parameter><parameter name="AN1">0.226015399076129</parameter><parameter name="AN2">0</parameter><parameter name="VSN">2.485 Apr  4 2017</parameter><parameter name="SRN">0085</parameter><parameter name="CAM">0</parameter><parameter name="INS">IR-Biotyper</parameter><parameter name="FOC">69</parameter><parameter name="RDY">1</parameter></Instrument_Parameters_><History/></OPUSDataFile>
