<?xml version="1.0" encoding="UTF-8" ?>
<OPUSDataFile><AB><Ydata ylabel="Absorbance Units"><values byteorder="INTEL" format="FLOAT32" numvalues="3497"> -0.08735976 -0.08736978 -0.08738428 -0.08740342 -0.08742849 -0.08745755 -0.08748747 -0.0875158 -0.08753712 -0.08755149
 -0.08755626 -0.08755446 -0.08754745 -0.08753746 -0.08752576 -0.0875141 -0.08750268 -0.08749541 -0.08749286 -0.08749971
 -0.08751716 -0.08754389 -0.08758022 -0.08761823 -0.08765753 -0.08769106 -0.08771899 -0.08774067 -0.08775699 -0.08777232
 -0.08778726 -0.08780625 -0.08782876 -0.08785617 -0.08788677 -0.0879187 -0.08795024 -0.08797868 -0.08800364 -0.08802377
 -0.08803999 -0.08805195 -0.08806214 -0.08807093 -0.08808176 -0.08809549 -0.08811424 -0.08813873 -0.08816752 -0.08820067
 -0.08823463 -0.08826921 -0.08830228 -0.08833382 -0.08836323 -0.08839051 -0.0884154 -0.08843791 -0.08845781 -0.08847529
 -0.08849061 -0.08850408 -0.08851609 -0.08852735 -0.08853851 -0.0885508 -0.08856539 -0.08858295 -0.08860435 -0.08862882
 -0.08865637 -0.08868574 -0.08871659 -0.0887484 -0.08878111 -0.08881381 -0.08884648 -0.08887744 -0.08890659 -0.08893221
 -0.08895434 -0.08897296 -0.08898855 -0.08900335 -0.0890183 -0.0890379 -0.08906222 -0.08909442 -0.08913226 -0.08917432
 -0.08921693 -0.08925531 -0.08928787 -0.08931107 -0.08932731 -0.08933658 -0.08934241 -0.08934602 -0.0893497 -0.08935431
 -0.08936039 -0.08936825 -0.08937693 -0.08938636 -0.08939598 -0.08940574 -0.08941778 -0.08943222 -0.08945162 -0.08947544
 -0.08950207 -0.08953071 -0.08955722 -0.0895821 -0.08960405 -0.08962485 -0.08964702 -0.08967123 -0.08969976 -0.08973116
 -0.08976537 -0.0897999 -0.08983345 -0.08986422 -0.08989071 -0.08991471 -0.08993573 -0.08995914 -0.08998581 -0.09001867
 -0.09005848 -0.09010099 -0.09014601 -0.09018711 -0.09022436 -0.09025741 -0.09028683 -0.0903165 -0.09034549 -0.09037326
 -0.09039707 -0.09040914 -0.09041015 -0.09039585 -0.09037305 -0.09034754 -0.09032557 -0.09031475 -0.09031566 -0.09033117
 -0.09035848 -0.09039783 -0.09044392 -0.09049627 -0.09054656 -0.0905937 -0.09062941 -0.0906524 -0.0906624 -0.09065928
 -0.09065219 -0.09064162 -0.09063625 -0.09063575 -0.09064222 -0.09065537 -0.09067523 -0.09070189 -0.0907362 -0.09077682
 -0.09082267 -0.09087063 -0.09091657 -0.09095855 -0.09099318 -0.09102136 -0.09104275 -0.09105819 -0.09106804 -0.0910723
 -0.09107061 -0.09106525 -0.09105618 -0.091048 -0.09104112 -0.09103938 -0.09104304 -0.09105493 -0.09107512 -0.09110535
 -0.09114493 -0.09119076 -0.0912412 -0.09128811 -0.09133092 -0.09136319 -0.09138732 -0.09140432 -0.09141693 -0.09142932
 -0.09144174 -0.09145626 -0.09147091 -0.09148503 -0.0914974 -0.09150708 -0.09151475 -0.09151994 -0.0915258 -0.09153263
 -0.09154419 -0.09156111 -0.09158354 -0.09161157 -0.09163998 -0.09166853 -0.09169242 -0.09171222 -0.09172918 -0.09174445
 -0.0917636 -0.09178651 -0.09181627 -0.09185079 -0.09188818 -0.09192573 -0.09195899 -0.0919874 -0.09200812 -0.09202418
 -0.09203613 -0.09204808 -0.09206209 -0.09207945 -0.09210113 -0.09212608 -0.09215412 -0.09218533 -0.09221972 -0.09225769
 -0.09229939 -0.09233952 -0.09237766 -0.0924048 -0.09242155 -0.09242707 -0.09242365 -0.09242076 -0.09241842 -0.09242238
 -0.0924295 -0.09243595 -0.09244142 -0.09244286 -0.09244414 -0.09244815 -0.09245579 -0.09246977 -0.0924849 -0.09249962
 -0.0925102 -0.09251418 -0.0925158 -0.09251507 -0.0925185 -0.09252725 -0.09254032 -0.09255785 -0.09257285 -0.09258509
 -0.09259025 -0.092589 -0.09258402 -0.09257641 -0.09257233 -0.09257177 -0.09257816 -0.09259024 -0.09260764 -0.09262844
 -0.09265072 -0.09267116 -0.09268651 -0.0926935 -0.09268789 -0.09267288 -0.09264699 -0.09262114 -0.0925983 -0.09258527
 -0.09258522 -0.09259158 -0.09260458 -0.0926111 -0.09261015 -0.09259647 -0.09257031 -0.0925386 -0.09250201 -0.09246933
 -0.09244001 -0.09241662 -0.0923978 -0.09238128 -0.09236581 -0.09234818 -0.09232736 -0.09230057 -0.09226768 -0.09222702
 -0.09218064 -0.09212867 -0.09207524 -0.09202214 -0.0919721 -0.09192684 -0.09188477 -0.09184656 -0.09180576 -0.09176207
 -0.09170657 -0.09163864 -0.09155113 -0.09144397 -0.09131736 -0.09117263 -0.09102011 -0.09086157 -0.0907106 -0.09056678
 -0.09043634 -0.09031694 -0.09020709 -0.09010459 -0.09000629 -0.08990964 -0.0898116 -0.0897093 -0.08959959 -0.08948274
 -0.08935761 -0.08922723 -0.08909326 -0.0889527 -0.08880617 -0.08864431 -0.08846548 -0.0882686 -0.08805301 -0.0878325
 -0.08760775 -0.08739146 -0.08718304 -0.08698314 -0.08679051 -0.08659961 -0.08641033 -0.08621927 -0.08602741 -0.08583537
 -0.08564315 -0.08545233 -0.08525871 -0.08506015 -0.08484948 -0.08462012 -0.08437249 -0.08410213 -0.08382356 -0.08353974
 -0.08326415 -0.0830017 -0.0827489 -0.08250689 -0.08226158 -0.08201192 -0.08174977 -0.08147511 -0.08119296 -0.08090407
 -0.08061745 -0.08033227 -0.08004963 -0.07976766 -0.07948098 -0.07918966 -0.07889064 -0.07858625 -0.07827877 -0.07796932
 -0.07766037 -0.07735046 -0.07703911 -0.07672589 -0.07641008 -0.0760933 -0.07577602 -0.07545879 -0.07514194 -0.07482486
 -0.07450755 -0.07418934 -0.07387033 -0.07354628 -0.07321685 -0.0728735 -0.07251652 -0.07214401 -0.07175858 -0.07137173
 -0.07098549 -0.07061314 -0.07025189 -0.06990317 -0.06956165 -0.06921986 -0.06887551 -0.06852271 -0.06816391 -0.06779879
 -0.06743073 -0.06706207 -0.06669155 -0.06631994 -0.06594236 -0.06555741 -0.06516483 -0.06476361 -0.06436197 -0.06396049
 -0.06356621 -0.06317927 -0.0627955 -0.06241407 -0.06202487 -0.06162832 -0.06122073 -0.06080405 -0.06038231 -0.05995714
 -0.05953421 -0.05911332 -0.05869706 -0.05828352 -0.05787192 -0.05746002 -0.05704566 -0.05662884 -0.05620871 -0.05578691
 -0.05536401 -0.05494007 -0.05451546 -0.05408835 -0.05365823 -0.05322642 -0.05279275 -0.05236318 -0.051938 -0.05152235
 -0.05111565 -0.05071456 -0.05031733 -0.04991337 -0.04950162 -0.04907228 -0.04862741 -0.04816573 -0.04769187 -0.04721221
 -0.04672989 -0.04625127 -0.04577531 -0.04530374 -0.04483309 -0.04436196 -0.04388839 -0.0434111 -0.04293078 -0.04244729
 -0.04196185 -0.04147473 -0.04098567 -0.04049478 -0.04000005 -0.0395014 -0.03899699 -0.0384868 -0.03797004 -0.0374469
 -0.03691778 -0.03638345 -0.0358465 -0.03530782 -0.03477108 -0.03423555 -0.03370214 -0.03316867 -0.0326327 -0.03209417
 -0.03155152 -0.03100778 -0.03046382 -0.02992286 -0.02938631 -0.02885548 -0.02833082 -0.02781357 -0.02730424 -0.0268013
 -0.02630497 -0.0258088 -0.02531249 -0.02481135 -0.02430579 -0.02379896 -0.02329144 -0.02278842 -0.02228901 -0.02179275
 -0.02129912 -0.02080582 -0.02031515 -0.01982927 -0.0193512 -0.01888555 -0.01843246 -0.01799453 -0.0175677 -0.01715114
 -0.01673942 -0.01633009 -0.01592154 -0.01551204 -0.01510675 -0.01470593 -0.01431611 -0.01393817 -0.01357187 -0.01321718
 -0.01286923 -0.01252787 -0.01219021 -0.01185619 -0.01152442 -0.01119434 -0.01086308 -0.01053075 -0.01019561 -0.009859546
 -0.009524629 -0.009192765 -0.008867011 -0.0085479 -0.008236817 -0.007933676 -0.007638883 -0.007351821 -0.007072481 -0.006799785
 -0.006533394 -0.006273059 -0.006018573 -0.005770925 -0.005530193 -0.005297051 -0.005071536 -0.004853445 -0.004642685 -0.004438265
 -0.00423974 -0.004044107 -0.003850796 -0.003655814 -0.003459798 -0.003262077 -0.003063916 -0.002867306 -0.002672437 -0.002480266
 -0.002290745 -0.002103434 -0.001920657 -0.001743418 -0.001573824 -0.001413828 -0.001260163 -0.001113177 -0.0009654919 -0.0008157534
 -0.0006605907 -0.0004990095 -0.0003371568 -0.0001753198 -2.320093E-05 0.0001193192 0.000251111 0.0003739758 0.0004986676 0.0006259115
 0.0007655721 0.0009137483 0.001066638 0.00121903 0.001359145 0.001487995 0.00160027 0.001704045 0.001803626 0.001906444
 0.002018756 0.00214063 0.00227455 0.002414402 0.002559367 0.002703173 0.002844056 0.002982886 0.003119077 0.003261079
 0.003409363 0.003569316 0.003740251 0.003913475 0.004086897 0.004242467 0.004380045 0.004488079 0.004570907 0.004632451
 0.004678861 0.004722795 0.004766647 0.004819421 0.004877549 0.004941271 0.005006438 0.005069835 0.005132486 0.005194042
 0.005256059 0.005320331 0.00537976 0.005434234 0.005471789 0.005490676 0.005489138 0.005466825 0.005437157 0.005400943
 0.005373376 0.005353535 0.005343706 0.005340761 0.005334227 0.005321419 0.00528981 0.005239774 0.005165185 0.005070423
 0.004956921 0.004832743 0.004704071 0.004579556 0.004466323 0.004367233 0.004287117 0.004217159 0.004157627 0.004092061
 0.004017363 0.00392438 0.00381071 0.003685066 0.003547671 0.003417868 0.003296273 0.003194854 0.003112498 0.003047327
 0.002998265 0.002959744 0.00293244 0.002916234 0.002909807 0.002913343 0.00291852 0.002916539 0.002897144 0.002846339
 0.002766083 0.002649323 0.002515943 0.002370549 0.002235283 0.002118578 0.002025455 0.001959993 0.001909048 0.001872194
 0.001832294 0.001788199 0.001729472 0.001655977 0.001565594 0.001458989 0.001339546 0.001208093 0.001069689 0.0009247714
 0.0007766148 0.0006263182 0.0004767526 0.00033028 0.0001907604 6.044871E-05 -5.657017E-05 -0.0001619339 -0.0002534003 -0.0003404123
 -0.000423919 -0.0005210113 -0.0006359349 -0.0007836146 -0.0009689252 -0.001190085 -0.001448878 -0.001725433 -0.002018661 -0.002308915
 -0.002595807 -0.002874212 -0.003144851 -0.003410904 -0.003672144 -0.003928821 -0.004181063 -0.004428675 -0.0046735 -0.004919398
 -0.005166272 -0.005416858 -0.005666669 -0.005912194 -0.006151563 -0.006380624 -0.006606213 -0.006829143 -0.00705941 -0.007300834
 -0.007555578 -0.007826061 -0.008102817 -0.008385796 -0.008658956 -0.008921195 -0.009160656 -0.009377392 -0.009574757 -0.009755039
 -0.009937339 -0.01012348 -0.01033283 -0.01056243 -0.01081543 -0.01108491 -0.01135918 -0.01163352 -0.01189579 -0.01214747
 -0.01238506 -0.01261311 -0.01283351 -0.01304957 -0.01326276 -0.01347652 -0.01369148 -0.01391301 -0.0141424 -0.01438212
 -0.01463331 -0.01488966 -0.01515091 -0.01540738 -0.01565887 -0.0159041 -0.0161442 -0.01638793 -0.01663597 -0.01689651
 -0.01716804 -0.01745069 -0.01774241 -0.01803898 -0.01833998 -0.01864294 -0.01894844 -0.01925643 -0.01956668 -0.01987912
 -0.02019328 -0.02050854 -0.02082626 -0.02114633 -0.02147187 -0.02180348 -0.02214336 -0.02249218 -0.0228481 -0.02321121
 -0.02357502 -0.02393915 -0.02429576 -0.02464505 -0.02498451 -0.02531594 -0.0256459 -0.02597643 -0.02631781 -0.0266687
 -0.02703264 -0.02740424 -0.02777747 -0.02814859 -0.02851037 -0.02886596 -0.02921472 -0.02956196 -0.02991112 -0.03026067
 -0.0306119 -0.03095757 -0.03129627 -0.03162407 -0.03193999 -0.03224511 -0.0325394 -0.03282398 -0.03309898 -0.03336762
 -0.03363097 -0.03389999 -0.03417612 -0.0344731 -0.03478911 -0.03512756 -0.03548203 -0.03584196 -0.03620057 -0.03654307
 -0.03686829 -0.03716784 -0.03744887 -0.03771174 -0.03796935 -0.03822751 -0.03849563 -0.03877952 -0.03907587 -0.03938653
 -0.03969733 -0.04000667 -0.04030412 -0.04058835 -0.04086185 -0.04112475 -0.04138251 -0.04163425 -0.04187406 -0.04210002
 -0.04229814 -0.04247043 -0.04261302 -0.042735 -0.04285163 -0.04297403 -0.04312602 -0.04330954 -0.04353897 -0.04380046
 -0.04409216 -0.04439098 -0.04468528 -0.04496161 -0.04521069 -0.04543888 -0.04564447 -0.04584396 -0.04603981 -0.04623922
 -0.04644342 -0.04664635 -0.04684771 -0.04704002 -0.04722361 -0.04739892 -0.04756678 -0.04773175 -0.04789352 -0.04805358
 -0.04821103 -0.04836429 -0.04851355 -0.04865805 -0.04879908 -0.04893761 -0.04907464 -0.04921112 -0.04934771 -0.04948408
 -0.04962413 -0.04976778 -0.04992401 -0.05009413 -0.05028835 -0.05050879 -0.0507575 -0.05103548 -0.05133068 -0.05164234
 -0.05194936 -0.05225091 -0.05253002 -0.05278833 -0.05302427 -0.05324205 -0.05345419 -0.05366383 -0.05388491 -0.05411547
 -0.05435957 -0.05461164 -0.05486723 -0.05512273 -0.05537317 -0.05562045 -0.05586365 -0.05610728 -0.05635269 -0.05660279
 -0.05685879 -0.05712043 -0.05738828 -0.05765805 -0.05792972 -0.05819477 -0.05845278 -0.05869563 -0.05892376 -0.05913813
 -0.05934105 -0.05954512 -0.05975231 -0.05997698 -0.06021663 -0.06047422 -0.06074312 -0.06101434 -0.06128334 -0.06154034
 -0.06178842 -0.06202604 -0.06225923 -0.06249171 -0.0627234 -0.06295645 -0.06318332 -0.06340268 -0.06360859 -0.06379931
 -0.06397764 -0.06414344 -0.06430371 -0.06445878 -0.06461072 -0.06475908 -0.06489881 -0.0650299 -0.06514876 -0.06525783
 -0.06536304 -0.06546767 -0.06558291 -0.06570821 -0.06584913 -0.06599973 -0.06615636 -0.06631188 -0.06645998 -0.06659566
 -0.06671497 -0.06681478 -0.06689325 -0.06694849 -0.06697929 -0.06698745 -0.06697267 -0.06694031 -0.06689084 -0.06682872
 -0.06675419 -0.06666671 -0.06656586 -0.06644671 -0.06630851 -0.06614468 -0.06595484 -0.06573359 -0.06548236 -0.06520084
 -0.06489296 -0.06456418 -0.06421931 -0.06386606 -0.06350638 -0.06314506 -0.06277968 -0.06241078 -0.06203375 -0.06164662
 -0.06124818 -0.06083688 -0.06041766 -0.05999058 -0.05956351 -0.05913718 -0.05871673 -0.05830244 -0.05789813 -0.05750455
 -0.05713218 -0.05678287 -0.05647337 -0.05620388 -0.05598515 -0.0558137 -0.05568695 -0.05560089 -0.05554748 -0.05552531
 -0.05553099 -0.05556024 -0.05561217 -0.05567206 -0.05573458 -0.0557791 -0.05579654 -0.05577577 -0.05571052 -0.05560647
 -0.05546275 -0.0552922 -0.05509603 -0.0548825 -0.05465211 -0.05440933 -0.05415472 -0.05389651 -0.05363615 -0.05338625
 -0.05314871 -0.05293629 -0.05275175 -0.05260706 -0.05250616 -0.0524609 -0.05247347 -0.0525519 -0.05269384 -0.05290015
 -0.05316781 -0.05349414 -0.05388194 -0.05433093 -0.05484694 -0.05543244 -0.05608582 -0.05680886 -0.0575872 -0.05842064
 -0.05928463 -0.06017784 -0.06107014 -0.0619598 -0.06281655 -0.06363969 -0.06440848 -0.06512515 -0.06578566 -0.06639496
 -0.06696264 -0.06749351 -0.06800019 -0.06848485 -0.06895522 -0.069411 -0.06985451 -0.07028455 -0.07070124 -0.07110272
 -0.07148869 -0.07185613 -0.07220415 -0.07253092 -0.07283539 -0.07312104 -0.0733878 -0.07364318 -0.07388764 -0.07412533
 -0.07435591 -0.07457443 -0.07477951 -0.07495955 -0.07511379 -0.07523207 -0.07531702 -0.07536767 -0.07539286 -0.07540468
 -0.07541738 -0.07545187 -0.07552061 -0.07564247 -0.07581837 -0.07605701 -0.07634485 -0.07668094 -0.07704423 -0.07743028
 -0.07781857 -0.07820556 -0.07857397 -0.07892188 -0.07923483 -0.07951178 -0.07974391 -0.07993165 -0.08008033 -0.08019397
 -0.08030015 -0.08040725 -0.0805619 -0.08077185 -0.08108285 -0.08149262 -0.08202288 -0.08265498 -0.08337954 -0.0841658
 -0.08498736 -0.08581383 -0.08661995 -0.08738994 -0.08810984 -0.08878189 -0.0894027 -0.08998423 -0.09052805 -0.09104338
 -0.09153169 -0.09199557 -0.09243534 -0.0928513 -0.09324364 -0.09361531 -0.09396692 -0.09430435 -0.09462824 -0.09494433
 -0.09525268 -0.09555645 -0.09585513 -0.09614921 -0.09643814 -0.09672137 -0.09699855 -0.09726905 -0.09753301 -0.09778993
 -0.09804147 -0.09828785 -0.09853191 -0.09877469 -0.09901696 -0.09925962 -0.09949838 -0.09973311 -0.09995759 -0.1001713
 -0.1003732 -0.1005633 -0.1007467 -0.1009237 -0.1010999 -0.1012747 -0.101449 -0.101622 -0.1017915 -0.1019578
 -0.10212 -0.1022795 -0.1024376 -0.102596 -0.1027572 -0.1029209 -0.1030884 -0.1032573 -0.103427 -0.1035945
 -0.1037587 -0.1039184 -0.104073 -0.1042229 -0.104368 -0.1045076 -0.1046418 -0.1047689 -0.1048891 -0.1050037
 -0.1051131 -0.105223 -0.1053337 -0.1054508 -0.1055735 -0.1057033 -0.1058376 -0.1059725 -0.1061058 -0.106232
 -0.1063518 -0.106463 -0.1065697 -0.1066736 -0.106779 -0.1068888 -0.1070026 -0.1071216 -0.1072406 -0.107359
 -0.1074724 -0.10758 -0.1076831 -0.1077817 -0.1078812 -0.1079818 -0.1080864 -0.1081947 -0.1083041 -0.108414
 -0.1085199 -0.1086225 -0.1087207 -0.1088163 -0.1089123 -0.1090097 -0.1091114 -0.1092165 -0.1093252 -0.1094363
 -0.109549 -0.1096622 -0.1097755 -0.1098883 -0.1100003 -0.1101117 -0.1102222 -0.1103331 -0.1104445 -0.1105579
 -0.1106736 -0.1107918 -0.1109126 -0.1110353 -0.11116 -0.1112857 -0.1114127 -0.1115404 -0.1116687 -0.1117966
 -0.1119241 -0.1120504 -0.1121755 -0.112299 -0.1124211 -0.112542 -0.1126615 -0.1127796 -0.1128945 -0.1130055
 -0.1131109 -0.1132096 -0.113304 -0.1133935 -0.1134847 -0.1135783 -0.1136794 -0.1137885 -0.1139044 -0.1140267
 -0.1141489 -0.1142706 -0.1143854 -0.1144936 -0.1145933 -0.1146858 -0.1147734 -0.1148574 -0.1149414 -0.1150255
 -0.1151115 -0.1151987 -0.115287 -0.1153762 -0.115466 -0.115557 -0.1156495 -0.1157427 -0.1158366 -0.1159292
 -0.1160197 -0.116108 -0.1161936 -0.1162797 -0.1163667 -0.1164578 -0.116553 -0.1166512 -0.1167518 -0.1168496
 -0.1169443 -0.117032 -0.1171138 -0.1171906 -0.1172641 -0.1173381 -0.1174131 -0.1174919 -0.1175737 -0.1176589
 -0.1177469 -0.1178371 -0.1179296 -0.1180242 -0.1181203 -0.118218 -0.1183164 -0.1184155 -0.1185152 -0.1186154
 -0.1187158 -0.1188165 -0.1189153 -0.1190119 -0.1191039 -0.1191917 -0.1192763 -0.1193585 -0.1194437 -0.1195321
 -0.1196284 -0.119731 -0.1198393 -0.1199504 -0.1200595 -0.1201659 -0.1202659 -0.1203628 -0.1204574 -0.1205535
 -0.1206539 -0.1207574 -0.1208652 -0.1209714 -0.1210749 -0.1211718 -0.1212609 -0.1213443 -0.1214219 -0.121499
 -0.1215757 -0.1216561 -0.12174 -0.1218283 -0.1219206 -0.1220154 -0.1221124 -0.122209 -0.122305 -0.1223987
 -0.1224907 -0.122581 -0.1226708 -0.1227613 -0.1228528 -0.122946 -0.1230398 -0.1231341 -0.1232274 -0.1233194
 -0.1234093 -0.1234969 -0.1235818 -0.123664 -0.1237434 -0.1238199 -0.1238937 -0.123965 -0.1240349 -0.1241034
 -0.1241722 -0.1242414 -0.1243124 -0.1243852 -0.1244607 -0.1245384 -0.124618 -0.1246985 -0.1247782 -0.1248562
 -0.1249305 -0.1250008 -0.1250659 -0.1251272 -0.1251845 -0.1252406 -0.1252966 -0.1253546 -0.1254154 -0.1254788
 -0.125545 -0.1256116 -0.1256783 -0.1257436 -0.1258072 -0.1258699 -0.1259319 -0.1259949 -0.1260588 -0.1261237
 -0.1261889 -0.1262519 -0.1263125 -0.1263679 -0.1264194 -0.126467 -0.1265136 -0.1265624 -0.1266156 -0.1266764
 -0.1267435 -0.1268178 -0.126895 -0.1269738 -0.1270508 -0.1271245 -0.1271949 -0.1272616 -0.1273262 -0.1273887
 -0.1274499 -0.1275099 -0.1275682 -0.127625 -0.1276795 -0.127732 -0.127783 -0.127833 -0.1278841 -0.127937
 -0.1279946 -0.1280569 -0.1281254 -0.1281985 -0.1282752 -0.1283534 -0.1284311 -0.1285082 -0.1285838 -0.1286598
 -0.1287367 -0.1288152 -0.1288958 -0.128976 -0.1290555 -0.1291319 -0.1292047 -0.1292741 -0.1293402 -0.1294047
 -0.129468 -0.1295314 -0.1295952 -0.1296601 -0.1297264 -0.1297953 -0.1298669 -0.1299425 -0.1300216 -0.1301039
 -0.1301876 -0.1302705 -0.1303503 -0.1304243 -0.1304922 -0.1305522 -0.1306076 -0.1306586 -0.1307101 -0.1307635
 -0.1308207 -0.1308826 -0.1309472 -0.1310146 -0.1310822 -0.1311497 -0.1312166 -0.1312828 -0.131349 -0.1314152
 -0.1314818 -0.1315487 -0.1316154 -0.1316817 -0.1317462 -0.1318085 -0.1318672 -0.1319224 -0.1319739 -0.1320233
 -0.1320719 -0.132121 -0.1321717 -0.1322231 -0.1322751 -0.1323262 -0.1323759 -0.132425 -0.1324734 -0.1325229
 -0.1325734 -0.1326245 -0.132676 -0.1327266 -0.1327764 -0.1328266 -0.1328774 -0.1329309 -0.1329866 -0.1330441
 -0.1331024 -0.1331588 -0.1332134 -0.1332649 -0.1333143 -0.1333623 -0.1334096 -0.1334573 -0.1335052 -0.1335537
 -0.1336022 -0.1336503 -0.133698 -0.1337452 -0.1337922 -0.1338392 -0.1338865 -0.1339345 -0.1339827 -0.1340312
 -0.1340789 -0.1341258 -0.1341717 -0.1342166 -0.1342617 -0.1343069 -0.1343527 -0.1343984 -0.1344425 -0.1344843
 -0.1345215 -0.1345547 -0.1345838 -0.1346111 -0.1346386 -0.1346686 -0.1347033 -0.1347422 -0.1347862 -0.1348321
 -0.134879 -0.1349244 -0.1349676 -0.1350088 -0.1350478 -0.1350868 -0.1351261 -0.1351662 -0.1352072 -0.1352474
 -0.1352866 -0.1353229 -0.1353566 -0.1353879 -0.1354178 -0.1354484 -0.1354805 -0.1355161 -0.1355551 -0.135598
 -0.1356449 -0.1356955 -0.1357515 -0.1358131 -0.1358836 -0.1359641 -0.1360569 -0.1361633 -0.1362811 -0.1364109
 -0.1365457 -0.136685 -0.1368211 -0.1369535 -0.1370787 -0.1371969 -0.1373097 -0.1374171 -0.1375213 -0.137621
 -0.1377139 -0.1377977 -0.1378658 -0.1379163 -0.1379426 -0.1379442 -0.1379173 -0.1378629 -0.1377785 -0.1376718
 -0.137543 -0.1374122 -0.1372861 -0.1371857 -0.1371198 -0.1370934 -0.1371109 -0.1371595 -0.1372392 -0.1373267
 -0.1374205 -0.1374994 -0.1375631 -0.1376073 -0.1376335 -0.1376527 -0.1376652 -0.1376782 -0.1376903 -0.1377012
 -0.1377101 -0.1377156 -0.1377171 -0.1377135 -0.137703 -0.1376834 -0.137655 -0.1376166 -0.1375726 -0.1375241
 -0.1374764 -0.1374314 -0.1373916 -0.1373581 -0.1373304 -0.1373086 -0.1372906 -0.1372762 -0.1372634 -0.1372521
 -0.1372413 -0.1372308 -0.1372194 -0.1372069 -0.1371914 -0.1371734 -0.137153 -0.1371318 -0.1371126 -0.1370966
 -0.1370868 -0.1370828 -0.1370856 -0.1370935 -0.1371061 -0.1371206 -0.137136 -0.1371497 -0.1371605 -0.1371667
 -0.1371674 -0.1371639 -0.137156 -0.1371476 -0.137139 -0.1371337 -0.137132 -0.1371346 -0.1371415 -0.1371509
 -0.1371626 -0.1371746 -0.1371872 -0.1372 -0.1372137 -0.1372293 -0.1372464 -0.1372655 -0.1372845 -0.1373018
 -0.1373158 -0.1373245 -0.1373286 -0.1373276 -0.1373239 -0.1373184 -0.1373128 -0.1373078 -0.137303 -0.1372986
 -0.1372939 -0.137289 -0.1372843 -0.1372799 -0.1372772 -0.1372761 -0.1372767 -0.1372788 -0.1372815 -0.1372847
 -0.1372877 -0.1372904 -0.1372925 -0.1372936 -0.1372929 -0.1372898 -0.1372831 -0.137273 -0.137259 -0.1372435
 -0.1372272 -0.1372135 -0.1372039 -0.1371991 -0.1372001 -0.1372033 -0.1372085 -0.1372117 -0.1372123 -0.1372097
 -0.1372041 -0.1371977 -0.1371905 -0.1371839 -0.1371775 -0.1371704 -0.1371626 -0.1371535 -0.1371437 -0.1371335
 -0.1371235 -0.1371142 -0.137106 -0.1370993 -0.1370946 -0.1370924 -0.1370918 -0.137093 -0.1370932 -0.1370917
 -0.1370863 -0.1370762 -0.137063 -0.1370465 -0.1370312 -0.1370174 -0.137007 -0.1370001 -0.1369947 -0.1369905
 -0.1369849 -0.136978 -0.1369699 -0.1369612 -0.1369538 -0.1369479 -0.1369448 -0.136944 -0.1369455 -0.1369483
 -0.1369516 -0.1369537 -0.1369533 -0.1369491 -0.1369395 -0.1369255 -0.1369067 -0.1368866 -0.1368659 -0.1368476
 -0.1368324 -0.1368198 -0.1368101 -0.1368015 -0.1367937 -0.1367865 -0.1367799 -0.1367747 -0.1367706 -0.1367675
 -0.136765 -0.1367622 -0.1367591 -0.1367556 -0.136752 -0.1367489 -0.136746 -0.1367436 -0.1367403 -0.1367354
 -0.1367278 -0.1367166 -0.1367032 -0.1366877 -0.1366733 -0.1366609 -0.1366513 -0.136645 -0.1366398 -0.1366354
 -0.1366295 -0.136622 -0.1366131 -0.136603 -0.1365936 -0.136585 -0.1365785 -0.1365738 -0.1365706 -0.1365681
 -0.1365646 -0.1365594 -0.1365506 -0.1365386 -0.1365229 -0.1365049 -0.1364852 -0.1364652 -0.1364455 -0.1364271
 -0.1364104 -0.136396 -0.136384 -0.1363744 -0.1363672 -0.1363604 -0.136354 -0.1363457 -0.1363356 -0.1363233
 -0.1363089 -0.1362936 -0.1362777 -0.1362625 -0.1362476 -0.1362333 -0.1362191 -0.1362039 -0.1361879 -0.1361702
 -0.1361519 -0.1361333 -0.1361159 -0.1361009 -0.1360887 -0.1360799 -0.1360733 -0.1360686 -0.1360646 -0.1360609
 -0.1360571 -0.1360531 -0.1360487 -0.1360438 -0.1360378 -0.1360305 -0.136021 -0.1360094 -0.135995 -0.1359779
 -0.1359587 -0.1359378 -0.1359169 -0.1358965 -0.1358783 -0.1358619 -0.1358477 -0.1358351 -0.1358232 -0.1358118
 -0.1358005 -0.1357893 -0.1357783 -0.1357672 -0.135756 -0.1357441 -0.1357312 -0.1357173 -0.1357022 -0.1356871
 -0.135672 -0.1356587 -0.135647 -0.1356377 -0.1356306 -0.1356238 -0.1356171 -0.1356073 -0.1355947 -0.1355786
 -0.1355603 -0.1355422 -0.135525 -0.1355115 -0.1355004 -0.1354917 -0.1354833 -0.1354734 -0.1354619 -0.135448
 -0.135433 -0.1354175 -0.135402 -0.135387 -0.1353716 -0.1353557 -0.135339 -0.1353215 -0.1353042 -0.1352872
 -0.1352714 -0.1352566 -0.1352421 -0.1352281 -0.135214 -0.1352004 -0.1351887 -0.1351786 -0.1351711 -0.1351649
 -0.1351586 -0.1351509 -0.1351397 -0.1351253 -0.1351074 -0.1350871 -0.1350653 -0.1350429 -0.1350205 -0.134999
 -0.1349786 -0.1349604 -0.1349445 -0.1349304 -0.134918 -0.1349039 -0.134888 -0.1348672 -0.1348416 -0.1348124
 -0.1347802 -0.1347489 -0.1347187 -0.1346927 -0.1346697 -0.1346492 -0.1346298 -0.1346091 -0.1345866 -0.1345608
 -0.1345326 -0.1345022 -0.1344712 -0.1344408 -0.1344116 -0.1343845 -0.1343589 -0.134335 -0.1343115 -0.134288
 -0.1342629 -0.1342363 -0.1342071 -0.1341754 -0.1341409 -0.1341037 -0.1340639 -0.1340214 -0.1339765 -0.1339293
 -0.1338811 -0.1338324 -0.1337852 -0.1337398 -0.1336975 -0.1336578 -0.1336208 -0.1335853 -0.1335508 -0.133516
 -0.1334803 -0.1334424 -0.1334018 -0.1333583 -0.1333115 -0.1332634 -0.1332142 -0.1331661 -0.1331194 -0.133075
 -0.1330331 -0.1329934 -0.1329559 -0.13292 -0.1328855 -0.1328512 -0.1328166 -0.13278 -0.1327413 -0.1326991
 -0.1326535 -0.1326036 -0.1325506 -0.1324949 -0.1324386 -0.1323837 -0.1323315 -0.1322839 -0.1322393 -0.1321978
 -0.1321562 -0.1321135 -0.1320678 -0.1320184 -0.1319658 -0.1319097 -0.1318513 -0.1317909 -0.1317297 -0.131668
 -0.1316075 -0.1315484 -0.1314919 -0.1314376 -0.1313851 -0.1313342 -0.1312841 -0.1312343 -0.1311837 -0.1311319
 -0.1310778 -0.1310211 -0.1309614 -0.1308991 -0.1308342 -0.1307671 -0.1306977 -0.1306266 -0.1305536 -0.1304805
 -0.1304076 -0.1303368 -0.1302685 -0.1302022 -0.1301379 -0.1300729 -0.1300069 -0.1299368 -0.1298626 -0.129783
 -0.1296989 -0.1296124 -0.1295246 -0.1294403 -0.1293596 -0.1292854 -0.1292154 -0.1291486 -0.1290821 -0.1290129
 -0.1289404 -0.1288632 -0.128783 -0.1287002 -0.1286169 -0.1285341 -0.1284525 -0.1283725 -0.1282929 -0.1282139
 -0.1281335 -0.1280515 -0.1279676 -0.1278816 -0.127795 -0.1277076 -0.1276208 -0.1275344 -0.1274487 -0.1273636
 -0.1272791 -0.1271947 -0.1271095 -0.1270227 -0.1269326 -0.1268389 -0.1267401 -0.1266374 -0.1265306 -0.1264215
 -0.1263104 -0.1261992 -0.1260882 -0.1259786 -0.1258709 -0.125765 -0.1256611 -0.1255582 -0.1254564 -0.1253544
 -0.1252521 -0.125149 -0.125045 -0.1249404 -0.1248353 -0.1247305 -0.1246255 -0.1245195 -0.1244115 -0.1242984
 -0.1241804 -0.1240555 -0.1239267 -0.1237963 -0.1236669 -0.1235417 -0.1234191 -0.1232994 -0.12318 -0.1230596
 -0.1229385 -0.1228166 -0.1226953 -0.1225752 -0.1224541 -0.1223321 -0.1222055 -0.1220742 -0.1219372 -0.1217947
 -0.1216484 -0.1214988 -0.1213485 -0.121198 -0.12105 -0.1209042 -0.1207613 -0.1206204 -0.1204802 -0.1203396
 -0.1201972 -0.120052 -0.119903 -0.1197491 -0.1195891 -0.1194246 -0.1192552 -0.1190852 -0.1189156 -0.1187486
 -0.1185853 -0.118422 -0.1182588 -0.1180912 -0.1179192 -0.1177432 -0.1175637 -0.1173843 -0.1172047 -0.1170253
 -0.1168448 -0.116659 -0.1164672 -0.1162651 -0.1160547 -0.1158362 -0.1156131 -0.115389 -0.1151651 -0.1149438
 -0.114723 -0.114502 -0.1142789 -0.1140524 -0.1138236 -0.1135925 -0.1133601 -0.1131268 -0.1128903 -0.1126507
 -0.1124026 -0.1121458 -0.1118755 -0.111592 -0.1112961 -0.1109891 -0.1106784 -0.1103647 -0.1100548 -0.1097465
 -0.1094387 -0.1091282 -0.1088094 -0.1084813 -0.1081404 -0.1077888 -0.1074268 -0.1070564 -0.106679 -0.1062936
 -0.1059012 -0.105496 -0.1050774 -0.1046385 -0.1041775 -0.1036973 -0.1031975 -0.1026939 -0.1021872 -0.1016885
 -0.1011972 -0.1007093 -0.1002243 -0.09973675 -0.09924808 -0.09876183 -0.0982765 -0.09779321 -0.09730329 -0.09679431
 -0.09626042 -0.09568714 -0.09508485 -0.09445431 -0.09381219 -0.09316936 -0.09252579 -0.09188607 -0.09123626 -0.0905738
 -0.08989031 -0.08918396 -0.08845398 -0.08770081 -0.08691229 -0.0860875 -0.08519613 -0.08423781 -0.08319477 -0.08207324
 -0.0808973 -0.0796713 -0.07842667 -0.0771528 -0.07584404 -0.0744844 -0.07304495 -0.07152255 -0.06990029 -0.06818871
 -0.06639016 -0.06451391 -0.06256497 -0.0605492 -0.05846571 -0.05633596 -0.05416081 -0.05197847 -0.0497946 -0.04763437
 -0.04550125 -0.04339617 -0.04131921 -0.03926372 -0.03722794 -0.03519421 -0.03315513 -0.03106203 -0.02890797 -0.02663317
 -0.02426089 -0.02180023 -0.01930795 -0.01688169 -0.01454175 -0.01236057 -0.01029564 -0.008338943 -0.006450207 -0.004599326
 -0.002792558 -0.001022638 0.0006855052 0.002325282 0.003891771 0.005382998 0.006801069 0.008146397 0.009413065 0.01060084
 0.0117134 0.01275158 0.01372805 0.01464135 0.01548929 0.0162704 0.01697469 0.0176106 0.01818868 0.01872594
 0.01925476 0.01978323 0.02033768 0.0209034 0.02147816 0.02204671 0.0225965 0.02313452 0.02366069 0.02418178
 0.02470285 0.02520775 0.02569599 0.02614426 0.0265499 0.02690489 0.02720869 0.02746372 0.02766992 0.02782706
 0.02793516 0.02799331 0.02800322 0.02796996 0.02789616 0.02778948 0.02765397 0.02749729 0.02732811 0.02715678
 0.02699588 0.02685705 0.02675217 0.02668905 0.02667948 0.02672791 0.02684771 0.02704382 0.02731913 0.02767696
 0.02809983 0.02858685 0.0291177 0.02969121 0.03030222 0.03095068 0.03163594 0.03235653 0.03310348 0.03387506
 0.03465984 0.03545812 0.03626476 0.03708113 0.037907 0.03874412 0.03959421 0.04045903 0.04134099 0.04223959
 0.04315549 0.04408683 0.04503284 0.04599318 0.0469677 0.04795587 0.04895791 0.04997113 0.05099558 0.05202632
 0.05306316 0.05409231 0.05511231 0.05609978 0.05705358 0.05795547 0.05880443 0.05959028 0.06030542 0.06092849
 0.06144816 0.06183409 0.06208487 0.06218642 0.06214289 0.06195357 0.061621 0.06114399 0.06053369 0.05979513
 0.05893198 0.05795489 0.05681584 0.0555141 0.05396677 0.05216118 0.05009383 0.04776274 0.04529504 0.04269579
 0.04006599 0.03739562 0.03466741 0.031873 0.0289671 0.0259599 0.02285184 0.01966028 0.0164201 0.01312881
 0.00980361 0.006418526 0.002947877 -0.0005943028 -0.004232082 -0.007855653 -0.01143229 -0.01486453 -0.01810657 -0.02118263
 -0.0240858 -0.02687935 -0.02957212 -0.03216999 -0.03467419 -0.0370548 -0.03931178 -0.04144118 -0.04344665 -0.04535211
 -0.04715798 -0.04887962 -0.0505129 -0.05205377 -0.0535018 -0.05485105 -0.05611148 -0.05729024 -0.05840332 -0.05946675
 -0.06048981 -0.06148305 -0.06244688 -0.06338226 -0.06429464 -0.06518447 -0.06606257 -0.06693363 -0.06778517 -0.06861881
 -0.06939228 -0.07010285 -0.07072866 -0.07127035 -0.0717414 -0.07214277 -0.07248776 -0.07277445 -0.07300154 -0.07316842
 -0.07327259 -0.07331501 -0.07329722 -0.0732174 -0.07307371 -0.07286518 -0.0725885 -0.07224952 -0.07185017 -0.07139716
 -0.07089514 -0.07034177 -0.06973862 -0.0690759 -0.0683525 -0.06755887 -0.06669424 -0.06574801 -0.06471962 -0.06359111
 -0.06236241 -0.06102873 -0.05959759 -0.05811838 -0.05660445 -0.05514022 -0.05372602 -0.05240894 -0.05117514 -0.05002008
 -0.0489339 -0.04790279 -0.04691918 -0.04597799 -0.04505476 -0.04413747 -0.04319467 -0.04220401 -0.04117495 -0.04009764
 -0.03902794 -0.03797609 -0.03697234 -0.03602484 -0.03510961 -0.03422584 -0.03334194 -0.03245743 -0.03156766 -0.03067479
 -0.02979369 -0.0289244 -0.02807669 -0.02724515 -0.02642145 -0.02559725 -0.0247524 -0.02388386 -0.02297688 -0.02203936
 -0.02107264 -0.02008604 -0.01908744 -0.01807626 -0.01705362 -0.01601945 -0.0149708 -0.01392374 -0.01287845 -0.01186307
 -0.01088037 -0.009955366 -0.009089898 -0.008302794 -0.007595246 -0.006988468 -0.006484411 -0.006108132 -0.00586107 -0.005763092
 -0.0058139 -0.006022227 -0.006388661 -0.006917532 -0.007611496 -0.008476652 -0.009512256 -0.01072285 -0.01209696 -0.01363233
 -0.01530715 -0.01711378 -0.01902829 -0.02104292 -0.02313966 -0.02531445 -0.02755353 -0.02985653 -0.03219782 -0.03457662
 -0.03694309 -0.0392944 -0.04157628 -0.04378814 -0.04590089 -0.04791664 -0.04982999 -0.05164093 -0.05334695 -0.0549465
 -0.05643344 -0.057812 -0.05908213 -0.06025738 -0.06134758 -0.06237175 -0.06334317 -0.06428005 -0.06519344 -0.066094
 -0.06698857 -0.0678746 -0.06875422 -0.06961359 -0.07045149 -0.07125518 -0.07202347 -0.07275275 -0.07344282 -0.07409134
 -0.07469677 -0.0752453 -0.07573428 -0.07614288 -0.07647223 -0.07671287 -0.07687199 -0.07695829 -0.07698078 -0.07695489
 -0.07688817 -0.07679204 -0.07667433 -0.07654171 -0.07640462 -0.07626779 -0.0761437 -0.07603639 -0.07595702 -0.07590882
 -0.07589667 -0.0759223 -0.07598148 -0.07607438 -0.07618918 -0.07632514 -0.07646696 -0.0766135 -0.07674874 -0.07687116
 -0.07696546 -0.07702984 -0.07705078 -0.07702763 -0.07695141 -0.07682557 -0.0766492 -0.07643133 -0.07617887 -0.07590356
 -0.07561463 -0.07532179 -0.07503148 -0.07474995 -0.07448037 -0.07422616 -0.07398891 -0.07376815 -0.0735644 -0.07337309
 -0.073194 -0.07302175 -0.07285612 -0.07269473 -0.07253783 -0.07238666 -0.07224201 -0.07210786 -0.07198575 -0.07188185
 -0.07179866 -0.07174382 -0.07172043 -0.07173586 -0.07179265 -0.0718963 -0.07204691 -0.07224695 -0.07249298 -0.07278518
 -0.07311597 -0.07348463 -0.07387785 -0.07429451 -0.07471438 -0.0751356 -0.07553531 -0.07591155 -0.07624781 -0.07654335
 -0.07679257 -0.07699595 -0.07715601 -0.0772735 -0.07735342 -0.07739647 -0.07740721 -0.07738668 -0.07733859 -0.07726532
 -0.07717135 -0.07706008 -0.07693686 -0.07680306 -0.07666207 -0.07651142 -0.07635106 -0.07617744 -0.07598878 -0.07578566
 -0.07556732 -0.07533832 -0.07509905 -0.07485421 -0.07460427 -0.07435161 -0.07409638 -0.07384005 -0.07358289 -0.07332802
 -0.07307613 -0.07283244 -0.07259748 -0.07237604 -0.07216745 -0.07197293 -0.07179085 -0.07161941 -0.07145707 -0.07130154
 -0.07115183 -0.07100652 -0.07086511 -0.07072671 -0.07059228 -0.07046165 -0.0703372 -0.07021952 -0.07010974 -0.07000829
 -0.0699139 -0.06982645 -0.06974518 -0.06967007 -0.06960385 -0.06954686 -0.06950382 -0.06947494 -0.06946377 -0.06947043
 -0.06949709 -0.06954386 -0.06961231 -0.06970187 -0.069813 -0.06994319 -0.07009084 -0.07025111 -0.0704207 -0.07059387
 -0.07076728 -0.07093604 -0.07109793 -0.07124966 -0.07139021 -0.07151715 -0.07162998 -0.0717273 -0.07180886 -0.07187539
 -0.07192694 -0.07196646 -0.07199402 -0.07201175 -0.07201898 -0.07201345 -0.07199343 -0.07195219 -0.07188778 -0.07179211
 -0.07166497 -0.0715019 -0.07130506 -0.07107483 -0.07081432 -0.07052599 -0.07021192 -0.06987384 -0.06951266 -0.06912898
 -0.06872354 -0.0682966 -0.06784867 -0.06737985 -0.06689027 -0.06637985 -0.06585018 -0.06530132 -0.06473805 -0.06416105
 -0.06357958 -0.06299543 -0.06242284 -0.06186476 -0.06133887 -0.06084726 -0.06040453 -0.06000866 -0.05966426 -0.05936463
 -0.0591048 -0.05887713 -0.05867409 -0.05849131 -0.05832443 -0.05817193 -0.05803289 -0.05790449 -0.0577867 -0.05767325
 -0.05756359 -0.0574501 -0.05733209 -0.05720332 -0.05706342 -0.05690815 -0.05673717 -0.05654541 -0.0563321 -0.0560899
 -0.05581832 -0.05551115 -0.05516947 -0.05479204 -0.05438194 -0.05394304 -0.05347965 -0.05299739 -0.05250151 -0.05199717
 -0.05149014 -0.05098443 -0.050485 -0.04999422 -0.04951609 -0.04905176 -0.0486048 -0.04817605 -0.04776703 -0.04737823
 -0.04700672 -0.04665237 -0.0463092 -0.04597697 -0.0456509 -0.04533103 -0.04501532 -0.044704 -0.04439645 -0.04409391
 -0.04379832 -0.04351269 -0.04324295 -0.04299127 -0.04276403 -0.0425574 -0.04237292 -0.0421984 -0.04202938 -0.04185013
 -0.04165378 -0.04143013 -0.04117438 -0.04088655 -0.04056559 -0.04021597 -0.03983844 -0.03943146 -0.03899508 -0.03851715
 -0.03799678 -0.03741809 -0.03678129 -0.03607828 -0.035313 -0.0344937 -0.0336291 -0.03274263 -0.03184661 -0.03097058
 -0.03012834 -0.02934608 -0.02863712 -0.02802015 -0.02750474 -0.0271024 -0.02681307 -0.02664183 -0.02657562 -0.02661441
 -0.02673529 -0.02693593 -0.02718934 -0.02749316 -0.02782077 -0.02817049 -0.02851887 -0.02886492 -0.02919078 -0.02949618
 -0.02977012 -0.03001333 -0.03022231 -0.03039877 -0.03054515 -0.03066298 -0.03075647 -0.03082525 -0.03087063 -0.03089164
 -0.03088675 -0.03085908 -0.03080777 -0.03074349 -0.03066804 -0.03059852 -0.0305384 -0.03050657 -0.03050635 -0.03055341
 -0.03064995 -0.03080433 -0.03101734 -0.03128841 -0.03161699 -0.03199363 -0.03241669 -0.03287077 -0.03335383 -0.03384961
 -0.03435677 -0.03486349 -0.03536951 -0.03586892 -0.03636224 -0.03684705 -0.03732627 -0.03779931 -0.03827616 -0.03875925
 -0.03926782 -0.03980796 -0.04040206 -0.04105784 -0.04178701 -0.04259506 -0.04347248 -0.04442069 -0.04541007 -0.04643917
 -0.04746918 -0.04849815 -0.04949105 -0.05044705 -0.05134298 -0.05217959 -0.05294712 -0.05364761 -0.0542808 -0.05485004
 -0.05535995 -0.0558166 -0.05622803 -0.05660317 -0.05695192 -0.05728221 -0.05760252 -0.05791356 -0.05821914 -0.05851162
 -0.05879065 -0.05904461 -0.05927135 -0.05946269 -0.05961696 -0.05973431 -0.05981442 -0.05986566 -0.05988858 -0.0598935
 -0.05988041 -0.05985417 -0.05981367 -0.05975676 -0.05968246 -0.05958634 -0.0594695 -0.05933121 -0.05917473 -0.0590035
 -0.05882153 -0.05863342 -0.05844237 -0.0582509 -0.0580635 -0.05788145 -0.05771254 -0.05755877 -0.05742767 -0.05732172
 -0.05724065 -0.05718569 -0.05714545 -0.05711951 -0.05708912 -0.05705331 -0.05699345 -0.05690959 -0.05679244 -0.05664472
 -0.05647225 -0.05627968 -0.05608321 -0.05588551 -0.05570012 -0.05552545 -0.05536556 -0.05521621 -0.05507487 -0.05493827
 -0.05480324 -0.05466928 -0.05453523 -0.0544021 -0.05427014 -0.05413929 -0.05400995 -0.05387942 -0.05374758 -0.05361078
 -0.05346874 -0.05331951 -0.05316309 -0.05300027 -0.05283162 -0.05266188 -0.05249232 -0.05233118 -0.05217918 -0.05204354
 -0.05192233 -0.05181585 -0.05172023 -0.05163024 -0.05154325 -0.05145476 -0.05136414 -0.05126995 -0.05117124 -0.05106775
 -0.05095701 -0.05083869 -0.05070883 -0.05056714 -0.05040758 -0.05022956 -0.05002687 -0.04979884 -0.04954455 -0.04926419
 -0.04896498 -0.04864789 -0.04832403 -0.0479944 -0.04766909 -0.04734931 -0.04704371 -0.04675307 -0.04648421 -0.04623424
 -0.04600362 -0.04578457 -0.04557002 -0.04535345 -0.04512646 -0.04489265 -0.04464995 -0.04440921 -0.04417404 -0.04394889
 -0.04373658 -0.04353045 -0.04332999 -0.04312943 -0.04292787 -0.04273066 -0.0425382 -0.04236162 -0.04220083 -0.04206023
 -0.04193781 -0.04182675 -0.04172437 -0.04161859 -0.04150898 -0.04138794 -0.04125847 -0.04112151 -0.04098026 -0.0408396
 -0.04069727 -0.04055474 -0.04040417 -0.04024238 -0.04006335 -0.03986325 -0.03964503 -0.03940756 -0.03916103 -0.03890651
 -0.03865283 -0.03840103 -0.03815147 -0.03790408 -0.03765243 -0.03739639 -0.03713165 -0.03685937 -0.03658296 -0.03630405
 -0.03602997 -0.03576063 -0.03550017 -0.03524581 -0.03499568 -0.03474619 -0.03449238 -0.03423397 -0.03396789 -0.03369947
 -0.03343011 -0.03316558 -0.03290883 -0.03265964 -0.032419 -0.03218267 -0.03195014 -0.03171913 -0.03148952 -0.03125843
 -0.0310256 -0.03078245 -0.0305287 -0.03025737 -0.02997047 -0.02967398 -0.02937157 -0.02907865 -0.02879613 -0.02853449
 -0.02829033 -0.0280634 -0.02784948 -0.02764379 -0.02744454 -0.02724882 -0.02705664 -0.02686754 -0.02668094 -0.02649679
 -0.02631377 -0.02613163 -0.02594922 -0.02576644 -0.0255817 -0.02539499 -0.02520305 -0.02500569 -0.02479956 -0.02458457
 -0.02435871 -0.02412167 -0.02387081 -0.02360566 -0.0233224 -0.02302288 -0.02270738 -0.0223828 -0.02205775 -0.02174334
 -0.02145372 -0.0211986 -0.02099094 -0.02083037 -0.02072359 -0.020654 -0.02062039 -0.02059577 -0.0205741 -0.02053556
 -0.02047536 -0.02039104 -0.02028144 -0.02015563 -0.02001408 -0.01986548 -0.01970987 -0.01955015 -0.01938558 -0.01921319
 -0.01903298 -0.01884238 -0.01864419 -0.01844322 -0.01824252 -0.01805079 -0.01786454 -0.01768507 -0.01750317 -0.01731155
 -0.0171066 -0.01688248 -0.01664633 -0.0163985 -0.01614923 -0.01590099 -0.01566047 -0.01542901 -0.01521071 -0.01500625
 -0.01481539 -0.01463812 -0.01446802 -0.01430461 -0.01414001 -0.01397458 -0.0138061 -0.01363607 -0.01346867 -0.01330466
 -0.0131491 -0.01299881 -0.01285256 -0.01270278 -0.01254046 -0.01236068 -0.01215426 -0.01192778 -0.01168045 -0.01142537
 -0.01116779 -0.01091323 -0.01066533 -0.01041844 -0.0101726 -0.009919666 -0.009658674 -0.009386742 -0.009103666 -0.00881297
 -0.008515246 -0.008219039 -0.007925053 -0.007641972 -0.007369637 -0.007112317 -0.006868962 -0.006639437 -0.006422275 -0.006215599
 -0.006016803 -0.005822613 -0.005630075 -0.005435221 -0.005238522 -0.00503807 -0.004839165 -0.004642921 -0.004455176 -0.004278144
 -0.004112346 -0.003959259 -0.003810094 -0.003664648 -0.003508703 -0.003341428 -0.00315464 -0.002948751 -0.002728068 -0.002493604
 -0.00225403 -0.002009034 -0.001762276 -0.001512394 -0.001258096 -0.0009978741 -0.000728418 -0.0004494737 -0.00015772 0.0001411908
 0.0004452361 0.000745204 0.001032826 0.00131247 0.001578658 0.001860267 0.002163639 0.002510524 0.002911665 0.003330511
 0.003766417 0.004162608 0.004515542 0.004805803 0.005034015 0.005206973 0.005326603 0.005407732 0.005451985 0.005473832
 0.005472512 0.005454279 0.005415523 0.005352897 0.005263546 0.005141466 0.004989154 0.004804159 0.004597486 0.004372244
 0.00414534 0.003923172 0.003719872 0.003540493 0.003391674 0.003275308 0.00319439 0.003149676 0.003140251 0.003166284
 0.003213638 0.003280647 0.003338916 0.003386631 0.003396635 0.003370762 0.003300003 0.003190531 0.003052299 0.002892699
 0.002729741 0.002565915 0.002412974 0.002265861 0.002123379 0.001983618 0.001841462 0.001709967 0.001591826 0.00150262
 0.001449412 0.001428873 0.0014441 0.001471216 0.001508506 0.001531668 0.001538868 0.001525266 0.00149184 0.001455837
 0.001419672 0.001408562 0.001422966 0.001479288 0.001573983 0.001707749 0.001873359 0.002059724 0.002257787 0.002452024
 0.00263669 0.002799553 0.002945532 0.003072048 0.003192153 0.003311285 0.003435242 0.003568966 0.003702323 0.003835019
 0.003953164 0.004054789 0.004135421 0.004194546 0.004234711 0.004256109 0.004262141 0.004253239 0.004234127 0.004205095
 0.004170183 0.004128705 0.004080178 0.004025623 0.003964913 0.003903888 0.003849352 0.003807261 0.003786726 0.003785727
 0.003806987 0.003842589 0.003889855 0.003943328 0.004000823 0.004060258 0.004121307 0.004180293 0.004236795 0.0042876
 0.004332311 0.004374701 0.004415263 0.004464341 0.004522295 0.004597011 0.004687533 0.004794234 0.004915619 0.005048353
 0.005190264 0.005337116 0.005483903 0.005623339 0.005749341 0.005853172 0.005934055 0.005988256 0.006019498 0.006029439
 0.006017021 0.005982942 0.005922193 0.005832633 0.005719564 0.005582134 0.005438497 0.005289779 0.005151909 0.005025193
 0.004912081 0.004811418 0.004715715 0.004623466 0.004524427 0.004417594 0.00429392 0.004155661 0.004000586 0.003837263
 0.003674634 0.003523558 0.003398323 0.003301325 0.003241325 0.003206215 0.003194532 0.003189443 0.00318482 0.003174641
 0.003155886 0.003132766 0.003106171 0.003072349 0.003031503 0.002966708 0.002877698</values></Ydata></AB><ScSm><Ydata ylabel="Single channel"><values byteorder="INTEL" format="FLOAT32" numvalues="1814"> 0.08681252 0.08693115 0.08706897 0.08723328 0.08741461 0.0875928 0.08775057 0.08788463 0.08800237 0.08810946
 0.088209 0.08831453 0.08844817 0.08861839 0.088807 0.08898196 0.08912052 0.08922799 0.08933835 0.08948261
 0.08964594 0.08976729 0.08979525 0.08974467 0.08968992 0.08969866 0.08978581 0.08994925 0.09021449 0.09057048
 0.09087507 0.09094555 0.09078754 0.09062904 0.09066793 0.09087347 0.09107954 0.09116983 0.09112324 0.09099708
 0.09095143 0.09120076 0.09181999 0.09258328 0.09303245 0.09274216 0.09160337 0.08997721 0.08860974 0.0882422
 0.0890754 0.09054501 0.09174433 0.09215581 0.09193097 0.09150395 0.09114064 0.09093054 0.09098394 0.09141298
 0.09214787 0.09286357 0.09310509 0.09258573 0.09151135 0.09054322 0.09025827 0.09070253 0.09159324 0.0926619
 0.09339717 0.09278959 0.09022427 0.08683433 0.08514886 0.08675833 0.09065178 0.09426877 0.09583059 0.09528369
 0.09356292 0.09176526 0.09085743 0.0913441 0.0929396 0.09485216 0.09641288 0.09725501 0.09714732 0.09610125
 0.09458934 0.09334582 0.09295881 0.09369984 0.09541307 0.097348 0.0984595 0.09823205 0.09706765 0.09576681
 0.0949376 0.09496637 0.09605213 0.0979687 0.1000842 0.101827 0.1029819 0.1035664 0.1036905 0.1035352
 0.1032633 0.1029935 0.1029229 0.1032259 0.1037097 0.1038545 0.1033933 0.1026753 0.1023118 0.1025454
 0.1030433 0.1032986 0.103132 0.1025939 0.1014466 0.09928187 0.09635709 0.09372545 0.09220782 0.09181783
 0.09243155 0.09413423 0.09640689 0.09787834 0.09770481 0.09670792 0.09648661 0.09768805 0.09960042 0.1011904
 0.1021082 0.1027443 0.1036205 0.1047995 0.1057382 0.1056891 0.1044621 0.1028964 0.102303 0.1031992
 0.104808 0.1060162 0.1065433 0.106907 0.107503 0.1080277 0.1077412 0.1062596 0.1042221 0.1030684
 0.1038525 0.1061986 0.1084978 0.1091244 0.1075907 0.1048096 0.1023301 0.1012252 0.1016739 0.1034041
 0.106075 0.1091088 0.1115974 0.1127634 0.1124973 0.1113392 0.1098894 0.1082485 0.1062283 0.104219
 0.1034226 0.1047295 0.1075746 0.1103858 0.1120363 0.1124725 0.1120754 0.1108965 0.1087574 0.1060352
 0.1040139 0.103934 0.1055816 0.1073411 0.1079128 0.1075283 0.1072155 0.1073924 0.1076384 0.1075559
 0.107363 0.1075825 0.1083743 0.1093318 0.1099134 0.1099422 0.1096444 0.1093296 0.1090976 0.108782
 0.1082053 0.1075715 0.1074528 0.1081885 0.1094285 0.1104844 0.1110086 0.111136 0.1110689 0.1107367
 0.109921 0.1086865 0.1075895 0.1072824 0.1078775 0.1088612 0.1096406 0.1099865 0.1099721 0.1097448
 0.109428 0.1090904 0.1087643 0.1085302 0.108505 0.1086846 0.1088973 0.1089753 0.1088933 0.1087045
 0.1084288 0.1080571 0.1076247 0.1072347 0.1069928 0.1069216 0.1069557 0.10701 0.1070189 0.1069244
 0.1066942 0.1063646 0.1060176 0.105705 0.1054292 0.1051907 0.10501 0.1048915 0.1047968 0.1046716
 0.104493 0.1042736 0.1040299 0.1037672 0.1034943 0.1032341 0.103013 0.1028456 0.1027208 0.1026052
 0.102481 0.1023702 0.1022933 0.1022146 0.1020722 0.1018569 0.1016244 0.1014342 0.1013033 0.1012138
 0.1011353 0.1010342 0.1008812 0.1006699 0.1004409 0.1002709 0.1002151 0.1002665 0.1003793 0.1005088
 0.1006153 0.1006662 0.1006627 0.1006402 0.1006248 0.100609 0.1005772 0.1005379 0.1005258 0.1005749
 0.1006857 0.1008175 0.1009235 0.1009857 0.1010128 0.1010273 0.1010619 0.1011355 0.1012185 0.1012561
 0.1012379 0.1012162 0.1012424 0.1013078 0.1013618 0.1013714 0.101352 0.1013442 0.1013699 0.1014165
 0.1014605 0.1014951 0.1015333 0.101586 0.1016385 0.1016533 0.1016079 0.1015272 0.1014609 0.1014328
 0.1014313 0.1014438 0.1014758 0.1015307 0.1015913 0.1016319 0.1016456 0.1016506 0.1016681 0.1016964
 0.1017133 0.101706 0.1016882 0.1016839 0.1017039 0.101739 0.1017711 0.1017867 0.1017845 0.1017717
 0.1017544 0.1017314 0.101697 0.1016512 0.1016101 0.1016 0.1016287 0.1016624 0.1016455 0.1015523
 0.1014121 0.1012796 0.1011868 0.1011234 0.101058 0.1009707 0.1008668 0.1007665 0.1006855 0.1006256
 0.1005771 0.1005286 0.1004797 0.1004466 0.1004495 0.1004869 0.1005289 0.1005437 0.100531 0.1005195
 0.100536 0.1005839 0.1006501 0.100723 0.1008021 0.1008955 0.101007 0.1011253 0.1012323 0.1013252
 0.1014229 0.1015467 0.1017048 0.1018929 0.1020969 0.1022927 0.1024607 0.1026068 0.1027592 0.1029378
 0.1031383 0.1033477 0.1035651 0.1038 0.1040581 0.1043362 0.1046285 0.1049346 0.1052597 0.1056075
 0.1059716 0.1063385 0.1067008 0.1070679 0.1074593 0.1078855 0.1083378 0.1087973 0.1092508 0.1096995
 0.1101531 0.1106172 0.1110874 0.1115602 0.1120437 0.1125501 0.1130786 0.1136129 0.1141389 0.1146573
 0.1151756 0.1156966 0.1162176 0.1167387 0.1172679 0.1178135 0.1183696 0.1189143 0.1194277 0.1199143
 0.1203984 0.1209008 0.121423 0.1219509 0.1224653 0.1229522 0.1234155 0.1238773 0.1243556 0.124843
 0.1253179 0.1257754 0.126236 0.1267187 0.127214 0.1276905 0.1281263 0.1285301 0.1289276 0.1293317
 0.1297307 0.1301072 0.1304615 0.1308102 0.1311657 0.1315264 0.1318918 0.1322716 0.1326714 0.1330748
 0.1334547 0.1338011 0.1341274 0.134449 0.134768 0.1350763 0.135367 0.1356436 0.1359213 0.1362132
 0.1365162 0.1368168 0.1371148 0.1374264 0.1377638 0.1381243 0.1385061 0.138918 0.1393628 0.139822
 0.1402731 0.1407188 0.1411822 0.1416676 0.1421426 0.1425734 0.1429633 0.143341 0.1437231 0.1441103
 0.1445118 0.1449472 0.1454203 0.1459086 0.1463814 0.1468225 0.1472385 0.1476531 0.1480854 0.1485267
 0.1489426 0.1493059 0.1496233 0.1499279 0.150249 0.1505906 0.1509337 0.1512542 0.1515367 0.1517707
 0.1519383 0.1520188 0.1520089 0.1519299 0.1518033 0.1516223 0.1513539 0.150967 0.1504497 0.1497983
 0.1490051 0.1480675 0.1470146 0.1459229 0.1449067 0.144089 0.1435682 0.1433947 0.143568 0.1440408
 0.1447242 0.1454957 0.1462176 0.1467624 0.1470318 0.1469691 0.1465698 0.1458793 0.144975 0.1439427
 0.1428614 0.1417967 0.1408024 0.1399374 0.1392932 0.1390046 0.1392211 0.1400569 0.1415461 0.1436138
 0.1460716 0.1486567 0.1511176 0.1533002 0.1551735 0.156789 0.1582208 0.1595329 0.1607713 0.1619602
 0.1631006 0.1641805 0.1651892 0.1661219 0.1669762 0.1677461 0.1684186 0.1689718 0.1693842 0.1696523
 0.1698024 0.1698836 0.1699535 0.1700633 0.1702359 0.1704429 0.1706048 0.1706269 0.1704459 0.1700588
 0.1695366 0.1690383 0.1688096 0.1691307 0.1702041 0.1720371 0.1744142 0.1769953 0.1794655 0.1816303
 0.1834233 0.1848717 0.186054 0.1870579 0.1879484 0.1887635 0.1895272 0.190258 0.1909671 0.1916579
 0.19233 0.1929852 0.19363 0.1942723 0.1949137 0.1955465 0.1961629 0.1967659 0.1973674 0.1979764
 0.1985887 0.1991902 0.1997745 0.2003527 0.2009397 0.2015329 0.202113 0.2026669 0.2032018 0.2037357
 0.204281 0.2048369 0.2053907 0.2059256 0.2064334 0.2069208 0.2074024 0.2078864 0.2083705 0.2088493
 0.2093228 0.2097936 0.2102617 0.2107249 0.2111849 0.2116455 0.2121049 0.2125534 0.2129831 0.2133985
 0.2138138 0.2142416 0.2146825 0.2151278 0.2155699 0.2160109 0.2164583 0.2169141 0.2173712 0.2178208
 0.2182619 0.2187008 0.2191443 0.219594 0.2200448 0.2204905 0.2209297 0.2213668 0.2218064 0.2222482
 0.2226889 0.2231264 0.2235619 0.2239976 0.2244328 0.2248641 0.2252878 0.2257041 0.2261171 0.2265323
 0.2269538 0.2273798 0.227802 0.2282121 0.2286097 0.2290016 0.2293938 0.229789 0.2301891 0.2305959
 0.2310083 0.2314231 0.2318364 0.2322451 0.2326494 0.2330531 0.2334617 0.2338773 0.2342985 0.234722
 0.2351453 0.2355669 0.2359863 0.2364022 0.2368148 0.2372283 0.2376473 0.2380718 0.2384972 0.2389188
 0.2393347 0.2397457 0.2401548 0.2405646 0.2409754 0.2413861 0.2417972 0.2422094 0.2426224 0.2430365
 0.2434518 0.2438674 0.244283 0.2446991 0.2451143 0.2455253 0.245931 0.2463325 0.2467314 0.2471295
 0.2475296 0.2479321 0.2483358 0.2487402 0.2491447 0.2495472 0.2499464 0.250343 0.2507351 0.2511203
 0.251502 0.2518876 0.2522803 0.2526785 0.2530796 0.2534811 0.2538807 0.2542791 0.2546771 0.2550731
 0.2554668 0.2558628 0.2562655 0.2566748 0.257089 0.2575049 0.2579184 0.2583293 0.2587417 0.2591586
 0.2595792 0.2600027 0.2604266 0.2608462 0.2612592 0.261666 0.2620642 0.2624518 0.2628355 0.2632238
 0.2636173 0.2640123 0.2644067 0.2647991 0.2651902 0.2655862 0.2659928 0.2664089 0.2668309 0.2672566
 0.2676809 0.2680997 0.2685158 0.2689341 0.2693538 0.2697738 0.2701954 0.2706171 0.2710378 0.2714615
 0.2718907 0.2723212 0.272751 0.2731827 0.2736145 0.274042 0.2744669 0.2748928 0.2753191 0.2757461
 0.2761753 0.2766022 0.2770243 0.277449 0.2778818 0.2783176 0.2787526 0.2791888 0.2796254 0.2800601
 0.2804955 0.2809298 0.2813553 0.2817756 0.2822031 0.2826399 0.2830797 0.2835221 0.2839651 0.2843997
 0.2848238 0.285243 0.2856578 0.286069 0.2864851 0.2869062 0.2873212 0.2877288 0.2881349 0.2885264
 0.28887 0.289097 0.2890292 0.2882856 0.2862259 0.2819645 0.2745521 0.2633586 0.2484528 0.2307029
 0.211533 0.1924812 0.1747852 0.1592182 0.146192 0.1359204 0.1285289 0.1241559 0.1230393 0.1256361
 0.1327755 0.1451692 0.1616146 0.1774338 0.1862146 0.1846604 0.1755769 0.1653274 0.158646 0.1563032
 0.1567013 0.1582551 0.1603341 0.1630892 0.1669069 0.1718445 0.1775707 0.1839167 0.1911983 0.1997386
 0.2092427 0.2189032 0.2280777 0.2367075 0.2450822 0.2533352 0.2612455 0.2684519 0.2747349 0.2800914
 0.284656 0.2886125 0.2921244 0.2953035 0.2982278 0.3009434 0.3034074 0.3054647 0.3069414 0.3077846
 0.3081256 0.3082159 0.308288 0.3084573 0.3087397 0.3091253 0.3096082 0.310177 0.3108177 0.3115187
 0.3122598 0.3130143 0.3137663 0.3145092 0.3152316 0.3159217 0.3165744 0.3171868 0.3177604 0.3183078
 0.3188411 0.3193601 0.3198622 0.3203531 0.3208375 0.3213153 0.3217875 0.322253 0.3227014 0.3231232
 0.3235202 0.3238986 0.3242626 0.3246179 0.3249685 0.3253141 0.3256565 0.3259997 0.3263417 0.3266757
 0.3270015 0.3273252 0.3276494 0.3279748 0.3283017 0.3286266 0.3289445 0.3292572 0.3295706 0.3298874
 0.3302078 0.3305314 0.3308539 0.3311698 0.3314787 0.3317857 0.3321001 0.3324329 0.3327887 0.3331553
 0.333515 0.3338653 0.3342165 0.3345741 0.3349363 0.3353007 0.3356662 0.3360325 0.3364028 0.336777
 0.3371428 0.3374817 0.3377854 0.3380631 0.3383373 0.3386294 0.3389439 0.3392671 0.3395848 0.339896
 0.340207 0.3405218 0.3408413 0.3411632 0.3414847 0.3418123 0.3421606 0.3425345 0.3429216 0.3433074
 0.3436882 0.3440661 0.3444454 0.3448303 0.3452177 0.3455949 0.3459528 0.3463017 0.3466683 0.3470762
 0.3475248 0.3479845 0.3484213 0.3488273 0.3492208 0.3496231 0.3500441 0.350475 0.3508818 0.351226
 0.3515194 0.3518368 0.3522491 0.3527534 0.3532848 0.3537837 0.3542369 0.3546636 0.3550804 0.3554831
 0.3558539 0.356182 0.3564855 0.3568159 0.3572261 0.3577163 0.358226 0.3586951 0.3591146 0.3595064
 0.3598863 0.3602595 0.3606097 0.3608821 0.3610348 0.3611369 0.3613604 0.3618215 0.3624548 0.3630819
 0.363589 0.3639984 0.3643799 0.3647585 0.3651229 0.3654384 0.3656071 0.3655183 0.365248 0.3651271
 0.3654708 0.3662597 0.3671815 0.3679496 0.3684929 0.3688859 0.3692177 0.3695334 0.3698072 0.3699424
 0.3698739 0.3697173 0.3697516 0.3701667 0.3708506 0.3715118 0.3719831 0.3723162 0.3726249 0.3729535
 0.3732542 0.3733632 0.3730713 0.3724094 0.3718448 0.3719801 0.3729688 0.3743389 0.3754646 0.3761249
 0.3765069 0.3767674 0.3768007 0.3764342 0.3756419 0.3745531 0.3735076 0.3731099 0.3738365 0.3754275
 0.3769898 0.3778925 0.3783119 0.3787781 0.3794819 0.3801953 0.3806436 0.3807525 0.3805961 0.3802335
 0.3796811 0.3790991 0.3789021 0.3794662 0.3806912 0.3820234 0.3829772 0.3835182 0.3838407 0.3838071
 0.3828028 0.3804633 0.377632 0.3761525 0.377234 0.3801807 0.3831473 0.3849641 0.3857794 0.3862013
 0.3865036 0.3865455 0.3857512 0.3832999 0.3792421 0.3754759 0.3745966 0.3773404 0.381758 0.3851018
 0.385929 0.3844035 0.3815892 0.3789495 0.377832 0.3787435 0.3811365 0.3839648 0.3863119 0.3876436
 0.3878448 0.3871669 0.386119 0.3853302 0.3851566 0.3851472 0.3843245 0.3824558 0.3805094 0.379169
 0.377582 0.3747503 0.3717413 0.3710259 0.373419 0.3769061 0.3789821 0.3792177 0.3788111 0.3781723
 0.3759361 0.370764 0.3638211 0.3587406 0.3585107 0.3624957 0.3670664 0.3691616 0.3687057 0.3675837
 0.3669852 0.3661456 0.3634945 0.3588813 0.3544381 0.3526757 0.3536796 0.3549972 0.3543595 0.3512886
 0.3459188 0.3383957 0.3307127 0.3271167 0.3303576 0.3382532 0.3456114 0.3487177 0.3465177 0.3390662
 0.3278434 0.3173015 0.3128716 0.3159577 0.3222863 0.3260268 0.324388 0.3177758 0.307429 0.2948414
 0.2828801 0.2754167 0.2748651 0.2802426 0.2874532 0.2911364 0.2873975 0.2768495 0.2652654 0.259253
 0.2601481 0.2632125 0.2632707 0.259593 0.2548295 0.2513623 0.2499662 0.2503098 0.2513455 0.2521043
 0.2524216 0.2516268 0.2472013 0.2375455 0.2261433 0.2197146 0.2212613 0.2276293 0.2346219 0.24122
 0.2472785 0.2505057 0.2489259 0.2448504 0.2434181 0.2471143 0.2534016 0.2579487 0.2590034 0.2580898
 0.2571608 0.2562234 0.2543326 0.2521681 0.2520776 0.2551531 0.2595333 0.2624401 0.2629906 0.2621985
 0.2610911 0.2598599 0.2583785 0.2566147 0.2545987 0.2524505 0.2503682 0.2484075 0.2464473 0.2444424
 0.2423555 0.2396324 0.2352633 0.2291388 0.2231953 0.2201134 0.2205491 0.2227323 0.2250471 0.2272175
 0.2281347 0.2249718 0.2168907 0.2083558 0.2060781 0.2125514 0.2240575 0.2347927 0.2413919 0.2433512
 0.2411307 0.2360114 0.2317119 0.2337344 0.2450861 0.2631213 0.2819095 0.2972333 0.3081796 0.3148824
 0.3170198 0.3150931 0.3118165 0.311052 0.3151845 0.3235582 0.3329815 0.3391836 0.3386769 0.3316769
 0.3240833 0.3239068 0.3332795 0.3455769 0.3526992 0.3535429 0.352841 0.3536517 0.3547254 0.3546594
 0.354842 0.3571216 0.3607719 0.363095 0.3618499 0.3562079 0.3467224 0.3359331 0.3279718 0.325369
 0.3263746 0.327062 0.3254153 0.3214148 0.3145548 0.3048733 0.2960493 0.2934514 0.2980272 0.3048854
 0.3088854 0.3094328 0.3089209 0.3084186 0.3064345 0.3014487 0.2945958 0.2891715 0.2873864 0.2882709
 0.2892669 0.2890127 0.2875753 0.2848514 0.2805375 0.2757792 0.273318 0.2751029 0.2802557 0.2859585
 0.2900623 0.2924139 0.2940334 0.2957891 0.2979121 0.3001626 0.3022885 0.304674 0.3083707 0.3139014
 0.3202034 0.3255203 0.3293548 0.3328473 0.3371295 0.3419195 0.3459671 0.348478 0.3498637 0.3512937
 0.3536694 0.3568877 0.3599307 0.3617446 0.3622396 0.3624656 0.3636448 0.3659959 0.3686501 0.3706618
 0.3718273 0.3725411 0.3732283 0.3740253 0.3747353 0.3750155 0.3748494 0.3748456 0.3757737 0.3777224
 0.379931 0.3815101 0.3821494 0.3820925 0.381656 0.3809461 0.3799701 0.3788472 0.3778224 0.3770914
 0.3766667 0.376422 0.3762249 0.3760113 0.3757872 0.3756152 0.3755864 0.3757674 0.376173 0.3767875
 0.3775786 0.3784763 0.3793778 0.3802037 0.3809253 0.381519 0.3819191 0.3820423 0.3818337 0.3812684
 0.3803238 0.3789778 0.3772152 0.3750074 0.3723167 0.3692196 0.3661072 0.3637205 0.3628389 0.3637887
 0.3661915 0.3691855 0.3719199 0.3739229 0.3751386 0.3757404 0.3759369 0.3758829 0.3756701 0.3753434
 0.3749258 0.3744404 0.3739167 0.3733839 0.3728698 0.3724068 0.3720272 0.3717469 0.3715566 0.3714219
 0.3712921 0.3711155 0.3708532 0.3704845 0.3700002 0.3693892 0.3686293 0.3676994 0.366607 0.3654022
 0.3641522 0.362899 0.3616344 0.3603117 0.3588812 0.357308 0.3555467 0.3535256 0.3512215 0.3487702
 0.3464352 0.3444033 0.3426281 0.3409098 0.3390992 0.3371901 0.3352525 0.3333431 0.3314821 0.3296674
 0.3278834 0.3260997 0.3242724 0.3223537 0.3203087 0.3181248 0.3158028 0.3133442 0.3107556 0.3080525
 0.3052332 0.3022375 0.2989385 0.2951827 0.290841 0.2858344 0.2801479 0.2738522 0.2671175 0.2601873
 0.2533166 0.2467207 0.2405665 0.2349936 0.2301327 0.2261001 0.2229764 0.2207938 0.2195457 0.219209
 0.2197527 0.2211263 0.2232405 0.225953 0.2290692 0.2323605 0.2355945 0.23858 0.2412218 0.2435595
 0.2457383 0.2479088 0.2501352 0.2523868 0.2545979 0.2567143 0.2586899 0.2604704 0.2620042 0.2632728
 0.2643023 0.2651442 0.2658429 0.2664141 0.2668483 0.2671368 0.2673002 0.267396 0.2675036 0.2676993
 0.2680371 0.2685415 0.2692122 0.2700362 0.2709967 0.272078 0.2732645 0.2745357 0.2758651 0.2772369
 0.2786762 0.2802588 0.2820843 0.2842293 0.2867143 0.2894955 0.2924787 0.2955393 0.2985393 0.3013386
 0.3038134 0.3058803 0.3075139 0.3087438 0.3096253 0.3102029 0.3104954 0.3105081 0.3102517 0.30975
 0.3090425 0.3081803 0.30721 0.3061513 0.3049944 0.3037242 0.3023506 0.3009172 0.2994834 0.2980997
 0.2967978 0.2955925 0.2944779 0.2934219 0.2923781 0.2913092 0.2902024 0.2890741 0.2879633 0.286912
 0.2859364 0.2850122 0.2840814 0.2830722 0.2819221 0.2805954 0.279081 0.2773797 0.2755004 0.2734638
 0.2712984 0.2690338 0.2666956 0.2642954 0.2618274 0.2592762 0.2566245 0.2538576 0.2509829 0.2480587
 0.2451815 0.242435 0.2398581 0.2374505 0.2351897 0.2330481 0.2310104 0.2290742 0.2272316 0.225466
 0.2237668 0.222138 0.2205918 0.219141 0.2177932 0.2165529 0.2154332 0.2144551 0.213625 0.2129223
 0.212313 0.2117708 0.2112949 0.210921 0.2106943 0.2106051 0.2105659 0.2104699 0.210263 0.2099608
 0.2096189 0.209291 0.2090021 0.2087496 0.2085161 0.2082562 0.2078818 0.2072855 0.2063733 0.2050702
 0.2033298 0.2011667 0.1986754 0.1960126 0.1933647 0.1909043 0.1887501 0.1869612 0.1855505 0.1844741
 0.1836338 0.1829411 0.1823863 0.1820331 0.1819534 0.1821437 0.1824656 0.1827015 0.1827394 0.1826935
 0.1828019 0.1832208 0.183928 0.1847747 0.185601 0.1863246 0.186941 0.1874549 0.187848 0.1881063
 0.1882309 0.1882181 0.1880648 0.1877795 0.1873688 0.1868369 0.1862023 0.1854831 0.1846727 0.1837597
 0.1827463 0.1816308 0.1804075 0.1790811 0.1776396 0.1760523 0.1743695 0.1728061 0.1716691 0.171193
 0.1714163 0.1721632 0.1731622 0.174219 0.1752444 0.176138 0.1767914 0.1772767 0.1779245 0.1791078
 0.1809287 0.183112 0.185197 0.1868332 0.1878936 0.188372 0.1882955 0.187725 0.1867068 0.1852276
 0.1833049 0.1810621 0.1786452 0.1761682 0.1737684 0.1715815 0.1696679 0.168049 0.1667289 0.1656926
 0.1649911 0.1643492 0.1621997 0.1562297 0.1466708 0.1384275 0.1373763 0.1440388 0.1528666 0.1582094
 0.1591165 0.1579702 0.1567411 0.1558514 0.1552261 0.1549337 0.1550197 0.1553648 0.1557307 0.1558704
 0.1556758 0.1551621 0.1542131 0.1523512 0.1487261 0.1424167 0.1331137 0.1217587 0.110347 0.1008705
 0.09433869 0.09056688 0.08859224 0.08734462 0.08626554 0.08550592 0.08556871 0.086792 0.08915488 0.09242695
 0.09633415 0.1005424 0.1046048 0.108095 0.1108325 0.112891 0.1143855 0.1153492 0.115807 0.1158372
 0.1155321 0.1149663 0.1142 0.113255 0.1121054 0.1107373 0.1092303 0.1077783 0.1066114 0.1058524
 0.1054424 0.1052322 0.1051226 0.1050872 0.1051129 0.105181 0.1052817 0.1054145 0.105591 0.1058327
 0.1061349 0.1064449 0.1066999 0.1068724 0.1069693 0.1069996 0.1069412 0.1067488 0.1064285 0.1060717
 0.1057267 0.1052571 0.1044496 0.1032946 0.1020923 0.1012573 0.1010298 0.1013359 0.1018712 0.1023257
 0.1025696 0.1026614 0.1027049 0.1027042</values></Ydata></ScSm><ScRf><Ydata ylabel="Single channel"><values byteorder="INTEL" format="FLOAT32" numvalues="1820"> 0.07056061 0.07068468 0.07079872 0.07090125 0.07099481 0.07108891 0.0711959 0.07132147 0.07146055 0.07160063
 0.07172908 0.07184128 0.07194125 0.07203203 0.07211356 0.07219394 0.07229185 0.07241869 0.07256368 0.07270096
 0.07280923 0.07289008 0.0729707 0.07307822 0.07320289 0.07329595 0.07331507 0.07327068 0.07322115 0.07322019
 0.07328069 0.07340293 0.07360905 0.07389046 0.07413137 0.07418285 0.07404931 0.07391623 0.07394412 0.07410654
 0.07426719 0.07433157 0.07428336 0.07416978 0.07412192 0.07431558 0.07481271 0.07542916 0.07579 0.07554579
 0.0746063 0.07326806 0.07214312 0.07183741 0.07251309 0.07370823 0.07468289 0.07501522 0.07482907 0.07447815
 0.07417766 0.07399911 0.07403336 0.07437411 0.07496496 0.07553938 0.07572577 0.07529186 0.0744074 0.07361175
 0.07337296 0.07372501 0.07443596 0.07528973 0.07587452 0.0753708 0.07327759 0.07051663 0.06914636 0.07045938
 0.07362922 0.07656901 0.07783079 0.07737252 0.07595789 0.07448369 0.0737396 0.07413512 0.07543311 0.07698572
 0.07824838 0.07892318 0.07882236 0.0779573 0.07671583 0.07569657 0.07537628 0.07597437 0.07736429 0.07893617
 0.07983957 0.07965365 0.07870255 0.07763475 0.07694581 0.07695419 0.07782467 0.07937247 0.08108199 0.08248848
 0.08341911 0.08388915 0.08398757 0.08385891 0.08363218 0.08340366 0.08333611 0.08357386 0.08395957 0.0840686
 0.08368304 0.08308806 0.08278257 0.08296472 0.08336309 0.08356404 0.08342101 0.08297524 0.08203469 0.08026966
 0.07789212 0.07575872 0.07453234 0.07421786 0.07471193 0.07608622 0.0779227 0.07911007 0.07896477 0.07815443
 0.07797432 0.07894508 0.08048732 0.08176622 0.0825035 0.08301757 0.08372798 0.08468114 0.08543579 0.08538875
 0.08438937 0.0831202 0.08264425 0.08337768 0.08468507 0.08566111 0.08608285 0.08637746 0.08686857 0.08730616
 0.08708606 0.08589624 0.08425514 0.08332968 0.08397476 0.08588834 0.08776826 0.08829556 0.08707187 0.08483595
 0.08284587 0.08197659 0.0823788 0.08383335 0.08605848 0.08857691 0.0906468 0.09163678 0.09146008 0.09055872
 0.08942413 0.08813845 0.08654568 0.08496521 0.08438365 0.08553113 0.08794165 0.09032361 0.09175331 0.09218828
 0.09194098 0.09105153 0.08937152 0.08721349 0.08564086 0.08567876 0.08714572 0.08870073 0.08926982 0.08905102
 0.08889993 0.08916025 0.08947785 0.08952142 0.08947599 0.08977939 0.09056418 0.09148996 0.09210424 0.09225778
 0.09213763 0.09200253 0.09193686 0.09180126 0.09144872 0.09105674 0.09111086 0.09189191 0.09309582 0.09413798
 0.09472881 0.09498747 0.09508473 0.09495588 0.09441288 0.09351286 0.09273375 0.09263355 0.09330796 0.09431906
 0.09516141 0.09563743 0.09580511 0.09578631 0.09568588 0.0955653 0.09545556 0.09542824 0.09558555 0.09592474
 0.0962962 0.09655055 0.09666003 0.09666746 0.0965932 0.09643769 0.09623972 0.09609105 0.09607936 0.09621926
 0.09645159 0.09670307 0.09691669 0.09703938 0.09704024 0.09695183 0.09684986 0.09678317 0.09675476 0.09676468
 0.0968295 0.09695083 0.09709296 0.09720865 0.09727716 0.09730722 0.09731074 0.0972908 0.09725448 0.09722435
 0.09723052 0.09729049 0.0973914 0.09749825 0.09759429 0.09770191 0.09783758 0.09796209 0.09801406 0.09798767
 0.09794191 0.09793603 0.09798296 0.09806059 0.09813938 0.09819051 0.09818769 0.09812602 0.09804732 0.09802738
 0.09811793 0.09830897 0.09855422 0.09880953 0.09903617 0.09920302 0.09931137 0.09939516 0.09947958 0.0995574
 0.09961422 0.09966125 0.09973583 0.09987234 0.1000693 0.1002853 0.1004735 0.1006133 0.1007111 0.1007916
 0.1008938 0.1010393 0.1011943 0.1012963 0.1013343 0.1013699 0.1014617 0.1015961 0.1017106 0.101769
 0.1017952 0.1018396 0.1019266 0.102039 0.1021471 0.1022444 0.1023505 0.1024806 0.1026118 0.1026908
 0.102686 0.1026281 0.1025811 0.102578 0.1026058 0.1026472 0.1027077 0.1027919 0.1028765 0.1029255
 0.1029301 0.1029197 0.1029281 0.1029544 0.1029662 0.1029388 0.1028813 0.1028226 0.1027848 0.1027709
 0.102768 0.1027555 0.1027176 0.1026529 0.1025743 0.1024962 0.1024229 0.1023528 0.1022976 0.1022829
 0.1023139 0.102343 0.1022971 0.1021476 0.1019424 0.101759 0.1016367 0.1015553 0.1014689 0.1013484
 0.1011973 0.1010389 0.1008936 0.1007667 0.100652 0.1005432 0.1004443 0.1003712 0.1003348 0.1003172
 0.1002741 0.1001741 0.1000324 0.09989394 0.09978978 0.09972113 0.09967449 0.09963781 0.09960697 0.09958851
 0.09959112 0.09960692 0.09961247 0.0995957 0.09957193 0.09956954 0.09960946 0.09969693 0.09981473 0.09992322
 0.09998758 0.100013 0.1000395 0.1000991 0.1001903 0.1002962 0.1004119 0.1005428 0.1006893 0.100846
 0.1010119 0.1011943 0.101399 0.101622 0.1018508 0.1020725 0.1022842 0.1024975 0.1027311 0.1029952
 0.1032819 0.103572 0.1038499 0.1041147 0.1043773 0.1046482 0.1049298 0.1052205 0.1055213 0.1058346
 0.1061576 0.106483 0.1068057 0.1071249 0.1074424 0.107761 0.1080846 0.1084176 0.1087669 0.1091391
 0.1095252 0.1098943 0.1102163 0.1104939 0.1107631 0.1110608 0.1113965 0.1117513 0.1120924 0.1123948
 0.1126632 0.1129308 0.1132239 0.1135345 0.113839 0.1141394 0.1144666 0.1148385 0.1152259 0.1155708
 0.1158393 0.1160524 0.1162624 0.1165005 0.1167532 0.1169896 0.1172022 0.117411 0.1176336 0.1178684
 0.1181105 0.1183674 0.1186457 0.1189311 0.1191976 0.1194346 0.1196527 0.1198611 0.1200519 0.1202069
 0.1203175 0.1203986 0.1204843 0.120603 0.1207517 0.1209043 0.1210455 0.1211868 0.1213464 0.1215294
 0.1217337 0.1219619 0.1222128 0.1224699 0.1227177 0.1229672 0.1232464 0.1235571 0.1238572 0.1241029
 0.1242961 0.1244751 0.1246669 0.1248719 0.1250908 0.125339 0.1256274 0.1259432 0.126258 0.126551
 0.1268261 0.1271085 0.1274174 0.1277375 0.128026 0.1282549 0.1284383 0.1286181 0.1288292 0.1290807
 0.1293597 0.1296439 0.1299147 0.1301583 0.1303602 0.130508 0.1306064 0.130679 0.1307432 0.1307835
 0.1307589 0.1306351 0.1304026 0.1300632 0.1296118 0.1290403 0.128365 0.1276459 0.1269784 0.126459
 0.1261573 0.1261086 0.1263176 0.1267536 0.1273452 0.1279925 0.1285956 0.1290712 0.12935 0.1293789
 0.1291398 0.1286625 0.1280084 0.127243 0.1264214 0.1255864 0.1247703 0.1240105 0.1233793 0.1229965
 0.1229977 0.123479 0.1244598 0.1258695 0.1275513 0.1292977 0.1309222 0.1323269 0.1335119 0.1345285
 0.1354293 0.1362532 0.1370288 0.137774 0.138491 0.1391726 0.1398143 0.1404153 0.1409702 0.1414661
 0.141888 0.1422241 0.1424706 0.1426364 0.1427408 0.1428015 0.1428277 0.1428277 0.1428099 0.1427656
 0.142657 0.1424334 0.1420657 0.1415699 0.1410153 0.1405251 0.1402661 0.1404102 0.1410655 0.1422116
 0.1436927 0.1452862 0.1467961 0.1481019 0.1491577 0.1499752 0.1506085 0.1511258 0.1515796 0.1519973
 0.1523907 0.1527674 0.1531324 0.1534877 0.1538345 0.1541752 0.1545153 0.1548588 0.1552027 0.1555394
 0.1558683 0.1561994 0.1565437 0.1569024 0.1572653 0.1576203 0.1579652 0.1583094 0.1586617 0.1590154
 0.1593542 0.159671 0.1599766 0.1602874 0.1606133 0.1609547 0.1613033 0.1616439 0.1619627 0.1622576
 0.1625394 0.1628218 0.1631119 0.1634075 0.163702 0.1639893 0.1642685 0.1645448 0.1648254 0.165112
 0.1653962 0.1656667 0.1659209 0.1661682 0.1664204 0.1666816 0.1669479 0.1672125 0.1674722 0.1677305
 0.1679944 0.1682654 0.1685363 0.1687981 0.1690494 0.1692957 0.1695436 0.1697949 0.1700471 0.1702965
 0.1705428 0.1707889 0.1710393 0.1712969 0.171562 0.1718301 0.1720929 0.1723447 0.1725867 0.1728254
 0.1730671 0.1733143 0.1735657 0.1738195 0.1740759 0.1743339 0.1745875 0.1748298 0.1750618 0.1752917
 0.1755249 0.1757589 0.1759907 0.1762236 0.1764644 0.1767159 0.1769728 0.177226 0.1774711 0.1777108
 0.1779503 0.1781918 0.1784352 0.178679 0.1789216 0.1791626 0.1794047 0.1796504 0.1798976 0.1801414
 0.1803789 0.1806128 0.180849 0.1810896 0.1813281 0.1815577 0.181781 0.1820088 0.1822478 0.1824949
 0.1827429 0.1829864 0.183224 0.1834582 0.1836932 0.1839311 0.184171 0.1844101 0.1846463 0.1848788
 0.1851091 0.1853397 0.1855724 0.1858088 0.1860504 0.186296 0.186542 0.1867856 0.1870254 0.1872608
 0.1874948 0.1877319 0.1879729 0.1882141 0.1884528 0.1886903 0.1889291 0.1891715 0.1894182 0.1896662
 0.1899115 0.1901545 0.1904004 0.1906516 0.1909061 0.1911588 0.1914057 0.1916474 0.19189 0.1921381
 0.1923898 0.1926428 0.192899 0.193161 0.1934291 0.1937013 0.1939719 0.1942321 0.1944782 0.194714
 0.1949432 0.1951659 0.1953841 0.1956029 0.1958268 0.1960569 0.196292 0.1965278 0.1967623 0.1969983
 0.1972378 0.197478 0.1977178 0.1979616 0.1982131 0.1984717 0.1987344 0.1989959 0.1992516 0.1995028
 0.1997547 0.2000076 0.2002596 0.2005132 0.200771 0.2010326 0.2012992 0.2015726 0.2018475 0.2021171
 0.202384 0.2026535 0.2029238 0.2031929 0.2034628 0.203732 0.2039968 0.2042595 0.2045254 0.2047959
 0.2050702 0.2053477 0.2056251 0.2059004 0.2061766 0.2064526 0.2067221 0.2069868 0.2072564 0.207534
 0.2078152 0.2080982 0.2083811 0.2086605 0.2089393 0.2092207 0.2094984 0.2097662 0.2100299 0.2102952
 0.2105592 0.2108212 0.2110818 0.2113304 0.2115453 0.2116793 0.2116012 0.2110272 0.2094844 0.2063244
 0.2008532 0.1926088 0.1816394 0.1685812 0.1544841 0.1404843 0.127494 0.1160778 0.1065298 0.09900074
 0.09358124 0.09037462 0.08955717 0.09146407 0.09670212 0.1057894 0.1178353 0.1294017 0.1357926 0.1346128
 0.1279399 0.1204372 0.1155548 0.1138411 0.1141248 0.1152516 0.1167639 0.1187741 0.1215673 0.1251861
 0.1293852 0.1340351 0.139362 0.1456008 0.1525389 0.1595896 0.1662861 0.1725874 0.1787073 0.1847423
 0.1905255 0.1957869 0.2003646 0.2042591 0.2075742 0.2104503 0.2130111 0.2153363 0.2174765 0.2194585
 0.2212492 0.2227384 0.2238029 0.2244043 0.2246364 0.2246832 0.2247199 0.2248365 0.2250441 0.2253306
 0.2256877 0.2261068 0.2265787 0.2270939 0.2276355 0.2281838 0.2287289 0.2292675 0.2297927 0.2302977
 0.230782 0.2312434 0.2316775 0.2320852 0.2324729 0.2328466 0.2332123 0.2335756 0.233936 0.2342911
 0.2346435 0.234993 0.2353305 0.2356472 0.2359428 0.2362203 0.2364849 0.2367468 0.2370136 0.2372824
 0.2375462 0.2378043 0.2380586 0.2383093 0.238556 0.2387988 0.2390371 0.2392721 0.2395077 0.2397467
 0.2399904 0.2402388 0.2404888 0.240736 0.2409804 0.2412249 0.2414674 0.2417026 0.2419308 0.2421581
 0.2423914 0.2426376 0.2429003 0.2431743 0.2434497 0.2437218 0.243991 0.244259 0.2445285 0.2448027
 0.2450802 0.245357 0.245633 0.2459093 0.2461814 0.2464404 0.2466806 0.2469052 0.2471265 0.2473575
 0.2475999 0.2478441 0.2480837 0.2483222 0.248565 0.2488123 0.2490623 0.2493134 0.2495657 0.2498252
 0.2500998 0.2503884 0.2506804 0.2509676 0.2512501 0.2515309 0.2518139 0.2521035 0.2523997 0.2526941
 0.2529787 0.2532569 0.2535442 0.2538576 0.2541988 0.2545478 0.2548798 0.2551897 0.2554925 0.2558038
 0.2561285 0.2564571 0.2567633 0.2570232 0.2572516 0.257504 0.2578258 0.2582088 0.2586076 0.2589849
 0.2593332 0.2596634 0.259986 0.2602994 0.260591 0.2608509 0.2610905 0.2613488 0.2616651 0.2620364
 0.2624176 0.2627695 0.2630917 0.2634009 0.2637051 0.2640044 0.2642844 0.2645024 0.2646295 0.2647237
 0.264917 0.2652922 0.2657921 0.2662802 0.2666756 0.2670016 0.2673135 0.2676277 0.2679307 0.2681941
 0.2683463 0.2683096 0.2681434 0.2680925 0.2683888 0.2690185 0.2697514 0.2703739 0.2708285 0.2711664
 0.271454 0.2717279 0.2719733 0.2721228 0.2721292 0.272073 0.2721543 0.2725106 0.2730598 0.273589
 0.2739781 0.27427 0.2745517 0.2748569 0.275147 0.2752931 0.2751347 0.2746972 0.2743338 0.2744944
 0.2752926 0.2763779 0.2772847 0.2778453 0.2781951 0.2784511 0.2785375 0.2783299 0.2778125 0.2770821
 0.2763894 0.2761807 0.2768083 0.2780757 0.2793174 0.2800668 0.2804603 0.280898 0.2815238 0.2821623
 0.2825978 0.2827686 0.2827361 0.2825553 0.282243 0.2819141 0.2818709 0.2823909 0.2834024 0.2844979
 0.2853167 0.2858303 0.2861806 0.2862639 0.2856219 0.283985 0.2819868 0.2810075 0.2819503 0.2842929
 0.286652 0.2881487 0.2888923 0.2893392 0.2896974 0.2898625 0.2894017 0.2876969 0.2847869 0.2821041
 0.2816023 0.2838288 0.2873101 0.2899806 0.2907593 0.2897665 0.287799 0.285964 0.2852869 0.2861551
 0.2881536 0.2904857 0.2924517 0.2936445 0.2939802 0.2936536 0.2930552 0.2926661 0.2927544 0.2929671
 0.2925539 0.2913436 0.2900822 0.2892899 0.2883089 0.2863761 0.2843165 0.2840306 0.2861434 0.289103
 0.290981 0.2914487 0.2914299 0.2912375 0.2898163 0.2861348 0.2810977 0.2775197 0.2777172 0.2811942
 0.2851307 0.2871525 0.2872107 0.2867769 0.286775 0.2866022 0.285028 0.2819396 0.279022 0.278249
 0.2796675 0.281324 0.2814252 0.2795922 0.2759127 0.270497 0.2649696 0.2627729 0.2661262 0.2732661
 0.280009 0.2833641 0.2824651 0.2773216 0.269131 0.2615829 0.2592018 0.2631721 0.2699558 0.2747194
 0.2751471 0.2715394 0.2648423 0.2562319 0.2481346 0.2439316 0.2458095 0.2530022 0.2619189 0.2676896
 0.2666602 0.2593298 0.2510772 0.2481047 0.2516061 0.2569833 0.2592509 0.2577221 0.2549697 0.253322
 0.2535785 0.2554431 0.2578588 0.2598415 0.2612374 0.2613372 0.2574908 0.248041 0.2366898 0.2305341
 0.2327478 0.2400275 0.2479784 0.2555379 0.2625157 0.2664162 0.2650944 0.2609977 0.2596042 0.2635708
 0.2702029 0.2748989 0.2758221 0.2746459 0.2735057 0.2724553 0.2705274 0.2684785 0.2688176 0.2726867
 0.2780736 0.2819951 0.2834847 0.2835934 0.2833934 0.2830772 0.2825057 0.2816475 0.2805404 0.279314
 0.2781815 0.2772036 0.2762444 0.2752462 0.2741528 0.2723002 0.2684739 0.2624848 0.2565117 0.2535957
 0.2544464 0.2569982 0.25938 0.261272 0.2614259 0.2566414 0.2459494 0.234364 0.2294345 0.2339484
 0.2437107 0.2522502 0.2559316 0.2544111 0.2484553 0.2395839 0.2315896 0.2298731 0.237286 0.2511452
 0.265644 0.2767617 0.2837865 0.2870573 0.2864189 0.2823768 0.2773905 0.274897 0.2769485 0.2828644
 0.2897539 0.2938657 0.2922187 0.285053 0.2774567 0.2762931 0.2833979 0.2931401 0.2986349 0.2989527
 0.2981164 0.2987168 0.2996957 0.2998755 0.3004356 0.3029292 0.3067298 0.3095525 0.3095003 0.3058584
 0.2990822 0.2913539 0.2862402 0.285868 0.2885726 0.2908058 0.2907772 0.288489 0.2835037 0.2759114
 0.2691205 0.2680327 0.2734742 0.2809468 0.2857581 0.2873923 0.2880547 0.2887009 0.2879108 0.2842654
 0.2788648 0.2748546 0.2743444 0.2764178 0.2786398 0.2796928 0.2795875 0.2781399 0.2749763 0.2711636
 0.2693569 0.2714411 0.2765099 0.2817432 0.2849911 0.2860858 0.286033 0.2857176 0.2854266 0.2849974
 0.2842451 0.2835724 0.2840071 0.2861069 0.2889922 0.2911501 0.292186 0.2931488 0.2950513 0.2976271
 0.2997366 0.3006302 0.3006087 0.3006435 0.3015028 0.303123 0.3046689 0.305266 0.3048587 0.3043748
 0.3048922 0.3066106 0.3087689 0.31052 0.3116436 0.3124282 0.3131887 0.3139966 0.3146504 0.3148454
 0.3145776 0.3143889 0.3149657 0.3164258 0.3181756 0.3195113 0.3201982 0.3204336 0.3204422 0.3202592
 0.3198465 0.3192775 0.3187453 0.3184154 0.3183106 0.3183387 0.3183942 0.3184189 0.3184054 0.3183863
 0.318412 0.318512 0.3186778 0.3188888 0.3191261 0.3193535 0.3195239 0.3196283 0.3197064 0.3197846
 0.3198243 0.3197498 0.3195012 0.3190432 0.3183429 0.3173621 0.3160662 0.3144186 0.3123912 0.3100575
 0.3077444 0.3060634 0.3056604 0.3068076 0.3091863 0.3120632 0.3147053 0.3166988 0.3179922 0.3187377
 0.3191207 0.3192786 0.3192921 0.3191971 0.3190064 0.3187358 0.3184133 0.3180652 0.317708 0.3173569
 0.3170295 0.3167334 0.3164564 0.3161706 0.3158442 0.3154541 0.3149907 0.3144555 0.3138526 0.3131803
 0.3124239 0.3115635 0.3105983 0.3095657 0.3085302 0.3075473 0.306633 0.3057585 0.3048763 0.3039434
 0.3029104 0.3017102 0.3003184 0.2988476 0.2975218 0.2964973 0.2957228 0.2950016 0.2941657 0.2931613
 0.2920117 0.2907602 0.2894501 0.2881142 0.2867612 0.2853737 0.2839226 0.2823818 0.2807395 0.2789996
 0.2771731 0.275273 0.2733211 0.2713431 0.2693359 0.2672295 0.2648875 0.2621475 0.2588699 0.2549645
 0.2504036 0.2452397 0.2396212 0.233773 0.2279374 0.222319 0.2170744 0.2123321 0.2082071 0.2047946
 0.2021599 0.2003411 0.1993616 0.1992369 0.1999643 0.2015047 0.203775 0.2066531 0.2099873 0.2136007
 0.2172978 0.2208846 0.2242173 0.2272534 0.230047 0.2326703 0.2351367 0.237402 0.2394228 0.2411924
 0.2427228 0.2440185 0.2450812 0.2459324 0.246621 0.2472028 0.2477136 0.2481586 0.2485267 0.2488119
 0.249026 0.2491961 0.2493545 0.2495272 0.2497284 0.249961 0.2502252 0.2505285 0.2508886 0.251327
 0.2518562 0.2524712 0.2531514 0.2538746 0.2546348 0.255448 0.256344 0.2573564 0.2585157 0.2598404
 0.261327 0.2629406 0.2646118 0.2662422 0.2677252 0.2689744 0.2699402 0.2706106 0.2710016 0.271144
 0.2710715 0.2708176 0.2704126 0.2698785 0.2692312 0.2684925 0.2676921 0.2668525 0.2659739 0.2650418
 0.2640506 0.26302 0.2619877 0.2609832 0.2600142 0.2590754 0.2581615 0.2572689 0.2563974 0.2555531
 0.2547423 0.2539622 0.2532079 0.252484 0.2517979 0.2511391 0.2504687 0.2497271 0.2488581 0.2478298
 0.2466377 0.2452894 0.2437963 0.2421741 0.2404367 0.2385929 0.2366515 0.2346258 0.232526 0.2303517
 0.2280931 0.2257399 0.223304 0.2208449 0.2184592 0.2162319 0.2141981 0.2123438 0.2106284 0.2090079
 0.2074523 0.2059488 0.2044958 0.2031009 0.201776 0.2005225 0.1993325 0.1982077 0.1971647 0.1962166
 0.1953677 0.1946206 0.193976 0.1934282 0.1929677 0.1925829 0.1922691 0.1920495 0.1919672 0.1920288
 0.1921676 0.1922834 0.1923108 0.1922491 0.1921478 0.1920656 0.1920312 0.1920361 0.1920521 0.1920315
 0.191899 0.1915662 0.1909494 0.1899695 0.1885705 0.1867635 0.1846412 0.1823529 0.1800766 0.1779856
 0.1761991 0.174762 0.1736633 0.1728483 0.1722289 0.1717337 0.1713606 0.1711719 0.1712367 0.1715547
 0.1719978 0.1723635 0.1725508 0.1726719 0.1729551 0.1735533 0.1744512 0.1755045 0.1765397 0.1774432
 0.1781793 0.178744 0.1791446 0.179412 0.1795816 0.1796567 0.179622 0.1794727 0.1792107 0.1788436
 0.1783913 0.1778607 0.177232 0.1764972 0.1756776 0.1747823 0.1737962 0.1727072 0.1714915 0.170113
 0.1686206 0.1672312 0.166253 0.1659167 0.1662548 0.1670922 0.1681724 0.169327 0.1704862 0.1715458
 0.1723785 0.1730422 0.1738656 0.1752257 0.1772294 0.1796041 0.181886 0.1837167 0.1849626 0.1856161
 0.1857074 0.1853037 0.1844588 0.18316 0.1814147 0.1793341 0.1770609 0.1747207 0.1724697 0.1704535
 0.168726 0.167297 0.1661664 0.165323 0.1648242 0.1643986 0.1624665 0.1566848 0.1472757 0.1391922
 0.138381 0.1453669 0.1545155 0.1600817 0.1610915 0.1599686 0.1587279 0.1578048 0.1571173 0.1567258
 0.1566774 0.1568688 0.1570873 0.1571081 0.1568348 0.1562879 0.1553483 0.1535149 0.149893 0.1435219
 0.1340881 0.1225673 0.1109992 0.1013991 0.09477358 0.09092858 0.08890292 0.08763295 0.08655602 0.08580646
 0.08587184 0.0870879 0.08944552 0.09273255 0.09668884 0.1009819 0.1051522 0.1087523 0.1115834 0.1137185
 0.1152858 0.1163259 0.1168545 0.1169365 0.1166591 0.1160997 0.1153225 0.1143546 0.1131739 0.1117668
 0.1102159 0.1087275 0.1075446 0.1067916 0.1064011 0.1062162 0.106134 0.1061245 0.1061719 0.1062605
 0.1063895 0.1065651 0.1067991 0.1071095 0.1074856 0.1078631 0.1081664 0.1083632 0.1084628 0.108474
 0.1083701 0.1081098 0.1077156 0.1072941 0.1068962 0.1063771 0.1055117 0.1042831 0.1029961 0.1020825
 0.1018023 0.1020878 0.1026225 0.1030774 0.1033142 0.1033939 0.1034176 0.1033764 0.1031521 0.1026557
</values></Ydata></ScRf><Data_Parameters_AB><parameter name="DPF">1</parameter><parameter name="NPT">3497</parameter><parameter name="FXV">3996</parameter><parameter name="LXV">500</parameter><parameter name="CSF">1</parameter><parameter name="MXY">0.0621864162385464</parameter><parameter name="MNY">-0.137944206595421</parameter><parameter name="DAT">18/01/2024</parameter><parameter name="TIM">11:01:17.081 (GMT+1)</parameter><parameter name="DXU">WN</parameter></Data_Parameters_AB><AB__Qtest><MainReport name="Quality Test Report"><Header><Line><Legend>Test result ok/not ok [1/0]: </Legend><Value>0</Value></Line><Line><Legend>Method file: </Legend><Value>C:\Users\Public\Documents\Bruker\OPUS_8.2.28\QT\IRBT_v3_default.QT</Value></Line></Header><Matrix><Line><Legend></Legend><Legend>min</Legend><Legend>max</Legend><Legend>measured</Legend></Line><Line><Value>Absorption (X-Range 1):</Value><Value>0.400000</Value><Value>2.000000</Value><Value>0.175615</Value></Line><Line><Value>Noise (X-Range 4):</Value><Value></Value><Value>0.000300</Value><Value>0.000020</Value></Line><Line><Value>Signal/Noise (X-Range 2):</Value><Value>200.000000</Value><Value></Value><Value>123.265137</Value></Line><Line><Value>Signal/Noise (X-Range 3):</Value><Value>40.000000</Value><Value></Value><Value>90.454567</Value></Line><Line><Value>Water vapour (X-Range 5):</Value><Value></Value><Value>0.000300</Value><Value>0.000010</Value></Line><Line><Value>Signal/Water (X-Range 2):</Value><Value>100.000000</Value><Value></Value><Value>263.315666</Value></Line><Line><Value>Signal/Water (X-Range 3):</Value><Value>20.000000</Value><Value></Value><Value>193.226610</Value></Line><Line><Value>Fringes (X-Range 6):</Value><Value></Value><Value>0.000100</Value><Value>0.000024</Value></Line></Matrix></MainReport></AB__Qtest><Data_Parameters_ScSm><parameter name="DPF">1</parameter><parameter name="NPT">1814</parameter><parameter name="FXV">3996.63438082617</parameter><parameter name="LXV">499.579297603271</parameter><parameter name="CSF">1</parameter><parameter name="MXY">0.387844800949097</parameter><parameter name="MNY">0.0851488560438156</parameter><parameter name="DAT">18/01/2024</parameter><parameter name="TIM">11:01:17.081 (GMT+1)</parameter><parameter name="DXU">WN</parameter></Data_Parameters_ScSm><Data_Parameters_ScRf><parameter name="DPF">1</parameter><parameter name="NPT">1820</parameter><parameter name="FXV">4004.34989121387</parameter><parameter name="LXV">495.721542409425</parameter><parameter name="CSF">1</parameter><parameter name="MXY">0.320442169904709</parameter><parameter name="MNY">0.0691463574767113</parameter><parameter name="DAT">18/01/2024</parameter><parameter name="TIM">11:00:51.788 (GMT+1)</parameter><parameter name="DXU">WN</parameter></Data_Parameters_ScRf><Optic_Parameters_Rf><parameter name="APR">0</parameter><parameter name="APT">Open</parameter><parameter name="BMS">KBr</parameter><parameter name="DTC">RT-DLaTGS_IR-Biotyper [Microplate reader]</parameter><parameter name="HPF">0</parameter><parameter name="LPF">10.0</parameter><parameter name="LPV">4000</parameter><parameter name="PGR">0</parameter><parameter name="RCH">Module port</parameter><parameter name="RDX">0</parameter><parameter name="SRC">MIR</parameter><parameter name="VEL">10.0</parameter><parameter name="SON">Off</parameter></Optic_Parameters_Rf><Acquisition_Parameters_Rf><parameter name="ADT">1</parameter><parameter name="AQM">DD</parameter><parameter name="CFE">0</parameter><parameter name="COR">0</parameter><parameter name="DEL">0</parameter><parameter name="DLY">0</parameter><parameter name="HFW">8000</parameter><parameter name="LFW">0</parameter><parameter name="NSR">32</parameter><parameter name="PLF">AB</parameter><parameter name="RES">6</parameter><parameter name="RGN">-1</parameter><parameter name="STR">0</parameter><parameter name="TCL">MakeCompatibleScalar (0, {WSV=1.000000, ARV=0});</parameter><parameter name="TDL">37</parameter><parameter name="RPO">0</parameter></Acquisition_Parameters_Rf><FT_-_Parameters_Rf><parameter name="APF">B3</parameter><parameter name="HFQ">500</parameter><parameter name="LFQ">4000</parameter><parameter name="NLI">0</parameter><parameter name="PHR">24</parameter><parameter name="PHZ">ML</parameter><parameter name="SPZ">NO</parameter><parameter name="ZFF">1</parameter></FT_-_Parameters_Rf><Optic_Parameters_><parameter name="APR">0</parameter><parameter name="APT">Open</parameter><parameter name="BMS">KBr</parameter><parameter name="CHN">Module port</parameter><parameter name="DTC">RT-DLaTGS_IR-Biotyper [Microplate reader]</parameter><parameter name="HPF">0</parameter><parameter name="LPF">10.0</parameter><parameter name="LPV">4000</parameter><parameter name="PGN">0</parameter><parameter name="RDX">0</parameter><parameter name="SRC">MIR</parameter><parameter name="VEL">10.0</parameter><parameter name="SON">Off</parameter></Optic_Parameters_><FT_-_Parameters_><parameter name="APF">B3</parameter><parameter name="HFQ">500</parameter><parameter name="LFQ">4000</parameter><parameter name="NLI">0</parameter><parameter name="PHR">24</parameter><parameter name="PHZ">ML</parameter><parameter name="SPZ">NO</parameter><parameter name="ZFF">1</parameter></FT_-_Parameters_><Acquisition_Parameters_><parameter name="ADT">1</parameter><parameter name="AQM">DD</parameter><parameter name="CFE">0</parameter><parameter name="COR">0</parameter><parameter name="DEL">0</parameter><parameter name="DLY">0</parameter><parameter name="HFW">8000</parameter><parameter name="LFW">0</parameter><parameter name="NSS">32</parameter><parameter name="PLF">AB</parameter><parameter name="RES">6</parameter><parameter name="SOT">0</parameter><parameter name="TCL">MakeCompatibleScalar (0, {WSV=1.000000, ARV=0});</parameter><parameter name="TDL">37</parameter><parameter name="SPO">0</parameter><parameter name="SGN">-1</parameter></Acquisition_Parameters_><Instrument_Parameters_Rf><parameter name="HFL">15801.365274</parameter><parameter name="LFL">0</parameter><parameter name="LWN">15801.365274</parameter><parameter name="ABP">32157</parameter><parameter name="SSP">1</parameter><parameter name="ARG">2</parameter><parameter name="ASG">2</parameter><parameter name="ASS">32</parameter><parameter name="GFW">16</parameter><parameter name="GBW">16</parameter><parameter name="BFW">0</parameter><parameter name="BBW">0</parameter><parameter name="PKA">9301</parameter><parameter name="PKL">4987</parameter><parameter name="PRA">9275</parameter><parameter name="PRL">5010</parameter><parameter name="P2A">1</parameter><parameter name="P2L">1</parameter><parameter name="P2R">1</parameter><parameter name="P2K">1</parameter><parameter name="DAQ">0</parameter><parameter name="AG2">1</parameter><parameter name="SSM">1</parameter><parameter name="RSN">46516</parameter><parameter name="CRR">0</parameter><parameter name="SRT">1705575651.788</parameter><parameter name="DUR">19.6449890136719</parameter><parameter name="TSC">32</parameter><parameter name="MVD">0.306960642337799</parameter><parameter name="AN1">0.225996378957975</parameter><parameter name="AN2">0</parameter><parameter name="VSN">2.485 Apr  4 2017</parameter><parameter name="SRN">0085</parameter><parameter name="CAM">0</parameter><parameter name="INS">IR-Biotyper</parameter><parameter name="FOC">69</parameter><parameter name="RDY">1</parameter><parameter name="ARS">32</parameter></Instrument_Parameters_Rf><Sample_Parameters_><parameter name="BLD"></parameter><parameter name="CNM">Admin</parameter><parameter name="CPY"></parameter><parameter name="DPM"></parameter><parameter name="EXP">IRBT_v3_32Scans.XPM</parameter><parameter name="LCT"></parameter><parameter name="SFM">Microplate, HTS-XT</parameter><parameter name="SNM">240118-1045-Cdiff_SCFA_2_C18_232119200_F1_66d5037c-7437-49e3-a450-dc811f111914.0</parameter><parameter name="XPP">C:\Users\Public\Documents\Bruker\OPUS_8.2.28\XPM</parameter><parameter name="IST">OK</parameter><parameter name="CPG">1252</parameter><parameter name="UID">89f06bb5-ac79-4ac8-a0ae-98533e25e3a8</parameter></Sample_Parameters_><Instrument_Parameters_><parameter name="HFL">15801.365274</parameter><parameter name="LFL">0</parameter><parameter name="LWN">15801.365274</parameter><parameter name="ABP">32157</parameter><parameter name="SSP">1</parameter><parameter name="ASG">2</parameter><parameter name="ARG">2</parameter><parameter name="ASS">32</parameter><parameter name="GFW">16</parameter><parameter name="GBW">16</parameter><parameter name="BFW">0</parameter><parameter name="BBW">0</parameter><parameter name="PKA">11210</parameter><parameter name="PKL">4980</parameter><parameter name="PRA">11163</parameter><parameter name="PRL">5002</parameter><parameter name="P2A">1</parameter><parameter name="P2L">1</parameter><parameter name="P2R">1</parameter><parameter name="P2K">1</parameter><parameter name="DAQ">0</parameter><parameter name="AG2">1</parameter><parameter name="SSM">1</parameter><parameter name="RSN">23951</parameter><parameter name="CRR">0</parameter><parameter name="SRT">1705575677.081</parameter><parameter name="DUR">19.64599609375</parameter><parameter name="TSC">32</parameter><parameter name="MVD">0.304546594619751</parameter><parameter name="AN1">0.226010830181581</parameter><parameter name="AN2">0</parameter><parameter name="VSN">2.485 Apr  4 2017</parameter><parameter name="SRN">0085</parameter><parameter name="CAM">0</parameter><parameter name="INS">IR-Biotyper</parameter><parameter name="FOC">69</parameter><parameter name="RDY">1</parameter></Instrument_Parameters_><History/></OPUSDataFile>
