<?xml version="1.0" encoding="UTF-8" ?>
<OPUSDataFile><AB><Ydata ylabel="Absorbance Units"><values byteorder="INTEL" format="FLOAT32" numvalues="3497"> -0.08391417 -0.08388923 -0.08386156 -0.08383189 -0.0838021 -0.08377334 -0.08374875 -0.08372957 -0.08371944 -0.0837177
 -0.08372588 -0.08374038 -0.08376005 -0.08377915 -0.0837946 -0.08380292 -0.08380136 -0.0837929 -0.08377681 -0.08376168
 -0.08374859 -0.08374419 -0.08374944 -0.08376256 -0.0837834 -0.08380469 -0.08382629 -0.08384389 -0.0838582 -0.08387087
 -0.08388206 -0.08389384 -0.08390433 -0.08391038 -0.08391058 -0.08390021 -0.08388236 -0.08385764 -0.08383175 -0.0838099
 -0.08379256 -0.08378279 -0.08377382 -0.08376422 -0.08374776 -0.08372147 -0.08368967 -0.08365164 -0.08361971 -0.08359499
 -0.08358501 -0.08359008 -0.08360498 -0.08362887 -0.0836502 -0.08366933 -0.08368166 -0.08368933 -0.08369757 -0.0837069
 -0.08372202 -0.08373997 -0.08375835 -0.08377442 -0.08378331 -0.08378692 -0.08378463 -0.08378025 -0.08377605 -0.08377255
 -0.08377095 -0.0837685 -0.08376476 -0.08375781 -0.0837471 -0.08373328 -0.08371627 -0.0836979 -0.08367827 -0.08365974
 -0.08364248 -0.08362925 -0.08362021 -0.08361783 -0.08362179 -0.08363273 -0.08364931 -0.08366913 -0.08369033 -0.08370883
 -0.08372371 -0.08373201 -0.08373477 -0.0837316 -0.08372444 -0.08371401 -0.08370247 -0.08369047 -0.08368068 -0.08367408
 -0.08367098 -0.08367209 -0.08367299 -0.0836734 -0.08366874 -0.08365876 -0.08364563 -0.08362982 -0.08361787 -0.08360972
 -0.08360862 -0.0836134 -0.08362135 -0.08363205 -0.08364278 -0.08365466 -0.08366837 -0.08368465 -0.08370549 -0.08372847
 -0.08375343 -0.0837748 -0.08378968 -0.08379408 -0.08378475 -0.083765 -0.08373404 -0.08370087 -0.08366693 -0.08363735
 -0.08361299 -0.08359302 -0.08357742 -0.08356611 -0.08355936 -0.08356114 -0.08357126 -0.08359163 -0.08362009 -0.08365063
 -0.08367985 -0.08369584 -0.08369907 -0.08368307 -0.08365478 -0.08361932 -0.08358309 -0.08355334 -0.08353178 -0.08352156
 -0.08352149 -0.08353261 -0.08354997 -0.08357354 -0.08359396 -0.08360994 -0.08361312 -0.08360203 -0.08357836 -0.08354206
 -0.08350541 -0.08346907 -0.08344477 -0.08343214 -0.08343511 -0.08345215 -0.08348038 -0.08351719 -0.0835553 -0.08359206
 -0.08361925 -0.08363707 -0.08364157 -0.08363663 -0.08362416 -0.08360698 -0.08358806 -0.08356541 -0.08353847 -0.08350749
 -0.0834711 -0.08343747 -0.08340756 -0.08338908 -0.08338355 -0.08338757 -0.08340111 -0.08341381 -0.08342549 -0.08343187
 -0.08343399 -0.08343697 -0.08344094 -0.08344991 -0.08346156 -0.08347189 -0.08347944 -0.08347902 -0.08347272 -0.0834608
 -0.08344591 -0.08343077 -0.08341561 -0.08340145 -0.08338748 -0.08337334 -0.08335949 -0.08334596 -0.0833334 -0.08332212
 -0.08331068 -0.08329897 -0.08328527 -0.08326944 -0.08325247 -0.08323462 -0.0832198 -0.08320816 -0.0832027 -0.08320267
 -0.08320688 -0.08321417 -0.08322084 -0.08322679 -0.08322966 -0.08323094 -0.08323132 -0.08323248 -0.08323626 -0.08324299
 -0.08325376 -0.08326701 -0.08328302 -0.08329772 -0.08331033 -0.08331658 -0.08331505 -0.08330724 -0.08329261 -0.08327939
 -0.08326806 -0.08326346 -0.08326536 -0.08326981 -0.08327624 -0.08327848 -0.08327682 -0.08326977 -0.08325692 -0.08323644
 -0.08320815 -0.08316905 -0.08312433 -0.08307795 -0.08303797 -0.08301438 -0.0830064 -0.08301925 -0.08304012 -0.08306608
 -0.08308299 -0.08308503 -0.08307115 -0.08303899 -0.08299888 -0.08295156 -0.08290649 -0.08286437 -0.08282933 -0.08280136
 -0.08278004 -0.08276483 -0.08275186 -0.08274046 -0.08272562 -0.08270782 -0.08268526 -0.08265989 -0.08263469 -0.08261045
 -0.08259045 -0.08257159 -0.08255269 -0.08252975 -0.08249864 -0.08246214 -0.08241922 -0.0823779 -0.08234107 -0.08230989
 -0.08228595 -0.0822624 -0.08223847 -0.08221051 -0.08217809 -0.0821441 -0.08210862 -0.08207276 -0.08203607 -0.08199524
 -0.08195051 -0.08190085 -0.0818473 -0.08179273 -0.08173631 -0.08167835 -0.08161645 -0.08154699 -0.08147017 -0.08138379
 -0.08129209 -0.0811968 -0.08110189 -0.08101016 -0.0809209 -0.08083532 -0.08074768 -0.08065738 -0.08055809 -0.08044863
 -0.08032888 -0.08019862 -0.08006218 -0.07991969 -0.07977244 -0.07962033 -0.07946266 -0.07929997 -0.07913421 -0.07896607
 -0.07879868 -0.07863186 -0.0784667 -0.07830288 -0.07814045 -0.07797918 -0.07781915 -0.0776593 -0.07749933 -0.07733732
 -0.07717292 -0.07700279 -0.0768269 -0.07663798 -0.07643478 -0.07621083 -0.07596414 -0.0757016 -0.07542316 -0.07514726
 -0.07487459 -0.07461585 -0.07436992 -0.07413235 -0.0739014 -0.07366658 -0.07342807 -0.07318036 -0.07292604 -0.07266767
 -0.07240735 -0.07215074 -0.0718938 -0.07163642 -0.0713694 -0.07108537 -0.07078322 -0.07045718 -0.07012275 -0.06978293
 -0.06945228 -0.06913611 -0.0688304 -0.06853629 -0.06823889 -0.06793708 -0.06762251 -0.0672951 -0.06695935 -0.06661597
 -0.06627344 -0.06593117 -0.06559122 -0.06525175 -0.06490821 -0.06455979 -0.0642021 -0.06383708 -0.06346548 -0.06308961
 -0.06271233 -0.06233398 -0.06195569 -0.06157708 -0.06119794 -0.06081916 -0.06044093 -0.06006398 -0.0596885 -0.0593149
 -0.0589433 -0.05857375 -0.05820642 -0.057838 -0.05746816 -0.05708828 -0.0566982 -0.05629232 -0.05587213 -0.05544154
 -0.05500253 -0.05456348 -0.05412436 -0.05368936 -0.05325703 -0.05282709 -0.05239827 -0.05196891 -0.05153915 -0.05110796
 -0.05067806 -0.05025043 -0.04982739 -0.04941114 -0.04899675 -0.04858479 -0.04816326 -0.0477305 -0.04727903 -0.04680763
 -0.04632279 -0.04582497 -0.04532785 -0.04483179 -0.04434583 -0.04386902 -0.04340186 -0.04294261 -0.04248644 -0.04203189
 -0.04157338 -0.04111091 -0.04064183 -0.04016742 -0.03968806 -0.03920483 -0.03871864 -0.03822996 -0.037739 -0.03724678
 -0.03675345 -0.03626074 -0.0357691 -0.0352794 -0.03479208 -0.03430518 -0.03381868 -0.03332852 -0.0328345 -0.03233425
 -0.03182811 -0.0313186 -0.03080622 -0.03029536 -0.02978532 -0.02927673 -0.02876757 -0.02825368 -0.02773399 -0.02720435
 -0.0266667 -0.02612069 -0.02557095 -0.02502083 -0.02447288 -0.02393023 -0.02338962 -0.02285122 -0.02230908 -0.02176137
 -0.02120737 -0.02064642 -0.02008181 -0.01951388 -0.0189424 -0.01836729 -0.01778484 -0.01719525 -0.01659951 -0.01599851
 -0.01539785 -0.01479755 -0.01420099 -0.01360688 -0.01301391 -0.01242118 -0.0118265 -0.01123016 -0.01063125 -0.01003162
 -0.0094319 -0.008834957 -0.008242545 -0.007655773 -0.007076037 -0.006500615 -0.005929534 -0.005358192 -0.00478598 -0.00420931
 -0.003627758 -0.003039755 -0.002445253 -0.001847558 -0.001247449 -0.0006547547 -7.03054E-05 0.0004956115 0.001044134 0.001572889
 0.002085036 0.002585963 0.003079249 0.00357278 0.004068561 0.00457245 0.005082663 0.005601061 0.006120966 0.006640149
 0.007151149 0.007650472 0.00813567 0.008604962 0.009061143 0.00950406 0.009938803 0.0103657 0.01079037 0.01121312
 0.01163662 0.01206055 0.01248225 0.012901 0.01331132 0.01371307 0.01410283 0.01448096 0.0148466 0.01520018
 0.01554161 0.0158725 0.01619402 0.01650915 0.01682046 0.01713004 0.01743991 0.01774999 0.0180611 0.01837085
 0.01867899 0.01898281 0.01928182 0.01957468 0.01986115 0.02014148 0.02041565 0.02068312 0.02094383 0.02119652
 0.02144152 0.02167996 0.02191263 0.02214307 0.02237133 0.02259933 0.0228265 0.02305262 0.02327764 0.02350153
 0.02372393 0.02394505 0.02416298 0.02437642 0.02458524 0.02478811 0.02498982 0.02519108 0.02539676 0.02560842
 0.02582381 0.02604335 0.0262579 0.02646697 0.02666384 0.0268488 0.02702447 0.02719192 0.02735972 0.02752694
 0.02769563 0.02786226 0.02801874 0.02816409 0.02829066 0.0284056 0.02851283 0.0286225 0.02874509 0.02888305
 0.02904262 0.02921544 0.0294007 0.02958734 0.0297721 0.02994967 0.03011788 0.03028055 0.03043736 0.03059845
 0.0307644 0.03094377 0.03113624 0.03133878 0.03154927 0.03175284 0.0319478 0.03211904 0.03226848 0.03239215
 0.03249529 0.03258479 0.03266497 0.03274418 0.03282283 0.03290405 0.03298685 0.03307111 0.03315741 0.03324656
 0.03333636 0.03342793 0.03351081 0.03358404 0.03363505 0.03366187 0.03366373 0.03364031 0.03360584 0.03356124
 0.03352344 0.03349194 0.03347277 0.03346305 0.03345557 0.03344686 0.03342429 0.03338696 0.0333261 0.03324649
 0.03314876 0.03304229 0.03293482 0.03283346 0.03274599 0.03266969 0.03260694 0.03254678 0.03248699 0.03241833
 0.03233795 0.03224729 0.03214565 0.03204237 0.03193799 0.03184084 0.03175109 0.03167159 0.03160234 0.03154438
 0.03149847 0.03146839 0.03145462 0.03146195 0.03148637 0.03152565 0.03156889 0.03160322 0.03161663 0.03159237
 0.03153142 0.03142495 0.03129439 0.03114356 0.03100044 0.03087448 0.03077708 0.03071409 0.03067273 0.03065319
 0.03063298 0.03061066 0.0305711 0.03051411 0.03043695 0.03034054 0.03022967 0.03010548 0.02997484 0.02983858
 0.02970245 0.02956642 0.02943318 0.02930213 0.02917331 0.029047 0.02892301 0.02880306 0.02868921 0.02857854
 0.02847305 0.02835855 0.02823295 0.02807841 0.02789002 0.02766599 0.02740387 0.02712416 0.02682787 0.02653838
 0.02625616 0.02598751 0.02573127 0.02548163 0.0252384 0.02499811 0.02476069 0.02452514 0.02428915 0.0240477
 0.02379986 0.02354076 0.02327531 0.02300556 0.0227376 0.02247722 0.02222265 0.021976 0.02172847 0.0214778
 0.02121848 0.02094802 0.02067099 0.02038681 0.02010886 0.01983791 0.01958763 0.01935816 0.0191506 0.01896273
 0.0187783 0.01859471 0.01839087 0.01816869 0.01792106 0.01765472 0.01737872 0.01709913 0.01682842 0.01656752
 0.01632246 0.01608965 0.01586929 0.01565542 0.01544586 0.01523517 0.0150212 0.01480146 0.01457477 0.01434274
 0.01410528 0.01386535 0.0136232 0.01338007 0.01313595 0.01288973 0.01264105 0.01238666 0.01212624 0.01185639
 0.01157749 0.01128867 0.01099091 0.01068572 0.01037382 0.0100569 0.009734894 0.009408058 0.009077028 0.008742169
 0.008404327 0.008064335 0.007721072 0.007374569 0.007022756 0.006664776 0.006302247 0.005934843 0.005568517 0.005203701
 0.004844324 0.004490372 0.004138946 0.003789577 0.003436883 0.003081001 0.00271961 0.002353398 0.001983243 0.001609465
 0.001232877 0.0008541619 0.0004740781 9.45936E-05 -0.000282315 -0.0006548236 -0.001020776 -0.001380644 -0.00173364 -0.00208249
 -0.002427881 -0.002771797 -0.003115332 -0.003455905 -0.003793917 -0.004121142 -0.004437027 -0.004733961 -0.005011957 -0.005276584
 -0.00553007 -0.005794479 -0.00607169 -0.006384133 -0.006727938 -0.007105649 -0.007507303 -0.007914688 -0.00831903 -0.008698733
 -0.009054388 -0.009376328 -0.009675581 -0.00995509 -0.01022919 -0.01050559 -0.01079149 -0.01109251 -0.0114026 -0.01172262
 -0.01203922 -0.01235065 -0.01264879 -0.01293255 -0.01320465 -0.01346526 -0.01371931 -0.0139661 -0.01420149 -0.01442381
 -0.01462172 -0.01479657 -0.01494398 -0.01507202 -0.0151933 -0.01531924 -0.01547244 -0.01565711 -0.01588947 -0.01615744
 -0.01646142 -0.0167776 -0.01709528 -0.01739718 -0.01767336 -0.01792592 -0.01815216 -0.01836578 -0.01856854 -0.01876801
 -0.01896522 -0.01915827 -0.01934711 -0.01953092 -0.01971022 -0.01989023 -0.02007095 -0.02025585 -0.02044312 -0.02062892
 -0.0208119 -0.0209866 -0.02115464 -0.02131549 -0.02147253 -0.02162926 -0.02178711 -0.02194874 -0.02211247 -0.02227813
 -0.02244426 -0.02260907 -0.02277772 -0.02294949 -0.02313802 -0.02334489 -0.0235822 -0.0238518 -0.02414834 -0.02447126
 -0.0247959 -0.0251208 -0.02542075 -0.02569757 -0.0259461 -0.02617175 -0.02638899 -0.02660186 -0.02682726 -0.02706343
 -0.02731619 -0.02757924 -0.02784832 -0.02811808 -0.02838261 -0.02864177 -0.02889317 -0.02914102 -0.02938605 -0.02963229
 -0.02988091 -0.03013352 -0.03039069 -0.03065145 -0.0309159 -0.03118067 -0.03144557 -0.03170641 -0.03196333 -0.03221619
 -0.03246594 -0.03271795 -0.03297228 -0.03323311 -0.03349748 -0.03376129 -0.03402111 -0.03426859 -0.03450561 -0.03472932
 -0.03494742 -0.03516449 -0.03538664 -0.03561956 -0.03586064 -0.03611134 -0.03636326 -0.03661486 -0.03685936 -0.03709533
 -0.03732068 -0.0375351 -0.03773779 -0.0379287 -0.03810518 -0.03826708 -0.03841105 -0.03853792 -0.03864956 -0.03874873
 -0.03884533 -0.03894237 -0.03905232 -0.03917437 -0.03931441 -0.03946602 -0.03962574 -0.03978439 -0.0399342 -0.04006882
 -0.04018246 -0.04027415 -0.04034181 -0.04038831 -0.04041413 -0.04042082 -0.04040909 -0.0403763 -0.04032239 -0.04024298
 -0.04013786 -0.04000726 -0.03985161 -0.03967661 -0.03948228 -0.03927236 -0.03904508 -0.03879637 -0.03852437 -0.03822186
 -0.03789024 -0.03752758 -0.0371385 -0.03672709 -0.03629763 -0.0358547 -0.03540067 -0.03493767 -0.03446791 -0.03399245
 -0.03351321 -0.033031 -0.03254583 -0.03205771 -0.0315672 -0.03107401 -0.03058383 -0.03009696 -0.02962467 -0.02916769
 -0.02873798 -0.02833608 -0.02797098 -0.02764333 -0.02735992 -0.02712173 -0.02693473 -0.02679876 -0.02671781 -0.02668682
 -0.02670478 -0.02675762 -0.02683771 -0.02692286 -0.02700079 -0.02705168 -0.02706486 -0.02703284 -0.02695076 -0.02682246
 -0.02664751 -0.02643238 -0.02617742 -0.02588983 -0.02556999 -0.02523123 -0.02487479 -0.02452027 -0.02416904 -0.02383921
 -0.02353166 -0.02325865 -0.02302171 -0.0228299 -0.02268585 -0.02259757 -0.02256756 -0.02260111 -0.0227016 -0.02287199
 -0.02311907 -0.02344652 -0.02386162 -0.0243689 -0.02496817 -0.02566206 -0.02643917 -0.02729951 -0.02822344 -0.02921004
 -0.0302325 -0.03128938 -0.03234442 -0.03339528 -0.03440153 -0.03536211 -0.0362483 -0.03706355 -0.03780351 -0.03847592
 -0.03909682 -0.03967381 -0.04022725 -0.04076039 -0.04128576 -0.04180148 -0.04231064 -0.04280878 -0.04329461 -0.04376322
 -0.04421252 -0.04463916 -0.0450415 -0.04541988 -0.04577353 -0.04610756 -0.04642224 -0.04672405 -0.04701346 -0.04729195
 -0.04755909 -0.04780819 -0.04803799 -0.04823686 -0.04840424 -0.04853047 -0.04861859 -0.0486688 -0.0486906 -0.04869783
 -0.04870521 -0.04873499 -0.04879967 -0.04891848 -0.04909277 -0.04933128 -0.04962178 -0.04996401 -0.05033698 -0.05073699
 -0.05113985 -0.05154185 -0.05192018 -0.05227219 -0.05258059 -0.05284405 -0.05305513 -0.05321449 -0.05333159 -0.0534111
 -0.05348625 -0.05356672 -0.05370694 -0.05391666 -0.05425105 -0.05470849 -0.05531756 -0.05605561 -0.0569129 -0.05784937
 -0.05883149 -0.0598195 -0.06078015 -0.06169449 -0.06254469 -0.06333594 -0.06406517 -0.06474591 -0.06538057 -0.06597537
 -0.06653147 -0.06704947 -0.06752933 -0.06797697 -0.06839304 -0.06879028 -0.06916939 -0.06954193 -0.06990746 -0.07027051
 -0.0706301 -0.07098593 -0.07133741 -0.07168341 -0.07202341 -0.07235653 -0.07268203 -0.07299909 -0.07330698 -0.07360477
 -0.07389298 -0.07417115 -0.07444178 -0.07470517 -0.07496487 -0.07522178 -0.07547692 -0.07573089 -0.07597973 -0.0762233
 -0.07645523 -0.07667536 -0.07688128 -0.07707381 -0.07725773 -0.0774344 -0.07761238 -0.07779155 -0.07797661 -0.07816519
 -0.07835504 -0.078544 -0.07872746 -0.07890686 -0.07908131 -0.07925433 -0.07942846 -0.07960387 -0.07978213 -0.07995886
 -0.08013324 -0.08030127 -0.08046164 -0.08061497 -0.08076091 -0.08090319 -0.08104199 -0.08118124 -0.08132107 -0.08146408
 -0.08161005 -0.08175882 -0.08190946 -0.08205802 -0.08220361 -0.0823412 -0.08247163 -0.08259355 -0.08270966 -0.08282281
 -0.08293559 -0.08305155 -0.08317158 -0.08329754 -0.08342855 -0.08356494 -0.08370465 -0.08384769 -0.08398989 -0.08413083
 -0.08426505 -0.08439172 -0.08450802 -0.08461351 -0.08471205 -0.08480403 -0.08489872 -0.08499645 -0.08510472 -0.08522242
 -0.08534918 -0.08548284 -0.085617 -0.08575051 -0.0858775 -0.08599944 -0.0861154 -0.08622847 -0.08634121 -0.08645564
 -0.08657421 -0.08669639 -0.08682278 -0.08695154 -0.08708227 -0.08721347 -0.08734475 -0.0874755 -0.0876056 -0.08773473
 -0.0878628 -0.08799096 -0.08811929 -0.08824988 -0.08838274 -0.08851893 -0.08865788 -0.08879745 -0.08893728 -0.0890749
 -0.08921102 -0.08934577 -0.08948008 -0.08961577 -0.0897521 -0.08988934 -0.0900257 -0.09015997 -0.09029129 -0.09041861
 -0.09054311 -0.09066477 -0.09078553 -0.09090573 -0.09102717 -0.09115011 -0.09127592 -0.09140481 -0.09153581 -0.09166875
 -0.09179926 -0.09192706 -0.09204765 -0.09216153 -0.0922683 -0.09236922 -0.09246778 -0.0925648 -0.09266366 -0.09276431
 -0.09286817 -0.09297467 -0.09308395 -0.09319477 -0.09330654 -0.09341761 -0.09352694 -0.0936341 -0.09373845 -0.09384158
 -0.09394363 -0.0940463 -0.09414999 -0.09425426 -0.09435913 -0.09446312 -0.09456617 -0.09466776 -0.09476795 -0.09486712
 -0.09496534 -0.09506311 -0.09516056 -0.09525841 -0.09535678 -0.09545629 -0.09555692 -0.09565894 -0.09576207 -0.09586611
 -0.09597084 -0.09607599 -0.09618165 -0.09628769 -0.09639467 -0.09650273 -0.09661237 -0.09672394 -0.0968364 -0.09694983
 -0.09706154 -0.09717131 -0.09727763 -0.0973805 -0.09748201 -0.09758253 -0.0976867 -0.09779458 -0.09790942 -0.09803022
 -0.09815601 -0.09828499 -0.09841278 -0.0985385 -0.09865836 -0.09877393 -0.09888501 -0.09899449 -0.09910467 -0.09921627
 -0.09933091 -0.0994457 -0.09956 -0.09967162 -0.0997794 -0.09988562 -0.0999902 -0.1000975 -0.1002079 -0.100322
 -0.1004399 -0.1005578 -0.1006756 -0.1007901 -0.100902 -0.1010119 -0.1011207 -0.101231 -0.1013426 -0.1014562
 -0.1015706 -0.1016844 -0.1017968 -0.1019063 -0.1020132 -0.102117 -0.1022185 -0.1023177 -0.1024158 -0.1025131
 -0.1026117 -0.1027119 -0.1028148 -0.1029207 -0.1030273 -0.1031346 -0.103238 -0.1033376 -0.1034313 -0.1035194
 -0.1036044 -0.1036867 -0.1037704 -0.1038554 -0.103944 -0.1040353 -0.1041288 -0.1042238 -0.1043187 -0.1044131
 -0.104506 -0.1045973 -0.1046862 -0.104773 -0.1048573 -0.1049401 -0.1050215 -0.1051027 -0.1051843 -0.1052669
 -0.1053508 -0.1054354 -0.1055209 -0.1056059 -0.1056904 -0.1057728 -0.105853 -0.1059304 -0.106005 -0.1060776
 -0.1061484 -0.1062192 -0.1062902 -0.1063629 -0.1064377 -0.1065157 -0.1065964 -0.1066801 -0.1067649 -0.1068496
 -0.1069318 -0.1070093 -0.1070824 -0.1071501 -0.1072172 -0.1072845 -0.1073569 -0.1074357 -0.1075205 -0.1076116
 -0.1077032 -0.1077952 -0.1078822 -0.1079646 -0.108042 -0.1081151 -0.1081873 -0.1082592 -0.1083343 -0.1084123
 -0.1084947 -0.108581 -0.1086711 -0.1087642 -0.1088597 -0.1089565 -0.1090536 -0.1091499 -0.1092443 -0.1093378
 -0.1094299 -0.1095236 -0.1096197 -0.1097194 -0.1098236 -0.1099292 -0.1100362 -0.1101397 -0.1102397 -0.1103345
 -0.1104245 -0.1105127 -0.1105994 -0.1106882 -0.110779 -0.1108726 -0.1109685 -0.1110657 -0.111164 -0.111262
 -0.1113597 -0.1114562 -0.1115516 -0.1116453 -0.1117379 -0.1118295 -0.1119206 -0.1120115 -0.1121014 -0.1121904
 -0.1122766 -0.1123596 -0.112439 -0.1125145 -0.112589 -0.1126625 -0.1127386 -0.1128174 -0.1128999 -0.1129859
 -0.1130731 -0.1131611 -0.1132467 -0.1133301 -0.11341 -0.1134872 -0.1135626 -0.1136369 -0.1137119 -0.1137875
 -0.1138645 -0.113942 -0.1140197 -0.1140971 -0.1141737 -0.1142502 -0.1143267 -0.1144046 -0.1144845 -0.1145661
 -0.1146495 -0.1147317 -0.1148125 -0.114888 -0.1149585 -0.1150233 -0.1150831 -0.1151414 -0.1151986 -0.1152589
 -0.1153221 -0.11539 -0.1154619 -0.1155378 -0.1156168 -0.1156983 -0.1157814 -0.1158654 -0.1159489 -0.116031
 -0.1161107 -0.1161872 -0.1162602 -0.1163296 -0.1163961 -0.1164597 -0.1165225 -0.1165846 -0.1166485 -0.1167142
 -0.1167828 -0.1168543 -0.1169273 -0.1170014 -0.1170737 -0.1171438 -0.1172088 -0.1172693 -0.1173247 -0.1173762
 -0.1174258 -0.1174746 -0.117525 -0.1175773 -0.1176325 -0.1176899 -0.1177496 -0.1178108 -0.1178732 -0.1179362
 -0.1179994 -0.1180623 -0.1181247 -0.1181864 -0.1182472 -0.1183072 -0.1183662 -0.1184235 -0.118479 -0.1185325
 -0.1185846 -0.1186376 -0.1186921 -0.1187519 -0.1188167 -0.1188878 -0.1189639 -0.1190431 -0.1191248 -0.1192066
 -0.1192896 -0.1193733 -0.1194595 -0.1195495 -0.119644 -0.1197439 -0.1198485 -0.1199577 -0.1200704 -0.1201862
 -0.1203052 -0.1204274 -0.1205528 -0.1206813 -0.1208099 -0.1209382 -0.1210602 -0.1211759 -0.1212824 -0.1213801
 -0.1214697 -0.1215502 -0.1216206 -0.1216784 -0.1217186 -0.1217406 -0.121741 -0.1217209 -0.1216791 -0.1216206
 -0.1215451 -0.1214677 -0.1213926 -0.1213385 -0.1213127 -0.1213216 -0.1213696 -0.1214463 -0.1215521 -0.1216665
 -0.1217883 -0.1218981 -0.1219953 -0.1220735 -0.1221335 -0.1221798 -0.1222128 -0.1222363 -0.1222509 -0.1222591
 -0.1222623 -0.1222652 -0.1222683 -0.1222749 -0.1222835 -0.1222937 -0.1223039 -0.1223129 -0.1223197 -0.1223241
 -0.1223247 -0.1223211 -0.1223129 -0.1222996 -0.1222845 -0.1222677 -0.1222545 -0.1222453 -0.1222428 -0.122247
 -0.1222564 -0.1222708 -0.1222866 -0.1223038 -0.1223197 -0.122335 -0.1223495 -0.1223642 -0.1223809 -0.1224006
 -0.1224253 -0.1224549 -0.1224903 -0.122529 -0.1225701 -0.1226096 -0.1226454 -0.1226762 -0.1227004 -0.1227214
 -0.1227395 -0.1227595 -0.1227824 -0.1228095 -0.1228409 -0.1228735 -0.1229071 -0.1229389 -0.1229691 -0.1229976
 -0.1230249 -0.1230526 -0.1230807 -0.1231102 -0.1231408 -0.123173 -0.1232066 -0.1232415 -0.1232773 -0.1233138
 -0.1233498 -0.1233847 -0.1234178 -0.1234482 -0.1234766 -0.1235027 -0.1235286 -0.1235544 -0.1235818 -0.1236111
 -0.1236411 -0.1236719 -0.1237004 -0.1237265 -0.1237487 -0.1237672 -0.1237836 -0.1237983 -0.1238145 -0.1238323
 -0.1238538 -0.1238782 -0.1239054 -0.1239344 -0.1239637 -0.1239924 -0.1240188 -0.1240428 -0.1240634 -0.1240813
 -0.1240966 -0.1241112 -0.1241258 -0.1241419 -0.1241603 -0.12418 -0.1242011 -0.1242214 -0.1242405 -0.124258
 -0.1242741 -0.1242909 -0.1243086 -0.1243292 -0.1243522 -0.124377 -0.1244027 -0.1244269 -0.1244493 -0.124468
 -0.1244835 -0.124496 -0.1245066 -0.1245164 -0.1245267 -0.1245388 -0.124553 -0.1245697 -0.1245881 -0.124608
 -0.1246285 -0.1246494 -0.1246702 -0.1246908 -0.1247108 -0.1247301 -0.124748 -0.1247646 -0.1247795 -0.1247929
 -0.1248056 -0.1248177 -0.1248308 -0.1248448 -0.1248612 -0.1248796 -0.1249 -0.1249216 -0.1249433 -0.1249649
 -0.1249856 -0.1250059 -0.125026 -0.1250459 -0.1250658 -0.1250844 -0.1251012 -0.1251154 -0.1251263 -0.1251358
 -0.1251437 -0.1251531 -0.1251643 -0.1251785 -0.1251957 -0.1252152 -0.1252369 -0.1252595 -0.1252829 -0.1253056
 -0.1253274 -0.1253468 -0.1253639 -0.1253779 -0.12539 -0.1254016 -0.1254139 -0.1254294 -0.1254476 -0.1254696
 -0.1254926 -0.1255159 -0.1255372 -0.1255554 -0.1255708 -0.1255834 -0.1255955 -0.1256076 -0.1256215 -0.1256376
 -0.1256557 -0.1256757 -0.125696 -0.1257164 -0.1257353 -0.1257526 -0.1257676 -0.1257805 -0.1257918 -0.1258018
 -0.1258114 -0.1258209 -0.1258314 -0.1258429 -0.1258558 -0.1258701 -0.1258855 -0.1259022 -0.12592 -0.1259395
 -0.1259611 -0.1259838 -0.1260082 -0.1260312 -0.1260527 -0.1260698 -0.1260822 -0.1260908 -0.1260956 -0.1261005
 -0.1261054 -0.1261134 -0.1261244 -0.1261383 -0.1261548 -0.1261724 -0.1261908 -0.1262085 -0.1262252 -0.12624
 -0.1262533 -0.1262649 -0.1262762 -0.1262879 -0.1263012 -0.1263171 -0.1263354 -0.1263562 -0.1263781 -0.1264007
 -0.1264231 -0.1264447 -0.1264665 -0.1264883 -0.1265106 -0.1265334 -0.1265547 -0.1265744 -0.1265895 -0.1266005
 -0.126607 -0.1266098 -0.1266121 -0.1266143 -0.1266194 -0.1266269 -0.1266375 -0.1266503 -0.1266646 -0.1266801
 -0.1266961 -0.1267126 -0.1267295 -0.1267466 -0.1267636 -0.12678 -0.1267956 -0.1268104 -0.1268242 -0.1268382
 -0.1268525 -0.1268682 -0.1268854 -0.1269035 -0.1269225 -0.126941 -0.1269589 -0.126976 -0.1269927 -0.1270102
 -0.1270283 -0.1270474 -0.1270666 -0.1270842 -0.1270997 -0.1271114 -0.1271207 -0.1271278 -0.1271351 -0.1271442
 -0.1271557 -0.1271706 -0.1271871 -0.1272049 -0.1272224 -0.1272391 -0.1272554 -0.1272712 -0.1272876 -0.1273046
 -0.127322 -0.1273398 -0.1273568 -0.1273729 -0.1273878 -0.1274018 -0.1274156 -0.1274294 -0.1274441 -0.1274596
 -0.1274756 -0.1274917 -0.1275073 -0.127522 -0.1275353 -0.1275478 -0.1275596 -0.1275714 -0.1275839 -0.1275966
 -0.1276098 -0.1276218 -0.1276324 -0.1276407 -0.1276466 -0.1276522 -0.1276574 -0.1276657 -0.1276769 -0.1276916
 -0.1277091 -0.1277259 -0.1277414 -0.1277519 -0.127758 -0.1277592 -0.1277568 -0.1277527 -0.1277477 -0.1277432
 -0.1277393 -0.127736 -0.127734 -0.1277332 -0.1277344 -0.127738 -0.1277434 -0.1277511 -0.1277588 -0.1277663
 -0.1277708 -0.1277722 -0.1277692 -0.1277619 -0.1277516 -0.1277387 -0.1277258 -0.127713 -0.1277021 -0.127693
 -0.1276858 -0.12768 -0.1276748 -0.1276697 -0.1276634 -0.1276554 -0.1276443 -0.1276308 -0.1276144 -0.1275973
 -0.1275805 -0.1275659 -0.1275548 -0.1275465 -0.1275416 -0.1275371 -0.1275326 -0.1275255 -0.1275155 -0.1275019
 -0.1274847 -0.1274642 -0.1274406 -0.1274149 -0.1273873 -0.1273594 -0.1273315 -0.127306 -0.1272829 -0.1272642
 -0.1272493 -0.1272381 -0.1272295 -0.1272218 -0.127214 -0.1272047 -0.1271934 -0.1271796 -0.1271635 -0.1271453
 -0.1271248 -0.1271023 -0.127077 -0.1270487 -0.1270177 -0.126984 -0.1269494 -0.1269142 -0.126881 -0.1268498
 -0.1268219 -0.1267969 -0.126774 -0.1267527 -0.1267314 -0.12671 -0.1266875 -0.1266639 -0.1266386 -0.1266116
 -0.1265829 -0.126553 -0.1265225 -0.1264916 -0.1264608 -0.1264299 -0.1263988 -0.1263672 -0.126335 -0.1263027
 -0.1262706 -0.1262382 -0.1262055 -0.1261711 -0.1261348 -0.1260969 -0.1260575 -0.1260181 -0.1259785 -0.1259381
 -0.1258967 -0.125852 -0.1258047 -0.1257552 -0.1257046 -0.1256559 -0.1256088 -0.1255648 -0.1255216 -0.125478
 -0.1254323 -0.1253825 -0.1253291 -0.1252716 -0.1252119 -0.1251504 -0.1250889 -0.125028 -0.1249679 -0.1249088
 -0.1248498 -0.1247909 -0.124731 -0.1246702 -0.1246084 -0.1245457 -0.1244826 -0.1244193 -0.1243568 -0.1242955
 -0.124237 -0.1241808 -0.1241271 -0.1240743 -0.1240205 -0.1239643 -0.1239034 -0.1238385 -0.1237693 -0.1236978
 -0.1236248 -0.1235516 -0.123479 -0.1234063 -0.1233336 -0.1232597 -0.1231845 -0.1231072 -0.1230277 -0.122947
 -0.1228651 -0.1227837 -0.122703 -0.1226239 -0.1225461 -0.1224695 -0.1223934 -0.122316 -0.1222364 -0.1221517
 -0.1220624 -0.121967 -0.1218684 -0.1217684 -0.1216695 -0.1215746 -0.1214824 -0.1213936 -0.1213057 -0.1212182
 -0.12113 -0.1210411 -0.1209509 -0.1208593 -0.1207647 -0.1206669 -0.1205652 -0.1204597 -0.1203519 -0.1202421
 -0.1201316 -0.1200204 -0.1199092 -0.1197976 -0.1196859 -0.1195735 -0.1194597 -0.1193439 -0.1192252 -0.1191033
 -0.1189777 -0.1188483 -0.1187147 -0.118577 -0.1184343 -0.1182887 -0.1181403 -0.1179928 -0.117847 -0.1177037
 -0.1175636 -0.117423 -0.1172814 -0.1171369 -0.1169894 -0.1168412 -0.1166923 -0.1165444 -0.1163967 -0.116246
 -0.1160912 -0.1159271 -0.1157541 -0.1155697 -0.1153763 -0.1151759 -0.114971 -0.114765 -0.1145583 -0.1143523
 -0.1141456 -0.1139376 -0.1137288 -0.1135188 -0.1133106 -0.113105 -0.1129031 -0.1127059 -0.1125089 -0.112312
 -0.1121063 -0.1118913 -0.1116581 -0.1114071 -0.1111369 -0.1108495 -0.1105541 -0.1102519 -0.1099524 -0.1096532
 -0.1093549 -0.1090535 -0.1087435 -0.1084234 -0.1080893 -0.1077429 -0.1073839 -0.1070141 -0.1066345 -0.1062449
 -0.1058462 -0.1054345 -0.1050096 -0.1045654 -0.1041006 -0.1036168 -0.1031135 -0.1026036 -0.1020876 -0.1015752
 -0.1010656 -0.1005557 -0.1000453 -0.09953129 -0.09901552 -0.09850365 -0.09799404 -0.09748849 -0.09697822 -0.09645097
 -0.0959006 -0.09531301 -0.09469618 -0.09404987 -0.09338693 -0.09271564 -0.0920357 -0.09135015 -0.09065002 -0.08993334
 -0.0891969 -0.08844005 -0.08766147 -0.08686189 -0.08602369 -0.0851457 -0.08419292 -0.08316515 -0.08204501 -0.08083918
 -0.07957453 -0.0782551 -0.0769129 -0.07553659 -0.07411885 -0.07264403 -0.07108296 -0.06943304 -0.06767873 -0.06582809
 -0.06388377 -0.06184744 -0.05972162 -0.05750249 -0.05518511 -0.05278612 -0.05030317 -0.04778109 -0.04522486 -0.04267577
 -0.04013839 -0.03762938 -0.03514959 -0.03270003 -0.03027851 -0.02786574 -0.02545277 -0.02298197 -0.02044532 -0.01777337
 -0.01499273 -0.01211339 -0.009199961 -0.006363621 -0.003626957 -0.001072161 0.001350484 0.003651097 0.005876698 0.008062893
 0.01020126 0.01230041 0.01432843 0.01627685 0.01813884 0.01991138 0.02160053 0.02320685 0.02472899 0.02616697
 0.0275291 0.02881616 0.03004227 0.03120466 0.03229468 0.0333096 0.0342304 0.03506784 0.03583243 0.03654593
 0.03724932 0.03795049 0.03868058 0.03941812 0.04015608 0.04087833 0.0415686 0.0422422 0.0429019 0.04355753
 0.04421698 0.0448554 0.04547151 0.04603363 0.04653772 0.04697893 0.04735688 0.04768289 0.04795697 0.04818242
 0.04835802 0.0484774 0.04854131 0.048548 0.04850113 0.04840679 0.04827159 0.04810607 0.04792244 0.04773579
 0.04756177 0.04741623 0.04731129 0.04725622 0.04726129 0.04733025 0.04747727 0.04770688 0.04802552 0.04843712
 0.04892574 0.04949094 0.05010908 0.05077885 0.05149139 0.05224679 0.0530451 0.05388545 0.05476265 0.05567494
 0.05661336 0.05757654 0.05855707 0.05955398 0.06056197 0.06158195 0.06261232 0.06365617 0.06471543 0.06579243
 0.06688891 0.06800626 0.069145 0.07030752 0.07149503 0.07270629 0.07394211 0.07519493 0.07646456 0.07773938
 0.07901879 0.08028459 0.08153533 0.08274694 0.08391865 0.0850348 0.08609375 0.08708577 0.0879997 0.08880628
 0.08949029 0.09000985 0.09036575 0.09054098 0.09054577 0.09038428 0.09006038 0.08957609 0.08893802 0.08815025
 0.0872127 0.08613452 0.08486746 0.08341021 0.08168234 0.07967108 0.07737881 0.0748039 0.0720771 0.06920315
 0.06627827 0.06329209 0.06022186 0.05706062 0.05376497 0.05034779 0.04681738 0.04319266 0.03951582 0.03578178
 0.0320088 0.02816434 0.02421644 0.02017873 0.01602132 0.01186974 0.007760441 0.003807222 6.31209E-05 -0.003499161
 -0.006871283 -0.01012781 -0.01327914 -0.01633222 -0.01928854 -0.02210966 -0.02479518 -0.02733441 -0.02973144 -0.03200957
 -0.03417042 -0.03623302 -0.03819482 -0.0400574 -0.04182152 -0.04348642 -0.04506095 -0.04655379 -0.04797708 -0.04934453
 -0.05066139 -0.05193484 -0.05316465 -0.05434953 -0.05550062 -0.05661844 -0.05772386 -0.05882405 -0.05990833 -0.06097973
 -0.06198427 -0.06291859 -0.06375103 -0.06448241 -0.06512926 -0.06569317 -0.06619363 -0.06662808 -0.06699573 -0.06729522
 -0.06752181 -0.06767745 -0.06776437 -0.06778216 -0.06773167 -0.06761088 -0.06741719 -0.06715293 -0.06681808 -0.06641728
 -0.06595328 -0.06542543 -0.06483518 -0.06417542 -0.0634459 -0.06263605 -0.06174562 -0.06075701 -0.05966933 -0.05845543
 -0.05711508 -0.05564042 -0.05404046 -0.05237339 -0.05065481 -0.04898355 -0.04736021 -0.04583999 -0.04440813 -0.04306165
 -0.04179096 -0.04058344 -0.03943115 -0.03833046 -0.03725172 -0.036181 -0.03507996 -0.03392171 -0.03271693 -0.03145362
 -0.03019841 -0.02896326 -0.02778565 -0.02667528 -0.02560603 -0.02457714 -0.02355138 -0.02252802 -0.02149805 -0.02046362
 -0.01943754 -0.01842038 -0.01742301 -0.01644064 -0.0154676 -0.01449488 -0.01350266 -0.01248589 -0.01142719 -0.01033328
 -0.009203141 -0.008047011 -0.006872447 -0.005680671 -0.004473493 -0.003252089 -0.002013686 -0.0007766656 0.0004584888 0.001661054
 0.002828002 0.003931881 0.004970718 0.005922766 0.006786585 0.007536137 0.008168952 0.008653568 0.008988374 0.00914925
 0.009136856 0.008941315 0.008562366 0.007995832 0.00723908 0.006286076 0.005137622 0.003789299 0.002252446 0.000529258
 -0.001358494 -0.003403607 -0.005580492 -0.007881441 -0.01028494 -0.01278636 -0.01536901 -0.01803225 -0.02074692 -0.02351211
 -0.02627139 -0.02902152 -0.03169987 -0.03430567 -0.03680481 -0.03919948 -0.04148261 -0.04365332 -0.04570591 -0.04763744
 -0.04943713 -0.05110944 -0.052652 -0.05408119 -0.05540808 -0.05665594 -0.05784072 -0.05898484 -0.0601017 -0.0612049
 -0.06230291 -0.06339334 -0.06447908 -0.06554286 -0.06658342 -0.06758232 -0.06853793 -0.06944203 -0.07029423 -0.07109114
 -0.0718316 -0.07250466 -0.07310809 -0.0736247 -0.07405513 -0.07439051 -0.07463685 -0.07480039 -0.07489012 -0.07491975
 -0.07489923 -0.07484149 -0.07475693 -0.07465462 -0.07454556 -0.07443523 -0.07433633 -0.07425239 -0.07419833 -0.07417755
 -0.07420094 -0.07427118 -0.0743867 -0.07454816 -0.07474063 -0.07496315 -0.07519422 -0.07543238 -0.07565632 -0.07586443
 -0.07603826 -0.07617605 -0.07626282 -0.07629801 -0.0762721 -0.07618882 -0.07604728 -0.07585745 -0.07562694 -0.07536882
 -0.07509339 -0.07481126 -0.07452973 -0.07425467 -0.07398926 -0.07373667 -0.07349813 -0.07327478 -0.07306722 -0.07287312
 -0.07269247 -0.07252052 -0.07235708 -0.07219861 -0.07204542 -0.07189835 -0.07175858 -0.0716318 -0.07151994 -0.07143154
 -0.07136872 -0.07133943 -0.07134631 -0.0713957 -0.07149148 -0.07163936 -0.07184315 -0.0721082 -0.0724328 -0.07282002
 -0.07325742 -0.07374449 -0.07425856 -0.07479662 -0.07533167 -0.0758603 -0.07635903 -0.0768256 -0.07724579 -0.07761895
 -0.07794092 -0.07821221 -0.07843584 -0.07861283 -0.07874971 -0.0788474 -0.07891206 -0.07894436 -0.07894839 -0.07892519
 -0.0788776 -0.07880748 -0.07871757 -0.07860961 -0.07848577 -0.07834647 -0.07819247 -0.07802361 -0.07783983 -0.07764162
 -0.07742901 -0.07720274 -0.0769628 -0.07671063 -0.07644611 -0.07617451 -0.07589614 -0.07562093 -0.07534938 -0.07509091
 -0.07484508 -0.07461505 -0.07439915 -0.07419374 -0.07399752 -0.07380549 -0.07361832 -0.07343436 -0.07325596 -0.07308511
 -0.07292304 -0.07277196 -0.07263002 -0.07249729 -0.07237051 -0.07224836 -0.07212975 -0.07201363 -0.07190298 -0.07179777
 -0.07170316 -0.07161963 -0.07155046 -0.07149579 -0.0714547 -0.07142703 -0.07141056 -0.07140578 -0.07141384 -0.0714362
 -0.07147829 -0.07154118 -0.0716302 -0.07174481 -0.07188714 -0.07205442 -0.07224527 -0.07245512 -0.07268105 -0.07291695
 -0.07315973 -0.07340273 -0.0736436 -0.07387549 -0.07409677 -0.07430103 -0.07448715 -0.0746507 -0.074791 -0.07490833
 -0.0750027 -0.07507928 -0.07513835 -0.07518516 -0.07521902 -0.07523938 -0.07524423 -0.07522666 -0.07518492 -0.07511128
 -0.07500593 -0.07486557 -0.07469149 -0.07448409 -0.07424379 -0.07397113 -0.07366593 -0.073328 -0.0729581 -0.07255623
 -0.07212397 -0.0716617 -0.07117043 -0.07065023 -0.07010262 -0.06952751 -0.06892961 -0.06830918 -0.06767526 -0.06702871
 -0.06638192 -0.06573651 -0.06510741 -0.06449685 -0.06392051 -0.06337973 -0.06288601 -0.06243791 -0.0620391 -0.06168515
 -0.06137299 -0.06109766 -0.06085444 -0.06063999 -0.06045159 -0.06028657 -0.06014412 -0.06001953 -0.05991243 -0.05981467
 -0.05972552 -0.0596347 -0.05954142 -0.05943532 -0.05931578 -0.05917351 -0.05900805 -0.05881139 -0.05858305 -0.05831616
 -0.05801064 -0.05766205 -0.05727174 -0.05683975 -0.05636973 -0.05586658 -0.05533611 -0.05478567 -0.05422269 -0.05365447
 -0.05308864 -0.05253119 -0.05198648 -0.05145802 -0.05094499 -0.05044815 -0.04996421 -0.04949268 -0.04903187 -0.04858149
 -0.04814165 -0.04771237 -0.04729342 -0.04688477 -0.04648588 -0.04609681 -0.04571761 -0.0453485 -0.04499007 -0.04464296
 -0.0443088 -0.04398859 -0.04368475 -0.04339769 -0.04312954 -0.0428781 -0.04264355 -0.0424199 -0.04220533 -0.04199017
 -0.04177162 -0.04153792 -0.04128616 -0.04100578 -0.04069474 -0.04034564 -0.03995765 -0.03952478 -0.03904669 -0.03851444
 -0.03792743 -0.03727465 -0.03655635 -0.0357673 -0.03491097 -0.03399539 -0.03302879 -0.03203287 -0.03102049 -0.03002063
 -0.02904948 -0.02813517 -0.02729519 -0.02655189 -0.02591899 -0.02541108 -0.02503129 -0.02478673 -0.02466539 -0.02466858
 -0.02476979 -0.0249669 -0.02522528 -0.02554181 -0.0258838 -0.02624906 -0.02661438 -0.02697894 -0.0273283 -0.02766198
 -0.02796966 -0.02825094 -0.02849853 -0.02871273 -0.02889066 -0.02903272 -0.02913817 -0.02920787 -0.02924142 -0.02924309
 -0.0292143 -0.02916502 -0.02909958 -0.02903137 -0.02896551 -0.02891519 -0.02888373 -0.02888497 -0.02892091 -0.02900664
 -0.0291438 -0.029345 -0.02961123 -0.02994662 -0.03035065 -0.03081444 -0.03133551 -0.03189286 -0.03248308 -0.0330811
 -0.03368534 -0.03427825 -0.03486161 -0.03543009 -0.03598719 -0.03653448 -0.03707679 -0.03761666 -0.03816446 -0.03872359
 -0.03931367 -0.03994081 -0.04062915 -0.04138654 -0.04222785 -0.04315912 -0.04417337 -0.04527263 -0.04642607 -0.0476323
 -0.04884779 -0.05007023 -0.05125833 -0.05241078 -0.05349856 -0.05452191 -0.0554657 -0.05633187 -0.05711651 -0.05782466
 -0.05846174 -0.05903716 -0.05956359 -0.06005202 -0.06051677 -0.06096325 -0.06140041 -0.06182382 -0.0622348 -0.06262403
 -0.06298914 -0.06332359 -0.06362563 -0.06389298 -0.06412512 -0.06432156 -0.06448218 -0.0646084 -0.06470043 -0.06476283
 -0.06479608 -0.06480603 -0.06479306 -0.06476193 -0.06471253 -0.06464722 -0.06456508 -0.06446555 -0.06434773 -0.06420933
 -0.06405247 -0.06387647 -0.06368899 -0.06349283 -0.06329973 -0.06311462 -0.06294797 -0.06280433 -0.06268676 -0.06259764
 -0.06253067 -0.06248622 -0.06245062 -0.06242315 -0.06238814 -0.06234484 -0.06228093 -0.06219653 -0.06208641 -0.06195227
 -0.06179786 -0.06162646 -0.0614488 -0.06126812 -0.06109589 -0.06093325 -0.06078716 -0.06065526 -0.06053873 -0.06043196
 -0.06033257 -0.06023348 -0.06013146 -0.06002043 -0.05989784 -0.05976098 -0.05960833 -0.05944269 -0.05926373 -0.05907894
 -0.05888878 -0.05870017 -0.05851332 -0.05833015 -0.05815061 -0.05797463 -0.05780327 -0.05764113 -0.05748975 -0.05735686
 -0.05724102 -0.05714448 -0.05706144 -0.05698541 -0.05691047 -0.05682795 -0.05673688 -0.05663326 -0.05652061 -0.05639974
 -0.05627297 -0.05614232 -0.05600334 -0.05585635 -0.05569182 -0.0555086 -0.05529931 -0.05506307 -0.05480054 -0.05451198
 -0.05420512 -0.05388077 -0.05354919 -0.05321112 -0.0528753 -0.05254211 -0.05221717 -0.0519006 -0.05159521 -0.05130102
 -0.0510194 -0.05074955 -0.05049174 -0.05024342 -0.0500034 -0.04976847 -0.04953692 -0.04930674 -0.04907696 -0.04884659
 -0.04861519 -0.04838286 -0.04814923 -0.04791737 -0.04768733 -0.04746509 -0.04725094 -0.04705019 -0.04686279 -0.04669077
 -0.04653346 -0.04638925 -0.04625633 -0.04612898 -0.04600455 -0.0458748 -0.04573829 -0.045589 -0.04542802 -0.04525413
 -0.0450692 -0.04487435 -0.04467016 -0.04445746 -0.04423523 -0.04400336 -0.04376074 -0.04350674 -0.04324297 -0.04296906
 -0.0426913 -0.04241005 -0.04213239 -0.04185854 -0.04158834 -0.04132099 -0.04104849 -0.04077022 -0.04047846 -0.04017426
 -0.03985631 -0.03952708 -0.03919062 -0.03885011 -0.03851153 -0.03817796 -0.03785472 -0.03754339 -0.03724726 -0.03696473
 -0.03669681 -0.036438 -0.03618757 -0.03593753 -0.03568621 -0.03542727 -0.03515931 -0.0348813 -0.03459281 -0.03429837
 -0.03399824 -0.0336981 -0.03339799 -0.03310074 -0.03280579 -0.03251172 -0.03221802 -0.03192176 -0.03162394 -0.03132439
 -0.03102647 -0.03073441 -0.03045289 -0.03018822 -0.02994355 -0.02972415 -0.02952754 -0.02935611 -0.02919817 -0.02905201
 -0.0289012 -0.02874141 -0.0285641 -0.0283663 -0.02815391 -0.02792694 -0.02769509 -0.02745876 -0.02721797 -0.02697198
 -0.02671244 -0.02643897 -0.02614473 -0.02583092 -0.02549705 -0.0251463 -0.02478374 -0.02441597 -0.0240532 -0.02370587
 -0.02338821 -0.02310877 -0.02288047 -0.02269956 -0.02257149 -0.02247553 -0.02240804 -0.02234326 -0.0222741 -0.0221876
 -0.02207989 -0.02195315 -0.02180706 -0.02164667 -0.02147223 -0.02128653 -0.02108999 -0.02088818 -0.02068158 -0.0204764
 -0.0202715 -0.02006621 -0.01985934 -0.0196468 -0.01943072 -0.01921241 -0.01899441 -0.01878156 -0.01857039 -0.01836132
 -0.01814606 -0.01792013 -0.01767922 -0.01741924 -0.01714569 -0.01685772 -0.01656828 -0.01627885 -0.01600174 -0.01573853
 -0.01549218 -0.01526287 -0.01504558 -0.01484005 -0.01464164 -0.01445055 -0.01426583 -0.01408711 -0.01391292 -0.01374188
 -0.0135703 -0.01339655 -0.01321701 -0.01302923 -0.01282966 -0.01261524 -0.01238242 -0.0121299 -0.01185537 -0.01156136
 -0.01124697 -0.01092041 -0.01058208 -0.01024608 -0.009914354 -0.009599357 -0.009303091 -0.009024005 -0.008762106 -0.008503213
 -0.008246741 -0.00798115 -0.007707432 -0.007425335 -0.00713668 -0.006847633 -0.006559523 -0.006278493 -0.006005072 -0.005743113
 -0.005491785 -0.005251571 -0.005021697 -0.004801548 -0.004591151 -0.00439085 -0.004198886 -0.004015791 -0.003835217 -0.003655915
 -0.003472165 -0.003282449 -0.003086827 -0.002885087 -0.002679043 -0.002468806 -0.00225157 -0.002026954 -0.001788732 -0.001536975
 -0.001268396 -0.000984561 -0.0006891405 -0.000384178 -7.743018E-05 0.0002325025 0.0005438483 0.0008601757 0.001187547 0.001520407
 0.00185906 0.002189288 0.002500131 0.002794312 0.003061888 0.003345912 0.003653381 0.004029242 0.004490286 0.004998826
 0.005556289 0.006080572 0.00656672 0.006980633 0.00732289 0.00759864 0.00780924 0.007965504 0.008066905 0.008116916
 0.00811478 0.008058968 0.007952532 0.00779803 0.007603565 0.007378832 0.00713227 0.006873735 0.00660861 0.006341401
 0.006078646 0.005822349 0.005582844 0.005362818 0.005170847 0.00500947 0.004878538 0.004778882 0.00470212 0.004647857
 0.004604735 0.004572131 0.00453957 0.004506062 0.004460593 0.004401119 0.004313719 0.004197334 0.00403939 0.003847103
 0.003622391 0.003385438 0.003160343 0.002964864 0.002828475 0.002738084 0.00270128 0.002677906 0.002653562 0.002601467
 0.002506796 0.002382424 0.002224668 0.002074044 0.001934062 0.001839734 0.001793779 0.001801313 0.001861266 0.001953961
 0.002077633 0.002210642 0.002353144 0.002493897 0.002634821 0.002774575 0.002916366 0.003065363 0.003223557 0.003396787
 0.003581857 0.00377948 0.003981758 0.0041846 0.004381348 0.004568392 0.004742153 0.004901568 0.005041895 0.005162592
 0.005257163 0.005324587 0.005363146 0.005372483 0.005360038 0.005326566 0.005286 0.005239492 0.005201911 0.005173732
 0.005165926 0.005175982 0.005204847 0.005245137 0.005284593 0.005315855 0.005321897 0.00530723 0.00526614 0.005216759
 0.005168604 0.005133846 0.0051232 0.005127534 0.005147127 0.00516901 0.005188814 0.00521256 0.005239695 0.005285132
 0.005350106 0.005434399 0.005537478 0.005646835 0.0057623 0.00587718 0.005991824 0.006105126 0.00621534 0.006317262
 0.006408964 0.006483517 0.006542506 0.006584461 0.006613357 0.006631866 0.006644146 0.00665355 0.00666235 0.006673272
 0.006683037 0.006692365 0.006692522 0.006682233 0.006653616 0.006605336 0.006535302 0.006443164 0.006331526 0.006200746
 0.006058403 0.00590541 0.005752725 0.005600267 0.005454109 0.005312316 0.005172418 0.005033236 0.004890531 0.00474618
 0.004600628 0.004456571 0.004316557 0.004182616 0.004056243 0.003940315 0.00383612 0.003746669 0.003673671 0.003615931
 0.003574212 0.003542274 0.003519556 0.003500435 0.0034844 0.003469888 0.003456866</values></Ydata></AB><ScSm><Ydata ylabel="Single channel"><values byteorder="INTEL" format="FLOAT32" numvalues="1814"> 0.08611324 0.08622509 0.08635275 0.08650122 0.08666465 0.0868299 0.08698349 0.08711978 0.0872405 0.08734637
 0.08743882 0.08753289 0.08765362 0.0878119 0.08799063 0.08815745 0.08828822 0.0883866 0.08848593 0.08861825
 0.08877067 0.08888337 0.08890466 0.08884664 0.08877923 0.08876815 0.08883245 0.08897704 0.0892303 0.08957831
 0.0898764 0.08994275 0.08978289 0.08962055 0.0896498 0.08984164 0.09003507 0.09011605 0.0900617 0.08992694
 0.08987091 0.09010768 0.09071188 0.09145922 0.09189588 0.09160127 0.09046781 0.08885208 0.08749 0.08711307
 0.0879209 0.08935946 0.09053569 0.09093761 0.09071227 0.09028682 0.08992329 0.08970948 0.08975357 0.09016597
 0.09087857 0.09157304 0.09180363 0.09128723 0.09022178 0.08925515 0.08895813 0.08938062 0.09024438 0.09128223
 0.09199084 0.09137972 0.08884549 0.08550277 0.08383955 0.08541988 0.08924657 0.09279822 0.09432568 0.09377888
 0.09207813 0.09030087 0.08939679 0.08986291 0.09141997 0.09329127 0.09482031 0.09564473 0.09553272 0.09449293
 0.09299257 0.09175746 0.09136529 0.09207985 0.09374909 0.09564144 0.096733 0.09651193 0.09536413 0.09407236
 0.09323834 0.0932482 0.09430069 0.096173 0.09824231 0.09994535 0.1010714 0.1016387 0.1017551 0.1015943
 0.1013122 0.1010272 0.1009379 0.1012196 0.1016829 0.1018141 0.1013466 0.100622 0.1002451 0.1004614
 0.1009471 0.1012008 0.1010393 0.1005074 0.09937228 0.09723683 0.09435594 0.09176289 0.09026278 0.08986957
 0.09046067 0.09211762 0.09433271 0.09576594 0.09559137 0.0946095 0.09438151 0.09554097 0.09739512 0.09893732
 0.09982714 0.1004442 0.1012942 0.1024361 0.1033403 0.1032787 0.1020662 0.1005221 0.09992787 0.1007903
 0.1023504 0.1035172 0.1040142 0.1043504 0.1049176 0.1054201 0.1051311 0.1036734 0.1016709 0.1005293
 0.1012763 0.1035458 0.1057706 0.1063669 0.1048589 0.1021343 0.0997012 0.0986058 0.09902422 0.1006907
 0.1032702 0.1061994 0.1085975 0.1097117 0.1094358 0.1082925 0.1068624 0.1052424 0.10325 0.1012666
 0.1004626 0.1017043 0.1044434 0.107152 0.1087336 0.1091336 0.1087217 0.1075507 0.1054507 0.1027887
 0.1008084 0.1007098 0.1022837 0.1039639 0.1044917 0.1040919 0.1037606 0.103903 0.1041129 0.1040064
 0.1037946 0.1039818 0.1047211 0.1056193 0.1061531 0.1061512 0.1058326 0.1054984 0.1052474 0.1049189
 0.1043394 0.1037042 0.1035649 0.1042461 0.1054087 0.106391 0.1068631 0.106957 0.1068648 0.1065165
 0.1057047 0.1044942 0.1034159 0.1030894 0.1036207 0.104524 0.1052394 0.1055491 0.1055169 0.105276
 0.1049407 0.1045801 0.1042317 0.1039767 0.1039257 0.1040719 0.1042492 0.1042966 0.1041878 0.1039729
 0.1036736 0.1032858 0.1028444 0.1024449 0.1021846 0.1020844 0.102084 0.1021042 0.1020813 0.1019574
 0.1017014 0.1013485 0.1009764 0.1006362 0.1003361 0.1000813 0.09988947 0.09975883 0.09964921 0.09950894
 0.09931551 0.09908047 0.09882107 0.09854314 0.09825262 0.09796821 0.09771615 0.0975148 0.0973582 0.09721825
 0.09707852 0.096957 0.09686686 0.09676932 0.09660582 0.0963726 0.09612785 0.09592849 0.09578717 0.09568281
 0.09558453 0.09546142 0.09528796 0.09506153 0.09482405 0.09464967 0.09458958 0.09463353 0.09473406 0.09484601
 0.09493157 0.09496225 0.09494108 0.09490122 0.09486648 0.09483065 0.09478122 0.0947277 0.09470198 0.09473464
 0.09482452 0.09493287 0.0950157 0.095056 0.09506206 0.09505697 0.09507456 0.09513244 0.09519872 0.09521829
 0.0951835 0.09514877 0.09516453 0.09522085 0.09526716 0.09527038 0.09524348 0.09522299 0.09522892 0.09525141
 0.09527216 0.09528792 0.09531032 0.09534638 0.09538047 0.09537917 0.09532426 0.09523909 0.0951679 0.09513116
 0.09511755 0.09511606 0.09513277 0.09517203 0.09521881 0.0952503 0.09526025 0.09526446 0.09528005 0.09530294
 0.09531315 0.09530155 0.09528189 0.09527412 0.09528492 0.09530698 0.09532861 0.09534056 0.09533814 0.09532119
 0.09529285 0.09525685 0.09521484 0.09516874 0.09512921 0.09511505 0.09513127 0.0951484 0.09511965 0.09502506
 0.09489104 0.09476365 0.0946685 0.09459849 0.09453081 0.09444995 0.09435728 0.09426503 0.09418412 0.0941169
 0.09405918 0.09400747 0.09396593 0.0939469 0.09396087 0.09400148 0.09404314 0.09406136 0.09405596 0.09404932
 0.09406269 0.09409966 0.09415166 0.0942125 0.09428567 0.09438011 0.094497 0.09462078 0.09473072 0.09482402
 0.09491979 0.09503868 0.09518659 0.09535784 0.09554042 0.09571609 0.09587032 0.09600945 0.0961578 0.09633186
 0.09652551 0.09672491 0.0969288 0.09714638 0.09738272 0.09763493 0.09790108 0.09818533 0.09849266 0.09882165
 0.09916328 0.09950684 0.09984943 0.1002009 0.1005774 0.1009862 0.101419 0.1018592 0.1022952 0.1027264
 0.1031586 0.1035954 0.1040357 0.1044805 0.1049389 0.1054211 0.1059256 0.1064372 0.1069401 0.1074312
 0.1079188 0.1084111 0.1089087 0.1094084 0.1099117 0.1104246 0.1109464 0.1114634 0.1119598 0.1124349
 0.1129034 0.1133815 0.1138749 0.1143772 0.1148707 0.115337 0.1157749 0.116206 0.1166515 0.1171074
 0.1175538 0.1179855 0.1184215 0.1188794 0.1193494 0.1198018 0.1202182 0.120609 0.1209977 0.1213922
 0.1217772 0.1221361 0.1224721 0.1228044 0.1231456 0.1234932 0.1238438 0.1242054 0.1245838 0.1249663
 0.1253294 0.1256629 0.1259749 0.1262761 0.1265686 0.1268505 0.1271229 0.1273913 0.1276645 0.1279475
 0.1282351 0.1285195 0.1288059 0.1291121 0.1294473 0.1298042 0.1301749 0.130564 0.1309756 0.1313978
 0.1318154 0.1322362 0.1326846 0.1331625 0.1336314 0.1340491 0.1344131 0.134756 0.1351057 0.1354721
 0.1358635 0.1362917 0.1367545 0.1372291 0.1376866 0.1381107 0.1385063 0.1388957 0.1392986 0.1397091
 0.1400957 0.1404338 0.1407311 0.1410182 0.1413195 0.141637 0.1419549 0.142252 0.1425112 0.1427183
 0.1428563 0.1429094 0.1428788 0.1427852 0.142645 0.1424459 0.1421539 0.1417424 0.1412052 0.1405432
 0.1397502 0.1388227 0.1377872 0.1367168 0.1357212 0.1349154 0.1343891 0.1341909 0.1343259 0.1347547
 0.135393 0.1361196 0.1367994 0.1373084 0.1375518 0.1374744 0.1370701 0.1363828 0.1354896 0.1344765
 0.1334228 0.1323924 0.1314342 0.1305993 0.1299728 0.129688 0.1298959 0.1307087 0.1321566 0.1341662
 0.1365583 0.1390798 0.1414843 0.1436175 0.1454457 0.1470167 0.1484028 0.1496701 0.1508682 0.1520228
 0.1531333 0.1541843 0.1551641 0.1560712 0.156906 0.1576618 0.1583208 0.1588576 0.1592521 0.159504
 0.1596403 0.1597079 0.1597637 0.159861 0.1600264 0.1602336 0.1604033 0.1604393 0.1602766 0.1599094
 0.1594046 0.1589144 0.1586773 0.1589709 0.1600027 0.1617897 0.1641249 0.1666707 0.169111 0.1712512
 0.1730262 0.1744606 0.1756282 0.1766146 0.1774889 0.1782929 0.1790493 0.1797723 0.1804728 0.1811578
 0.1818298 0.1824881 0.1831335 0.18377 0.1843984 0.1850125 0.1856063 0.1861838 0.1867586 0.1873428
 0.1879356 0.1885258 0.1891051 0.1896765 0.1902474 0.1908156 0.1913699 0.1919033 0.1924215 0.1929375
 0.1934613 0.193995 0.1945311 0.1950563 0.1955605 0.1960428 0.1965101 0.1969695 0.1974254 0.1978803
 0.1983365 0.1987951 0.1992552 0.1997134 0.200166 0.2006115 0.2010489 0.2014762 0.2018934 0.2023054
 0.2027203 0.203142 0.2035673 0.2039912 0.2044136 0.2048406 0.2052794 0.2057299 0.206183 0.2066279
 0.2070623 0.2074924 0.2079249 0.2083603 0.2087959 0.2092309 0.2096665 0.2101022 0.2105364 0.2109689
 0.2114016 0.2118344 0.2122647 0.2126908 0.2131138 0.2135342 0.2139503 0.2143615 0.2147703 0.2151806
 0.2155961 0.2160165 0.2164357 0.2168446 0.21724 0.217627 0.2180127 0.2183999 0.2187886 0.2191784
 0.2195707 0.2199682 0.2203731 0.2207838 0.2211971 0.2216116 0.2220272 0.2224425 0.2228558 0.2232665
 0.2236747 0.2240815 0.2244901 0.2249029 0.2253189 0.2257357 0.226152 0.2265676 0.2269825 0.2273976
 0.227814 0.2282308 0.2286454 0.2290562 0.2294657 0.2298789 0.2302986 0.2307209 0.2311381 0.231547
 0.2319502 0.2323522 0.2327568 0.2331664 0.2335798 0.2339939 0.2344062 0.2348175 0.2352275 0.2356346
 0.2360359 0.2364296 0.2368178 0.2372072 0.237603 0.2380039 0.2384064 0.2388093 0.2392112 0.239609
 0.2400021 0.2403929 0.2407831 0.2411747 0.2415708 0.2419715 0.2423731 0.2427726 0.2431697 0.2435655
 0.2439634 0.2443664 0.244773 0.2451794 0.245587 0.2459997 0.2464171 0.2468364 0.2472567 0.2476774
 0.2480974 0.2485173 0.2489372 0.2493549 0.2497691 0.25018 0.2505857 0.250984 0.2513795 0.2517789
 0.2521826 0.2525875 0.2529924 0.2533968 0.2538011 0.2542092 0.2546236 0.2550425 0.2554645 0.2558908
 0.2563197 0.2567488 0.2571794 0.2576106 0.2580369 0.2584583 0.2588826 0.2593134 0.2597469 0.2601809
 0.2606152 0.261049 0.2614833 0.26192 0.2623551 0.2627858 0.2632184 0.2636594 0.2641069 0.2645562
 0.2650031 0.2654408 0.2658673 0.2662923 0.2667243 0.2671618 0.2676052 0.2680572 0.2685105 0.2689549
 0.2693911 0.2698238 0.2702526 0.2706824 0.2711226 0.2715729 0.2720266 0.2724816 0.2729334 0.2733732
 0.2738021 0.2742302 0.2746578 0.275081 0.2755042 0.2759285 0.2763482 0.2767657 0.2771854 0.2775915
 0.2779506 0.2781985 0.2781647 0.2774801 0.275526 0.2714517 0.2643454 0.2535975 0.2392679 0.2221884
 0.2037316 0.1853838 0.1683416 0.1533521 0.1408098 0.1309183 0.1237988 0.1195884 0.1185203 0.1210368
 0.1279351 0.1398979 0.1557651 0.1710322 0.1795225 0.1780552 0.1693259 0.1594627 0.1530308 0.150777
 0.1511641 0.1526667 0.1546811 0.1573569 0.1610668 0.1658607 0.1714132 0.1775593 0.1846075 0.1928745
 0.202078 0.2114374 0.2203288 0.2286926 0.2368088 0.2448111 0.2524909 0.2594991 0.2656161 0.2708293
 0.2752672 0.279115 0.2825403 0.2856538 0.288526 0.2911945 0.2936159 0.2956419 0.2971045 0.2979494
 0.2983016 0.2984076 0.2984986 0.2986897 0.2989949 0.2994038 0.2999124 0.3005098 0.301178 0.3018983
 0.3026482 0.3034058 0.3041621 0.3049135 0.3056476 0.3063526 0.307026 0.3076661 0.308269 0.3088392
 0.3093864 0.3099146 0.310428 0.3109354 0.3114417 0.311944 0.3124402 0.3129275 0.3133969 0.3138401
 0.3142568 0.3146509 0.3150284 0.3154001 0.3157737 0.316147 0.316516 0.3168812 0.3172427 0.3175988
 0.3179522 0.3183058 0.3186578 0.3190057 0.3193512 0.319694 0.3200326 0.3203693 0.3207072 0.3210458
 0.3213856 0.3217307 0.3220827 0.322437 0.3227885 0.3231341 0.3234774 0.323832 0.3242103 0.3246057
 0.3249985 0.3253794 0.3257549 0.3261332 0.3265172 0.3269072 0.327301 0.3276964 0.3280933 0.3284898
 0.3288747 0.3292351 0.3295678 0.3298819 0.3301947 0.3305224 0.3308687 0.3312229 0.3315737 0.3319207
 0.332269 0.3326203 0.3329734 0.3333266 0.3336805 0.3340427 0.3344228 0.3348207 0.3352267 0.3356355
 0.336049 0.3364663 0.3368857 0.3373087 0.3377321 0.338143 0.3385322 0.3389108 0.3393051 0.3397379
 0.3402097 0.3406954 0.3411646 0.341609 0.3420435 0.3424869 0.3429484 0.3434185 0.3438603 0.3442355
 0.34456 0.3449127 0.345363 0.3459027 0.3464651 0.3469939 0.3474799 0.3479421 0.3483947 0.3488344
 0.3492469 0.3496227 0.3499744 0.3503471 0.3507926 0.351317 0.3518664 0.3523819 0.3528481 0.3532802
 0.3536932 0.3540962 0.3544767 0.354782 0.3549729 0.355121 0.3553951 0.3559044 0.3565782 0.3572399
 0.3577805 0.3582249 0.3586438 0.3590633 0.3594727 0.359836 0.3600528 0.3600112 0.3597856 0.3597047
 0.3600838 0.3609092 0.3618745 0.3626946 0.363294 0.3637408 0.3641188 0.3644722 0.3647811 0.3649592
 0.3649456 0.3648478 0.3649313 0.3653784 0.3660809 0.3667582 0.3672532 0.3676228 0.3679809 0.3683677
 0.3687285 0.3688933 0.3686519 0.3680396 0.3675251 0.3677052 0.3687292 0.3701305 0.3712937 0.3720008
 0.3724333 0.3727431 0.3728245 0.3725065 0.3717656 0.3707354 0.369757 0.3694263 0.3702073 0.371838
 0.3734355 0.3743776 0.3748381 0.3753413 0.376078 0.3768254 0.3773143 0.3774722 0.3773713 0.3770665
 0.3765693 0.3760366 0.3758824 0.3764837 0.3777432 0.3791112 0.3801044 0.3806888 0.3810591 0.3810782
 0.3801317 0.3778551 0.3750902 0.3736763 0.3748151 0.3778053 0.3808038 0.3826506 0.3835048 0.3839772
 0.3843348 0.384429 0.3836851 0.3812898 0.3772955 0.3735897 0.3727552 0.3755281 0.3799729 0.3833566
 0.3842394 0.3827757 0.3800179 0.3774248 0.3763474 0.377298 0.3797324 0.3826056 0.3850016 0.3863847
 0.3866359 0.3860031 0.3849955 0.384245 0.3841102 0.3841419 0.3833642 0.381544 0.3796473 0.3783546
 0.3768114 0.3740202 0.3710499 0.3703704 0.3727958 0.376313 0.3784225 0.378699 0.3783403 0.3777516
 0.3755634 0.3704356 0.3635324 0.3584843 0.3582779 0.3622804 0.3668689 0.3689854 0.3685533 0.3674537
 0.3668714 0.3660366 0.3633767 0.3587449 0.3542807 0.3524996 0.3534862 0.3547837 0.3541201 0.3510185
 0.3456166 0.338064 0.330356 0.3267382 0.3299523 0.3378058 0.3451047 0.3481441 0.3458791 0.3383644
 0.3270707 0.3164394 0.3118948 0.3148415 0.321014 0.3245919 0.3227922 0.316023 0.305516 0.292745
 0.2805455 0.272754 0.2717624 0.2765986 0.2832224 0.286366 0.2822191 0.2713982 0.2595685 0.2532043
 0.2536205 0.2561947 0.2558712 0.251929 0.2469484 0.243251 0.2415874 0.2416283 0.2423549 0.242826
 0.24288 0.2418794 0.2374167 0.2279584 0.2168398 0.2105025 0.2118277 0.2177897 0.2243533 0.2305326
 0.2361973 0.2391734 0.2375793 0.2336173 0.232189 0.2356672 0.2416336 0.2459579 0.2469678 0.2461101
 0.2452363 0.2443434 0.2425241 0.2404206 0.2402668 0.2431039 0.2471641 0.2498063 0.2501917 0.2492854
 0.2480633 0.2467076 0.2451022 0.2432239 0.2411083 0.2388715 0.2366981 0.2346336 0.2325568 0.2304237
 0.2282061 0.225397 0.2210598 0.2150963 0.2093266 0.2062764 0.2065759 0.2085684 0.2107279 0.2127869
 0.2137073 0.2108413 0.203399 0.1955625 0.1936312 0.1999618 0.2110817 0.2215434 0.228168 0.2304519
 0.2287958 0.2243935 0.2207841 0.2232312 0.2346292 0.2524669 0.2710752 0.2864039 0.2975459 0.3045878
 0.307185 0.305806 0.30308 0.3027691 0.307215 0.3157983 0.3254099 0.331865 0.3317307 0.3252085
 0.3180951 0.318269 0.3278227 0.3402289 0.3475094 0.3485798 0.3481049 0.3490971 0.3503224 0.3503975
 0.3506944 0.3530369 0.3567033 0.3590228 0.3577749 0.3521334 0.3426375 0.331792 0.323683 0.3208277
 0.321525 0.3219211 0.3200366 0.3158589 0.3088967 0.2991808 0.2903076 0.2875373 0.2918032 0.298315
 0.3020327 0.3023695 0.3016683 0.30098 0.2988524 0.2938012 0.2869263 0.2814329 0.2794725 0.2801028
 0.2808362 0.2803504 0.2787182 0.2758527 0.271472 0.2666927 0.2641708 0.2657941 0.2707185 0.2762275
 0.2802529 0.2826536 0.2844163 0.2863764 0.2887536 0.2913134 0.2938091 0.2966105 0.3007345 0.3066769
 0.3133813 0.3191146 0.3233813 0.3272913 0.331944 0.3370546 0.3413975 0.3442046 0.3458948 0.3476276
 0.3502913 0.3537772 0.3570702 0.3591186 0.3598285 0.3602419 0.3615773 0.3640557 0.3668136 0.3689096
 0.3701425 0.3709086 0.3716365 0.3724718 0.3732321 0.3735897 0.3735343 0.3736666 0.374738 0.3768196
 0.379144 0.3808247 0.3815514 0.3815597 0.3811614 0.3804713 0.3795096 0.3783993 0.3773805 0.3766477
 0.3762183 0.3759697 0.3757693 0.3755539 0.3753378 0.3751948 0.3752195 0.3754723 0.3759618 0.3766781
 0.3776014 0.378664 0.3797487 0.380756 0.3816458 0.3823923 0.3829302 0.3831746 0.3830703 0.3825937
 0.3817233 0.3804345 0.3787077 0.3765158 0.3738298 0.3707349 0.3676229 0.3652299 0.3643323 0.365261
 0.3676492 0.3706465 0.3734016 0.3754255 0.3766433 0.377226 0.3773993 0.3773359 0.3771297 0.3768159
 0.3764078 0.3759286 0.3754135 0.3748944 0.3743982 0.3739581 0.3736106 0.3733744 0.373238 0.3731657
 0.3731102 0.3730228 0.3728631 0.3726058 0.3722364 0.3717363 0.3710741 0.370222 0.3691897 0.3680355
 0.3668332 0.3656245 0.3643994 0.3631107 0.3617049 0.3601369 0.3583494 0.3562669 0.3538725 0.3513136
 0.3488645 0.3467185 0.3448309 0.3430021 0.3410859 0.33908 0.3370552 0.3350675 0.3331388 0.3312722
 0.3294559 0.3276585 0.325831 0.3239177 0.3218774 0.319694 0.3173647 0.3148865 0.312261 0.3095007
 0.3066029 0.3035104 0.3001041 0.2962409 0.2918001 0.2867049 0.2809351 0.2745538 0.2677296 0.2607111
 0.2537575 0.2470842 0.2408583 0.2352241 0.2303154 0.2262444 0.223085 0.2208694 0.2195988 0.2192548
 0.2197988 0.2211657 0.2232554 0.2259237 0.228977 0.2321839 0.2353094 0.2381642 0.2406617 0.2428521
 0.2448889 0.2469302 0.2490501 0.2512302 0.2534109 0.2555283 0.2575153 0.2593029 0.2608441 0.2621334
 0.2631997 0.2640814 0.2648052 0.2653775 0.2657941 0.266063 0.2662215 0.2663331 0.266469 0.2666957
 0.267069 0.2676263 0.2683794 0.2693135 0.2703971 0.2715966 0.2728863 0.2742466 0.2756589 0.2771149
 0.2786436 0.2803257 0.2822724 0.2845769 0.2872695 0.2903004 0.2935556 0.2968892 0.3001477 0.3031838
 0.3058708 0.308127 0.3099341 0.3113297 0.3123704 0.3130947 0.3135177 0.3136498 0.3135086 0.3131153
 0.3124961 0.3116903 0.3107449 0.3096947 0.3085487 0.3072982 0.305944 0.304519 0.303084 0.301698
 0.300397 0.2991943 0.2980808 0.2970205 0.2959642 0.2948783 0.2937602 0.2926326 0.2915315 0.2904898
 0.2895157 0.2885841 0.2876427 0.2866255 0.2854673 0.2841219 0.2825722 0.280824 0.2788976 0.2768197
 0.2746174 0.2723162 0.2699409 0.2675071 0.2650131 0.2624444 0.2597789 0.2569917 0.254082 0.2511106
 0.2481866 0.2454009 0.2427817 0.2403132 0.2379746 0.2357572 0.2336589 0.2316729 0.2297837 0.2279774
 0.2262501 0.2246006 0.2230262 0.2215323 0.220134 0.2188481 0.2176927 0.2166859 0.2158307 0.2151066
 0.214484 0.2139388 0.213462 0.2130732 0.2128092 0.2126717 0.2125917 0.2124663 0.2122297 0.2118895
 0.2115068 0.2111447 0.2108277 0.2105447 0.2102704 0.2099594 0.2095293 0.20888 0.2079223 0.2065838
 0.2048169 0.2026308 0.2001098 0.1974009 0.1946911 0.1921671 0.1899634 0.1881416 0.1867037 0.1855954
 0.1847191 0.1839963 0.1834256 0.1830719 0.1830001 0.1831939 0.1835041 0.1837131 0.1837181 0.1836398
 0.1837133 0.1840886 0.1847458 0.1855499 0.1863546 0.1870782 0.1877021 0.1882147 0.1885911 0.188822
 0.1889151 0.1888701 0.1886822 0.1883591 0.1879135 0.1873581 0.1867109 0.1859781 0.1851448 0.1842054
 0.1831714 0.1820381 0.1807885 0.179423 0.1779378 0.1763126 0.174601 0.1730152 0.1718584 0.1713631
 0.1715669 0.1722937 0.1732718 0.174308 0.1753128 0.176182 0.1768032 0.1772501 0.1778633 0.1790255
 0.1808375 0.1830113 0.1850731 0.1866691 0.1876793 0.1881099 0.1879985 0.1874105 0.1863919 0.1849236
 0.1830107 0.1807633 0.1783243 0.1758188 0.1733962 0.1711907 0.1692512 0.1675951 0.1662366 0.1651755
 0.1644667 0.1638262 0.1616801 0.1557203 0.146179 0.1379362 0.1368339 0.1433912 0.1521015 0.1573593
 0.1582238 0.1570618 0.1558351 0.1549687 0.154387 0.1541473 0.1542835 0.1546721 0.1550754 0.1552479
 0.1550838 0.154602 0.1536872 0.1518582 0.1482628 0.1419868 0.1327317 0.1214394 0.1100903 0.1006569
 0.09414178 0.09037326 0.08840986 0.08719105 0.08614842 0.08541536 0.08548446 0.08669306 0.08902546 0.09226175
 0.0961404 0.1003328 0.104386 0.1078624 0.1105735 0.1125933 0.1140464 0.1149822 0.115438 0.115489
 0.1152105 0.1146623 0.1139046 0.1129678 0.1118262 0.1104557 0.108932 0.1074594 0.106282 0.1055267
 0.1051322 0.1049468 0.1048646 0.1048443 0.1048624 0.1049085 0.104995 0.1051356 0.1053368 0.1056045
 0.1059219 0.1062357 0.1064908 0.1066659 0.1067646 0.1067867 0.1067075 0.1064927 0.1061645 0.1058202
 0.1054987 0.1050493 0.1042501 0.1030922 0.1018845 0.1010544 0.1008513 0.1011966 0.1017688 0.1022411
 0.1024823 0.102563 0.102598 0.1025914</values></Ydata></ScSm><ScRf><Ydata ylabel="Single channel"><values byteorder="INTEL" format="FLOAT32" numvalues="1820"> 0.07054783 0.07067393 0.07078554 0.07088567 0.07098085 0.07108079 0.07119521 0.07132681 0.07146831 0.07160635
 0.07172944 0.07183561 0.07193099 0.07201931 0.07210042 0.07218163 0.07227945 0.07240368 0.07254426 0.07267697
 0.07278103 0.07285862 0.07293972 0.07305351 0.07318742 0.07328687 0.07330754 0.0732635 0.07321669 0.07321927
 0.07327977 0.07339774 0.07359955 0.07388034 0.07412323 0.07417496 0.07403755 0.07389805 0.07392009 0.07407932
 0.07424012 0.07430753 0.0742642 0.07415672 0.07411605 0.07431765 0.07482162 0.07544123 0.07580055 0.07555258
 0.07461084 0.07327294 0.07214789 0.0718386 0.07250826 0.07369834 0.07467037 0.07500164 0.07481595 0.07446823
 0.07417327 0.07399967 0.07403494 0.07437189 0.07495585 0.07552357 0.07570636 0.07527265 0.07439041 0.07359736
 0.07336248 0.07372165 0.07444204 0.07530337 0.07589018 0.07538301 0.07328387 0.07051748 0.06914337 0.07045391
 0.07362193 0.07656074 0.07782323 0.07736774 0.07595711 0.07448658 0.07374467 0.07414047 0.07543676 0.07698564
 0.07824263 0.07891098 0.07880555 0.07794026 0.07670283 0.07568896 0.07537225 0.07597119 0.07736053 0.07893173
 0.07983445 0.07964778 0.07869664 0.07762956 0.07693996 0.07694441 0.07780994 0.07935618 0.08106852 0.0824794
 0.08341385 0.08388734 0.08398834 0.08385985 0.08363149 0.08340204 0.08333467 0.08357163 0.08395466 0.08406064
 0.08367234 0.08307338 0.08276196 0.08293867 0.08333533 0.083539 0.08340169 0.08296351 0.08203141 0.08027236
 0.07789373 0.07575122 0.0745132 0.07419235 0.07468883 0.07607124 0.07791547 0.07910515 0.07895543 0.0781365
 0.07794879 0.07891779 0.08046574 0.08175486 0.08250056 0.08301657 0.08372359 0.08467383 0.08543046 0.08538888
 0.08439368 0.0831246 0.08264533 0.08337423 0.08467808 0.08565268 0.08607341 0.08636388 0.08684699 0.08727718
 0.08705501 0.08586787 0.08423021 0.0833067 0.08395307 0.08586827 0.08775026 0.08828065 0.08706245 0.08483507
 0.08285473 0.08199167 0.08239154 0.08383451 0.08604396 0.08855029 0.09061706 0.0916136 0.09144895 0.09055784
 0.08942582 0.08813519 0.08653557 0.08495145 0.08436958 0.08551706 0.08792607 0.09030566 0.09173343 0.0921682
 0.09192322 0.091038 0.08936231 0.08720769 0.08563817 0.08567926 0.08714856 0.08870402 0.08927166 0.08904999
 0.08889534 0.08915249 0.08946849 0.08951196 0.08946742 0.08977305 0.09056164 0.09149177 0.09210888 0.0922624
 0.09213996 0.09200215 0.09193482 0.09179772 0.09144124 0.09104201 0.09108835 0.09186544 0.09307122 0.09411959
 0.09471762 0.09498189 0.09508173 0.09495135 0.09440202 0.09349293 0.09270735 0.09260818 0.09329055 0.09431095
 0.09515838 0.09563415 0.09579851 0.09577563 0.09567093 0.09554621 0.0954342 0.09540869 0.095571 0.0959144
 0.0962861 0.09653851 0.0966498 0.0966671 0.09660811 0.09646502 0.0962702 0.09611697 0.0961004 0.09624001
 0.09647471 0.09672643 0.09693677 0.09705551 0.09705335 0.09696089 0.09685218 0.09677865 0.09674734 0.0967593
 0.09682931 0.09695762 0.0971076 0.09722938 0.09729872 0.09732336 0.09731837 0.09729131 0.09725173 0.09722124
 0.09722718 0.09728517 0.09738156 0.09748043 0.09756424 0.09765707 0.09778088 0.09790261 0.09796278 0.09795063
 0.09791707 0.09791681 0.09796487 0.09804414 0.09812769 0.09818585 0.09818987 0.09813223 0.0980531 0.09802854
 0.09811238 0.09829685 0.09853708 0.09878942 0.09901506 0.09918223 0.09929146 0.09937596 0.09946062 0.09953842
 0.09959541 0.09964275 0.09971705 0.09985227 0.1000472 0.1002608 0.1004463 0.1005835 0.1006805 0.1007657
 0.1008793 0.1010385 0.1012023 0.1013068 0.101346 0.1013844 0.1014765 0.1016039 0.1017074 0.1017597
 0.1017893 0.1018417 0.1019318 0.1020387 0.1021371 0.1022259 0.1023259 0.1024515 0.1025828 0.1026707
 0.1026825 0.1026411 0.1026026 0.102599 0.1026216 0.1026587 0.1027174 0.1028005 0.1028824 0.1029278
 0.1029289 0.1029144 0.1029167 0.1029359 0.1029429 0.1029156 0.1028616 0.1028064 0.1027702 0.1027559
 0.1027507 0.1027352 0.1026952 0.1026311 0.1025537 0.1024741 0.1023969 0.1023254 0.1022747 0.1022678
 0.1023043 0.1023336 0.1022844 0.1021304 0.1019195 0.101729 0.1015995 0.1015142 0.1014303 0.1013181
 0.1011767 0.1010235 0.1008765 0.1007437 0.1006229 0.1005106 0.1004117 0.1003411 0.1003076 0.1002916
 0.1002495 0.1001527 0.1000169 0.09988485 0.09978453 0.09971528 0.09966485 0.09962481 0.09959367 0.09957726
 0.0995815 0.09959766 0.09960399 0.09959012 0.09957074 0.09957069 0.09960683 0.09968396 0.09978969 0.09989093
 0.09995519 0.09998474 0.1000156 0.1000784 0.100173 0.1002828 0.1004005 0.1005296 0.1006725 0.1008268
 0.1009931 0.1011765 0.1013811 0.1016026 0.1018286 0.1020477 0.1022585 0.102473 0.1027079 0.1029715
 0.1032563 0.1035444 0.1038221 0.1040901 0.1043592 0.1046362 0.1049176 0.1051999 0.1054903 0.1057998
 0.1061279 0.1064607 0.1067857 0.1071031 0.1074213 0.107746 0.1080758 0.1084099 0.1087567 0.1091286
 0.1095191 0.1098943 0.1102191 0.1104935 0.1107542 0.111042 0.1113712 0.1117248 0.1120676 0.1123711
 0.1126384 0.1129028 0.1131929 0.1135034 0.1138111 0.1141156 0.1144456 0.1148195 0.11521 0.1155594
 0.1158327 0.11605 0.1162627 0.1165018 0.1167547 0.1169931 0.1172124 0.1174318 0.1176639 0.1179012
 0.1181381 0.1183863 0.1186571 0.1189375 0.1191998 0.1194308 0.1196392 0.1198368 0.1200205 0.1201748
 0.1202885 0.1203722 0.120458 0.1205748 0.1207215 0.1208739 0.1210185 0.1211669 0.1213362 0.121529
 0.1217407 0.1219715 0.1222205 0.1224743 0.1227196 0.1229669 0.123243 0.1235492 0.1238445 0.1240864
 0.1242791 0.1244625 0.1246631 0.1248796 0.1251094 0.125364 0.1256504 0.1259553 0.1262553 0.126537
 0.1268078 0.127091 0.1274016 0.1277218 0.1280083 0.1282337 0.1284142 0.1285942 0.1288082 0.1290621
 0.1293391 0.1296183 0.1298868 0.1301361 0.1303504 0.1305095 0.1306112 0.1306796 0.1307375 0.1307742
 0.13075 0.1306309 0.1304051 0.1300687 0.1296124 0.1290317 0.1283495 0.127627 0.1269548 0.1264283
 0.1261229 0.1260774 0.1262908 0.1267236 0.1273037 0.12794 0.12854 0.1290182 0.1292996 0.1293301
 0.1290965 0.1286304 0.1279881 0.1272286 0.1264064 0.1255678 0.1247483 0.1239862 0.1233547 0.1229734
 0.1229745 0.1234511 0.124425 0.1258314 0.1275156 0.1292656 0.1308912 0.132297 0.1334882 0.1345159
 0.1354272 0.1362555 0.137029 0.1377687 0.1384798 0.1391564 0.139794 0.140392 0.1409459 0.1414429
 0.1418657 0.1422007 0.1424441 0.1426069 0.1427084 0.1427644 0.1427845 0.1427808 0.1427652 0.1427277
 0.1426259 0.1424072 0.1420442 0.1415541 0.1410045 0.1405158 0.1402541 0.1403933 0.141044 0.1421862
 0.1436637 0.1452549 0.1467654 0.1480742 0.149132 0.1499489 0.150582 0.1511049 0.1515702 0.1519982
 0.1523942 0.1527648 0.1531198 0.1534674 0.1538116 0.154154 0.1544973 0.1548443 0.1551926 0.155532
 0.1558559 0.1561726 0.1565015 0.1568553 0.1572268 0.1575952 0.1579479 0.158292 0.1586406 0.1589917
 0.15933 0.159648 0.1599565 0.160272 0.1606029 0.1609462 0.1612905 0.1616215 0.1619313 0.1622254
 0.1625162 0.1628104 0.1631055 0.1633959 0.1636795 0.1639579 0.1642334 0.1645092 0.1647903 0.1650794
 0.1653705 0.1656498 0.1659073 0.1661488 0.1663908 0.1666451 0.1669092 0.1671725 0.1674294 0.1676845
 0.1679461 0.1682167 0.1684899 0.1687573 0.1690155 0.1692668 0.1695155 0.1697651 0.1700169 0.1702693
 0.1705207 0.1707713 0.171023 0.1712781 0.1715368 0.171796 0.1720506 0.1722974 0.1725387 0.1727811
 0.1730294 0.173283 0.1735382 0.1737926 0.1740468 0.174301 0.1745527 0.1747982 0.1750359 0.1752681
 0.1754979 0.1757279 0.1759601 0.1761951 0.1764333 0.1766761 0.1769241 0.177175 0.1774258 0.1776758
 0.1779257 0.1781744 0.1784195 0.1786596 0.1788965 0.1791349 0.1793792 0.1796283 0.1798747 0.1801119
 0.1803416 0.1805715 0.1808078 0.1810498 0.1812921 0.1815314 0.1817694 0.182009 0.1822491 0.1824876
 0.1827256 0.1829651 0.1832046 0.1834397 0.1836684 0.1838935 0.1841213 0.1843565 0.1845991 0.1848451
 0.1850905 0.1853323 0.1855687 0.185802 0.1860363 0.1862731 0.1865101 0.1867464 0.1869828 0.1872197
 0.1874575 0.1876976 0.1879399 0.1881824 0.188423 0.1886612 0.1888971 0.1891326 0.1893723 0.1896188
 0.1898702 0.1901229 0.1903738 0.190621 0.190865 0.1911088 0.1913556 0.1916086 0.1918694 0.1921333
 0.1923913 0.1926413 0.1928913 0.1931485 0.1934125 0.1936777 0.1939384 0.1941906 0.1944338 0.1946706
 0.1949024 0.1951307 0.1953577 0.1955839 0.195807 0.1960289 0.1962562 0.1964907 0.196728 0.1969652
 0.1972029 0.1974415 0.1976823 0.1979278 0.1981774 0.1984287 0.1986815 0.1989366 0.1991928 0.1994509
 0.1997126 0.199975 0.2002335 0.20049 0.2007498 0.2010141 0.2012817 0.2015505 0.2018161 0.2020777
 0.2023415 0.2026114 0.202883 0.2031533 0.2034241 0.2036961 0.2039682 0.204242 0.2045165 0.2047878
 0.2050569 0.2053281 0.2055989 0.2058649 0.2061297 0.2063977 0.2066672 0.2069383 0.2072142 0.2074929
 0.2077715 0.208054 0.2083419 0.2086285 0.2089104 0.2091893 0.2094631 0.2097298 0.2099941 0.2102585
 0.2105201 0.2107813 0.2110457 0.2113027 0.2115267 0.2116642 0.2115788 0.2109884 0.2094275 0.2062552
 0.20078 0.1925382 0.1815771 0.1685333 0.1544538 0.1404674 0.1274819 0.1160649 0.1065172 0.09899096
 0.09357328 0.09036592 0.08954715 0.09145261 0.09668598 0.1057625 0.1177938 0.1293491 0.135739 0.1345673
 0.1279027 0.1204007 0.1155122 0.1137928 0.1140763 0.1152077 0.1167263 0.1187415 0.1215354 0.1251482
 0.1293359 0.1339761 0.1393026 0.1455509 0.1525022 0.1595628 0.1662628 0.1725615 0.1786733 0.1846991
 0.1904776 0.1957407 0.2003219 0.2042169 0.2075317 0.2104106 0.212975 0.2152995 0.2174343 0.219413
 0.2212077 0.2227067 0.2237806 0.2243868 0.2246191 0.2246636 0.2246959 0.2248056 0.2250055 0.2252871
 0.2256435 0.2260636 0.2265358 0.2270513 0.2275961 0.2281503 0.2287013 0.2292423 0.2297654 0.2302656
 0.2307459 0.2312068 0.2316444 0.2320574 0.2324494 0.2328248 0.2331907 0.2335549 0.2339166 0.2342705
 0.2346167 0.2349587 0.2352936 0.2356144 0.2359168 0.236199 0.2364643 0.2367223 0.2369808 0.2372393
 0.237496 0.2377526 0.2380093 0.2382634 0.2385138 0.2387603 0.2390018 0.2392398 0.2394771 0.2397128
 0.2399459 0.2401812 0.240423 0.2406678 0.2409102 0.2411508 0.2413917 0.2416325 0.2418722 0.2421121
 0.2423555 0.2426083 0.2428736 0.2431456 0.2434154 0.2436818 0.2439493 0.2442191 0.2444891 0.2447596
 0.2450325 0.2453095 0.2455919 0.2458773 0.246155 0.2464127 0.2466468 0.2468644 0.2470783 0.2472995
 0.2475323 0.2477746 0.2480235 0.2482771 0.2485317 0.2487829 0.2490295 0.2492736 0.2495193 0.2497747
 0.2500462 0.25033 0.2506149 0.2508971 0.251181 0.2514687 0.2517577 0.2520487 0.2523432 0.2526372
 0.2529237 0.2532039 0.253491 0.253801 0.2541367 0.2544811 0.2548124 0.2551253 0.2554323 0.2557475
 0.2560756 0.2564072 0.2567157 0.2569752 0.2571982 0.257441 0.2577552 0.2581392 0.2585468 0.2589332
 0.2592844 0.2596116 0.259929 0.2602378 0.260527 0.2607877 0.2610295 0.2612887 0.2616045 0.2619794
 0.2623715 0.262737 0.263067 0.263374 0.2636681 0.2639538 0.2642224 0.264438 0.264573 0.2646766
 0.2648679 0.2652276 0.2657115 0.2661959 0.2666 0.2669367 0.2672538 0.2675697 0.2678748 0.2681407
 0.2682933 0.2682541 0.2680851 0.2680332 0.2683305 0.2689606 0.2696913 0.27031 0.2707629 0.2711047
 0.2714013 0.2716849 0.2719344 0.2720796 0.2720755 0.2720089 0.2720837 0.2724378 0.2729899 0.273528
 0.2739308 0.2742354 0.2745223 0.2748227 0.2751012 0.2752366 0.2750744 0.2746406 0.2742849 0.2744542
 0.2752596 0.2763484 0.2772551 0.2778145 0.2781644 0.2784222 0.2785118 0.2783067 0.2777893 0.2770573
 0.276364 0.2761551 0.2767786 0.2780375 0.279273 0.2800226 0.2804158 0.2808417 0.2814445 0.2820623
 0.2824912 0.2826693 0.2826484 0.282476 0.2821676 0.2818412 0.2818024 0.2823294 0.2833484 0.2844492
 0.2852714 0.2857893 0.2861476 0.2862402 0.2856016 0.283958 0.2819492 0.2809646 0.2819086 0.2842498
 0.2865982 0.2880815 0.2888215 0.2892792 0.2896535 0.2898284 0.2893678 0.2876588 0.2847452 0.282058
 0.2815495 0.2837693 0.2872478 0.2899198 0.2907007 0.2897081 0.2877385 0.2858995 0.2852165 0.2860759
 0.2880637 0.290387 0.2923512 0.2935513 0.2938993 0.2935843 0.2929938 0.2926092 0.2926988 0.2929119
 0.2925014 0.2912962 0.2900376 0.289241 0.2882507 0.2863112 0.2842523 0.2839712 0.2860885 0.2890524
 0.2909392 0.2914212 0.291416 0.2912275 0.2897949 0.2860903 0.2810284 0.277433 0.2776229 0.2810987
 0.2850375 0.2870644 0.2871302 0.286706 0.286714 0.2865484 0.2849748 0.2818788 0.2789488 0.2781657
 0.2795821 0.2812448 0.281356 0.2795305 0.2758533 0.2704352 0.2649033 0.2627033 0.2660581 0.2732076
 0.279967 0.2833383 0.2824466 0.2772986 0.2690957 0.2615339 0.2591434 0.2631122 0.2699029 0.2746782
 0.2751153 0.2715084 0.264802 0.2561756 0.2480627 0.2438523 0.2457339 0.2529368 0.2618628 0.2676387
 0.266611 0.25928 0.2510229 0.2480431 0.2515399 0.256919 0.2591937 0.2576715 0.2549202 0.2532659
 0.2535102 0.2553632 0.2577751 0.259766 0.2611794 0.2612975 0.2574611 0.2480098 0.2366497 0.2304836
 0.2326896 0.2399673 0.2479237 0.2554926 0.2624759 0.2663734 0.2650451 0.2609479 0.2595631 0.2635406
 0.2701756 0.274864 0.2757769 0.2745983 0.2734671 0.2724305 0.2705116 0.2684615 0.2687913 0.2726492
 0.2780263 0.2819383 0.2834206 0.28353 0.2833402 0.2830346 0.282463 0.2815923 0.2804687 0.2792324
 0.2781031 0.2771413 0.2762021 0.2752145 0.2741152 0.2722465 0.2684057 0.2624092 0.2564332 0.2535144
 0.2543635 0.2569194 0.259313 0.2612203 0.2613836 0.2565959 0.2458911 0.2342945 0.2293635 0.2338817
 0.2436431 0.2521721 0.2558398 0.2543119 0.2483584 0.2394944 0.2315065 0.2297932 0.2372096 0.2510777
 0.2655892 0.2767155 0.2837387 0.2870007 0.2863556 0.2823153 0.2773365 0.2748478 0.2768938 0.2827939
 0.2896653 0.293766 0.2921183 0.2849588 0.2773718 0.2762205 0.2833417 0.2931006 0.2986068 0.2989314
 0.2981027 0.2987134 0.2996999 0.2998794 0.3004334 0.3029232 0.3067268 0.3095541 0.3094982 0.3058398
 0.2990415 0.2912963 0.2861752 0.2858022 0.288509 0.2907457 0.2907198 0.2884307 0.2834424 0.2758496
 0.2690653 0.2679907 0.2734475 0.2809304 0.2857412 0.287365 0.2880166 0.2886619 0.2878801 0.2842402
 0.2788329 0.274806 0.2742795 0.2763439 0.2785622 0.2796122 0.2795033 0.2780553 0.2748979 0.2710965
 0.2693009 0.2713907 0.2764583 0.2816857 0.2849287 0.286025 0.2859812 0.2856766 0.2853921 0.2849651
 0.2842159 0.2835506 0.2839953 0.2861025 0.2889878 0.2911378 0.2921628 0.2931181 0.2950186 0.2975955
 0.2997078 0.3006073 0.300594 0.3006329 0.3014862 0.3030912 0.304621 0.3052094 0.3048021 0.3043204
 0.3048363 0.3065507 0.3087102 0.3104708 0.3116059 0.3123964 0.3131573 0.3139666 0.3146242 0.3148209
 0.3145502 0.3143569 0.3149298 0.316385 0.3181304 0.3194678 0.3201641 0.3204097 0.320422 0.3202372
 0.3198242 0.3192598 0.3187337 0.3184063 0.3182991 0.3183208 0.3183683 0.3183845 0.3183638 0.3183423
 0.3183733 0.3184824 0.3186511 0.3188488 0.3190581 0.3192564 0.3194107 0.3195158 0.3196056 0.3196998
 0.3197566 0.3196973 0.3194578 0.3190001 0.3182926 0.3173024 0.3160005 0.3143531 0.312331 0.3100034
 0.3076951 0.3060198 0.3056259 0.3067816 0.309159 0.3120224 0.3146482 0.3166336 0.3179275 0.3186753
 0.3190579 0.3192131 0.319224 0.3191301 0.3189471 0.3186873 0.318367 0.3180045 0.3176246 0.3172604
 0.3169383 0.3166581 0.3163947 0.316114 0.3157861 0.3153896 0.3149148 0.3143649 0.3137502 0.3130746
 0.312324 0.3114747 0.3105218 0.3095018 0.3084798 0.307511 0.3066082 0.30574 0.3048588 0.3039234
 0.302884 0.301673 0.3002692 0.2987919 0.2974688 0.2964524 0.2956827 0.2949571 0.2941098 0.2930962
 0.2919479 0.2907079 0.289412 0.2880859 0.2867357 0.2853459 0.2838877 0.2823341 0.280675 0.2789211
 0.2770916 0.275202 0.2732682 0.271308 0.269313 0.2672117 0.2648671 0.2621171 0.2588226 0.2548959
 0.2503152 0.2451407 0.2395255 0.2336916 0.2278726 0.2222651 0.2170222 0.2122755 0.2081461 0.2047343
 0.2021083 0.2003053 0.1993432 0.1992285 0.1999525 0.2014799 0.2037382 0.2066131 0.20995 0.2135626
 0.2172479 0.2208146 0.2241296 0.2271598 0.2299593 0.2325936 0.2350715 0.2373494 0.239385 0.2411679
 0.2427044 0.2439975 0.2450529 0.2458985 0.2465852 0.2471661 0.2476735 0.2481155 0.2484861 0.2487793
 0.2490009 0.2491725 0.2493252 0.2494873 0.2496765 0.2499002 0.2501601 0.2504613 0.2508201 0.2512604
 0.2517968 0.2524214 0.2531083 0.2538321 0.2545861 0.2553888 0.2562757 0.2572872 0.2584558 0.2597952
 0.2612934 0.2629102 0.2645771 0.2662029 0.267688 0.2689442 0.2699139 0.2705803 0.2709644 0.2711058
 0.2710413 0.2707991 0.2704023 0.2698711 0.2692245 0.2684857 0.267681 0.2668291 0.265932 0.2649842
 0.26399 0.2629721 0.2619597 0.2609692 0.2600023 0.2590602 0.258148 0.2572642 0.2564003 0.2555533
 0.2547306 0.2539404 0.2531866 0.2524686 0.2517769 0.2510915 0.2503828 0.2496139 0.2487446 0.2477424
 0.2465866 0.245267 0.2437864 0.2421634 0.2404202 0.2385685 0.2366151 0.2345738 0.2324645 0.2302996
 0.2280691 0.2257451 0.2233211 0.2208573 0.2184668 0.2162422 0.2142065 0.2123313 0.2105792 0.2089262
 0.2073605 0.2058709 0.2044419 0.2030631 0.2017378 0.2004727 0.1992709 0.1981397 0.197093 0.1961409
 0.1952906 0.1945502 0.1939202 0.1933864 0.1929343 0.1925583 0.192262 0.1920645 0.1919958 0.1920558
 0.1921837 0.1922885 0.192308 0.1922388 0.1921252 0.1920252 0.1919737 0.1919727 0.1920001 0.1920049
 0.1918978 0.1915732 0.1909412 0.1899354 0.1885207 0.1867185 0.1846161 0.1823502 0.1800861 0.1779882
 0.1761781 0.1747165 0.1736103 0.1728087 0.1722117 0.1717324 0.1713596 0.1711562 0.1712016 0.1715077
 0.17195 0.1723187 0.1725043 0.1726197 0.1728974 0.1734887 0.1743754 0.1754192 0.1764575 0.1773785
 0.1781352 0.1787149 0.1791264 0.1794043 0.1795805 0.1796544 0.1796141 0.1794619 0.1792007 0.1788337
 0.1783795 0.1778489 0.1772237 0.1764906 0.1756649 0.1747574 0.1737609 0.1726687 0.1714575 0.1700891
 0.1686102 0.1672325 0.1662564 0.1659099 0.1662343 0.1670668 0.1681527 0.1693137 0.1704721 0.1715315
 0.1723791 0.1730736 0.1739257 0.175292 0.177274 0.1796109 0.1818544 0.1836564 0.1848868 0.1855384
 0.1856394 0.1852521 0.1844221 0.1831297 0.1813825 0.1792989 0.1770295 0.1746987 0.1724528 0.1704295
 0.1686858 0.1672433 0.1661104 0.1652766 0.164797 0.1643962 0.1624844 0.1567071 0.1472844 0.1391798
 0.1383525 0.1453339 0.1544911 0.1600783 0.1611156 0.1600129 0.158772 0.1578273 0.1571108 0.1567026
 0.156659 0.1568684 0.1571023 0.157128 0.1568527 0.1562966 0.1553331 0.1534607 0.1498043 0.1434264
 0.1340127 0.1225132 0.1109493 0.1013474 0.09473869 0.09093331 0.08894458 0.08767924 0.08657193 0.08578504
 0.08583749 0.08707204 0.08946124 0.0927709 0.09673142 0.1010129 0.1051656 0.1087546 0.111587 0.1137267
 0.115288 0.1163139 0.1168351 0.1169204 0.1166438 0.1160731 0.1152835 0.1143205 0.1131679 0.111799
 0.1102737 0.1087808 0.1075673 0.1067824 0.1063803 0.1062019 0.1061285 0.1061224 0.1061715 0.1062656
 0.106407 0.1066037 0.1068603 0.107177 0.1075304 0.1078657 0.1081322 0.1083144 0.1084197 0.1084454
 0.1083582 0.1081157 0.1077384 0.1073277 0.1069301 0.1064027 0.1055262 0.1042894 0.1030019 0.1020971
 0.1018297 0.1021229 0.1026549 0.1030996 0.1033241 0.1033949 0.1034228 0.1034101 0.1032352 0.1027848
</values></Ydata></ScRf><Data_Parameters_AB><parameter name="DPF">1</parameter><parameter name="NPT">3497</parameter><parameter name="FXV">3996</parameter><parameter name="LXV">500</parameter><parameter name="CSF">1</parameter><parameter name="MXY">0.090545766055584</parameter><parameter name="MNY">-0.127772152423859</parameter><parameter name="DAT">18/01/2024</parameter><parameter name="TIM">11:00:23.265 (GMT+1)</parameter><parameter name="DXU">WN</parameter></Data_Parameters_AB><AB__Qtest><MainReport name="Quality Test Report"><Header><Line><Legend>Test result ok/not ok [1/0]: </Legend><Value>0</Value></Line><Line><Legend>Method file: </Legend><Value>C:\Users\Public\Documents\Bruker\OPUS_8.2.28\QT\IRBT_v3_default.QT</Value></Line></Header><Matrix><Line><Legend></Legend><Legend>min</Legend><Legend>max</Legend><Legend>measured</Legend></Line><Line><Value>Absorption (X-Range 1):</Value><Value>0.400000</Value><Value>2.000000</Value><Value>0.190384</Value></Line><Line><Value>Noise (X-Range 4):</Value><Value></Value><Value>0.000300</Value><Value>0.000022</Value></Line><Line><Value>Signal/Noise (X-Range 2):</Value><Value>200.000000</Value><Value></Value><Value>134.388206</Value></Line><Line><Value>Signal/Noise (X-Range 3):</Value><Value>40.000000</Value><Value></Value><Value>98.288179</Value></Line><Line><Value>Water vapour (X-Range 5):</Value><Value></Value><Value>0.000300</Value><Value>0.000008</Value></Line><Line><Value>Signal/Water (X-Range 2):</Value><Value>100.000000</Value><Value></Value><Value>349.119651</Value></Line><Line><Value>Signal/Water (X-Range 3):</Value><Value>20.000000</Value><Value></Value><Value>255.337399</Value></Line><Line><Value>Fringes (X-Range 6):</Value><Value></Value><Value>0.000100</Value><Value>0.000015</Value></Line></Matrix></MainReport></AB__Qtest><Data_Parameters_ScSm><parameter name="DPF">1</parameter><parameter name="NPT">1814</parameter><parameter name="FXV">3996.63438082617</parameter><parameter name="LXV">499.579297603271</parameter><parameter name="CSF">1</parameter><parameter name="MXY">0.38663586974144</parameter><parameter name="MNY">0.083839550614357</parameter><parameter name="DAT">18/01/2024</parameter><parameter name="TIM">11:00:23.265 (GMT+1)</parameter><parameter name="DXU">WN</parameter></Data_Parameters_ScSm><Data_Parameters_ScRf><parameter name="DPF">1</parameter><parameter name="NPT">1820</parameter><parameter name="FXV">4004.34989121387</parameter><parameter name="LXV">495.721542409425</parameter><parameter name="CSF">1</parameter><parameter name="MXY">0.320421993732452</parameter><parameter name="MNY">0.0691433697938919</parameter><parameter name="DAT">18/01/2024</parameter><parameter name="TIM">10:59:57.558 (GMT+1)</parameter><parameter name="DXU">WN</parameter></Data_Parameters_ScRf><Optic_Parameters_Rf><parameter name="APR">0</parameter><parameter name="APT">Open</parameter><parameter name="BMS">KBr</parameter><parameter name="DTC">RT-DLaTGS_IR-Biotyper [Microplate reader]</parameter><parameter name="HPF">0</parameter><parameter name="LPF">10.0</parameter><parameter name="LPV">4000</parameter><parameter name="PGR">0</parameter><parameter name="RCH">Module port</parameter><parameter name="RDX">0</parameter><parameter name="SRC">MIR</parameter><parameter name="VEL">10.0</parameter><parameter name="SON">Off</parameter></Optic_Parameters_Rf><Acquisition_Parameters_Rf><parameter name="ADT">1</parameter><parameter name="AQM">DD</parameter><parameter name="CFE">0</parameter><parameter name="COR">0</parameter><parameter name="DEL">0</parameter><parameter name="DLY">0</parameter><parameter name="HFW">8000</parameter><parameter name="LFW">0</parameter><parameter name="NSR">32</parameter><parameter name="PLF">AB</parameter><parameter name="RES">6</parameter><parameter name="RGN">-1</parameter><parameter name="STR">0</parameter><parameter name="TCL">MakeCompatibleScalar (0, {WSV=1.000000, ARV=0});</parameter><parameter name="TDL">37</parameter><parameter name="RPO">0</parameter></Acquisition_Parameters_Rf><FT_-_Parameters_Rf><parameter name="APF">B3</parameter><parameter name="HFQ">500</parameter><parameter name="LFQ">4000</parameter><parameter name="NLI">0</parameter><parameter name="PHR">24</parameter><parameter name="PHZ">ML</parameter><parameter name="SPZ">NO</parameter><parameter name="ZFF">1</parameter></FT_-_Parameters_Rf><Optic_Parameters_><parameter name="APR">0</parameter><parameter name="APT">Open</parameter><parameter name="BMS">KBr</parameter><parameter name="CHN">Module port</parameter><parameter name="DTC">RT-DLaTGS_IR-Biotyper [Microplate reader]</parameter><parameter name="HPF">0</parameter><parameter name="LPF">10.0</parameter><parameter name="LPV">4000</parameter><parameter name="PGN">0</parameter><parameter name="RDX">0</parameter><parameter name="SRC">MIR</parameter><parameter name="VEL">10.0</parameter><parameter name="SON">Off</parameter></Optic_Parameters_><FT_-_Parameters_><parameter name="APF">B3</parameter><parameter name="HFQ">500</parameter><parameter name="LFQ">4000</parameter><parameter name="NLI">0</parameter><parameter name="PHR">24</parameter><parameter name="PHZ">ML</parameter><parameter name="SPZ">NO</parameter><parameter name="ZFF">1</parameter></FT_-_Parameters_><Acquisition_Parameters_><parameter name="ADT">1</parameter><parameter name="AQM">DD</parameter><parameter name="CFE">0</parameter><parameter name="COR">0</parameter><parameter name="DEL">0</parameter><parameter name="DLY">0</parameter><parameter name="HFW">8000</parameter><parameter name="LFW">0</parameter><parameter name="NSS">32</parameter><parameter name="PLF">AB</parameter><parameter name="RES">6</parameter><parameter name="SOT">0</parameter><parameter name="TCL">MakeCompatibleScalar (0, {WSV=1.000000, ARV=0});</parameter><parameter name="TDL">37</parameter><parameter name="SPO">0</parameter><parameter name="SGN">-1</parameter></Acquisition_Parameters_><Instrument_Parameters_Rf><parameter name="HFL">15801.365274</parameter><parameter name="LFL">0</parameter><parameter name="LWN">15801.365274</parameter><parameter name="ABP">32157</parameter><parameter name="SSP">1</parameter><parameter name="ARG">2</parameter><parameter name="ASG">2</parameter><parameter name="ASS">32</parameter><parameter name="GFW">16</parameter><parameter name="GBW">16</parameter><parameter name="BFW">0</parameter><parameter name="BBW">0</parameter><parameter name="PKA">9306</parameter><parameter name="PKL">4987</parameter><parameter name="PRA">9268</parameter><parameter name="PRL">5010</parameter><parameter name="P2A">1</parameter><parameter name="P2L">1</parameter><parameter name="P2R">1</parameter><parameter name="P2K">1</parameter><parameter name="DAQ">0</parameter><parameter name="AG2">1</parameter><parameter name="SSM">1</parameter><parameter name="RSN">46514</parameter><parameter name="CRR">0</parameter><parameter name="SRT">1705575597.558</parameter><parameter name="DUR">19.6469879150391</parameter><parameter name="TSC">32</parameter><parameter name="MVD">0.488166958093643</parameter><parameter name="AN1">0.226009340116801</parameter><parameter name="AN2">0</parameter><parameter name="VSN">2.485 Apr  4 2017</parameter><parameter name="SRN">0085</parameter><parameter name="CAM">0</parameter><parameter name="INS">IR-Biotyper</parameter><parameter name="FOC">69</parameter><parameter name="RDY">1</parameter><parameter name="ARS">32</parameter></Instrument_Parameters_Rf><Sample_Parameters_><parameter name="BLD"></parameter><parameter name="CNM">Admin</parameter><parameter name="CPY"></parameter><parameter name="DPM"></parameter><parameter name="EXP">IRBT_v3_32Scans.XPM</parameter><parameter name="LCT"></parameter><parameter name="SFM">Microplate, HTS-XT</parameter><parameter name="SNM">240118-1045-Cdiff_SCFA_2_C18_232119200_E1_3c1ce690-ea2d-4488-980e-d2e0e2a53e72.0</parameter><parameter name="XPP">C:\Users\Public\Documents\Bruker\OPUS_8.2.28\XPM</parameter><parameter name="IST">OK</parameter><parameter name="CPG">1252</parameter><parameter name="UID">01ece7f6-cc84-4ce3-8fe9-759baed076d4</parameter></Sample_Parameters_><Instrument_Parameters_><parameter name="HFL">15801.365274</parameter><parameter name="LFL">0</parameter><parameter name="LWN">15801.365274</parameter><parameter name="ABP">32157</parameter><parameter name="SSP">1</parameter><parameter name="ASG">2</parameter><parameter name="ARG">2</parameter><parameter name="ASS">32</parameter><parameter name="GFW">16</parameter><parameter name="GBW">16</parameter><parameter name="BFW">0</parameter><parameter name="BBW">0</parameter><parameter name="PKA">10940</parameter><parameter name="PKL">4980</parameter><parameter name="PRA">10905</parameter><parameter name="PRL">5002</parameter><parameter name="P2A">1</parameter><parameter name="P2L">1</parameter><parameter name="P2R">1</parameter><parameter name="P2K">1</parameter><parameter name="DAQ">0</parameter><parameter name="AG2">1</parameter><parameter name="SSM">1</parameter><parameter name="RSN">23950</parameter><parameter name="CRR">0</parameter><parameter name="SRT">1705575623.265</parameter><parameter name="DUR">19.64599609375</parameter><parameter name="TSC">32</parameter><parameter name="MVD">0.29890900850296</parameter><parameter name="AN1">0.226014893977872</parameter><parameter name="AN2">0</parameter><parameter name="VSN">2.485 Apr  4 2017</parameter><parameter name="SRN">0085</parameter><parameter name="CAM">0</parameter><parameter name="INS">IR-Biotyper</parameter><parameter name="FOC">69</parameter><parameter name="RDY">1</parameter></Instrument_Parameters_><History/></OPUSDataFile>
