<?xml version="1.0" encoding="UTF-8" ?>
<OPUSDataFile><AB><Ydata ylabel="Absorbance Units"><values byteorder="INTEL" format="FLOAT32" numvalues="3497"> -0.07967965 -0.07969383 -0.07971323 -0.07973845 -0.07977214 -0.0798126 -0.07985789 -0.07990542 -0.07995031 -0.07999169
 -0.08002637 -0.08005603 -0.08008053 -0.0801026 -0.08012369 -0.08014476 -0.08016679 -0.08018842 -0.08020964 -0.08022833
 -0.08024406 -0.08025654 -0.08026562 -0.08027294 -0.08027858 -0.08028372 -0.08028818 -0.08029058 -0.08029097 -0.08028857
 -0.08028445 -0.08028159 -0.08028121 -0.08028794 -0.08030097 -0.08032172 -0.08034717 -0.0803749 -0.08040208 -0.08042506
 -0.08044535 -0.0804617 -0.08047989 -0.08050159 -0.08053094 -0.08057012 -0.08061551 -0.08066753 -0.08071685 -0.08076261
 -0.08079989 -0.08082847 -0.08085094 -0.08086764 -0.08088341 -0.08089831 -0.08091507 -0.08093372 -0.08095596 -0.0809814
 -0.08101065 -0.08104163 -0.08107146 -0.08109862 -0.08111926 -0.08113635 -0.08115002 -0.08116565 -0.08118675 -0.08121379
 -0.08124877 -0.08128607 -0.08132511 -0.08135938 -0.08138748 -0.08140844 -0.08142176 -0.08143211 -0.08143973 -0.08145166
 -0.08146797 -0.08149216 -0.08152345 -0.08155945 -0.08159947 -0.0816396 -0.08168032 -0.08172105 -0.08176176 -0.08180317
 -0.08184229 -0.08187658 -0.08190244 -0.08191498 -0.08191697 -0.08190691 -0.08189427 -0.08188188 -0.08187711 -0.08188328
 -0.08189825 -0.08192287 -0.08194876 -0.08197527 -0.08199586 -0.08201017 -0.08201905 -0.08202282 -0.08202618 -0.08202904
 -0.08203346 -0.08203872 -0.08204322 -0.08204672 -0.08204765 -0.0820467 -0.08204387 -0.08204105 -0.08204005 -0.08204318
 -0.08205313 -0.08207013 -0.08209615 -0.0821263 -0.08215996 -0.08219012 -0.08221438 -0.08223177 -0.08224116 -0.08224795
 -0.08225255 -0.08225901 -0.08226756 -0.08227924 -0.08229425 -0.08231562 -0.08234352 -0.08238188 -0.08242833 -0.08247808
 -0.08252533 -0.08255269 -0.08255962 -0.0825337 -0.08248713 -0.08242809 -0.08236945 -0.08232548 -0.08229855 -0.08229519
 -0.08230897 -0.08233992 -0.08237824 -0.08242198 -0.0824619 -0.08249619 -0.08251927 -0.08253008 -0.08253024 -0.08251976
 -0.08250595 -0.08248913 -0.08247527 -0.08246411 -0.08245689 -0.08245351 -0.08245403 -0.08245898 -0.08246981 -0.08248668
 -0.08251088 -0.08254117 -0.08257695 -0.08261601 -0.08265675 -0.08269652 -0.08273404 -0.08276545 -0.08278906 -0.0828023
 -0.08280332 -0.08279582 -0.08277912 -0.08276407 -0.08275148 -0.08275218 -0.08276693 -0.0827987 -0.08284692 -0.08290359
 -0.0829673 -0.08302467 -0.08307556 -0.08311159 -0.08313506 -0.08314731 -0.0831508 -0.08315081 -0.08314756 -0.08314332
 -0.08313788 -0.08313116 -0.08312517 -0.0831209 -0.08312029 -0.08312496 -0.08313294 -0.0831444 -0.0831555 -0.08316527
 -0.08317373 -0.08318057 -0.08318925 -0.08319998 -0.0832143 -0.08323207 -0.08325105 -0.08327112 -0.08329023 -0.08330876
 -0.0833271 -0.08334541 -0.08336449 -0.08338393 -0.08340358 -0.08342271 -0.0834405 -0.08345604 -0.08346812 -0.08347677
 -0.08348136 -0.08348325 -0.08348267 -0.0834813 -0.08347949 -0.08347898 -0.08347979 -0.08348527 -0.08349565 -0.08351493
 -0.08354344 -0.08358063 -0.08362602 -0.08367113 -0.08371509 -0.08374739 -0.08376845 -0.08377393 -0.08376567 -0.08374567
 -0.08371682 -0.08368436 -0.08365266 -0.08362952 -0.08361686 -0.08362038 -0.08363567 -0.08366323 -0.08369352 -0.08372264
 -0.08374482 -0.08375638 -0.08376177 -0.08376065 -0.08376145 -0.08376539 -0.0837747 -0.08378968 -0.08380719 -0.08382704
 -0.08384583 -0.08386359 -0.08387899 -0.08389222 -0.08390313 -0.08391224 -0.08392049 -0.08392912 -0.08394075 -0.08395634
 -0.08397879 -0.08400659 -0.0840403 -0.08407553 -0.08411007 -0.08413979 -0.084162 -0.08417647 -0.08418246 -0.08418114
 -0.08417277 -0.08415725 -0.08413449 -0.08410559 -0.08407052 -0.08403423 -0.08399709 -0.08396658 -0.08394285 -0.08393075
 -0.08392936 -0.08393788 -0.08395401 -0.0839713 -0.0839875 -0.08399469 -0.08399403 -0.08398261 -0.08396561 -0.08394633
 -0.08392994 -0.0839209 -0.08392092 -0.08393254 -0.08395293 -0.08398283 -0.08401439 -0.08404691 -0.08407018 -0.08408281
 -0.08407935 -0.08405913 -0.08402548 -0.08397863 -0.08392355 -0.08386023 -0.08379062 -0.08371498 -0.08363509 -0.08355249
 -0.08347221 -0.0833957 -0.08332866 -0.08327014 -0.08322223 -0.08318076 -0.08314293 -0.08310462 -0.08306139 -0.08301464
 -0.08296306 -0.082912 -0.08286331 -0.08281788 -0.08277714 -0.08273465 -0.08268986 -0.08263745 -0.0825768 -0.08251098
 -0.08244023 -0.08237037 -0.0823012 -0.08223355 -0.08216684 -0.08209866 -0.08202924 -0.08195747 -0.08188492 -0.08181442
 -0.08174656 -0.08168475 -0.08162471 -0.08156514 -0.08149762 -0.08141558 -0.08131627 -0.08119412 -0.08106024 -0.08091594
 -0.08077462 -0.0806401 -0.08051462 -0.08039947 -0.0802892 -0.08018348 -0.08007864 -0.07997455 -0.07987074 -0.07976716
 -0.07966327 -0.07955869 -0.07945107 -0.07934052 -0.07922571 -0.07910766 -0.07898774 -0.07886684 -0.07874711 -0.07862812
 -0.0785105 -0.07839279 -0.07827399 -0.07815383 -0.0780317 -0.07790876 -0.07778548 -0.07766162 -0.07753749 -0.07741083
 -0.07728135 -0.07714767 -0.07700957 -0.07686807 -0.07672323 -0.0765763 -0.0764273 -0.07627662 -0.07612445 -0.07597177
 -0.07581908 -0.07566852 -0.07552021 -0.07537565 -0.07523402 -0.07509494 -0.07495708 -0.07481888 -0.07467996 -0.07453912
 -0.07439817 -0.0742576 -0.07411923 -0.0739843 -0.07385097 -0.07371945 -0.07358571 -0.07344902 -0.07330889 -0.07316506
 -0.07302167 -0.07287886 -0.0727388 -0.072601 -0.07246156 -0.07232005 -0.07217165 -0.07201763 -0.07185899 -0.07169797
 -0.07154033 -0.07138591 -0.07123821 -0.07109276 -0.07094669 -0.07079527 -0.07063293 -0.07046191 -0.07028022 -0.07009715
 -0.069915 -0.06974176 -0.06958032 -0.06943022 -0.06929234 -0.06916 -0.06903278 -0.06890462 -0.0687753 -0.06864392
 -0.06851078 -0.06837881 -0.06824787 -0.06811921 -0.06799147 -0.06786081 -0.06772644 -0.06758383 -0.06743522 -0.06728151
 -0.06712617 -0.06697373 -0.06682445 -0.06668074 -0.06653921 -0.06639864 -0.06625707 -0.06611297 -0.0659683 -0.06582294
 -0.06568042 -0.06554135 -0.065407 -0.06527771 -0.06515111 -0.06502704 -0.06490094 -0.06477276 -0.06463993 -0.06450327
 -0.06436548 -0.06422771 -0.06409558 -0.06396857 -0.06384887 -0.06373387 -0.06362052 -0.063507 -0.06338955 -0.06326962
 -0.06314675 -0.06302349 -0.06290136 -0.06278066 -0.06266221 -0.0625442 -0.06242619 -0.06230775 -0.06218867 -0.06206965
 -0.06195075 -0.06183239 -0.06171461 -0.06159902 -0.06148587 -0.06137873 -0.06127748 -0.0611839 -0.06109634 -0.06101052
 -0.06092438 -0.06083052 -0.06072959 -0.06061814 -0.06050082 -0.0603808 -0.06026344 -0.06015434 -0.06005437 -0.05996654
 -0.05988589 -0.05981184 -0.05973797 -0.05966232 -0.05958289 -0.0594987 -0.05941247 -0.05932427 -0.05923745 -0.0591522
 -0.05906922 -0.05898831 -0.05890737 -0.05882602 -0.05874086 -0.05865216 -0.0585585 -0.05846146 -0.05836394 -0.05826724
 -0.05817556 -0.05808681 -0.05800112 -0.05791374 -0.05782053 -0.05772037 -0.05761015 -0.05749564 -0.05737752 -0.05726359
 -0.05715634 -0.05705791 -0.05696958 -0.0568871 -0.0568103 -0.05673405 -0.05665807 -0.05658081 -0.05650243 -0.05642509
 -0.05634877 -0.05627487 -0.05620239 -0.05612883 -0.05605277 -0.05596915 -0.05587848 -0.05577814 -0.05567254 -0.05556482
 -0.05546095 -0.0553671 -0.055285 -0.05521886 -0.05516225 -0.05511524 -0.0550658 -0.05501113 -0.05494223 -0.05485636
 -0.05475554 -0.05463894 -0.05452017 -0.05439993 -0.05429254 -0.05419798 -0.05411929 -0.05405482 -0.05399594 -0.0539419
 -0.05388473 -0.05382649 -0.05376808 -0.05371163 -0.05366198 -0.05361778 -0.05358022 -0.05354513 -0.05350981 -0.05347043
 -0.05342393 -0.05336916 -0.05330437 -0.05323227 -0.05315263 -0.05307108 -0.05298866 -0.05290838 -0.0528311 -0.05275167
 -0.05266986 -0.05257702 -0.05247324 -0.05235802 -0.05223319 -0.05211013 -0.05199039 -0.05188676 -0.05179718 -0.05172411
 -0.05166241 -0.05160442 -0.05154661 -0.05148105 -0.05140848 -0.05132651 -0.05123808 -0.05114433 -0.05104685 -0.0509463
 -0.05084433 -0.05074094 -0.05064033 -0.05054315 -0.05045294 -0.05037057 -0.05029249 -0.05021862 -0.05013807 -0.05005032
 -0.04994506 -0.04982309 -0.0496836 -0.04952967 -0.04937207 -0.04921441 -0.04907191 -0.0489443 -0.04884017 -0.04875183
 -0.04867518 -0.04859861 -0.04851056 -0.04840572 -0.04827515 -0.04812771 -0.04796275 -0.04779711 -0.04763535 -0.04748753
 -0.04735745 -0.04723999 -0.04713563 -0.04703106 -0.04692545 -0.04681044 -0.04668609 -0.04655332 -0.04641234 -0.04626552
 -0.04611161 -0.04594682 -0.04577006 -0.0455748 -0.04536519 -0.04514281 -0.04491917 -0.04470777 -0.04452058 -0.04437457
 -0.04426871 -0.04421117 -0.0441833 -0.04418167 -0.04418296 -0.04417923 -0.04416111 -0.04412378 -0.04407759 -0.04402221
 -0.04397773 -0.0439454 -0.04394104 -0.04396481 -0.04401982 -0.04410457 -0.04421034 -0.0443356 -0.04446924 -0.04461148
 -0.04475696 -0.0449073 -0.04506329 -0.04522556 -0.04539579 -0.04557253 -0.04575526 -0.04594219 -0.04613119 -0.04632466
 -0.04652146 -0.04673084 -0.04695437 -0.04720288 -0.04747966 -0.04778398 -0.04811742 -0.04846322 -0.04882054 -0.0491694
 -0.04950934 -0.04983316 -0.05014205 -0.05044146 -0.05073231 -0.0510213 -0.05130819 -0.05159558 -0.05188325 -0.05217217
 -0.05246151 -0.0527512 -0.05303865 -0.05332171 -0.05359789 -0.05386449 -0.05412228 -0.05437054 -0.05461194 -0.05484718
 -0.05507773 -0.05530411 -0.05552617 -0.05574402 -0.05595677 -0.05616441 -0.05636467 -0.05655746 -0.05674008 -0.05691292
 -0.0570773 -0.05723451 -0.0573909 -0.05754713 -0.05770887 -0.0578745 -0.05804404 -0.05821466 -0.05838253 -0.05854614
 -0.05870241 -0.05885204 -0.05899422 -0.05913122 -0.05926342 -0.05939423 -0.05952448 -0.05965757 -0.05979457 -0.05993558
 -0.06008107 -0.06022726 -0.06037395 -0.06051676 -0.06065561 -0.06078991 -0.06091988 -0.06104715 -0.06117144 -0.06129241
 -0.06140945 -0.06152021 -0.06162552 -0.06172498 -0.06182203 -0.06192079 -0.06202492 -0.06214 -0.06226571 -0.06240467
 -0.06255144 -0.06270473 -0.06285846 -0.06301004 -0.06315823 -0.06330178 -0.06344461 -0.06358701 -0.06373242 -0.06388125
 -0.06403153 -0.06418307 -0.0643304 -0.06447354 -0.06460989 -0.06474058 -0.06486933 -0.06499711 -0.06512913 -0.06526443
 -0.06540375 -0.06554531 -0.06568651 -0.06582748 -0.06596692 -0.06610698 -0.06624886 -0.06639354 -0.06654201 -0.06669361
 -0.06684837 -0.06700546 -0.06716506 -0.06732463 -0.06748437 -0.06763725 -0.06778281 -0.06791414 -0.06803116 -0.0681366
 -0.06823173 -0.06832939 -0.06843035 -0.06854593 -0.06867399 -0.06881485 -0.06896436 -0.06911434 -0.06926205 -0.06939967
 -0.06952773 -0.06964321 -0.06974966 -0.06984783 -0.06994317 -0.07003804 -0.0701372 -0.07024314 -0.070356 -0.07047699
 -0.07060084 -0.07072721 -0.07085051 -0.07097019 -0.0710851 -0.07119516 -0.07129991 -0.0713988 -0.07148647 -0.07156213
 -0.07161826 -0.07165647 -0.0716763 -0.07168309 -0.07168683 -0.0716934 -0.07171602 -0.07175601 -0.07182131 -0.07190526
 -0.07200743 -0.07211599 -0.07222549 -0.0723275 -0.07241706 -0.0724955 -0.07256157 -0.072622 -0.07267766 -0.07273227
 -0.07278632 -0.07283922 -0.07289091 -0.07294084 -0.07298904 -0.07303591 -0.07308104 -0.07312254 -0.0731598 -0.07318942
 -0.07321222 -0.07322786 -0.07323852 -0.07324728 -0.07325567 -0.07326668 -0.07328004 -0.0732966 -0.07331525 -0.07333525
 -0.07335725 -0.0733805 -0.07340939 -0.07344399 -0.0734923 -0.07355547 -0.07363913 -0.07374433 -0.07386564 -0.07400265
 -0.07413831 -0.07427163 -0.07438534 -0.07448073 -0.07455418 -0.07461004 -0.07466008 -0.07470803 -0.07476883 -0.07484091
 -0.07492965 -0.07502865 -0.07513352 -0.07523831 -0.07533666 -0.07542781 -0.07550911 -0.07558386 -0.07565224 -0.07571883
 -0.07578453 -0.07585344 -0.07592636 -0.07600525 -0.07609057 -0.07617962 -0.07627221 -0.07636306 -0.07645214 -0.07653698
 -0.07661829 -0.07669853 -0.07677817 -0.07686036 -0.07694434 -0.07703012 -0.07711636 -0.07720076 -0.07728308 -0.07736197
 -0.07743841 -0.07751276 -0.07758565 -0.07765766 -0.07772827 -0.07779727 -0.07786477 -0.07793041 -0.07799635 -0.07806273
 -0.07813238 -0.07820577 -0.07828183 -0.07836045 -0.07843526 -0.07850582 -0.07856462 -0.07861234 -0.07864798 -0.07867414
 -0.07869886 -0.07872459 -0.07876179 -0.07880885 -0.07886907 -0.0789367 -0.07900709 -0.07907479 -0.07913373 -0.07918274
 -0.0792194 -0.07924493 -0.07925972 -0.07926276 -0.07925424 -0.0792311 -0.07919279 -0.07913794 -0.07906614 -0.0789803
 -0.07888057 -0.07877229 -0.0786554 -0.07853109 -0.07839788 -0.07824834 -0.07808017 -0.07788105 -0.07765095 -0.07738261
 -0.07707989 -0.07674519 -0.07638348 -0.07600167 -0.07560138 -0.07518689 -0.07475566 -0.07430798 -0.07383958 -0.07334896
 -0.07283349 -0.07229223 -0.07172402 -0.07112888 -0.07050383 -0.069849 -0.06915676 -0.06842669 -0.06764847 -0.06682189
 -0.06594088 -0.06500696 -0.06402475 -0.06299811 -0.06194186 -0.06086185 -0.05977805 -0.05869681 -0.05763664 -0.05660268
 -0.05560729 -0.05465407 -0.05374799 -0.05289618 -0.05210011 -0.051378 -0.0507338 -0.05019361 -0.04976549 -0.04946154
 -0.04928895 -0.04922163 -0.04926085 -0.04934249 -0.04946307 -0.04954871 -0.04959654 -0.04955222 -0.04941631 -0.04916395
 -0.04879826 -0.04831637 -0.04772245 -0.04702471 -0.04622654 -0.04533651 -0.04435825 -0.0432962 -0.04216186 -0.04096047
 -0.0397178 -0.03844625 -0.03717436 -0.03591777 -0.03468349 -0.03348087 -0.03228457 -0.03109521 -0.02986689 -0.02859631
 -0.02723469 -0.02577902 -0.02419244 -0.0224749 -0.02061727 -0.01862573 -0.01653166 -0.01434657 -0.01212974 -0.009888873
 -0.007675792 -0.005484316 -0.003330727 -0.00119698 0.0009320054 0.003070067 0.005238295 0.007427826 0.009646845 0.01185778
 0.01405443 0.0161819 0.01822801 0.02014044 0.02190996 0.02349516 0.02489198 0.02606023 0.02699753 0.02765537
 0.02803185 0.02808868 0.02782949 0.02725607 0.02637927 0.0252409 0.02385042 0.02225265 0.0204515 0.01846947
 0.01631907 0.01401363 0.01159392 0.009086937 0.006558335 0.00404826 0.001615037 -0.000705737 -0.002898428 -0.004944063
 -0.006884099 -0.00871541 -0.01052573 -0.01232103 -0.01420145 -0.01617376 -0.0183009 -0.02058187 -0.0230034 -0.02555407
 -0.02815174 -0.03078364 -0.03335395 -0.03586175 -0.03825372 -0.04054083 -0.04271961 -0.04479693 -0.0467844 -0.04867251
 -0.05045966 -0.05212887 -0.0536681 -0.05507232 -0.0563334 -0.05746488 -0.05846678 -0.05936111 -0.06015094 -0.06085671
 -0.06148062 -0.06203981 -0.06253542 -0.06298332 -0.06338437 -0.06375355 -0.06409191 -0.06441365 -0.06472021 -0.06502464
 -0.0653285 -0.06564265 -0.06596778 -0.06631038 -0.0666697 -0.06704799 -0.06744227 -0.06785208 -0.06827044 -0.06869517
 -0.06911355 -0.06952159 -0.06990357 -0.07025396 -0.07056463 -0.0708304 -0.07106637 -0.0712707 -0.07148879 -0.07172287
 -0.07203408 -0.07242491 -0.07294024 -0.07357728 -0.07433943 -0.07521714 -0.07617483 -0.07720035 -0.07824376 -0.07929601
 -0.08031696 -0.08130395 -0.08223627 -0.08311829 -0.08394589 -0.08472743 -0.08546691 -0.08617034 -0.08684181 -0.08748192
 -0.08809181 -0.08867013 -0.08921643 -0.08973242 -0.0902181 -0.09067661 -0.09110812 -0.09151506 -0.09189761 -0.09225947
 -0.09260131 -0.09293019 -0.09324659 -0.09355689 -0.09385994 -0.09415638 -0.09444379 -0.09471767 -0.09497689 -0.09521756
 -0.09544128 -0.09564762 -0.09584004 -0.09602057 -0.09619179 -0.09635553 -0.09651218 -0.09666228 -0.09680527 -0.09694095
 -0.09706995 -0.09719233 -0.09730855 -0.09741874 -0.09752043 -0.09761344 -0.09769309 -0.09775941 -0.09780992 -0.09784589
 -0.09787099 -0.09788788 -0.09790537 -0.09792669 -0.09796157 -0.09801361 -0.09809138 -0.0981975 -0.0983384 -0.09851174
 -0.0987206 -0.0989526 -0.09920591 -0.09945957 -0.09970782 -0.09993236 -0.1001275 -0.1002901 -0.100418 -0.1005235
 -0.1006071 -0.1006847 -0.1007568 -0.1008303 -0.1009045 -0.1009762 -0.1010448 -0.1011045 -0.1011559 -0.1011968
 -0.101229 -0.1012544 -0.101275 -0.1012941 -0.1013128 -0.1013335 -0.1013563 -0.1013826 -0.1014105 -0.101441
 -0.1014658 -0.1014848 -0.1014801 -0.1014483 -0.1013737 -0.1012513 -0.1010944 -0.1009016 -0.1007309 -0.100586
 -0.1005431 -0.1006027 -0.1008045 -0.1011378 -0.1015765 -0.1021028 -0.1026502 -0.103207 -0.1037158 -0.1041787
 -0.104572 -0.1049076 -0.1051874 -0.1054247 -0.1056288 -0.1058086 -0.1059708 -0.1061195 -0.1062571 -0.1063858
 -0.106506 -0.1066204 -0.1067294 -0.1068349 -0.1069373 -0.1070355 -0.1071292 -0.1072154 -0.1072944 -0.1073662
 -0.1074316 -0.1074945 -0.1075549 -0.1076158 -0.1076761 -0.1077347 -0.1077913 -0.1078446 -0.1078962 -0.1079473
 -0.1079998 -0.1080557 -0.1081141 -0.1081754 -0.1082371 -0.1082982 -0.1083578 -0.1084155 -0.1084718 -0.1085267
 -0.1085804 -0.1086327 -0.1086834 -0.1087325 -0.1087811 -0.1088291 -0.1088773 -0.1089251 -0.1089698 -0.1090112
 -0.1090459 -0.1090756 -0.1091012 -0.1091259 -0.1091551 -0.1091901 -0.1092353 -0.1092881 -0.1093489 -0.1094131
 -0.1094787 -0.1095429 -0.1096041 -0.109662 -0.1097163 -0.1097676 -0.1098159 -0.1098613 -0.1099038 -0.1099434
 -0.1099802 -0.1100156 -0.1100498 -0.1100858 -0.1101237 -0.1101661 -0.1102125 -0.1102627 -0.1103158 -0.1103696
 -0.1104238 -0.1104765 -0.1105283 -0.1105793 -0.11063 -0.1106813 -0.1107327 -0.1107844 -0.1108355 -0.1108857
 -0.1109356 -0.110985 -0.1110358 -0.1110884 -0.1111443 -0.1112037 -0.1112668 -0.1113335 -0.1114025 -0.1114737
 -0.1115447 -0.1116152 -0.1116825 -0.1117464 -0.1118051 -0.1118594 -0.1119094 -0.1119569 -0.1120042 -0.1120533
 -0.112107 -0.1121667 -0.1122343 -0.1123096 -0.1123936 -0.1124839 -0.1125806 -0.1126789 -0.1127782 -0.1128732
 -0.112963 -0.1130452 -0.1131193 -0.1131858 -0.1132449 -0.1132976 -0.1133439 -0.1133844 -0.113419 -0.1134486
 -0.1134735 -0.1134956 -0.1135147 -0.1135316 -0.1135461 -0.1135575 -0.1135665 -0.1135734 -0.1135803 -0.1135888
 -0.1136006 -0.1136173 -0.113638 -0.1136629 -0.1136897 -0.1137179 -0.1137459 -0.1137734 -0.1137999 -0.1138255
 -0.1138507 -0.1138757 -0.1139016 -0.1139284 -0.1139573 -0.1139881 -0.1140211 -0.1140561 -0.1140926 -0.1141306
 -0.1141695 -0.1142093 -0.1142497 -0.1142904 -0.1143312 -0.1143717 -0.1144117 -0.1144503 -0.1144874 -0.1145224
 -0.1145549 -0.1145852 -0.1146131 -0.1146408 -0.1146687 -0.1146995 -0.1147336 -0.1147717 -0.1148138 -0.1148579
 -0.1149038 -0.1149499 -0.1149964 -0.1150436 -0.1150917 -0.1151414 -0.1151923 -0.1152439 -0.1152963 -0.1153493
 -0.1154035 -0.11546 -0.115519 -0.1155813 -0.1156452 -0.1157104 -0.1157745 -0.1158363 -0.1158945 -0.1159486
 -0.1159988 -0.1160451 -0.1160883 -0.1161285 -0.1161668 -0.1162033 -0.116239 -0.116274 -0.1163091 -0.1163444
 -0.1163813 -0.1164202 -0.1164628 -0.1165088 -0.1165591 -0.1166125 -0.1166675 -0.1167226 -0.116775 -0.1168239
 -0.1168672 -0.116906 -0.1169399 -0.1169713 -0.1170011 -0.1170313 -0.117063 -0.1170963 -0.1171316 -0.1171679
 -0.1172052 -0.1172428 -0.1172808 -0.1173199 -0.1173601 -0.1174017 -0.1174445 -0.1174873 -0.11753 -0.1175714
 -0.1176117 -0.1176513 -0.1176905 -0.1177301 -0.1177695 -0.1178082 -0.1178454 -0.1178795 -0.1179115 -0.1179408
 -0.1179703 -0.1180011 -0.1180347 -0.118072 -0.1181107 -0.1181508 -0.1181888 -0.1182242 -0.1182566 -0.1182861
 -0.1183157 -0.1183454 -0.118378 -0.1184133 -0.1184505 -0.118489 -0.1185256 -0.1185603 -0.1185903 -0.1186168
 -0.1186401 -0.1186618 -0.1186844 -0.1187085 -0.118736 -0.1187654 -0.1187968 -0.1188285 -0.1188594 -0.1188898
 -0.1189195 -0.1189498 -0.1189813 -0.1190137 -0.1190474 -0.1190804 -0.1191128 -0.1191431 -0.1191716 -0.1191985
 -0.1192241 -0.1192488 -0.1192723 -0.1192944 -0.119315 -0.1193336 -0.1193511 -0.1193684 -0.1193869 -0.1194087
 -0.1194353 -0.1194688 -0.1195101 -0.11956 -0.1196192 -0.119688 -0.1197667 -0.1198555 -0.119954 -0.1200625
 -0.1201795 -0.1203051 -0.1204369 -0.1205747 -0.1207152 -0.1208581 -0.1209981 -0.1211348 -0.1212621 -0.1213796
 -0.1214826 -0.1215708 -0.1216415 -0.1216943 -0.1217267 -0.1217388 -0.1217289 -0.1216994 -0.1216512 -0.1215894
 -0.1215161 -0.1214393 -0.1213619 -0.1212932 -0.1212361 -0.1211985 -0.1211826 -0.1211914 -0.1212261 -0.1212822
 -0.1213597 -0.1214455 -0.1215389 -0.121625 -0.1217039 -0.1217697 -0.1218236 -0.1218676 -0.1219025 -0.1219312
 -0.1219537 -0.121972 -0.1219854 -0.1219942 -0.121997 -0.1219926 -0.1219812 -0.1219619 -0.1219378 -0.1219097
 -0.1218813 -0.1218539 -0.1218299 -0.12181 -0.1217956 -0.121787 -0.1217841 -0.1217871 -0.1217927 -0.1218007
 -0.1218057 -0.1218078 -0.1218037 -0.1217944 -0.1217822 -0.1217682 -0.121757 -0.1217488 -0.1217463 -0.1217482
 -0.1217541 -0.1217624 -0.1217718 -0.1217813 -0.1217899 -0.121797 -0.1218017 -0.1218046 -0.1218053 -0.1218062
 -0.1218077 -0.1218125 -0.1218211 -0.1218322 -0.1218459 -0.1218571 -0.1218657 -0.1218684 -0.1218656 -0.1218588
 -0.1218485 -0.1218382 -0.1218281 -0.1218204 -0.1218146 -0.1218111 -0.121809 -0.1218075 -0.1218061 -0.1218036
 -0.1218008 -0.1217972 -0.1217947 -0.1217939 -0.1217958 -0.1218012 -0.1218086 -0.1218179 -0.1218268 -0.1218349
 -0.1218408 -0.1218442 -0.1218456 -0.121845 -0.1218434 -0.121841 -0.1218391 -0.1218378 -0.1218391 -0.1218429
 -0.1218506 -0.1218613 -0.121874 -0.1218869 -0.1218966 -0.1219023 -0.1219012 -0.121895 -0.1218835 -0.1218699
 -0.1218557 -0.121843 -0.1218328 -0.1218257 -0.121822 -0.1218224 -0.1218269 -0.1218363 -0.1218508 -0.1218698
 -0.1218934 -0.1219203 -0.1219502 -0.1219815 -0.1220139 -0.1220457 -0.1220767 -0.1221056 -0.1221327 -0.1221579
 -0.1221825 -0.1222079 -0.1222348 -0.122265 -0.1222974 -0.1223322 -0.1223666 -0.1223997 -0.1224291 -0.1224535
 -0.1224737 -0.1224896 -0.1225038 -0.122517 -0.1225305 -0.1225446 -0.1225581 -0.122571 -0.1225822 -0.1225919
 -0.1226008 -0.122609 -0.1226179 -0.1226273 -0.1226374 -0.1226479 -0.1226583 -0.122668 -0.1226763 -0.1226819
 -0.1226835 -0.1226808 -0.1226726 -0.1226611 -0.1226465 -0.1226325 -0.1226204 -0.1226125 -0.1226095 -0.1226111
 -0.1226175 -0.1226269 -0.1226394 -0.1226532 -0.122668 -0.1226809 -0.1226916 -0.122697 -0.1226969 -0.1226898
 -0.1226765 -0.1226584 -0.1226364 -0.1226131 -0.122589 -0.1225659 -0.1225443 -0.1225248 -0.1225077 -0.1224936
 -0.1224828 -0.1224757 -0.1224721 -0.1224721 -0.1224757 -0.1224827 -0.1224941 -0.12251 -0.1225311 -0.1225576
 -0.1225886 -0.1226241 -0.1226616 -0.1227009 -0.1227396 -0.1227775 -0.1228131 -0.1228462 -0.1228756 -0.1229016
 -0.1229238 -0.1229432 -0.1229611 -0.1229791 -0.1229995 -0.1230228 -0.1230506 -0.1230811 -0.1231142 -0.1231468
 -0.1231778 -0.1232059 -0.1232303 -0.1232529 -0.1232739 -0.1232961 -0.1233198 -0.123346 -0.1233747 -0.1234042
 -0.1234343 -0.1234619 -0.1234867 -0.1235049 -0.1235163 -0.123518 -0.1235109 -0.1234947 -0.1234717 -0.1234449
 -0.1234165 -0.1233902 -0.1233661 -0.1233456 -0.1233272 -0.1233103 -0.1232939 -0.1232775 -0.123262 -0.1232474
 -0.1232347 -0.1232241 -0.1232152 -0.123208 -0.1232023 -0.123198 -0.1231959 -0.123196 -0.1231989 -0.1232043
 -0.1232112 -0.1232193 -0.1232274 -0.1232352 -0.1232418 -0.1232473 -0.1232514 -0.1232553 -0.1232596 -0.1232658
 -0.1232754 -0.1232882 -0.1233054 -0.1233238 -0.123343 -0.1233596 -0.1233725 -0.1233815 -0.1233863 -0.12339
 -0.1233928 -0.123397 -0.1234026 -0.1234092 -0.1234167 -0.1234231 -0.1234286 -0.1234323 -0.1234344 -0.1234354
 -0.1234354 -0.123435 -0.1234337 -0.1234313 -0.1234275 -0.1234216 -0.1234143 -0.1234057 -0.1233967 -0.1233882
 -0.1233804 -0.1233737 -0.1233679 -0.1233628 -0.1233583 -0.1233543 -0.1233507 -0.1233478 -0.1233446 -0.1233412
 -0.1233366 -0.1233306 -0.1233228 -0.1233133 -0.1233023 -0.1232897 -0.1232754 -0.1232593 -0.1232412 -0.1232218
 -0.1232019 -0.1231828 -0.1231667 -0.1231538 -0.1231457 -0.1231406 -0.1231381 -0.1231365 -0.1231347 -0.1231328
 -0.1231305 -0.1231288 -0.1231283 -0.1231273 -0.1231257 -0.1231198 -0.1231094 -0.1230923 -0.1230687 -0.1230404
 -0.1230078 -0.1229734 -0.1229373 -0.1229004 -0.1228625 -0.1228234 -0.122783 -0.1227415 -0.1226991 -0.1226561
 -0.1226128 -0.1225694 -0.1225262 -0.1224832 -0.1224407 -0.1223989 -0.1223577 -0.1223173 -0.1222776 -0.1222389
 -0.1222005 -0.1221627 -0.1221239 -0.122084 -0.1220413 -0.121996 -0.1219495 -0.1219022 -0.1218584 -0.1218182
 -0.1217852 -0.1217585 -0.1217378 -0.1217214 -0.121706 -0.1216907 -0.121673 -0.1216543 -0.1216346 -0.1216164
 -0.1216015 -0.1215903 -0.1215839 -0.1215796 -0.1215773 -0.1215734 -0.1215671 -0.1215571 -0.121543 -0.1215261
 -0.1215064 -0.1214872 -0.1214687 -0.1214543 -0.1214438 -0.1214391 -0.1214395 -0.1214442 -0.1214526 -0.1214625
 -0.1214737 -0.1214848 -0.121496 -0.1215071 -0.1215183 -0.1215293 -0.1215405 -0.1215518 -0.1215639 -0.1215766
 -0.1215916 -0.1216093 -0.1216313 -0.1216579 -0.1216902 -0.1217285 -0.1217726 -0.1218224 -0.1218771 -0.1219364
 -0.1219978 -0.1220611 -0.1221222 -0.1221806 -0.1222326 -0.1222784 -0.1223165 -0.1223476 -0.1223725 -0.1223916
 -0.1224061 -0.1224162 -0.1224221 -0.1224247 -0.1224243 -0.1224214 -0.1224164 -0.122409 -0.1223991 -0.1223868
 -0.1223719 -0.1223563 -0.1223401 -0.1223251 -0.1223116 -0.1222984 -0.1222855 -0.1222701 -0.1222523 -0.1222313
 -0.122208 -0.1221849 -0.1221624 -0.1221431 -0.122126 -0.1221103 -0.1220947 -0.1220768 -0.1220572 -0.1220351
 -0.1220129 -0.1219918 -0.1219729 -0.1219576 -0.1219441 -0.1219323 -0.1219199 -0.1219062 -0.121891 -0.1218741
 -0.1218584 -0.121844 -0.1218336 -0.1218271 -0.1218236 -0.1218223 -0.1218179 -0.1218103 -0.121795 -0.1217732
 -0.1217458 -0.1217143 -0.1216831 -0.121652 -0.1216232 -0.1215949 -0.121566 -0.1215356 -0.1215025 -0.1214676
 -0.1214311 -0.1213934 -0.121355 -0.1213145 -0.1212718 -0.121226 -0.1211766 -0.1211258 -0.1210738 -0.1210243
 -0.1209776 -0.1209357 -0.1208986 -0.1208652 -0.120835 -0.1208054 -0.1207758 -0.1207431 -0.1207068 -0.1206639
 -0.1206152 -0.1205597 -0.1205003 -0.1204394 -0.120379 -0.1203218 -0.1202662 -0.1202121 -0.1201571 -0.1201001
 -0.1200419 -0.1199823 -0.1199236 -0.1198663 -0.1198094 -0.1197528 -0.1196932 -0.1196305 -0.119563 -0.1194909
 -0.1194148 -0.119335 -0.1192534 -0.1191707 -0.1190899 -0.1190117 -0.1189391 -0.1188713 -0.1188091 -0.1187503
 -0.1186933 -0.1186365 -0.1185782 -0.118518 -0.1184554 -0.118391 -0.1183248 -0.1182578 -0.1181901 -0.118122
 -0.1180538 -0.1179845 -0.117914 -0.1178416 -0.1177673 -0.1176924 -0.1176169 -0.1175427 -0.1174695 -0.1173966
 -0.1173231 -0.1172457 -0.1171641 -0.1170753 -0.116981 -0.116882 -0.1167807 -0.1166805 -0.1165821 -0.1164875
 -0.1163943 -0.116302 -0.1162086 -0.1161126 -0.1160161 -0.1159189 -0.1158247 -0.1157341 -0.1156464 -0.1155616
 -0.1154739 -0.1153828 -0.1152816 -0.1151704 -0.1150474 -0.1149135 -0.1147733 -0.114628 -0.1144833 -0.1143388
 -0.1141968 -0.1140557 -0.1139139 -0.1137705 -0.1136239 -0.1134747 -0.1133227 -0.1131691 -0.1130146 -0.1128584
 -0.1127011 -0.1125392 -0.1123726 -0.112197 -0.1120116 -0.1118172 -0.1116136 -0.1114088 -0.1112032 -0.1110035
 -0.1108091 -0.110618 -0.1104294 -0.1102382 -0.1100454 -0.109851 -0.1096552 -0.1094598 -0.1092618 -0.1090574
 -0.1088438 -0.1086151 -0.1083745 -0.1081216 -0.1078632 -0.107603 -0.1073424 -0.1070834 -0.1068226 -0.1065595
 -0.1062927 -0.1060217 -0.1057461 -0.1054662 -0.1051752 -0.1048726 -0.1045436 -0.1041881 -0.1037957 -0.1033693
 -0.1029173 -0.1024422 -0.1019589 -0.1014633 -0.1009553 -0.1004269 -0.09986583 -0.09926731 -0.09862197 -0.09792723
 -0.09718129 -0.0963732 -0.09550048 -0.09454243 -0.09349062 -0.09233588 -0.09106994 -0.08971754 -0.08827761 -0.08680012
 -0.08528865 -0.08379 -0.08230659 -0.08086423 -0.07946134 -0.07809238 -0.07674996 -0.07539275 -0.07401311 -0.07255761
 -0.07103826 -0.06944692 -0.06781941 -0.0662111 -0.06463654 -0.06314219 -0.061699 -0.06030273 -0.05891853 -0.05752422
 -0.05611204 -0.05467311 -0.05321435 -0.05173714 -0.05023962 -0.04872122 -0.04718342 -0.04562528 -0.04406531 -0.04250451
 -0.0409625 -0.03944141 -0.03796708 -0.03654827 -0.03524447 -0.03406853 -0.03309515 -0.03233156 -0.03182999 -0.03159303
 -0.03165406 -0.03199266 -0.03261655 -0.03345248 -0.03445484 -0.03554858 -0.03667771 -0.03782272 -0.03896584 -0.04010024
 -0.04122504 -0.04231566 -0.04336648 -0.04437466 -0.04533694 -0.04629334 -0.04724591 -0.04823922 -0.04927249 -0.05034908
 -0.05146306 -0.05257981 -0.05369904 -0.05479884 -0.05588853 -0.05697939 -0.05807827 -0.05920454 -0.06035164 -0.06152426
 -0.0627009 -0.06386901 -0.06500483 -0.06609118 -0.06711971 -0.06808211 -0.06898361 -0.06982471 -0.07060682 -0.07133128
 -0.07198983 -0.07258163 -0.07310289 -0.07355336 -0.07394063 -0.07426508 -0.0745339 -0.07474665 -0.07490349 -0.07500479
 -0.07505095 -0.0750448 -0.0749929 -0.07489835 -0.0747692 -0.07460724 -0.07441721 -0.0742009 -0.07396097 -0.07369896
 -0.07341679 -0.07311352 -0.07278962 -0.07244228 -0.07207093 -0.0716734 -0.07124946 -0.0707964 -0.07031407 -0.0697986
 -0.06924975 -0.06866822 -0.06805473 -0.06741866 -0.06676202 -0.06610018 -0.06543765 -0.06479709 -0.06418602 -0.06363506
 -0.0631461 -0.06274071 -0.06240453 -0.06213271 -0.061902 -0.06169245 -0.06148775 -0.06127228 -0.06104343 -0.0607968
 -0.06053369 -0.06025604 -0.05995247 -0.05962345 -0.05924362 -0.05880966 -0.05831259 -0.05775128 -0.05716687 -0.05656273
 -0.05599754 -0.05547152 -0.05501439 -0.05462467 -0.05431193 -0.05407675 -0.05392586 -0.05385886 -0.05387753 -0.05398276
 -0.05417211 -0.05445938 -0.05485178 -0.05537074 -0.05603582 -0.05683908 -0.05778969 -0.05884321 -0.05999123 -0.06119466
 -0.06244638 -0.06371798 -0.0650073 -0.06627671 -0.06752392 -0.06871304 -0.06984338 -0.07090126 -0.07188771 -0.07280321
 -0.07364768 -0.07441956 -0.07512103 -0.07575304 -0.07632709 -0.07685941 -0.07737061 -0.0778911 -0.07843751 -0.07903747
 -0.07968701 -0.08039611 -0.08114006 -0.0819127 -0.08269027 -0.08346526 -0.08422426 -0.08496583 -0.08566817 -0.08633003
 -0.0869199 -0.08743542 -0.08787148 -0.08822934 -0.08853275 -0.08878328 -0.0890034 -0.08919217 -0.08935836 -0.08949913
 -0.08961301 -0.08969423 -0.089734 -0.08972229 -0.08964508 -0.08949007 -0.08924363 -0.08889343 -0.08843245 -0.08783967
 -0.08711384 -0.08620391 -0.08510409 -0.08373458 -0.08207949 -0.08008938 -0.07775036 -0.07511009 -0.07216886 -0.06905263
 -0.0657694 -0.06245476 -0.0591267 -0.05595447 -0.05299589 -0.05055823 -0.04872942 -0.04792313 -0.04813263 -0.04961843
 -0.05211589 -0.05546949 -0.05923146 -0.06295776 -0.06635011 -0.06906176 -0.07111705 -0.07240535 -0.0731791 -0.07346806
 -0.07356812 -0.07354058 -0.07355849 -0.07365455 -0.07385867 -0.07417624 -0.07457016 -0.07503789 -0.07552928 -0.07604215
 -0.07653676 -0.07701349 -0.07745202 -0.0778554 -0.07822124 -0.07855285 -0.07885711 -0.07913121 -0.07937665 -0.07958338
 -0.07974309 -0.07984802 -0.07989023 -0.07986858 -0.07978082 -0.07962706 -0.07940606 -0.07912244 -0.07877571 -0.07837783
 -0.07793036 -0.07743959 -0.07690638 -0.07632314 -0.07568987 -0.07500455 -0.07427138 -0.07351987 -0.07275978 -0.07204817
 -0.07139377 -0.07085156 -0.07042152 -0.07013319 -0.06997228 -0.06993664 -0.06999935 -0.07013705 -0.07032438 -0.07053761
 -0.07076679 -0.0710007 -0.07124235 -0.07148973 -0.07175063 -0.07202617 -0.07232259 -0.07264134 -0.07298066 -0.07334085
 -0.07371082 -0.07408988 -0.07446466 -0.07483466 -0.07519034 -0.07553117 -0.07584988 -0.0761458 -0.07641324 -0.07665171
 -0.0768584 -0.07703108 -0.07716679 -0.07726039 -0.07730626 -0.07730031 -0.07723738 -0.07711881 -0.07694314 -0.07671563
 -0.07643806 -0.07611239 -0.07574315 -0.07530854 -0.0748143 -0.07416818 -0.07336847 -0.07222118 -0.0707169 -0.06866632
 -0.06609669 -0.06311306 -0.05983738 -0.05687062 -0.05434799 -0.0530434 -0.05286032 -0.0540721 -0.05627972 -0.05908331
 -0.06205741 -0.06462942 -0.06661887 -0.0677121 -0.06796021 -0.06728429 -0.06587397 -0.06370354 -0.0612475 -0.05851856
 -0.05636957 -0.05490159 -0.05482832 -0.05624044 -0.05895066 -0.0629288 -0.0671469 -0.07154959 -0.0751843 -0.07810939
 -0.08007923 -0.08122458 -0.08181185 -0.08192363 -0.08186147 -0.08163526 -0.08138292 -0.08109467 -0.08080488 -0.08051229
 -0.08022565 -0.07994214 -0.07966407 -0.07938204 -0.07909415 -0.0787908 -0.07846982 -0.07812428 -0.07775279 -0.07735304
 -0.0769245 -0.07647043 -0.07599112 -0.07549445 -0.07498135 -0.0744632 -0.07394131 -0.07342861 -0.07292484 -0.07243759
 -0.07196204 -0.0714942 -0.0710237 -0.07053675 -0.07001756 -0.0694496 -0.06880905 -0.068082 -0.06722794 -0.06623501
 -0.06503504 -0.06361315 -0.06187943 -0.0598138 -0.05734652 -0.05445828 -0.05116722 -0.04746506 -0.0435227 -0.03935301
 -0.03531952 -0.03146197 -0.02830607 -0.02589481 -0.02474505 -0.02482875 -0.02638023 -0.02923198 -0.03319279 -0.0379895
 -0.04316184 -0.04845584 -0.05344005 -0.05798791 -0.06186228 -0.06509002 -0.06760655 -0.06954177 -0.07091359 -0.07187638
 -0.07246287 -0.07279758 -0.07290157 -0.07285542 -0.07266769 -0.07238852 -0.07202074 -0.07159941 -0.07112578 -0.0706256
 -0.07009904 -0.06956231 -0.06901146 -0.06844632 -0.06785417 -0.06720798 -0.06649665 -0.06568044 -0.06478709 -0.06381091
 -0.06284066 -0.06193009 -0.06117131 -0.06063807 -0.06032474 -0.06026072 -0.06035014 -0.06057173 -0.06088058 -0.06125532
 -0.06178046 -0.06246034 -0.06338927 -0.06457084 -0.06594127 -0.06748392 -0.06898943 -0.07044451 -0.07166143 -0.07265584
 -0.07337451 -0.07385308 -0.07414308 -0.0742752 -0.07431975 -0.07429156 -0.07423305 -0.0741472 -0.07404907 -0.07393691
 -0.07381317 -0.07367639 -0.07352635 -0.07336275 -0.07318544 -0.07299452 -0.07278981 -0.07257265 -0.07234303 -0.07210366
 -0.0718547 -0.07159716 -0.07133086 -0.07105356 -0.07076497 -0.07046226 -0.07014538 -0.06981295 -0.0694647 -0.06909937
 -0.06871691 -0.06831669 -0.06789887 -0.06746397 -0.0670104 -0.06653808 -0.06604249 -0.0655216 -0.06497118 -0.06438895
 -0.06377417 -0.06312609 -0.06244593 -0.06173378 -0.06099069 -0.06021689 -0.05941122 -0.05857364 -0.05770093 -0.05679295
 -0.05584732 -0.054864 -0.05384262 -0.05278109 -0.05167425 -0.05051504 -0.0492873 -0.04797849 -0.046565 -0.04502811
 -0.04334422 -0.04148173 -0.03942031 -0.03710091 -0.03450369 -0.03152687 -0.02814003 -0.02422681 -0.01973752 -0.01468349
 -0.009017765 -0.003085745 0.00311413 0.008884277 0.0141861 0.01831844 0.02127456 0.02279194 0.02293408 0.02193203
 0.01987415 0.01717983 0.01393653 0.01052911 0.007077892 0.003924341 0.00121285 -0.0007645838 -0.001917173 -0.002071511
 -0.001224709 0.0006677325 0.003592663 0.007542043 0.01255983 0.01865877 0.02585985 0.03419798 0.04346321 0.05366701
 0.06425928 0.07521087 0.08581338 0.09603848 0.1053572 0.11377 0.12103 0.1271188 0.1318563 0.1351773
 0.1368255 0.1367729 0.1348235 0.1310723 0.1255159 0.1183622 0.1097268 0.09992773 0.0891032 0.07771352
 0.06591035 0.05421705 0.04278199 0.03199596 0.02195569 0.01280689 0.004582818 -0.002757431 -0.009213699 -0.0148973
 -0.01981547 -0.02408922 -0.02772911 -0.03085827 -0.03349331 -0.0357584 -0.03767372 -0.03934943 -0.04080223 -0.04211008
 -0.04328011 -0.04435203 -0.0453229 -0.046204 -0.0469871 -0.04767092 -0.04824702 -0.04871256 -0.04905917 -0.04928617
 -0.04937848 -0.04933796 -0.04912353 -0.0487372 -0.04807502 -0.04713203 -0.0457383 -0.04389077 -0.04149517 -0.03860176
 -0.03545587 -0.03220045 -0.02951275 -0.02752396 -0.02697759 -0.02776247 -0.03012064 -0.03363445 -0.03793534 -0.04255607
 -0.04695977 -0.0509293 -0.05415093 -0.05671097 -0.05854868 -0.0598824 -0.06075423 -0.06134932 -0.06170667 -0.06193667
 -0.06205574 -0.06212481 -0.06214879 -0.06216326 -0.06216948 -0.06218863 -0.06222046 -0.06227434 -0.06234886 -0.06244339
 -0.06255666 -0.06268498 -0.06282788 -0.06298335 -0.06314996 -0.06332599 -0.06350785 -0.06369236 -0.06387559 -0.06405459
 -0.06422614 -0.06438828 -0.06453933 -0.06467803 -0.06480584 -0.06492248 -0.06503157 -0.06513347 -0.06523065 -0.06532327
 -0.06541355 -0.06550165 -0.06559049 -0.06568007 -0.06577185 -0.0658655 -0.06596022 -0.0660563 -0.06615377 -0.06625388
 -0.06635891 -0.0664698 -0.06658895 -0.06671597 -0.06685217 -0.0669943 -0.06714226 -0.06728801 -0.06742909 -0.06755619
 -0.06766598 -0.0677541 -0.06781878 -0.06786124 -0.06788144 -0.06788056 -0.06785876 -0.0678136 -0.06774478 -0.06764676
 -0.06751889 -0.06735411 -0.06715158 -0.06690459 -0.06661133 -0.06626541 -0.06586071 -0.0653868 -0.0648282 -0.06416746
 -0.06337258 -0.06241708 -0.06125198 -0.05983719 -0.05815024 -0.05614593 -0.05392615 -0.05147292 -0.04906439 -0.0467324
 -0.04479991 -0.04331857 -0.04240486 -0.0420785 -0.0421533 -0.04261483 -0.04315014 -0.04375001 -0.04419862 -0.04450741
 -0.04460844 -0.04452223 -0.04426158 -0.04386326 -0.04338638 -0.04290337 -0.04252357 -0.04233062 -0.04244829 -0.04289662
 -0.04374934 -0.04491029 -0.04637887 -0.04797768 -0.04966306 -0.05127049 -0.05275728 -0.05404731 -0.05511995 -0.05599999
 -0.05668576 -0.05725787 -0.05772034 -0.0581471 -0.05853839 -0.05892896 -0.05931561 -0.0597028 -0.06008746 -0.06046411
 -0.06082894 -0.06117307 -0.06149114 -0.06177167 -0.06201296 -0.06220753 -0.06236147 -0.06247563 -0.06255848 -0.06261434
 -0.06264718 -0.06265914 -0.0626514 -0.06262424 -0.06258011 -0.06251942 -0.06244326 -0.06235182 -0.06224372 -0.06211898
 -0.06197869 -0.06182328 -0.06165746 -0.06148101 -0.06129596 -0.0611006 -0.0608907 -0.06066541 -0.0604197 -0.06015687
 -0.05987798 -0.05959017 -0.05930037 -0.05901469 -0.05874032 -0.05847641 -0.05822533 -0.05798103 -0.05774181 -0.05750462
 -0.05726806 -0.05703396 -0.05680269 -0.05657335 -0.05634619 -0.05611404 -0.05587646 -0.05562446 -0.05535763 -0.05506853
 -0.05475679 -0.05441615 -0.0540472 -0.05364783 -0.05322021 -0.05276848 -0.05229235 -0.05179549 -0.05127019 -0.05071261
 -0.05010879 -0.0494489 -0.04872109 -0.04791614 -0.04703303 -0.04606896 -0.0450289 -0.04391744 -0.04271542 -0.04142858
 -0.03997289 -0.03834656 -0.03639339 -0.03410513 -0.03132175 -0.02805243 -0.024287 -0.02010322 -0.01582747 -0.01163834
 -0.008240488 -0.005805806 -0.005102148 -0.006027099 -0.00888478 -0.01315999 -0.01852627 -0.02431344 -0.02995067 -0.03504445
 -0.03920934 -0.04250429 -0.0448268 -0.04649857 -0.04756149 -0.04832037 -0.04882569 -0.04924326 -0.04959346 -0.04992848
 -0.05025075 -0.05055 -0.05082348 -0.05103921 -0.05119722 -0.05127941 -0.05129148 -0.05124126 -0.05113596 -0.05099441
 -0.05082212 -0.05063459 -0.05043646 -0.05023769 -0.05004195 -0.04985512 -0.04967772 -0.0495124 -0.04935492 -0.04920502
 -0.04905651 -0.04890765 -0.04875609 -0.04860058 -0.04844654 -0.04829424 -0.04814978 -0.04801339 -0.04788345 -0.04775922
 -0.04763209 -0.04750148 -0.04735938 -0.04720664 -0.04704106 -0.04686551 -0.0466846 -0.0465021 -0.04632654 -0.04615794
 -0.04600119 -0.04584999 -0.04570192 -0.04554985 -0.04538864 -0.04521771 -0.04503487 -0.04484504 -0.04464884 -0.04445072
 -0.04425142 -0.04405358 -0.04385747 -0.04366545 -0.04347767 -0.0432952 -0.04311785 -0.04294369 -0.04277204 -0.04259818
 -0.04242167 -0.04223804 -0.04204828 -0.04185188 -0.04165121 -0.0414496 -0.04124912 -0.04105353 -0.04086328 -0.04068041
 -0.04050298 -0.04033129 -0.04016071 -0.03999015 -0.03981419 -0.03963079 -0.03943993 -0.03924042 -0.03904048 -0.0388405
 -0.03865095 -0.0384724 -0.03831103 -0.03816653 -0.03803776 -0.03792286 -0.03781136 -0.03770025 -0.03757307 -0.03742914
 -0.03725728 -0.03706183 -0.03684399 -0.03660996 -0.03636739 -0.03611951 -0.03587143 -0.03562371 -0.03537774 -0.03513396
 -0.03489234 -0.03465518 -0.03442253 -0.03419889 -0.03398505 -0.03378363 -0.03359541 -0.03341502 -0.0332422 -0.03306556
 -0.03288482 -0.03269313 -0.03249123 -0.03227992 -0.03206005 -0.03183455 -0.03160466 -0.0313735 -0.03114484 -0.03092544
 -0.03072018 -0.03053796 -0.03037923 -0.03024878 -0.03014038 -0.03005343 -0.02997733 -0.02990876 -0.02983768 -0.02976072
 -0.02967365 -0.02957457 -0.02946767 -0.02935286 -0.02923832 -0.02912455 -0.02901504 -0.02890954 -0.02880522 -0.02870176
 -0.02859552 -0.02848694 -0.02837606 -0.02826266 -0.02814705 -0.02802675 -0.02789736 -0.02775819 -0.02760367 -0.02744355
 -0.02728087 -0.02713328 -0.02701298 -0.02692496 -0.02688083 -0.02684974 -0.02683081 -0.02677201 -0.02666033 -0.02649443
 -0.02626945 -0.02603801 -0.02580304 -0.02559648 -0.02541796 -0.02526559 -0.02513769 -0.02502288 -0.02492093 -0.02482524
 -0.0247359 -0.02465023 -0.02456741 -0.0244851 -0.024402 -0.02431596 -0.02422534 -0.02412783 -0.02402336 -0.02390994
 -0.02379301 -0.0236736 -0.02355871 -0.02345145 -0.02335003 -0.02325572 -0.02315759 -0.02305429 -0.02294212 -0.02282056
 -0.0227032 -0.02259103 -0.02250276 -0.02243758 -0.0224002 -0.02238702 -0.02238679 -0.0223966 -0.02240232 -0.02240566
 -0.02240215 -0.02239725 -0.02239637 -0.02240193 -0.02241945 -0.02244411 -0.0224754 -0.02250636 -0.02253455 -0.0225538
 -0.02256328 -0.02255245 -0.02251988 -0.02245437 -0.02235364 -0.02222135 -0.0220573 -0.02188247 -0.02169782 -0.02152154
 -0.02135267 -0.02119341 -0.02104183 -0.02089156 -0.02074155 -0.02058595 -0.02042443 -0.02025312 -0.02007382 -0.01988614
 -0.01969506 -0.01950438 -0.01931868 -0.01914236 -0.01897541 -0.01881934 -0.01867102 -0.01853 -0.01839329 -0.01826079
 -0.01812714 -0.01799198 -0.01784827 -0.01769537 -0.01753441 -0.01736628 -0.01720737 -0.01705971 -0.01694648 -0.01686724
 -0.01683464 -0.01684257 -0.01688359 -0.01694673 -0.01700984 -0.01706249 -0.01708167 -0.01706479 -0.01699934 -0.01689428
 -0.01674915 -0.01658048 -0.01639371 -0.01620528 -0.01602063 -0.01585058 -0.01569848 -0.01556643 -0.0154556 -0.01536011
 -0.0152797 -0.01520703 -0.01514198 -0.01508335 -0.01503144 -0.01498925 -0.01495486 -0.0149235 -0.0148896 -0.01483527
 -0.01475718 -0.01463741 -0.01448456 -0.01429921 -0.01409941 -0.01390246 -0.01371759 -0.01355923 -0.01341655 -0.01328898
 -0.01316384 -0.01303362 -0.01290979 -0.01279053 -0.01270553 -0.01265847 -0.01266615 -0.01273058 -0.01284137 -0.01299745
 -0.01317585 -0.01337497 -0.01357331 -0.0137682 -0.01393759 -0.01407781 -0.01416546 -0.01420299 -0.01418 -0.01411137
 -0.01400968 -0.01389514 -0.01379145 -0.01370833 -0.01366121 -0.01364377 -0.01365908 -0.01369133 -0.01373776 -0.01378072
 -0.01381615 -0.01383378 -0.01383054 -0.01381505 -0.01378725 -0.01377038 -0.01376481</values></Ydata></AB><ScSm><Ydata ylabel="Single channel"><values byteorder="INTEL" format="FLOAT32" numvalues="1814"> 0.08523639 0.08535524 0.08549117 0.08565187 0.08582965 0.08600746 0.08617026 0.08631341 0.08644062 0.08655423
 0.08665587 0.08675858 0.08688463 0.08704316 0.08721749 0.08737788 0.08750476 0.08760571 0.08771448 0.0878596
 0.08802412 0.08814696 0.08817853 0.08813457 0.08808731 0.08810064 0.08818789 0.08834837 0.08860891 0.08895837
 0.08925667 0.08932586 0.0891729 0.08901998 0.08905859 0.08925941 0.08946327 0.08955648 0.08951396 0.08938883
 0.08934124 0.08958711 0.09020147 0.09095916 0.09140584 0.09112222 0.09000329 0.08840609 0.08706158 0.08669348
 0.0874989 0.08893014 0.09010309 0.09050912 0.09029266 0.08987712 0.08952289 0.0893175 0.08936836 0.08978391
 0.09049366 0.09117913 0.09139955 0.09087999 0.08982289 0.0888718 0.08858843 0.08901821 0.08988582 0.09092854
 0.09164526 0.09104745 0.08853294 0.08521084 0.08355746 0.08513065 0.08894019 0.09247719 0.09399942 0.0934563
 0.09176569 0.09000207 0.08911088 0.08958527 0.09114431 0.09301122 0.09453133 0.09534849 0.09523936 0.09421504
 0.09273563 0.09151784 0.09113683 0.09185877 0.09353212 0.09542417 0.09651409 0.09629732 0.09516367 0.09389076
 0.09307111 0.09308702 0.09414146 0.09601726 0.09809256 0.09980178 0.1009332 0.1015061 0.101629 0.1014769
 0.1012069 0.1009366 0.1008604 0.1011508 0.1016203 0.1017601 0.1013057 0.1005958 0.1002297 0.1004497
 0.1009338 0.1011849 0.1010237 0.1004967 0.09937172 0.09725116 0.09438796 0.09181149 0.09032257 0.08993381
 0.09052604 0.09218562 0.09440613 0.09584533 0.09567662 0.09470278 0.09448696 0.09566175 0.09753233 0.09909083
 0.09999636 0.1006278 0.1014902 0.1026436 0.103561 0.1035164 0.1023244 0.1008036 0.1002351 0.1011237
 0.1027047 0.1038837 0.1043868 0.1047288 0.1053065 0.1058267 0.105563 0.1041339 0.1021594 0.1010462
 0.1018287 0.1041433 0.1064167 0.1070549 0.1055777 0.1028788 0.1004769 0.0994236 0.09989475 0.1016229
 0.1042711 0.1072707 0.1097344 0.1109056 0.1106803 0.1095851 0.1082031 0.1066295 0.1046807 0.1027462
 0.102014 0.103361 0.1062282 0.1090655 0.1107607 0.1112581 0.1109304 0.1098275 0.1077731 0.1051407
 0.1032042 0.1031949 0.1049 0.1067142 0.1073481 0.1070355 0.1068019 0.1070623 0.1073934 0.1073959
 0.1072883 0.1075954 0.1084776 0.1095271 0.1102014 0.1103227 0.1101161 0.1098901 0.1097448 0.1095151
 0.109026 0.1084857 0.1084698 0.1093162 0.1106721 0.1118475 0.1124938 0.1127429 0.1127918 0.1125664
 0.1118498 0.1107116 0.1097157 0.1095229 0.1102491 0.1113767 0.1123029 0.1127897 0.1129066 0.1128036
 0.1126081 0.1123901 0.112182 0.1120688 0.1121748 0.1124981 0.1128602 0.1130842 0.1131408 0.1130859
 0.1129443 0.1127101 0.1124185 0.1121705 0.1120724 0.1121513 0.1123455 0.1125695 0.1127515 0.1128263
 0.1127587 0.1125891 0.1124059 0.1122643 0.112166 0.1121119 0.1121251 0.1122097 0.1123209 0.1123972
 0.1124125 0.1123808 0.1123215 0.1122408 0.112146 0.1120594 0.1120106 0.1120184 0.1120725 0.1121361
 0.1121871 0.1122459 0.1123333 0.1124139 0.1124262 0.1123634 0.1122844 0.1122483 0.1122675 0.1123192
 0.1123706 0.1123887 0.1123444 0.1122328 0.1121009 0.1120335 0.1120895 0.1122574 0.1124834 0.1127171
 0.1129168 0.1130518 0.1131266 0.1131797 0.1132369 0.1132878 0.1133163 0.1133347 0.1133811 0.1134899
 0.1136593 0.1138496 0.1140165 0.1141406 0.1142249 0.1142882 0.1143662 0.1144825 0.1146074 0.1146816
 0.1146954 0.1147094 0.1147815 0.1148999 0.1150029 0.1150516 0.115065 0.1150908 0.1151529 0.1152349
 0.1153104 0.1153762 0.1154493 0.1155382 0.1156187 0.1156454 0.1155983 0.1155119 0.1154431 0.1154148
 0.1154088 0.1154102 0.1154278 0.1154667 0.1155038 0.1155058 0.1154642 0.1154039 0.1153516 0.1153051
 0.115239 0.1151399 0.1150219 0.1149089 0.114812 0.1147261 0.1146401 0.1145451 0.1144362 0.1143118
 0.114173 0.1140238 0.1138682 0.113711 0.1135649 0.113452 0.1133796 0.1133147 0.1132019 0.1130158
 0.1127886 0.1125786 0.1124192 0.1122994 0.1121873 0.1120633 0.1119336 0.1118169 0.1117257 0.1116596
 0.1116107 0.111573 0.1115512 0.1115625 0.1116216 0.111717 0.1118096 0.1118653 0.1118874 0.1119082
 0.1119546 0.1120289 0.1121194 0.1122158 0.1123182 0.1124355 0.1125732 0.1127181 0.112846 0.112949
 0.1130461 0.1131638 0.113317 0.1135054 0.1137117 0.1139025 0.1140509 0.1141665 0.114289 0.1144474
 0.1146357 0.114834 0.1150356 0.1152487 0.1154802 0.1157288 0.1159929 0.1162749 0.1165785 0.1169009
 0.1172296 0.1175484 0.1178516 0.118155 0.1184868 0.118863 0.1192726 0.119688 0.1200882 0.1204731
 0.1208578 0.1212536 0.1216581 0.1220645 0.1224775 0.1229092 0.1233607 0.1238189 0.1242729 0.1247254
 0.1251844 0.1256511 0.12612 0.1265884 0.1270632 0.1275551 0.1280611 0.128556 0.1290126 0.1294296
 0.1298349 0.13026 0.1307155 0.1311872 0.131646 0.1320672 0.1324539 0.1328363 0.1332404 0.1336602
 0.1340726 0.1344749 0.1348917 0.1353407 0.1358013 0.1362285 0.1365959 0.1369205 0.1372421 0.1375802
 0.1379186 0.1382324 0.1385216 0.1388087 0.1391081 0.1394133 0.1397185 0.140035 0.1403718 0.1407124
 0.1410274 0.1413075 0.1415674 0.141822 0.1420691 0.1422969 0.1424989 0.1426827 0.142868 0.1430709
 0.1432872 0.1435006 0.1437093 0.143932 0.1441845 0.1444636 0.1447619 0.1450834 0.1454305 0.1457879
 0.1461383 0.1464922 0.1468789 0.1473007 0.1477122 0.1480646 0.1483584 0.1486328 0.1489169 0.1492149
 0.1495328 0.1498878 0.1502859 0.150708 0.1511234 0.1515115 0.1518753 0.1522387 0.1526232 0.1530193
 0.1533893 0.1537044 0.153975 0.1542382 0.1545245 0.1548375 0.155158 0.1554619 0.1557345 0.155966
 0.1561386 0.1562285 0.156228 0.156155 0.1560271 0.1558314 0.1555309 0.1550944 0.1545098 0.1537688
 0.1528566 0.1517657 0.1505199 0.1491853 0.1478602 0.146651 0.145647 0.1449066 0.1444553 0.1442806
 0.1443233 0.1444857 0.1446684 0.1448044 0.1448554 0.144783 0.1445375 0.1440737 0.1433718 0.1424418
 0.1413166 0.1400397 0.1386582 0.1372328 0.1358662 0.1347166 0.1339653 0.1337472 0.1340899 0.1348872
 0.135914 0.1368853 0.1375574 0.1378224 0.1377296 0.1374139 0.1369971 0.136535 0.1360268 0.1354557
 0.1348239 0.1341728 0.1335758 0.1331087 0.1328228 0.1327513 0.132927 0.1333744 0.1340852 0.135023
 0.1361569 0.1374736 0.1389485 0.1405152 0.1420657 0.1434798 0.1446678 0.1456145 0.1463996 0.1471697
 0.148077 0.1492321 0.1507073 0.1525691 0.1548761 0.1576132 0.1606282 0.1636606 0.1664524 0.1688432
 0.1707863 0.1723191 0.173528 0.1745137 0.1753579 0.1761129 0.1768133 0.1774864 0.1781559 0.1788405
 0.1795522 0.1802911 0.1810428 0.1817791 0.182465 0.1830763 0.1836325 0.1842129 0.1849289 0.1858587
 0.1869976 0.1882647 0.1895603 0.1908173 0.1920091 0.1931267 0.1941658 0.195131 0.1960367 0.196898
 0.1977262 0.198527 0.1992961 0.200021 0.2006941 0.2013234 0.2019243 0.2025059 0.2030676 0.2036073
 0.2041272 0.204632 0.2051241 0.2056045 0.2060756 0.206538 0.2069833 0.2073951 0.2077634 0.2080991
 0.2084312 0.2087909 0.2092002 0.2096685 0.2101915 0.2107478 0.2113029 0.2118222 0.2122876 0.2127044
 0.2130923 0.2134683 0.2138359 0.2141904 0.214531 0.2148657 0.2152046 0.2155521 0.2159064 0.2162612
 0.2165989 0.2168844 0.2170856 0.2172246 0.2174066 0.2177708 0.218388 0.2191998 0.2200647 0.2208581
 0.2215334 0.2221077 0.2226154 0.2230808 0.2235171 0.223933 0.2243356 0.2247307 0.2251218 0.2255092
 0.2258924 0.226272 0.2266482 0.2270188 0.2273834 0.2277462 0.2281131 0.2284846 0.2288564 0.2292247
 0.2295883 0.2299494 0.2303107 0.2306716 0.2310285 0.2313776 0.2317203 0.2320626 0.2324124 0.2327735
 0.2331425 0.2335118 0.2338767 0.2342375 0.2345959 0.2349526 0.2353071 0.2356583 0.236006 0.2363528
 0.2367014 0.2370522 0.2374062 0.2377658 0.2381305 0.2384943 0.2388523 0.239206 0.2395619 0.2399258
 0.2402985 0.2406758 0.2410528 0.2414281 0.241802 0.2421753 0.242551 0.2429338 0.2433261 0.2437282
 0.244139 0.2445526 0.2449574 0.2453465 0.2457231 0.2460919 0.2464532 0.2468066 0.2471535 0.2474941
 0.247829 0.2481621 0.2484983 0.2488411 0.2491916 0.2495489 0.2499111 0.2502794 0.2506561 0.2510376
 0.2514165 0.25179 0.2521581 0.2525194 0.2528735 0.2532225 0.2535653 0.2538985 0.2542243 0.2545488
 0.2548769 0.2552121 0.2555571 0.2559109 0.2562712 0.2566399 0.257017 0.2573976 0.2577807 0.2581703
 0.2585661 0.2589625 0.259357 0.2597494 0.2601369 0.2605199 0.2609042 0.2612919 0.2616817 0.2620756
 0.2624757 0.2628783 0.2632795 0.2636777 0.2640692 0.2644534 0.2648381 0.2652291 0.2656225 0.2660156
 0.266412 0.2668126 0.267215 0.2676206 0.2680296 0.2684372 0.2688416 0.2692442 0.2696415 0.2700323
 0.2704252 0.2708256 0.2712274 0.2716274 0.2720304 0.2724371 0.2728458 0.2732591 0.2736741 0.2740814
 0.274481 0.2748803 0.2752771 0.2756661 0.2760526 0.2764408 0.2768268 0.2772115 0.277597 0.2779674
 0.27829 0.2784984 0.2784188 0.2776842 0.275683 0.271569 0.2644289 0.2536499 0.2392927 0.222193
 0.203726 0.1853763 0.1683383 0.1533569 0.1408252 0.1309447 0.1238356 0.119635 0.118576 0.1211
 0.1280035 0.1399668 0.1558201 0.1710468 0.179474 0.1779471 0.1691895 0.1593325 0.1529204 0.1506801
 0.1510704 0.1525706 0.1545805 0.157249 0.1609471 0.1657254 0.1712612 0.1773931 0.1844305 0.1926868
 0.2018754 0.2112124 0.2200736 0.2284023 0.2364824 0.2444495 0.252094 0.2590668 0.2651498 0.2703312
 0.2747366 0.2785486 0.2819356 0.28501 0.2878406 0.2904606 0.292824 0.2947861 0.2961862 0.2969762
 0.2972814 0.2973434 0.2973881 0.2975311 0.2977916 0.2981613 0.2986314 0.2991864 0.2998108 0.3004929
 0.3012136 0.3019481 0.3026839 0.3034153 0.3041272 0.3048023 0.305434 0.3060237 0.3065769 0.307106
 0.3076233 0.3081335 0.3086411 0.3091545 0.3096755 0.3101969 0.3107131 0.3112172 0.3116972 0.3121458
 0.3125676 0.3129701 0.3133583 0.3137369 0.3141081 0.3144699 0.3148232 0.3151736 0.3155233 0.3158704
 0.3162156 0.3165593 0.3168972 0.3172264 0.3175489 0.3178668 0.3181811 0.3184959 0.3188143 0.3191358
 0.3194619 0.3197954 0.3201295 0.3204495 0.3207474 0.32103 0.3213121 0.3216094 0.3219301 0.3222692
 0.3226178 0.3229756 0.3233489 0.3237415 0.3241516 0.3245741 0.3249994 0.3254204 0.325837 0.3262473
 0.3266388 0.3269978 0.3273264 0.3276422 0.3279654 0.3283072 0.3286647 0.329029 0.329395 0.3297642
 0.3301354 0.330502 0.3308556 0.3311892 0.3315016 0.3318061 0.3321232 0.3324611 0.3328125 0.3331714
 0.3335401 0.3339185 0.3343024 0.3346907 0.3350825 0.3354688 0.335842 0.336211 0.3366004 0.3370306
 0.3374983 0.3379754 0.3384328 0.3388647 0.3392862 0.3397145 0.3401577 0.3406062 0.3410248 0.3413776
 0.3416798 0.3420058 0.3424225 0.3429255 0.3434544 0.3439553 0.3444151 0.3448475 0.345266 0.345669
 0.3460431 0.3463763 0.346682 0.3470094 0.3474137 0.3478974 0.3484007 0.3488634 0.3492765 0.3496611
 0.3500332 0.3504013 0.3507541 0.3510391 0.3512111 0.351332 0.3515648 0.3520188 0.3526278 0.3532177
 0.3536811 0.3540451 0.3543817 0.3547171 0.3550402 0.3553191 0.3554615 0.35536 0.3550836 0.3549497
 0.3552687 0.3560331 0.3569475 0.3577293 0.3582965 0.3587117 0.3590613 0.3593967 0.3597 0.3598812
 0.3598751 0.3597859 0.3598747 0.3603216 0.361024 0.3617123 0.3622364 0.362649 0.3630518 0.3634766
 0.3638703 0.3640731 0.3638851 0.3633444 0.3629143 0.3631852 0.3643042 0.3658061 0.3670766 0.3678952
 0.3684376 0.3688502 0.3690256 0.3687956 0.3681385 0.3671854 0.366273 0.3659934 0.366809 0.3684622
 0.3700822 0.3710571 0.3715588 0.3721032 0.37288 0.3736704 0.3742039 0.3744013 0.3743349 0.3740692
 0.3736272 0.373167 0.3730917 0.3737661 0.3750917 0.3765275 0.3775959 0.3782576 0.3786968 0.3787737
 0.3778828 0.375671 0.3729802 0.3716353 0.3728265 0.3758573 0.3788972 0.3807912 0.3816945 0.3822178
 0.3826339 0.3827977 0.3821322 0.3798215 0.3759159 0.372296 0.3715328 0.3743564 0.3788404 0.3822689
 0.3832118 0.3818231 0.3791493 0.3766412 0.3756406 0.3766552 0.3791439 0.3820688 0.3845223 0.3859782
 0.3863222 0.3857977 0.3849052 0.3842709 0.3842531 0.3844055 0.3837553 0.3820692 0.3803071 0.3791451
 0.3777323 0.3750774 0.372255 0.3717389 0.3743416 0.3780421 0.3803322 0.3807843 0.3805985 0.3801833
 0.3781701 0.3732173 0.3664934 0.3616466 0.3616844 0.3659731 0.370865 0.3732816 0.3731471 0.3723564
 0.3721019 0.3716066 0.369285 0.3649972 0.3609197 0.3595992 0.3611027 0.3629182 0.3627326 0.3600553
 0.3550106 0.347748 0.3403384 0.3371743 0.3410939 0.3498436 0.3580673 0.3619358 0.3603536 0.3533561
 0.3424712 0.332359 0.3287243 0.3330559 0.3408832 0.3460922 0.3457405 0.3402022 0.330682 0.3186521
 0.3071006 0.3001762 0.3005468 0.3072663 0.3159982 0.3209434 0.3178043 0.3071949 0.295449 0.2898596
 0.2918718 0.2961673 0.2969456 0.293373 0.2883922 0.284653 0.2830192 0.2831257 0.2838201 0.2840717
 0.2838001 0.2824053 0.2772431 0.2666854 0.2547369 0.2489205 0.2524734 0.2616817 0.2717185 0.2813845
 0.2904004 0.2959781 0.2957784 0.2925687 0.2924626 0.2984154 0.3074006 0.3142485 0.3168836 0.3171741
 0.3174836 0.3177771 0.3168705 0.3156355 0.3170297 0.3224146 0.3294306 0.3345594 0.3366563 0.3369618
 0.3367512 0.3362679 0.3353663 0.3340296 0.3323269 0.3304335 0.3286099 0.3269212 0.3251912 0.3233299
 0.3212554 0.3182047 0.3128132 0.3049356 0.297181 0.2931385 0.2936515 0.2962864 0.2987869 0.3006965
 0.3005456 0.2946686 0.2819629 0.2681575 0.2618739 0.2663171 0.2767626 0.2859194 0.2897353 0.2878831
 0.2812486 0.2715304 0.2630259 0.2619205 0.2715361 0.2888601 0.307227 0.3219043 0.331887 0.3373941
 0.3381392 0.3346594 0.3298237 0.3277276 0.330924 0.3387753 0.347971 0.3540342 0.3532635 0.3457957
 0.3376963 0.3372636 0.3467228 0.3592222 0.3663858 0.3671077 0.36633 0.3672215 0.3684395 0.3684626
 0.3686596 0.3708664 0.3742136 0.3757141 0.3728137 0.3645871 0.3519031 0.3378818 0.3271007 0.3223703
 0.3225677 0.3248731 0.3278689 0.3305035 0.3300105 0.3247232 0.3183562 0.317452 0.3238908 0.3328965
 0.3390638 0.3416928 0.3432457 0.344739 0.3444189 0.3405764 0.3345342 0.3300509 0.3296227 0.3321241
 0.3346247 0.3355404 0.3348937 0.332499 0.3279417 0.3224962 0.3193244 0.3207189 0.3257324 0.3311928
 0.3346782 0.335984 0.3361748 0.3361531 0.3361799 0.3360561 0.3355895 0.3352777 0.3363335 0.3393923
 0.3433775 0.3464583 0.3481348 0.3496404 0.3521835 0.355439 0.3580135 0.3589717 0.3586556 0.3582346
 0.3586323 0.3597032 0.3601699 0.3584416 0.3540162 0.3485198 0.3451269 0.3462629 0.3515465 0.3581477
 0.3631524 0.365298 0.364714 0.36208 0.3587445 0.3569941 0.3589553 0.3648074 0.3724692 0.3792537
 0.3836638 0.3857436 0.3862992 0.386112 0.3856136 0.3848995 0.3839312 0.3827644 0.3815891 0.3805734
 0.3797314 0.3789589 0.3781554 0.3772949 0.376417 0.3755831 0.3748258 0.374106 0.3733072 0.3722666
 0.3707749 0.3685375 0.3652141 0.3606054 0.3548584 0.3485674 0.3427941 0.3389619 0.3384022 0.3415937
 0.3476713 0.3547515 0.3608752 0.3648076 0.3662369 0.365576 0.3637334 0.3618873 0.3611031 0.3618752
 0.3639265 0.3664614 0.3686655 0.3700432 0.3704292 0.3698873 0.3687307 0.3675209 0.3667837 0.3666304
 0.3668026 0.3671592 0.3679472 0.3694498 0.3714896 0.3734592 0.3748114 0.3754055 0.3754241 0.3751048
 0.374591 0.3739355 0.3731529 0.3722521 0.3712404 0.3701127 0.3688481 0.3674255 0.3658497 0.3641683
 0.3624563 0.3607709 0.3591155 0.3574466 0.3557116 0.3538626 0.3518305 0.3495215 0.3469039 0.3441116
 0.3414044 0.3389575 0.3367023 0.3344085 0.3318858 0.3290642 0.3259214 0.3224127 0.3184618 0.3139563
 0.308708 0.3024183 0.2947864 0.2858976 0.2766591 0.2686737 0.2633681 0.2611441 0.2613833 0.2630632
 0.2651328 0.266476 0.2659881 0.2629195 0.2570412 0.2484205 0.2371986 0.2237453 0.2089808 0.1943203
 0.1811111 0.1700998 0.1614829 0.155362 0.1519658 0.1514686 0.153813 0.1587581 0.1659248 0.1747186
 0.1843563 0.1941088 0.2035196 0.2123928 0.2206417 0.2281934 0.2349877 0.2410082 0.2463048 0.2509972
 0.2552336 0.2591086 0.2626106 0.2656555 0.2681617 0.270073 0.2712905 0.2715685 0.2705458 0.2681329
 0.2651123 0.2632192 0.2641574 0.2682315 0.2740249 0.2795207 0.2834748 0.2857966 0.2870064 0.287635
 0.2880161 0.2883267 0.2886571 0.2890592 0.2895685 0.2902087 0.2909908 0.2919081 0.2929302 0.2940145
 0.2951338 0.2962898 0.2975091 0.2988341 0.3003094 0.301963 0.3037972 0.3057837 0.3078525 0.3098908
 0.3117728 0.3133984 0.3147111 0.3156939 0.3163528 0.3166992 0.3167488 0.31653 0.3160786 0.3154192
 0.3145645 0.3135294 0.3123305 0.3109686 0.3094139 0.3076056 0.3054596 0.3028606 0.299661 0.2957946
 0.2915312 0.2875862 0.2847629 0.2833486 0.2829085 0.2827047 0.2822247 0.2813197 0.2800646 0.2786909
 0.2775922 0.277181 0.2776085 0.278617 0.2796823 0.280315 0.2802789 0.2796128 0.2785056 0.2771438
 0.2756274 0.2739803 0.2722003 0.2702765 0.2681834 0.2658951 0.2634066 0.2607332 0.2579145 0.255036
 0.2522174 0.2495514 0.2470661 0.2447432 0.2425496 0.2404514 0.2384224 0.2364475 0.2345197 0.2326457
 0.2308466 0.229139 0.2275226 0.2259976 0.2245736 0.2232559 0.2220427 0.2209331 0.2199176 0.2189699
 0.2180648 0.2171913 0.2163481 0.2155443 0.214792 0.2140662 0.2132847 0.2123421 0.2111309 0.2095045
 0.207257 0.2042183 0.2005044 0.1968243 0.1944832 0.1947339 0.197782 0.2023981 0.2066585 0.2091615
 0.2096266 0.2085751 0.2066903 0.2044699 0.202213 0.2000927 0.1981968 0.196572 0.1952474 0.1942056
 0.1933698 0.1926668 0.1920987 0.1917407 0.1916766 0.1919089 0.1922912 0.1925906 0.1926857 0.1926946
 0.1928698 0.1933832 0.194221 0.1952295 0.196226 0.197089 0.1977728 0.198268 0.1985839 0.1987531
 0.1988035 0.1987298 0.1985194 0.1981785 0.1977167 0.1971409 0.1964692 0.1957132 0.1948602 0.1939022
 0.1928499 0.1917018 0.190445 0.1890782 0.1875872 0.1859405 0.1841922 0.1825688 0.1813894 0.1808936
 0.1811165 0.1818736 0.1828875 0.1839707 0.1850469 0.1860142 0.1867453 0.1872992 0.1880208 0.1893145
 0.1912973 0.1936731 0.1959386 0.1977087 0.1988447 0.1993489 0.199271 0.1986977 0.1976848 0.1962045
 0.194255 0.1919553 0.1894609 0.186903 0.1844389 0.1822131 0.1802796 0.1786551 0.1773479 0.176347
 0.1757062 0.1751323 0.17296 0.1667294 0.1566888 0.148061 0.1471025 0.154359 0.1639012 0.1696858
 0.1706844 0.1694363 0.1680521 0.1669886 0.166167 0.1656614 0.1655264 0.1656523 0.1658146 0.1657782
 0.165436 0.1647917 0.163707 0.1616679 0.1577714 0.1510371 0.141129 0.1290377 0.1168804 0.1067775
 0.0998033 0.09575918 0.09362377 0.09226429 0.091084 0.09023157 0.09023185 0.09144392 0.09385607 0.09724325
 0.1013326 0.1057712 0.1100681 0.1137525 0.1166262 0.1187754 0.1203337 0.1213407 0.121816 0.1218299
 0.12147 0.1208161 0.1199464 0.1189056 0.1176743 0.1162234 0.1146155 0.1130469 0.1117672 0.1109176
 0.110446 0.1101985 0.1100653 0.1100082 0.1100085 0.1100526 0.1101424 0.110285 0.1104885 0.1107609
 0.1110799 0.1113798 0.1115968 0.1117109 0.1117332 0.1116727 0.1115186 0.1112545 0.1109127 0.1105808
 0.1102735 0.1098146 0.1089646 0.1077101 0.1063724 0.1054048 0.1050857 0.1053588 0.1059095 0.1063977
 0.1066608 0.1067383 0.106738 0.1066842</values></Ydata></ScSm><ScRf><Ydata ylabel="Single channel"><values byteorder="INTEL" format="FLOAT32" numvalues="1820"> 0.07049609 0.07062858 0.07074805 0.07085408 0.07094985 0.07104461 0.07115019 0.07127181 0.07140493 0.07153919
 0.07166433 0.07177589 0.07187495 0.07196242 0.07204033 0.07212082 0.07222265 0.07235254 0.07249603 0.07262913
 0.07273574 0.07281999 0.07290694 0.07301997 0.07314776 0.07324272 0.07326339 0.07321911 0.0731668 0.07316139
 0.07321933 0.0733431 0.07355356 0.07383862 0.0740802 0.07412956 0.07399265 0.07385646 0.07388228 0.07404414
 0.07420564 0.07427128 0.07422361 0.07411094 0.07406694 0.07426788 0.07477175 0.07538979 0.07574693 0.07549832
 0.07455775 0.07322158 0.0720983 0.07179086 0.07246131 0.07364986 0.07461867 0.07494695 0.07475932 0.07441048
 0.07411566 0.07394458 0.07398505 0.07432783 0.07491548 0.07548392 0.07566607 0.07523164 0.07434751 0.07354969
 0.07330776 0.07366029 0.07437646 0.07523634 0.07582427 0.07532056 0.07322598 0.0704634 0.06909182 0.07040448
 0.07357439 0.07651284 0.07777138 0.07731082 0.07589803 0.07442874 0.07368839 0.07408372 0.07537828 0.07692615
 0.07818483 0.07885937 0.07876396 0.07790725 0.07667115 0.07565075 0.07532399 0.07591374 0.07729681 0.07886583
 0.07977024 0.07958569 0.0786327 0.07755974 0.07686502 0.07686894 0.07773738 0.07928698 0.08100243 0.08241621
 0.08335161 0.08382264 0.08392002 0.08379082 0.08356518 0.08333786 0.08326859 0.08350104 0.08388166 0.08399017
 0.08360799 0.08301498 0.08270673 0.08288438 0.08328246 0.08348992 0.08335743 0.08292192 0.08198944 0.08022967
 0.07785249 0.0757129 0.07447745 0.07415835 0.07465522 0.07603468 0.07787234 0.07905641 0.07890725 0.07809477
 0.07791321 0.07888197 0.08042276 0.08170258 0.08244215 0.08295619 0.0836621 0.08460923 0.0853622 0.08532016
 0.08432828 0.08306222 0.0825818 0.08330652 0.08460735 0.0855822 0.08600552 0.08630042 0.08679034 0.0872284
 0.08701241 0.08582923 0.0841956 0.08327726 0.08392747 0.08584212 0.08771819 0.08823869 0.08700956 0.08477402
 0.08279096 0.0819304 0.08233529 0.08378275 0.08599445 0.08850039 0.09056415 0.09155598 0.09138802 0.09049897
 0.08937536 0.08809564 0.08650392 0.08492106 0.08433316 0.08546956 0.08786771 0.09024228 0.09167226 0.0921122
 0.09187035 0.0909848 0.08930692 0.08714999 0.08557859 0.08561862 0.08708853 0.08864696 0.08921914 0.08900131
 0.08884824 0.08910582 0.08942302 0.08946869 0.08942549 0.0897295 0.09051317 0.09143665 0.09204835 0.09219976
 0.09207754 0.09193949 0.09187102 0.09173496 0.09138393 0.09099115 0.09103914 0.09181178 0.09301209 0.09405948
 0.09466118 0.0949292 0.09502979 0.0948988 0.09435108 0.09344579 0.09266168 0.09255771 0.09323043 0.09424184
 0.09508535 0.0955622 0.09572934 0.09570818 0.09560443 0.09548229 0.09537572 0.09535652 0.09552276 0.09586589
 0.09623346 0.09647934 0.09658314 0.09659311 0.09652833 0.09638305 0.09619059 0.09604082 0.0960228 0.0961548
 0.0963825 0.09663507 0.0968533 0.09697983 0.09698133 0.09689111 0.09678712 0.09672029 0.09669389 0.09670626
 0.09677288 0.09689619 0.09704107 0.09715818 0.09722446 0.09724957 0.09724943 0.09723052 0.09719978 0.09717599
 0.09718435 0.09723988 0.09733094 0.09742482 0.09750646 0.09760019 0.09772597 0.09784773 0.09790426 0.09788672
 0.09785016 0.09785195 0.09790536 0.09798855 0.09807049 0.09812176 0.09811857 0.09805944 0.09798591 0.0979692
 0.09805734 0.09824193 0.09848174 0.09873526 0.09896153 0.09912615 0.09923051 0.09931122 0.09939505 0.09947425
 0.09953305 0.09958139 0.09965564 0.09979026 0.09998514 0.1001997 0.1003863 0.1005236 0.1006193 0.1007011
 0.1008092 0.1009632 0.1011263 0.1012345 0.1012769 0.1013143 0.1014041 0.1015344 0.1016465 0.1017059
 0.1017344 0.1017796 0.1018647 0.1019733 0.1020773 0.1021709 0.1022735 0.1023991 0.1025261 0.1026043
 0.1026051 0.1025583 0.1025236 0.1025298 0.1025632 0.1026078 0.1026693 0.1027507 0.1028275 0.102867
 0.1028645 0.1028512 0.1028594 0.1028864 0.1028992 0.1028714 0.1028093 0.1027431 0.1026999 0.1026853
 0.1026834 0.1026703 0.1026313 0.102568 0.1024923 0.1024145 0.1023383 0.1022663 0.1022137 0.102205
 0.1022411 0.1022732 0.1022296 0.1020828 0.1018782 0.1016919 0.101565 0.1014802 0.1013921 0.1012699
 0.1011168 0.1009573 0.1008124 0.1006862 0.1005708 0.1004593 0.1003574 0.1002826 0.1002462 0.1002296
 0.1001875 0.1000895 0.09995193 0.09981997 0.09972337 0.09965985 0.09961301 0.09957142 0.09953433 0.09951065
 0.09950867 0.09952028 0.09952431 0.09951159 0.09949733 0.09950493 0.09954803 0.09962811 0.099732 0.0998288
 0.09988941 0.09991769 0.09994936 0.1000142 0.1001106 0.1002213 0.1003385 0.1004659 0.1006061 0.1007578
 0.1009222 0.1011052 0.1013104 0.1015342 0.1017664 0.1019946 0.1022132 0.1024302 0.1026632 0.1029242
 0.1032086 0.1034988 0.1037785 0.1040451 0.1043084 0.10458 0.1048621 0.1051507 0.1054464 0.105755
 0.1060772 0.1064045 0.1067284 0.107049 0.1073716 0.1076977 0.1080232 0.1083481 0.1086849 0.1090485
 0.1094336 0.1098072 0.110136 0.1104201 0.1106928 0.1109898 0.1113229 0.1116766 0.1120191 0.1123239
 0.1125922 0.1128544 0.1131377 0.1134387 0.1137388 0.1140409 0.1143728 0.1147477 0.1151355 0.1154813
 0.1157546 0.1159757 0.116193 0.1164344 0.1166868 0.1169232 0.1171397 0.1173556 0.1175835 0.1178177
 0.1180557 0.11831 0.1185879 0.1188712 0.1191309 0.1193582 0.1195668 0.1197686 0.1199571 0.1201141
 0.1202285 0.120312 0.1203979 0.1205163 0.120666 0.1208195 0.1209587 0.1210953 0.1212512 0.1214344
 0.1216424 0.1218757 0.1221311 0.122391 0.1226389 0.1228857 0.1231615 0.1234702 0.1237711 0.1240205
 0.124219 0.1244028 0.1245976 0.124806 0.1250322 0.1252908 0.1255869 0.1259021 0.126208 0.1264885
 0.1267529 0.1270282 0.1273327 0.1276487 0.1279326 0.1281587 0.1283448 0.1285329 0.1287528 0.1290069
 0.1292806 0.1295573 0.1298261 0.1300761 0.1302872 0.130439 0.1305341 0.1306013 0.1306626 0.1307017
 0.1306764 0.1305538 0.1303248 0.1299868 0.12953 0.1289485 0.1282644 0.1275408 0.1268712 0.126352
 0.1260544 0.1260123 0.1262249 0.1266591 0.1272462 0.12789 0.1284902 0.1289622 0.1292378 0.1292655
 0.1290272 0.1285516 0.1279008 0.127142 0.1263291 0.1255002 0.1246834 0.1239183 0.1232842 0.1229049
 0.1229116 0.1233947 0.1243736 0.1257816 0.1274638 0.1292111 0.1308351 0.1322389 0.1334247 0.134445
 0.1353527 0.1361854 0.1369701 0.1377205 0.1384338 0.1391021 0.139727 0.140317 0.1408724 0.1413776
 0.14181 0.142151 0.1423947 0.1425535 0.1426507 0.1427058 0.14273 0.1427344 0.1427275 0.1426943
 0.1425877 0.1423548 0.141973 0.1414677 0.1409121 0.1404276 0.1401764 0.1403272 0.1409869 0.1421342
 0.1436125 0.1452001 0.1467034 0.1480045 0.1490585 0.149877 0.1505129 0.1510336 0.1514908 0.1519109
 0.1523047 0.1526779 0.1530351 0.1533829 0.1537291 0.1540784 0.1544308 0.154784 0.155133 0.1554713
 0.1557972 0.1561195 0.1564529 0.1568055 0.1571701 0.1575303 0.1578774 0.1582195 0.1585682 0.1589207
 0.1592615 0.1595834 0.1598957 0.1602125 0.1605413 0.1608829 0.1612307 0.1615694 0.1618835 0.1621712
 0.1624456 0.1627218 0.1630053 0.1632934 0.1635818 0.1638687 0.1641545 0.1644406 0.1647283 0.1650176
 0.1653053 0.1655844 0.1658497 0.1661033 0.1663534 0.1666071 0.1668651 0.1671229 0.1673778 0.1676325
 0.1678939 0.1681651 0.1684396 0.168706 0.1689586 0.1692012 0.1694409 0.1696815 0.1699249 0.170173
 0.1704271 0.1706859 0.1709461 0.1712054 0.1714635 0.1717203 0.1719745 0.1722246 0.1724719 0.17272
 0.1729728 0.1732299 0.1734873 0.1737415 0.1739926 0.1742426 0.1744902 0.1747323 0.1749687 0.1752014
 0.1754316 0.1756609 0.1758935 0.1761339 0.1763809 0.1766292 0.1768754 0.1771195 0.1773627 0.1776049
 0.177846 0.1780871 0.1783289 0.1785702 0.17881 0.1790497 0.1792917 0.1795343 0.179774 0.1800121
 0.1802537 0.1804999 0.180746 0.1809876 0.1812244 0.181459 0.1816939 0.1819308 0.1821703 0.182413
 0.1826581 0.1829025 0.1831416 0.1833738 0.1836017 0.1838297 0.1840615 0.1842987 0.1845393 0.184779
 0.1850151 0.1852481 0.18548 0.1857125 0.1859461 0.1861796 0.186413 0.1866497 0.1868926 0.1871409
 0.187391 0.1876396 0.1878836 0.1881221 0.1883581 0.188595 0.1888329 0.189071 0.1893113 0.1895559
 0.1898042 0.1900543 0.1903045 0.1905538 0.1908031 0.1910537 0.1913042 0.1915527 0.191801 0.192052
 0.1923074 0.1925689 0.1928372 0.1931077 0.1933729 0.1936304 0.1938812 0.194125 0.1943622 0.1945953
 0.1948246 0.1950491 0.1952718 0.1954967 0.1957239 0.1959512 0.1961798 0.1964116 0.1966476 0.1968885
 0.1971335 0.1973798 0.1976265 0.1978744 0.1981223 0.1983689 0.1986176 0.198871 0.1991271 0.1993847
 0.1996462 0.1999117 0.2001784 0.2004454 0.2007112 0.2009724 0.2012299 0.2014889 0.201751 0.2020149
 0.2022818 0.2025516 0.2028202 0.2030868 0.203355 0.2036244 0.203893 0.2041638 0.204439 0.2047141
 0.2049866 0.2052589 0.2055315 0.2058025 0.206073 0.2063438 0.2066136 0.2068861 0.2071655 0.2074475
 0.2077265 0.2080061 0.2082895 0.2085738 0.2088572 0.2091394 0.2094149 0.2096815 0.2099468 0.2102141
 0.2104781 0.2107394 0.2110023 0.211257 0.211478 0.211614 0.2115338 0.2109589 0.2094219 0.2062745
 0.2008182 0.1925865 0.1816277 0.1685806 0.1544941 0.1405003 0.1275091 0.1160881 0.1065372 0.0990101
 0.09359652 0.09039798 0.08958969 0.0915048 0.09674462 0.1058214 0.1178462 0.129392 0.135774 0.1345973
 0.1279303 0.1204284 0.1155413 0.1138202 0.114096 0.1152164 0.1167263 0.1187383 0.1215349 0.1251548
 0.1293515 0.1339986 0.1393261 0.1455685 0.1525085 0.1595571 0.1662497 0.1725476 0.1786624 0.1846889
 0.1904645 0.1957264 0.2003137 0.2042208 0.207545 0.2104239 0.2129804 0.2152946 0.2174204 0.2193914
 0.2211785 0.2226698 0.2237374 0.2243405 0.2245737 0.2246219 0.2246584 0.2247695 0.2249662 0.2252398
 0.2255858 0.2259973 0.2264655 0.2269811 0.2275277 0.2280838 0.2286363 0.2291789 0.2297036 0.2302056
 0.2306863 0.2311444 0.2315762 0.2319855 0.2323793 0.2327594 0.2331278 0.2334915 0.2338544 0.2342148
 0.2345721 0.2349238 0.2352602 0.2355714 0.235857 0.2361244 0.2363839 0.2366448 0.2369083 0.2371671
 0.2374189 0.2376696 0.2379229 0.2381757 0.2384261 0.2386743 0.2389184 0.2391594 0.239403 0.2396528
 0.239905 0.240154 0.2403963 0.2406318 0.2408645 0.2411007 0.2413412 0.2415817 0.2418189 0.2420542
 0.2422925 0.2425408 0.2428024 0.2430719 0.2433413 0.2436101 0.2438831 0.2441612 0.2444417 0.2447222
 0.2450006 0.2452767 0.2455541 0.2458338 0.2461064 0.2463573 0.246581 0.2467872 0.2469946 0.2472188
 0.2474615 0.2477122 0.2479614 0.248208 0.2484547 0.2487031 0.248955 0.249211 0.2494688 0.2497286
 0.2499954 0.2502716 0.2505547 0.2508429 0.2511362 0.2514328 0.2517298 0.2520269 0.252322 0.2526073
 0.2528795 0.2531486 0.2534351 0.2537546 0.2541009 0.2544478 0.2547722 0.2550766 0.2553802 0.255697
 0.2560269 0.2563581 0.2566651 0.2569242 0.2571488 0.2573938 0.2577085 0.2580908 0.2584963 0.2588835
 0.2592391 0.259572 0.2598927 0.2602007 0.2604858 0.2607408 0.2609777 0.2612349 0.2615536 0.2619358
 0.2623368 0.2627079 0.263036 0.2633336 0.2636163 0.2638957 0.264164 0.2643795 0.2645118 0.2646155
 0.2648178 0.2651973 0.2656981 0.266187 0.2665836 0.2669077 0.2672127 0.2675171 0.2678116 0.2680716
 0.268227 0.2681966 0.2680333 0.26798 0.2682744 0.2689075 0.2696468 0.2702715 0.2707217 0.2710538
 0.27134 0.2716165 0.2718621 0.2720061 0.272005 0.271946 0.2720302 0.2723911 0.272944 0.2734776
 0.2738746 0.2741777 0.2744692 0.2747767 0.2750608 0.2752004 0.2750442 0.2746191 0.2742712 0.2744422
 0.2752404 0.2763141 0.2772016 0.2777425 0.2780795 0.2783324 0.2784232 0.2782231 0.2777123 0.2769879
 0.2763013 0.2760974 0.2767255 0.277991 0.2792329 0.2799855 0.2803806 0.2808134 0.281428 0.2820528
 0.2824779 0.2826465 0.2826199 0.2824472 0.2821388 0.2818099 0.281768 0.2822949 0.2833168 0.2844189
 0.2852345 0.2857371 0.2860782 0.2861618 0.2855268 0.2838948 0.2818971 0.2809175 0.2818602 0.284198
 0.2865462 0.2880339 0.2887803 0.2892423 0.2896171 0.2897896 0.2893257 0.2876142 0.2847012 0.2820178
 0.2815117 0.2837276 0.2871984 0.2898675 0.2906564 0.2896793 0.2877241 0.2858934 0.2852134 0.2860747
 0.2880659 0.2903942 0.2923616 0.2935593 0.2938997 0.2935749 0.2929725 0.2925718 0.2926444 0.2928486
 0.2924421 0.2912486 0.2900007 0.2892113 0.2882276 0.2862952 0.2842423 0.2839644 0.28608 0.2890356
 0.290908 0.2913737 0.2913558 0.2911626 0.289737 0.2860514 0.2810126 0.2774322 0.2776235 0.2810948
 0.2850351 0.2870726 0.287151 0.2867308 0.2867292 0.2865447 0.2849553 0.2818577 0.2789397 0.2781692
 0.2795862 0.2812355 0.2813282 0.2794905 0.2758138 0.2704079 0.2648923 0.262703 0.2660582 0.2731988
 0.2799434 0.2832997 0.2824019 0.2772645 0.2690874 0.2615531 0.2591759 0.2631385 0.2699115 0.2746705
 0.2751009 0.2714995 0.2648074 0.256198 0.2480971 0.2438864 0.2457533 0.2529316 0.2618344 0.2675992
 0.266576 0.2592579 0.2510118 0.2480348 0.2515268 0.2568995 0.2591708 0.2576503 0.2549058 0.2532616
 0.2535142 0.2553679 0.257771 0.2597459 0.2611412 0.2612469 0.2574122 0.247978 0.2366401 0.2304894
 0.2327006 0.2399758 0.2479216 0.2554713 0.2624359 0.2663298 0.2650182 0.2609452 0.2595731 0.2635453
 0.2701661 0.2748433 0.2757506 0.2745667 0.2734286 0.2723886 0.2704733 0.2684291 0.2687602 0.2726139
 0.2779875 0.2819017 0.2833899 0.2835041 0.2833152 0.2830079 0.2824345 0.2815627 0.2804378 0.279199
 0.2780662 0.2771009 0.2761594 0.275171 0.2740724 0.2722061 0.2683699 0.2623803 0.2564112 0.2534978
 0.2543541 0.2569222 0.259329 0.2612419 0.2614026 0.2566146 0.2459193 0.2343356 0.2294089 0.2339186
 0.2436642 0.2521769 0.255834 0.2543077 0.2483713 0.2395354 0.231573 0.2298687 0.2372735 0.2511173
 0.265604 0.2767121 0.2837253 0.2869868 0.2863511 0.282325 0.2773556 0.2748662 0.2769072 0.2828067
 0.2896824 0.2937867 0.2921421 0.2849897 0.2774097 0.2762529 0.2833536 0.2930922 0.2985923 0.2989205
 0.2980917 0.2986946 0.2996722 0.2998463 0.300396 0.3028797 0.3066779 0.3095067 0.3094615 0.3058202
 0.2990382 0.2913013 0.2861763 0.2857904 0.2884848 0.2907168 0.2906932 0.2884095 0.28343 0.2758505
 0.2690771 0.2680003 0.2734399 0.280904 0.2857094 0.2873414 0.2879997 0.2886387 0.2878429 0.284198
 0.2788012 0.2747895 0.2742682 0.2763274 0.2785416 0.2795962 0.2794967 0.2780544 0.2748961 0.2710898
 0.2692881 0.2713712 0.2764305 0.2816474 0.2848796 0.2859697 0.2859278 0.2856308 0.2853539 0.2849309
 0.2841822 0.2835142 0.2839542 0.2860577 0.2889422 0.2910909 0.2921082 0.2930487 0.2949361 0.2975124
 0.2996378 0.3005525 0.3005441 0.3005775 0.301424 0.303026 0.3045539 0.3051394 0.3047318 0.3042583
 0.3047918 0.3065271 0.3087003 0.3104612 0.3115867 0.3123677 0.3131255 0.313935 0.3145911 0.3147836
 0.3145075 0.3143088 0.3148779 0.3163339 0.3180845 0.3194245 0.3201142 0.3203462 0.3203469 0.3201593
 0.3197506 0.319193 0.3186741 0.3183556 0.3182572 0.3182837 0.3183291 0.3183393 0.3183125 0.3182842
 0.3183054 0.318406 0.3185763 0.3187877 0.3190127 0.3192172 0.3193684 0.3194714 0.3195685 0.3196769
 0.3197452 0.3196874 0.3194407 0.3189727 0.3182547 0.3172551 0.3159489 0.3143071 0.3122974 0.3099781
 0.3076651 0.3059732 0.3055601 0.3067032 0.3090798 0.3119535 0.3145939 0.3165905 0.3178891 0.3186377
 0.3190203 0.3191756 0.3191856 0.3190898 0.3189052 0.3186463 0.318332 0.3179803 0.3176106 0.3172507
 0.3169294 0.3166543 0.3164011 0.3161272 0.3157953 0.3153883 0.3149075 0.3143619 0.3137583 0.3130917
 0.3123406 0.3114798 0.3105103 0.3094777 0.3084523 0.307487 0.3065878 0.3057193 0.3048359 0.3039013
 0.3028697 0.3016733 0.3002857 0.2988176 0.2974904 0.2964593 0.2956736 0.2949373 0.2940847 0.2930703
 0.2919255 0.2906908 0.2893961 0.2880645 0.2867069 0.2853141 0.2838593 0.2823133 0.2806624 0.2789139
 0.2770844 0.2751899 0.2732494 0.2712828 0.2692814 0.2671749 0.2648311 0.2620923 0.258817 0.2549085
 0.2503368 0.2451641 0.2395507 0.2337219 0.2279068 0.222297 0.217047 0.2122934 0.2081604 0.2047482
 0.2021231 0.2003211 0.1993613 0.1992516 0.1999816 0.2015093 0.203758 0.2066167 0.2099394 0.2135469
 0.2172377 0.2208152 0.2241374 0.2271651 0.2299546 0.232578 0.2350477 0.2373189 0.2393496 0.2411322
 0.2426744 0.243976 0.2450389 0.2458896 0.246582 0.2471726 0.2476927 0.2481428 0.2485092 0.2487869
 0.2489901 0.2491474 0.249291 0.2494495 0.2496427 0.2498783 0.2501536 0.2504672 0.2508301 0.251264
 0.251787 0.252399 0.2530813 0.2538106 0.2545775 0.2553945 0.2562903 0.2572994 0.2584528 0.2597686
 0.2612436 0.2628472 0.264516 0.2661542 0.2676525 0.2689185 0.2698971 0.270573 0.2709606 0.2710929
 0.2710097 0.270749 0.2703409 0.2698041 0.2691548 0.2684182 0.2676246 0.2667909 0.2659117 0.2649738
 0.2639796 0.2629561 0.2619382 0.2609435 0.2599688 0.2590115 0.2580828 0.2571936 0.2563398 0.2555108
 0.2547053 0.2539306 0.2531927 0.25249 0.2518121 0.2511407 0.2504455 0.249681 0.2487979 0.2477646
 0.2465741 0.2452305 0.2437413 0.2421193 0.2403799 0.2385352 0.2365979 0.2345833 0.2324983 0.2303345
 0.2280756 0.225712 0.2232648 0.2208024 0.2184224 0.2162021 0.2141668 0.2122977 0.210558 0.2089154
 0.2073555 0.205872 0.2044511 0.203077 0.2017486 0.2004778 0.1992749 0.1981468 0.1971007 0.1961431
 0.1952842 0.1945383 0.1939094 0.1933846 0.1929435 0.1925694 0.1922585 0.1920374 0.1919518 0.1920102
 0.1921468 0.1922606 0.1922849 0.1922188 0.192111 0.1920198 0.1919754 0.1919745 0.1919932 0.1919826
 0.1918596 0.1915288 0.1909064 0.1899197 0.1885189 0.1867172 0.1846069 0.182333 0.1800631 0.1779596
 0.1761435 0.1746769 0.1735675 0.1727646 0.172169 0.1716936 0.1713265 0.1711309 0.1711875 0.1715089
 0.1719687 0.1723521 0.172542 0.1726465 0.1729037 0.1734798 0.1743649 0.175412 0.1764418 0.177339
 0.1780726 0.178649 0.1790804 0.1793892 0.1795932 0.1796826 0.1796421 0.1794754 0.1791944 0.1788124
 0.178352 0.1778228 0.177206 0.176486 0.1756691 0.1747563 0.1737434 0.1726382 0.1714281 0.1700726
 0.1686065 0.167229 0.1662358 0.1658641 0.1661713 0.1670044 0.1681049 0.1692849 0.1704628 0.1715406
 0.1723987 0.173087 0.1739176 0.1752609 0.1772339 0.1795796 0.181842 0.1836623 0.1849052 0.1855631
 0.1856649 0.1852711 0.1844258 0.1831125 0.1813492 0.1792655 0.1770144 0.1747128 0.1724961 0.1704948
 0.1687635 0.1673231 0.166182 0.1653311 0.1648291 0.1644058 0.1624793 0.1567021 0.1472925 0.1392011
 0.1383733 0.1453407 0.1544827 0.1600631 0.1610998 0.1599965 0.1587537 0.1578078 0.1570892 0.1566726
 0.1566148 0.1568137 0.1570496 0.1570891 0.1568316 0.1562932 0.1553468 0.1534869 0.1498326 0.1434492
 0.134035 0.1225493 0.1110055 0.1014094 0.0947771 0.09092408 0.08888651 0.08759417 0.08648843 0.08571813
 0.08577965 0.08700204 0.08936428 0.09265251 0.0966133 0.1009167 0.1050985 0.108708 0.1115477 0.1136905
 0.1152608 0.1162978 0.1168225 0.1169067 0.1166405 0.1160978 0.1153372 0.1143796 0.1131969 0.1117738
 0.1101994 0.1086909 0.1075001 0.106756 0.1063903 0.106237 0.1061786 0.1061755 0.1062142 0.1062878
 0.1063993 0.1065543 0.106767 0.1070637 0.1074386 0.1078212 0.1081234 0.1083072 0.1083899 0.1083929
 0.1082967 0.1080594 0.1076968 0.1073028 0.1069125 0.106376 0.1054838 0.1042444 0.1029728 0.1020855
 0.1018193 0.1021001 0.1026247 0.1030773 0.1033177 0.1033943 0.1034051 0.1033558 0.1031463 0.1026879
</values></Ydata></ScRf><Data_Parameters_AB><parameter name="DPF">1</parameter><parameter name="NPT">3497</parameter><parameter name="FXV">3996</parameter><parameter name="LXV">500</parameter><parameter name="CSF">1</parameter><parameter name="MXY">0.136825516819954</parameter><parameter name="MNY">-0.123518019914627</parameter><parameter name="DAT">18/01/2024</parameter><parameter name="TIM">11:10:12.875 (GMT+1)</parameter><parameter name="DXU">WN</parameter></Data_Parameters_AB><AB__Qtest><MainReport name="Quality Test Report"><Header><Line><Legend>Test result ok/not ok [1/0]: </Legend><Value>0</Value></Line><Line><Legend>Method file: </Legend><Value>C:\Users\Public\Documents\Bruker\OPUS_8.2.28\QT\IRBT_v3_default.QT</Value></Line></Header><Matrix><Line><Legend></Legend><Legend>min</Legend><Legend>max</Legend><Legend>measured</Legend></Line><Line><Value>Absorption (X-Range 1):</Value><Value>0.400000</Value><Value>2.000000</Value><Value>0.091842</Value></Line><Line><Value>Noise (X-Range 4):</Value><Value></Value><Value>0.000300</Value><Value>0.000059</Value></Line><Line><Value>Signal/Noise (X-Range 2):</Value><Value>200.000000</Value><Value></Value><Value>46.246745</Value></Line><Line><Value>Signal/Noise (X-Range 3):</Value><Value>40.000000</Value><Value></Value><Value>364.767064</Value></Line><Line><Value>Water vapour (X-Range 5):</Value><Value></Value><Value>0.000300</Value><Value>0.000012</Value></Line><Line><Value>Signal/Water (X-Range 2):</Value><Value>100.000000</Value><Value></Value><Value>228.325536</Value></Line><Line><Value>Signal/Water (X-Range 3):</Value><Value>20.000000</Value><Value></Value><Value>1800.897238</Value></Line><Line><Value>Fringes (X-Range 6):</Value><Value></Value><Value>0.000100</Value><Value>0.000048</Value></Line></Matrix></MainReport></AB__Qtest><Data_Parameters_ScSm><parameter name="DPF">1</parameter><parameter name="NPT">1814</parameter><parameter name="FXV">3996.63438082617</parameter><parameter name="LXV">499.579297603271</parameter><parameter name="CSF">1</parameter><parameter name="MXY">0.386322200298309</parameter><parameter name="MNY">0.0835574567317963</parameter><parameter name="DAT">18/01/2024</parameter><parameter name="TIM">11:10:12.875 (GMT+1)</parameter><parameter name="DXU">WN</parameter></Data_Parameters_ScSm><Data_Parameters_ScRf><parameter name="DPF">1</parameter><parameter name="NPT">1820</parameter><parameter name="FXV">4004.34989121387</parameter><parameter name="LXV">495.721542409425</parameter><parameter name="CSF">1</parameter><parameter name="MXY">0.320346891880035</parameter><parameter name="MNY">0.0690918192267418</parameter><parameter name="DAT">18/01/2024</parameter><parameter name="TIM">11:09:46.848 (GMT+1)</parameter><parameter name="DXU">WN</parameter></Data_Parameters_ScRf><Optic_Parameters_Rf><parameter name="APR">0</parameter><parameter name="APT">Open</parameter><parameter name="BMS">KBr</parameter><parameter name="DTC">RT-DLaTGS_IR-Biotyper [Microplate reader]</parameter><parameter name="HPF">0</parameter><parameter name="LPF">10.0</parameter><parameter name="LPV">4000</parameter><parameter name="PGR">0</parameter><parameter name="RCH">Module port</parameter><parameter name="RDX">0</parameter><parameter name="SRC">MIR</parameter><parameter name="VEL">10.0</parameter><parameter name="SON">Off</parameter></Optic_Parameters_Rf><Acquisition_Parameters_Rf><parameter name="ADT">1</parameter><parameter name="AQM">DD</parameter><parameter name="CFE">0</parameter><parameter name="COR">0</parameter><parameter name="DEL">0</parameter><parameter name="DLY">0</parameter><parameter name="HFW">8000</parameter><parameter name="LFW">0</parameter><parameter name="NSR">32</parameter><parameter name="PLF">AB</parameter><parameter name="RES">6</parameter><parameter name="RGN">-1</parameter><parameter name="STR">0</parameter><parameter name="TCL">MakeCompatibleScalar (0, {WSV=1.000000, ARV=0});</parameter><parameter name="TDL">37</parameter><parameter name="RPO">0</parameter></Acquisition_Parameters_Rf><FT_-_Parameters_Rf><parameter name="APF">B3</parameter><parameter name="HFQ">500</parameter><parameter name="LFQ">4000</parameter><parameter name="NLI">0</parameter><parameter name="PHR">24</parameter><parameter name="PHZ">ML</parameter><parameter name="SPZ">NO</parameter><parameter name="ZFF">1</parameter></FT_-_Parameters_Rf><Optic_Parameters_><parameter name="APR">0</parameter><parameter name="APT">Open</parameter><parameter name="BMS">KBr</parameter><parameter name="CHN">Module port</parameter><parameter name="DTC">RT-DLaTGS_IR-Biotyper [Microplate reader]</parameter><parameter name="HPF">0</parameter><parameter name="LPF">10.0</parameter><parameter name="LPV">4000</parameter><parameter name="PGN">0</parameter><parameter name="RDX">0</parameter><parameter name="SRC">MIR</parameter><parameter name="VEL">10.0</parameter><parameter name="SON">Off</parameter></Optic_Parameters_><FT_-_Parameters_><parameter name="APF">B3</parameter><parameter name="HFQ">500</parameter><parameter name="LFQ">4000</parameter><parameter name="NLI">0</parameter><parameter name="PHR">24</parameter><parameter name="PHZ">ML</parameter><parameter name="SPZ">NO</parameter><parameter name="ZFF">1</parameter></FT_-_Parameters_><Acquisition_Parameters_><parameter name="ADT">1</parameter><parameter name="AQM">DD</parameter><parameter name="CFE">0</parameter><parameter name="COR">0</parameter><parameter name="DEL">0</parameter><parameter name="DLY">0</parameter><parameter name="HFW">8000</parameter><parameter name="LFW">0</parameter><parameter name="NSS">32</parameter><parameter name="PLF">AB</parameter><parameter name="RES">6</parameter><parameter name="SOT">0</parameter><parameter name="TCL">MakeCompatibleScalar (0, {WSV=1.000000, ARV=0});</parameter><parameter name="TDL">37</parameter><parameter name="SPO">0</parameter><parameter name="SGN">-1</parameter></Acquisition_Parameters_><Instrument_Parameters_Rf><parameter name="HFL">15801.365274</parameter><parameter name="LFL">0</parameter><parameter name="LWN">15801.365274</parameter><parameter name="ABP">32157</parameter><parameter name="SSP">1</parameter><parameter name="ARG">2</parameter><parameter name="ASG">2</parameter><parameter name="ASS">32</parameter><parameter name="GFW">16</parameter><parameter name="GBW">16</parameter><parameter name="BFW">0</parameter><parameter name="BBW">0</parameter><parameter name="PKA">9302</parameter><parameter name="PKL">4987</parameter><parameter name="PRA">9266</parameter><parameter name="PRL">5010</parameter><parameter name="P2A">1</parameter><parameter name="P2L">1</parameter><parameter name="P2R">1</parameter><parameter name="P2K">1</parameter><parameter name="DAQ">0</parameter><parameter name="AG2">1</parameter><parameter name="SSM">1</parameter><parameter name="RSN">46536</parameter><parameter name="CRR">0</parameter><parameter name="SRT">1705576186.848</parameter><parameter name="DUR">19.6449890136719</parameter><parameter name="TSC">32</parameter><parameter name="MVD">0.39445772767067</parameter><parameter name="AN1">0.226024625244838</parameter><parameter name="AN2">0</parameter><parameter name="VSN">2.485 Apr  4 2017</parameter><parameter name="SRN">0085</parameter><parameter name="CAM">0</parameter><parameter name="INS">IR-Biotyper</parameter><parameter name="FOC">69</parameter><parameter name="RDY">1</parameter><parameter name="ARS">32</parameter></Instrument_Parameters_Rf><Sample_Parameters_><parameter name="BLD"></parameter><parameter name="CNM">Admin</parameter><parameter name="CPY"></parameter><parameter name="DPM"></parameter><parameter name="EXP">IRBT_v3_32Scans.XPM</parameter><parameter name="LCT"></parameter><parameter name="SFM">Microplate, HTS-XT</parameter><parameter name="SNM">240118-1045-Cdiff_SCFA_2_C19_232119675_A3_89274b1f-c7d5-463e-90aa-01fc6a40df15.0</parameter><parameter name="XPP">C:\Users\Public\Documents\Bruker\OPUS_8.2.28\XPM</parameter><parameter name="IST">OK</parameter><parameter name="CPG">1252</parameter><parameter name="UID">fb74699f-2647-4b7b-9744-1836cb8c6abf</parameter></Sample_Parameters_><Instrument_Parameters_><parameter name="HFL">15801.365274</parameter><parameter name="LFL">0</parameter><parameter name="LWN">15801.365274</parameter><parameter name="ABP">32157</parameter><parameter name="SSP">1</parameter><parameter name="ASG">2</parameter><parameter name="ARG">2</parameter><parameter name="ASS">32</parameter><parameter name="GFW">16</parameter><parameter name="GBW">16</parameter><parameter name="BFW">0</parameter><parameter name="BBW">0</parameter><parameter name="PKA">11284</parameter><parameter name="PKL">4987</parameter><parameter name="PRA">11234</parameter><parameter name="PRL">5010</parameter><parameter name="P2A">1</parameter><parameter name="P2L">1</parameter><parameter name="P2R">1</parameter><parameter name="P2K">1</parameter><parameter name="DAQ">0</parameter><parameter name="AG2">1</parameter><parameter name="SSM">1</parameter><parameter name="RSN">23961</parameter><parameter name="CRR">0</parameter><parameter name="SRT">1705576212.876</parameter><parameter name="DUR">19.6449890136719</parameter><parameter name="TSC">32</parameter><parameter name="MVD">0.712500035762787</parameter><parameter name="AN1">0.22604349210106</parameter><parameter name="AN2">0</parameter><parameter name="VSN">2.485 Apr  4 2017</parameter><parameter name="SRN">0085</parameter><parameter name="CAM">0</parameter><parameter name="INS">IR-Biotyper</parameter><parameter name="FOC">69</parameter><parameter name="RDY">1</parameter></Instrument_Parameters_><History/></OPUSDataFile>
