<?xml version="1.0" encoding="UTF-8" ?>
<OPUSDataFile><AB><Ydata ylabel="Absorbance Units"><values byteorder="INTEL" format="FLOAT32" numvalues="3497"> -0.07524563 -0.07525767 -0.0752717 -0.07528709 -0.07530205 -0.07531595 -0.07532618 -0.07533349 -0.07533767 -0.07534008
 -0.0753422 -0.07534441 -0.07534749 -0.07535122 -0.07535596 -0.07536031 -0.07536402 -0.07536527 -0.07536329 -0.07535894
 -0.07535163 -0.07534789 -0.07534814 -0.07535917 -0.0753812 -0.07541229 -0.07545139 -0.07548701 -0.0755183 -0.07553402
 -0.07553568 -0.07552129 -0.07549497 -0.07546411 -0.07543307 -0.07541195 -0.07540188 -0.07540862 -0.07542922 -0.07546402
 -0.0755079 -0.07555876 -0.0756119 -0.07566541 -0.07571612 -0.07576288 -0.07580483 -0.07584152 -0.07587453 -0.07590396
 -0.07593108 -0.07595592 -0.07597639 -0.07599225 -0.07600006 -0.07600015 -0.07599196 -0.07597689 -0.07595906 -0.07594005
 -0.07592566 -0.07591615 -0.07591493 -0.07592025 -0.0759318 -0.07594717 -0.07596439 -0.07598232 -0.07599977 -0.0760169
 -0.07603366 -0.07604967 -0.07606497 -0.07607834 -0.07608948 -0.07609867 -0.07610583 -0.07611284 -0.07611978 -0.07612886
 -0.07614012 -0.07615463 -0.07617226 -0.07619289 -0.07621641 -0.07624249 -0.07627097 -0.07630171 -0.07633355 -0.07636542
 -0.07639415 -0.07641603 -0.07642838 -0.07642643 -0.07641429 -0.07639103 -0.07636718 -0.07634622 -0.07633535 -0.07633802
 -0.07635146 -0.0763765 -0.07640408 -0.07643359 -0.07645664 -0.07647275 -0.07647771 -0.07647166 -0.07645489 -0.07642826
 -0.07639643 -0.07636076 -0.07632841 -0.07630003 -0.07628106 -0.07627055 -0.07627012 -0.07627671 -0.07628824 -0.07630014
 -0.07630842 -0.07630966 -0.07629985 -0.07628191 -0.07625464 -0.07622736 -0.07620229 -0.076185 -0.07617788 -0.0761741
 -0.07617351 -0.07616569 -0.07615003 -0.07612906 -0.07610377 -0.07608884 -0.07608435 -0.07609987 -0.07613119 -0.07616976
 -0.07620886 -0.07622658 -0.07622363 -0.07618787 -0.07613225 -0.07606627 -0.07600215 -0.07595411 -0.07592392 -0.07591797
 -0.07592878 -0.07595684 -0.0759877 -0.0760187 -0.07603527 -0.07603366 -0.07601271 -0.07597076 -0.07592504 -0.07587641
 -0.07584409 -0.07582796 -0.07583018 -0.07584864 -0.07587097 -0.07589634 -0.07591453 -0.07592745 -0.07593463 -0.07593798
 -0.0759414 -0.07594357 -0.07594503 -0.07594266 -0.07593382 -0.07591734 -0.07589068 -0.075858 -0.07581937 -0.07578214
 -0.07574794 -0.07572299 -0.07570897 -0.07570647 -0.07571605 -0.07573287 -0.07575669 -0.07578123 -0.07580628 -0.07582799
 -0.07584646 -0.07586019 -0.07586952 -0.07587454 -0.07587627 -0.07587741 -0.07587835 -0.07588193 -0.07588547 -0.07588736
 -0.07588414 -0.07587095 -0.07585081 -0.07582201 -0.07579548 -0.07577533 -0.07576802 -0.07577822 -0.07579715 -0.07582523
 -0.07584539 -0.07585554 -0.07584818 -0.07582258 -0.07578757 -0.07574404 -0.0757075 -0.07567795 -0.07566357 -0.07566234
 -0.07567105 -0.07568712 -0.07570225 -0.07571547 -0.07572091 -0.07571983 -0.07571103 -0.07569746 -0.07568095 -0.07566448
 -0.07565071 -0.07563961 -0.07563255 -0.07562542 -0.07561735 -0.0756053 -0.07558782 -0.07556901 -0.07554892 -0.07553427
 -0.07552558 -0.07552177 -0.07552244 -0.0755202 -0.07551529 -0.07550588 -0.07549301 -0.07548083 -0.07546795 -0.07545311
 -0.07543418 -0.07540485 -0.07536921 -0.07532839 -0.07529059 -0.0752644 -0.0752513 -0.07525706 -0.07527196 -0.07529462
 -0.07531201 -0.0753193 -0.07531336 -0.07529153 -0.07526319 -0.0752289 -0.07519864 -0.07517318 -0.075155 -0.07514393
 -0.07513658 -0.07513258 -0.07512761 -0.07512178 -0.0751129 -0.07510196 -0.07509 -0.07507887 -0.0750728 -0.07507191
 -0.07507958 -0.0750908 -0.07510334 -0.07510998 -0.07510424 -0.07508738 -0.07505681 -0.07502165 -0.07498445 -0.07494914
 -0.07491763 -0.07488598 -0.07485374 -0.07481989 -0.07478417 -0.07475165 -0.07472245 -0.07469919 -0.07468128 -0.07466527
 -0.07465044 -0.07463188 -0.07460931 -0.07457948 -0.07454243 -0.0744961 -0.07444249 -0.07438256 -0.07432043 -0.07426021
 -0.07420443 -0.0741567 -0.07411472 -0.07407929 -0.07404424 -0.07400826 -0.0739655 -0.07391424 -0.07385384 -0.07378359
 -0.07370859 -0.07362916 -0.07354919 -0.07346867 -0.07338557 -0.07329974 -0.0732089 -0.07311372 -0.07301609 -0.07291661
 -0.07281795 -0.07272021 -0.0726245 -0.07253154 -0.07244286 -0.07235856 -0.07227997 -0.07220466 -0.07213219 -0.07205809
 -0.07198075 -0.07189555 -0.07180125 -0.07169274 -0.07156843 -0.07142758 -0.07126876 -0.07110411 -0.07093415 -0.07077625
 -0.07063082 -0.07050165 -0.07038724 -0.07027675 -0.07016909 -0.07005303 -0.06993005 -0.06979796 -0.06966007 -0.06952228
 -0.06938574 -0.06925603 -0.06912863 -0.06900277 -0.06886971 -0.0687226 -0.06855932 -0.06837454 -0.06817972 -0.06797667
 -0.06777715 -0.06758513 -0.06739899 -0.06721973 -0.06703731 -0.066851 -0.0666552 -0.06644992 -0.06624046 -0.06602763
 -0.06582103 -0.06562025 -0.0654291 -0.06524532 -0.0650643 -0.06488395 -0.06469743 -0.06450506 -0.06430426 -0.06409653
 -0.0638826 -0.06366303 -0.06343817 -0.06320915 -0.06297594 -0.06274188 -0.06250799 -0.06227642 -0.06204814 -0.06182198
 -0.06159802 -0.06137417 -0.06115028 -0.06092519 -0.06069884 -0.06047086 -0.06024135 -0.06001122 -0.05978073 -0.05955192
 -0.05932399 -0.05909562 -0.05886565 -0.05863026 -0.0583909 -0.05814713 -0.05790303 -0.05766284 -0.05742821 -0.0572026
 -0.05698249 -0.05676778 -0.0565528 -0.0563357 -0.0561129 -0.05588293 -0.05564658 -0.05540333 -0.05515823 -0.05491156
 -0.05466913 -0.05443115 -0.05419888 -0.05397198 -0.0537476 -0.05352552 -0.05330322 -0.05308068 -0.05285669 -0.05263083
 -0.05240178 -0.05216888 -0.05193039 -0.05168662 -0.05143673 -0.05118278 -0.05092533 -0.05066809 -0.05041291 -0.05016251
 -0.04991869 -0.04968035 -0.04944802 -0.04921744 -0.04898813 -0.04875667 -0.04852266 -0.04828568 -0.04804574 -0.04780503
 -0.04756377 -0.04732517 -0.04708933 -0.04685885 -0.04663288 -0.04641043 -0.04619003 -0.04596787 -0.04574353 -0.04551424
 -0.04528156 -0.04504599 -0.04480913 -0.04457249 -0.04433628 -0.04410077 -0.04386677 -0.04363398 -0.04340593 -0.04318323
 -0.04296934 -0.04276527 -0.04256962 -0.04238268 -0.04219743 -0.0420135 -0.04182323 -0.04162654 -0.04141999 -0.04120425
 -0.04098058 -0.04075054 -0.04051948 -0.04028921 -0.0400665 -0.03985184 -0.03964952 -0.03945747 -0.0392754 -0.03910057
 -0.03893076 -0.0387647 -0.03860152 -0.03843945 -0.03827836 -0.03811411 -0.03794575 -0.03777032 -0.03758692 -0.03739686
 -0.03720008 -0.03699972 -0.03679596 -0.03659088 -0.03638468 -0.03618002 -0.03597739 -0.0357812 -0.03559098 -0.0354082
 -0.03523041 -0.03505269 -0.03487361 -0.0346873 -0.0344976 -0.0343053 -0.03411738 -0.03394018 -0.03377512 -0.03362653
 -0.03348641 -0.0333534 -0.03321893 -0.03308003 -0.03293594 -0.03278574 -0.03263335 -0.03247912 -0.03232461 -0.0321699
 -0.03201415 -0.03185741 -0.03169985 -0.03154141 -0.03138177 -0.03122082 -0.03105757 -0.0308928 -0.03072767 -0.03056324
 -0.03040243 -0.03024361 -0.0300868 -0.02992823 -0.02976457 -0.02959496 -0.02941686 -0.02923507 -0.02905007 -0.02886877
 -0.0286932 -0.02852617 -0.0283688 -0.02821896 -0.02807667 -0.02793858 -0.02780454 -0.02767406 -0.02754706 -0.02742268
 -0.02730001 -0.02717324 -0.02704153 -0.02689774 -0.02674395 -0.02658059 -0.02641202 -0.02624609 -0.02608416 -0.02593192
 -0.02578573 -0.02564458 -0.02550541 -0.02536556 -0.02522622 -0.02508749 -0.02494955 -0.02481336 -0.0246735 -0.02452904
 -0.02437722 -0.02421691 -0.0240582 -0.02390162 -0.0237629 -0.02364186 -0.02354014 -0.02345516 -0.02337135 -0.02328798
 -0.02319257 -0.02308962 -0.02298373 -0.02287895 -0.02278617 -0.02270145 -0.02262586 -0.02255092 -0.02246968 -0.02237815
 -0.02227106 -0.02215178 -0.0220196 -0.02188134 -0.02173833 -0.02159674 -0.02145837 -0.02132238 -0.02118958 -0.0210486
 -0.02089885 -0.02072951 -0.0205412 -0.02034031 -0.02012961 -0.01993038 -0.01974323 -0.01958339 -0.0194462 -0.01932835
 -0.01922433 -0.01912247 -0.01902181 -0.01891671 -0.01880767 -0.01869482 -0.01857389 -0.01844334 -0.01829709 -0.01813074
 -0.01794837 -0.01774787 -0.01754639 -0.01734622 -0.01716204 -0.01699656 -0.0168465 -0.01671194 -0.01657539 -0.01643616
 -0.01628039 -0.01610941 -0.01592446 -0.01572846 -0.01553335 -0.01534053 -0.01516066 -0.01499076 -0.01483175 -0.01467707
 -0.01451931 -0.01435346 -0.01417195 -0.01397554 -0.01376147 -0.01353574 -0.01329923 -0.0130601 -0.01282034 -0.01258695
 -0.01236177 -0.01214657 -0.01194227 -0.01174241 -0.0115467 -0.01134577 -0.01113938 -0.01092327 -0.01069762 -0.01046229
 -0.01021616 -0.009954703 -0.009676721 -0.00937436 -0.009053179 -0.008715353 -0.0083771 -0.008057551 -0.007773225 -0.007548012
 -0.007379219 -0.00727778 -0.007215842 -0.007187346 -0.007160442 -0.007123428 -0.007067149 -0.006985401 -0.006896051 -0.006799364
 -0.006721972 -0.006665634 -0.006647129 -0.006666454 -0.006723448 -0.006815994 -0.006929523 -0.007061847 -0.00719547 -0.007331796
 -0.007464336 -0.007598495 -0.007741025 -0.007896147 -0.008073248 -0.008270264 -0.008489779 -0.008725221 -0.008972823 -0.009229944
 -0.009492671 -0.009768561 -0.01005772 -0.01037295 -0.01071749 -0.01109394 -0.01150435 -0.0119334 -0.01238046 -0.01282401
 -0.01326336 -0.01368703 -0.0140958 -0.01448976 -0.01487001 -0.01524065 -0.01560302 -0.01596251 -0.01632053 -0.01668321
 -0.01704821 -0.01741639 -0.01778129 -0.01813719 -0.01848051 -0.01880599 -0.01911752 -0.01941503 -0.01970414 -0.0199869
 -0.02026443 -0.02053772 -0.02080398 -0.0210633 -0.02131012 -0.0215441 -0.02175945 -0.02195631 -0.02213805 -0.02230666
 -0.02247926 -0.02265715 -0.02285685 -0.02307424 -0.02330775 -0.02354999 -0.02378536 -0.02401147 -0.02421711 -0.0244073
 -0.02458277 -0.02474801 -0.02490722 -0.02505877 -0.02520291 -0.0253379 -0.0254619 -0.02558086 -0.0256948 -0.02581406
 -0.02594026 -0.02607648 -0.02622331 -0.02637329 -0.02652599 -0.0266721 -0.02681194 -0.02694376 -0.02706881 -0.02719158
 -0.02731312 -0.02743889 -0.02756875 -0.02770516 -0.02784713 -0.02799448 -0.02814594 -0.02830014 -0.02845674 -0.0286149
 -0.02877543 -0.02893861 -0.02910453 -0.02927363 -0.02944399 -0.02961543 -0.02978569 -0.02995433 -0.03012146 -0.03028697
 -0.03045313 -0.03062003 -0.03079012 -0.0309633 -0.03113978 -0.03131938 -0.03150126 -0.03168559 -0.03187244 -0.03206208
 -0.03225565 -0.03245187 -0.03265009 -0.03284722 -0.03303992 -0.03322668 -0.03340449 -0.03357653 -0.0337429 -0.0339088
 -0.03407621 -0.03424662 -0.03442147 -0.03459577 -0.03476952 -0.03493426 -0.03508932 -0.03522973 -0.03535553 -0.03547199
 -0.0355805 -0.03569569 -0.0358183 -0.0359608 -0.03612047 -0.03629706 -0.03648476 -0.03667203 -0.03685394 -0.03701777
 -0.03716392 -0.0372862 -0.03739291 -0.03748608 -0.03757831 -0.03767631 -0.03778623 -0.03791356 -0.03804974 -0.03819517
 -0.03833414 -0.03846409 -0.03857937 -0.03867882 -0.03877143 -0.03885761 -0.03894652 -0.03903732 -0.03912607 -0.03921081
 -0.03927913 -0.0393318 -0.03936288 -0.03937818 -0.03938572 -0.039393 -0.03941485 -0.03945363 -0.03951919 -0.03960468
 -0.03971015 -0.03982331 -0.03993819 -0.04004768 -0.04014705 -0.0402391 -0.04032335 -0.04040493 -0.04048511 -0.04056132
 -0.04063369 -0.04069465 -0.04074396 -0.04078151 -0.0408082 -0.04083345 -0.04085752 -0.04088726 -0.04092056 -0.04095424
 -0.04098665 -0.04101164 -0.04103147 -0.04104638 -0.04106004 -0.04107716 -0.04109732 -0.04112245 -0.04114872 -0.04117405
 -0.04119846 -0.04121984 -0.04124677 -0.04127991 -0.04133112 -0.04140258 -0.04149839 -0.04161967 -0.04175666 -0.04190871
 -0.04205723 -0.04220139 -0.04232534 -0.04243023 -0.04251276 -0.04257658 -0.04263113 -0.04268026 -0.04273761 -0.04280312
 -0.04288381 -0.04297483 -0.04307404 -0.04317645 -0.04327698 -0.04337561 -0.04347054 -0.04356472 -0.04365916 -0.04375424
 -0.04385054 -0.043946 -0.04404028 -0.04413286 -0.04422364 -0.04431348 -0.04440241 -0.04448986 -0.04457591 -0.04466088
 -0.04474549 -0.04483407 -0.04492661 -0.04502648 -0.04513086 -0.04523537 -0.04533708 -0.0454282 -0.04551123 -0.04558465
 -0.04565505 -0.04572744 -0.04580411 -0.04588891 -0.04597678 -0.04606676 -0.04615495 -0.04623939 -0.04632333 -0.04640691
 -0.04649409 -0.04658568 -0.04667711 -0.0467681 -0.04684647 -0.04691175 -0.0469539 -0.04697447 -0.04697541 -0.04696133
 -0.04694797 -0.04694017 -0.04695791 -0.04699969 -0.04707457 -0.04717187 -0.04728519 -0.04740039 -0.0475044 -0.04759026
 -0.04764956 -0.04768565 -0.04769738 -0.04769117 -0.04766887 -0.04763196 -0.04758157 -0.04751263 -0.04742486 -0.04731296
 -0.04717666 -0.04701559 -0.04682985 -0.04662129 -0.04638899 -0.0461291 -0.04583957 -0.04551079 -0.04514255 -0.04472836
 -0.04427198 -0.04377596 -0.04324526 -0.0426868 -0.04210237 -0.04149643 -0.04086627 -0.04021208 -0.03952972 -0.03881811
 -0.0380729 -0.03729355 -0.03647368 -0.03561302 -0.03470095 -0.03373663 -0.03270952 -0.031619 -0.03046179 -0.0292385
 -0.02795537 -0.02661417 -0.02522695 -0.02379753 -0.02234319 -0.02087233 -0.01941092 -0.0179706 -0.01658176 -0.01525119
 -0.0139999 -0.01282451 -0.01172918 -0.01070886 -0.009758307 -0.008887646 -0.008095598 -0.007407852 -0.006831339 -0.00637979
 -0.006061349 -0.005844856 -0.005731673 -0.005646461 -0.005585134 -0.005463827 -0.005279639 -0.004975619 -0.004552678 -0.003987027
 -0.00328121 -0.002431191 -0.001439632 -0.0003105523 0.0009536879 0.00234864 0.003869456 0.005513407 0.007262902 0.009111417
 0.01101838 0.01296748 0.0149032 0.01680412 0.01862293 0.02034292 0.0219419 0.02341064 0.02476169 0.02599155
 0.02716137 0.02827402 0.02943431 0.0306477 0.0320152 0.03353369 0.03523925 0.03711527 0.03912114 0.04123887
 0.04340091 0.04560555 0.04781538 0.05004637 0.05230278 0.05459942 0.05695554 0.05936102 0.06182478 0.06430134
 0.06678361 0.06920248 0.07154308 0.07373732 0.07577298 0.07759845 0.07920802 0.0805595 0.08165027 0.08243345
 0.08290693 0.08303003 0.08280553 0.08222815 0.08130832 0.08008168 0.0785594 0.07678689 0.07477105 0.07253957
 0.0701079 0.0674941 0.06474327 0.06188551 0.05899605 0.05611893 0.05332786 0.05066418 0.04815835 0.04583501
 0.04365782 0.04163303 0.03966455 0.03774652 0.03576301 0.03370621 0.03150382 0.02915715 0.0266861 0.02410248
 0.02149894 0.01888008 0.01632204 0.01380264 0.01130815 0.008804435 0.006215182 0.003544361 0.0007470995 -0.002105573
 -0.004981936 -0.007780869 -0.01043416 -0.01287964 -0.01506879 -0.01700788 -0.01868334 -0.02014278 -0.02139023 -0.02247781
 -0.02341083 -0.02423323 -0.024948 -0.02559167 -0.02616584 -0.02669844 -0.02719001 -0.02765761 -0.02810181 -0.02853324
 -0.02895398 -0.02937399 -0.02979691 -0.0302338 -0.0306871 -0.03116558 -0.03166622 -0.03219212 -0.03273085 -0.03327923
 -0.03381583 -0.03433305 -0.03480881 -0.03523422 -0.03560257 -0.03590726 -0.03617348 -0.03639977 -0.0366459 -0.03691503
 -0.03727945 -0.03774195 -0.03835199 -0.03910647 -0.04000885 -0.0410489 -0.04218894 -0.04341494 -0.04467169 -0.04594653
 -0.04719068 -0.048398 -0.04953966 -0.05061876 -0.05162666 -0.05257366 -0.05346273 -0.05430538 -0.05510725 -0.05587493
 -0.05661203 -0.05731824 -0.05799463 -0.05863609 -0.05924211 -0.05980895 -0.06033614 -0.06082735 -0.06128307 -0.06171411
 -0.06212112 -0.06251431 -0.06289306 -0.06326036 -0.06361466 -0.06395277 -0.06427442 -0.06457695 -0.06486237 -0.06513195
 -0.06538836 -0.06563471 -0.06587203 -0.06610221 -0.06632403 -0.06653748 -0.06674102 -0.066934 -0.06711633 -0.0672878
 -0.067449 -0.06760003 -0.06774074 -0.06787114 -0.06799103 -0.06810039 -0.06819869 -0.06828587 -0.06836082 -0.06842384
 -0.06847472 -0.06851559 -0.06855091 -0.06858579 -0.06863109 -0.06869349 -0.06878658 -0.06891385 -0.06908542 -0.06929535
 -0.06954625 -0.06982 -0.07011203 -0.07039808 -0.07067018 -0.07091189 -0.07111694 -0.07128796 -0.07142316 -0.07154057
 -0.07164127 -0.07174198 -0.0718431 -0.07194668 -0.07205147 -0.07214747 -0.07223393 -0.07230158 -0.07235187 -0.07238358
 -0.0724 -0.07240651 -0.07240696 -0.07240858 -0.07241441 -0.07243046 -0.07245623 -0.07249463 -0.07253918 -0.07258999
 -0.07263273 -0.07266542 -0.07266628 -0.07263096 -0.07254182 -0.07239332 -0.07219981 -0.07195964 -0.07173998 -0.07154509
 -0.0714695 -0.07151435 -0.07173493 -0.0721183 -0.07263783 -0.07327051 -0.07393451 -0.07461405 -0.07523556 -0.07580121
 -0.07628082 -0.07668891 -0.07702816 -0.07731371 -0.07755636 -0.07776654 -0.07795122 -0.07811755 -0.07826873 -0.07841023
 -0.0785438 -0.07867178 -0.07879481 -0.07891257 -0.07902509 -0.07913161 -0.07923217 -0.07932821 -0.07941995 -0.07951016
 -0.07959878 -0.07968722 -0.07977477 -0.07986016 -0.07994266 -0.0800198 -0.08009228 -0.08015964 -0.08022383 -0.08028673
 -0.0803494 -0.08041369 -0.0804779 -0.08054188 -0.08060328 -0.08066083 -0.08071546 -0.0807668 -0.08081812 -0.08086987
 -0.08092404 -0.08098093 -0.08103994 -0.08110102 -0.08116249 -0.08122424 -0.08128488 -0.08134431 -0.08140129 -0.08145577
 -0.0815069 -0.08155478 -0.08159893 -0.08164009 -0.08167864 -0.08171666 -0.08175605 -0.08179961 -0.08185028 -0.0819084
 -0.08197565 -0.08204851 -0.08212659 -0.0822053 -0.08228359 -0.08235846 -0.08242939 -0.08249431 -0.08255298 -0.08260407
 -0.08264754 -0.0826854 -0.0827181 -0.08275127 -0.08278517 -0.08282434 -0.08286803 -0.08291634 -0.08296829 -0.08302154
 -0.08307619 -0.08313112 -0.0831875 -0.08324616 -0.083308 -0.08337435 -0.08344428 -0.08351804 -0.08359338 -0.08366977
 -0.08374484 -0.0838179 -0.08388779 -0.08395411 -0.08401746 -0.08407774 -0.08413706 -0.08419555 -0.08425574 -0.08431771
 -0.08438297 -0.08445137 -0.0845229 -0.08459743 -0.08467451 -0.08475418 -0.08483648 -0.08492116 -0.08500796 -0.08509631
 -0.08518536 -0.08527514 -0.08536515 -0.08545636 -0.08554924 -0.08564427 -0.08574209 -0.0858411 -0.08594128 -0.08604
 -0.08613685 -0.08623026 -0.08632004 -0.08640555 -0.08648673 -0.08656188 -0.08663078 -0.08669022 -0.08674029 -0.08677952
 -0.08680892 -0.08683094 -0.08684691 -0.08686126 -0.08687428 -0.0868885 -0.08690326 -0.08691867 -0.08693445 -0.08695025
 -0.08696642 -0.08698299 -0.08700041 -0.08701877 -0.08703863 -0.08706003 -0.087084 -0.08711077 -0.08714027 -0.08717258
 -0.08720598 -0.08724038 -0.08727429 -0.08730777 -0.0873414 -0.08737528 -0.08741052 -0.08744681 -0.08748366 -0.08752088
 -0.08755747 -0.08759417 -0.08763158 -0.08767069 -0.08771316 -0.08775865 -0.08780798 -0.08785889 -0.08791052 -0.08796082
 -0.08800853 -0.08805391 -0.0880964 -0.08813867 -0.08818099 -0.08822589 -0.08827377 -0.08832484 -0.08837916 -0.08843498
 -0.08849221 -0.08854912 -0.08860581 -0.0886618 -0.08871749 -0.08877384 -0.08883148 -0.08889238 -0.08895711 -0.0890279
 -0.08910396 -0.08918592 -0.08927083 -0.08935703 -0.08944095 -0.08951993 -0.08959299 -0.08965866 -0.08971924 -0.08977485
 -0.08982848 -0.08988076 -0.08993261 -0.08998424 -0.09003532 -0.09008583 -0.09013628 -0.09018677 -0.09023884 -0.09029256
 -0.09034925 -0.09040871 -0.0904711 -0.09053589 -0.09060219 -0.09066901 -0.09073446 -0.09079755 -0.09085621 -0.09091054
 -0.09095953 -0.09100489 -0.09104702 -0.09108814 -0.09112928 -0.09117125 -0.09121459 -0.09125872 -0.09130353 -0.09134907
 -0.0913952 -0.09144331 -0.09149346 -0.09154697 -0.09160374 -0.09166279 -0.0917237 -0.09178325 -0.09184124 -0.09189494
 -0.09194491 -0.09199099 -0.09203421 -0.0920762 -0.09211776 -0.09216061 -0.09220461 -0.09225033 -0.09229705 -0.0923446
 -0.09239203 -0.09243876 -0.09248488 -0.09253015 -0.09257562 -0.09262141 -0.09266829 -0.09271644 -0.0927652 -0.09281453
 -0.09286284 -0.09291011 -0.0929555 -0.09299918 -0.09304176 -0.09308354 -0.09312604 -0.09316929 -0.09321428 -0.09326048
 -0.09330747 -0.09335454 -0.09340037 -0.09344535 -0.09348906 -0.09353288 -0.09357762 -0.09362369 -0.0936719 -0.09372021
 -0.0937684 -0.09381379 -0.09385565 -0.09389382 -0.09392797 -0.09396116 -0.09399357 -0.09402838 -0.09406565 -0.09410633
 -0.09415015 -0.09419557 -0.09424245 -0.09428924 -0.09433622 -0.09438317 -0.09443061 -0.09447924 -0.0945297 -0.09458271
 -0.09463963 -0.09470152 -0.09477043 -0.09484788 -0.09493511 -0.09503355 -0.09514122 -0.09525838 -0.09538066 -0.09550731
 -0.09563541 -0.09576433 -0.09589518 -0.09602798 -0.09616505 -0.09630627 -0.09644949 -0.09659358 -0.09672961 -0.09685599
 -0.09696127 -0.09704493 -0.09709895 -0.09712566 -0.09712512 -0.09710104 -0.09705841 -0.09699909 -0.09692541 -0.09684142
 -0.09674674 -0.09665675 -0.09657574 -0.09652271 -0.09650517 -0.09652795 -0.09659526 -0.09669352 -0.09682297 -0.09695821
 -0.09709769 -0.09721708 -0.09731588 -0.0973874 -0.09743359 -0.09746632 -0.09748691 -0.09750748 -0.09752714 -0.0975498
 -0.09757376 -0.0975979 -0.09762003 -0.09763657 -0.09764686 -0.09764796 -0.09764359 -0.09763493 -0.09762603 -0.09761965
 -0.09761493 -0.09761232 -0.09760954 -0.09760559 -0.0976032 -0.09760231 -0.0976083 -0.09762169 -0.09764186 -0.09766848
 -0.09769415 -0.09771851 -0.09773488 -0.09774433 -0.09774742 -0.0977466 -0.09774911 -0.09775638 -0.09777545 -0.09780433
 -0.09784409 -0.09789003 -0.09793828 -0.09798522 -0.09802678 -0.09806337 -0.09809382 -0.0981207 -0.09814467 -0.09816712
 -0.09818853 -0.09820899 -0.09822849 -0.09824786 -0.09826712 -0.09828734 -0.09830848 -0.09832954 -0.09835014 -0.0983669
 -0.09837963 -0.09838542 -0.09838503 -0.0983787 -0.09836798 -0.09835588 -0.09834393 -0.09833556 -0.09833132 -0.09833328
 -0.09834032 -0.09835257 -0.09836799 -0.09838577 -0.09840435 -0.09842306 -0.09844118 -0.09845849 -0.0984742 -0.09848814
 -0.09850026 -0.09851049 -0.09852072 -0.09853107 -0.09854475 -0.09856166 -0.09858278 -0.09860752 -0.09863362 -0.09866054
 -0.09868532 -0.09870805 -0.09872749 -0.09874383 -0.09875692 -0.09876664 -0.09877273 -0.09877552 -0.09877471 -0.09877203
 -0.09876786 -0.09876478 -0.09876362 -0.09876616 -0.09877296 -0.09878453 -0.09880096 -0.09882294 -0.0988505 -0.09888453
 -0.09892504 -0.09897147 -0.09902348 -0.09907777 -0.09913388 -0.09918764 -0.09923922 -0.0992867 -0.09933092 -0.0993726
 -0.09941293 -0.09945396 -0.09949626 -0.09954136 -0.09958854 -0.09963818 -0.09968822 -0.09973785 -0.09978551 -0.09983032
 -0.09987254 -0.09991203 -0.09994959 -0.09998544 -0.1000189 -0.1000499 -0.1000771 -0.1001005 -0.10012 -0.1001359
 -0.1001493 -0.1001607 -0.1001719 -0.1001834 -0.1001974 -0.1002142 -0.1002361 -0.1002624 -0.1002938 -0.1003283
 -0.1003642 -0.1003993 -0.1004312 -0.1004593 -0.1004822 -0.1005012 -0.1005162 -0.1005289 -0.1005395 -0.1005498
 -0.1005601 -0.1005717 -0.100585 -0.1006002 -0.1006174 -0.1006349 -0.1006526 -0.1006682 -0.1006817 -0.1006925
 -0.1007009 -0.1007078 -0.1007128 -0.1007158 -0.1007163 -0.1007132 -0.1007065 -0.1006958 -0.100683 -0.1006689
 -0.1006564 -0.1006469 -0.1006429 -0.1006455 -0.1006563 -0.1006759 -0.1007047 -0.1007431 -0.1007905 -0.1008471
 -0.1009107 -0.1009811 -0.101054 -0.1011289 -0.1011999 -0.1012669 -0.1013263 -0.1013792 -0.1014271 -0.1014714
 -0.1015163 -0.1015618 -0.1016101 -0.1016595 -0.1017092 -0.1017578 -0.1018037 -0.1018477 -0.1018897 -0.1019322
 -0.1019759 -0.102023 -0.1020744 -0.1021296 -0.1021888 -0.1022493 -0.1023107 -0.1023696 -0.102426 -0.1024771
 -0.102523 -0.1025626 -0.1025961 -0.1026242 -0.1026471 -0.102666 -0.1026808 -0.1026918 -0.1026984 -0.1026995
 -0.102696 -0.1026873 -0.1026767 -0.1026666 -0.1026599 -0.1026596 -0.1026647 -0.1026763 -0.1026894 -0.1027032
 -0.1027143 -0.1027217 -0.1027271 -0.1027305 -0.1027358 -0.1027432 -0.1027548 -0.1027703 -0.1027886 -0.1028096
 -0.1028317 -0.102855 -0.1028795 -0.1029055 -0.1029337 -0.1029638 -0.1029958 -0.1030295 -0.1030644 -0.1031009
 -0.1031391 -0.1031794 -0.1032223 -0.1032665 -0.103312 -0.1033559 -0.1033973 -0.103435 -0.1034684 -0.1034995
 -0.1035283 -0.1035573 -0.1035868 -0.1036164 -0.1036458 -0.1036725 -0.1036965 -0.1037169 -0.1037344 -0.103751
 -0.1037674 -0.103786 -0.1038066 -0.1038302 -0.103856 -0.1038832 -0.1039106 -0.1039371 -0.1039621 -0.1039845
 -0.1040056 -0.1040251 -0.104045 -0.1040659 -0.1040882 -0.1041123 -0.1041362 -0.1041599 -0.1041814 -0.1042008
 -0.1042185 -0.1042348 -0.1042516 -0.1042688 -0.1042869 -0.1043054 -0.1043227 -0.1043386 -0.1043511 -0.1043608
 -0.1043676 -0.104373 -0.1043787 -0.1043855 -0.104395 -0.1044064 -0.1044197 -0.1044335 -0.1044472 -0.1044612
 -0.1044751 -0.1044904 -0.1045076 -0.104526 -0.1045459 -0.1045636 -0.1045789 -0.104589 -0.1045938 -0.1045942
 -0.1045905 -0.1045855 -0.1045788 -0.1045708 -0.1045607 -0.1045457 -0.1045261 -0.1045005 -0.1044711 -0.10444
 -0.1044093 -0.1043822 -0.1043572 -0.1043346 -0.104311 -0.1042844 -0.1042545 -0.1042199 -0.1041848 -0.1041495
 -0.1041173 -0.1040888 -0.1040628 -0.1040394 -0.1040158 -0.1039922 -0.1039683 -0.1039442 -0.1039217 -0.1039008
 -0.1038829 -0.1038679 -0.1038565 -0.1038488 -0.1038453 -0.1038457 -0.1038502 -0.1038579 -0.1038682 -0.1038801
 -0.1038927 -0.1039056 -0.1039184 -0.1039312 -0.1039441 -0.1039573 -0.103971 -0.1039852 -0.1040001 -0.1040162
 -0.1040335 -0.1040528 -0.104074 -0.1040967 -0.1041209 -0.1041448 -0.1041685 -0.1041913 -0.1042139 -0.1042379
 -0.104264 -0.1042944 -0.104329 -0.1043684 -0.104412 -0.1044594 -0.1045097 -0.1045625 -0.104616 -0.1046697
 -0.1047226 -0.1047739 -0.1048256 -0.1048776 -0.1049351 -0.1049988 -0.1050722 -0.1051556 -0.1052473 -0.105347
 -0.1054489 -0.1055527 -0.1056531 -0.10575 -0.1058409 -0.1059263 -0.1060059 -0.10608 -0.1061496 -0.1062146
 -0.1062752 -0.1063311 -0.106382 -0.1064272 -0.1064661 -0.106499 -0.1065254 -0.1065477 -0.106566 -0.1065838
 -0.1066019 -0.1066217 -0.1066439 -0.1066656 -0.1066867 -0.1067031 -0.1067145 -0.1067197 -0.1067193 -0.1067163
 -0.1067116 -0.1067104 -0.1067126 -0.1067215 -0.1067357 -0.1067543 -0.1067753 -0.1067954 -0.1068139 -0.1068287
 -0.1068409 -0.1068505 -0.1068595 -0.1068686 -0.1068794 -0.1068924 -0.1069086 -0.1069284 -0.1069512 -0.1069771
 -0.1070033 -0.1070297 -0.1070537 -0.1070753 -0.1070944 -0.1071111 -0.1071266 -0.1071409 -0.1071545 -0.1071677
 -0.1071813 -0.1071951 -0.1072097 -0.1072235 -0.1072351 -0.1072425 -0.1072431 -0.1072376 -0.1072251 -0.1072097
 -0.1071928 -0.1071779 -0.1071667 -0.1071589 -0.107155 -0.1071529 -0.1071523 -0.107151 -0.107149 -0.1071449
 -0.1071385 -0.1071294 -0.1071177 -0.1071049 -0.1070912 -0.1070791 -0.1070683 -0.1070595 -0.1070509 -0.1070389
 -0.1070226 -0.1069981 -0.1069682 -0.1069334 -0.1068983 -0.1068666 -0.1068389 -0.1068172 -0.1067981 -0.1067813
 -0.1067639 -0.1067453 -0.1067245 -0.1067013 -0.1066743 -0.1066434 -0.1066073 -0.1065659 -0.1065206 -0.1064716
 -0.106422 -0.1063719 -0.1063237 -0.1062771 -0.1062332 -0.1061915 -0.1061523 -0.1061151 -0.1060795 -0.1060451
 -0.1060116 -0.1059784 -0.105945 -0.1059096 -0.1058711 -0.1058286 -0.1057809 -0.105731 -0.1056789 -0.1056285
 -0.1055804 -0.1055351 -0.1054926 -0.1054519 -0.1054128 -0.1053758 -0.105341 -0.1053082 -0.1052767 -0.105242
 -0.1052031 -0.105154 -0.1050958 -0.1050269 -0.1049504 -0.1048704 -0.1047891 -0.1047109 -0.1046349 -0.1045624
 -0.1044908 -0.1044189 -0.1043463 -0.1042719 -0.1041989 -0.1041276 -0.1040613 -0.1040009 -0.1039444 -0.1038919
 -0.1038357 -0.1037755 -0.1037029 -0.1036184 -0.1035207 -0.1034116 -0.1032989 -0.1031835 -0.1030732 -0.1029659
 -0.1028616 -0.102756 -0.1026432 -0.1025205 -0.1023826 -0.1022306 -0.102063 -0.1018829 -0.1016915 -0.1014908
 -0.1012821 -0.1010641 -0.100837 -0.1005969 -0.100343 -0.100076 -0.0997956 -0.09951054 -0.09922127 -0.09893458
 -0.0986501 -0.09836616 -0.09808287 -0.097799 -0.09751672 -0.09724285 -0.0969776 -0.0967262 -0.0964842 -0.09624697
 -0.09601174 -0.09577189 -0.09553275 -0.09529593 -0.09506635 -0.09484878 -0.0946379 -0.09443378 -0.09422772 -0.09401739
 -0.09379974 -0.09357402 -0.09333944 -0.09309632 -0.0928361 -0.09255819 -0.09224506 -0.09189656 -0.09150299 -0.09106779
 -0.09060404 -0.09011434 -0.08961654 -0.08910494 -0.08857751 -0.08802438 -0.08742953 -0.08678731 -0.08608662 -0.0853229
 -0.08449381 -0.08358233 -0.08258403 -0.08146957 -0.08022682 -0.078843 -0.0773068 -0.075651 -0.07387426 -0.07204233
 -0.07015993 -0.06828847 -0.06643113 -0.06462251 -0.06286059 -0.0611389 -0.05944768 -0.05773268 -0.0559838 -0.05413041
 -0.05218861 -0.05014812 -0.04805629 -0.04598698 -0.04395787 -0.04202961 -0.0401605 -0.03834215 -0.03652684 -0.034683
 -0.03280235 -0.03087291 -0.02890752 -0.02690915 -0.02487576 -0.02280715 -0.0207026 -0.01856081 -0.01640234 -0.01422826
 -0.01205855 -0.009895914 -0.007770456 -0.005695213 -0.003754782 -0.001967521 -0.0004418744 0.0008164814 0.001742046 0.002336371
 0.002569654 0.002457394 0.001988145 0.001230113 0.0002188799 -0.0009557236 -0.002236334 -0.003577491 -0.004952445 -0.006335597
 -0.007719542 -0.009072402 -0.01038584 -0.01165978 -0.01289057 -0.01412728 -0.01537244 -0.0166796 -0.01804782 -0.01948201
 -0.02097455 -0.02248216 -0.024003 -0.02550494 -0.02699765 -0.02848846 -0.02998458 -0.03150488 -0.03304133 -0.03459717
 -0.03614863 -0.03768102 -0.03916896 -0.04059402 -0.04194652 -0.04321764 -0.04441082 -0.04552593 -0.04656381 -0.0475252
 -0.04840507 -0.04920273 -0.04991862 -0.05055273 -0.05111259 -0.05159824 -0.0520126 -0.05235472 -0.05261983 -0.05280815
 -0.05291695 -0.0529491 -0.05290949 -0.0528019 -0.05263422 -0.05240993 -0.05213531 -0.05181424 -0.05145173 -0.05104975
 -0.05061157 -0.05013417 -0.04961804 -0.04905661 -0.04844905 -0.04778718 -0.04707037 -0.0462869 -0.04543577 -0.04450522
 -0.04349446 -0.04240658 -0.0412435 -0.04003097 -0.03877446 -0.03751637 -0.03626836 -0.0350909 -0.03400212 -0.03307872
 -0.03232453 -0.03179115 -0.03144425 -0.03127272 -0.03121943 -0.03123787 -0.03128037 -0.0313069 -0.03129812 -0.03123673
 -0.03112299 -0.03095652 -0.03072641 -0.03043399 -0.03004558 -0.02955674 -0.02895612 -0.02824218 -0.02747731 -0.0266663
 -0.02589372 -0.02515863 -0.02449614 -0.02390236 -0.0233803 -0.02293008 -0.02255399 -0.02225218 -0.02202469 -0.02187514
 -0.02179844 -0.02182658 -0.02197002 -0.02229965 -0.02285821 -0.02369192 -0.02484339 -0.02626695 -0.0279687 -0.02985325
 -0.03190997 -0.03404027 -0.03623565 -0.03839422 -0.0405094 -0.04250373 -0.04437624 -0.046106 -0.04769653 -0.0491612
 -0.05050129 -0.05172707 -0.05284094 -0.0538492 -0.05476596 -0.05561272 -0.05641674 -0.05721705 -0.05803956 -0.05892232
 -0.05986747 -0.06089231 -0.06197101 -0.06309951 -0.0642479 -0.06540826 -0.06655801 -0.0676953 -0.06878302 -0.06981845
 -0.07075598 -0.07159206 -0.07232346 -0.07295211 -0.07351483 -0.07401349 -0.07447904 -0.07490928 -0.07531279 -0.07568491
 -0.07601956 -0.07630945 -0.0765411 -0.07670332 -0.07677911 -0.07675476 -0.07661501 -0.07634495 -0.07593726 -0.07536343
 -0.07462204 -0.07364479 -0.07242434 -0.07085251 -0.06890954 -0.06651659 -0.06365532 -0.06036272 -0.05663753 -0.05262392
 -0.04833224 -0.04394048 -0.03947369 -0.03516605 -0.03109149 -0.02765105 -0.02495858 -0.02354573 -0.0234181 -0.02493165
 -0.02777063 -0.03177587 -0.03638379 -0.04105401 -0.04538659 -0.04894086 -0.05170852 -0.05353559 -0.05470481 -0.05523954
 -0.05550017 -0.05555729 -0.05564014 -0.05578989 -0.05606063 -0.05646028 -0.05695247 -0.05753427 -0.05814658 -0.05878656
 -0.05940526 -0.06000315 -0.06055519 -0.06106506 -0.06152983 -0.06195302 -0.06234163 -0.06269296 -0.06300833 -0.06327891
 -0.06349757 -0.06365684 -0.06375074 -0.06377307 -0.06372129 -0.06358588 -0.06336286 -0.06305017 -0.06264503 -0.06215977
 -0.06159552 -0.06096207 -0.06026045 -0.05948621 -0.05863975 -0.05772765 -0.05675589 -0.05577143 -0.05478594 -0.05387443
 -0.0530457 -0.05236383 -0.05182866 -0.05147334 -0.05128425 -0.05126212 -0.05137882 -0.05161241 -0.05193136 -0.05230954
 -0.05272875 -0.05317339 -0.05364256 -0.05413185 -0.0546498 -0.0551977 -0.05578057 -0.05640038 -0.05704753 -0.05772197
 -0.05840113 -0.05908386 -0.05974878 -0.06039556 -0.06101236 -0.06159925 -0.06215013 -0.06266515 -0.06314163 -0.06357972
 -0.06397928 -0.06433817 -0.06465486 -0.06492323 -0.06513762 -0.06529171 -0.06537887 -0.06539901 -0.06534896 -0.06523623
 -0.06506252 -0.06483416 -0.06455746 -0.06420813 -0.06379392 -0.06320038 -0.06242568 -0.06122373 -0.05958192 -0.05724177
 -0.05423298 -0.05063852 -0.04660901 -0.04285422 -0.03955945 -0.03771229 -0.03722202 -0.03850172 -0.04106664 -0.0444716
 -0.04817159 -0.05146116 -0.05408819 -0.05564573 -0.05618024 -0.05558047 -0.05407991 -0.0516478 -0.04885358 -0.04571639
 -0.04323377 -0.04152507 -0.04141663 -0.04301345 -0.04610072 -0.0506442 -0.05547658 -0.06053623 -0.06475446 -0.06819656
 -0.07058768 -0.07207017 -0.07293046 -0.07325679 -0.07337149 -0.07328663 -0.07315059 -0.07295754 -0.07274868 -0.072527
 -0.07230649 -0.07208525 -0.07186796 -0.07164221 -0.07140604 -0.07114522 -0.07085656 -0.07053032 -0.07016426 -0.0697576
 -0.06930965 -0.0688296 -0.06831802 -0.06778838 -0.06724153 -0.06669027 -0.06613553 -0.06558869 -0.06504976 -0.06452588
 -0.06401374 -0.0635123 -0.06301224 -0.0625037 -0.06196783 -0.06138881 -0.06073255 -0.05998109 -0.0590767 -0.0580011
 -0.0566643 -0.05504516 -0.05303033 -0.05059467 -0.04764757 -0.04416595 -0.0401572 -0.03561084 -0.03070927 -0.02546677
 -0.0202989 -0.01525526 -0.0109734 -0.007515867 -0.005558151 -0.005083902 -0.006459467 -0.009490203 -0.01400693 -0.01966555
 -0.02592015 -0.03243569 -0.03866811 -0.04443597 -0.04942697 -0.05365258 -0.05701865 -0.05967022 -0.06162143 -0.06305495
 -0.06400779 -0.06463215 -0.06495312 -0.06507205 -0.06499948 -0.06480009 -0.0644775 -0.06407864 -0.06360526 -0.06309286
 -0.06254169 -0.06197411 -0.06138548 -0.06077722 -0.06013434 -0.05942601 -0.0586381 -0.05772321 -0.05671141 -0.05559312
 -0.05447094 -0.05340559 -0.05250559 -0.05185708 -0.05145426 -0.05133136 -0.05137854 -0.0515698 -0.05186366 -0.05223486
 -0.05280519 -0.05358137 -0.05469663 -0.05615635 -0.05789188 -0.05988223 -0.06186751 -0.06382915 -0.06552368 -0.06696746
 -0.06807896 -0.06890011 -0.06948203 -0.0698624 -0.07012209 -0.07028064 -0.0703894 -0.07045363 -0.07049253 -0.07050572
 -0.07049688 -0.07046698 -0.0704165 -0.07034853 -0.07026384 -0.07016458 -0.0700512 -0.06992462 -0.0697849 -0.06963328
 -0.06946982 -0.0692944 -0.06910678 -0.06890394 -0.06868567 -0.06844935 -0.06819501 -0.06792155 -0.0676288 -0.06731588
 -0.0669826 -0.06662821 -0.06625277 -0.06585676 -0.06543802 -0.0649963 -0.06452572 -0.0640238 -0.06348413 -0.06290407
 -0.06227914 -0.06160806 -0.06088712 -0.06011547 -0.05929165 -0.05841518 -0.05748948 -0.05651471 -0.05549543 -0.0544316
 -0.05332395 -0.05217179 -0.05097227 -0.04972325 -0.04841799 -0.04704971 -0.04560311 -0.0440633 -0.04240484 -0.04060241
 -0.03862578 -0.03643398 -0.03399977 -0.03125019 -0.02816168 -0.02460306 -0.02053925 -0.01580316 -0.01033298 -0.004098471
 0.002964024 0.01047048 0.01842986 0.02597571 0.03306063 0.03874515 0.04301523 0.04545109 0.04613012 0.04528207
 0.04302153 0.0398559 0.03590004 0.0316383 0.02722835 0.02310801 0.01946951 0.01669303 0.01490746 0.01434435
 0.01502404 0.01701263 0.02031211 0.02491818 0.03091109 0.03830996 0.04718 0.05756886 0.06926253 0.08228154
 0.09596119 0.1102673 0.1242558 0.1378818 0.150335 0.1616029 0.1712145 0.1791518 0.1851105 0.1890451
 0.1906716 0.1900129 0.1869335 0.1816015 0.1741143 0.1647511 0.1537059 0.141375 0.127944 0.1139787
 0.09967226 0.08565027 0.07209826 0.05944791 0.04781535 0.03730885 0.02796335 0.01965944 0.01239282 0.005984013
 0.0004241798 -0.004440057 -0.008617523 -0.01223589 -0.01531105 -0.01796566 -0.0202234 -0.02220093 -0.02392212 -0.02547956
 -0.02688688 -0.02819838 -0.02941124 -0.03054362 -0.03157891 -0.03251376 -0.03333004 -0.0340197 -0.03457278 -0.03498647
 -0.03525015 -0.03536757 -0.03529179 -0.03502697 -0.03443352 -0.03350499 -0.03200583 -0.02993014 -0.02712458 -0.02364881
 -0.01976851 -0.01566469 -0.01216507 -0.009450957 -0.00848256 -0.009145098 -0.01179903 -0.01593356 -0.02112688 -0.02679099
 -0.03226636 -0.03726825 -0.04140241 -0.04475681 -0.0472486 -0.04913132 -0.05045131 -0.05142726 -0.05210458 -0.05261589
 -0.05298068 -0.05327392 -0.05350164 -0.05370617 -0.05388881 -0.05407154 -0.0542541 -0.05444569 -0.05464582 -0.0548573
 -0.05508053 -0.05531794 -0.05557004 -0.05584001 -0.05612484 -0.05642338 -0.05672882 -0.05703529 -0.0573369 -0.05762821
 -0.05790731 -0.05817179 -0.05842296 -0.05866045 -0.0588872 -0.05910354 -0.05931244 -0.05951416 -0.05971149 -0.05990455
 -0.06009877 -0.06029455 -0.0604994 -0.06071356 -0.06094212 -0.06118516 -0.06144528 -0.06172322 -0.06202224 -0.0623428
 -0.06268805 -0.06305572 -0.06344511 -0.06385144 -0.06427115 -0.06469778 -0.0651278 -0.06555207 -0.06596678 -0.06636288
 -0.066737 -0.06708455 -0.06740405 -0.06769405 -0.06795441 -0.06818192 -0.06837645 -0.06853314 -0.06865172 -0.06872696
 -0.06875823 -0.06873862 -0.06866714 -0.06853629 -0.06834441 -0.06808516 -0.06775265 -0.06733813 -0.06682295 -0.06618907
 -0.06539321 -0.06440157 -0.06314722 -0.06157667 -0.05965684 -0.05732879 -0.0547151 -0.05179301 -0.04889932 -0.04607308
 -0.04370103 -0.04184551 -0.04064143 -0.04011196 -0.04003515 -0.0403944 -0.04083135 -0.04133698 -0.04167741 -0.04186592
 -0.04183417 -0.04160128 -0.04117421 -0.04059147 -0.03990677 -0.03921089 -0.03862942 -0.03827865 -0.0383186 -0.03878929
 -0.03979525 -0.0412205 -0.04307145 -0.04511704 -0.04730277 -0.04940806 -0.05137698 -0.05310224 -0.05455602 -0.05576429
 -0.05672422 -0.05753943 -0.05821523 -0.05885055 -0.0594458 -0.06004786 -0.06065207 -0.06126257 -0.06187551 -0.06248336
 -0.06308176 -0.06366112 -0.06421235 -0.06471984 -0.06517535 -0.06556313 -0.06588723 -0.06614283 -0.06634539 -0.0665
 -0.06662037 -0.06671239 -0.0667804 -0.0668266 -0.06684988 -0.06685019 -0.06682784 -0.06678266 -0.06671944 -0.06663842
 -0.06654509 -0.066439 -0.06631879 -0.066183 -0.06602332 -0.06584037 -0.06563031 -0.06539758 -0.06514917 -0.06488898
 -0.06462634 -0.06436048 -0.06409401 -0.06382535 -0.06355301 -0.0632801 -0.06300692 -0.06273915 -0.06247888 -0.06222852
 -0.06198959 -0.06175893 -0.06153691 -0.06131545 -0.06109416 -0.06086224 -0.06061912 -0.06035526 -0.06007057 -0.05976029
 -0.05942473 -0.05906308 -0.05867523 -0.05826132 -0.05781907 -0.05734535 -0.05683446 -0.05627832 -0.05566892 -0.0549965
 -0.05425262 -0.05342916 -0.05251971 -0.05151838 -0.05042601 -0.04924123 -0.04796904 -0.04661581 -0.04515332 -0.04358935
 -0.04180608 -0.039801 -0.03735562 -0.03445828 -0.030881 -0.02663378 -0.02167765 -0.01611105 -0.01032834 -0.00456693
 0.000264769 0.003917655 0.005348185 0.004656677 0.001377549 -0.003830129 -0.01058298 -0.01799513 -0.0253316 -0.03204842
 -0.03763561 -0.04212749 -0.04537585 -0.04776929 -0.04935139 -0.05051452 -0.0513214 -0.05199699 -0.05256834 -0.05311012
 -0.05362591 -0.05410714 -0.05455075 -0.0549222 -0.05522159 -0.05543015 -0.0555535 -0.05559887 -0.0555733 -0.05549438
 -0.05536899 -0.0552136 -0.05503574 -0.05484852 -0.05465821 -0.05447328 -0.05429639 -0.05413111 -0.05397724 -0.05383584
 -0.05370421 -0.0535822 -0.05346598 -0.05335498 -0.05324706 -0.05314212 -0.0530372 -0.05293209 -0.05281926 -0.05269834
 -0.05256228 -0.05241198 -0.05224831 -0.05207306 -0.05189285 -0.05170795 -0.05152252 -0.05133532 -0.05114602 -0.05095407
 -0.05075812 -0.05055989 -0.0503598 -0.0501607 -0.04996471 -0.04977139 -0.04958195 -0.04939117 -0.04919804 -0.04899883
 -0.0487923 -0.04858121 -0.04836559 -0.0481497 -0.04793375 -0.04771845 -0.0475038 -0.04728959 -0.04707615 -0.04686546
 -0.04665743 -0.04645302 -0.04625131 -0.04605048 -0.04585031 -0.04564952 -0.04544865 -0.04524805 -0.04504737 -0.04484672
 -0.04464494 -0.04444124 -0.04423572 -0.04402776 -0.0438198 -0.04361198 -0.04340809 -0.04320897 -0.04301509 -0.04282689
 -0.04263898 -0.04245107 -0.0422584 -0.04206118 -0.04186117 -0.04165808 -0.04145284 -0.04124194 -0.04101379 -0.04076522
 -0.04048077 -0.04016536 -0.03981768 -0.03944964 -0.03907411 -0.03869917 -0.03833659 -0.03798496 -0.03764693 -0.0373183
 -0.03699636 -0.03668592 -0.03638592 -0.03611065 -0.03586255 -0.03564929 -0.0354731 -0.03531925 -0.03518703 -0.03504682
 -0.03489757 -0.03471808 -0.0345099 -0.03427096 -0.03400433 -0.03371894 -0.03341848 -0.03311498 -0.03281296 -0.03252454
 -0.03225352 -0.03200894 -0.03179209 -0.03160708 -0.0314531 -0.03133162 -0.0312384 -0.031174 -0.03112721 -0.03109694
 -0.03106641 -0.0310331 -0.0309833 -0.03091507 -0.03082468 -0.03071179 -0.03058345 -0.03044035 -0.03029401 -0.03014418
 -0.02999578 -0.02984651 -0.02969037 -0.02952597 -0.0293457 -0.02915243 -0.02894624 -0.02873341 -0.02851984 -0.02831437
 -0.02812463 -0.02796065 -0.02783185 -0.02773666 -0.02768414 -0.02763736 -0.02759409 -0.02749487 -0.02732396 -0.02708529
 -0.0267731 -0.02646097 -0.026153 -0.02589776 -0.02569453 -0.02553937 -0.02542767 -0.02532835 -0.02523906 -0.02513261
 -0.02501388 -0.02487962 -0.02473921 -0.02460762 -0.02448995 -0.02440086 -0.02433355 -0.02429038 -0.02425434 -0.02421726
 -0.02416448 -0.02408655 -0.02398404 -0.02385308 -0.02370894 -0.02355302 -0.02340156 -0.02325681 -0.02312392 -0.02300338
 -0.0228936 -0.02279499 -0.02271343 -0.02265063 -0.02262153 -0.02262635 -0.02267575 -0.02276504 -0.02288991 -0.02304082
 -0.02320127 -0.02335895 -0.02349311 -0.02359436 -0.02364518 -0.02365094 -0.02360445 -0.02353291 -0.0234431 -0.02336492
 -0.02331068 -0.02328208 -0.02328504 -0.02328888 -0.02329148 -0.0232625 -0.02319956 -0.02310264 -0.0229727 -0.02282866
 -0.02266994 -0.02250211 -0.02232184 -0.02211718 -0.02188925 -0.02163249 -0.02135538 -0.02107043 -0.02078432 -0.02051265
 -0.02025155 -0.0200037 -0.01976215 -0.01952119 -0.01928472 -0.01905117 -0.01883248 -0.01863288 -0.0184538 -0.0182978
 -0.0181521 -0.01801547 -0.01787934 -0.01774285 -0.01761209 -0.01748739 -0.01737609 -0.01727689 -0.017184 -0.01709571
 -0.01700062 -0.016901 -0.01679594 -0.01669085 -0.01659605 -0.01651284 -0.01644946 -0.01639806 -0.01635569 -0.01631225
 -0.01625894 -0.01619658 -0.0161212 -0.01604488 -0.01597065 -0.01590527 -0.01585241 -0.01580182 -0.01575353 -0.01569
 -0.01560992 -0.01550543 -0.01537684 -0.01523164 -0.0150717 -0.01491394 -0.01476012 -0.01462721 -0.0145144 -0.01443
 -0.01436799 -0.01432318 -0.01428494 -0.01423881 -0.01417352 -0.01407368 -0.01393411 -0.01374405 -0.01351401 -0.01324036
 -0.01295558 -0.01266371 -0.01241103 -0.01220616 -0.01208456 -0.01205315 -0.0121146 -0.01227053 -0.01248779 -0.01276394
 -0.01304921 -0.01334182 -0.01360423 -0.01383868 -0.01403453 -0.0141954 -0.01432715 -0.01442887 -0.01450231 -0.01454368
 -0.01454592 -0.01451458 -0.01444735 -0.01436542 -0.01427973 -0.01421127 -0.01417503 -0.01416874 -0.01419829 -0.01423991
 -0.01429026 -0.01432973 -0.01435455 -0.01436352 -0.01435618 -0.01433666 -0.01430503</values></Ydata></AB><ScSm><Ydata ylabel="Single channel"><values byteorder="INTEL" format="FLOAT32" numvalues="1814"> 0.08445565 0.08457047 0.08470181 0.08485414 0.08501998 0.08518571 0.08533941 0.08547729 0.08560196 0.08571301
 0.08580897 0.08590223 0.08601899 0.0861741 0.08635245 0.0865193 0.08664694 0.08673824 0.08682941 0.08695732
 0.08711311 0.08723854 0.08728005 0.08724487 0.08719787 0.08720249 0.08727852 0.08743142 0.08768784 0.0880325
 0.088323 0.08838257 0.08822055 0.08806088 0.08809505 0.08829145 0.08848845 0.08857379 0.08852644 0.08840048
 0.0883518 0.08859117 0.08919241 0.08993362 0.09036617 0.09007618 0.08896063 0.08737338 0.08603789 0.08566989
 0.08646343 0.08787587 0.08903286 0.08943258 0.08921874 0.08880883 0.08845685 0.08824585 0.08828236 0.08867906
 0.08937321 0.09005207 0.09027425 0.08975933 0.08870393 0.08774924 0.08745798 0.08787663 0.08872775 0.08974726
 0.09044274 0.08984372 0.08735679 0.08407208 0.08242975 0.0839687 0.08771661 0.09120177 0.09270567 0.09217504
 0.09050845 0.08875977 0.08786246 0.0883113 0.08983791 0.09167886 0.09318499 0.09399898 0.09389477 0.09288033
 0.09140994 0.09019326 0.08980015 0.09049505 0.09213047 0.09398519 0.09505191 0.09483138 0.09370708 0.09244648
 0.09163404 0.09164514 0.09267806 0.09451848 0.09655429 0.09822832 0.09933251 0.0998885 0.1000056 0.09985434
 0.09958464 0.09930952 0.09922275 0.099498 0.09995247 0.1000842 0.09963062 0.09892293 0.09855093 0.0987554
 0.09922199 0.0994616 0.09929512 0.09876665 0.09764925 0.09555373 0.09272769 0.09018242 0.08870811 0.08831985
 0.08889745 0.09052019 0.09269031 0.09409495 0.09392577 0.09296813 0.09275132 0.09389433 0.09571747 0.09723477
 0.0981124 0.09872115 0.09955643 0.1006781 0.1015697 0.101518 0.1003393 0.09883364 0.09825694 0.09910858
 0.100646 0.1017988 0.1022943 0.1026311 0.1031947 0.1036955 0.1034204 0.1019973 0.1000382 0.0989258
 0.09967417 0.1019257 0.1041371 0.1047446 0.1032751 0.1006036 0.09822226 0.09716762 0.09761252 0.09928937
 0.1018635 0.1047792 0.1071706 0.1082973 0.1080559 0.1069627 0.1055921 0.1040392 0.1021196 0.1002053
 0.0994523 0.1007229 0.1034813 0.1062178 0.1078441 0.1083014 0.1079518 0.1068452 0.1048126 0.1022196
 0.1003054 0.1002661 0.1018947 0.1036306 0.104218 0.1038809 0.1036142 0.1038227 0.1040995 0.1040593
 0.1039131 0.1041677 0.1049787 0.1059528 0.1065644 0.1066397 0.1063964 0.1061347 0.105952 0.1056879
 0.1051739 0.1046126 0.10456 0.1053397 0.1066055 0.1076895 0.1082601 0.1084522 0.1084588 0.1082055
 0.1074783 0.1063426 0.105342 0.1051117 0.1057628 0.1067988 0.107644 0.1080724 0.1081491 0.1080123
 0.1077809 0.1075242 0.1072786 0.107129 0.1071933 0.1074658 0.1077719 0.1079418 0.1079502 0.1078528
 0.107674 0.1074081 0.1070889 0.106814 0.1066843 0.1067232 0.1068688 0.1070382 0.1071652 0.107192
 0.1070874 0.1068891 0.1066784 0.1065062 0.1063747 0.1062853 0.1062593 0.1063005 0.106369 0.1064089
 0.1063946 0.1063365 0.1062506 0.106141 0.1060145 0.1058931 0.1058072 0.1057764 0.1057911 0.1058179
 0.1058372 0.1058669 0.1059214 0.1059644 0.1059401 0.1058459 0.1057384 0.1056719 0.1056572 0.1056716
 0.1056836 0.105663 0.1055861 0.1054503 0.1052981 0.1052075 0.1052324 0.1053599 0.1055378 0.1057208
 0.1058747 0.105973 0.1060176 0.1060401 0.1060633 0.10608 0.1060771 0.1060655 0.1060802 0.1061553
 0.106291 0.1064461 0.1065712 0.1066465 0.1066823 0.1067048 0.1067493 0.1068345 0.1069311 0.1069856
 0.1069884 0.1069903 0.107039 0.1071226 0.1071892 0.1072075 0.1071968 0.1071992 0.1072337 0.1072832
 0.1073242 0.1073546 0.1073903 0.1074392 0.1074815 0.1074779 0.1074072 0.1072968 0.1072002 0.1071445
 0.1071164 0.1070968 0.1070852 0.1070845 0.1070801 0.1070486 0.1069831 0.1069014 0.1068255 0.1067555
 0.1066704 0.1065556 0.1064198 0.1062835 0.1061593 0.1060449 0.1059291 0.1058012 0.1056569 0.1054982
 0.1053281 0.1051485 0.1049606 0.1047692 0.1045885 0.1044392 0.1043282 0.1042276 0.1040904 0.1038939
 0.1036632 0.1034485 0.1032812 0.1031555 0.1030444 0.1029282 0.1028095 0.102703 0.1026196 0.1025611
 0.1025237 0.1025038 0.1025038 0.1025362 0.1026135 0.1027274 0.1028446 0.102934 0.1029963 0.1030581
 0.1031412 0.1032461 0.1033628 0.1034853 0.1036153 0.1037586 0.1039153 0.1040725 0.104211 0.1043266
 0.1044362 0.1045623 0.1047169 0.1049001 0.1050998 0.1052907 0.1054502 0.1055827 0.1057183 0.1058804
 0.1060663 0.1062595 0.1064529 0.1066517 0.1068625 0.1070889 0.1073329 0.1075967 0.1078809 0.108182
 0.1084905 0.1087957 0.1090953 0.1094007 0.1097289 0.110088 0.1104709 0.1108601 0.1112414 0.1116128
 0.1119828 0.1123592 0.112742 0.1131308 0.1135334 0.1139598 0.114408 0.1148619 0.1153063 0.1157396
 0.1161707 0.1166079 0.1170524 0.1175024 0.1179603 0.1184312 0.1189095 0.1193735 0.1198019 0.1201976
 0.1205861 0.1209924 0.1214224 0.1218632 0.1222923 0.1226909 0.1230597 0.1234216 0.1237991 0.1241894
 0.1245731 0.1249469 0.1253326 0.1257474 0.1261747 0.1265731 0.126917 0.1272217 0.1275257 0.1278487
 0.1281746 0.1284758 0.1287474 0.1290088 0.1292773 0.1295529 0.1298315 0.1301199 0.130425 0.1307367
 0.1310333 0.1313033 0.1315535 0.1317944 0.1320277 0.1322473 0.1324479 0.132633 0.1328167 0.1330108
 0.1332124 0.1334104 0.1336068 0.1338182 0.1340554 0.1343153 0.1345956 0.1349043 0.1352421 0.1355898
 0.1359278 0.1362645 0.1366266 0.1370168 0.1373968 0.1377256 0.1380036 0.1382641 0.138533 0.1388161
 0.1391184 0.1394522 0.139823 0.1402178 0.1406107 0.14098 0.1413228 0.1416586 0.14201 0.1423738
 0.1427207 0.1430243 0.1432883 0.1435406 0.1438076 0.1440952 0.1443875 0.1446611 0.1448978 0.1450843
 0.1452024 0.1452311 0.1451643 0.1450178 0.1448071 0.1445216 0.1441277 0.1435974 0.1429201 0.1420895
 0.1410906 0.139912 0.138571 0.1371287 0.135682 0.1343355 0.1331749 0.1322594 0.1316269 0.1312842
 0.1311864 0.1312371 0.1313262 0.1313725 0.131332 0.1311729 0.1308539 0.1303282 0.1295644 0.1285625
 0.1273524 0.1259782 0.1244838 0.1229211 0.121379 0.1200034 0.1189724 0.1184386 0.1184743 0.1190415
 0.1199793 0.1210234 0.1218872 0.1223785 0.1224699 0.1222639 0.1218914 0.1214314 0.1208994 0.1202843
 0.119592 0.1188691 0.1181946 0.117648 0.1172833 0.117134 0.1172316 0.1176028 0.118247 0.1191359
 0.1202407 0.1215462 0.1230269 0.1246142 0.1261936 0.1276353 0.1288436 0.129802 0.1305881 0.1313412
 0.1321985 0.1332486 0.1345516 0.1362067 0.1383677 0.1411344 0.1444042 0.1478542 0.1510989 0.1538724
 0.1560921 0.1578107 0.1591429 0.1602114 0.1611137 0.1619121 0.1626463 0.1633471 0.1640412 0.16475
 0.1654859 0.1662484 0.1670215 0.1677732 0.1684625 0.1690636 0.1696022 0.1701694 0.1708853 0.1718312
 0.1730035 0.1743232 0.1756881 0.177021 0.1782818 0.1794541 0.1805357 0.1815384 0.182482 0.1833823
 0.1842462 0.1850737 0.1858595 0.1865961 0.1872803 0.1879193 0.1885261 0.1891095 0.1896716 0.1902121
 0.190732 0.1912331 0.191717 0.1921861 0.1926434 0.1930892 0.1935169 0.1939148 0.1942766 0.1946105
 0.1949398 0.1952941 0.1956989 0.1961654 0.1966859 0.1972345 0.1977751 0.1982763 0.1987253 0.1991328
 0.1995199 0.1998978 0.2002609 0.2005993 0.2009139 0.2012186 0.2015301 0.2018572 0.2021965 0.2025341
 0.202846 0.2030972 0.2032591 0.2033562 0.2034982 0.2038369 0.2044566 0.2052998 0.2062094 0.2070424
 0.207743 0.2083297 0.2088412 0.2093047 0.2097358 0.2101447 0.2105387 0.2109225 0.2112995 0.2116716
 0.2120396 0.2124043 0.2127663 0.2131258 0.2134844 0.2138437 0.2142032 0.2145587 0.2149077 0.2152517
 0.2155944 0.215939 0.2162873 0.2166389 0.2169905 0.2173375 0.2176764 0.2180064 0.2183318 0.2186614
 0.2190025 0.2193542 0.2197098 0.2200637 0.2204147 0.220763 0.2211068 0.2214434 0.2217741 0.222105
 0.2224396 0.2227766 0.2231145 0.2234567 0.2238064 0.2241606 0.2245145 0.2248661 0.2252161 0.2255668
 0.2259211 0.2262799 0.2266422 0.2270077 0.2273777 0.2277524 0.22813 0.2285088 0.2288892 0.2292754
 0.2296707 0.2300703 0.2304645 0.2308483 0.2312236 0.2315898 0.2319422 0.2322794 0.2326058 0.2329263
 0.2332447 0.2335652 0.2338894 0.2342156 0.2345439 0.2348768 0.235217 0.2355652 0.2359196 0.2362749
 0.2366279 0.2369803 0.2373325 0.2376798 0.238019 0.2383517 0.2386796 0.2390038 0.2393282 0.2396564
 0.2399886 0.2403254 0.2406687 0.2410165 0.2413648 0.2417151 0.2420717 0.2424357 0.2428084 0.2431915
 0.2435807 0.2439676 0.2443492 0.2447267 0.2451 0.2454704 0.2458421 0.246218 0.2466 0.2469916
 0.2473921 0.247794 0.2481915 0.2485825 0.2489627 0.2493322 0.2497004 0.2500748 0.2504535 0.2508365
 0.2512279 0.2516254 0.2520214 0.2524144 0.2528061 0.2531959 0.2535862 0.2539816 0.2543784 0.2547704
 0.2551596 0.2555482 0.2559331 0.2563151 0.2567008 0.2570915 0.2574862 0.257888 0.2582936 0.2586931
 0.259087 0.2594838 0.2598807 0.2602702 0.2606559 0.2610416 0.2614226 0.2617978 0.2621693 0.2625262
 0.2628438 0.2630638 0.2630203 0.2623585 0.260493 0.2566231 0.2498917 0.2397256 0.2261831 0.2100495
 0.1926187 0.1752909 0.1591958 0.1450392 0.1331945 0.123852 0.1171241 0.1131385 0.1121164 0.1144775
 0.1209767 0.1322618 0.1472423 0.161667 0.1696981 0.168323 0.1600832 0.1507688 0.1446948 0.1425674
 0.1429351 0.1443582 0.146264 0.1487888 0.1522838 0.1568039 0.1620491 0.1678632 0.1745317 0.1823501
 0.1910536 0.1999063 0.2083175 0.2162284 0.223904 0.2314732 0.2387398 0.2453714 0.2511572 0.2560833
 0.2602711 0.2638973 0.2671229 0.2700551 0.272761 0.2752729 0.2775428 0.2794265 0.2807677 0.2815224
 0.2818132 0.2818737 0.2819222 0.2820693 0.2823308 0.2826961 0.2831583 0.283705 0.2843198 0.2849884
 0.2856921 0.2864093 0.2871262 0.2878325 0.2885131 0.2891572 0.2897657 0.2903416 0.290887 0.2914097
 0.2919193 0.2924212 0.2929231 0.2934333 0.2939493 0.2944605 0.2949629 0.2954559 0.2959327 0.2963867
 0.2968195 0.2972341 0.2976312 0.2980145 0.2983885 0.2987527 0.2991062 0.2994531 0.2997975 0.300142
 0.30049 0.3008414 0.3011908 0.3015352 0.3018768 0.3022151 0.302546 0.3028691 0.3031884 0.3035082
 0.3038337 0.3041679 0.3045035 0.3048273 0.3051335 0.3054279 0.3057211 0.3060248 0.3063459 0.3066797
 0.3070183 0.3073646 0.3077297 0.30812 0.3085357 0.3089734 0.3094227 0.309868 0.3103 0.310719
 0.3111238 0.3115072 0.3118646 0.3122034 0.3125424 0.312899 0.3132749 0.3136575 0.3140356 0.3144096
 0.3147831 0.3151546 0.3155198 0.3158728 0.3162095 0.3165352 0.3168655 0.3172126 0.3175752 0.317946
 0.3183209 0.318698 0.3190794 0.31947 0.3198702 0.3202699 0.3206599 0.321047 0.3214522 0.3218952
 0.3223759 0.32287 0.3233492 0.3238057 0.3242511 0.3246997 0.3251589 0.3256215 0.3260557 0.3264257
 0.3267454 0.3270888 0.3275242 0.3280477 0.3285967 0.329114 0.3295866 0.3300321 0.3304677 0.3308912
 0.3312857 0.331639 0.3319662 0.3323168 0.332743 0.3332461 0.3337687 0.3342524 0.3346851 0.3350847
 0.3354676 0.3358456 0.3362105 0.3365131 0.3367111 0.3368627 0.3371209 0.3375888 0.3382034 0.3387995
 0.3392732 0.3396495 0.34 0.3403532 0.3406977 0.3409972 0.341158 0.3410787 0.3408329 0.3407308
 0.3410687 0.3418329 0.3427362 0.3435096 0.3440799 0.34451 0.3448821 0.3452414 0.3455663 0.3457683
 0.3457865 0.3457254 0.3458416 0.3463118 0.3470355 0.3477455 0.3482891 0.3487172 0.3491368 0.349587
 0.3500165 0.3502649 0.3501344 0.34966 0.3492892 0.3495941 0.3507226 0.3522306 0.3535239 0.3543834
 0.3549745 0.3554392 0.3556762 0.3555228 0.3549556 0.3540992 0.3532762 0.3530553 0.3538843 0.3555215
 0.3571327 0.3581253 0.358658 0.3592244 0.3600106 0.3608128 0.3613768 0.3616276 0.3616283 0.3614315
 0.3610543 0.3606527 0.3606232 0.3613235 0.3626574 0.3640975 0.3651801 0.3658707 0.3663526 0.3664901
 0.3656911 0.363607 0.3610497 0.3597879 0.36098 0.363959 0.3669569 0.3688548 0.369799 0.3703732
 0.3708332 0.3710359 0.3704296 0.3682317 0.3644917 0.361028 0.3603325 0.3631193 0.3675254 0.3709133
 0.3718877 0.3705907 0.3680358 0.3656338 0.3646941 0.3657173 0.3681812 0.3710746 0.3735099 0.3749723
 0.3753523 0.3748901 0.3740738 0.3735091 0.373539 0.3737284 0.3731351 0.3715367 0.3698698 0.3687918
 0.3674698 0.3649319 0.3622195 0.3617446 0.3643075 0.3679461 0.3702176 0.3707035 0.3705724 0.3702215
 0.3683136 0.3635359 0.3570236 0.3523345 0.352407 0.3566296 0.3614452 0.3638418 0.3637322 0.3629574
 0.3626832 0.3621591 0.3598422 0.3555902 0.3515156 0.3501004 0.3514224 0.3530467 0.3527251 0.3499877
 0.3449735 0.337841 0.3306002 0.3275135 0.331343 0.3399031 0.3479778 0.3518235 0.3503558 0.3435981
 0.3330325 0.3231951 0.3196467 0.3238482 0.3314519 0.3364973 0.3361066 0.330636 0.3212517 0.3093724
 0.2978868 0.2908171 0.2907547 0.2967879 0.3047314 0.3090091 0.3055065 0.2948207 0.2830203 0.2770931
 0.2784403 0.2819932 0.2822037 0.2782552 0.2729407 0.2687769 0.2665724 0.2659724 0.265893 0.2653701
 0.2643473 0.2623326 0.2569564 0.2467535 0.2354271 0.2299262 0.2332426 0.2419257 0.2514703 0.2607234
 0.2693998 0.2749068 0.2750762 0.2724859 0.2728307 0.2788702 0.2877816 0.2947223 0.2977248 0.2985126
 0.2992859 0.3000026 0.299544 0.2987349 0.3003783 0.3057735 0.3126895 0.3177823 0.3199496 0.3203551
 0.3202026 0.319723 0.3187829 0.3173768 0.3155805 0.3135628 0.3115637 0.3096335 0.3075908 0.3053311
 0.3027598 0.2991681 0.2933289 0.2852015 0.2773404 0.273196 0.2735905 0.2762013 0.2788107 0.2808781
 0.2809576 0.2755928 0.2637422 0.2507612 0.2447282 0.2486742 0.258211 0.2665295 0.2698366 0.2678277
 0.2613423 0.2519882 0.243823 0.2427165 0.2519046 0.2686805 0.2868096 0.3017257 0.3122831 0.318523
 0.3201033 0.3175267 0.3135279 0.3120218 0.3154814 0.3233626 0.3325715 0.3388625 0.3386701 0.3320714
 0.3248501 0.3249729 0.3345852 0.3470883 0.3544061 0.3554757 0.3550775 0.3562707 0.3577357 0.3579776
 0.3583136 0.3605157 0.3637088 0.3649283 0.3616096 0.3527948 0.3393503 0.3244043 0.3125018 0.306472
 0.3054422 0.307035 0.3101517 0.3136933 0.3145486 0.3106073 0.3051878 0.3046322 0.3109412 0.3196827
 0.3257254 0.328401 0.3300645 0.3316789 0.331537 0.3279751 0.3222619 0.3180284 0.3176975 0.3201892
 0.3226573 0.3235385 0.3228312 0.3203584 0.3157342 0.310201 0.3068249 0.307846 0.3123938 0.3174568
 0.3207377 0.322052 0.3224102 0.3226466 0.3229794 0.3232023 0.323132 0.3232483 0.3247083 0.3281053
 0.3323828 0.3357598 0.3377461 0.3395355 0.3423004 0.3457269 0.3484637 0.3496039 0.3494828 0.349242
 0.3497822 0.3509433 0.3514126 0.3494947 0.3445288 0.3380994 0.3336639 0.3341802 0.3396279 0.3470289
 0.3529523 0.3556757 0.3551605 0.3521757 0.3483424 0.3463199 0.3484998 0.3550156 0.3634952 0.3709837
 0.3759013 0.3783357 0.3791482 0.3791518 0.3788004 0.3782071 0.3773408 0.376255 0.375134 0.374141
 0.3732902 0.3724854 0.3716398 0.3707403 0.3698321 0.3689753 0.3682005 0.3674676 0.3666508 0.3655582
 0.3639269 0.3613869 0.3575152 0.3520483 0.3451186 0.3373796 0.3300527 0.3248409 0.3234336 0.3266025
 0.3335331 0.3420957 0.3499222 0.3554165 0.3580818 0.3583091 0.3570653 0.3555936 0.3550074 0.3558415
 0.357864 0.3603238 0.3624378 0.3637214 0.3639928 0.3632847 0.3619059 0.3604693 0.3595687 0.3593299
 0.3594598 0.3598234 0.3607661 0.3626804 0.365384 0.3681306 0.3702046 0.3713728 0.3718175 0.3718197
 0.3715636 0.3711258 0.3705337 0.3698069 0.3689616 0.3679964 0.3668883 0.3656132 0.3641742 0.3626164
 0.3610114 0.3594164 0.3578395 0.3562438 0.3545764 0.3527793 0.3507684 0.348442 0.3457672 0.3428782
 0.3400339 0.3374144 0.3349615 0.3324511 0.3296908 0.3266043 0.3231643 0.3193172 0.3149666 0.3099661
 0.304077 0.2969218 0.2880999 0.2776501 0.26661 0.2569186 0.2503859 0.2476237 0.2479865 0.2502935
 0.2532989 0.2556564 0.2560037 0.2533881 0.2474945 0.2383872 0.2262232 0.2114141 0.1950129 0.178684
 0.1640708 0.1521492 0.1432085 0.1373076 0.1345422 0.1349245 0.1382718 0.1442829 0.1525425 0.1623823
 0.1729112 0.1833262 0.1931797 0.2023458 0.2108121 0.218546 0.2254954 0.2316422 0.2370429 0.2418344
 0.2461827 0.2501895 0.2538355 0.2570224 0.2596605 0.2616898 0.2629918 0.2632532 0.261992 0.2590182
 0.2551802 0.2525248 0.2531681 0.2576298 0.2643475 0.270939 0.2758543 0.2788953 0.2806162 0.2816132
 0.2822686 0.2827946 0.2833117 0.2838929 0.2845793 0.2853869 0.286319 0.287372 0.2885247 0.2897392
 0.2909847 0.2922591 0.2935895 0.2950239 0.296612 0.2983857 0.3003505 0.3024829 0.3047226 0.3069741
 0.3091273 0.3110824 0.3127652 0.3141368 0.3151895 0.3159266 0.3163539 0.3164887 0.3163598 0.3159927
 0.3154056 0.3146137 0.3136218 0.3124147 0.310956 0.3091882 0.3070222 0.3043073 0.3008345 0.2965013
 0.2916344 0.2870988 0.28384 0.2821726 0.2815815 0.2812393 0.2806003 0.2795112 0.2780341 0.276409
 0.2751098 0.2746789 0.2753547 0.2768519 0.2785214 0.2797318 0.2801619 0.2798443 0.2790137 0.2779061
 0.2766439 0.2752515 0.2737239 0.2720464 0.2701809 0.2680854 0.2657495 0.2631947 0.2604671 0.2576555
 0.2548842 0.2522549 0.2498035 0.2475104 0.2453297 0.243216 0.2411509 0.2391437 0.2372037 0.235328
 0.233518 0.2317856 0.2301429 0.2285983 0.2271567 0.2258157 0.2245729 0.2234314 0.2223854 0.2214103
 0.2204761 0.2195583 0.2186415 0.2177302 0.216837 0.2159325 0.2149298 0.2137279 0.2122148 0.2101961
 0.2073685 0.2034625 0.1985822 0.1936094 0.1902304 0.1901378 0.1937463 0.1996194 0.2053368 0.2090492
 0.2103081 0.2097128 0.2080981 0.2060685 0.2039689 0.2019827 0.2001957 0.1986508 0.197375 0.1963534
 0.1955193 0.1948141 0.1942493 0.1939001 0.1938467 0.1940893 0.1944819 0.1947931 0.1949016 0.194923
 0.1951095 0.1956379 0.1964972 0.1975245 0.1985223 0.1993652 0.2000168 0.2004767 0.2007548 0.2008851
 0.2009053 0.2008192 0.2006081 0.2002617 0.1997797 0.1991745 0.1984767 0.1977046 0.196841 0.1958659
 0.1947805 0.1935855 0.1922811 0.1908799 0.1893684 0.1877007 0.1859156 0.1842371 0.1829949 0.1824383
 0.182598 0.1832782 0.1842018 0.1851948 0.1861906 0.1870817 0.1877326 0.1882117 0.1888903 0.1901886
 0.19221 0.1946234 0.1968978 0.1986442 0.199737 0.2001915 0.2000632 0.1994424 0.1983936 0.1969003
 0.1949635 0.1926906 0.1902172 0.1876578 0.1851656 0.1828955 0.1809156 0.1792473 0.1778933 0.1768436
 0.1761642 0.1755688 0.1733802 0.1671222 0.157042 0.1483738 0.1473782 0.1545952 0.1640939 0.1698418
 0.1708212 0.1695699 0.1681879 0.1671263 0.1663111 0.1658241 0.1657189 0.1658734 0.1660459 0.1659929
 0.1656173 0.1649431 0.1638456 0.1618097 0.1579266 0.1512143 0.1413357 0.1292777 0.1171529 0.1070773
 0.1001185 0.09607314 0.09392444 0.09255266 0.09137158 0.09053044 0.09054723 0.09177308 0.0941909 0.09757221
 0.1016423 0.1060514 0.1103178 0.1139766 0.1168252 0.118941 0.1204583 0.1214243 0.1218621 0.1218439
 0.1214669 0.1208198 0.1199708 0.1189374 0.117685 0.1161989 0.1145699 0.1130084 0.1117548 0.1109324
 0.110477 0.1102338 0.1101003 0.1100469 0.1100567 0.1101068 0.1101871 0.110304 0.110482 0.1107484
 0.1110839 0.1114056 0.1116282 0.1117237 0.111713 0.1116218 0.1114502 0.1111834 0.1108521 0.1105436
 0.1102707 0.1098516 0.1090425 0.1078311 0.1065374 0.1056027 0.1052921 0.1055512 0.1060821 0.106559
 0.1068233 0.1069132 0.1069308 0.1068854</values></Ydata></ScSm><ScRf><Ydata ylabel="Single channel"><values byteorder="INTEL" format="FLOAT32" numvalues="1820"> 0.07058124 0.07071242 0.0708289 0.07093001 0.0710215 0.07111434 0.07122006 0.07134365 0.07148041 0.07161873
 0.07174727 0.07186213 0.07196547 0.07205787 0.07213929 0.07221968 0.07231731 0.07244081 0.07257882 0.07270903
 0.07281472 0.07289872 0.07298537 0.0730978 0.0732244 0.07331727 0.07333538 0.07328869 0.07323433 0.07322638
 0.07328063 0.073401 0.07361109 0.07389998 0.0741482 0.0742043 0.074072 0.07393713 0.07396141 0.07412052
 0.07428019 0.07434636 0.07430172 0.0741924 0.0741491 0.07434759 0.07484843 0.07546469 0.07581996 0.07556733
 0.07462105 0.07327983 0.0721542 0.07184756 0.07252058 0.07371111 0.07468006 0.0750072 0.07481857 0.0744697
 0.07417624 0.07400741 0.07404932 0.07439177 0.0749786 0.07554692 0.07572933 0.07529557 0.0744144 0.07362232
 0.07338548 0.07373916 0.07445411 0.0753147 0.07590614 0.07540516 0.073309 0.07054052 0.06916118 0.07046719
 0.07363386 0.07657328 0.07783601 0.07738077 0.07597256 0.07450618 0.07376607 0.07415789 0.07544552 0.0769864
 0.07824281 0.07892124 0.07883209 0.07797945 0.07674508 0.07572766 0.07540722 0.07600356 0.07738802 0.07895026
 0.07984297 0.07964966 0.0786968 0.07763167 0.07694591 0.07695429 0.07782127 0.0793654 0.08107504 0.08248663
 0.08342421 0.0838972 0.08399127 0.08385476 0.08362536 0.08340333 0.08334561 0.08358783 0.08397116 0.08407672
 0.08369054 0.08309547 0.08278714 0.08296501 0.08336173 0.08356571 0.08342922 0.08299157 0.08205952 0.08030169
 0.07792691 0.07578951 0.07455447 0.07423234 0.07472365 0.07609884 0.07793689 0.07912516 0.07897971 0.07816726
 0.07798356 0.07895231 0.08049703 0.0817821 0.08252461 0.08303844 0.0837432 0.0846906 0.08544493 0.08540262
 0.08440736 0.08313708 0.08265559 0.08338377 0.08469103 0.08567317 0.0861026 0.08639949 0.08688509 0.08731407
 0.08708842 0.08589832 0.08426141 0.08334322 0.08399653 0.08591618 0.08779798 0.08832413 0.0870996 0.08486645
 0.08288344 0.08202223 0.08242732 0.08387524 0.08608577 0.08858874 0.0906501 0.09164143 0.09147219 0.09057774
 0.08944616 0.08816199 0.08657306 0.08499813 0.08441861 0.0855606 0.08796051 0.09033361 0.09176116 0.09219997
 0.09195781 0.09107056 0.089389 0.08722758 0.0856524 0.08569025 0.08716009 0.08872021 0.08929476 0.08908009
 0.08893197 0.08919461 0.08951253 0.08955183 0.08949783 0.08979285 0.09057415 0.09150256 0.0921234 0.09228413
 0.09216902 0.09203546 0.0919685 0.09183067 0.09147594 0.09108041 0.09112783 0.09190041 0.09309962 0.09414572
 0.09474716 0.09501548 0.09511567 0.09498409 0.09443747 0.09353553 0.09275539 0.0926537 0.09332618 0.09433568
 0.09517641 0.09564972 0.09581335 0.09579059 0.09568793 0.09556687 0.0954576 0.09543188 0.09559211 0.09593403
 0.09630556 0.0965578 0.09666808 0.09668422 0.09662524 0.09648387 0.09629166 0.09613983 0.09612174 0.09625772
 0.09649038 0.09674421 0.09695861 0.09707795 0.09707084 0.09697191 0.09686038 0.09678848 0.09676099 0.09677775
 0.09685304 0.09698437 0.09713163 0.09724512 0.09730475 0.09732202 0.09731337 0.09728643 0.09724997 0.09722349
 0.09723239 0.09729286 0.09739399 0.09750155 0.0975971 0.09770194 0.09783405 0.09795652 0.09800898 0.09798533
 0.09794396 0.09794325 0.09799495 0.0980754 0.09815392 0.09820317 0.09820073 0.09814438 0.09807431 0.09806164
 0.0981544 0.09834209 0.09858088 0.09883049 0.09905513 0.09922355 0.09933437 0.09941837 0.09949945 0.09957139
 0.09962329 0.09967042 0.09975106 0.09989554 0.100096 0.1003085 0.100489 0.1006224 0.1007182 0.1008008
 0.1009081 0.1010599 0.1012206 0.1013272 0.1013698 0.1014095 0.1015011 0.1016277 0.1017307 0.1017821
 0.1018106 0.1018632 0.1019565 0.1020681 0.1021697 0.1022599 0.1023627 0.102494 0.1026288 0.1027115
 0.1027094 0.1026535 0.1026071 0.1026026 0.1026287 0.102672 0.1027388 0.1028293 0.1029148 0.1029598
 0.1029596 0.1029454 0.1029494 0.1029701 0.1029763 0.1029447 0.102885 0.102827 0.1027926 0.1027814
 0.1027773 0.1027618 0.1027236 0.1026625 0.1025869 0.102506 0.1024249 0.1023491 0.1022968 0.1022937
 0.1023386 0.1023772 0.1023336 0.1021799 0.1019661 0.1017739 0.101646 0.1015637 0.1014782 0.1013561
 0.1012004 0.1010384 0.1008957 0.1007783 0.1006745 0.1005713 0.1004701 0.1003898 0.1003465 0.1003259
 0.1002844 0.1001889 0.1000523 0.09991781 0.09981615 0.09974773 0.09969886 0.09965813 0.09962212 0.09959753
 0.0995929 0.09960173 0.09960371 0.09958956 0.0995739 0.09958015 0.09962432 0.09971075 0.09982426 0.09992652
 0.09998336 0.1000028 0.100029 0.1000946 0.1001943 0.1003072 0.1004267 0.1005592 0.1007062 0.1008624
 0.1010268 0.101207 0.1014112 0.101637 0.1018716 0.1020998 0.1023175 0.1025358 0.1027724 0.103036
 0.103319 0.1036051 0.1038825 0.1041514 0.1044197 0.1046928 0.1049689 0.1052472 0.1055356 0.1058432
 0.1061674 0.1064951 0.1068169 0.1071347 0.1074543 0.1077782 0.1081053 0.1084381 0.1087863 0.1091589
 0.1095458 0.1099135 0.1102319 0.1105057 0.1107723 0.1110694 0.1114072 0.1117655 0.1121084 0.1124093
 0.1126755 0.1129428 0.1132378 0.1135505 0.1138558 0.1141546 0.1144784 0.1148468 0.1152333 0.1155813
 0.1158567 0.1160789 0.1162979 0.1165419 0.1167954 0.1170285 0.117239 0.1174512 0.1176805 0.1179184
 0.1181551 0.1184003 0.1186664 0.1189426 0.1192026 0.1194347 0.1196489 0.1198556 0.1200478 0.1202076
 0.1203254 0.1204141 0.1205044 0.1206228 0.1207687 0.1209208 0.1210652 0.1212102 0.1213707 0.121552
 0.1217545 0.1219825 0.1222358 0.1224989 0.1227547 0.1230102 0.1232899 0.1235953 0.1238875 0.1241273
 0.1243211 0.1245078 0.1247102 0.124924 0.1251483 0.1253988 0.1256851 0.1259927 0.1262948 0.1265764
 0.1268474 0.1271352 0.1274559 0.1277876 0.1280801 0.1283026 0.1284741 0.1286451 0.128855 0.1291086
 0.129385 0.1296609 0.1299249 0.1301708 0.130383 0.1305415 0.1306458 0.1307209 0.130787 0.1308283
 0.1308033 0.1306791 0.1304469 0.1301048 0.1296433 0.1290573 0.128372 0.1276527 0.1269908 0.126476
 0.1261759 0.1261266 0.1263331 0.1267654 0.1273557 0.1280081 0.1286207 0.1291021 0.1293777 0.1293977
 0.1291527 0.1286771 0.1280296 0.1272702 0.1264513 0.1256162 0.1247982 0.1240369 0.1234076 0.1230287
 0.1230293 0.1235017 0.1244711 0.1258769 0.1275658 0.1293237 0.1309563 0.1323636 0.1335479 0.1345628
 0.1354634 0.1362904 0.1370722 0.1378224 0.1385394 0.1392155 0.1398492 0.1404437 0.1409965 0.1414946
 0.14192 0.1422572 0.1424998 0.142657 0.1427509 0.1428039 0.1428302 0.1428389 0.1428328 0.1427957
 0.1426869 0.1424609 0.142095 0.1416065 0.1410601 0.1405735 0.1403118 0.1404505 0.1411025 0.1422483
 0.1437277 0.1453144 0.1468138 0.1481111 0.1491646 0.149987 0.1506299 0.1511572 0.1516158 0.1520299
 0.1524145 0.1527831 0.153145 0.1535019 0.1538525 0.1541968 0.1545401 0.1548885 0.1552406 0.1555864
 0.1559187 0.156244 0.1565779 0.15693 0.1572932 0.1576503 0.1579925 0.1583292 0.1586732 0.1590226
 0.1593631 0.1596858 0.1599963 0.1603078 0.160633 0.1609772 0.1613315 0.1616755 0.1619934 0.1622882
 0.1625759 0.1628674 0.1631611 0.1634501 0.1637317 0.1640086 0.1642846 0.1645625 0.1648442 0.1651303
 0.1654153 0.1656904 0.1659514 0.1662044 0.1664596 0.166721 0.1669842 0.1672417 0.1674921 0.1677434
 0.1680063 0.168283 0.1685627 0.168831 0.169083 0.1693253 0.1695669 0.1698122 0.1700624 0.1703182
 0.170579 0.1708403 0.1710965 0.1713458 0.1715916 0.1718393 0.1720919 0.1723493 0.1726088 0.1728668
 0.1731212 0.1733723 0.1736209 0.1738681 0.1741152 0.1743637 0.1746135 0.1748621 0.1751063 0.1753442
 0.1755774 0.1758099 0.1760451 0.1762827 0.1765194 0.1767541 0.1769898 0.1772304 0.1774769 0.1777261
 0.177974 0.1782195 0.1784643 0.178709 0.178952 0.1791927 0.1794333 0.1796759 0.1799199 0.1801636
 0.1804054 0.180645 0.1808839 0.1811237 0.181363 0.1815986 0.18183 0.1820603 0.182294 0.1825349
 0.1827835 0.1830342 0.1832798 0.1835184 0.1837535 0.1839876 0.1842211 0.1844544 0.1846874 0.1849187
 0.1851482 0.1853786 0.1856126 0.1858518 0.186095 0.1863392 0.1865813 0.1868209 0.1870598 0.1872984
 0.1875359 0.1877727 0.1880097 0.1882487 0.188491 0.1887355 0.188978 0.1892176 0.1894571 0.189699
 0.1899443 0.1901935 0.1904457 0.1906966 0.1909449 0.1911941 0.1914459 0.1916986 0.1919512 0.1922049
 0.1924601 0.1927175 0.1929781 0.1932399 0.1934995 0.1937566 0.1940126 0.1942649 0.1945091 0.1947429
 0.1949675 0.195188 0.195412 0.195643 0.1958768 0.1961098 0.1963428 0.1965768 0.1968114 0.1970482
 0.1972886 0.1975297 0.1977686 0.1980071 0.1982489 0.198496 0.1987497 0.1990078 0.199265 0.1995205
 0.1997777 0.2000381 0.2003008 0.2005664 0.2008345 0.2011012 0.2013665 0.2016331 0.201899 0.2021611
 0.2024224 0.2026868 0.2029532 0.2032216 0.2034932 0.2037641 0.2040301 0.2042955 0.2045662 0.2048413
 0.2051191 0.2053994 0.205678 0.2059515 0.2062235 0.206496 0.2067647 0.2070291 0.2072954 0.2075674
 0.2078454 0.2081309 0.2084184 0.2086983 0.2089724 0.2092503 0.2095296 0.2098015 0.2100675 0.2103341
 0.2106024 0.2108724 0.2111408 0.2113931 0.2116083 0.2117417 0.2116625 0.2110856 0.2095384 0.2063752
 0.2009038 0.1926612 0.1816959 0.1686471 0.154565 0.1405799 0.1275964 0.1161772 0.1066218 0.09908712
 0.09366742 0.09046556 0.08965406 0.09156294 0.09679492 0.1058679 0.1178967 0.1294509 0.1358388 0.1346622
 0.1279932 0.1204931 0.1156129 0.113901 0.1141846 0.1153094 0.1168198 0.1188293 0.1216213 0.1252362
 0.1294288 0.1340742 0.1394025 0.145647 0.1525895 0.159642 0.1663415 0.17265 0.1787783 0.1848172
 0.190598 0.1958549 0.2004305 0.2043257 0.20764 0.2105108 0.2130637 0.2153837 0.2175231 0.2195059
 0.221296 0.2227848 0.223853 0.2244639 0.2247077 0.2247622 0.2247966 0.2249004 0.2250909 0.2253636
 0.2257151 0.226137 0.2266165 0.2271385 0.2276825 0.2282299 0.2287741 0.229313 0.2298374 0.230339
 0.230819 0.2312793 0.2317177 0.2321342 0.2325321 0.2329142 0.2332851 0.2336497 0.2340075 0.2343568
 0.2347023 0.2350474 0.235384 0.2357015 0.2359973 0.2362747 0.2365389 0.2367971 0.237053 0.2373049
 0.2375534 0.2378041 0.2380603 0.2383212 0.2385853 0.2388473 0.2390986 0.2393368 0.23957 0.2398062
 0.2400457 0.2402866 0.2405284 0.2407708 0.2410146 0.2412616 0.2415092 0.2417512 0.2419844 0.2422118
 0.2424427 0.2426891 0.2429564 0.2432357 0.2435124 0.2437818 0.2440482 0.244315 0.2445832 0.2448544
 0.24513 0.2454093 0.245692 0.245974 0.2462449 0.2464948 0.2467237 0.2469422 0.2471641 0.2473969
 0.2476368 0.2478741 0.2481059 0.2483398 0.2485837 0.2488389 0.2491005 0.2493615 0.2496182 0.2498769
 0.2501484 0.2504322 0.2507167 0.2509963 0.2512777 0.2515673 0.2518638 0.2521635 0.2524625 0.252755
 0.253037 0.2533136 0.2536002 0.2539125 0.2542514 0.2545969 0.2549257 0.2552347 0.2555397 0.2558554
 0.2561841 0.2565151 0.2568238 0.2570875 0.2573184 0.25757 0.25789 0.2582737 0.2586745 0.259052
 0.2593986 0.2597266 0.2600449 0.2603505 0.2606339 0.2608894 0.2611275 0.2613833 0.2616972 0.262074
 0.2624726 0.2628459 0.263179 0.2634811 0.2637664 0.2640474 0.2643175 0.2645352 0.2646682 0.2647699
 0.2649666 0.2653377 0.2658283 0.2663082 0.2667018 0.2670306 0.2673429 0.2676518 0.26795 0.2682184
 0.2683859 0.2683647 0.2682052 0.2681533 0.2684473 0.2690774 0.2698137 0.2704415 0.2709013 0.2712414
 0.271527 0.2717966 0.272037 0.2721806 0.2721792 0.2721144 0.2721877 0.2725367 0.2730807 0.2736104
 0.2740093 0.2743184 0.2746175 0.2749315 0.2752185 0.2753542 0.2751868 0.2747487 0.2743946 0.2745691
 0.275376 0.2764578 0.2773516 0.2778988 0.2782419 0.2784987 0.2785903 0.2783874 0.2778715 0.2771416
 0.2764524 0.2762485 0.2768746 0.2781326 0.2793661 0.2801172 0.2805194 0.2809618 0.2815816 0.2822073
 0.2826328 0.2828038 0.28278 0.282609 0.2823024 0.2819763 0.2819359 0.282458 0.2834685 0.2845614
 0.28538 0.2858979 0.286256 0.2863465 0.2857047 0.2840587 0.2820489 0.281066 0.2820143 0.2843621
 0.2867175 0.2882052 0.2889442 0.2893959 0.2897634 0.2899363 0.2894796 0.2877762 0.2848645 0.2821757
 0.2816664 0.2838889 0.2873721 0.2900482 0.2908323 0.2898426 0.2878748 0.2860356 0.2853523 0.2862143
 0.2882063 0.2905317 0.2924935 0.2936883 0.2940315 0.2937129 0.2931179 0.2927271 0.2928131 0.2930285
 0.2926254 0.2914269 0.2901698 0.2893692 0.2883731 0.2864299 0.2843709 0.2840909 0.2862063 0.2891639
 0.2910423 0.2915177 0.2915102 0.2913249 0.2899012 0.286209 0.2811584 0.2775686 0.2777571 0.2812279
 0.2851625 0.2871872 0.2872514 0.2868235 0.2868266 0.2866595 0.2850929 0.2820118 0.2790965 0.278318
 0.2797267 0.2813753 0.2814731 0.2796391 0.2759608 0.2705501 0.2650293 0.2628343 0.266184 0.2733221
 0.28007 0.283432 0.2825344 0.2773868 0.269192 0.2616423 0.2592613 0.2632328 0.270021 0.2747937
 0.2752324 0.2716326 0.2649361 0.2563181 0.2482098 0.2440005 0.2458804 0.2530788 0.2619987 0.2677699
 0.2667423 0.2594149 0.2511591 0.2481732 0.2516583 0.2570283 0.2593039 0.2577927 0.255056 0.253412
 0.2536582 0.2555042 0.2579018 0.2598739 0.2612689 0.2613768 0.2575436 0.2481058 0.2367594 0.2306002
 0.2328067 0.2400825 0.2480343 0.2555948 0.2625702 0.2664688 0.2651528 0.2610696 0.2596874 0.2636548
 0.2702789 0.2749665 0.2758872 0.2747143 0.2735801 0.2725359 0.2706134 0.2685682 0.2689087 0.272777
 0.2781601 0.2820738 0.2835533 0.2836542 0.2834505 0.2831302 0.2825484 0.2816745 0.2805525 0.2793191
 0.2781914 0.2772299 0.2762922 0.2753096 0.2742184 0.2723576 0.268523 0.2625314 0.2565584 0.2536399
 0.2544875 0.2570425 0.2594367 0.2613446 0.2615076 0.2567207 0.2460194 0.2344286 0.2295048 0.234032
 0.2438031 0.2523376 0.2560029 0.2544675 0.2485071 0.2396386 0.2316439 0.2299194 0.237324 0.251185
 0.2656947 0.2768212 0.2838458 0.2871141 0.2864823 0.2824565 0.2774841 0.2749897 0.2770262 0.2829262
 0.2898101 0.2939257 0.2922838 0.2851211 0.2775294 0.2763772 0.2834997 0.2932595 0.2987645 0.2990835
 0.2982441 0.2988411 0.2998151 0.2999847 0.3005292 0.3030077 0.3067994 0.3096209 0.3095711 0.3059314
 0.2991565 0.2914283 0.2863114 0.2859318 0.2886276 0.2908542 0.2908229 0.2885372 0.2835612 0.2759827
 0.2692053 0.2681286 0.2735801 0.2810594 0.2858681 0.2874891 0.2881368 0.2887758 0.2879854 0.2843387
 0.2789311 0.2749099 0.2743897 0.2764598 0.2786871 0.2797516 0.2796581 0.2782191 0.2750615 0.271253
 0.2694461 0.2715212 0.2765709 0.2817822 0.2850181 0.2861204 0.2860912 0.2858005 0.2855212 0.2850888
 0.2843262 0.2836447 0.2840778 0.286185 0.2890837 0.2912541 0.292296 0.2932571 0.295153 0.2977222
 0.29983 0.3007293 0.3007183 0.300761 0.3016177 0.3032216 0.3047434 0.3053225 0.3049134 0.3044399
 0.3049671 0.3066873 0.3088438 0.3105969 0.3117276 0.3125221 0.3132941 0.3141139 0.3147736 0.3149609
 0.3146726 0.3144614 0.3150252 0.316484 0.3182399 0.319584 0.3202795 0.3205208 0.32053 0.320342
 0.3199211 0.3193453 0.3188132 0.3184932 0.3184018 0.3184336 0.3184786 0.3184892 0.3184726 0.3184636
 0.3185022 0.3186072 0.318768 0.3189672 0.3191895 0.3194028 0.3195637 0.3196651 0.3197456 0.3198284
 0.3198732 0.3198053 0.3195654 0.3191143 0.3184124 0.3174226 0.3161195 0.3144751 0.3124594 0.3101354
 0.3078223 0.3061331 0.3057213 0.3068644 0.3092421 0.3121191 0.3147653 0.3167695 0.3180749 0.3188252
 0.3192025 0.3193491 0.3193526 0.3192559 0.3190746 0.318819 0.3185048 0.3181505 0.3177779 0.3174157
 0.3170904 0.3168083 0.3165462 0.3162633 0.3159238 0.315512 0.3150311 0.3144901 0.3138932 0.3132319
 0.3124833 0.3116232 0.3106546 0.3096228 0.3085954 0.3076239 0.3067177 0.3058469 0.3049663 0.3040327
 0.3029921 0.3017759 0.3003672 0.2988895 0.2975697 0.2965569 0.2957906 0.2950715 0.2942358 0.2932347
 0.2920935 0.2908542 0.2895561 0.288226 0.286868 0.2854659 0.2839964 0.282439 0.2807838 0.2790357
 0.2772086 0.2753176 0.2733813 0.2714182 0.2694193 0.2673148 0.2649701 0.2622231 0.2589322 0.2550084
 0.2504315 0.2452633 0.2396545 0.2338242 0.2280073 0.2224041 0.2171672 0.2124218 0.2082841 0.2048578
 0.2022188 0.2004097 0.1994478 0.1993362 0.2000637 0.2015934 0.2038505 0.2067173 0.2100396 0.2136386
 0.2173229 0.2209052 0.224243 0.2272867 0.2300809 0.2326962 0.2351542 0.237421 0.2394543 0.2412372
 0.2427719 0.2440636 0.2451226 0.2459768 0.2466734 0.247263 0.2477791 0.2482307 0.2486097 0.2489076
 0.249129 0.2492953 0.2494377 0.2495848 0.2497553 0.2499595 0.2502083 0.250517 0.2509012 0.2513673
 0.2519116 0.2525253 0.2531981 0.2539203 0.2546873 0.2555069 0.2564021 0.2574083 0.2585621 0.2598843
 0.261367 0.2629731 0.2646375 0.2662693 0.2677642 0.269029 0.2700062 0.2706813 0.2710728 0.271214
 0.2711378 0.2708748 0.2704557 0.2699105 0.2692659 0.2685472 0.2677744 0.2669526 0.2660702 0.2651153
 0.2640982 0.2630554 0.2620279 0.2610353 0.2600739 0.2591369 0.2582246 0.2573367 0.2564696 0.2556238
 0.2548051 0.2540198 0.253273 0.2525681 0.2518991 0.2512425 0.2505587 0.2497974 0.2489114 0.2478738
 0.2466818 0.2453417 0.2438581 0.2422375 0.2404907 0.2386308 0.2366737 0.2346363 0.2325309 0.2303604
 0.2281151 0.2257776 0.223352 0.2208998 0.2185257 0.2163148 0.2142884 0.2124202 0.2106737 0.2090231
 0.2074558 0.2059627 0.204532 0.2031558 0.2018374 0.2005816 0.1993881 0.1982591 0.197204 0.1962344
 0.1953662 0.1946178 0.1939919 0.1934688 0.1930237 0.1926444 0.1923388 0.1921385 0.1920806 0.1921573
 0.1922933 0.1923908 0.1923941 0.1923126 0.1922007 0.1921148 0.1920778 0.1920816 0.1921075 0.192116
 0.1920215 0.1917111 0.1910863 0.190079 0.1886572 0.1868458 0.1847341 0.1824593 0.1801868 0.1780811
 0.176263 0.174791 0.1736709 0.1728546 0.1722489 0.1717716 0.1714119 0.1712266 0.1712851 0.1715917
 0.1720235 0.1723796 0.172557 0.1726688 0.1729475 0.1735486 0.1744529 0.1755102 0.1765464 0.1774512
 0.1781892 0.1787537 0.1791528 0.1794241 0.1796071 0.1797016 0.1796848 0.1795457 0.1792834 0.1789059
 0.1784397 0.1779038 0.1772847 0.1765638 0.1757423 0.1748226 0.173805 0.172697 0.1714806 0.1701131
 0.1686364 0.16726 0.1662819 0.165931 0.1662556 0.1671005 0.1682108 0.1693999 0.1705818 0.1716533
 0.1724943 0.1731605 0.1739722 0.1753057 0.1772768 0.1796234 0.1818874 0.1837127 0.184966 0.1856361
 0.1857469 0.1853605 0.1845266 0.1832285 0.1814744 0.1793839 0.1771105 0.174782 0.1725464 0.1705374
 0.1688028 0.1673572 0.1662128 0.1653705 0.164889 0.1644849 0.1625636 0.1567774 0.1473554 0.1392582
 0.1384345 0.1454092 0.1545491 0.1601098 0.1611195 0.1600056 0.1587829 0.1578775 0.1571938 0.1567878
 0.1567161 0.156892 0.1571145 0.1571572 0.1569085 0.1563692 0.1554119 0.1535479 0.1499056 0.1435352
 0.1341118 0.1225929 0.1110166 0.1014157 0.09481172 0.09100315 0.08900163 0.08772062 0.08660105 0.08580524
 0.08584535 0.08705611 0.08941166 0.09269482 0.09665662 0.1009705 0.1051658 0.1087823 0.1116224 0.1137649
 0.1153332 0.1163588 0.116859 0.116913 0.1166214 0.1160641 0.1153004 0.1143529 0.1131982 0.1118209
 0.1102965 0.1088207 0.107634 0.1068688 0.1064657 0.1062652 0.1061617 0.1061346 0.1061826 0.1062906
 0.1064419 0.1066275 0.1068554 0.1071462 0.1074902 0.1078282 0.1081 0.1082911 0.1084135 0.1084598
 0.1083834 0.1081347 0.1077397 0.1073129 0.1069115 0.1063923 0.1055289 0.1043047 0.1030284 0.1021316
 0.1018648 0.1021513 0.1026774 0.1031247 0.103359 0.1034355 0.1034558 0.1034262 0.103241 0.1027979
</values></Ydata></ScRf><Data_Parameters_AB><parameter name="DPF">1</parameter><parameter name="NPT">3497</parameter><parameter name="FXV">3996</parameter><parameter name="LXV">500</parameter><parameter name="CSF">1</parameter><parameter name="MXY">0.190671637654305</parameter><parameter name="MNY">-0.107243075966835</parameter><parameter name="DAT">18/01/2024</parameter><parameter name="TIM">11:03:04.780 (GMT+1)</parameter><parameter name="DXU">WN</parameter></Data_Parameters_AB><AB__Qtest><MainReport name="Quality Test Report"><Header><Line><Legend>Test result ok/not ok [1/0]: </Legend><Value>0</Value></Line><Line><Legend>Method file: </Legend><Value>C:\Users\Public\Documents\Bruker\OPUS_8.2.28\QT\IRBT_v3_default.QT</Value></Line></Header><Matrix><Line><Legend></Legend><Legend>min</Legend><Legend>max</Legend><Legend>measured</Legend></Line><Line><Value>Absorption (X-Range 1):</Value><Value>0.400000</Value><Value>2.000000</Value><Value>0.109813</Value></Line><Line><Value>Noise (X-Range 4):</Value><Value></Value><Value>0.000300</Value><Value>0.000073</Value></Line><Line><Value>Signal/Noise (X-Range 2):</Value><Value>200.000000</Value><Value></Value><Value>50.307163</Value></Line><Line><Value>Signal/Noise (X-Range 3):</Value><Value>40.000000</Value><Value></Value><Value>366.745996</Value></Line><Line><Value>Water vapour (X-Range 5):</Value><Value></Value><Value>0.000300</Value><Value>0.000012</Value></Line><Line><Value>Signal/Water (X-Range 2):</Value><Value>100.000000</Value><Value></Value><Value>299.818551</Value></Line><Line><Value>Signal/Water (X-Range 3):</Value><Value>20.000000</Value><Value></Value><Value>2185.717628</Value></Line><Line><Value>Fringes (X-Range 6):</Value><Value></Value><Value>0.000100</Value><Value>0.000071</Value></Line></Matrix></MainReport></AB__Qtest><Data_Parameters_ScSm><parameter name="DPF">1</parameter><parameter name="NPT">1814</parameter><parameter name="FXV">3996.63438082617</parameter><parameter name="LXV">499.579297603271</parameter><parameter name="CSF">1</parameter><parameter name="MXY">0.37915176153183</parameter><parameter name="MNY">0.0824297517538071</parameter><parameter name="DAT">18/01/2024</parameter><parameter name="TIM">11:03:04.780 (GMT+1)</parameter><parameter name="DXU">WN</parameter></Data_Parameters_ScSm><Data_Parameters_ScRf><parameter name="DPF">1</parameter><parameter name="NPT">1820</parameter><parameter name="FXV">4004.34989121387</parameter><parameter name="LXV">495.721542409425</parameter><parameter name="CSF">1</parameter><parameter name="MXY">0.320529967546463</parameter><parameter name="MNY">0.0691611766815186</parameter><parameter name="DAT">18/01/2024</parameter><parameter name="TIM">11:02:38.918 (GMT+1)</parameter><parameter name="DXU">WN</parameter></Data_Parameters_ScRf><Optic_Parameters_Rf><parameter name="APR">0</parameter><parameter name="APT">Open</parameter><parameter name="BMS">KBr</parameter><parameter name="DTC">RT-DLaTGS_IR-Biotyper [Microplate reader]</parameter><parameter name="HPF">0</parameter><parameter name="LPF">10.0</parameter><parameter name="LPV">4000</parameter><parameter name="PGR">0</parameter><parameter name="RCH">Module port</parameter><parameter name="RDX">0</parameter><parameter name="SRC">MIR</parameter><parameter name="VEL">10.0</parameter><parameter name="SON">Off</parameter></Optic_Parameters_Rf><Acquisition_Parameters_Rf><parameter name="ADT">1</parameter><parameter name="AQM">DD</parameter><parameter name="CFE">0</parameter><parameter name="COR">0</parameter><parameter name="DEL">0</parameter><parameter name="DLY">0</parameter><parameter name="HFW">8000</parameter><parameter name="LFW">0</parameter><parameter name="NSR">32</parameter><parameter name="PLF">AB</parameter><parameter name="RES">6</parameter><parameter name="RGN">-1</parameter><parameter name="STR">0</parameter><parameter name="TCL">MakeCompatibleScalar (0, {WSV=1.000000, ARV=0});</parameter><parameter name="TDL">37</parameter><parameter name="RPO">0</parameter></Acquisition_Parameters_Rf><FT_-_Parameters_Rf><parameter name="APF">B3</parameter><parameter name="HFQ">500</parameter><parameter name="LFQ">4000</parameter><parameter name="NLI">0</parameter><parameter name="PHR">24</parameter><parameter name="PHZ">ML</parameter><parameter name="SPZ">NO</parameter><parameter name="ZFF">1</parameter></FT_-_Parameters_Rf><Optic_Parameters_><parameter name="APR">0</parameter><parameter name="APT">Open</parameter><parameter name="BMS">KBr</parameter><parameter name="CHN">Module port</parameter><parameter name="DTC">RT-DLaTGS_IR-Biotyper [Microplate reader]</parameter><parameter name="HPF">0</parameter><parameter name="LPF">10.0</parameter><parameter name="LPV">4000</parameter><parameter name="PGN">0</parameter><parameter name="RDX">0</parameter><parameter name="SRC">MIR</parameter><parameter name="VEL">10.0</parameter><parameter name="SON">Off</parameter></Optic_Parameters_><FT_-_Parameters_><parameter name="APF">B3</parameter><parameter name="HFQ">500</parameter><parameter name="LFQ">4000</parameter><parameter name="NLI">0</parameter><parameter name="PHR">24</parameter><parameter name="PHZ">ML</parameter><parameter name="SPZ">NO</parameter><parameter name="ZFF">1</parameter></FT_-_Parameters_><Acquisition_Parameters_><parameter name="ADT">1</parameter><parameter name="AQM">DD</parameter><parameter name="CFE">0</parameter><parameter name="COR">0</parameter><parameter name="DEL">0</parameter><parameter name="DLY">0</parameter><parameter name="HFW">8000</parameter><parameter name="LFW">0</parameter><parameter name="NSS">32</parameter><parameter name="PLF">AB</parameter><parameter name="RES">6</parameter><parameter name="SOT">0</parameter><parameter name="TCL">MakeCompatibleScalar (0, {WSV=1.000000, ARV=0});</parameter><parameter name="TDL">37</parameter><parameter name="SPO">0</parameter><parameter name="SGN">-1</parameter></Acquisition_Parameters_><Instrument_Parameters_Rf><parameter name="HFL">15801.365274</parameter><parameter name="LFL">0</parameter><parameter name="LWN">15801.365274</parameter><parameter name="ABP">32157</parameter><parameter name="SSP">1</parameter><parameter name="ARG">2</parameter><parameter name="ASG">2</parameter><parameter name="ASS">32</parameter><parameter name="GFW">16</parameter><parameter name="GBW">16</parameter><parameter name="BFW">0</parameter><parameter name="BBW">0</parameter><parameter name="PKA">9307</parameter><parameter name="PKL">4987</parameter><parameter name="PRA">9273</parameter><parameter name="PRL">5010</parameter><parameter name="P2A">1</parameter><parameter name="P2L">1</parameter><parameter name="P2R">1</parameter><parameter name="P2K">1</parameter><parameter name="DAQ">0</parameter><parameter name="AG2">1</parameter><parameter name="SSM">1</parameter><parameter name="RSN">46520</parameter><parameter name="CRR">0</parameter><parameter name="SRT">1705575758.919</parameter><parameter name="DUR">19.6449890136719</parameter><parameter name="TSC">32</parameter><parameter name="MVD">0.301207661628723</parameter><parameter name="AN1">0.225997283201634</parameter><parameter name="AN2">0</parameter><parameter name="VSN">2.485 Apr  4 2017</parameter><parameter name="SRN">0085</parameter><parameter name="CAM">0</parameter><parameter name="INS">IR-Biotyper</parameter><parameter name="FOC">69</parameter><parameter name="RDY">1</parameter><parameter name="ARS">32</parameter></Instrument_Parameters_Rf><Sample_Parameters_><parameter name="BLD"></parameter><parameter name="CNM">Admin</parameter><parameter name="CPY"></parameter><parameter name="DPM"></parameter><parameter name="EXP">IRBT_v3_32Scans.XPM</parameter><parameter name="LCT"></parameter><parameter name="SFM">Microplate, HTS-XT</parameter><parameter name="SNM">240118-1045-Cdiff_SCFA_2_C19_232119675_A2_9888ab9c-358c-4fce-b9a2-ad9c8c2976c6.0</parameter><parameter name="XPP">C:\Users\Public\Documents\Bruker\OPUS_8.2.28\XPM</parameter><parameter name="IST">OK</parameter><parameter name="CPG">1252</parameter><parameter name="UID">b8410f28-6368-44dd-bba6-38d6e0a38a8a</parameter></Sample_Parameters_><Instrument_Parameters_><parameter name="HFL">15801.365274</parameter><parameter name="LFL">0</parameter><parameter name="LWN">15801.365274</parameter><parameter name="ABP">32157</parameter><parameter name="SSP">1</parameter><parameter name="ASG">2</parameter><parameter name="ARG">2</parameter><parameter name="ASS">32</parameter><parameter name="GFW">16</parameter><parameter name="GBW">16</parameter><parameter name="BFW">0</parameter><parameter name="BBW">0</parameter><parameter name="PKA">10816</parameter><parameter name="PKL">4987</parameter><parameter name="PRA">10777</parameter><parameter name="PRL">5010</parameter><parameter name="P2A">1</parameter><parameter name="P2L">1</parameter><parameter name="P2R">1</parameter><parameter name="P2K">1</parameter><parameter name="DAQ">0</parameter><parameter name="AG2">1</parameter><parameter name="SSM">1</parameter><parameter name="RSN">23953</parameter><parameter name="CRR">0</parameter><parameter name="SRT">1705575784.781</parameter><parameter name="DUR">19.64599609375</parameter><parameter name="TSC">32</parameter><parameter name="MVD">1.41725373268127</parameter><parameter name="AN1">0.226005793575945</parameter><parameter name="AN2">0</parameter><parameter name="VSN">2.485 Apr  4 2017</parameter><parameter name="SRN">0085</parameter><parameter name="CAM">0</parameter><parameter name="INS">IR-Biotyper</parameter><parameter name="FOC">69</parameter><parameter name="RDY">1</parameter></Instrument_Parameters_><History/></OPUSDataFile>
