<?xml version="1.0" encoding="UTF-8" ?>
<OPUSDataFile><AB><Ydata ylabel="Absorbance Units"><values byteorder="INTEL" format="FLOAT32" numvalues="3497"> -0.03698968 -0.03698534 -0.03698625 -0.03699223 -0.03700333 -0.03701804 -0.03703332 -0.03704765 -0.03705724 -0.03706199
 -0.03706012 -0.03705299 -0.0370407 -0.03702558 -0.03700804 -0.03699251 -0.0369803 -0.03697561 -0.03698032 -0.03699242
 -0.03701261 -0.03703211 -0.03705028 -0.03705974 -0.03706016 -0.03705146 -0.03703416 -0.03701371 -0.03699039 -0.03696873
 -0.03694791 -0.03692784 -0.03690736 -0.03688329 -0.03685663 -0.03682617 -0.03679702 -0.03677379 -0.036761 -0.03676529
 -0.03678209 -0.03681276 -0.0368453 -0.03687565 -0.03689703 -0.03690583 -0.0369072 -0.03690086 -0.03689623 -0.03689428
 -0.03689841 -0.03690877 -0.03692372 -0.03694293 -0.03696259 -0.03698191 -0.03699459 -0.03700043 -0.03699445 -0.03697933
 -0.03695771 -0.03693414 -0.03691769 -0.03690863 -0.0369126 -0.03692259 -0.03693574 -0.03694469 -0.03694371 -0.03693359
 -0.03691222 -0.03688694 -0.03685896 -0.03683448 -0.03681485 -0.03680135 -0.03679435 -0.03679257 -0.03679599 -0.03680357
 -0.0368152 -0.03682943 -0.03684588 -0.03686181 -0.03687677 -0.03688762 -0.03689446 -0.03689557 -0.03689234 -0.03688575
 -0.03687822 -0.03687279 -0.03687094 -0.03687541 -0.03688443 -0.03689874 -0.03691296 -0.03692556 -0.03693189 -0.03693013
 -0.03692009 -0.03690099 -0.03687726 -0.03684904 -0.03682262 -0.03679832 -0.03677993 -0.03676731 -0.03675974 -0.03675668
 -0.03675461 -0.03675323 -0.03674917 -0.03674341 -0.03673617 -0.03672963 -0.03672787 -0.03673112 -0.03674236 -0.03675762
 -0.03677554 -0.03679043 -0.03679841 -0.03679814 -0.03678701 -0.03677085 -0.03675003 -0.0367325 -0.03671986 -0.03671507
 -0.03671893 -0.03672727 -0.03673988 -0.03675029 -0.03675851 -0.03676302 -0.03676461 -0.03676745 -0.03677159 -0.03678032
 -0.03679126 -0.03680049 -0.03680579 -0.03680025 -0.03678708 -0.03676645 -0.03674416 -0.03672569 -0.03671196 -0.03670579
 -0.03670357 -0.03670473 -0.03670562 -0.03670481 -0.03670247 -0.03669816 -0.03669453 -0.0366919 -0.03669055 -0.03669053
 -0.03668894 -0.0366856 -0.03667707 -0.03666355 -0.0366442 -0.03661985 -0.03659276 -0.03656436 -0.03653931 -0.03651842
 -0.03650554 -0.03649978 -0.0365023 -0.03650995 -0.03652092 -0.03653166 -0.03653956 -0.0365432 -0.03654124 -0.03653425
 -0.0365217 -0.03650662 -0.03648911 -0.03647397 -0.03646163 -0.03645667 -0.03645942 -0.03647052 -0.03648968 -0.03651237
 -0.03653807 -0.0365611 -0.03658173 -0.03659788 -0.03661034 -0.03662047 -0.03662786 -0.03663304 -0.03663377 -0.03662733
 -0.03661289 -0.03658722 -0.03655577 -0.03651949 -0.0364874 -0.03646413 -0.03645141 -0.03645261 -0.03645634 -0.03646179
 -0.03645513 -0.0364341 -0.0363989 -0.03634923 -0.03630046 -0.0362534 -0.0362234 -0.03620967 -0.03621487 -0.03623638
 -0.03626567 -0.03630054 -0.03633101 -0.03635647 -0.03637109 -0.03637596 -0.03636951 -0.03635482 -0.03633323 -0.03630942
 -0.03628629 -0.03626736 -0.03625506 -0.03624936 -0.03625112 -0.03625741 -0.03626784 -0.03628042 -0.03629483 -0.03631093
 -0.03632872 -0.03634615 -0.03636298 -0.03637496 -0.03638205 -0.03638165 -0.03637423 -0.03636046 -0.03634056 -0.0363152
 -0.03628492 -0.03625025 -0.03621363 -0.0361781 -0.03614599 -0.03612067 -0.03610223 -0.03609184 -0.03608831 -0.03609165
 -0.03610001 -0.03611339 -0.03612791 -0.03614317 -0.03615456 -0.03616143 -0.03616204 -0.03615619 -0.03614537 -0.03612972
 -0.03611216 -0.03609282 -0.03607391 -0.03605575 -0.0360408 -0.03602945 -0.03602437 -0.03602502 -0.03603242 -0.03604393
 -0.03605743 -0.03606841 -0.03607195 -0.03606594 -0.03604627 -0.0360177 -0.03598028 -0.03594216 -0.0359058 -0.0358757
 -0.0358534 -0.03583898 -0.03583278 -0.03583265 -0.03583854 -0.03584598 -0.03585469 -0.03585904 -0.03585916 -0.03585301
 -0.03584155 -0.03582783 -0.03581243 -0.03579879 -0.03578637 -0.03577604 -0.03576643 -0.03575625 -0.03574413 -0.03572814
 -0.0357082 -0.03568291 -0.03565541 -0.03562607 -0.03560004 -0.03557904 -0.03556548 -0.03556078 -0.03556106 -0.03556638
 -0.03557007 -0.03557171 -0.03556617 -0.03555324 -0.0355294 -0.03549482 -0.03544834 -0.03539139 -0.03532893 -0.03526352
 -0.035205 -0.03515451 -0.03511963 -0.03509831 -0.03509184 -0.03509547 -0.03510572 -0.03511778 -0.03512714 -0.03513284
 -0.0351329 -0.03512969 -0.03512419 -0.035115 -0.03510289 -0.03508025 -0.0350461 -0.03499597 -0.03492907 -0.03485332
 -0.03476929 -0.03469038 -0.03461679 -0.03455617 -0.03450743 -0.03447017 -0.0344426 -0.03441977 -0.03439988 -0.03437696
 -0.03435038 -0.03431662 -0.03427636 -0.03422897 -0.03417541 -0.03411589 -0.03405193 -0.03398366 -0.03391459 -0.03384535
 -0.03378063 -0.03372158 -0.03367063 -0.03362861 -0.03359315 -0.03356432 -0.03353566 -0.03350682 -0.03347111 -0.03342866
 -0.03337724 -0.03331784 -0.03325358 -0.03318563 -0.03311933 -0.03305461 -0.03299428 -0.03293676 -0.03288097 -0.03282567
 -0.03276878 -0.03271129 -0.03265313 -0.03259578 -0.03254042 -0.03248592 -0.03243237 -0.03237773 -0.03232127 -0.03226389
 -0.03220545 -0.03214861 -0.03209369 -0.03203982 -0.03198683 -0.03192912 -0.03186666 -0.03179638 -0.03171949 -0.03163981
 -0.03155898 -0.03148419 -0.03141554 -0.0313572 -0.03130731 -0.03126545 -0.03122854 -0.03119341 -0.03115799 -0.0311194
 -0.03107862 -0.03103501 -0.03099144 -0.03094908 -0.03090802 -0.03086906 -0.03082812 -0.03078476 -0.03073575 -0.03068064
 -0.03062131 -0.03055793 -0.03049547 -0.03043397 -0.03037592 -0.03032076 -0.03026691 -0.030214 -0.03015982 -0.03010484
 -0.0300491 -0.02999281 -0.02993672 -0.02987966 -0.02982052 -0.02975911 -0.02969398 -0.02962871 -0.0295643 -0.02950483
 -0.02945283 -0.02940579 -0.02936434 -0.02932113 -0.02927491 -0.02922351 -0.02916631 -0.02910939 -0.02905306 -0.029004
 -0.02896184 -0.02892583 -0.02889445 -0.02885983 -0.02882035 -0.02876627 -0.02869817 -0.02861086 -0.02850984 -0.02839952
 -0.02828881 -0.0281889 -0.02810428 -0.02804369 -0.02800109 -0.02797733 -0.02796052 -0.02794695 -0.02792849 -0.02790228
 -0.02786675 -0.0278212 -0.0277662 -0.02770165 -0.02762928 -0.02754926 -0.02746846 -0.02738755 -0.02731653 -0.02725518
 -0.02720854 -0.02717414 -0.02714694 -0.02712425 -0.0270971 -0.02706583 -0.02702641 -0.02698192 -0.02693422 -0.02688549
 -0.02683842 -0.02679239 -0.02674785 -0.02670368 -0.02665913 -0.02661553 -0.02657309 -0.02653285 -0.02649532 -0.02645816
 -0.0264213 -0.02638126 -0.0263379 -0.02629193 -0.02624366 -0.02619725 -0.0261525 -0.02611086 -0.02607103 -0.02602906
 -0.02598476 -0.02593497 -0.02588214 -0.02582853 -0.02577662 -0.02573067 -0.02568972 -0.02565512 -0.02562311 -0.02559188
 -0.02555968 -0.02552509 -0.02548935 -0.02545262 -0.02541544 -0.0253782 -0.02533882 -0.02529718 -0.02525114 -0.02520059
 -0.02514683 -0.02509021 -0.02503516 -0.02498188 -0.02493417 -0.02489142 -0.02485386 -0.0248203 -0.02478805 -0.02475651
 -0.02472332 -0.02468905 -0.02465327 -0.02461707 -0.02458102 -0.02454629 -0.02451345 -0.02448398 -0.02445878 -0.02443766
 -0.0244213 -0.02440611 -0.02439201 -0.02437328 -0.02434934 -0.0243168 -0.02427547 -0.02422772 -0.02417406 -0.02412139
 -0.0240703 -0.02402814 -0.02399443 -0.02397222 -0.02395904 -0.02395106 -0.02394507 -0.0239337 -0.02391631 -0.02388845
 -0.0238533 -0.02381158 -0.02376709 -0.02372238 -0.02367852 -0.02363663 -0.02359604 -0.02355662 -0.02351863 -0.02348205
 -0.02344761 -0.02341546 -0.02338476 -0.02335547 -0.02332564 -0.02329521 -0.02326289 -0.0232289 -0.0231938 -0.02315809
 -0.02312387 -0.02309147 -0.02306291 -0.02303784 -0.02301681 -0.02299861 -0.0229822 -0.02296625 -0.02294935 -0.02293079
 -0.02290977 -0.0228862 -0.02285974 -0.02283111 -0.02280015 -0.02276896 -0.02273775 -0.02270889 -0.02268268 -0.02265996
 -0.02264082 -0.02262346 -0.02260772 -0.02259094 -0.02257308 -0.02255248 -0.02252926 -0.0225028 -0.02247347 -0.02244171
 -0.02240823 -0.02237416 -0.02234083 -0.02231032 -0.02228326 -0.02226152 -0.02224292 -0.02222737 -0.0222108 -0.02219113
 -0.02216781 -0.02213913 -0.02211192 -0.02208674 -0.0220716 -0.02206789 -0.0220741 -0.02209034 -0.02210458 -0.0221163
 -0.02211523 -0.02210247 -0.02207961 -0.02204883 -0.02201965 -0.02199242 -0.0219734 -0.02196046 -0.02195306 -0.0219483
 -0.02194252 -0.02193364 -0.02191859 -0.02189683 -0.02186656 -0.02183037 -0.02178806 -0.02174526 -0.02170346 -0.02166621
 -0.0216348 -0.02160764 -0.02158488 -0.02156248 -0.02154018 -0.02151653 -0.02149154 -0.02146544 -0.02143793 -0.02140728
 -0.02137292 -0.02133121 -0.02128268 -0.02122603 -0.02116397 -0.02109998 -0.021038 -0.02098425 -0.02094111 -0.02091357
 -0.02089959 -0.02090068 -0.02090981 -0.02092542 -0.02093859 -0.02094641 -0.02094444 -0.02093052 -0.02090922 -0.02088017
 -0.02085509 -0.02083469 -0.02082784 -0.02083448 -0.0208529 -0.02088208 -0.02091357 -0.02094734 -0.02097833 -0.02100816
 -0.02103877 -0.02107084 -0.02110729 -0.02114611 -0.02118626 -0.02122503 -0.02125903 -0.02128888 -0.02131286 -0.02133618
 -0.0213599 -0.02139075 -0.02143112 -0.02148359 -0.02154969 -0.02162559 -0.0217113 -0.02180023 -0.02189196 -0.02198169
 -0.02206925 -0.02215237 -0.02223101 -0.0223038 -0.02237078 -0.02243119 -0.02248553 -0.02253481 -0.02257929 -0.02261993
 -0.02265686 -0.02269012 -0.02272132 -0.02275103 -0.0227832 -0.02282022 -0.02286541 -0.02292163 -0.02298684 -0.02306208
 -0.02313978 -0.02321916 -0.02329157 -0.02335586 -0.02340668 -0.02344349 -0.02346669 -0.0234766 -0.02348016 -0.0234783
 -0.02348161 -0.02349031 -0.02351156 -0.02354362 -0.02358604 -0.02363568 -0.02368624 -0.02373611 -0.02377987 -0.02381912
 -0.02385285 -0.02388471 -0.02391669 -0.02395137 -0.02399104 -0.02403394 -0.02408075 -0.02412599 -0.0241688 -0.02420478
 -0.02423286 -0.02425507 -0.02427134 -0.0242881 -0.02430558 -0.02432767 -0.02435389 -0.02438208 -0.02441151 -0.02443758
 -0.02446041 -0.02447754 -0.02449018 -0.0244991 -0.0245063 -0.02451468 -0.0245258 -0.02454215 -0.02456419 -0.02459328
 -0.02462792 -0.02466829 -0.02471091 -0.02475509 -0.02479691 -0.0248352 -0.02486935 -0.02489867 -0.02492812 -0.02495799
 -0.02499327 -0.02503394 -0.02507681 -0.02512101 -0.02515726 -0.02518612 -0.02520442 -0.02521512 -0.02522527 -0.02523691
 -0.02525864 -0.02528786 -0.02532524 -0.0253661 -0.02540567 -0.02544269 -0.02547406 -0.02550299 -0.02552994 -0.02555867
 -0.02559096 -0.0256266 -0.02566643 -0.02570607 -0.02574519 -0.02577929 -0.02580787 -0.02583101 -0.02584884 -0.02586583
 -0.02588218 -0.02590192 -0.02592453 -0.02594987 -0.02597711 -0.02600355 -0.02602913 -0.02605231 -0.02607363 -0.02609333
 -0.02611146 -0.02612803 -0.02614332 -0.02615678 -0.02617129 -0.02618761 -0.02620948 -0.02623899 -0.02627457 -0.02631733
 -0.02635851 -0.02639726 -0.02642528 -0.02644158 -0.02644726 -0.02644253 -0.02643608 -0.02642826 -0.0264261 -0.02642877
 -0.02643614 -0.02644681 -0.02645618 -0.02646411 -0.02646717 -0.02646816 -0.02646901 -0.02647378 -0.02648802 -0.02651155
 -0.02654771 -0.0265891 -0.02663395 -0.02667308 -0.02670245 -0.02672002 -0.02672368 -0.02671954 -0.02670778 -0.02669654
 -0.02668648 -0.02668327 -0.02668716 -0.02669956 -0.0267199 -0.02674353 -0.02676921 -0.02678795 -0.02679977 -0.02679906
 -0.02678873 -0.0267719 -0.02675184 -0.02673535 -0.02672232 -0.02671579 -0.02671277 -0.02671191 -0.02671131 -0.02670924
 -0.02670658 -0.026703 -0.02670081 -0.02670017 -0.02670442 -0.02671402 -0.02673165 -0.0267578 -0.02679024 -0.02682874
 -0.02686387 -0.02689521 -0.02691424 -0.02692222 -0.0269207 -0.02691218 -0.02690586 -0.02690241 -0.02690862 -0.02692185
 -0.02694148 -0.02696398 -0.0269853 -0.02700366 -0.02701596 -0.02702354 -0.02702574 -0.02702616 -0.02702563 -0.02702784
 -0.02703404 -0.02704468 -0.02706041 -0.02707731 -0.02709522 -0.02710902 -0.02711848 -0.02712204 -0.02712007 -0.02711597
 -0.02711034 -0.02710851 -0.02711023 -0.02711805 -0.02713019 -0.02714408 -0.02715795 -0.02716756 -0.02717327 -0.0271734
 -0.02717032 -0.02716537 -0.02715994 -0.02715546 -0.02715122 -0.02714739 -0.02714259 -0.02713637 -0.02712873 -0.02711951
 -0.02710972 -0.02709947 -0.02708878 -0.02707764 -0.02706409 -0.02704798 -0.02702645 -0.0269998 -0.02696801 -0.02693216
 -0.0268959 -0.02686006 -0.02682881 -0.02680096 -0.02677708 -0.02675404 -0.02672867 -0.02669863 -0.02666084 -0.02661537
 -0.02656138 -0.02649978 -0.02643096 -0.02635446 -0.02627038 -0.02617743 -0.02607531 -0.02596413 -0.02584382 -0.02571588
 -0.0255804 -0.02543734 -0.0252864 -0.02512412 -0.02494966 -0.0247566 -0.024544 -0.02430531 -0.02404009 -0.02374414
 -0.02341741 -0.02305848 -0.02266604 -0.0222391 -0.02177359 -0.02126682 -0.02071351 -0.02011034 -0.01945377 -0.01874206
 -0.01797249 -0.01714466 -0.01625377 -0.01529906 -0.01427647 -0.01318497 -0.01202974 -0.01081102 -0.00954963 -0.008247881
 -0.006939875 -0.00562932 -0.004354541 -0.003119305 -0.001956404 -0.0008692857 0.0001188334 0.001003856 0.001769492 0.002412187
 0.002919447 0.003297159 0.003539333 0.003674107 0.003706799 0.00368877 0.003634483 0.003602084 0.003606463 0.003694304
 0.003874701 0.004178308 0.004608946 0.005186046 0.005910925 0.006790752 0.007824449 0.009000138 0.01031344 0.01173356
 0.01325366 0.0148345 0.01646805 0.01811818 0.01977399 0.02140578 0.02299484 0.02451417 0.02593346 0.02722538
 0.028353 0.02929123 0.03001026 0.03049293 0.03072612 0.03070211 0.03042281 0.02988509 0.02910851 0.02809165
 0.02688796 0.0255 0.02402345 0.02246485 0.02093643 0.01944202 0.01806431 0.01679852 0.01567293 0.01467671
 0.0137983 0.01302743 0.0123424 0.0117348 0.01118827 0.0106924 0.01023579 0.00980472 0.009389627 0.008978389
 0.008564085 0.008141052 0.007705945 0.007259902 0.006802191 0.006337618 0.005866294 0.005395425 0.004925374 0.004466707
 0.004020394 0.003602171 0.003214129 0.002877375 0.002594276 0.002386336 0.002252087 0.002202066 0.002225427 0.002312235
 0.002442219 0.002588826 0.00273261 0.002846245 0.002927109 0.002960454 0.002970526 0.002957799 0.002966317 0.003005289
 0.00311812 0.003314691 0.00361498 0.004024373 0.004527153 0.005123234 0.005766562 0.006453563 0.007123111 0.007768812
 0.008321782 0.008769645 0.009031208 0.009088584 0.008852916 0.008318129 0.007421171 0.006196494 0.004644444 0.002848634
 0.0008674175 -0.001197199 -0.003272953 -0.005286693 -0.007190207 -0.008958462 -0.01057322 -0.01204101 -0.01335923 -0.01454398
 -0.01559617 -0.01653412 -0.01735892 -0.01809039 -0.01872965 -0.01929612 -0.01979094 -0.02023103 -0.02061771 -0.02096489
 -0.0212742 -0.02155647 -0.0218137 -0.02205407 -0.02227969 -0.02249675 -0.02270542 -0.0229086 -0.02310344 -0.02328921
 -0.02346293 -0.02362263 -0.02376898 -0.02390117 -0.02402337 -0.02413582 -0.02424424 -0.02434906 -0.02445678 -0.02456782
 -0.02468809 -0.02481776 -0.02495941 -0.02511267 -0.02527612 -0.02544894 -0.02562723 -0.02580981 -0.02599175 -0.02617169
 -0.02634473 -0.02651053 -0.02666635 -0.02681322 -0.02695095 -0.027081 -0.02720421 -0.02732149 -0.02743346 -0.02754044
 -0.02764272 -0.02773987 -0.02783186 -0.02791822 -0.02799874 -0.02807468 -0.02814605 -0.02821585 -0.02828421 -0.0283538
 -0.02842451 -0.0284968 -0.02857011 -0.02864255 -0.02871326 -0.0287789 -0.02883904 -0.02889087 -0.02893562 -0.02897328
 -0.02900648 -0.02903782 -0.02906851 -0.02910058 -0.02913257 -0.02916448 -0.02919433 -0.02922141 -0.02924508 -0.02926496
 -0.02928169 -0.02929527 -0.02930661 -0.02931575 -0.02932417 -0.02933192 -0.02934047 -0.02934963 -0.02935874 -0.02936729
 -0.0293726 -0.02937445 -0.02937049 -0.02936163 -0.02934816 -0.02933188 -0.02931519 -0.02929996 -0.02928877 -0.0292827
 -0.02928334 -0.02929058 -0.02930511 -0.02932506 -0.02935052 -0.02937743 -0.0294052 -0.02942952 -0.02944959 -0.02946461
 -0.0294743 -0.0294824 -0.02948911 -0.02949882 -0.02951139 -0.02952771 -0.02954715 -0.02956727 -0.02958751 -0.02960473
 -0.02961919 -0.02962969 -0.02963731 -0.029643 -0.02964777 -0.02965309 -0.02965907 -0.02966643 -0.02967421 -0.02968224
 -0.02968947 -0.02969568 -0.02969943 -0.02970051 -0.02969724 -0.02968925 -0.02967664 -0.02965918 -0.02964197 -0.02962539
 -0.02961872 -0.02962227 -0.02964312 -0.02968012 -0.02973217 -0.02979677 -0.02986603 -0.0299379 -0.03000418 -0.03006477
 -0.03011592 -0.03015868 -0.03019283 -0.03021907 -0.03023779 -0.03024949 -0.03025416 -0.0302534 -0.03024734 -0.03023892
 -0.03022866 -0.03021938 -0.03021153 -0.03020696 -0.03020586 -0.03020863 -0.03021525 -0.03022476 -0.03023702 -0.03025045
 -0.03026501 -0.03027975 -0.03029451 -0.03030836 -0.03032107 -0.03033157 -0.03034005 -0.03034601 -0.03035063 -0.03035488
 -0.03035979 -0.03036671 -0.03037505 -0.03038504 -0.03039531 -0.03040534 -0.03041478 -0.03042341 -0.0304315 -0.03043915
 -0.03044582 -0.03045148 -0.0304557 -0.03045849 -0.03046151 -0.03046485 -0.03047054 -0.03047823 -0.03048734 -0.03049727
 -0.03050552 -0.03051226 -0.03051654 -0.03051904 -0.03052062 -0.03052115 -0.03052097 -0.03051934 -0.03051545 -0.03051015
 -0.03050302 -0.03049738 -0.0304943 -0.03049589 -0.03050331 -0.03051437 -0.0305292 -0.03054325 -0.03055609 -0.0305656
 -0.03057172 -0.03057645 -0.03058005 -0.03058586 -0.0305936 -0.0306037 -0.03061518 -0.030625 -0.03063281 -0.03063585
 -0.03063563 -0.03063289 -0.03063001 -0.03063012 -0.03063368 -0.03064278 -0.03065456 -0.03066843 -0.03068083 -0.03069002
 -0.03069565 -0.03069686 -0.03069688 -0.03069597 -0.03069726 -0.0307011 -0.03070834 -0.03071901 -0.03073171 -0.03074636
 -0.03076148 -0.030777 -0.03079157 -0.03080525 -0.03081753 -0.03082855 -0.03083841 -0.03084714 -0.03085495 -0.03086142
 -0.03086602 -0.03086896 -0.03086974 -0.0308703 -0.03087128 -0.03087502 -0.03088271 -0.03089458 -0.03091132 -0.0309301
 -0.03095075 -0.03096962 -0.0309863 -0.03099928 -0.0310085 -0.031015 -0.03101893 -0.03102238 -0.03102528 -0.03102836
 -0.03103121 -0.03103262 -0.03103259 -0.03103032 -0.0310265 -0.03102184 -0.03101696 -0.03101305 -0.03100968 -0.03100716
 -0.03100424 -0.03100028 -0.03099469 -0.03098684 -0.03097774 -0.03096722 -0.03095789 -0.03095013 -0.03094579 -0.03094519
 -0.03094766 -0.03095317 -0.03095881 -0.03096448 -0.03096823 -0.03097032 -0.03097133 -0.03097142 -0.03097163 -0.03097165
 -0.03097115 -0.03097006 -0.03096784 -0.03096547 -0.03096374 -0.03096377 -0.03096704 -0.03097288 -0.03098177 -0.03099119
 -0.03100035 -0.03100738 -0.03101142 -0.03101278 -0.03101126 -0.0310082 -0.03100365 -0.03099917 -0.03099484 -0.03099213
 -0.03099107 -0.03099276 -0.03099701 -0.03100336 -0.03101136 -0.03101908 -0.03102641 -0.03103202 -0.03103637 -0.03103969
 -0.03104232 -0.03104493 -0.03104706 -0.03104843 -0.03104915 -0.03104883 -0.03104907 -0.03105015 -0.03105424 -0.03106222
 -0.03107378 -0.03108929 -0.03110602 -0.0311238 -0.03113986 -0.03115403 -0.03116536 -0.03117384 -0.03117949 -0.0311823
 -0.03118203 -0.03117878 -0.0311726 -0.0311639 -0.03115369 -0.03114236 -0.03113105 -0.03111991 -0.03110949 -0.03109999
 -0.03109176 -0.0310849 -0.03107965 -0.03107559 -0.03107256 -0.03107049 -0.03106907 -0.03106978 -0.03107286 -0.03107916
 -0.03108905 -0.03109962 -0.03111075 -0.03111696 -0.03111818 -0.03111221 -0.03109974 -0.03108396 -0.03106562 -0.03104931
 -0.0310351 -0.03102553 -0.03102006 -0.03101885 -0.03102146 -0.03102756 -0.03103649 -0.03104783 -0.03106041 -0.0310738
 -0.03108587 -0.03109593 -0.03110158 -0.03110186 -0.03109639 -0.0310845 -0.03106968 -0.03105203 -0.03103694 -0.03102476
 -0.03101823 -0.03101724 -0.03101969 -0.03102519 -0.03102997 -0.03103417 -0.03103618 -0.03103678 -0.03103732 -0.031038
 -0.03104029 -0.03104277 -0.03104467 -0.0310438 -0.03103767 -0.03102615 -0.03100762 -0.03098557 -0.03096054 -0.03093741
 -0.03091775 -0.03090382 -0.0308966 -0.03089464 -0.030898 -0.030904 -0.03091248 -0.03092166 -0.03093149 -0.03094081
 -0.03094949 -0.03095597 -0.03096015 -0.03096066 -0.03095795 -0.03095226 -0.03094443 -0.03093604 -0.0309277 -0.03092087
 -0.03091558 -0.03091234 -0.030911 -0.03091154 -0.03091406 -0.03091856 -0.03092528 -0.03093435 -0.03094565 -0.03095925
 -0.03097463 -0.03099183 -0.0310096 -0.03102791 -0.03104415 -0.03105815 -0.03106658 -0.03106953 -0.03106567 -0.03105601
 -0.03104381 -0.03103035 -0.0310212 -0.03101599 -0.0310172 -0.03102249 -0.03103001 -0.03103749 -0.03104206 -0.03104322
 -0.03103959 -0.03103237 -0.03102155 -0.0310089 -0.03099467 -0.0309813 -0.03096913 -0.03096071 -0.03095641 -0.03095782
 -0.03096515 -0.03097667 -0.03099214 -0.03100628 -0.03101903 -0.0310272 -0.03103139 -0.03103272 -0.03103113 -0.03102746
 -0.03102044 -0.03100764 -0.03098925 -0.03096345 -0.03093396 -0.03090285 -0.03087504 -0.03085467 -0.03084283 -0.03084188
 -0.03084777 -0.03086041 -0.03087327 -0.03088521 -0.03089118 -0.03089016 -0.03088219 -0.03086709 -0.03084929 -0.03082904
 -0.03081096 -0.03079496 -0.03078232 -0.03077272 -0.03076543 -0.03076042 -0.0307573 -0.03075605 -0.03075675 -0.03075852
 -0.03076029 -0.03076131 -0.03076021 -0.03075751 -0.03075295 -0.03074785 -0.03074291 -0.03073833 -0.03073457 -0.03073021
 -0.03072506 -0.03071793 -0.03070852 -0.03069746 -0.03068471 -0.03067221 -0.03066001 -0.03064939 -0.03064018 -0.03063173
 -0.03062383 -0.03061507 -0.0306057 -0.03059557 -0.03058505 -0.03057468 -0.030565 -0.03055688 -0.03055095 -0.03054813
 -0.03054875 -0.03055378 -0.03056147 -0.03057181 -0.03058121 -0.03058859 -0.03059155 -0.03058898 -0.03058269 -0.0305725
 -0.03056288 -0.03055415 -0.03054933 -0.03054844 -0.03055017 -0.03055413 -0.03055608 -0.03055598 -0.03055109 -0.03054214
 -0.03052983 -0.03051513 -0.03050045 -0.03048604 -0.03047328 -0.03046193 -0.03045218 -0.03044391 -0.03043718 -0.03043153
 -0.03042687 -0.03042242 -0.03041778 -0.03041324 -0.0304087 -0.03040522 -0.03040302 -0.03040184 -0.03040174 -0.03040074
 -0.03039877 -0.03039518 -0.03039019 -0.03038557 -0.03038142 -0.03037933 -0.03037904 -0.03038044 -0.0303835 -0.03038798
 -0.03039414 -0.0304026 -0.03041246 -0.03042357 -0.03043356 -0.03044082 -0.03044368 -0.03044046 -0.03043228 -0.03041867
 -0.03040312 -0.03038615 -0.0303711 -0.03035857 -0.03034991 -0.03034539 -0.03034373 -0.03034484 -0.03034573 -0.03034633
 -0.03034442 -0.03034037 -0.0303346 -0.03032783 -0.03032256 -0.03031889 -0.03031849 -0.03032035 -0.03032377 -0.03032766
 -0.03033043 -0.03033219 -0.03033249 -0.03033188 -0.03033084 -0.03032846 -0.0303248 -0.0303178 -0.03030677 -0.03029184
 -0.03027259 -0.03025272 -0.03023245 -0.03021572 -0.03020267 -0.03019384 -0.03018899 -0.03018567 -0.03018373 -0.03018118
 -0.03017802 -0.03017329 -0.03016698 -0.03015844 -0.03014821 -0.03013631 -0.03012474 -0.03011546 -0.03011038 -0.03011202
 -0.03011933 -0.03013325 -0.03014922 -0.03016616 -0.03017971 -0.03018848 -0.03019128 -0.03018755 -0.03017871 -0.03016473
 -0.03014833 -0.03012968 -0.03011199 -0.03009544 -0.03008308 -0.03007473 -0.03007139 -0.03007229 -0.03007551 -0.0300802
 -0.03008335 -0.03008508 -0.03008402 -0.03008134 -0.03007775 -0.03007429 -0.03007207 -0.03007124 -0.03007223 -0.03007467
 -0.03007845 -0.03008373 -0.03009059 -0.03009878 -0.03010844 -0.03011786 -0.03012696 -0.03013309 -0.03013613 -0.03013427
 -0.0301276 -0.03011641 -0.03010114 -0.03008413 -0.03006596 -0.03004983 -0.03003599 -0.03002692 -0.03002182 -0.03002093
 -0.03002238 -0.0300242 -0.03002511 -0.03002308 -0.03001912 -0.03001284 -0.03000666 -0.03000137 -0.02999838 -0.02999847
 -0.03000049 -0.03000452 -0.03000813 -0.0300111 -0.03001193 -0.03001052 -0.03000689 -0.03000118 -0.02999502 -0.02998856
 -0.02998351 -0.02997973 -0.02997782 -0.02997701 -0.02997581 -0.02997367 -0.02996878 -0.02996182 -0.02995258 -0.02994264
 -0.0299332 -0.02992509 -0.02991924 -0.02991525 -0.02991326 -0.02991257 -0.02991298 -0.02991431 -0.02991653 -0.02991929
 -0.02992257 -0.02992583 -0.02992902 -0.02993201 -0.02993478 -0.029937 -0.02993851 -0.02993821 -0.02993584 -0.02992967
 -0.02992009 -0.0299068 -0.02989123 -0.02987547 -0.02986088 -0.02985023 -0.02984283 -0.02983953 -0.02983782 -0.02983654
 -0.029834 -0.02982889 -0.02982231 -0.02981409 -0.0298065 -0.02979993 -0.02979537 -0.02979305 -0.02979201 -0.02979221
 -0.02979199 -0.02979128 -0.0297889 -0.02978493 -0.02977916 -0.02977191 -0.02976416 -0.02975628 -0.02974975 -0.0297444
 -0.02974082 -0.02973808 -0.02973529 -0.02973193 -0.02972699 -0.02972123 -0.02971457 -0.02970856 -0.02970378 -0.02970115
 -0.02970125 -0.02970304 -0.02970649 -0.02971032 -0.02971436 -0.02971821 -0.02972184 -0.02972537 -0.02972876 -0.02973142
 -0.02973318 -0.02973268 -0.02972978 -0.02972299 -0.02971282 -0.02969947 -0.02968417 -0.02966907 -0.02965526 -0.02964527
 -0.02963839 -0.0296353 -0.02963379 -0.02963274 -0.02963086 -0.02962704 -0.02962239 -0.02961705 -0.0296117 -0.02960669
 -0.0296007 -0.02959364 -0.02958408 -0.02957191 -0.02955744 -0.02954079 -0.02952353 -0.02950578 -0.02948897 -0.02947315
 -0.02945935 -0.02944749 -0.02943793 -0.02943035 -0.02942433 -0.02941955 -0.0294154 -0.02941197 -0.02940915 -0.02940698
 -0.02940551 -0.02940464 -0.02940439 -0.0294046 -0.02940533 -0.02940615 -0.02940724 -0.02940642 -0.02940349 -0.02939663
 -0.02938568 -0.02937148 -0.02935423 -0.02933739 -0.02932109 -0.02930789 -0.02929744 -0.02928978 -0.02928456 -0.02928073
 -0.02927858 -0.02927806 -0.02927983 -0.02928494 -0.02929301 -0.02930462 -0.02931748 -0.02933065 -0.02934153 -0.0293486
 -0.0293515 -0.02934938 -0.02934494 -0.02933831 -0.02933326 -0.02933033 -0.029331 -0.02933544 -0.02934212 -0.0293509
 -0.02935898 -0.02936636 -0.02937172 -0.02937529 -0.0293774 -0.02937823 -0.0293786 -0.02937818 -0.02937657 -0.0293739
 -0.02936988 -0.02936543 -0.02936114 -0.02935803 -0.02935716 -0.02935797 -0.02936083 -0.02936357 -0.02936579 -0.02936533
 -0.02936153 -0.02935464 -0.02934437 -0.02933376 -0.02932298 -0.02931524 -0.02931058 -0.02930917 -0.02931067 -0.02931255
 -0.02931459 -0.02931442 -0.02931227 -0.02930752 -0.02930062 -0.02929196 -0.02928226 -0.02927253 -0.02926347 -0.02925612
 -0.02925058 -0.02924756 -0.02924564 -0.02924445 -0.02924266 -0.02923967 -0.02923543 -0.02922967 -0.02922385 -0.02921807
 -0.02921391 -0.02921153 -0.02921115 -0.0292127 -0.02921445 -0.02921617 -0.0292151 -0.02921134 -0.02920359 -0.02919265
 -0.02918001 -0.02916658 -0.02915489 -0.02914518 -0.02913903 -0.02913563 -0.02913503 -0.02913575 -0.02913697 -0.02913736
 -0.02913611 -0.02913264 -0.02912657 -0.02911806 -0.029107 -0.02909421 -0.02907966 -0.02906512 -0.0290507 -0.02903802
 -0.02902708 -0.02901762 -0.02900951 -0.0290014 -0.02899355 -0.02898644 -0.02898056 -0.02897789 -0.02897784 -0.02898051
 -0.0289844 -0.02898728 -0.0289889 -0.02898793 -0.02898543 -0.0289821 -0.02897733 -0.02897142 -0.02896209 -0.02894839
 -0.02893045 -0.02890761 -0.02888393 -0.02885972 -0.02883921 -0.02882284 -0.02881053 -0.02880218 -0.02879414 -0.02878625
 -0.02877553 -0.02876236 -0.02874684 -0.02872941 -0.02871153 -0.02869313 -0.02867478 -0.02865627 -0.02863729 -0.0286185
 -0.02860024 -0.02858359 -0.02856962 -0.02855804 -0.02854934 -0.02854158 -0.0285343 -0.02852586 -0.02851559 -0.02850431
 -0.02849184 -0.02848087 -0.0284716 -0.02846588 -0.02846371 -0.02846299 -0.02846335 -0.02846016 -0.02845339 -0.02844013
 -0.02842133 -0.02839803 -0.0283719 -0.02834678 -0.02832364 -0.02830601 -0.02829262 -0.02828415 -0.02827726 -0.02827011
 -0.02825967 -0.02824342 -0.02822241 -0.0281957 -0.02816826 -0.02814095 -0.02811744 -0.02809867 -0.02808339 -0.02807166
 -0.02806057 -0.02805001 -0.02803929 -0.02802853 -0.02801882 -0.0280099 -0.02800125 -0.02799224 -0.02798081 -0.02796631
 -0.02794631 -0.0279208 -0.02788828 -0.02785033 -0.02780739 -0.02776255 -0.02771805 -0.02767595 -0.02763834 -0.02760386
 -0.02757314 -0.02754175 -0.02750909 -0.02747063 -0.02742562 -0.02737176 -0.02730869 -0.02723764 -0.02715869 -0.02707463
 -0.02698559 -0.02689365 -0.02679903 -0.02670355 -0.02660809 -0.026516 -0.02642875 -0.02635094 -0.02628361 -0.02623074
 -0.02619116 -0.02616639 -0.02615109 -0.02614273 -0.02613481 -0.02612341 -0.02610542 -0.02607856 -0.0260437 -0.02600065
 -0.02595036 -0.02589299 -0.02582861 -0.02575721 -0.02567884 -0.02559351 -0.02550224 -0.02540525 -0.02530507 -0.02520198
 -0.0250989 -0.02499552 -0.02489259 -0.02478916 -0.02468352 -0.02457503 -0.02446195 -0.02434424 -0.02422157 -0.024093
 -0.02395863 -0.0238147 -0.02365998 -0.02348944 -0.02330089 -0.02309236 -0.02286219 -0.02261483 -0.02235006 -0.02207684
 -0.02179579 -0.02151558 -0.02123667 -0.02096408 -0.02069755 -0.02043642 -0.02017936 -0.01991918 -0.01965435 -0.01937489
 -0.01908278 -0.01877587 -0.01846082 -0.01814765 -0.01783915 -0.01754421 -0.01725678 -0.01697587 -0.01669381 -0.01640557
 -0.01610998 -0.01580477 -0.01549391 -0.01517793 -0.01485993 -0.01454038 -0.01422163 -0.01390386 -0.01359003 -0.01328031
 -0.01297407 -0.01267122 -0.01236929 -0.01206969 -0.01177833 -0.01149824 -0.01124293 -0.0110139 -0.0108215 -0.01066494
 -0.01054797 -0.01046788 -0.01042465 -0.01041122 -0.01042374 -0.01045232 -0.01049137 -0.01053302 -0.01057349 -0.01060774
 -0.01063353 -0.01065048 -0.01065766 -0.01066013 -0.01065822 -0.01065667 -0.01065573 -0.01065529 -0.01065521 -0.01065328
 -0.01065011 -0.01064762 -0.0106473 -0.01065536 -0.01067284 -0.0107052 -0.01075267 -0.01081824 -0.01090127 -0.01100299
 -0.01112004 -0.01125119 -0.01139055 -0.01153517 -0.01167941 -0.01182071 -0.0119554 -0.0120823 -0.01219879 -0.01230426
 -0.01239754 -0.01247829 -0.01254807 -0.01260695 -0.01265714 -0.0126986 -0.01273166 -0.012756 -0.01276994 -0.0127734
 -0.01276519 -0.01274557 -0.01271451 -0.01267224 -0.01261904 -0.01255516 -0.01248087 -0.01239676 -0.01230351 -0.01220101
 -0.01209016 -0.01196772 -0.01183374 -0.01168105 -0.0115088 -0.01130706 -0.01107482 -0.01080027 -0.01048238 -0.01010966
 -0.00968134 -0.009195453 -0.008653466 -0.008073505 -0.007461165 -0.006856794 -0.006270705 -0.005760276 -0.005335877 -0.005054637
 -0.00491241 -0.004933737 -0.005094482 -0.005379969 -0.005758616 -0.006204234 -0.006683654 -0.007174657 -0.007647351 -0.008084387
 -0.00847531 -0.008811839 -0.009105084 -0.00935528 -0.009575556 -0.009767934 -0.009932018 -0.01006795 -0.01016804 -0.01023234
 -0.01026082 -0.01025395 -0.01021571 -0.01014458 -0.01003779 -0.00989182 -0.009696553 -0.009449534 -0.00913972 -0.008772699
 -0.008342996 -0.007880083 -0.007391706 -0.006948693 -0.006584571 -0.006378289 -0.006376653 -0.006586403 -0.007029531 -0.007635723
 -0.008401544 -0.009235076 -0.01012798 -0.01099755 -0.0118382 -0.0125994 -0.01328098 -0.01387675 -0.01439007 -0.01483992
 -0.01522822 -0.01557198 -0.01587153 -0.01613522 -0.01636522 -0.01656769 -0.01674813 -0.01691478 -0.01707393 -0.01723387
 -0.01739695 -0.01756744 -0.01774302 -0.01792366 -0.01810734 -0.01829317 -0.01848195 -0.01867446 -0.01886602 -0.01905699
 -0.01923346 -0.01939454 -0.01953123 -0.01964375 -0.01973603 -0.019809 -0.01987103 -0.01992239 -0.01996864 -0.02000919
 -0.02004582 -0.02007668 -0.02010011 -0.02011228 -0.02010911 -0.02008395 -0.02003103 -0.01994183 -0.01981064 -0.01962926
 -0.0193939 -0.0190966 -0.01873516 -0.01830134 -0.01779326 -0.01720641 -0.01653996 -0.01579318 -0.01496606 -0.01405361
 -0.01305603 -0.01197255 -0.01080975 -0.009608462 -0.008386943 -0.007238678 -0.006183364 -0.005322735 -0.004661418 -0.004263896
 -0.004100992 -0.004174061 -0.004418323 -0.004781845 -0.005204774 -0.005632188 -0.006047812 -0.006427848 -0.006790432 -0.007135803
 -0.007482667 -0.007835987 -0.008197471 -0.008568625 -0.008940595 -0.009313006 -0.009674343 -0.01002416 -0.01035463 -0.01066627
 -0.01095936 -0.01123472 -0.01149611 -0.0117435 -0.01197856 -0.01220131 -0.01241221 -0.0126121 -0.01280209 -0.01298341
 -0.01315731 -0.01332527 -0.01348904 -0.01364756 -0.01380236 -0.01394564 -0.01407675 -0.01418331 -0.01426253 -0.01430837
 -0.01431882 -0.01430095 -0.01425481 -0.01419636 -0.01412655 -0.01406302 -0.0140064 -0.01396981 -0.01395291 -0.01396105
 -0.01399396 -0.0140534 -0.01413979 -0.01425543 -0.01439881 -0.01457033 -0.01476423 -0.01497621 -0.01519949 -0.01542846
 -0.01565959 -0.0158902 -0.01611821 -0.01634317 -0.01656061 -0.01676987 -0.01696593 -0.01714797 -0.01731407 -0.01746403
 -0.01759746 -0.01771417 -0.01780969 -0.01788306 -0.01792446 -0.01793274 -0.01789733 -0.01781821 -0.01768934 -0.0175125
 -0.01728701 -0.0170181 -0.0167088 -0.01637427 -0.01602338 -0.01568762 -0.01538506 -0.01515353 -0.01501635 -0.01498643
 -0.01508025 -0.01526123 -0.01553101 -0.01581916 -0.01611836 -0.01636679 -0.0165589 -0.01666467 -0.0166833 -0.01661223
 -0.01645527 -0.01623886 -0.01597486 -0.01572936 -0.01551678 -0.01541927 -0.01543063 -0.01558793 -0.01585202 -0.01619004
 -0.01655298 -0.01688077 -0.01714726 -0.01731553 -0.01738358 -0.01734045 -0.0171951 -0.01694048 -0.01662124 -0.01623308
 -0.01588766 -0.01559441 -0.01547852 -0.0155531 -0.01584057 -0.01633866 -0.01693084 -0.01760609 -0.01821299 -0.01875467
 -0.01916245 -0.01945472 -0.01965081 -0.01976582 -0.0198409 -0.01987994 -0.01990573 -0.01991725 -0.01992087 -0.01991634
 -0.01990473 -0.01988742 -0.01986487 -0.01983958 -0.0198123 -0.01978522 -0.01975925 -0.01973367 -0.01970872 -0.01968124
 -0.019651 -0.01961545 -0.01957451 -0.01952778 -0.0194755 -0.01941941 -0.01936005 -0.01930064 -0.01924194 -0.01918814
 -0.01913944 -0.0190986 -0.01906459 -0.01903761 -0.01901502 -0.01899506 -0.01897329 -0.01894722 -0.01891005 -0.01885949
 -0.0187851 -0.01868452 -0.01854405 -0.01836083 -0.01812281 -0.0178273 -0.01747259 -0.01705741 -0.01659821 -0.01609626
 -0.01559011 -0.01508429 -0.01463717 -0.01425499 -0.01400141 -0.0138772 -0.01392331 -0.01412535 -0.01447933 -0.01495415
 -0.0155069 -0.01610163 -0.01668654 -0.01723777 -0.01772078 -0.01813268 -0.01846116 -0.01871906 -0.01890686 -0.01904122
 -0.01912533 -0.01917341 -0.01918744 -0.01918 -0.01915213 -0.01911595 -0.01907207 -0.01902877 -0.01898594 -0.01894548
 -0.01890665 -0.01886695 -0.01882528 -0.01877725 -0.01872137 -0.01865216 -0.01856898 -0.01846685 -0.01835038 -0.01821987
 -0.01808777 -0.01796178 -0.01785523 -0.0177783 -0.01773219 -0.01772171 -0.01773461 -0.01776887 -0.01781536 -0.01787108
 -0.01794316 -0.01803157 -0.01814983 -0.0182985 -0.01847636 -0.01868152 -0.01889247 -0.01910657 -0.01929766 -0.01946607
 -0.01959783 -0.0196974 -0.01976708 -0.01981294 -0.01984541 -0.01986828 -0.0198902 -0.01991047 -0.01993174 -0.01995069
 -0.01996612 -0.01997606 -0.01997914 -0.01997633 -0.01996739 -0.01995472 -0.01993855 -0.01992143 -0.01990362 -0.01988639
 -0.01986981 -0.01985354 -0.01983746 -0.01982014 -0.01980137 -0.0197795 -0.01975411 -0.01972274 -0.01968532 -0.01963967
 -0.01958775 -0.01953089 -0.01947299 -0.01941924 -0.01937095 -0.01933207 -0.01929828 -0.0192693 -0.01923797 -0.01920162
 -0.01915578 -0.01909862 -0.01902959 -0.01894821 -0.0188558 -0.01875239 -0.01863956 -0.0185174 -0.01838796 -0.01825145
 -0.01811059 -0.01796564 -0.01781959 -0.01767214 -0.01752426 -0.01737459 -0.01722067 -0.017061 -0.0168923 -0.01671316
 -0.0165219 -0.01631417 -0.01608866 -0.0158337 -0.01554592 -0.01520541 -0.01480604 -0.01432658 -0.01375892 -0.01309977
 -0.01234232 -0.01152642 -0.01065134 -0.009803775 -0.008988474 -0.008299851 -0.007739877 -0.007357855 -0.007147595 -0.007099391
 -0.007202476 -0.00741606 -0.007727487 -0.008090833 -0.00848808 -0.008873318 -0.009224305 -0.009499048 -0.00968175 -0.009745984
 -0.009687142 -0.009497181 -0.009171491 -0.008709788 -0.008095706 -0.007325553 -0.006384674 -0.005265877 -0.00399209 -0.002560445
 -0.001049742 0.0005359265 0.002091852 0.003614018 0.005025964 0.006329041 0.007494706 0.008523273 0.009403494 0.01012785
 0.01067335 0.01103109 0.01117377 0.01110223 0.01080376 0.01029122 0.009565945 0.008654924 0.007565108 0.006346225
 0.005010001 0.003627318 0.002214373 0.0008388137 -0.0004854805 -0.001719312 -0.002856184 -0.003887627 -0.004812662 -0.005638493
 -0.006365867 -0.00700677 -0.007562576 -0.008047327 -0.008463269 -0.008825887 -0.009137713 -0.009412287 -0.00965222 -0.009867367
 -0.01006098 -0.01024018 -0.01040849 -0.01057142 -0.01072979 -0.01088677 -0.01103752 -0.01118191 -0.01131144 -0.01142406
 -0.01151306 -0.01157702 -0.01161234 -0.01161903 -0.01158863 -0.0115208 -0.0113954 -0.01121168 -0.01095194 -0.01062139
 -0.01024034 -0.009826344 -0.009455932 -0.009148818 -0.009000143 -0.009004492 -0.009207527 -0.009564565 -0.01004681 -0.01059374
 -0.01114381 -0.01166107 -0.01210275 -0.01247287 -0.01276042 -0.01298852 -0.0131612 -0.01329669 -0.01339895 -0.01347789
 -0.01353479 -0.0135779 -0.01360775 -0.01363273 -0.01365322 -0.01367576 -0.01370046 -0.01373135 -0.0137682 -0.01381271
 -0.01386393 -0.01392075 -0.01398121 -0.01404151 -0.01409983 -0.01415185 -0.01419828 -0.0142373 -0.01427321 -0.01430746
 -0.01434545 -0.01438996 -0.01444334 -0.01450713 -0.01458038 -0.01466326 -0.01475389 -0.01485207 -0.01495656 -0.01506729
 -0.01518175 -0.01529978 -0.01541827 -0.01553725 -0.01565536 -0.0157728 -0.01589 -0.01600632 -0.01612069 -0.01623119
 -0.01633365 -0.01642694 -0.01650707 -0.01657625 -0.01663404 -0.01668586 -0.01673456 -0.01678521 -0.01684126 -0.01690277
 -0.01697143 -0.01704134 -0.01711219 -0.01717591 -0.01723137 -0.01727483 -0.01730582 -0.01732725 -0.01733941 -0.01734842
 -0.0173543 -0.01736019 -0.01736533 -0.01736826 -0.01736792 -0.01736074 -0.01734592 -0.01732076 -0.01728384 -0.01723361
 -0.01716493 -0.01707502 -0.01695238 -0.01678999 -0.01657689 -0.0163032 -0.01597773 -0.01559453 -0.01519555 -0.0147839
 -0.01441723 -0.01410335 -0.01387571 -0.01373829 -0.01367799 -0.0136931 -0.01374239 -0.01382373 -0.01390162 -0.0139767
 -0.01403279 -0.01407161 -0.01408895 -0.01408761 -0.01406917 -0.01404052 -0.01400966 -0.01398723 -0.01398574 -0.01401219
 -0.01407657 -0.01417475 -0.01430977 -0.01446688 -0.01464371 -0.01482276 -0.01500042 -0.01516432 -0.01531212 -0.01544051
 -0.01554887 -0.01564176 -0.01571956 -0.01579088 -0.0158563 -0.01592443 -0.01599522 -0.01607368 -0.01615824 -0.01624762
 -0.0163388 -0.01642516 -0.0165047 -0.01657097 -0.01662605 -0.01666852 -0.01670421 -0.0167363 -0.01676961 -0.01680797
 -0.01685024 -0.01689793 -0.01694392 -0.01698733 -0.01702091 -0.01704324 -0.01705346 -0.01705113 -0.01704269 -0.01702845
 -0.01701461 -0.01700084 -0.01698681 -0.01697165 -0.01695082 -0.01692461 -0.01689129 -0.01685206 -0.01680891 -0.01676168
 -0.01671115 -0.01665646 -0.01659607 -0.01653247 -0.01646559 -0.01640198 -0.01634468 -0.01629781 -0.01626447 -0.01624077
 -0.0162272 -0.0162153 -0.016204 -0.01618745 -0.01616498 -0.01613561 -0.01609939 -0.0160591 -0.01601509 -0.01597184
 -0.01592918 -0.01588936 -0.0158506 -0.0158089 -0.01576198 -0.0157025 -0.01563123 -0.01554539 -0.01544871 -0.01534417
 -0.01523375 -0.01512034 -0.01500245 -0.01487988 -0.01475217 -0.01461889 -0.0144812 -0.01434028 -0.01419096 -0.01403402
 -0.01385317 -0.0136477 -0.0133949 -0.01309359 -0.01272285 -0.01228325 -0.01176807 -0.01118557 -0.01056587 -0.00993156
 -0.009363728 -0.008890081 -0.008613225 -0.008533725 -0.008711183 -0.009092554 -0.00965992 -0.01032386 -0.01102013 -0.01167801
 -0.01224145 -0.01269958 -0.01303054 -0.01327118 -0.0134236 -0.01353153 -0.0136018 -0.01365842 -0.01370439 -0.01374496
 -0.0137804 -0.0138095 -0.01383238 -0.01385 -0.01386248 -0.01387155 -0.01387621 -0.01387434 -0.01386458 -0.01384226
 -0.01380846 -0.01376181 -0.01370643 -0.01364595 -0.01358386 -0.01352389 -0.01346749 -0.01341605 -0.01337101 -0.01333314
 -0.01330319 -0.01328213 -0.01326611 -0.01325509 -0.01324267 -0.01322815 -0.01320999 -0.01318815 -0.01316768 -0.01314877
 -0.01313556 -0.01312712 -0.01312105 -0.0131157 -0.01310432 -0.0130859 -0.01305442 -0.01301084 -0.01295286 -0.01288495
 -0.01280942 -0.01273474 -0.01266734 -0.01261436 -0.01258291 -0.0125692 -0.01257607 -0.01258698 -0.01259938 -0.01259669
 -0.01257504 -0.01253303 -0.01246942 -0.01239775 -0.0123187 -0.01224643 -0.01218093 -0.01212624 -0.01208141 -0.01204317
 -0.01201109 -0.01198206 -0.01195626 -0.01193299 -0.0119116 -0.01189127 -0.01187008 -0.01184566 -0.01181674 -0.01178085
 -0.01174011 -0.01169409 -0.01164821 -0.01160439 -0.01156583 -0.0115347 -0.01150634 -0.01148113 -0.01144845 -0.01140735
 -0.01135058 -0.01127774 -0.01119196 -0.01109399 -0.01099391 -0.01089214 -0.01079676 -0.01070648 -0.0106217 -0.01053987
 -0.01045518 -0.01036613 -0.01026729 -0.01015937 -0.01004101 -0.0099135 -0.009777618 -0.009633595 -0.009480708 -0.009322972
 -0.009158917 -0.009004004 -0.008859511 -0.008749186 -0.008677489 -0.008656086 -0.008688144 -0.008755784 -0.008858167 -0.008957521
 -0.009052531 -0.009115569 -0.009149291 -0.009154245 -0.009135736 -0.009113336 -0.009089083 -0.009078927 -0.009078811 -0.009089768
 -0.009105999 -0.009120497 -0.009131812 -0.00913599 -0.009134924 -0.009129096 -0.009118344 -0.00910281 -0.009081686 -0.00905369
 -0.00902457 -0.00899431 -0.008973588 -0.008963857 -0.008966959 -0.008983129 -0.00899952 -0.009015191 -0.009013732 -0.008995612
 -0.008954802 -0.00889382 -0.008818329 -0.008730974 -0.008641242 -0.008549681 -0.008461799 -0.008376183 -0.008292686 -0.008211839
 -0.008132376 -0.008060347 -0.007997756 -0.007952723 -0.007930392 -0.00792855 -0.00795106 -0.007975238 -0.007998509 -0.007999125
 -0.007973232 -0.00792649 -0.007858939 -0.007786708 -0.007710443 -0.00764164 -0.007580889 -0.00753799 -0.00751287 -0.007511974
 -0.007531717 -0.007568022 -0.007613931 -0.007655862 -0.007688906 -0.007700536 -0.007692994 -0.007662073 -0.007617334 -0.007561808
 -0.007507094 -0.00745879 -0.007422003 -0.007400545 -0.007388404 -0.007385782 -0.007382341 -0.007376709 -0.007365972 -0.007349808
 -0.007332363 -0.007313713 -0.007295591 -0.007277627 -0.00725758 -0.007236132 -0.007214556 -0.007194138 -0.007179559 -0.007169664
 -0.007164583 -0.007162944 -0.007160695 -0.00716451 -0.007177265 -0.007208763 -0.007269617 -0.007350012 -0.007453545 -0.007549045
 -0.007629149 -0.007670451 -0.007664539 -0.007621548 -0.007539365 -0.007456895 -0.007376393 -0.007331309 -0.007321294 -0.007341813
 -0.007387867 -0.007421969 -0.007442052 -0.007416774 -0.00735452 -0.007259209 -0.007143856 -0.007035288 -0.006936693 -0.006866245
 -0.006812446 -0.006772493 -0.006733241 -0.006683446 -0.00662518 -0.006553962 -0.006485443 -0.006423261 -0.006377747 -0.006352874
 -0.006342907 -0.006348212 -0.006356625 -0.006367316 -0.006375096 -0.006379811 -0.006379912 -0.006374418 -0.006355166 -0.006321427
 -0.006264033 -0.006186867 -0.006093864 -0.005992892 -0.005900648 -0.005820811 -0.005766643 -0.005733274 -0.005722 -0.005724438
 -0.005736142 -0.005750539 -0.005764224 -0.005772197 -0.005772302 -0.005762431 -0.005741242 -0.005712465 -0.005676288 -0.005636883
 -0.005594643 -0.005547932 -0.005496721 -0.005439683 -0.005377909 -0.005319127 -0.005264394 -0.005223243 -0.005193798 -0.005175889
 -0.005167236 -0.005162463 -0.005163097 -0.00516923 -0.005181655 -0.00520357 -0.005227294 -0.005250939 -0.005261671 -0.005252801
 -0.005219638 -0.005156905 -0.005076621 -0.004977961 -0.004886131 -0.004803495 -0.00475372 -0.004739001 -0.004762426 -0.004823087
 -0.004897723 -0.004983926 -0.005051179 -0.005100684 -0.005119839 -0.005114649 -0.005094658 -0.00506625 -0.005046675 -0.005037574
 -0.005050133 -0.005077945 -0.005121301 -0.005167014 -0.005207338 -0.005231649 -0.005231219 -0.005210119 -0.005164598 -0.005116016
 -0.005066779 -0.005040416 -0.005041379 -0.005071727 -0.005132847 -0.005193416 -0.005252957</values></Ydata></AB><ScSm><Ydata ylabel="Single channel"><values byteorder="INTEL" format="FLOAT32" numvalues="1814"> 0.07639822 0.076494 0.076608 0.07674523 0.07689776 0.07705018 0.07718816 0.07730639 0.07740869 0.07749948
 0.07758257 0.07766997 0.07778032 0.0779203 0.07807392 0.07821414 0.07832272 0.0784051 0.07849021 0.0786044
 0.07873619 0.07883475 0.07885531 0.0788077 0.0787539 0.07875304 0.07882021 0.07895549 0.07918219 0.07948942
 0.07974831 0.07979514 0.07963784 0.07948462 0.07951333 0.07969256 0.07986932 0.07993872 0.07988425 0.07975961
 0.07970873 0.07992245 0.08046603 0.081136 0.08152264 0.08124779 0.08021817 0.07876016 0.077539 0.0772097
 0.07794371 0.07923495 0.08027895 0.08062245 0.08040792 0.08002388 0.07970145 0.07951185 0.0795489 0.07991385
 0.0805487 0.08116724 0.08136629 0.08089174 0.07992704 0.07905923 0.07879865 0.07918359 0.07996198 0.08089555
 0.08153085 0.08097461 0.07868788 0.07568134 0.07419389 0.07562218 0.0790592 0.08223785 0.08359349 0.08308759
 0.08154969 0.0799495 0.07914145 0.07956922 0.08097498 0.08265568 0.08402158 0.08475039 0.08463734 0.08369299
 0.082339 0.08122867 0.08088222 0.08153609 0.08304754 0.08475029 0.08572174 0.08550964 0.08447042 0.08330928
 0.08256241 0.08257371 0.08352211 0.08520719 0.08706759 0.0885967 0.08960709 0.0901169 0.09022182 0.09007518
 0.08981537 0.08955036 0.08946289 0.08971375 0.09013219 0.09025382 0.08983698 0.08918741 0.08884723 0.08903571
 0.08946194 0.08967726 0.08952099 0.08903682 0.08801608 0.08610007 0.08351715 0.08119665 0.07986084 0.07951956
 0.0800622 0.08156219 0.08356006 0.08484848 0.08468993 0.08381387 0.08362785 0.08469521 0.08638309 0.08777958
 0.08857739 0.08912139 0.08987164 0.09088494 0.0916862 0.09162165 0.09052841 0.08914813 0.0886336 0.08943349
 0.09085535 0.09191525 0.09237029 0.09268337 0.09320526 0.09366363 0.09340277 0.092089 0.09029403 0.08928846
 0.08999285 0.0920665 0.09408936 0.09463432 0.09328004 0.09083816 0.0886761 0.08773595 0.08816996 0.08973357
 0.09212195 0.09482314 0.09703987 0.09809387 0.09789325 0.09691253 0.09567621 0.09426995 0.09252984 0.090808
 0.09017134 0.09140279 0.0939948 0.09655493 0.09809053 0.0985562 0.09828475 0.09731464 0.09548467 0.09313545
 0.09141887 0.09144178 0.093005 0.09465862 0.09524398 0.09497583 0.09477792 0.09502326 0.09533459 0.09535813
 0.09529296 0.09560768 0.09644137 0.09742442 0.09806789 0.09821077 0.09805518 0.09788142 0.0977826 0.09760911
 0.09720013 0.09674273 0.09675853 0.09755357 0.09880738 0.09989619 0.1005081 0.1007657 0.1008467 0.1006805
 0.1000684 0.09907496 0.09821352 0.09808245 0.0987843 0.09984818 0.1007282 0.1012091 0.1013545 0.1012999
 0.1011602 0.1009997 0.1008519 0.1007982 0.1009497 0.1012971 0.1016715 0.1019128 0.1020003 0.1019874
 0.1018945 0.1017136 0.1014785 0.101286 0.1012357 0.1013519 0.1015767 0.1018291 0.1020412 0.1021512
 0.1021255 0.1020003 0.1018582 0.1017551 0.1016996 0.1016947 0.1017548 0.1018741 0.1020081 0.1021052
 0.1021475 0.102149 0.1021248 0.1020795 0.102021 0.101971 0.1019565 0.101994 0.1020728 0.1021593
 0.102235 0.1023208 0.1024349 0.1025402 0.1025761 0.1025365 0.102481 0.102469 0.1025113 0.1025821
 0.1026482 0.1026805 0.1026549 0.1025698 0.1024693 0.1024313 0.1025082 0.1026894 0.1029271 0.1031761
 0.103397 0.1035566 0.1036543 0.1037234 0.1037905 0.103852 0.1038974 0.1039388 0.1040105 0.1041426
 0.1043308 0.1045344 0.1047094 0.1048378 0.1049267 0.1050008 0.1050982 0.1052392 0.1053879 0.1054824
 0.1055144 0.1055452 0.10563 0.1057529 0.1058542 0.1059019 0.1059216 0.1059606 0.1060384 0.1061366
 0.1062291 0.1063137 0.1064098 0.1065293 0.1066488 0.1067178 0.106707 0.1066449 0.1065913 0.106579
 0.1065982 0.1066332 0.1066872 0.1067626 0.1068393 0.1068865 0.1068934 0.106881 0.1068773 0.106885
 0.1068799 0.1068418 0.1067777 0.1067129 0.1066664 0.106639 0.1066176 0.1065862 0.1065357 0.1064668
 0.1063862 0.1062997 0.1062078 0.106112 0.1060288 0.1059879 0.1059959 0.106007 0.1059492 0.105793
 0.1055824 0.1053916 0.1052587 0.1051653 0.1050689 0.104943 0.104792 0.1046381 0.1045013 0.1043871
 0.1042871 0.1041898 0.1040969 0.1040279 0.1040005 0.1040023 0.1039896 0.1039274 0.1038257 0.1037253
 0.1036565 0.1036191 0.103597 0.1035773 0.1035589 0.1035537 0.1035739 0.1036123 0.1036448 0.1036584
 0.1036672 0.1036955 0.1037573 0.1038533 0.10397 0.1040784 0.1041533 0.1042013 0.1042566 0.1043449
 0.1044623 0.1045924 0.1047298 0.1048792 0.1050408 0.1052105 0.1053899 0.1055885 0.1058136 0.1060611
 0.1063162 0.1065631 0.1067967 0.1070289 0.1072813 0.1075669 0.1078795 0.1081989 0.1085081 0.1088049
 0.1091001 0.1094032 0.1097123 0.1100223 0.110339 0.1106757 0.1110344 0.1113999 0.1117565 0.1121035
 0.1124502 0.112803 0.1131606 0.1135221 0.1138958 0.1142929 0.114708 0.1151104 0.115468 0.1157802
 0.1160804 0.1164045 0.1167637 0.1171411 0.1175059 0.1178339 0.1181286 0.1184196 0.1187321 0.1190617
 0.1193889 0.1197144 0.1200637 0.1204516 0.1208513 0.1212115 0.1215041 0.1217521 0.1220023 0.1222753
 0.12255 0.1227981 0.123022 0.123248 0.1234915 0.1237442 0.1239978 0.1242616 0.1245456 0.1248357
 0.1251044 0.1253403 0.125556 0.1257644 0.1259615 0.126133 0.1262718 0.1263886 0.126507 0.1266455
 0.126801 0.1269564 0.1271053 0.1272604 0.1274351 0.1276299 0.1278437 0.1280841 0.1283535 0.1286346
 0.1289066 0.1291758 0.1294691 0.1297903 0.1301007 0.1303595 0.1305708 0.1307713 0.1309838 0.1312063
 0.1314412 0.1317062 0.1320094 0.1323332 0.1326477 0.1329362 0.1332079 0.1334897 0.133798 0.1341134
 0.1343917 0.1346067 0.1347761 0.1349439 0.1351426 0.1353752 0.1356227 0.1358618 0.1360771 0.1362579
 0.1363857 0.1364382 0.1364107 0.1363227 0.1361898 0.1359948 0.1356939 0.1352488 0.1346421 0.1338642
 0.1328992 0.1317367 0.1304006 0.1289676 0.1275587 0.1263058 0.1253172 0.1246598 0.1243587 0.1243998
 0.1247285 0.1252495 0.1258323 0.1263273 0.1265896 0.1265077 0.1260283 0.1251611 0.1239631 0.1225184
 0.1209229 0.1192681 0.1176318 0.1160924 0.1147641 0.113809 0.1133992 0.1136581 0.1146229 0.1162339
 0.118331 0.1206714 0.1229933 0.1251027 0.1269208 0.1284636 0.1297881 0.1309546 0.1320138 0.1330015
 0.1339372 0.1348325 0.1357006 0.1365514 0.1373779 0.1381542 0.1388455 0.1394165 0.1398365 0.1400896
 0.1401877 0.1401719 0.1401033 0.1400433 0.140019 0.1399898 0.1398537 0.1395017 0.1388831 0.1380371
 0.1370883 0.1362319 0.1357172 0.1358143 0.136736 0.1385291 0.1410107 0.143829 0.1466168 0.1491201
 0.1512266 0.1529311 0.154292 0.155393 0.1563083 0.157089 0.157771 0.1583838 0.1589498 0.1594836
 0.1599945 0.1604893 0.1609732 0.1614487 0.1619124 0.1623563 0.1627796 0.1631989 0.16364 0.1641179
 0.1646235 0.1651326 0.165627 0.1661074 0.1665822 0.167049 0.1674947 0.1679138 0.1683163 0.1687182
 0.1691292 0.1695502 0.1699722 0.1703795 0.1707608 0.1711186 0.1714641 0.1718042 0.1721391 0.172469
 0.1727962 0.1731212 0.1734418 0.1737566 0.1740673 0.1743751 0.1746777 0.1749682 0.1752425 0.1755051
 0.1757657 0.176031 0.1763013 0.1765735 0.1768475 0.177128 0.1774218 0.1777288 0.1780375 0.1783329
 0.178609 0.1788729 0.179137 0.1794093 0.1796899 0.1799734 0.1802548 0.1805329 0.1808101 0.1810877
 0.1813639 0.1816346 0.1818956 0.1821475 0.1823987 0.1826633 0.1829508 0.1832582 0.1835725 0.1838823
 0.1841841 0.1844787 0.1847633 0.1850321 0.185284 0.1855255 0.1857662 0.1860139 0.1862718 0.1865372
 0.1868041 0.1870683 0.1873306 0.1875938 0.1878597 0.1881279 0.1883967 0.1886642 0.1889305 0.1891962
 0.1894605 0.189722 0.1899811 0.1902389 0.1904953 0.1907503 0.191005 0.1912622 0.1915233 0.1917858
 0.1920444 0.1922964 0.192546 0.1927999 0.1930597 0.1933204 0.1935775 0.1938315 0.1940859 0.1943427
 0.1946006 0.1948568 0.1951112 0.1953673 0.1956267 0.1958871 0.196145 0.1963994 0.1966519 0.1969058
 0.1971636 0.1974245 0.1976868 0.1979501 0.1982145 0.198478 0.1987393 0.1989986 0.1992564 0.1995133
 0.1997719 0.2000349 0.2003022 0.2005709 0.2008393 0.2011062 0.2013725 0.2016404 0.2019087 0.2021728
 0.2024317 0.2026902 0.2029513 0.2032129 0.2034744 0.2037379 0.2040059 0.2042786 0.2045548 0.204831
 0.2051053 0.20538 0.2056554 0.2059263 0.206188 0.2064418 0.2066903 0.2069332 0.2071709 0.2074064
 0.2076432 0.2078842 0.2081311 0.208382 0.2086351 0.2088918 0.2091526 0.2094153 0.2096798 0.2099486
 0.2102202 0.2104919 0.2107654 0.2110424 0.2113195 0.2115946 0.21187 0.2121466 0.2124232 0.2127009
 0.2129804 0.2132593 0.2135367 0.213814 0.2140902 0.214365 0.2146431 0.2149279 0.2152166 0.2155071
 0.2157984 0.2160855 0.2163663 0.2166464 0.2169302 0.2172151 0.2175012 0.2177924 0.2180864 0.2183769
 0.2186622 0.2189416 0.2192138 0.2194863 0.2197707 0.2200667 0.2203665 0.2206681 0.2209707 0.2212703
 0.221567 0.2218621 0.2221492 0.2224246 0.2226968 0.2229726 0.223249 0.2235268 0.2238085 0.2240831
 0.2243246 0.2244802 0.2244126 0.2238335 0.2222637 0.2190394 0.2134364 0.2049542 0.1936122 0.180046
 0.1653371 0.1506755 0.1370314 0.1250156 0.1149535 0.1070142 0.1013008 0.09792732 0.09708144 0.09911548
 0.1046677 0.1142802 0.1270035 0.1392021 0.145924 0.1446518 0.1375821 0.1296323 0.1244429 0.1226013
 0.122882 0.1240714 0.1256837 0.1278285 0.1307964 0.1346279 0.1390683 0.1439857 0.1496134 0.1561865
 0.1634764 0.1708748 0.1779004 0.1845062 0.1909018 0.1971812 0.203177 0.2086194 0.2133467 0.2173613
 0.2207719 0.223722 0.2263357 0.2286959 0.2308622 0.2328724 0.2346959 0.2362161 0.2373016 0.2379131
 0.2381496 0.2382012 0.2382449 0.23837 0.2385872 0.2388841 0.2392505 0.239677 0.2401567 0.240685
 0.241247 0.2418205 0.2423916 0.2429539 0.2434986 0.2440188 0.2445163 0.2449926 0.2454451 0.2458744
 0.2462859 0.2466829 0.2470683 0.247447 0.2478222 0.2481951 0.2485676 0.2489374 0.2492947 0.2496315
 0.2499478 0.2502457 0.2505278 0.2507997 0.251067 0.2513304 0.2515911 0.2518528 0.2521163 0.2523793
 0.2526413 0.2529024 0.2531602 0.2534134 0.2536651 0.2539171 0.2541688 0.2544197 0.2546678 0.2549103
 0.2551498 0.2553935 0.2556441 0.2558972 0.2561479 0.2563951 0.2566426 0.2568997 0.2571746 0.2574629
 0.2577534 0.2580405 0.2583263 0.2586127 0.2588998 0.2591885 0.2594782 0.2597676 0.2600586 0.2603514
 0.2606369 0.2609029 0.2611468 0.2613783 0.2616135 0.2618634 0.2621267 0.2623923 0.2626517 0.2629061
 0.2631599 0.2634144 0.2636703 0.2639291 0.2641928 0.2644661 0.2647533 0.2650511 0.2653505 0.2656482
 0.2659477 0.2662507 0.2665562 0.2668657 0.2671784 0.267486 0.2677797 0.2680644 0.2683591 0.2686825
 0.2690358 0.2693994 0.2697501 0.2700821 0.2704069 0.2707388 0.2710852 0.2714384 0.2717699 0.2720485
 0.2722832 0.2725323 0.2728527 0.2732476 0.2736718 0.2740776 0.2744472 0.2747895 0.2751191 0.2754389
 0.2757394 0.2760099 0.2762585 0.2765232 0.2768492 0.277242 0.2776568 0.2780435 0.2783879 0.2787012
 0.2789972 0.2792885 0.2795719 0.2798073 0.2799588 0.280077 0.2802921 0.2806895 0.2812128 0.2817216
 0.2821316 0.2824664 0.282784 0.2831037 0.2834147 0.2836894 0.2838506 0.2838093 0.2836239 0.2835559
 0.2838563 0.2845122 0.2852772 0.2859236 0.2863923 0.2867408 0.2870419 0.2873347 0.2875989 0.2877569
 0.2877556 0.287684 0.2877583 0.2881253 0.2886977 0.2892508 0.2896593 0.28997 0.2902744 0.2906044
 0.2909161 0.2910721 0.2909021 0.2904333 0.2900426 0.2902129 0.2910676 0.2922314 0.2932047 0.2938066
 0.2941828 0.2944588 0.2945538 0.2943324 0.2937746 0.2929839 0.2922325 0.2920018 0.2926664 0.2940129
 0.2953316 0.2961293 0.2965518 0.2970175 0.2976735 0.2983371 0.2987885 0.2989666 0.2989316 0.2987341
 0.2983888 0.2980222 0.2979649 0.2985181 0.2996038 0.3007807 0.3016584 0.3022043 0.3025705 0.3026452
 0.301936 0.3001557 0.2979916 0.296932 0.2979444 0.3004575 0.302978 0.304565 0.3053446 0.3058127
 0.30619 0.3063568 0.3058448 0.3039954 0.3008579 0.2979694 0.29742 0.2997947 0.3035167 0.3063711
 0.3071916 0.3061022 0.3039615 0.3019655 0.3012172 0.3021277 0.3042473 0.3067224 0.3088081 0.3100722
 0.3104224 0.310061 0.3094016 0.3089607 0.3090327 0.3092475 0.3088024 0.3075072 0.3061526 0.3052912
 0.3042206 0.3021299 0.2999088 0.299593 0.3018478 0.3050051 0.3069961 0.3074685 0.307417 0.307185
 0.3056448 0.3016862 0.2962729 0.29242 0.2926092 0.2963058 0.3004875 0.3026157 0.3026427 0.3021439
 0.302106 0.3018869 0.3001731 0.2968381 0.2936678 0.29276 0.2941665 0.2958089 0.2957814 0.2936936
 0.2896659 0.2838385 0.2779403 0.2756112 0.2791851 0.2867705 0.2939136 0.2974325 0.296407 0.2908555
 0.2820619 0.2739504 0.2713189 0.275416 0.2824832 0.287393 0.2876909 0.2836983 0.2764214 0.2671081
 0.258328 0.2536535 0.2553791 0.2626712 0.2717373 0.277477 0.2760865 0.2681022 0.2591451 0.2556924
 0.2589953 0.2642604 0.2662864 0.2643556 0.2611516 0.2590978 0.259016 0.26059 0.2627276 0.2644187
 0.2655128 0.2653022 0.2610962 0.2512187 0.2394716 0.2331155 0.2353783 0.2428571 0.2510402 0.258826
 0.2659978 0.2699862 0.268604 0.2643815 0.2629452 0.2670184 0.2738374 0.2786906 0.2797078 0.2786174
 0.2776079 0.2767129 0.2749123 0.2729706 0.2734683 0.2775802 0.2832264 0.287327 0.2888893 0.2890049
 0.2887827 0.288416 0.2877551 0.286769 0.285504 0.2840999 0.2827721 0.281566 0.2803121 0.2789117
 0.2772714 0.274711 0.2700554 0.2632442 0.2566493 0.2534698 0.2544448 0.2574139 0.2603737 0.2628816
 0.2635528 0.2590544 0.2483951 0.2367373 0.2318338 0.2365444 0.246566 0.2552604 0.2588924 0.2570923
 0.2506298 0.2410793 0.23241 0.2303047 0.2378542 0.252422 0.2680407 0.2804326 0.2886509 0.2928759
 0.292884 0.2892072 0.2844213 0.2821207 0.2844759 0.290829 0.2982144 0.3027335 0.3012518 0.2939939
 0.2862775 0.2852885 0.2929356 0.3032987 0.3091628 0.3095781 0.3087848 0.309494 0.3105642 0.310729
 0.311207 0.3136101 0.3172505 0.3196928 0.3189234 0.3142054 0.3060543 0.2967657 0.2900384 0.2881269
 0.2895159 0.290853 0.290503 0.2884207 0.2839031 0.2767697 0.2703669 0.2697091 0.2757042 0.2837976
 0.2891856 0.2913088 0.2924034 0.2934447 0.2929692 0.2895081 0.284197 0.2802971 0.2800038 0.2823771
 0.2848917 0.2861602 0.2861602 0.2846827 0.2813554 0.2773252 0.275387 0.2775207 0.2827969 0.2883016
 0.2918213 0.2931872 0.2934224 0.2934071 0.2934062 0.2932358 0.2927031 0.2922287 0.2928772 0.2952155
 0.298308 0.3005558 0.301528 0.3023056 0.3039436 0.3061844 0.307908 0.3084617 0.3082985 0.3084829
 0.3097267 0.3117856 0.3136286 0.3142627 0.3136261 0.3127674 0.3129951 0.3147362 0.3172796 0.3195959
 0.3211988 0.3222114 0.3229043 0.323364 0.3235074 0.3233272 0.3231582 0.3236263 0.3251477 0.3274567
 0.3297582 0.3313762 0.3321881 0.3324718 0.3324876 0.3322833 0.3318242 0.3311908 0.3305919 0.3302064
 0.3300537 0.3300256 0.3300046 0.3299376 0.3298366 0.3297533 0.3297439 0.3298281 0.3299779 0.3301499
 0.3303009 0.330364 0.3302527 0.3299213 0.3294016 0.3287649 0.3280833 0.3274503 0.3269857 0.3267547
 0.3266697 0.3265015 0.3259909 0.3249491 0.3232991 0.3211395 0.3188558 0.3171291 0.3166713 0.3177992
 0.3202017 0.3231232 0.3258013 0.3277994 0.329046 0.3296791 0.3298963 0.3298864 0.3297926 0.3296766
 0.3295293 0.3293414 0.3291508 0.3290101 0.3289291 0.3288685 0.3287818 0.3286458 0.328457 0.3282132
 0.3279032 0.3275122 0.3270343 0.3264765 0.3258485 0.3251485 0.3243562 0.3234483 0.3224274 0.3213375
 0.3202442 0.3191956 0.3181973 0.3172215 0.3162349 0.3152071 0.3140832 0.3127775 0.3112531 0.3096253
 0.3081287 0.3069259 0.3059617 0.3050341 0.3039768 0.302742 0.301352 0.2998388 0.2982286 0.2965328
 0.2947283 0.2927488 0.2905081 0.2879637 0.2851971 0.2824229 0.2798767 0.2776781 0.2758048 0.2741583
 0.2725942 0.2708962 0.2687863 0.2660042 0.2623714 0.2577865 0.2522094 0.2457036 0.2385093 0.2310333
 0.2237168 0.216888 0.210736 0.2053949 0.2010051 0.1976897 0.1955132 0.1944813 0.194556 0.1956512
 0.1976354 0.2003605 0.2036884 0.2074836 0.2115916 0.2158363 0.2200359 0.2240259 0.227695 0.2310241
 0.2340811 0.2369463 0.2396368 0.242104 0.2442928 0.246181 0.2477633 0.2490166 0.2499003 0.2504104
 0.2506587 0.2508866 0.2513479 0.25213 0.253092 0.253994 0.2546825 0.2551552 0.2554926 0.2557707
 0.2560323 0.2562989 0.2565871 0.2569197 0.2573255 0.2578284 0.2584339 0.2591261 0.2598777 0.2606661
 0.2614908 0.2623778 0.263369 0.2645059 0.2658175 0.2673134 0.2689808 0.2707833 0.2726544 0.2744931
 0.2761773 0.2775997 0.2786986 0.279467 0.2799375 0.2801557 0.2801592 0.2799722 0.2796115 0.2790954
 0.2784491 0.2777049 0.2768902 0.276015 0.2750714 0.274048 0.2729435 0.2717646 0.2705074 0.2691548
 0.2677197 0.266293 0.2650107 0.2639524 0.2630841 0.2623101 0.2615561 0.2607945 0.2600259 0.2592672
 0.2585486 0.2578957 0.2572979 0.2566944 0.2559981 0.255138 0.2540824 0.2528313 0.2514014 0.2498177
 0.2481066 0.2462888 0.2443759 0.2423694 0.2402643 0.2380592 0.2357585 0.2333637 0.2308866 0.2283795
 0.2259353 0.2236397 0.2215305 0.2195957 0.217795 0.2160854 0.2144434 0.2128638 0.2113429 0.2098757
 0.2084668 0.2071275 0.2058653 0.2046833 0.2035861 0.2025779 0.2016673 0.2008688 0.2001899 0.1996174
 0.1991238 0.1986842 0.1982968 0.1979957 0.197826 0.1977865 0.197805 0.1977827 0.1976506 0.1973884
 0.1970094 0.1965357 0.1959926 0.1954503 0.1950521 0.1949362 0.19509 0.1952987 0.1952479 0.1946812
 0.1935024 0.1917799 0.1896792 0.1873909 0.1851029 0.1829839 0.1811539 0.1796685 0.1785266 0.177672
 0.1770091 0.1764644 0.1760389 0.1757982 0.1758197 0.176114 0.1765538 0.1769202 0.177095 0.1771945
 0.1774664 0.1780727 0.178988 0.1800548 0.1810974 0.1820082 0.1827547 0.1833312 0.1837384 0.183999
 0.1841442 0.1841842 0.1841149 0.183935 0.183639 0.1832278 0.1827263 0.1821532 0.1814921 0.180724
 0.1798557 0.1788962 0.1778462 0.1767056 0.1754458 0.1740161 0.1724582 0.1709942 0.1699404 0.1695327
 0.1698056 0.1705832 0.171602 0.1726841 0.1737561 0.1747226 0.1754743 0.1760902 0.1769175 0.178337
 0.1804318 0.1828893 0.1852194 0.1870686 0.1883243 0.1889911 0.1890971 0.1887029 0.1878564 0.1865406
 0.1847661 0.1826561 0.1803654 0.1780197 0.1757642 0.173733 0.1719749 0.1705007 0.1693155 0.1684164
 0.1678677 0.1674006 0.16544 0.1596514 0.15025 0.1421546 0.1412786 0.1481584 0.1572104 0.1627267
 0.1637288 0.1626152 0.1613854 0.1604695 0.1597792 0.1593679 0.1592819 0.1594241 0.1595924 0.1595711
 0.1592644 0.1586833 0.1576949 0.1557878 0.1520641 0.1455646 0.1359798 0.1242974 0.1125833 0.102888
 0.0962369 0.09241593 0.0904146 0.08912939 0.08799952 0.0871972 0.08724767 0.08849488 0.09091032 0.09425656
 0.09825839 0.1025807 0.1067692 0.1103812 0.1132164 0.11534 0.1168777 0.1178812 0.1183813 0.1184466
 0.1181561 0.1175812 0.1167896 0.1158112 0.114616 0.1131804 0.1115889 0.1100609 0.1088515 0.1080887
 0.1077007 0.1075195 0.1074314 0.1074058 0.1074362 0.1075133 0.1076309 0.1077888 0.1080004 0.1082907
 0.1086535 0.1090253 0.1093274 0.1095198 0.1096035 0.1095872 0.1094555 0.1091816 0.1087959 0.108402
 0.108037 0.1075385 0.1066717 0.1054249 0.1041174 0.103192 0.1029093 0.1031962 0.1037282 0.1041709
 0.1043885 0.1044565 0.1044922 0.1044873</values></Ydata></ScSm><ScRf><Ydata ylabel="Single channel"><values byteorder="INTEL" format="FLOAT32" numvalues="1820"> 0.06971768 0.06985043 0.06996896 0.07007052 0.07015977 0.07024936 0.07035257 0.07047436 0.07060982 0.07074759
 0.07087566 0.07098846 0.0710877 0.07117426 0.07124869 0.07132288 0.07141891 0.07154725 0.07169336 0.07182929
 0.07193572 0.07201791 0.07210431 0.07221879 0.07234577 0.07243332 0.07244219 0.07238956 0.07233767 0.07233854
 0.0724006 0.07252163 0.07272395 0.07300001 0.07323544 0.07328244 0.07314539 0.07300869 0.07303278 0.07319367
 0.07335733 0.0734283 0.07338701 0.07327858 0.07323406 0.07342939 0.07392517 0.07453544 0.07488565 0.07463052
 0.07368529 0.07234833 0.07122777 0.07092326 0.071593 0.07277557 0.07373559 0.07405743 0.0738693 0.07352424
 0.07323228 0.07305939 0.07309398 0.07343104 0.07401662 0.07458465 0.07476315 0.07432159 0.07343358 0.07264024
 0.07240713 0.07276449 0.07347859 0.07433265 0.07491368 0.0744018 0.07229939 0.06953381 0.06816516 0.06948045
 0.07264529 0.07557161 0.076819 0.07635377 0.07494089 0.07347168 0.07272992 0.07312319 0.07441628 0.07596519
 0.07722846 0.07790798 0.07781178 0.07694659 0.07570001 0.07467557 0.07435498 0.07495721 0.07635107 0.0779223
 0.07881939 0.07862337 0.07766163 0.07658567 0.07589202 0.07589784 0.07676671 0.07831457 0.08002819 0.08144388
 0.08238541 0.08286156 0.08295764 0.08282191 0.08259113 0.08236471 0.08230075 0.08253726 0.08291575 0.0830155
 0.08262216 0.08202149 0.08171252 0.0818941 0.08229402 0.08249588 0.08235118 0.08190194 0.08095779 0.0791893
 0.07680814 0.07467158 0.07344506 0.07313711 0.07364554 0.07503726 0.07688686 0.07808012 0.07793693 0.0771291
 0.07695334 0.07793059 0.0794815 0.08076847 0.08150797 0.08201542 0.0827125 0.08364961 0.08438757 0.08432446
 0.08331374 0.08204369 0.08157849 0.08232838 0.08365014 0.08463387 0.08505511 0.08534143 0.08581898 0.08624086
 0.08600459 0.08480045 0.08315228 0.08222985 0.08288266 0.08479916 0.08667239 0.08718531 0.08594492 0.08369663
 0.08170296 0.08083652 0.08124113 0.08269413 0.08491571 0.08743052 0.08949549 0.0904783 0.09029367 0.08938465
 0.08824123 0.08694462 0.0853422 0.08375951 0.08318562 0.08434638 0.08676977 0.08916213 0.09060066 0.09104303
 0.09080072 0.08991452 0.08823828 0.08608656 0.08452287 0.08456975 0.08604144 0.08759359 0.08815156 0.08791501
 0.08774343 0.08798696 0.08829787 0.08834587 0.08831103 0.08862577 0.08942062 0.09035504 0.09097519 0.09113003
 0.09100746 0.090869 0.09080066 0.09066171 0.09030342 0.08990334 0.08994815 0.09071952 0.09191427 0.09294906
 0.09353469 0.09378906 0.09388087 0.09374431 0.09319182 0.09228285 0.09149848 0.0913987 0.0920783 0.0930953
 0.09393904 0.09440988 0.09456851 0.09454114 0.09443444 0.09430978 0.09419911 0.09417519 0.09433807 0.09468048
 0.09505027 0.09529974 0.09540494 0.09541111 0.09533814 0.09518527 0.09499218 0.09485233 0.09485191 0.09499998
 0.09523316 0.09547898 0.09568433 0.09579949 0.09579521 0.09570523 0.09560534 0.09554243 0.09551685 0.09552811
 0.0955949 0.09571967 0.09586354 0.09597538 0.09603506 0.09605539 0.09605151 0.09602676 0.09598787 0.09595677
 0.09596157 0.09601715 0.09611049 0.0962092 0.09629914 0.09640212 0.09653223 0.09665017 0.09669833 0.09667458
 0.09663727 0.0966417 0.09669776 0.09678266 0.09686674 0.09692118 0.09691992 0.09685841 0.09677857 0.09675629
 0.0968435 0.09703018 0.09727009 0.09751916 0.09773836 0.0978964 0.09799545 0.09807158 0.09815282 0.09823385
 0.09829888 0.09835349 0.09842835 0.09855628 0.09874084 0.09894741 0.09913191 0.09927309 0.09937562 0.09946301
 0.09957133 0.09971914 0.09987315 0.0999763 0.1000216 0.1000666 0.1001616 0.1002899 0.1003945 0.100447
 0.1004735 0.1005203 0.1006062 0.1007131 0.1008147 0.1009065 0.1010064 0.1011271 0.1012486 0.1013244
 0.101327 0.1012827 0.101247 0.1012483 0.1012756 0.1013161 0.1013767 0.1014609 0.1015442 0.1015905
 0.1015906 0.1015741 0.1015756 0.1015957 0.1016033 0.1015739 0.1015156 0.1014572 0.1014211 0.1014096
 0.1014083 0.1013967 0.1013626 0.1013075 0.1012409 0.1011698 0.1010947 0.1010187 0.1009604 0.1009484
 0.1009843 0.1010166 0.1009712 0.1008205 0.1006133 0.1004291 0.1003089 0.1002321 0.1001486 0.1000261
 0.09987015 0.09970888 0.09956518 0.09944247 0.09933046 0.0992204 0.09911779 0.09904157 0.09900407 0.09898673
 0.098945 0.09884849 0.09871183 0.09857819 0.0984782 0.0984129 0.09836747 0.09832862 0.09829437 0.0982754
 0.09828115 0.09830012 0.09830523 0.09828523 0.09825975 0.0982593 0.09830191 0.09838784 0.09849834 0.09859744
 0.09865567 0.09868048 0.09871082 0.09877625 0.09887297 0.09898159 0.09909381 0.09921476 0.09934945 0.09949768
 0.09965967 0.09983949 0.100041 0.1002622 0.1004928 0.1007199 0.1009371 0.1011523 0.1013822 0.101638
 0.1019148 0.1021969 0.1024718 0.1027385 0.1030032 0.1032711 0.103543 0.1038217 0.1041145 0.104427
 0.1047532 0.1050797 0.1053981 0.105711 0.106025 0.106342 0.1066604 0.1069831 0.1073217 0.1076869
 0.1080699 0.1084385 0.1087624 0.109044 0.109316 0.1096121 0.1099425 0.110291 0.1106256 0.1109191
 0.1111759 0.1114316 0.1117178 0.1120294 0.1123408 0.1126461 0.1129699 0.1133307 0.1137059 0.1140433
 0.1143092 0.1145231 0.1147366 0.1149799 0.1152369 0.1154757 0.1156908 0.1159014 0.1161206 0.1163455
 0.1165771 0.1168289 0.1171056 0.1173861 0.1176412 0.1178635 0.1180674 0.1182651 0.1184501 0.1186057
 0.1187225 0.1188128 0.1189079 0.1190328 0.1191824 0.1193306 0.1194649 0.1195994 0.119753 0.1199305
 0.1201305 0.1203562 0.1206056 0.1208614 0.1211078 0.1213557 0.1216319 0.1219363 0.1222273 0.1224646
 0.1226555 0.1228398 0.1230402 0.123252 0.1234752 0.1237263 0.1240148 0.1243241 0.1246252 0.1249026
 0.1251669 0.1254461 0.1257551 0.1260717 0.1263496 0.1265648 0.1267397 0.1269206 0.1271394 0.1273983
 0.12768 0.1279638 0.1282353 0.1284829 0.1286896 0.1288382 0.1289316 0.1289959 0.1290509 0.1290824
 0.129052 0.1289297 0.1287064 0.1283771 0.1279287 0.127354 0.1266767 0.1259623 0.1253043 0.1247955
 0.1245033 0.1244614 0.1246703 0.1250977 0.1256754 0.1263104 0.1269069 0.1273803 0.1276592 0.1276906
 0.1274576 0.1269891 0.126345 0.1255902 0.1247808 0.1239603 0.1231606 0.12242 0.1218122 0.1214559
 0.1214816 0.1219812 0.1229737 0.1243869 0.1260573 0.1277698 0.129342 0.1306923 0.1318358 0.1328275
 0.1337155 0.1345342 0.1353091 0.1360521 0.1367578 0.1374171 0.1380334 0.1386164 0.1391644 0.1396602
 0.140082 0.1404147 0.1406547 0.1408128 0.1409098 0.1409642 0.1409865 0.1409885 0.1409797 0.1409473
 0.1408467 0.1406259 0.1402606 0.1397712 0.1392275 0.1387521 0.1385123 0.1386788 0.1393521 0.1404985
 0.1419528 0.1434968 0.1449508 0.1462114 0.147239 0.1480421 0.148668 0.14918 0.1496279 0.1500377
 0.1504226 0.1507923 0.1511526 0.1515042 0.1518461 0.1521808 0.1525168 0.1528616 0.153212 0.1535554
 0.1538834 0.1542029 0.1545308 0.1548777 0.1552371 0.1555919 0.1559327 0.1562678 0.1566093 0.1569545
 0.1572888 0.1576049 0.1579119 0.1582249 0.1585539 0.1588978 0.1592447 0.1595763 0.1598815 0.160166
 0.1604453 0.1607295 0.1610176 0.161304 0.1615871 0.1618685 0.1621493 0.1624297 0.1627104 0.1629914
 0.1632683 0.1635333 0.1637836 0.1640271 0.1642759 0.164535 0.1647993 0.1650603 0.1653141 0.1655644
 0.1658202 0.1660873 0.1663614 0.1666299 0.1668824 0.1671198 0.1673526 0.1675921 0.1678428 0.1681011
 0.16836 0.1686156 0.1688689 0.1691223 0.1693761 0.1696288 0.1698789 0.1701268 0.1703729 0.1706176
 0.1708603 0.1711009 0.1713405 0.1715817 0.1718277 0.1720794 0.1723326 0.172581 0.172821 0.1730539
 0.173284 0.1735157 0.1737513 0.1739898 0.1742277 0.1744627 0.1746972 0.1749354 0.1751793 0.175426
 0.1756708 0.1759124 0.1761529 0.176394 0.1766345 0.176874 0.1771131 0.1773506 0.1775839 0.177814
 0.1780457 0.178283 0.1785255 0.1787709 0.1790156 0.1792557 0.1794897 0.1797201 0.1799509 0.1801839
 0.1804184 0.1806519 0.1808829 0.1811135 0.1813471 0.181585 0.1818245 0.1820617 0.1822952 0.182527
 0.1827606 0.1829967 0.1832322 0.1834654 0.1836971 0.1839285 0.1841604 0.1843943 0.1846312 0.1848692
 0.1851067 0.1853451 0.1855847 0.1858224 0.1860559 0.1862869 0.1865191 0.1867559 0.186998 0.1872428
 0.1874882 0.1877353 0.1879848 0.1882333 0.1884784 0.1887222 0.1889675 0.1892149 0.1894653 0.1897192
 0.1899747 0.190229 0.190482 0.1907346 0.190988 0.1912435 0.1914999 0.1917529 0.1919985 0.1922357
 0.1924634 0.1926818 0.1928958 0.1931121 0.1933339 0.193562 0.1937955 0.19403 0.1942624 0.1944949
 0.1947313 0.1949717 0.1952155 0.1954636 0.1957155 0.1959686 0.1962215 0.1964718 0.1967162 0.1969572
 0.1972013 0.1974512 0.1977058 0.1979665 0.1982336 0.1985029 0.198771 0.1990379 0.1993018 0.1995619
 0.1998233 0.2000891 0.2003547 0.2006167 0.2008786 0.2011448 0.2014163 0.2016927 0.2019701 0.2022415
 0.202507 0.2027713 0.2030343 0.2032931 0.2035509 0.2038119 0.2040761 0.204345 0.2046204 0.2048974
 0.2051723 0.2054493 0.2057301 0.2060084 0.2062825 0.2065567 0.2068317 0.2071063 0.2073822 0.2076559
 0.2079193 0.208175 0.2084298 0.2086766 0.2088935 0.2090342 0.208973 0.2084402 0.2069861 0.2039889
 0.1987731 0.1908725 0.1803056 0.1676647 0.1539578 0.1402946 0.1275804 0.1163863 0.1070171 0.0996296
 0.09431579 0.09117759 0.09038854 0.09227926 0.09744723 0.1063989 0.1182508 0.1296166 0.1358824 0.1347
 0.1281126 0.1207021 0.1158638 0.1141466 0.1144083 0.1155188 0.1170283 0.1190401 0.12182 0.1253981
 0.1295335 0.1341064 0.1393415 0.1454644 0.1522637 0.1591684 0.1657245 0.171886 0.1778486 0.1837002
 0.1892849 0.1943539 0.1987596 0.2025041 0.2056859 0.2084381 0.2108785 0.2130865 0.2151169 0.2170015
 0.2187099 0.2201345 0.2211551 0.2217352 0.2219655 0.2220204 0.2220624 0.222173 0.2223657 0.2226362
 0.2229808 0.2233879 0.2238431 0.2243366 0.2248573 0.2253918 0.2259319 0.2264701 0.2269924 0.2274895
 0.2279624 0.228413 0.2288395 0.2292445 0.2296325 0.2300048 0.2303645 0.2307197 0.2310744 0.2314262
 0.2317743 0.2321166 0.232444 0.2327485 0.2330323 0.2333044 0.2335724 0.2338404 0.2341066 0.2343647
 0.2346125 0.2348559 0.2351012 0.2353503 0.2356013 0.2358492 0.2360885 0.2363208 0.2365531 0.2367882
 0.2370245 0.2372633 0.237507 0.2377532 0.2379972 0.2382384 0.238478 0.2387165 0.2389537 0.2391905
 0.2394315 0.239684 0.2399483 0.2402131 0.2404686 0.2407195 0.2409781 0.2412497 0.2415323 0.241821
 0.2421088 0.2423884 0.2426602 0.2429289 0.2431928 0.2434432 0.2436746 0.2438924 0.2441103 0.2443389
 0.2445769 0.2448144 0.2450471 0.2452815 0.245525 0.2457781 0.2460363 0.2462936 0.2465469 0.2468014
 0.2470679 0.2473489 0.2476351 0.247918 0.248197 0.2484757 0.248758 0.2490483 0.249346 0.2496401
 0.2499186 0.2501856 0.2504627 0.2507713 0.2511117 0.2514611 0.2517942 0.252106 0.2524085 0.2527158
 0.2530355 0.2533616 0.253668 0.2539263 0.2541477 0.2543899 0.2547056 0.2550914 0.2554977 0.2558795
 0.2562265 0.2565524 0.2568691 0.2571748 0.2574581 0.2577107 0.2579438 0.2581953 0.2585075 0.2588833
 0.2592772 0.2596419 0.259967 0.2602658 0.2605495 0.2608263 0.2610906 0.2613065 0.2614434 0.2615495
 0.2617466 0.2621157 0.2626072 0.2630931 0.2634931 0.2638226 0.2641292 0.2644305 0.2647226 0.264984
 0.2651407 0.2651084 0.264944 0.2648947 0.2651945 0.265828 0.2665616 0.2671803 0.2676281 0.2679601
 0.268246 0.2685226 0.2687711 0.2689188 0.2689168 0.2688491 0.2689227 0.2692786 0.2698336 0.2703698
 0.2707649 0.2710625 0.2713503 0.2716579 0.2719412 0.2720723 0.2718985 0.2714533 0.2710912 0.2712575
 0.2720594 0.2731421 0.2740417 0.2745953 0.2749421 0.2751986 0.2752875 0.2750833 0.2745672 0.2738329
 0.2731309 0.2729119 0.2735312 0.2747949 0.2760396 0.2767978 0.2771986 0.2776328 0.2782438 0.2788661
 0.2792957 0.2794737 0.2794527 0.2792762 0.2789565 0.2786156 0.2785661 0.2790902 0.280112 0.2812153
 0.2820344 0.282543 0.2828895 0.282972 0.2823254 0.2806738 0.278656 0.2776651 0.2786106 0.2809632
 0.2833285 0.2848268 0.285574 0.2860298 0.2863967 0.2865634 0.2860946 0.2843723 0.2814385 0.2787321
 0.2782154 0.2804389 0.2839255 0.2866046 0.2873909 0.2864006 0.2844272 0.2825798 0.2818909 0.2827534
 0.2847531 0.2870911 0.2890668 0.2902738 0.290626 0.2903103 0.2897097 0.2893077 0.289385 0.2895994
 0.2891981 0.2879964 0.2867311 0.2859247 0.2849301 0.2829938 0.2809447 0.2806787 0.2828104 0.2857783
 0.2876546 0.2881199 0.2881058 0.2879221 0.286502 0.2828065 0.2777451 0.2741462 0.2743347 0.2778115
 0.2817492 0.2837742 0.2838443 0.2834317 0.283451 0.2832915 0.2817222 0.2786344 0.2757152 0.2749401
 0.2763571 0.278009 0.2780992 0.2762531 0.2725718 0.2671729 0.261674 0.2595046 0.262879 0.2700378
 0.2767997 0.2801689 0.2792751 0.2741317 0.2659442 0.2584064 0.2560406 0.2600262 0.2668209 0.2715881
 0.2720092 0.2683837 0.2616603 0.2530242 0.2449179 0.2407353 0.2426582 0.2498974 0.2588422 0.2646233
 0.2635995 0.256277 0.2480324 0.2450671 0.2485756 0.253957 0.256224 0.2546949 0.2519508 0.2503206
 0.2505965 0.2524747 0.2548963 0.2568828 0.2582889 0.2584074 0.254578 0.2451318 0.2337694 0.2275935
 0.229783 0.2370421 0.2449873 0.2525584 0.2595485 0.2634416 0.262094 0.2579742 0.2565759 0.2605509
 0.267187 0.2718717 0.2727727 0.2715773 0.2704315 0.2693868 0.2674685 0.2654324 0.265794 0.2696943
 0.2751077 0.2790385 0.280524 0.2806291 0.2804337 0.2801251 0.2795568 0.2786967 0.2775872 0.2763631
 0.275242 0.2742863 0.2733554 0.2723804 0.2712942 0.2694287 0.2655734 0.2595498 0.2535502 0.2506223
 0.251473 0.2540314 0.2564271 0.2583409 0.258514 0.2537319 0.2430248 0.2314233 0.2264944 0.231028
 0.2408177 0.2493808 0.2530811 0.251577 0.2456268 0.2367367 0.2287002 0.2269372 0.2343138 0.2481411
 0.2625991 0.273668 0.2806498 0.2838921 0.2832371 0.2791822 0.2741817 0.2716719 0.2737092 0.2796199
 0.2865155 0.2906347 0.2889792 0.2817836 0.2741539 0.2729787 0.2800974 0.2898591 0.2953631 0.295689
 0.2948761 0.2955102 0.2965098 0.2966859 0.2972331 0.2997278 0.3035495 0.306401 0.3063717 0.3027437
 0.2959779 0.2882628 0.283168 0.282818 0.2855423 0.28779 0.2877746 0.2855046 0.2805446 0.2729822
 0.2662231 0.2651668 0.2706341 0.2781209 0.2829354 0.2845709 0.2852422 0.2859034 0.2851219 0.2814697
 0.2760554 0.2720431 0.2715518 0.2736569 0.2759087 0.2769839 0.2768939 0.2754537 0.2722873 0.2684664
 0.2666564 0.2687464 0.2738235 0.2790574 0.2822984 0.2833888 0.2833425 0.2830387 0.2827493 0.2823055
 0.2815342 0.2808531 0.2812897 0.2833886 0.2862621 0.2884018 0.2894224 0.2903766 0.2922764 0.294854
 0.296968 0.2978658 0.2978444 0.2978728 0.2987193 0.3003228 0.3018508 0.302432 0.3020124 0.3015198
 0.3020301 0.303741 0.3058933 0.3076441 0.3087749 0.3095708 0.3103407 0.3111525 0.3118038 0.3119904
 0.311709 0.3115044 0.3120678 0.3135214 0.3152746 0.3166221 0.317323 0.3175686 0.317584 0.3174084
 0.3170028 0.3164358 0.3159 0.3155675 0.3154648 0.3154951 0.3155472 0.3155652 0.3155507 0.3155414
 0.3155837 0.3156987 0.3158711 0.3160786 0.3163056 0.3165229 0.3166896 0.3167972 0.316881 0.3169638
 0.3170077 0.3169408 0.3167061 0.3162664 0.3155826 0.314613 0.3133271 0.3116961 0.3096935 0.3073864
 0.3050942 0.3034246 0.3030222 0.3041587 0.306516 0.3093666 0.3119882 0.3139764 0.3152795 0.3160406
 0.3164337 0.3165904 0.3165939 0.3164891 0.316297 0.3160346 0.3157231 0.315381 0.3150233 0.3146699
 0.3143457 0.3140631 0.3138064 0.3135359 0.3132104 0.3128087 0.3123335 0.3117986 0.3112121 0.3105656
 0.309833 0.3089886 0.3080357 0.3070199 0.306009 0.3050553 0.3041683 0.3033129 0.3024384 0.3015046
 0.3004694 0.2992723 0.2978927 0.2964436 0.2951468 0.2941536 0.2934061 0.2927039 0.2918799 0.290887
 0.2897542 0.2885228 0.2872274 0.285896 0.2845435 0.2831634 0.2817292 0.2802073 0.2785787 0.2768504
 0.2750413 0.2731671 0.271243 0.269287 0.2672939 0.265197 0.2628632 0.2601287 0.2568479 0.2529269
 0.2483438 0.2431637 0.2375439 0.231706 0.2258819 0.2202697 0.2150285 0.2102946 0.2061882 0.2028053
 0.2002109 0.1984429 0.1975203 0.1974476 0.1982135 0.1997837 0.2020875 0.2050084 0.2083854 0.2120291
 0.2157407 0.2193345 0.222677 0.2257296 0.2285402 0.2311724 0.2336368 0.2358957 0.2379154 0.2396914
 0.2412293 0.2425267 0.2435842 0.2444268 0.2451061 0.2456787 0.2461829 0.2466273 0.2470005 0.2472908
 0.247504 0.2476656 0.247811 0.2479708 0.2481617 0.2483857 0.248641 0.2489357 0.2492893 0.2497218
 0.2502425 0.2508468 0.2515195 0.2522404 0.2529984 0.2538033 0.2546875 0.2556916 0.256847 0.2581659
 0.2596408 0.2612428 0.2629108 0.2645468 0.266038 0.2672929 0.2682623 0.2689362 0.2693298 0.2694707
 0.269392 0.2691296 0.2687186 0.2681854 0.2675484 0.2668255 0.2660366 0.2651953 0.2643031 0.2633574
 0.2623656 0.2613536 0.2603545 0.2593858 0.2584438 0.2575225 0.2566259 0.255757 0.254909 0.2540762
 0.2532624 0.2524768 0.2517273 0.2510203 0.2503542 0.2497098 0.2490453 0.2483051 0.2474376 0.2464156
 0.2452377 0.2439125 0.2424472 0.2408481 0.2391233 0.2372839 0.2353463 0.2333288 0.2312402 0.2290781
 0.2268313 0.2244878 0.2220586 0.2196073 0.2172367 0.2150311 0.2130155 0.211168 0.2094506 0.2078296
 0.2062845 0.2048065 0.2033908 0.2020343 0.2007365 0.1994947 0.1983063 0.19718 0.1961339 0.1951825
 0.1943358 0.1936035 0.1929857 0.1924673 0.1920301 0.1916629 0.1913672 0.1911677 0.1911017 0.191169
 0.191301 0.1914009 0.1914105 0.1913357 0.1912256 0.1911332 0.1910864 0.1910882 0.1911232 0.1911411
 0.1910461 0.1907286 0.1901027 0.1891067 0.1877039 0.1859114 0.1838165 0.1815612 0.179316 0.1772447
 0.1754616 0.1740186 0.1729183 0.1721131 0.1715102 0.1710291 0.170661 0.170465 0.1705129 0.1708137
 0.1712493 0.1716161 0.1718017 0.1719124 0.1721834 0.1727762 0.173677 0.1747424 0.1758039 0.1767472
 0.1775207 0.1781009 0.1784907 0.1787373 0.1788978 0.178986 0.1789797 0.1788568 0.1786059 0.1782328
 0.1777661 0.1772259 0.176599 0.1758724 0.1750568 0.1741584 0.1731687 0.1720817 0.1708756 0.1695155
 0.1680518 0.166696 0.1657429 0.1654123 0.1657397 0.1665633 0.1676355 0.1687846 0.1699376 0.1710001
 0.1718585 0.1725657 0.1734257 0.1747924 0.1767701 0.1791047 0.181356 0.1831765 0.1844251 0.1850811
 0.1851733 0.1847767 0.1839462 0.1826639 0.18094 0.1788957 0.1766742 0.1743832 0.172163 0.1701631
 0.1684534 0.1670512 0.1659515 0.1651369 0.1646622 0.1642639 0.1623952 0.1567523 0.1475325 0.1395702
 0.138699 0.1454706 0.1544029 0.1598735 0.1609015 0.1598274 0.1586089 0.1576791 0.156975 0.1565696
 0.1565107 0.1566888 0.1568855 0.1568783 0.1565794 0.1560126 0.1550515 0.1531888 0.1495394 0.1431611
 0.1337468 0.1222625 0.1107417 0.1012047 0.09465365 0.09086817 0.0888608 0.08757041 0.08646438 0.08570551
 0.08578365 0.08701485 0.08937441 0.09265557 0.09661175 0.1009101 0.1050783 0.1086629 0.1114735 0.1135911
 0.1151413 0.1161597 0.1166644 0.1167266 0.1164353 0.1158665 0.1150893 0.114141 0.1129991 0.1116323
 0.1101041 0.1086174 0.1074263 0.1066675 0.1062789 0.1061012 0.1060248 0.1060164 0.1060664 0.1061666
 0.1063113 0.1064931 0.1067176 0.1070101 0.1073694 0.1077323 0.1080199 0.108201 0.1082916 0.1083072
 0.1082229 0.1079888 0.1076137 0.1071977 0.106798 0.1062807 0.1054234 0.1042029 0.1029166 0.1019925
 0.101693 0.1019609 0.1024897 0.1029477 0.1031826 0.103248 0.1032572 0.103225 0.1030462 0.1026196
</values></Ydata></ScRf><Data_Parameters_AB><parameter name="DPF">1</parameter><parameter name="NPT">3497</parameter><parameter name="FXV">3996</parameter><parameter name="LXV">500</parameter><parameter name="CSF">1</parameter><parameter name="MXY">0.0307261161506176</parameter><parameter name="MNY">-0.0370619930326939</parameter><parameter name="DAT">17/01/2024</parameter><parameter name="TIM">12:59:15.487 (GMT+1)</parameter><parameter name="DXU">WN</parameter></Data_Parameters_AB><AB__Qtest><MainReport name="Quality Test Report"><Header><Line><Legend>Test result ok/not ok [1/0]: </Legend><Value>0</Value></Line><Line><Legend>Method file: </Legend><Value>C:\Users\Public\Documents\Bruker\OPUS_8.2.28\QT\IRBT_v3_default.QT</Value></Line></Header><Matrix><Line><Legend></Legend><Legend>min</Legend><Legend>max</Legend><Legend>measured</Legend></Line><Line><Value>Absorption (X-Range 1):</Value><Value>0.400000</Value><Value>2.000000</Value><Value>0.019596</Value></Line><Line><Value>Noise (X-Range 4):</Value><Value></Value><Value>0.000300</Value><Value>0.000016</Value></Line><Line><Value>Signal/Noise (X-Range 2):</Value><Value>200.000000</Value><Value></Value><Value>27.859670</Value></Line><Line><Value>Signal/Noise (X-Range 3):</Value><Value>40.000000</Value><Value></Value><Value>172.375529</Value></Line><Line><Value>Water vapour (X-Range 5):</Value><Value></Value><Value>0.000300</Value><Value>0.000017</Value></Line><Line><Value>Signal/Water (X-Range 2):</Value><Value>100.000000</Value><Value></Value><Value>27.044973</Value></Line><Line><Value>Signal/Water (X-Range 3):</Value><Value>20.000000</Value><Value></Value><Value>167.334774</Value></Line><Line><Value>Fringes (X-Range 6):</Value><Value></Value><Value>0.000100</Value><Value>0.000029</Value></Line></Matrix></MainReport></AB__Qtest><Data_Parameters_ScSm><parameter name="DPF">1</parameter><parameter name="NPT">1814</parameter><parameter name="FXV">3996.63438082617</parameter><parameter name="LXV">499.579297603271</parameter><parameter name="CSF">1</parameter><parameter name="MXY">0.332487642765045</parameter><parameter name="MNY">0.0741938948631287</parameter><parameter name="DAT">17/01/2024</parameter><parameter name="TIM">12:59:15.487 (GMT+1)</parameter><parameter name="DXU">WN</parameter></Data_Parameters_ScSm><Data_Parameters_ScRf><parameter name="DPF">1</parameter><parameter name="NPT">1820</parameter><parameter name="FXV">4004.34989121387</parameter><parameter name="LXV">495.721542409425</parameter><parameter name="CSF">1</parameter><parameter name="MXY">0.317584037780762</parameter><parameter name="MNY">0.06816516071558</parameter><parameter name="DAT">17/01/2024</parameter><parameter name="TIM">12:58:49.627 (GMT+1)</parameter><parameter name="DXU">WN</parameter></Data_Parameters_ScRf><Optic_Parameters_Rf><parameter name="APR">0</parameter><parameter name="APT">Open</parameter><parameter name="BMS">KBr</parameter><parameter name="DTC">RT-DLaTGS_IR-Biotyper [Microplate reader]</parameter><parameter name="HPF">0</parameter><parameter name="LPF">10.0</parameter><parameter name="LPV">4000</parameter><parameter name="PGR">0</parameter><parameter name="RCH">Module port</parameter><parameter name="RDX">0</parameter><parameter name="SRC">MIR</parameter><parameter name="VEL">10.0</parameter><parameter name="SON">Off</parameter></Optic_Parameters_Rf><Acquisition_Parameters_Rf><parameter name="ADT">1</parameter><parameter name="AQM">DD</parameter><parameter name="CFE">0</parameter><parameter name="COR">0</parameter><parameter name="DEL">0</parameter><parameter name="DLY">0</parameter><parameter name="HFW">8000</parameter><parameter name="LFW">0</parameter><parameter name="NSR">32</parameter><parameter name="PLF">AB</parameter><parameter name="RES">6</parameter><parameter name="RGN">-1</parameter><parameter name="STR">0</parameter><parameter name="TCL">MakeCompatibleScalar (0, {WSV=1.000000, ARV=0});</parameter><parameter name="TDL">37</parameter><parameter name="RPO">0</parameter></Acquisition_Parameters_Rf><FT_-_Parameters_Rf><parameter name="APF">B3</parameter><parameter name="HFQ">500</parameter><parameter name="LFQ">4000</parameter><parameter name="NLI">0</parameter><parameter name="PHR">24</parameter><parameter name="PHZ">ML</parameter><parameter name="SPZ">NO</parameter><parameter name="ZFF">1</parameter></FT_-_Parameters_Rf><Optic_Parameters_><parameter name="APR">0</parameter><parameter name="APT">Open</parameter><parameter name="BMS">KBr</parameter><parameter name="CHN">Module port</parameter><parameter name="DTC">RT-DLaTGS_IR-Biotyper [Microplate reader]</parameter><parameter name="HPF">0</parameter><parameter name="LPF">10.0</parameter><parameter name="LPV">4000</parameter><parameter name="PGN">0</parameter><parameter name="RDX">0</parameter><parameter name="SRC">MIR</parameter><parameter name="VEL">10.0</parameter><parameter name="SON">Off</parameter></Optic_Parameters_><FT_-_Parameters_><parameter name="APF">B3</parameter><parameter name="HFQ">500</parameter><parameter name="LFQ">4000</parameter><parameter name="NLI">0</parameter><parameter name="PHR">24</parameter><parameter name="PHZ">ML</parameter><parameter name="SPZ">NO</parameter><parameter name="ZFF">1</parameter></FT_-_Parameters_><Acquisition_Parameters_><parameter name="ADT">1</parameter><parameter name="AQM">DD</parameter><parameter name="CFE">0</parameter><parameter name="COR">0</parameter><parameter name="DEL">0</parameter><parameter name="DLY">0</parameter><parameter name="HFW">8000</parameter><parameter name="LFW">0</parameter><parameter name="NSS">32</parameter><parameter name="PLF">AB</parameter><parameter name="RES">6</parameter><parameter name="SOT">0</parameter><parameter name="TCL">MakeCompatibleScalar (0, {WSV=1.000000, ARV=0});</parameter><parameter name="TDL">37</parameter><parameter name="SPO">0</parameter><parameter name="SGN">-1</parameter></Acquisition_Parameters_><Instrument_Parameters_Rf><parameter name="HFL">15801.365274</parameter><parameter name="LFL">0</parameter><parameter name="LWN">15801.365274</parameter><parameter name="ABP">32157</parameter><parameter name="SSP">1</parameter><parameter name="ARG">2</parameter><parameter name="ASG">2</parameter><parameter name="ASS">32</parameter><parameter name="GFW">16</parameter><parameter name="GBW">16</parameter><parameter name="BFW">0</parameter><parameter name="BBW">0</parameter><parameter name="PKA">9115</parameter><parameter name="PKL">4987</parameter><parameter name="PRA">9129</parameter><parameter name="PRL">5010</parameter><parameter name="P2A">1</parameter><parameter name="P2L">1</parameter><parameter name="P2R">1</parameter><parameter name="P2K">1</parameter><parameter name="DAQ">0</parameter><parameter name="AG2">1</parameter><parameter name="SSM">1</parameter><parameter name="RSN">46292</parameter><parameter name="CRR">0</parameter><parameter name="SRT">1705496329.627</parameter><parameter name="DUR">19.6439971923828</parameter><parameter name="TSC">30.8</parameter><parameter name="MVD">0.33299332857132</parameter><parameter name="AN1">0.226029673967603</parameter><parameter name="AN2">0</parameter><parameter name="VSN">2.485 Apr  4 2017</parameter><parameter name="SRN">0085</parameter><parameter name="CAM">0</parameter><parameter name="INS">IR-Biotyper</parameter><parameter name="FOC">69</parameter><parameter name="RDY">1</parameter><parameter name="ARS">32</parameter></Instrument_Parameters_Rf><Sample_Parameters_><parameter name="BLD"></parameter><parameter name="CNM">Admin</parameter><parameter name="CPY"></parameter><parameter name="DPM"></parameter><parameter name="EXP">IRBT_v3_32Scans.XPM</parameter><parameter name="LCT"></parameter><parameter name="SFM">Microplate, HTS-XT</parameter><parameter name="SNM">240117-1222-Cdiff_SCFA_1_C1_232096617_A5_b39b6f00-81d6-4680-89df-0254b0e61592.0</parameter><parameter name="XPP">C:\Users\Public\Documents\Bruker\OPUS_8.2.28\XPM</parameter><parameter name="IST">OK</parameter><parameter name="CPG">1252</parameter><parameter name="UID">ddcb9ca8-65e1-49bb-b24f-e7f67c5c5d77</parameter></Sample_Parameters_><Instrument_Parameters_><parameter name="HFL">15801.365274</parameter><parameter name="LFL">0</parameter><parameter name="LWN">15801.365274</parameter><parameter name="ABP">32157</parameter><parameter name="SSP">1</parameter><parameter name="ASG">2</parameter><parameter name="ARG">2</parameter><parameter name="ASS">32</parameter><parameter name="GFW">16</parameter><parameter name="GBW">16</parameter><parameter name="BFW">0</parameter><parameter name="BBW">0</parameter><parameter name="PKA">9595</parameter><parameter name="PKL">4987</parameter><parameter name="PRA">9646</parameter><parameter name="PRL">5010</parameter><parameter name="P2A">1</parameter><parameter name="P2L">1</parameter><parameter name="P2R">1</parameter><parameter name="P2K">1</parameter><parameter name="DAQ">0</parameter><parameter name="AG2">1</parameter><parameter name="SSM">1</parameter><parameter name="RSN">23839</parameter><parameter name="CRR">0</parameter><parameter name="SRT">1705496355.488</parameter><parameter name="DUR">19.6449890136719</parameter><parameter name="TSC">30.8</parameter><parameter name="MVD">4.43274736404419</parameter><parameter name="AN1">0.226016070686231</parameter><parameter name="AN2">0</parameter><parameter name="VSN">2.485 Apr  4 2017</parameter><parameter name="SRN">0085</parameter><parameter name="CAM">0</parameter><parameter name="INS">IR-Biotyper</parameter><parameter name="FOC">69</parameter><parameter name="RDY">1</parameter></Instrument_Parameters_><History/></OPUSDataFile>
