<?xml version="1.0" encoding="UTF-8" ?>
<OPUSDataFile><AB><Ydata ylabel="Absorbance Units"><values byteorder="INTEL" format="FLOAT32" numvalues="3497"> -0.03119964 -0.0311933 -0.03117659 -0.0311519 -0.03112647 -0.0311014 -0.03108293 -0.03106998 -0.03106385 -0.03106261
 -0.03106466 -0.03106878 -0.03107343 -0.03107862 -0.03108398 -0.03108968 -0.03109584 -0.03110198 -0.03110824 -0.03111288
 -0.03111565 -0.03111544 -0.03111199 -0.03110729 -0.03110149 -0.03109859 -0.03109865 -0.0311037 -0.03111331 -0.03112649
 -0.0311424 -0.03115829 -0.0311727 -0.03118133 -0.03118297 -0.03117298 -0.03115364 -0.03112403 -0.0310912 -0.03105934
 -0.03103533 -0.03102457 -0.03102701 -0.03104535 -0.03107093 -0.0311032 -0.03113003 -0.0311494 -0.03115481 -0.03114505
 -0.03112463 -0.03109385 -0.03106483 -0.03103783 -0.03102034 -0.03101121 -0.0310081 -0.03100992 -0.03101137 -0.03101315
 -0.0310141 -0.0310155 -0.0310193 -0.03102503 -0.03103326 -0.03104217 -0.03105053 -0.0310573 -0.0310614 -0.03106326
 -0.03106261 -0.03106071 -0.0310576 -0.03105548 -0.0310546 -0.03105704 -0.0310631 -0.03107211 -0.03108403 -0.03109509
 -0.03110516 -0.03111115 -0.03111359 -0.03111377 -0.03111249 -0.03111357 -0.03111628 -0.03112133 -0.03112658 -0.03112872
 -0.03112697 -0.03111813 -0.03110561 -0.03109048 -0.03107719 -0.03106893 -0.03106587 -0.03106944 -0.03107583 -0.03108449
 -0.0310919 -0.03109745 -0.03109905 -0.0310964 -0.03108909 -0.03107712 -0.03106345 -0.03104849 -0.0310381 -0.0310324
 -0.03103564 -0.03104651 -0.03106309 -0.03108318 -0.03110052 -0.03111434 -0.03111977 -0.03111939 -0.03111358 -0.03110665
 -0.03110255 -0.03110236 -0.03110909 -0.03111723 -0.03112606 -0.03112844 -0.03112161 -0.03110627 -0.03108134 -0.03105488
 -0.03102761 -0.03100448 -0.03098578 -0.03096949 -0.03095552 -0.03094178 -0.03092884 -0.03091941 -0.03091351 -0.03091343
 -0.03091708 -0.03092059 -0.03092222 -0.03091601 -0.03090505 -0.0308902 -0.03087548 -0.03086511 -0.0308589 -0.03085836
 -0.03086067 -0.03086486 -0.03086996 -0.03087554 -0.0308815 -0.03088825 -0.03089195 -0.03089244 -0.03088392 -0.03086602
 -0.03084022 -0.03080722 -0.0307771 -0.03075033 -0.03073542 -0.03073108 -0.03073751 -0.03075239 -0.03077013 -0.03078938
 -0.03080504 -0.03081757 -0.03082524 -0.03082968 -0.03083137 -0.03083258 -0.03083503 -0.03083898 -0.03084555 -0.03085171
 -0.030857 -0.03085838 -0.03085482 -0.03084784 -0.03083719 -0.03082832 -0.03082153 -0.03082108 -0.0308269 -0.03083867
 -0.03085576 -0.03087436 -0.03089347 -0.03090731 -0.03091538 -0.03091278 -0.03090147 -0.03088187 -0.03085784 -0.03083455
 -0.03081336 -0.03079781 -0.03078569 -0.03077643 -0.0307691 -0.03076251 -0.03075937 -0.0307606 -0.03076592 -0.03077616
 -0.03078521 -0.03079244 -0.03079434 -0.03079056 -0.03078502 -0.03077792 -0.03077319 -0.03077019 -0.03076626 -0.03076104
 -0.03075098 -0.03073778 -0.03072377 -0.03071084 -0.03070397 -0.03070243 -0.03070783 -0.03071755 -0.03072976 -0.03074296
 -0.03075559 -0.03076775 -0.03077932 -0.03078982 -0.03079942 -0.03080598 -0.03080897 -0.03080799 -0.03080261 -0.03079661
 -0.03079016 -0.03078847 -0.03079155 -0.0308 -0.0308129 -0.03082406 -0.03083284 -0.03083291 -0.03082532 -0.03080914
 -0.03078665 -0.03076132 -0.03073524 -0.03071248 -0.03069393 -0.03068217 -0.03067596 -0.03067574 -0.03067851 -0.03068326
 -0.03068751 -0.03069013 -0.03069118 -0.03069034 -0.03068926 -0.03068816 -0.03068742 -0.03068705 -0.0306875 -0.03068882
 -0.03069197 -0.03069673 -0.03070214 -0.0307074 -0.03070836 -0.03070495 -0.03069423 -0.03067791 -0.03065749 -0.03063511
 -0.03061428 -0.03059584 -0.03058197 -0.03057212 -0.03056679 -0.03056457 -0.03056534 -0.03056654 -0.03056746 -0.03056608
 -0.03056169 -0.03055484 -0.0305454 -0.03053546 -0.03052519 -0.03051485 -0.03050439 -0.03049187 -0.03047766 -0.03046352
 -0.03045019 -0.03044215 -0.03043884 -0.03044196 -0.03044843 -0.03045345 -0.03045433 -0.03044459 -0.03042579 -0.03039615
 -0.03036058 -0.03032107 -0.03028302 -0.030249 -0.03022298 -0.03020697 -0.03020108 -0.03020646 -0.030217 -0.03023255
 -0.03024372 -0.03024981 -0.03024609 -0.03023257 -0.03021162 -0.0301838 -0.03015498 -0.03012517 -0.03009764 -0.0300719
 -0.03004811 -0.03002612 -0.03000558 -0.02998676 -0.02997033 -0.02995523 -0.02994136 -0.02992586 -0.0299065 -0.02988296
 -0.02985352 -0.02982296 -0.02979208 -0.02976588 -0.02974627 -0.02973104 -0.02972062 -0.02970781 -0.02969207 -0.02967006
 -0.02964182 -0.02961039 -0.02957614 -0.02954349 -0.02951232 -0.02948468 -0.02945983 -0.02943688 -0.02941479 -0.02939104
 -0.02936498 -0.02933474 -0.02929983 -0.02925903 -0.02921247 -0.029159 -0.02910203 -0.02904187 -0.02898496 -0.02893372
 -0.02889042 -0.02885686 -0.02882739 -0.02880169 -0.02877352 -0.02874218 -0.02870931 -0.02867512 -0.02864606 -0.0286218
 -0.02860275 -0.0285872 -0.0285671 -0.02854176 -0.02850406 -0.02845648 -0.02839991 -0.02833855 -0.02827915 -0.02822289
 -0.02817417 -0.0281301 -0.02809045 -0.02805134 -0.02801068 -0.02796712 -0.0279195 -0.02786913 -0.0278159 -0.02776217
 -0.02770811 -0.02765644 -0.02760738 -0.02756267 -0.02752233 -0.02748478 -0.02744966 -0.02741284 -0.02737438 -0.02733208
 -0.0272868 -0.02724 -0.02719229 -0.02714608 -0.02710042 -0.02705519 -0.02700893 -0.02695979 -0.02690804 -0.0268527
 -0.02679637 -0.0267397 -0.02668593 -0.02663662 -0.02659176 -0.02655218 -0.02651375 -0.02647618 -0.02643458 -0.02638835
 -0.02633778 -0.02628299 -0.02623031 -0.02618007 -0.02613839 -0.02610436 -0.02607711 -0.02605491 -0.02603157 -0.02600692
 -0.02597688 -0.02594376 -0.02590948 -0.02587506 -0.02584345 -0.02581112 -0.02577678 -0.02573671 -0.0256875 -0.02563232
 -0.02557065 -0.0255096 -0.02545105 -0.02539718 -0.02534912 -0.02530206 -0.02525569 -0.02520633 -0.02515391 -0.02510192
 -0.02505091 -0.02500802 -0.02497305 -0.02494938 -0.02493505 -0.02492623 -0.0249201 -0.02490858 -0.02489056 -0.02485993
 -0.02481963 -0.02476963 -0.02471532 -0.02466038 -0.02460877 -0.02456386 -0.02452541 -0.02449473 -0.02446763 -0.02444388
 -0.02441744 -0.02438746 -0.02434948 -0.02430279 -0.02424894 -0.02418806 -0.02412675 -0.02406523 -0.02400867 -0.0239563
 -0.02390683 -0.02385943 -0.02381019 -0.02376016 -0.02370921 -0.0236598 -0.02361593 -0.02357844 -0.02355073 -0.02352963
 -0.02351499 -0.02350036 -0.02348273 -0.02345696 -0.02341971 -0.02337267 -0.02331448 -0.02325431 -0.02319314 -0.02313921
 -0.02309364 -0.02305634 -0.0230273 -0.02300056 -0.02297612 -0.02295205 -0.02292894 -0.02290974 -0.02289348 -0.02287917
 -0.02286387 -0.02283982 -0.0228067 -0.02275882 -0.02270211 -0.0226401 -0.02258004 -0.02252978 -0.02248888 -0.02246077
 -0.0224372 -0.02241585 -0.02239132 -0.02236087 -0.02232814 -0.02229297 -0.02226171 -0.02223515 -0.02221357 -0.02219699
 -0.02218071 -0.02216464 -0.02214624 -0.02212578 -0.02210361 -0.02207954 -0.02205326 -0.02202411 -0.02198999 -0.02195153
 -0.0219082 -0.02186245 -0.0218168 -0.02177303 -0.02173371 -0.02169833 -0.02166783 -0.02163933 -0.02161216 -0.02158359
 -0.02155253 -0.02151911 -0.02148276 -0.02144745 -0.0214134 -0.02138548 -0.02136395 -0.02134921 -0.02134084 -0.02133364
 -0.02132698 -0.02131417 -0.02129574 -0.02126978 -0.02123749 -0.02120081 -0.0211604 -0.02111833 -0.02107443 -0.02102892
 -0.02098267 -0.02093582 -0.02089102 -0.02084979 -0.02081357 -0.02078405 -0.02075792 -0.02073526 -0.02070995 -0.02068063
 -0.02064612 -0.02060571 -0.02056622 -0.020528 -0.02049926 -0.02047985 -0.02046941 -0.02046679 -0.02046445 -0.02046229
 -0.02045551 -0.0204458 -0.02043519 -0.02042416 -0.02041547 -0.02040631 -0.02039442 -0.02037777 -0.02035285 -0.02032256
 -0.02028689 -0.02025093 -0.02021702 -0.02018648 -0.02016039 -0.02013704 -0.02011606 -0.02009812 -0.02008324 -0.02007241
 -0.0200657 -0.02005897 -0.02005183 -0.02003747 -0.02001642 -0.01998794 -0.01995408 -0.01992231 -0.01989377 -0.0198758
 -0.01986637 -0.01986622 -0.01987088 -0.01987552 -0.01987653 -0.01986895 -0.01985252 -0.01982481 -0.01979015 -0.01974883
 -0.01970783 -0.01966894 -0.01963707 -0.01961372 -0.01959821 -0.0195909 -0.01958729 -0.01958715 -0.0195868 -0.01958615
 -0.01958344 -0.01957874 -0.01957144 -0.01956185 -0.01955051 -0.01953832 -0.01952786 -0.01951971 -0.01951647 -0.01951718
 -0.01952237 -0.01952907 -0.01953549 -0.01953786 -0.0195333 -0.01952059 -0.01949775 -0.01946815 -0.01943148 -0.01939516
 -0.0193604 -0.01933247 -0.01931241 -0.01929862 -0.0192911 -0.01928374 -0.01927631 -0.01926465 -0.01924903 -0.01922938
 -0.01920571 -0.01917814 -0.01914631 -0.01910871 -0.01906649 -0.01901998 -0.01897298 -0.01893022 -0.01889458 -0.01887137
 -0.01885763 -0.01885432 -0.01885395 -0.01885365 -0.01884867 -0.0188362 -0.0188191 -0.01879696 -0.01877592 -0.01875656
 -0.01874351 -0.01873712 -0.01873895 -0.01874892 -0.01876576 -0.01878893 -0.01881425 -0.01884104 -0.01886396 -0.01888344
 -0.0188973 -0.01890779 -0.01891762 -0.01892943 -0.01894815 -0.01897375 -0.01900893 -0.01904941 -0.01909399 -0.01913717
 -0.01917561 -0.01920955 -0.01923736 -0.01926573 -0.01929559 -0.01933226 -0.01937688 -0.01942764 -0.01948456 -0.01954266
 -0.01960173 -0.01965867 -0.01971348 -0.01976465 -0.01981234 -0.01985587 -0.01989639 -0.01993646 -0.01997733 -0.02002314
 -0.02007282 -0.02012718 -0.02018342 -0.02023874 -0.02029319 -0.02034549 -0.02039794 -0.02045194 -0.02050607 -0.02056097
 -0.02061132 -0.02065605 -0.02069259 -0.02072011 -0.02074178 -0.02075771 -0.02077189 -0.02078453 -0.02079867 -0.02081458
 -0.02083585 -0.02086246 -0.02089677 -0.02093732 -0.02098178 -0.02102779 -0.02106947 -0.02110632 -0.02113466 -0.02115658
 -0.02117247 -0.02118482 -0.02119537 -0.02120546 -0.0212159 -0.02122788 -0.02124161 -0.02125932 -0.02128158 -0.02130902
 -0.02134216 -0.02137721 -0.02141403 -0.02144662 -0.02147483 -0.02149682 -0.0215132 -0.02152802 -0.02154173 -0.02155894
 -0.02157869 -0.02160073 -0.02162393 -0.02164565 -0.02166607 -0.02168427 -0.02170091 -0.02171664 -0.02173084 -0.02174334
 -0.02175332 -0.02175993 -0.02176453 -0.02176689 -0.02177044 -0.02177574 -0.02178579 -0.02180106 -0.02182285 -0.02185137
 -0.02188487 -0.02192318 -0.02196161 -0.02199987 -0.02203304 -0.02206155 -0.0220846 -0.02210317 -0.02211978 -0.02213498
 -0.02215114 -0.0221682 -0.02218673 -0.02220743 -0.02223129 -0.02225847 -0.02228994 -0.02232349 -0.0223586 -0.02239249
 -0.02242377 -0.02245292 -0.02247958 -0.02250607 -0.02253284 -0.02255941 -0.02258583 -0.02261019 -0.02263251 -0.02265434
 -0.02267604 -0.02270183 -0.02273112 -0.02276375 -0.02279803 -0.02282858 -0.02285475 -0.02287194 -0.02288234 -0.02288649
 -0.02288806 -0.02289071 -0.02289721 -0.02291095 -0.02293169 -0.02296109 -0.02299448 -0.02303146 -0.02306504 -0.02309337
 -0.02311394 -0.02312545 -0.02313405 -0.02313999 -0.02315167 -0.02316936 -0.02319365 -0.02322355 -0.02325004 -0.02327243
 -0.02328194 -0.02328027 -0.02326753 -0.02324697 -0.02322552 -0.02320494 -0.02319124 -0.02318336 -0.02318272 -0.02318693
 -0.02319468 -0.02320454 -0.02321535 -0.0232271 -0.02323934 -0.02325335 -0.02326936 -0.02328805 -0.02330984 -0.02333243
 -0.02335584 -0.02337447 -0.02338808 -0.02339316 -0.02339017 -0.02338213 -0.02337006 -0.02336102 -0.02335485 -0.02335534
 -0.0233604 -0.02336764 -0.02337459 -0.02337631 -0.02337229 -0.02335948 -0.02334038 -0.02331526 -0.02328821 -0.02326124
 -0.02323696 -0.02321677 -0.02320129 -0.02319074 -0.02318614 -0.0231874 -0.02319786 -0.02321791 -0.023248 -0.02328801
 -0.02333027 -0.02337386 -0.023406 -0.02342664 -0.02342803 -0.02341276 -0.02338434 -0.02334671 -0.02331025 -0.02327687
 -0.02325461 -0.02324179 -0.02323997 -0.02324598 -0.02325798 -0.02327396 -0.02329253 -0.0233125 -0.02333352 -0.02335347
 -0.02337201 -0.02338648 -0.02339637 -0.02340062 -0.023399 -0.02339217 -0.02338018 -0.0233656 -0.02334884 -0.02333524
 -0.02332513 -0.02332373 -0.0233296 -0.0233415 -0.02335633 -0.02336619 -0.02337025 -0.02336238 -0.02334704 -0.02332615
 -0.02330532 -0.02329049 -0.02328082 -0.02327885 -0.02327728 -0.02327401 -0.02326434 -0.0232458 -0.02322204 -0.02319291
 -0.02316503 -0.02313924 -0.02311567 -0.02309431 -0.02306865 -0.02303849 -0.02299897 -0.02295103 -0.022897 -0.02283839
 -0.02278185 -0.02272748 -0.02267942 -0.02263553 -0.02259473 -0.02255395 -0.02250938 -0.02245926 -0.02240065 -0.02233424
 -0.02225952 -0.02217784 -0.02208986 -0.02199516 -0.02189404 -0.02178428 -0.02166566 -0.02153582 -0.02139461 -0.02123926
 -0.0210696 -0.02088394 -0.02068221 -0.02046349 -0.0202274 -0.01997206 -0.01969588 -0.01939272 -0.01906043 -0.01869095
 -0.01828345 -0.01783318 -0.01733981 -0.01680235 -0.0162171 -0.01558233 -0.01489068 -0.01413845 -0.01331862 -0.01242787
 -0.01146229 -0.01042022 -0.009300401 -0.008101733 -0.006828724 -0.005480737 -0.004074903 -0.002612135 -0.001123718 0.0003878955
 0.001884193 0.003362183 0.004785626 0.006151125 0.007428805 0.008613952 0.009681993 0.01062714 0.01142892 0.01208505
 0.01258145 0.01292975 0.01312683 0.01320869 0.0131848 0.01311431 0.01301467 0.01295189 0.01294312 0.01304086
 0.01325598 0.01361821 0.01413198 0.01480793 0.01564693 0.01664654 0.01780547 0.01910742 0.02054796 0.02209428
 0.02373843 0.02543645 0.02717816 0.02891993 0.03064941 0.03233149 0.03394597 0.03546261 0.03684857 0.03807363
 0.0390988 0.03989591 0.04043881 0.04070949 0.04070468 0.04041792 0.03986378 0.03904097 0.03798056 0.03668242
 0.03520844 0.03356177 0.03184145 0.03005389 0.02830979 0.02661266 0.02504267 0.02359468 0.02229502 0.02113108
 0.02008689 0.01914866 0.0182866 0.01749056 0.01673743 0.01602114 0.01533015 0.01465962 0.0140049 0.01336012
 0.01272257 0.01208655 0.01144963 0.01081095 0.01016904 0.009531028 0.008896839 0.008279981 0.007681164 0.007117452
 0.006590087 0.006119622 0.005708368 0.00538138 0.005140938 0.005010831 0.004988334 0.005082794 0.005280219 0.00556574
 0.005913859 0.006290878 0.006670517 0.007017971 0.007324667 0.007569704 0.007777086 0.007944238 0.00812308 0.008323207
 0.008600126 0.008965622 0.009449635 0.01005912 0.01078126 0.01161641 0.01251038 0.01345831 0.01437741 0.0152585
 0.01600296 0.01659678 0.01693489 0.01700259 0.01670514 0.01604502 0.01497013 0.01352571 0.01172915 0.009672844
 0.007428246 0.005101881 0.002772911 0.0005131877 -0.001627683 -0.003628354 -0.00547202 -0.0071643 -0.008703635 -0.01009785
 -0.01134733 -0.01246049 -0.01343761 -0.01429668 -0.01503911 -0.01569055 -0.01625277 -0.01675022 -0.01718447 -0.01757431
 -0.01792164 -0.01824062 -0.01853305 -0.01880862 -0.0190681 -0.01931657 -0.01955316 -0.01977877 -0.01999239 -0.02019348
 -0.02038195 -0.02055737 -0.02072085 -0.02087244 -0.02101382 -0.02114511 -0.0212687 -0.02138475 -0.02149652 -0.02160421
 -0.02171098 -0.02181695 -0.02192387 -0.02203186 -0.02214259 -0.02225633 -0.02237538 -0.02249942 -0.02262922 -0.02276315
 -0.02289889 -0.02303422 -0.02316505 -0.02329079 -0.02340901 -0.02352154 -0.02362856 -0.02373262 -0.02383507 -0.02393642
 -0.02403763 -0.02413576 -0.02423064 -0.02431817 -0.02439771 -0.02446778 -0.02452811 -0.02458206 -0.02462989 -0.02467741
 -0.02472473 -0.02477553 -0.02482916 -0.02488497 -0.02494199 -0.02499715 -0.02505007 -0.02509856 -0.02514267 -0.0251817
 -0.02521551 -0.02524359 -0.02526638 -0.02528335 -0.02529732 -0.02530922 -0.02532176 -0.02533649 -0.02535219 -0.02536933
 -0.02538343 -0.02539384 -0.0253987 -0.02539765 -0.02539448 -0.0253894 -0.02538704 -0.0253872 -0.02539024 -0.02539554
 -0.02540029 -0.02540442 -0.02540602 -0.02540588 -0.02540463 -0.02540303 -0.02540267 -0.02540303 -0.02540459 -0.02540543
 -0.02540445 -0.02540041 -0.02539188 -0.02538083 -0.02536692 -0.02535502 -0.02534603 -0.02534334 -0.0253478 -0.02535828
 -0.02537484 -0.02539342 -0.02541382 -0.0254327 -0.02545008 -0.02546472 -0.02547694 -0.02548734 -0.02549646 -0.02550623
 -0.02551702 -0.0255307 -0.02554694 -0.02556656 -0.02558785 -0.02560951 -0.0256301 -0.02564804 -0.02566344 -0.02567584
 -0.02568616 -0.0256949 -0.02570117 -0.02570512 -0.02570423 -0.02569806 -0.02568606 -0.02566801 -0.02564738 -0.02562443
 -0.02560529 -0.02559024 -0.02558459 -0.02558816 -0.02560318 -0.02562868 -0.02566331 -0.02570527 -0.02575061 -0.02579729
 -0.02584073 -0.02587985 -0.02591161 -0.02593692 -0.02595508 -0.02596851 -0.02597801 -0.0259859 -0.02599327 -0.02600042
 -0.02600782 -0.02601402 -0.02601893 -0.02602121 -0.02602072 -0.02601783 -0.02601259 -0.02600684 -0.02600078 -0.02599706
 -0.02599575 -0.02599884 -0.02600572 -0.02601574 -0.02602776 -0.02603897 -0.02604885 -0.02605505 -0.0260585 -0.02605906
 -0.02605835 -0.02605739 -0.02605745 -0.02605923 -0.02606398 -0.02607231 -0.02608469 -0.02610177 -0.0261209 -0.02614212
 -0.02616015 -0.02617448 -0.02618268 -0.02618471 -0.02618388 -0.02618057 -0.02618003 -0.0261819 -0.02618735 -0.02619515
 -0.02620196 -0.02620725 -0.02620785 -0.02620493 -0.02619837 -0.0261907 -0.02618458 -0.02618134 -0.02618316 -0.02618892
 -0.02619899 -0.02621075 -0.02622335 -0.02623527 -0.02624583 -0.02625561 -0.02626458 -0.02627366 -0.02628296 -0.02629241
 -0.02630198 -0.02631066 -0.02631846 -0.02632496 -0.02633032 -0.02633492 -0.02633909 -0.02634412 -0.02635013 -0.02635807
 -0.02636773 -0.02637932 -0.02639227 -0.02640629 -0.0264203 -0.02643366 -0.02644489 -0.02645307 -0.02645751 -0.02645721
 -0.02645457 -0.02644951 -0.02644665 -0.0264467 -0.02645237 -0.02646411 -0.02648084 -0.0265025 -0.02652568 -0.02655024
 -0.02657343 -0.02659509 -0.02661293 -0.02662692 -0.02663541 -0.0266393 -0.02663939 -0.02663743 -0.02663667 -0.02663755
 -0.02664239 -0.02664916 -0.02665724 -0.0266644 -0.02666897 -0.02667115 -0.02667036 -0.02666845 -0.02666592 -0.0266631
 -0.02666013 -0.02665689 -0.02665326 -0.02665143 -0.02665154 -0.02665757 -0.02666949 -0.02668827 -0.02671298 -0.02673913
 -0.02676561 -0.02678591 -0.02680034 -0.0268059 -0.02680465 -0.02679828 -0.02678925 -0.02678118 -0.02677479 -0.02677212
 -0.02677179 -0.02677377 -0.02677615 -0.02677818 -0.02677893 -0.02677795 -0.02677524 -0.02677064 -0.02676511 -0.02675868
 -0.02675288 -0.0267478 -0.02674463 -0.02674332 -0.02674356 -0.02674522 -0.02674731 -0.02674999 -0.02675336 -0.02675759
 -0.02676319 -0.02676998 -0.02677816 -0.02678679 -0.02679507 -0.0268019 -0.02680607 -0.02680725 -0.02680457 -0.02679953
 -0.02679213 -0.02678528 -0.0267798 -0.02677719 -0.02677817 -0.02678063 -0.02678453 -0.02678676 -0.02678712 -0.02678568
 -0.02678262 -0.0267809 -0.02678058 -0.02678382 -0.0267901 -0.02679884 -0.02680904 -0.0268179 -0.02682505 -0.02682827
 -0.02682874 -0.02682643 -0.02682419 -0.02682446 -0.02682851 -0.02683865 -0.02685156 -0.02686717 -0.02687984 -0.02688778
 -0.02688944 -0.02688373 -0.0268746 -0.02686219 -0.02685138 -0.02684245 -0.02683748 -0.02683643 -0.02683931 -0.02684592
 -0.02685552 -0.02686738 -0.02687849 -0.02688836 -0.02689389 -0.02689606 -0.02689479 -0.02689197 -0.02689014 -0.02688933
 -0.02689106 -0.02689269 -0.02689304 -0.02689066 -0.02688419 -0.02687555 -0.02686488 -0.02685448 -0.02684487 -0.0268366
 -0.02682978 -0.0268244 -0.02682044 -0.02681931 -0.02682102 -0.02682625 -0.02683466 -0.02684455 -0.02685542 -0.02686443
 -0.02687141 -0.02687429 -0.02687371 -0.02686935 -0.02686312 -0.02685692 -0.02685294 -0.02685408 -0.02686008 -0.02687248
 -0.02688717 -0.02690336 -0.02691599 -0.02692333 -0.02692365 -0.02691595 -0.02690271 -0.02688386 -0.02686404 -0.02684349
 -0.02682695 -0.02681453 -0.02680863 -0.02680871 -0.02681267 -0.02681958 -0.02682467 -0.02682775 -0.02682569 -0.02681949
 -0.02680948 -0.02679671 -0.0267827 -0.0267678 -0.02675262 -0.02673784 -0.02672369 -0.02671175 -0.02670266 -0.02669756
 -0.02669712 -0.02670074 -0.02670865 -0.02671865 -0.02673061 -0.02674205 -0.02675281 -0.02676059 -0.02676535 -0.02676624
 -0.02676346 -0.02675806 -0.0267504 -0.02674241 -0.02673422 -0.02672715 -0.02672107 -0.02671621 -0.0267128 -0.02671116
 -0.02671166 -0.02671497 -0.02672048 -0.02672822 -0.02673687 -0.02674584 -0.02675449 -0.0267623 -0.02677036 -0.0267787
 -0.02678861 -0.02680028 -0.02681403 -0.02682988 -0.02684832 -0.02686944 -0.02689512 -0.02692554 -0.02696327 -0.02700795
 -0.0270601 -0.02711771 -0.02717669 -0.02723293 -0.0272771 -0.02730633 -0.02731173 -0.02729665 -0.02725949 -0.02720884
 -0.02714924 -0.02708745 -0.02702763 -0.02697202 -0.02692182 -0.02687869 -0.02684287 -0.02681687 -0.02680115 -0.02679577
 -0.02680094 -0.0268108 -0.02682497 -0.02683584 -0.02684354 -0.02684558 -0.02684256 -0.02683581 -0.02682519 -0.02681046
 -0.02679232 -0.0267712 -0.02674966 -0.02673152 -0.02671761 -0.02671113 -0.02670857 -0.02670885 -0.0267085 -0.02670504
 -0.02669979 -0.02669238 -0.02668567 -0.02668056 -0.02667612 -0.02667256 -0.02666652 -0.02665775 -0.02664558 -0.02663011
 -0.02661351 -0.02659594 -0.02657974 -0.02656494 -0.02655286 -0.02654341 -0.02653731 -0.02653393 -0.0265326 -0.02653238
 -0.02653166 -0.02652996 -0.02652595 -0.02652056 -0.02651374 -0.02650726 -0.02650196 -0.0264987 -0.02649827 -0.02649915
 -0.02650145 -0.02650199 -0.02650034 -0.02649495 -0.02648559 -0.02647429 -0.02646119 -0.02644981 -0.02644012 -0.02643367
 -0.02643006 -0.02642832 -0.02642819 -0.02642842 -0.02642897 -0.02642927 -0.02642907 -0.02642777 -0.02642529 -0.02642107
 -0.02641613 -0.02641075 -0.02640649 -0.02640441 -0.02640431 -0.02640681 -0.02640926 -0.02641135 -0.02641019 -0.02640526
 -0.02639599 -0.02638221 -0.02636573 -0.02634668 -0.02632845 -0.02631124 -0.02629842 -0.02628989 -0.0262873 -0.02628987
 -0.02629635 -0.02630559 -0.02631457 -0.02632286 -0.02632833 -0.02633186 -0.02633352 -0.02633421 -0.02633482 -0.02633504
 -0.02633504 -0.02633406 -0.02633182 -0.02632815 -0.02632281 -0.02631691 -0.02631052 -0.02630499 -0.02630042 -0.02629755
 -0.02629639 -0.02629668 -0.02629827 -0.02629973 -0.0263009 -0.02630011 -0.02629755 -0.02629277 -0.02628637 -0.02627934
 -0.02627233 -0.02626685 -0.02626273 -0.0262606 -0.0262593 -0.02625836 -0.02625646 -0.02625266 -0.02624701 -0.02623904
 -0.02623042 -0.02622141 -0.02621353 -0.02620716 -0.02620207 -0.02619829 -0.02619458 -0.02619089 -0.02618664 -0.02618185
 -0.02617646 -0.02617043 -0.02616344 -0.02615568 -0.0261473 -0.02613907 -0.02613277 -0.02612873 -0.02612873 -0.02613119
 -0.0261356 -0.02613931 -0.02613991 -0.02613701 -0.02612915 -0.02611922 -0.02610767 -0.02609766 -0.02609029 -0.02608531
 -0.02608303 -0.02608105 -0.02607914 -0.02607656 -0.02607329 -0.02607061 -0.02606849 -0.0260675 -0.02606723 -0.02606582
 -0.0260632 -0.02605792 -0.02605088 -0.02604322 -0.02603593 -0.02603132 -0.02602889 -0.02602929 -0.02603096 -0.02603289
 -0.0260342 -0.02603396 -0.02603275 -0.02603042 -0.02602828 -0.02602666 -0.02602618 -0.02602714 -0.02602848 -0.02603025
 -0.02602977 -0.02602693 -0.02602005 -0.02600938 -0.02599709 -0.02598362 -0.02597274 -0.02596407 -0.02595848 -0.02595509
 -0.02595205 -0.02594956 -0.02594682 -0.02594501 -0.02594535 -0.02594789 -0.02595355 -0.02596042 -0.02596773 -0.02597425
 -0.02597912 -0.025983 -0.02598581 -0.02598875 -0.02599209 -0.02599584 -0.02600013 -0.02600329 -0.02600522 -0.02600396
 -0.02599949 -0.02599083 -0.02597834 -0.02596341 -0.02594667 -0.025931 -0.0259165 -0.02590489 -0.02589577 -0.02588936
 -0.02588513 -0.0258826 -0.0258814 -0.02588123 -0.02588152 -0.02588193 -0.02588212 -0.02588186 -0.02588108 -0.0258797
 -0.02587786 -0.02587556 -0.02587282 -0.02586962 -0.02586604 -0.0258621 -0.02585775 -0.02585298 -0.02584769 -0.02584202
 -0.02583672 -0.02583208 -0.02582963 -0.02582913 -0.02583119 -0.02583448 -0.02583718 -0.02583821 -0.02583522 -0.02582921
 -0.02581973 -0.02580946 -0.02579963 -0.02579233 -0.02578877 -0.02578907 -0.02579362 -0.02580121 -0.02581193 -0.02582316
 -0.02583481 -0.02584317 -0.02584805 -0.02584653 -0.02583879 -0.02582608 -0.02580909 -0.02579265 -0.02577701 -0.02576588
 -0.02575841 -0.02575454 -0.02575315 -0.02575209 -0.02575142 -0.02575029 -0.02574931 -0.0257489 -0.02574887 -0.02574953
 -0.02574959 -0.02574876 -0.02574549 -0.02573923 -0.02572971 -0.02571657 -0.02570158 -0.0256847 -0.02566963 -0.02565658
 -0.0256484 -0.02564498 -0.02564558 -0.02564963 -0.02565327 -0.02565621 -0.02565512 -0.02565081 -0.02564339 -0.02563419
 -0.02562553 -0.02561802 -0.02561352 -0.02561145 -0.02561205 -0.02561442 -0.02561815 -0.02562258 -0.02562749 -0.02563193
 -0.02563578 -0.02563766 -0.02563724 -0.02563422 -0.02562839 -0.02562181 -0.02561458 -0.02560935 -0.0256061 -0.02560502
 -0.02560575 -0.02560595 -0.02560535 -0.02560156 -0.025595 -0.02558533 -0.02557349 -0.02556087 -0.02554827 -0.02553733
 -0.02552809 -0.02552116 -0.02551633 -0.0255136 -0.0255129 -0.02551423 -0.02551758 -0.02552324 -0.02552968 -0.02553692
 -0.02554195 -0.02554446 -0.02554249 -0.02553589 -0.025526 -0.025513 -0.02550003 -0.02548724 -0.02547716 -0.02546963
 -0.02546537 -0.02546399 -0.02546508 -0.02546791 -0.02547116 -0.02547387 -0.02547432 -0.02547204 -0.02546589 -0.02545649
 -0.02544365 -0.02542884 -0.02541238 -0.02539623 -0.02538092 -0.02536807 -0.02535811 -0.02535138 -0.02534813 -0.02534656
 -0.02534659 -0.02534559 -0.02534351 -0.02533891 -0.02533206 -0.02532393 -0.02531507 -0.02530804 -0.02530311 -0.02530254
 -0.02530562 -0.02531248 -0.02532146 -0.02533071 -0.0253386 -0.0253429 -0.02534355 -0.02533945 -0.0253327 -0.02532373
 -0.02531481 -0.02530678 -0.02530028 -0.02529577 -0.02529183 -0.02528835 -0.02528413 -0.02527904 -0.02527404 -0.02526926
 -0.02526713 -0.02526757 -0.02527134 -0.02527781 -0.02528476 -0.02529158 -0.02529523 -0.02529621 -0.02529374 -0.02528926
 -0.02528431 -0.02527984 -0.02527756 -0.02527671 -0.0252775 -0.02527849 -0.02527912 -0.02527844 -0.02527606 -0.02527151
 -0.02526462 -0.02525532 -0.0252434 -0.0252307 -0.02521727 -0.02520633 -0.02519794 -0.02519342 -0.0251923 -0.02519181
 -0.02519145 -0.0251873 -0.02517995 -0.0251686 -0.02515502 -0.02514213 -0.02513119 -0.02512545 -0.02512418 -0.02512849
 -0.02513546 -0.02514392 -0.02515064 -0.02515373 -0.02515234 -0.02514538 -0.02513518 -0.02512184 -0.02510827 -0.02509486
 -0.02508307 -0.02507307 -0.02506461 -0.02505768 -0.02505182 -0.02504704 -0.02504307 -0.02503997 -0.02503781 -0.02503655
 -0.02503623 -0.02503659 -0.02503726 -0.0250379 -0.02503787 -0.02503707 -0.02503509 -0.02503234 -0.02502904 -0.0250251
 -0.0250206 -0.0250151 -0.02500836 -0.02500069 -0.02499199 -0.02498362 -0.02497576 -0.02496891 -0.02496313 -0.02495748
 -0.02495192 -0.02494559 -0.02493862 -0.02493155 -0.02492463 -0.02491924 -0.02491542 -0.02491421 -0.02491493 -0.0249171
 -0.02491926 -0.02491916 -0.02491597 -0.02490767 -0.02489536 -0.02487876 -0.02486039 -0.02484125 -0.0248234 -0.02480776
 -0.02479495 -0.02478533 -0.02477857 -0.02477474 -0.02477298 -0.02477327 -0.02477409 -0.02477533 -0.02477466 -0.02477187
 -0.02476417 -0.02475169 -0.02473327 -0.02470979 -0.02468307 -0.02465432 -0.0246267 -0.02460115 -0.02458036 -0.0245645
 -0.02455476 -0.02455073 -0.02455306 -0.02455919 -0.02456889 -0.0245771 -0.0245823 -0.02458075 -0.02457079 -0.02455454
 -0.02453167 -0.02450819 -0.02448457 -0.02446461 -0.02444838 -0.02443437 -0.02442235 -0.0244094 -0.0243959 -0.02438203
 -0.02436846 -0.02435748 -0.02434885 -0.0243435 -0.02433999 -0.02433668 -0.02433242 -0.02432535 -0.02431551 -0.02430222
 -0.02428641 -0.02426826 -0.02424886 -0.02422855 -0.02420824 -0.02418811 -0.02416907 -0.02415127 -0.02413516 -0.02412083
 -0.02410778 -0.02409592 -0.02408283 -0.02406833 -0.02404956 -0.0240268 -0.02399956 -0.02396894 -0.02393807 -0.02390769
 -0.02388108 -0.02385766 -0.02383831 -0.02382136 -0.0238056 -0.02378944 -0.02377144 -0.02375064 -0.02372623 -0.02369789
 -0.02366556 -0.02362821 -0.02358572 -0.02353643 -0.02348002 -0.02341584 -0.0233437 -0.02326519 -0.02318038 -0.02309065
 -0.022996 -0.02289652 -0.02279267 -0.02268611 -0.02257874 -0.02247718 -0.02238359 -0.02230604 -0.02224476 -0.02220442
 -0.02218197 -0.02217705 -0.02218366 -0.02219819 -0.02221427 -0.02222802 -0.02223561 -0.02223473 -0.0222248 -0.022205
 -0.02217745 -0.02214214 -0.02210248 -0.02205874 -0.02201332 -0.0219663 -0.02191776 -0.02186757 -0.0218145 -0.0217585
 -0.02169869 -0.02163512 -0.02156744 -0.02149566 -0.02141947 -0.02133934 -0.02125561 -0.02116952 -0.02108279 -0.02099518
 -0.02090818 -0.0208174 -0.02072214 -0.02061484 -0.02049279 -0.02035106 -0.02018711 -0.0200041 -0.01980145 -0.01958833
 -0.01936537 -0.01914098 -0.0189156 -0.01869453 -0.01847775 -0.01826723 -0.01806208 -0.01785913 -0.01765661 -0.01744651
 -0.01722891 -0.01699854 -0.01676011 -0.0165184 -0.01627752 -0.01604502 -0.01581865 -0.0155999 -0.01538347 -0.0151668
 -0.01494728 -0.01472313 -0.01449469 -0.01426169 -0.01402499 -0.01378459 -0.01354172 -0.01329644 -0.01305054 -0.01280413
 -0.01255732 -0.0123103 -0.01206438 -0.01182094 -0.01158792 -0.01136735 -0.01117069 -0.01099823 -0.01085663 -0.01074434
 -0.0106625 -0.01060753 -0.01057708 -0.0105649 -0.01056592 -0.01057488 -0.01058763 -0.01060213 -0.01061718 -0.01063035
 -0.01064111 -0.01064641 -0.01064539 -0.01063888 -0.01062662 -0.01061338 -0.01059942 -0.01058902 -0.01058221 -0.01058043
 -0.01058348 -0.01059069 -0.0106022 -0.01061796 -0.01063858 -0.01066514 -0.01069874 -0.01074143 -0.01079434 -0.01086005
 -0.01093751 -0.01102765 -0.01112637 -0.01123207 -0.01134051 -0.01144955 -0.01155785 -0.01166481 -0.01176963 -0.01187252
 -0.01196991 -0.01206161 -0.01214306 -0.012214 -0.0122733 -0.01232114 -0.01235986 -0.01238961 -0.01241281 -0.01242906
 -0.01243841 -0.01244023 -0.01243301 -0.0124166 -0.0123901 -0.01235362 -0.01230719 -0.01225013 -0.0121824 -0.01210185
 -0.01200769 -0.01189709 -0.01176928 -0.01162059 -0.01145088 -0.01125287 -0.01102645 -0.0107581 -0.01044681 -0.01007778
 -0.00965005 -0.009161594 -0.008614018 -0.008027625 -0.007407893 -0.006795488 -0.006200468 -0.005679029 -0.005242281 -0.00494813
 -0.004794224 -0.004808773 -0.004967946 -0.005259658 -0.005649603 -0.006110958 -0.006605918 -0.007109575 -0.007588896 -0.008024061
 -0.008406167 -0.008726428 -0.009000083 -0.00922795 -0.009426375 -0.00959796 -0.009741758 -0.00985794 -0.009934446 -0.009971136
 -0.009964311 -0.009914688 -0.009825955 -0.009697028 -0.009526591 -0.009311285 -0.009042067 -0.008716662 -0.008324565 -0.007872124
 -0.007354126 -0.006803245 -0.006229068 -0.005707595 -0.005276191 -0.005015379 -0.004974864 -0.005155243 -0.005577963 -0.006165025
 -0.006911301 -0.007722239 -0.008588847 -0.00942983 -0.01023964 -0.01096945 -0.0116191 -0.01218279 -0.01266385 -0.01308124
 -0.01343722 -0.01375017 -0.01402066 -0.01425857 -0.01446526 -0.01464655 -0.01480614 -0.01494975 -0.01508303 -0.01521237
 -0.01534191 -0.01547613 -0.0156156 -0.01576179 -0.01591334 -0.01607053 -0.01623031 -0.0163932 -0.01654964 -0.01669907
 -0.01682911 -0.01693883 -0.0170272 -0.01709469 -0.01715023 -0.0171942 -0.01723376 -0.01726814 -0.01729821 -0.01732259
 -0.01733844 -0.01734401 -0.01733551 -0.01731009 -0.01726346 -0.01719151 -0.01709008 -0.0169542 -0.01678061 -0.01656364
 -0.01630096 -0.01598642 -0.01561832 -0.01519076 -0.01470267 -0.01414895 -0.01352947 -0.01283485 -0.01206471 -0.0111993
 -0.01023819 -0.009169327 -0.007999869 -0.006769556 -0.005497461 -0.004280156 -0.003136858 -0.002168758 -0.001381725 -0.0008398782
 -0.0005217637 -0.0004367433 -0.0005308602 -0.0007646465 -0.001084022 -0.001441922 -0.00182083 -0.002199371 -0.002588706 -0.002988823
 -0.00340668 -0.003845284 -0.004296804 -0.004761187 -0.005226654 -0.0056925 -0.006147134 -0.00659001 -0.00701128 -0.007411249
 -0.00778735 -0.008140711 -0.008474641 -0.008790039 -0.009090673 -0.009377703 -0.009654523 -0.009923161 -0.0101876 -0.01044913
 -0.0107109 -0.01097127 -0.01123147 -0.01148499 -0.01173109 -0.01195785 -0.01216244 -0.01233302 -0.01246593 -0.01256044
 -0.0126149 -0.01264241 -0.01264352 -0.01263606 -0.01262082 -0.0126111 -0.01260691 -0.01261429 -0.01263296 -0.01266445
 -0.01270952 -0.01277086 -0.01284996 -0.01295157 -0.01307482 -0.01322196 -0.01338742 -0.01356825 -0.01375578 -0.01394405
 -0.01412639 -0.0142979 -0.01445776 -0.01460409 -0.01474101 -0.01486921 -0.01499077 -0.01510667 -0.01521146 -0.01530502
 -0.01537657 -0.01542557 -0.01544284 -0.01542788 -0.01537297 -0.01527703 -0.01513102 -0.01493413 -0.01467844 -0.01436612
 -0.01399538 -0.01357448 -0.01310898 -0.01261975 -0.01212042 -0.01165124 -0.01123613 -0.01092244 -0.01073986 -0.01070361
 -0.01083441 -0.01108447 -0.01145551 -0.01185744 -0.01228043 -0.01264958 -0.01295767 -0.01317952 -0.01331485 -0.01337743
 -0.01337067 -0.01332698 -0.01325249 -0.01319123 -0.01314947 -0.01317149 -0.01325267 -0.0134106 -0.0136231 -0.01387003
 -0.01412404 -0.01435079 -0.01453638 -0.01466001 -0.01472251 -0.01471811 -0.01465505 -0.01453016 -0.01437196 -0.01417919
 -0.01401489 -0.0138851 -0.01385466 -0.0139307 -0.01411825 -0.01441582 -0.01475749 -0.01513796 -0.01548014 -0.01578632
 -0.01602524 -0.01620562 -0.01633761 -0.01642717 -0.01649152 -0.01653226 -0.01655841 -0.01657103 -0.01657402 -0.01656858
 -0.01655664 -0.01653873 -0.01651534 -0.01648748 -0.01645508 -0.01642106 -0.01638592 -0.01635231 -0.01632086 -0.0162912
 -0.01626343 -0.01623482 -0.01620523 -0.01617287 -0.01613797 -0.01610195 -0.01606541 -0.0160322 -0.0160025 -0.01597927
 -0.01596154 -0.01594909 -0.01594017 -0.01593216 -0.01592401 -0.01591367 -0.01590092 -0.01588558 -0.01586566 -0.01584153
 -0.01580649 -0.01575977 -0.01569038 -0.0155963 -0.01546731 -0.01530142 -0.01509503 -0.01484713 -0.01456587 -0.01425199
 -0.01392899 -0.01359996 -0.01330347 -0.01304377 -0.01286361 -0.01276345 -0.01277027 -0.01287504 -0.01307554 -0.01335297
 -0.01368145 -0.01403939 -0.01439599 -0.01473584 -0.01503821 -0.01529825 -0.01550744 -0.01566989 -0.01578414 -0.01585956
 -0.01589701 -0.01590886 -0.01589637 -0.01587313 -0.0158403 -0.01580904 -0.01577993 -0.01575836 -0.01574402 -0.01573563
 -0.01573228 -0.01572878 -0.01572424 -0.01571313 -0.01569515 -0.01566671 -0.0156285 -0.01557939 -0.01552191 -0.01545721
 -0.01539079 -0.01532626 -0.01526978 -0.01522584 -0.01519585 -0.01518208 -0.01518028 -0.01518953 -0.01520829 -0.01523534
 -0.01527765 -0.01533566 -0.01541634 -0.01551995 -0.0156408 -0.01577753 -0.01591275 -0.01604548 -0.01616066 -0.01625967
 -0.01633877 -0.01640081 -0.01645036 -0.01648914 -0.01652223 -0.01654918 -0.01657168 -0.01658805 -0.01659709 -0.0165991
 -0.0165928 -0.0165831 -0.01657088 -0.0165624 -0.01655967 -0.01656431 -0.01657739 -0.01659455 -0.01661563 -0.01663449
 -0.01665078 -0.01666053 -0.01666373 -0.01665908 -0.01664693 -0.01662825 -0.01660364 -0.01657562 -0.01654437 -0.01651162
 -0.01647703 -0.01644072 -0.01640266 -0.01636261 -0.01632141 -0.01627945 -0.01623783 -0.01619722 -0.01615821 -0.01612156
 -0.0160857 -0.01605093 -0.01601292 -0.01597128 -0.01592097 -0.01586134 -0.01579108 -0.01571012 -0.01562185 -0.01552653
 -0.01542814 -0.01532658 -0.01522316 -0.01511764 -0.01500985 -0.01489989 -0.01478809 -0.0146741 -0.01455811 -0.01443808
 -0.01431279 -0.01417764 -0.01402992 -0.01386241 -0.01367207 -0.01344872 -0.01318905 -0.01288196 -0.01252325 -0.0121109
 -0.01164092 -0.01113692 -0.01059836 -0.01007817 -0.009579262 -0.009158853 -0.008817967 -0.008584205 -0.008453402 -0.008415732
 -0.008464937 -0.008574555 -0.008738753 -0.0089329 -0.009148381 -0.009363122 -0.009563538 -0.00972734 -0.009840937 -0.009886581
 -0.009856883 -0.009743487 -0.009542875 -0.009253385 -0.008867446 -0.00838357 -0.0077925 -0.007090751 -0.006285195 -0.005373719
 -0.004395341 -0.003351978 -0.002305517 -0.001259107 -0.0002685927 0.0006646748 0.001505432 0.002251734 0.002878871 0.003382526
 0.003739141 0.003947667 0.003993602 0.003883946 0.003618845 0.003212213 0.002671619 0.002019252 0.001263291 0.0004409659
 -0.0004371793 -0.001323475 -0.002205313 -0.003044582 -0.003832059 -0.004553569 -0.005205931 -0.005792741 -0.006313995 -0.006777642
 -0.007184088 -0.007540013 -0.007846193 -0.008110368 -0.008334335 -0.008528653 -0.00869551 -0.008845691 -0.00898027 -0.009106041
 -0.009222855 -0.009333007 -0.009436439 -0.009533688 -0.009625073 -0.009711185 -0.009791159 -0.00986522 -0.009930753 -0.009987216
 -0.01003231 -0.01006569 -0.01008539 -0.0100917 -0.01007713 -0.01004141 -0.009966977 -0.0098531 -0.009683866 -0.009462884
 -0.009202472 -0.008914904 -0.008652924 -0.008429787 -0.008310176 -0.008290076 -0.008399481 -0.008609078 -0.00889952 -0.009232598
 -0.009568918 -0.009886432 -0.01015867 -0.01038753 -0.01056613 -0.0107077 -0.01081419 -0.01089756 -0.01096013 -0.01100979
 -0.01104765 -0.01107856 -0.0111029 -0.01112352 -0.01114057 -0.01115695 -0.01117298 -0.01119247 -0.0112155 -0.01124484
 -0.01127963 -0.01131935 -0.01136259 -0.01140643 -0.0114503 -0.01149226 -0.0115323 -0.01156989 -0.01160474 -0.01163646
 -0.01166519 -0.01169004 -0.01171476 -0.01173934 -0.01177123 -0.01181182 -0.01186606 -0.01193528 -0.01201565 -0.01210717
 -0.01219962 -0.01229261 -0.01237891 -0.01245921 -0.01253513 -0.01260781 -0.0126833 -0.01276117 -0.01284373 -0.01292899
 -0.01301404 -0.01309809 -0.01317836 -0.01325637 -0.01333264 -0.01340821 -0.01348457 -0.01355967 -0.01363328 -0.01370265
 -0.01376689 -0.01382475 -0.01387601 -0.0139192 -0.01395422 -0.01397906 -0.01399352 -0.01399891 -0.01399551 -0.01398934
 -0.01398062 -0.01397416 -0.01396914 -0.01396478 -0.01396004 -0.01395147 -0.01393893 -0.01392087 -0.01389676 -0.01386596
 -0.01382608 -0.01377561 -0.01371005 -0.01362652 -0.01352086 -0.01338964 -0.01323465 -0.01305335 -0.01285994 -0.0126547
 -0.01246183 -0.012284 -0.01214118 -0.01203537 -0.01196802 -0.01193855 -0.01193045 -0.01194207 -0.01195242 -0.01196134
 -0.01195638 -0.01193965 -0.01190989 -0.01187088 -0.0118284 -0.01178756 -0.01175677 -0.01174147 -0.01174985 -0.01178416
 -0.01184988 -0.01194125 -0.01205948 -0.01218958 -0.01232877 -0.01245952 -0.01257767 -0.01267398 -0.01274578 -0.01279885
 -0.01283303 -0.01286455 -0.01289415 -0.01293536 -0.01298758 -0.01305219 -0.01312722 -0.01320446 -0.01328273 -0.01335408
 -0.01341913 -0.01347548 -0.01352398 -0.01356511 -0.0135986 -0.01362428 -0.01364209 -0.0136514 -0.01365429 -0.01365093
 -0.0136454 -0.01363878 -0.01363478 -0.01363455 -0.01363882 -0.01364814 -0.0136596 -0.01367313 -0.01368385 -0.01369151
 -0.01369215 -0.01368588 -0.01367169 -0.01365026 -0.01362387 -0.01359388 -0.01356541 -0.01353965 -0.0135221 -0.01351152
 -0.01350956 -0.01351153 -0.01351385 -0.01351187 -0.01350071 -0.01348037 -0.01344883 -0.01341039 -0.0133656 -0.01331961
 -0.01327333 -0.01323157 -0.01319503 -0.01316729 -0.01314891 -0.01313723 -0.0131319 -0.01312224 -0.01310784 -0.01307971
 -0.01303949 -0.01299009 -0.01293403 -0.01288129 -0.01283134 -0.01278876 -0.01274995 -0.01271161 -0.01267113 -0.01262431
 -0.01257121 -0.0125105 -0.0124431 -0.01236886 -0.01228947 -0.0122052 -0.01211839 -0.01203019 -0.01193852 -0.01184438
 -0.01173577 -0.01161225 -0.01145557 -0.01126483 -0.01102553 -0.01073838 -0.01040213 -0.01002198 -0.009618806 -0.009205594
 -0.008830335 -0.008509776 -0.008304626 -0.008217603 -0.008287376 -0.008484566 -0.00880255 -0.009187179 -0.009601091 -0.009999922
 -0.01034902 -0.0106421 -0.01086607 -0.01104284 -0.01117469 -0.01128113 -0.01136607 -0.0114329 -0.0114823 -0.01151381
 -0.01152759 -0.01153215 -0.01152828 -0.01152809 -0.01153077 -0.01153928 -0.01155061 -0.01155652 -0.01155507 -0.01153679
 -0.01150452 -0.01145721 -0.01140125 -0.01134295 -0.01128664 -0.01123847 -0.01119663 -0.01116243 -0.01113096 -0.0111006
 -0.01106898 -0.01103485 -0.0109997 -0.01096334 -0.01092915 -0.01089732 -0.01087176 -0.01085268 -0.01084316 -0.0108428
 -0.01084894 -0.01086001 -0.01086624 -0.01086653 -0.01085104 -0.01082202 -0.01077838 -0.01072568 -0.01067184 -0.01062122
 -0.01058251 -0.01055451 -0.01054038 -0.01053352 -0.01053196 -0.01052867 -0.01052051 -0.01050477 -0.01047972 -0.0104477
 -0.01040851 -0.01036704 -0.01032367 -0.01028244 -0.01024356 -0.01020864 -0.01017757 -0.01014956 -0.01012441 -0.01010043
 -0.01007769 -0.01005542 -0.0100339 -0.01001359 -0.009994084 -0.009975442 -0.009955916 -0.009933809 -0.009907309 -0.009874263
 -0.009834586 -0.009787261 -0.009734239 -0.009675735 -0.009614365 -0.009550507 -0.009487448 -0.00942554 -0.009368669 -0.009317332
 -0.009272614 -0.009234571 -0.009197989 -0.009162344 -0.009119478 -0.009069448 -0.009008292 -0.00893674 -0.008855598 -0.008764613
 -0.008663621 -0.008552094 -0.008428218 -0.008294234 -0.008151271 -0.008003286 -0.007854224 -0.007704668 -0.007556219 -0.007407451
 -0.007256256 -0.007110207 -0.006968088 -0.006851138 -0.00676194 -0.006720382 -0.006729688 -0.006786753 -0.006891555 -0.007015988
 -0.007158175 -0.007286187 -0.007400264 -0.007484876 -0.007542972 -0.00757664 -0.007588558 -0.007586066 -0.007570388 -0.007546084
 -0.007515337 -0.007481219 -0.00744858 -0.00742219 -0.007405058 -0.007401315 -0.007407294 -0.007423602 -0.007442161 -0.007461056
 -0.007474942 -0.007482297 -0.007483247 -0.007477461 -0.007468238 -0.007455742 -0.007443788 -0.007432485 -0.007424404 -0.007419077
 -0.007415507 -0.007412125 -0.007403038 -0.007386298 -0.007353777 -0.007305732 -0.00723758 -0.007154111 -0.00705773 -0.006956607
 -0.006857849 -0.006767445 -0.006691067 -0.006629694 -0.006585477 -0.006555694 -0.006541059 -0.006533674 -0.006533119 -0.006527541
 -0.006515435 -0.006492278 -0.006457653 -0.006417139 -0.006371314 -0.006329915 -0.006293209 -0.006268397 -0.006254025 -0.006249027
 -0.006250725 -0.006251484 -0.006250805 -0.006243198 -0.00623245 -0.006220241 -0.006211873 -0.006213044 -0.006224413 -0.00624969
 -0.00628152 -0.006319007 -0.006351607 -0.006376193 -0.006387128 -0.006382049 -0.006365215 -0.006336292 -0.006306021 -0.006275036
 -0.006251531 -0.006235436 -0.006226083 -0.006222964 -0.006221669 -0.006223401 -0.006230108 -0.006244067 -0.006273304 -0.006316056
 -0.006375305 -0.006442183 -0.006507339 -0.00656344 -0.006598503 -0.006617939 -0.006619713 -0.006616391 -0.006613018 -0.006615759
 -0.006628286 -0.006647656 -0.006674893 -0.006699804 -0.006721822 -0.006728 -0.006717387 -0.006686788 -0.006636875 -0.006579728
 -0.006516689 -0.006463281 -0.006419015 -0.006390669 -0.006375943 -0.006373191 -0.006378419 -0.006385161 -0.006386902 -0.00637334
 -0.006339328 -0.006274678 -0.006184836 -0.006066739 -0.005938539 -0.005805543 -0.005686129 -0.005587632 -0.00551396 -0.005468533
 -0.005440212 -0.005428651 -0.005419027 -0.005410329 -0.005393625 -0.005368816 -0.005334475 -0.005291514 -0.005245062 -0.005197054
 -0.00515814 -0.00512947 -0.005121175 -0.005129307 -0.00515358 -0.005184131 -0.005208552 -0.005219236 -0.005202363 -0.00516401
 -0.005100559 -0.005030894 -0.004961576 -0.004907561 -0.004876734 -0.004864556 -0.004873441 -0.004883453 -0.004892559 -0.004886214
 -0.004862934 -0.004828297 -0.004783084 -0.004744472 -0.00471247 -0.004695832 -0.004692056 -0.004695487 -0.004703495 -0.00470582
 -0.004701875 -0.004685524 -0.004657977 -0.004617914 -0.004567899 -0.004509068 -0.004445674 -0.004379963 -0.004317165 -0.004259622
 -0.0042121 -0.00417667 -0.004154771 -0.004147776 -0.00415062 -0.004163119 -0.004178232 -0.004195296 -0.004214983 -0.004237594
 -0.004271437 -0.004315916 -0.004371393 -0.004434316 -0.004489521 -0.004533995 -0.004550222 -0.004540525 -0.004499892 -0.00443479
 -0.004351121 -0.004255648 -0.00415534 -0.004058388 -0.003970597 -0.00390146 -0.003857142 -0.003840017 -0.003853871 -0.003889176
 -0.003945479 -0.004010057 -0.004081284 -0.00415157 -0.004220434 -0.004276866 -0.004320684</values></Ydata></AB><ScSm><Ydata ylabel="Single channel"><values byteorder="INTEL" format="FLOAT32" numvalues="1814"> 0.07538359 0.07548474 0.07559632 0.07572607 0.07587019 0.07601517 0.07614695 0.0762614 0.07636391 0.0764578
 0.07654262 0.07662707 0.0767314 0.07686785 0.07702456 0.07717309 0.07729031 0.07737806 0.07746479 0.07757762
 0.07770538 0.07779806 0.07781363 0.07776481 0.07771251 0.07771073 0.07777112 0.07789578 0.07811273 0.07841393
 0.07867198 0.07872371 0.07857425 0.07842559 0.07845221 0.07862616 0.07879972 0.07886896 0.07881522 0.07869138
 0.07864148 0.07885443 0.07939257 0.08005376 0.08043565 0.08016764 0.07915629 0.07771873 0.07650858 0.07617538
 0.07689458 0.07817115 0.0792109 0.07956219 0.07935993 0.07898382 0.07866263 0.07847057 0.07850408 0.07886464
 0.07949379 0.08010666 0.08030389 0.07983519 0.07888277 0.07802592 0.07776718 0.07814394 0.07890867 0.07982795
 0.08045478 0.07990649 0.07764994 0.07468262 0.0732156 0.07462865 0.07802588 0.08116633 0.08250317 0.08200076
 0.08048327 0.07890856 0.07811324 0.07852927 0.07990552 0.08155736 0.08290718 0.08363359 0.08352862 0.08259961
 0.08126232 0.08016333 0.07981966 0.08046751 0.08196498 0.08364998 0.08460824 0.08439418 0.08336365 0.0822164
 0.08148193 0.08149642 0.08243296 0.0840942 0.08593 0.08744203 0.08844144 0.08894177 0.08903944 0.08889256
 0.088642 0.08839272 0.08831985 0.08857622 0.0889893 0.08910182 0.0886818 0.08803776 0.08770632 0.08790009
 0.08832689 0.08854182 0.0883874 0.08790881 0.08690067 0.08500871 0.08245926 0.0801707 0.07885517 0.07852034
 0.07905608 0.08053582 0.08250727 0.08377965 0.08362523 0.08276327 0.08258194 0.08363692 0.08530377 0.08668232
 0.08746924 0.08800524 0.08874486 0.08974403 0.09053347 0.09046742 0.08938511 0.08802054 0.08751512 0.08831249
 0.08972491 0.090776 0.0912251 0.09153232 0.09204733 0.09250267 0.09225026 0.09095767 0.08918662 0.08819149
 0.08888382 0.0909297 0.0929277 0.09346832 0.0921346 0.08972654 0.08759268 0.08666235 0.08708704 0.0886292
 0.09099357 0.09367675 0.09588592 0.09694175 0.09674829 0.09577674 0.09455064 0.09315741 0.09143479 0.08973119
 0.08910342 0.09032708 0.09289859 0.09543692 0.09695759 0.09741665 0.09714641 0.09618735 0.09438029 0.09206088
 0.09036769 0.09039593 0.09194908 0.09359166 0.09417525 0.09391251 0.09372127 0.09397399 0.09429544 0.09432955
 0.0942698 0.0945825 0.0954103 0.09638932 0.09703391 0.09718275 0.09703533 0.09686798 0.09677105 0.09659734
 0.09619261 0.09574731 0.09577772 0.09658124 0.0978346 0.09891883 0.09952782 0.09978628 0.09987122 0.09971107
 0.09910643 0.09812057 0.09726475 0.09713516 0.09783432 0.09889433 0.09977362 0.1002593 0.1004132 0.1003678
 0.1002373 0.1000872 0.09994844 0.0998963 0.1000408 0.1003799 0.1007542 0.1010048 0.1011051 0.1011033
 0.1010193 0.1008485 0.1006273 0.1004524 0.1004192 0.1005462 0.1007714 0.1010164 0.1012206 0.1013293
 0.1013106 0.1011978 0.1010692 0.1009773 0.1009268 0.1009173 0.1009658 0.1010752 0.1012094 0.1013176
 0.1013747 0.1013876 0.1013691 0.1013241 0.1012625 0.1012094 0.1011963 0.101241 0.1013308 0.1014287
 0.1015131 0.1016007 0.101708 0.101803 0.1018341 0.1017988 0.1017513 0.1017439 0.1017873 0.1018605
 0.1019337 0.1019771 0.1019643 0.1018903 0.1017964 0.1017587 0.1018313 0.1020062 0.1022383 0.1024837
 0.1027029 0.1028632 0.1029649 0.1030426 0.1031223 0.103196 0.1032474 0.1032871 0.1033526 0.1034792
 0.1036657 0.1038707 0.1040475 0.1041771 0.1042666 0.1043401 0.1044347 0.1045706 0.1047152 0.1048097
 0.1048453 0.1048805 0.1049708 0.1051032 0.1052167 0.105273 0.1052928 0.1053275 0.1054045 0.105508
 0.1056082 0.105699 0.1057995 0.1059216 0.1060398 0.1061041 0.10609 0.1060313 0.1059863 0.1059807
 0.1059994 0.1060297 0.1060814 0.106161 0.1062449 0.1062951 0.1062979 0.1062787 0.1062715 0.1062799
 0.1062766 0.1062404 0.1061805 0.1061237 0.106087 0.1060676 0.1060497 0.106018 0.1059663 0.1058974
 0.1058175 0.1057309 0.1056401 0.1055515 0.1054842 0.1054628 0.1054863 0.1055038 0.1054447 0.1052836
 0.1050672 0.1048714 0.1047362 0.1046438 0.1045491 0.1044231 0.1042699 0.1041138 0.1039748 0.1038572
 0.1037536 0.1036562 0.1035674 0.1035028 0.1034765 0.1034756 0.1034578 0.1033875 0.1032727 0.1031547
 0.1030676 0.1030154 0.1029851 0.1029645 0.1029511 0.1029525 0.1029759 0.103012 0.1030368 0.1030371
 0.1030273 0.1030361 0.1030863 0.1031848 0.1033156 0.1034394 0.1035202 0.1035609 0.1036005 0.1036737
 0.1037825 0.1039105 0.1040474 0.1041939 0.1043516 0.1045207 0.1047039 0.1049063 0.1051301 0.1053708
 0.105617 0.1058557 0.106083 0.1063102 0.1065571 0.1068353 0.1071372 0.1074436 0.1077398 0.1080277
 0.1083204 0.108625 0.1089359 0.1092459 0.109561 0.1098932 0.1102425 0.110596 0.1109443 0.1112894
 0.1116373 0.1119898 0.1123458 0.112706 0.1130774 0.1134673 0.1138699 0.1142595 0.1146089 0.1149176
 0.1152148 0.1155336 0.1158857 0.1162567 0.1166163 0.1169386 0.1172253 0.1175082 0.1178172 0.1181495
 0.1184823 0.1188108 0.1191581 0.1195408 0.1199354 0.12029 0.1205734 0.120806 0.1210388 0.1212999
 0.1215724 0.121824 0.122049 0.1222685 0.1224994 0.1227405 0.1229904 0.1232604 0.1235554 0.1238541
 0.1241242 0.1243561 0.1245664 0.1247706 0.1249635 0.1251292 0.125262 0.125376 0.1254959 0.1256352
 0.1257842 0.1259254 0.126059 0.1262038 0.1263741 0.1265679 0.1267814 0.12702 0.1272852 0.1275602
 0.1278247 0.1280846 0.1283673 0.1286802 0.1289868 0.1292426 0.1294443 0.1296275 0.1298221 0.1300339
 0.1302645 0.1305239 0.1308157 0.1311249 0.1314275 0.131708 0.1319723 0.1322436 0.1325385 0.1328404
 0.1331078 0.1333144 0.133475 0.1336296 0.13381 0.134022 0.1342493 0.1344689 0.1346638 0.1348207
 0.1349206 0.1349423 0.134882 0.1347577 0.1345818 0.1343343 0.1339703 0.1334508 0.1327574 0.1318799
 0.130804 0.1295245 0.1280736 0.1265358 0.1250366 0.1237094 0.1226626 0.121963 0.1216369 0.1216716
 0.1220104 0.1225494 0.1231484 0.1236512 0.1239088 0.1238067 0.1232917 0.12238 0.1211389 0.1196582
 0.1180335 0.1163567 0.114711 0.1131839 0.1118957 0.1110088 0.1106904 0.1110548 0.1121303 0.1138493
 0.1160472 0.1184793 0.1208839 0.1230692 0.1249601 0.1265765 0.1279798 0.129235 0.1303957 0.1314974
 0.1325557 0.1335761 0.1345638 0.135522 0.1364396 0.1372877 0.1380257 0.1386099 0.1390029 0.1391887
 0.1391848 0.139042 0.1388339 0.1386355 0.138485 0.138346 0.1381107 0.1376579 0.1369248 0.1359468
 0.1348584 0.1338779 0.1332828 0.1333619 0.1343277 0.1362089 0.1388011 0.1417384 0.144649 0.147278
 0.1495122 0.1513416 0.1528153 0.1540081 0.1549926 0.1558255 0.1565484 0.1571927 0.1577814 0.158331
 0.1588529 0.1593543 0.1598402 0.1603156 0.1607806 0.1612293 0.1616585 0.1620773 0.1625035 0.1629485
 0.1634081 0.1638682 0.1643207 0.1647715 0.1652281 0.1656832 0.1661192 0.1665292 0.1669241 0.1673196
 0.1677232 0.168133 0.1685396 0.1689299 0.1692953 0.1696402 0.1699758 0.1703085 0.1706368 0.1709581
 0.1712734 0.1715859 0.1718968 0.172205 0.1725106 0.1728151 0.1731173 0.173409 0.1736834 0.1739436
 0.1742013 0.1744649 0.1747324 0.174997 0.1752565 0.1755179 0.1757912 0.1760793 0.1763728 0.1766587
 0.1769317 0.1771963 0.1774607 0.1777304 0.1780072 0.1782885 0.1785695 0.1788462 0.1791196 0.1793937
 0.17967 0.1799437 0.1802069 0.1804578 0.1807042 0.1809582 0.1812274 0.181511 0.1818023 0.1820949
 0.1823849 0.1826697 0.1829464 0.1832135 0.1834722 0.1837245 0.1839711 0.1842127 0.1844535 0.1846984
 0.1849509 0.185212 0.1854795 0.1857483 0.1860144 0.1862779 0.1865399 0.1868011 0.1870625 0.187326
 0.1875915 0.1878566 0.1881198 0.188381 0.1886402 0.1888956 0.1891457 0.1893913 0.1896366 0.1898856
 0.1901384 0.1903923 0.1906468 0.1909041 0.1911652 0.1914276 0.1916882 0.1919447 0.1921962 0.192444
 0.1926909 0.1929395 0.1931911 0.1934464 0.1937039 0.1939609 0.1942158 0.1944689 0.1947215 0.1949758
 0.1952341 0.1954958 0.1957578 0.1960175 0.1962742 0.19653 0.196789 0.1970524 0.1973162 0.1975758
 0.1978328 0.1980906 0.1983481 0.1986034 0.1988594 0.1991208 0.1993885 0.1996594 0.1999282 0.200191
 0.2004495 0.2007104 0.2009764 0.2012443 0.2015117 0.2017786 0.202045 0.2023118 0.2025813 0.2028531
 0.2031243 0.203394 0.2036631 0.203931 0.204196 0.2044568 0.2047099 0.204952 0.2051851 0.2054148
 0.2056455 0.205881 0.2061242 0.206374 0.2066266 0.2068808 0.2071362 0.2073909 0.2076465 0.2079083
 0.2081787 0.2084543 0.2087295 0.208998 0.2092577 0.2095151 0.2097798 0.2100534 0.2103328 0.2106167
 0.2109021 0.211183 0.2114593 0.2117372 0.212017 0.2122939 0.212569 0.212846 0.2131234 0.2133999
 0.2136791 0.2139632 0.2142515 0.2145429 0.2148331 0.2151158 0.2153932 0.2156748 0.215964 0.2162572
 0.2165504 0.2168379 0.2171138 0.2173833 0.2176589 0.2179456 0.218241 0.2185426 0.2188435 0.2191338
 0.2194144 0.2196941 0.219974 0.2202519 0.2205321 0.2208157 0.2210968 0.2213753 0.2216542 0.2219224
 0.2221555 0.2223045 0.2222378 0.2216699 0.2201215 0.2169294 0.2113742 0.2029621 0.1917164 0.1782694
 0.1636925 0.1491622 0.135639 0.1237316 0.113767 0.1059129 0.1002658 0.09693249 0.09609655 0.09810905
 0.1036044 0.1131192 0.1257123 0.1377848 0.1444359 0.1431751 0.1361764 0.1283075 0.1231725 0.1213517
 0.1216301 0.1228068 0.1244044 0.1265346 0.129481 0.1332751 0.1376608 0.1425145 0.148079 0.1545925
 0.1618234 0.1691597 0.17612 0.182661 0.1889958 0.195219 0.2011618 0.2065553 0.2112383 0.2152119
 0.2185836 0.2215013 0.2240945 0.2264461 0.2286091 0.230615 0.2324324 0.2339464 0.2350272 0.235636
 0.2358704 0.2359185 0.235956 0.2360738 0.236287 0.2365852 0.2369563 0.2373859 0.2378633 0.2383826
 0.2389312 0.2394919 0.2400565 0.2406205 0.2411718 0.2416978 0.2421957 0.2426663 0.2431095 0.2435299
 0.2439343 0.244326 0.2447084 0.2450871 0.2454629 0.2458327 0.2461964 0.2465536 0.246898 0.2472238
 0.2475327 0.2478278 0.2481115 0.248388 0.2486601 0.2489261 0.2491849 0.2494403 0.2496964 0.249954
 0.2502132 0.2504728 0.2507301 0.2509856 0.2512406 0.2514913 0.2517342 0.2519741 0.2522182 0.2524666
 0.2527163 0.2529685 0.2532238 0.2534779 0.2537251 0.2539652 0.2542067 0.2544625 0.2547382 0.255025
 0.2553115 0.2555951 0.2558792 0.2561638 0.256448 0.2567329 0.2570181 0.2573023 0.2575875 0.2578737
 0.2581543 0.2584209 0.2586721 0.2589132 0.2591531 0.2594 0.2596546 0.2599102 0.2601624 0.2604148
 0.260671 0.2609285 0.2611836 0.2614363 0.2616896 0.2619516 0.2622308 0.2625263 0.2628267 0.2631243
 0.2634206 0.2637199 0.2640236 0.2643321 0.2646418 0.2649423 0.265227 0.2655041 0.2657964 0.2661229
 0.2664807 0.2668441 0.267188 0.2675113 0.2678316 0.2681642 0.2685128 0.2688646 0.2691888 0.2694574
 0.2696864 0.2699381 0.2702662 0.2706656 0.2710872 0.2714876 0.2718548 0.2721978 0.2725255 0.2728378
 0.2731279 0.2733911 0.2736392 0.2739087 0.2742395 0.2746315 0.2750375 0.2754115 0.2757471 0.2760604
 0.2763636 0.2766635 0.2769513 0.2771846 0.2773284 0.2774352 0.2776377 0.2780234 0.2785378 0.2790416
 0.2794502 0.279787 0.2801107 0.2804395 0.2807599 0.281041 0.2812056 0.2811672 0.2809848 0.2809179
 0.2812165 0.2818694 0.2826341 0.2832849 0.2837617 0.2841179 0.2844201 0.2847039 0.2849517 0.2850932
 0.2850823 0.2850097 0.2850894 0.2854635 0.2860395 0.2865901 0.2869921 0.2872971 0.2875991 0.2879288
 0.2882382 0.2883888 0.288213 0.2877413 0.2873511 0.2875195 0.2883623 0.2895026 0.2904493 0.2910345
 0.291408 0.2916883 0.2917857 0.2915642 0.2910096 0.2902292 0.2894911 0.2892685 0.2899306 0.2912653
 0.2925683 0.2933506 0.2937583 0.2942088 0.2948475 0.2954921 0.2959276 0.296099 0.296069 0.295886
 0.2955601 0.2952119 0.2951636 0.2957107 0.2967769 0.2979306 0.2987915 0.2993307 0.2996972 0.2997762
 0.2990758 0.2973107 0.2951636 0.2941121 0.2951164 0.297609 0.3001072 0.3016776 0.3024477 0.3029122
 0.3032902 0.303462 0.3029611 0.3011317 0.2980224 0.2951593 0.2946154 0.2969663 0.3006451 0.3034614
 0.3042694 0.3031968 0.3010905 0.2991294 0.2984039 0.2993193 0.3014274 0.3038824 0.3059487 0.3071993
 0.3075429 0.3071834 0.306538 0.3061203 0.306213 0.3064361 0.3059894 0.3046887 0.3033254 0.3024545
 0.3013852 0.2993152 0.2971216 0.2968153 0.2990512 0.3021778 0.304151 0.3046276 0.3045915 0.3043744
 0.3028523 0.2989277 0.293561 0.2897402 0.2899208 0.2935728 0.2977074 0.2998163 0.299855 0.299382
 0.2993687 0.2991703 0.2974794 0.2941685 0.2910099 0.2900887 0.2914638 0.2930797 0.2930461 0.2909719
 0.2869762 0.281203 0.2753692 0.2730813 0.2766505 0.2842021 0.2913209 0.2948494 0.2938707 0.2884002
 0.2797124 0.2717035 0.2691369 0.2732519 0.2803159 0.285236 0.2855744 0.2816535 0.2744778 0.2652895
 0.2566376 0.2520663 0.2538546 0.261178 0.2702687 0.2760523 0.2747412 0.2668677 0.2580291 0.2546747
 0.2580479 0.2633719 0.265468 0.2636247 0.260515 0.2585518 0.2585563 0.2602155 0.2624343 0.2641988
 0.2653604 0.2652135 0.2610629 0.2512254 0.2395027 0.2331589 0.2354223 0.2428887 0.2510518 0.2588186
 0.2659761 0.269951 0.268554 0.2643205 0.2628837 0.2669646 0.2737858 0.2786219 0.2796004 0.2784615
 0.2774088 0.276483 0.2746623 0.2727061 0.273194 0.2773028 0.2829555 0.2870717 0.2886563 0.2887988
 0.2886071 0.288274 0.2876485 0.2866963 0.2854587 0.2840706 0.2827486 0.2815423 0.2802852 0.2788776
 0.2772262 0.2746549 0.2699919 0.2631755 0.2565761 0.2533962 0.2543798 0.2573647 0.2603384 0.2628492
 0.2635086 0.2589853 0.248293 0.2366001 0.2316628 0.2363382 0.2463163 0.2549542 0.2585168 0.2566386
 0.2500962 0.2404704 0.2317325 0.22956 0.2370378 0.251531 0.2670805 0.2794121 0.2875733 0.2917399
 0.2916933 0.2879764 0.2831669 0.2808467 0.2831677 0.289462 0.2967708 0.3012173 0.299692 0.2924248
 0.2847047 0.2836757 0.2912342 0.3014948 0.3072851 0.3076608 0.3068345 0.307498 0.3085178 0.3086384
 0.3090739 0.3114274 0.3150196 0.3174421 0.3167057 0.3120755 0.3040387 0.2948416 0.2881381 0.28617
 0.2874393 0.2886156 0.2880799 0.2858193 0.2811878 0.2740429 0.2677073 0.2671335 0.2731948 0.2813513
 0.2868234 0.2890486 0.2902436 0.2913765 0.2909958 0.2876446 0.2824536 0.2786681 0.2784753 0.2809416
 0.2835484 0.2849049 0.2849812 0.2835696 0.2803052 0.2763361 0.2744492 0.2766152 0.2819022 0.2873992
 0.2908978 0.2922332 0.2924286 0.2923586 0.2922813 0.2920154 0.2913824 0.2908145 0.2913727 0.2936095
 0.2965788 0.2986803 0.2994825 0.3000638 0.3014808 0.3034933 0.3050163 0.3054391 0.3052439 0.3054925
 0.3068603 0.309056 0.3110283 0.3118101 0.3113849 0.3108013 0.3112866 0.3131555 0.3156539 0.3178187
 0.3192765 0.320229 0.3209805 0.3216278 0.3220446 0.3220843 0.3219123 0.3221058 0.3232134 0.3251652
 0.3272674 0.3288187 0.3296235 0.329909 0.3299188 0.3297018 0.3292318 0.3285951 0.3280006 0.327625
 0.3274893 0.3274885 0.3275064 0.3274851 0.327428 0.3273785 0.3273892 0.3274819 0.3276376 0.3278259
 0.3280176 0.3281588 0.3281769 0.3280383 0.3277738 0.3274289 0.3270245 0.3265867 0.3261709 0.3258101
 0.3254454 0.324931 0.3241014 0.3228249 0.3210311 0.318793 0.3164692 0.3147275 0.3142756 0.3154232
 0.3178492 0.3207933 0.3234967 0.3255278 0.3268198 0.3275169 0.327817 0.3278921 0.3278559 0.3277529
 0.3275816 0.3273497 0.3270983 0.3268711 0.3266774 0.3264986 0.3263184 0.3261328 0.3259361 0.3257062
 0.3254098 0.3250218 0.3245396 0.3239805 0.3233627 0.322687 0.3219298 0.3210597 0.3200696 0.3189978
 0.3179137 0.3168771 0.3159031 0.3149613 0.3140057 0.3129972 0.3118865 0.310602 0.3091151 0.3075372
 0.3060936 0.304942 0.3040291 0.3031549 0.3021523 0.3009748 0.299653 0.2982284 0.2967302 0.2951689
 0.2935297 0.291769 0.2898263 0.2876614 0.2853107 0.2829045 0.2805973 0.2784756 0.2765383 0.2747351
 0.2729764 0.2711022 0.268886 0.2660987 0.2625712 0.2582053 0.2529653 0.2469064 0.2402232 0.233244
 0.2263377 0.2198061 0.2138575 0.2086526 0.2043354 0.2010123 0.1987298 0.1974848 0.1972436 0.1979424
 0.199487 0.2017708 0.2046888 0.208126 0.2119379 0.2159481 0.2199647 0.2238074 0.2273522 0.2305758
 0.2335455 0.2363391 0.2389665 0.2413748 0.2435117 0.2453626 0.2469309 0.2482061 0.2491641 0.2498074
 0.2502172 0.2505614 0.2510164 0.2516486 0.252372 0.2530321 0.2535308 0.2538734 0.2541244 0.2543463
 0.2545746 0.254823 0.2551 0.2554227 0.2558175 0.2563066 0.2568957 0.2575716 0.2583094 0.2590845
 0.2598889 0.2607425 0.2616887 0.2627774 0.2640455 0.2655026 0.2671297 0.2688846 0.2707021 0.2724875
 0.2741243 0.2755064 0.276575 0.2773297 0.2778065 0.2780416 0.278057 0.2778675 0.2774925 0.2769595
 0.2763034 0.2755629 0.2747658 0.2739162 0.2729993 0.2720014 0.270926 0.2697945 0.2686297 0.2674404
 0.2662331 0.2650405 0.2639192 0.2629083 0.2620001 0.2611567 0.2603429 0.2595421 0.2587575 0.2580065
 0.2573067 0.2566617 0.2560476 0.2554057 0.2546544 0.2537248 0.2525905 0.2512655 0.2497825 0.2481726
 0.2464517 0.2446229 0.2426909 0.2406676 0.2385625 0.2363721 0.2340835 0.2316881 0.2292078 0.2267139
 0.2243034 0.2220473 0.2199654 0.2180417 0.2162458 0.2145456 0.2129219 0.2113694 0.2098844 0.2084591
 0.2070884 0.2057704 0.2045068 0.2033106 0.2022045 0.2012052 0.2003176 0.1995409 0.1988704 0.1982975
 0.1978117 0.1974002 0.1970562 0.1968014 0.196676 0.1966822 0.1967498 0.196778 0.1966997 0.196506
 0.1962274 0.1958997 0.195544 0.1951931 0.1949231 0.19481 0.1948286 0.1948146 0.1945356 0.1938012
 0.1925385 0.1908009 0.1887203 0.1864554 0.1841761 0.1820512 0.1802099 0.1787174 0.1775772 0.1767337
 0.1760888 0.1755627 0.175151 0.1749198 0.1749482 0.1752446 0.1756781 0.1760364 0.1762148 0.1763347
 0.1766308 0.177247 0.178155 0.1792126 0.1802591 0.1811846 0.1819403 0.1825105 0.1829055 0.183165
 0.1833222 0.1833716 0.1832987 0.1831122 0.1828248 0.1824381 0.1819583 0.1813893 0.1807199 0.1799474
 0.1790859 0.178137 0.1770886 0.1759366 0.174662 0.173231 0.1716952 0.1702685 0.1692484 0.1688577
 0.1691319 0.1699029 0.1709144 0.1719926 0.1730656 0.1740352 0.1747859 0.1753911 0.1761979 0.1775948
 0.1796796 0.1821495 0.1845099 0.1863928 0.1876726 0.18835 0.1884561 0.1880583 0.1872133 0.185911
 0.1841615 0.1820791 0.1798079 0.1774705 0.1752206 0.1732037 0.1714731 0.170035 0.1688837 0.1680052
 0.1674596 0.1669867 0.1650246 0.1592417 0.1498462 0.1417515 0.1408727 0.1477489 0.1567997 0.1623243
 0.1633473 0.1622561 0.1610307 0.1600936 0.1593698 0.1589354 0.1588518 0.1590217 0.159228 0.1592354
 0.1589387 0.1583547 0.157365 0.1554668 0.1517602 0.1452822 0.1357268 0.1240875 0.1124265 0.1027787
 0.09615372 0.09233569 0.09032783 0.08904329 0.08792549 0.08713436 0.08717754 0.08839238 0.09076174 0.09407111
 0.09806392 0.1024046 0.1066173 0.1102354 0.1130528 0.1151515 0.116676 0.1176809 0.1181873 0.1182569
 0.1179694 0.1173951 0.1165984 0.1156146 0.11443 0.1130303 0.1114866 0.1099915 0.1087836 0.1079961
 0.1075763 0.1073746 0.1072821 0.1072583 0.1072859 0.1073582 0.107483 0.1076664 0.1079121 0.1082279
 0.1085965 0.1089544 0.1092313 0.1093987 0.1094683 0.1094557 0.1093455 0.1091006 0.1087338 0.1083379
 0.1079564 0.1074421 0.1065658 0.105309 0.1039871 0.1030487 0.1027623 0.1030561 0.1036037 0.1040666
 0.1043012 0.1043756 0.1044115 0.104414</values></Ydata></ScSm><ScRf><Ydata ylabel="Single channel"><values byteorder="INTEL" format="FLOAT32" numvalues="1820"> 0.069731 0.06985905 0.06997007 0.07006724 0.07015811 0.07025374 0.07036459 0.07049319 0.07063207 0.07076812
 0.07088983 0.07099485 0.07108855 0.07117402 0.07125113 0.07132901 0.07142715 0.07155581 0.07170169 0.07183716
 0.07194145 0.07201841 0.07209776 0.07220764 0.07233661 0.07243213 0.07244867 0.07239683 0.07233839 0.07233129
 0.07239062 0.0725159 0.07272635 0.07301024 0.07325037 0.07329801 0.07315845 0.07301845 0.07304046 0.0731999
 0.07336038 0.07342514 0.07337601 0.0732608 0.07321235 0.07340692 0.07390466 0.07451913 0.07487486 0.07462464
 0.07368152 0.07234339 0.07122032 0.07091469 0.07158628 0.07277337 0.07373866 0.0740641 0.07387679 0.0735304
 0.07323597 0.07305913 0.07308739 0.07341692 0.07399766 0.07456745 0.0747532 0.07431772 0.07342879 0.07262899
 0.07239088 0.07274948 0.07347001 0.07433219 0.07492065 0.07441433 0.07231498 0.06955078 0.06818387 0.06950258
 0.07267126 0.07559909 0.07684409 0.07637465 0.07495941 0.07349084 0.0727504 0.07314358 0.07443576 0.07598345
 0.07724328 0.0779158 0.07781157 0.0769414 0.07569369 0.07466953 0.07434843 0.07494976 0.07634309 0.07791387
 0.07880986 0.07861259 0.07765082 0.07657675 0.07588641 0.07589668 0.07677169 0.07832657 0.08004438 0.08145794
 0.08239208 0.08286022 0.08295045 0.08281012 0.08257435 0.08234331 0.0822778 0.08251791 0.08290463 0.08301398
 0.08262752 0.08202882 0.08171722 0.08189315 0.08228624 0.08248235 0.08233529 0.0818886 0.08095127 0.07919082
 0.07681488 0.07467908 0.07345079 0.07314071 0.07364638 0.07503346 0.07687727 0.07806605 0.07792186 0.07711714
 0.07694741 0.07793067 0.07948414 0.08076875 0.08150148 0.08199931 0.08268662 0.08361845 0.08435939 0.08430595
 0.08330461 0.08203727 0.08156771 0.0823106 0.08362693 0.08460837 0.08503045 0.08532068 0.08580481 0.08623455
 0.08600429 0.08480091 0.08314779 0.08221909 0.08286986 0.08478951 0.08666758 0.08718395 0.08594511 0.08369671
 0.08170115 0.08083157 0.08123228 0.08268046 0.08489719 0.08741076 0.08948115 0.09047429 0.09030004 0.08939901
 0.08826277 0.08697366 0.08537658 0.08379294 0.08321095 0.08435984 0.0867721 0.08915626 0.09058945 0.09102871
 0.09078522 0.089899 0.08822289 0.0860714 0.08450894 0.0845575 0.08602913 0.0875789 0.08813542 0.0879017
 0.08773567 0.08798192 0.08828947 0.08833095 0.08829241 0.0886087 0.08940717 0.09034326 0.09096334 0.09111971
 0.09100099 0.09086548 0.09079611 0.09065273 0.09028924 0.08988556 0.08992943 0.0907018 0.0918982 0.09293556
 0.09352672 0.09379058 0.09389364 0.09376626 0.09321763 0.09230661 0.09151717 0.09141405 0.092094 0.09311241
 0.09395507 0.09442236 0.09457752 0.09454817 0.09443971 0.09431167 0.09419619 0.09416842 0.09433024 0.09467424
 0.09504762 0.09530398 0.09542058 0.09544012 0.0953761 0.09522191 0.09501615 0.09485756 0.09484138 0.09498326
 0.09521873 0.09546838 0.09567404 0.09578728 0.09578303 0.0956962 0.09559996 0.0955389 0.09551366 0.09552508
 0.09559208 0.09571692 0.09586126 0.09597413 0.09603441 0.09605541 0.09605487 0.0960369 0.0960038 0.0959727
 0.0959731 0.09602614 0.0961211 0.09622128 0.09630781 0.09640373 0.09652821 0.09664469 0.09669408 0.09667204
 0.09663651 0.09664266 0.09669851 0.09677933 0.0968564 0.0969047 0.09690115 0.09684101 0.09676394 0.09674399
 0.09683219 0.09701785 0.09725486 0.09750119 0.09772179 0.09788804 0.09800039 0.09808873 0.098174 0.09824826
 0.09830049 0.09834579 0.09842145 0.09855911 0.09875566 0.09897106 0.09915984 0.09930076 0.0993987 0.09947926
 0.09958274 0.09972978 0.09988406 0.09998324 0.1000191 0.1000538 0.1001439 0.100275 0.1003873 0.1004473
 0.1004784 0.1005274 0.1006157 0.1007259 0.1008307 0.1009239 0.1010232 0.1011433 0.1012653 0.1013412
 0.1013409 0.1012904 0.1012463 0.1012395 0.1012625 0.101305 0.1013728 0.1014656 0.1015559 0.1016072
 0.1016103 0.1015923 0.1015874 0.1015996 0.1016018 0.1015712 0.1015144 0.1014573 0.1014201 0.1014049
 0.101399 0.101385 0.1013504 0.1012934 0.1012208 0.1011416 0.1010615 0.100987 0.1009364 0.1009341
 0.1009776 0.1010119 0.1009639 0.1008106 0.1006043 0.1004227 0.1003028 0.1002224 0.1001345 0.1000096
 0.09985317 0.09969212 0.09955008 0.09943233 0.09932832 0.09922527 0.09912366 0.09904243 0.09900096 0.09898767
 0.09895682 0.09886992 0.09873543 0.09859702 0.09848969 0.09841875 0.09837168 0.09833425 0.09830044 0.09827757
 0.09827591 0.09828751 0.09828757 0.09826453 0.09823637 0.09823284 0.09827346 0.09836161 0.0984792 0.09858593
 0.09864599 0.09866482 0.09868553 0.09874431 0.09884176 0.09895903 0.09908461 0.0992176 0.09935757 0.09950402
 0.09966257 0.09984274 0.1000481 0.1002708 0.1004965 0.1007134 0.1009203 0.1011286 0.1013568 0.1016161
 0.1019006 0.1021907 0.1024695 0.102736 0.1030013 0.1032739 0.1035521 0.1038333 0.1041236 0.104432
 0.1047561 0.1050829 0.105402 0.1057146 0.1060288 0.1063491 0.1066744 0.1070038 0.1073439 0.1077032
 0.1080747 0.1084308 0.1087461 0.1090256 0.1093013 0.1096025 0.1099343 0.1102782 0.1106043 0.1108923
 0.111151 0.1114134 0.1117028 0.1120091 0.1123105 0.1126106 0.1129392 0.113311 0.1136956 0.1140371
 0.1143049 0.1145211 0.1147361 0.1149771 0.1152269 0.1154543 0.115656 0.1158572 0.116077 0.116311
 0.1165512 0.1168052 0.1170812 0.1173649 0.1176291 0.1178624 0.1180754 0.1182789 0.1184667 0.1186223
 0.1187374 0.1188252 0.1189166 0.119037 0.1191841 0.1193362 0.1194811 0.1196274 0.1197878 0.1199643
 0.1201565 0.1203716 0.1206135 0.1208691 0.1211208 0.1213732 0.1216497 0.1219517 0.1222401 0.122475
 0.1226628 0.122843 0.1230389 0.1232466 0.1234662 0.1237149 0.1240021 0.1243109 0.124612 0.1248904
 0.1251578 0.125441 0.1257526 0.1260698 0.1263491 0.126568 0.1267471 0.1269287 0.1271436 0.1273959
 0.1276703 0.1279476 0.1282142 0.1284604 0.1286701 0.1288244 0.1289225 0.1289891 0.1290461 0.1290806
 0.1290518 0.1289279 0.1287008 0.1283688 0.1279213 0.1273516 0.1266818 0.1259733 0.1253153 0.1248012
 0.1245037 0.1244613 0.1246753 0.12511 0.1256942 0.1263325 0.1269277 0.1273969 0.1276723 0.1277026
 0.1274691 0.1269985 0.1263513 0.1255947 0.124784 0.1239586 0.1231499 0.1224009 0.121791 0.121439
 0.121471 0.1219748 0.1229684 0.1243812 0.1260515 0.1277651 0.1293388 0.1306893 0.1318327 0.1328265
 0.1337182 0.1345365 0.1353029 0.1360333 0.1367321 0.1373952 0.1380199 0.1386078 0.1391557 0.1396508
 0.1400735 0.1404063 0.1406439 0.1407993 0.1408962 0.1409533 0.1409796 0.1409846 0.1409765 0.1409429
 0.1408413 0.1406207 0.1402556 0.1397658 0.1392222 0.1387482 0.13851 0.1386771 0.1393494 0.1404929
 0.1419433 0.1434851 0.1449413 0.1462069 0.147237 0.1480375 0.1486587 0.1491693 0.1496218 0.1500413
 0.1504375 0.1508156 0.1511777 0.1515251 0.1518611 0.1521914 0.1525224 0.1528593 0.1532011 0.1535397
 0.1538691 0.1541936 0.1545261 0.1548749 0.1552336 0.1555858 0.1559236 0.1562573 0.1566011 0.1569518
 0.1572909 0.1576076 0.1579109 0.1582195 0.1585459 0.1588904 0.1592401 0.1595749 0.1598824 0.1601679
 0.1604466 0.1607279 0.1610117 0.1612965 0.1615826 0.1618687 0.1621512 0.1624303 0.1627115 0.1629992
 0.1632873 0.1635626 0.1638179 0.1640603 0.1643031 0.1645527 0.164805 0.1650536 0.1653 0.1655534
 0.1658209 0.1660982 0.1663714 0.1666293 0.166872 0.1671087 0.1673486 0.1675959 0.167849 0.1681029
 0.1683524 0.1685974 0.1688424 0.169092 0.1693464 0.1696022 0.1698554 0.1701052 0.170354 0.1706048
 0.170857 0.171107 0.1713515 0.1715921 0.171834 0.1720803 0.1723285 0.1725731 0.1728112 0.1730434
 0.1732722 0.1735002 0.1737308 0.1739658 0.1742048 0.1744462 0.1746894 0.1749344 0.1751815 0.1754296
 0.1756768 0.1759206 0.1761595 0.1763941 0.1766282 0.176867 0.1771127 0.1773606 0.1776034 0.1778382
 0.1780692 0.1783017 0.1785383 0.1787766 0.1790119 0.1792425 0.1794722 0.1797062 0.1799447 0.1801842
 0.180422 0.1806571 0.1808893 0.1811191 0.1813469 0.1815735 0.1818003 0.1820292 0.1822614 0.1824976
 0.1827381 0.1829797 0.1832166 0.1834462 0.183672 0.1838986 0.1841273 0.1843595 0.1845966 0.1848381
 0.1850815 0.1853245 0.1855662 0.1858073 0.1860498 0.1862944 0.186539 0.1867818 0.187022 0.1872583
 0.1874906 0.1877236 0.1879629 0.1882089 0.1884586 0.18871 0.1889615 0.1892116 0.1894616 0.1897137
 0.1899681 0.1902242 0.1904817 0.1907385 0.1909924 0.1912438 0.1914935 0.1917399 0.1919819 0.1922206
 0.192456 0.1926866 0.1929119 0.193132 0.1933481 0.1935666 0.1937949 0.1940319 0.1942697 0.1945039
 0.1947356 0.1949684 0.1952072 0.1954554 0.195708 0.1959575 0.1962034 0.1964501 0.1966994 0.1969515
 0.1972078 0.1974662 0.1977235 0.1979806 0.19824 0.198501 0.1987627 0.1990251 0.1992866 0.1995474
 0.1998122 0.2000819 0.200351 0.2006169 0.2008827 0.2011484 0.2014124 0.201677 0.2019431 0.2022083
 0.2024739 0.2027432 0.2030123 0.2032759 0.203538 0.203803 0.2040699 0.2043398 0.2046168 0.2048976
 0.2051761 0.2054542 0.2057339 0.2060112 0.2062857 0.2065619 0.2068388 0.2071124 0.2073832 0.2076495
 0.2079064 0.2081575 0.2084102 0.208658 0.2088791 0.2090258 0.2089705 0.2084425 0.2069902 0.203989
 0.1987614 0.1908444 0.180263 0.1676135 0.1539019 0.1402333 0.1275105 0.1163058 0.1069249 0.09952398
 0.09419416 0.09103963 0.09024031 0.09213232 0.09731163 0.106277 0.118139 0.1295121 0.1357844 0.1346079
 0.1280256 0.1206208 0.1157894 0.1140787 0.1143454 0.1154602 0.1169734 0.1189848 0.121758 0.1253257
 0.1294521 0.1340206 0.1392566 0.1453847 0.152191 0.1591012 0.1656604 0.1718243 0.1777912 0.1836489
 0.1892401 0.194315 0.1987246 0.2024688 0.2056451 0.2083903 0.2108284 0.2130428 0.2150865 0.2169859
 0.2187053 0.2201339 0.2211516 0.2217239 0.2219445 0.2219917 0.2220315 0.2221472 0.2223492 0.2226276
 0.2229755 0.2233851 0.2238479 0.2243549 0.2248882 0.2254252 0.2259553 0.2264779 0.2269881 0.2274787
 0.2279461 0.2283886 0.228806 0.2292044 0.2295904 0.2299654 0.2303298 0.2306875 0.23104 0.2313869
 0.2317314 0.2320737 0.2324051 0.2327167 0.2330092 0.2332884 0.2335601 0.2338286 0.2340939 0.2343508
 0.2345985 0.234843 0.235089 0.2353377 0.2355897 0.2358427 0.2360902 0.2363293 0.2365651 0.236802
 0.2370396 0.2372771 0.2375143 0.2377508 0.2379881 0.2382289 0.2384716 0.2387114 0.2389468 0.2391798
 0.2394151 0.2396597 0.2399182 0.2401865 0.2404569 0.2407265 0.2409955 0.2412626 0.2415289 0.2418004
 0.2420798 0.2423615 0.24264 0.242914 0.2431813 0.2434348 0.2436699 0.2438904 0.2441087 0.2443362
 0.2445729 0.24481 0.2450432 0.2452791 0.2455251 0.2457804 0.2460385 0.2462927 0.2465423 0.2467948
 0.2470599 0.2473383 0.2476209 0.2479017 0.2481826 0.2484671 0.2487568 0.2490518 0.2493488 0.2496382
 0.2499116 0.2501739 0.2504462 0.2507519 0.251094 0.2514473 0.2517814 0.2520888 0.2523849 0.2526866
 0.2530028 0.2533293 0.2536427 0.2539138 0.2541471 0.254394 0.2547058 0.2550831 0.2554817 0.2558593
 0.2562048 0.2565298 0.2568466 0.2571561 0.2574481 0.2577106 0.2579489 0.2581993 0.2585078 0.2588812
 0.2592738 0.2596357 0.2599558 0.2602496 0.2605308 0.260808 0.2610754 0.2612963 0.2614384 0.261547
 0.2617418 0.2621051 0.2625907 0.2630725 0.2634706 0.263803 0.26412 0.2644371 0.2647416 0.2650045
 0.2651529 0.2651089 0.2649346 0.2648791 0.2651752 0.2658057 0.2665363 0.2671526 0.2675996 0.267932
 0.2682182 0.2684948 0.2687447 0.2688976 0.2689048 0.2688475 0.2689267 0.2692801 0.2698261 0.2703533
 0.2707428 0.271037 0.2713197 0.271621 0.2719024 0.2720413 0.2718815 0.2714472 0.2710883 0.2712526
 0.2720522 0.273134 0.2740327 0.2745846 0.2749299 0.2751861 0.2752757 0.2750712 0.2745538 0.2738195
 0.2731221 0.2729118 0.27354 0.2748082 0.2760519 0.2768059 0.2772009 0.2776283 0.2782318 0.2788482
 0.279275 0.2794513 0.2794273 0.2792477 0.2789304 0.2785997 0.2785636 0.2790962 0.2801186 0.2812201
 0.2820415 0.2825567 0.2829068 0.2829832 0.282322 0.2806548 0.2786286 0.2776389 0.2785913 0.2809504
 0.2833175 0.2848108 0.2855476 0.2859937 0.2863578 0.2865287 0.2860644 0.2843423 0.2814063 0.2787001
 0.2781886 0.2804211 0.2839168 0.2866001 0.2873822 0.2863809 0.284396 0.2825437 0.2818572 0.2827255
 0.2847315 0.2870787 0.2890668 0.2902824 0.2906305 0.2903 0.289685 0.2892787 0.289362 0.2895868
 0.2891933 0.2879933 0.2867258 0.2859185 0.2849246 0.2829847 0.2809224 0.2806381 0.2827569 0.2857237
 0.2876077 0.2880821 0.2880739 0.2878939 0.2864766 0.2827822 0.2777205 0.2741238 0.2743216 0.2778136
 0.2817644 0.2837914 0.2838507 0.283423 0.2834345 0.283279 0.28172 0.2786388 0.2757172 0.2749326
 0.2763394 0.2779877 0.2780828 0.2762455 0.2725681 0.2671648 0.2616577 0.259483 0.2628567 0.2700178
 0.2767854 0.2801641 0.2792781 0.2741321 0.2659296 0.2583729 0.2559955 0.2599819 0.2667864 0.2715639
 0.2719888 0.2683583 0.2616242 0.2529778 0.244866 0.2406833 0.2426095 0.2498545 0.2588089 0.2646021
 0.2635868 0.256264 0.2480138 0.2450457 0.2485577 0.2539447 0.2562134 0.2546805 0.2519282 0.2502894
 0.2505614 0.2524438 0.2548751 0.25687 0.2582781 0.2583907 0.2545496 0.2450915 0.2337243 0.2275552
 0.2297596 0.2370325 0.2449831 0.2525516 0.2595377 0.2634299 0.2620821 0.2579585 0.2565538 0.2605242
 0.267158 0.2718395 0.2727356 0.2715384 0.2703993 0.2693692 0.2674661 0.2654358 0.2657905 0.2696796
 0.2750903 0.2790315 0.2805326 0.2806489 0.2804578 0.2801503 0.2795824 0.2787209 0.2776078 0.2763807
 0.2752581 0.2742985 0.2733573 0.2723679 0.2712701 0.2693998 0.2655451 0.2595256 0.2535338 0.2506182
 0.251482 0.2540469 0.2564391 0.2583441 0.2585101 0.2537218 0.2430038 0.2313856 0.2264422 0.2309724
 0.2407704 0.2493473 0.2530596 0.2515624 0.2456146 0.2367236 0.2286822 0.2269101 0.2342768 0.2481003
 0.2625659 0.2736497 0.2806427 0.2838835 0.2832161 0.2791481 0.2741415 0.2716324 0.2736722 0.2795839
 0.2864786 0.2905952 0.2889341 0.2817305 0.2740967 0.2729287 0.2800648 0.2898419 0.2953477 0.2956622
 0.2948343 0.29546 0.296464 0.2966583 0.2972307 0.2997465 0.3035792 0.3064333 0.3064008 0.3027636
 0.2959832 0.2882521 0.2831433 0.282783 0.2855027 0.287752 0.2877412 0.2854718 0.2805054 0.2729341
 0.2661722 0.2651249 0.2706113 0.2781181 0.282944 0.2845798 0.2852463 0.2859047 0.285125 0.2814766
 0.2760633 0.2720456 0.2715423 0.2736339 0.275879 0.2769577 0.2768763 0.2754394 0.2722641 0.2684242
 0.2665961 0.2686802 0.2737648 0.2790123 0.2822652 0.2833634 0.2833212 0.2830195 0.2827337 0.2822956
 0.2815247 0.2808335 0.2812586 0.2833566 0.2862379 0.2883802 0.2893915 0.2903318 0.2922228 0.2947995
 0.2969196 0.297828 0.2978176 0.2978517 0.2986956 0.3002878 0.3018004 0.3023702 0.3019514 0.3014727
 0.302003 0.3037317 0.3058951 0.3076491 0.3087745 0.3095586 0.3103167 0.311124 0.3117796 0.311973
 0.3116946 0.3114886 0.31205 0.3135029 0.3152564 0.3166053 0.3173097 0.3175581 0.3175689 0.3173802
 0.3169626 0.3163956 0.3158718 0.3155539 0.3154626 0.3155037 0.3155692 0.3155994 0.315587 0.3155665
 0.3155912 0.3156918 0.315858 0.3160637 0.3162877 0.3164985 0.3166586 0.3167653 0.3168588 0.3169603
 0.3170241 0.3169683 0.3167304 0.3162755 0.3155735 0.3145919 0.3133025 0.3116733 0.309675 0.3073733
 0.3050874 0.3034247 0.3030308 0.3041756 0.3065357 0.3093814 0.311995 0.3139763 0.3152708 0.3160187
 0.3164005 0.3165591 0.3165794 0.3164949 0.316314 0.3160484 0.3157214 0.3153589 0.3149856 0.314629
 0.3143123 0.3140398 0.3137907 0.313528 0.3132155 0.3128335 0.3123796 0.3118566 0.3112635 0.3105949
 0.3098384 0.3089795 0.3080218 0.3070052 0.3059933 0.3050365 0.3041447 0.3032882 0.3024226 0.3015073
 0.3004908 0.2993018 0.2979163 0.2964525 0.2951403 0.2941349 0.293377 0.2926646 0.2918328 0.2908367
 0.289705 0.2884793 0.2871958 0.2858827 0.2845504 0.2831871 0.2817641 0.2802463 0.2786113 0.2768628
 0.2750236 0.273122 0.2711875 0.2692429 0.2672729 0.2651941 0.2628634 0.2601227 0.2568392 0.2529247
 0.2483507 0.2431739 0.2375508 0.2317096 0.2258883 0.2202849 0.2150524 0.2103202 0.2062073 0.2028148
 0.2002124 0.1984382 0.197511 0.1974387 0.1982121 0.1997913 0.2020985 0.2050161 0.20839 0.2120372
 0.2157575 0.2193561 0.2226918 0.2257283 0.2285272 0.2311636 0.2336464 0.2359262 0.237958 0.2397336
 0.2412622 0.24255 0.2436088 0.2444683 0.245172 0.2457616 0.246267 0.246703 0.247068 0.2473529
 0.2475585 0.2477082 0.2478407 0.2479895 0.2481703 0.248385 0.2486354 0.2489318 0.2492916 0.2497313
 0.2502586 0.2508681 0.251541 0.252255 0.2530038 0.2538067 0.2546974 0.255708 0.2568624 0.2581767
 0.2596528 0.2612644 0.2629443 0.2645876 0.2660773 0.2673186 0.2682611 0.2689025 0.269274 0.2694155
 0.2693555 0.2691123 0.2687088 0.2681753 0.2675426 0.2668349 0.2660694 0.2652524 0.2643777 0.2634366
 0.2624364 0.2614068 0.2603845 0.2593912 0.2584305 0.2575026 0.2566093 0.2557451 0.2548996 0.2540713
 0.2532704 0.2525067 0.2517835 0.2510991 0.2504434 0.2497933 0.2491121 0.2483534 0.2474731 0.2464454
 0.2452668 0.2439405 0.2424667 0.2408492 0.2391021 0.2372461 0.2353022 0.2332871 0.2312084 0.2290632
 0.2268385 0.2245211 0.2221232 0.2197058 0.2173609 0.2151625 0.2131384 0.2112797 0.209558 0.207937
 0.2063876 0.2048949 0.2034551 0.2020731 0.2007575 0.1995096 0.198324 0.1972034 0.1961612 0.1952078
 0.1943528 0.193612 0.192994 0.1924841 0.1920558 0.1916905 0.19139 0.1911847 0.1911167 0.1911871
 0.1913249 0.1914281 0.1914346 0.1913545 0.1912462 0.1911664 0.1911336 0.1911366 0.1911574 0.1911587
 0.1910582 0.1907471 0.1901288 0.1891334 0.1877238 0.1859235 0.183828 0.1815825 0.1793504 0.1772825
 0.1754875 0.1740262 0.1729155 0.1721148 0.1715265 0.1710577 0.1706912 0.1704911 0.1705421 0.170857
 0.1713068 0.1716798 0.1718681 0.1719863 0.1722679 0.1728679 0.1737728 0.1748426 0.1759044 0.176834
 0.1775803 0.1781386 0.1785323 0.1788065 0.1789909 0.1790731 0.1790326 0.1788755 0.1786151 0.1782556
 0.177804 0.1772635 0.1766244 0.1758882 0.175074 0.1741845 0.1732048 0.1721266 0.1709258 0.1695637
 0.1680895 0.1667199 0.1657574 0.1654256 0.1657591 0.1665944 0.1676826 0.1688496 0.1700157 0.1710809
 0.1719329 0.1726321 0.1734884 0.1748547 0.1768288 0.1791507 0.18138 0.1831789 0.1844215 0.185096
 0.1852233 0.18486 0.1840477 0.1827677 0.1810344 0.1789735 0.176736 0.1744429 0.1722404 0.1702662
 0.1685693 0.1671584 0.1660375 0.165205 0.1647248 0.1643319 0.1624697 0.1568258 0.1475992 0.1396343
 0.1387701 0.1455525 0.1544919 0.1599665 0.1610009 0.1599372 0.1587296 0.1578061 0.1570992 0.1566782
 0.156592 0.1567403 0.1569187 0.1569112 0.1566233 0.156067 0.155112 0.1532523 0.1496013 0.1432147
 0.1337881 0.1222943 0.1107704 0.1012374 0.09469987 0.09093958 0.08896263 0.0876921 0.08658129 0.08579497
 0.08584179 0.08705623 0.08941387 0.09269285 0.09663511 0.1009115 0.105061 0.1086377 0.1114518 0.1135821
 0.1151515 0.116191 0.1167136 0.1167893 0.1165107 0.1159562 0.1151903 0.1142422 0.1130872 0.1117027
 0.1101634 0.1086775 0.1074967 0.1067496 0.1063651 0.1061783 0.1060833 0.106057 0.1060949 0.1061864
 0.1063249 0.1065094 0.1067496 0.1070629 0.1074385 0.1078143 0.1081175 0.1083143 0.1084093 0.1084123
 0.108306 0.1080577 0.1076862 0.1072829 0.1068846 0.1063469 0.1054577 0.1042146 0.1029317 0.1020437
 0.1018048 0.1021324 0.1026915 0.1031418 0.1033483 0.1033899 0.1033947 0.1033769 0.103219 0.1028037
</values></Ydata></ScRf><Data_Parameters_AB><parameter name="DPF">1</parameter><parameter name="NPT">3497</parameter><parameter name="FXV">3996</parameter><parameter name="LXV">500</parameter><parameter name="CSF">1</parameter><parameter name="MXY">0.0407094918191433</parameter><parameter name="MNY">-0.0311996433883905</parameter><parameter name="DAT">17/01/2024</parameter><parameter name="TIM">13:06:28.688 (GMT+1)</parameter><parameter name="DXU">WN</parameter></Data_Parameters_AB><AB__Qtest><MainReport name="Quality Test Report"><Header><Line><Legend>Test result ok/not ok [1/0]: </Legend><Value>0</Value></Line><Line><Legend>Method file: </Legend><Value>C:\Users\Public\Documents\Bruker\OPUS_8.2.28\QT\IRBT_v3_default.QT</Value></Line></Header><Matrix><Line><Legend></Legend><Legend>min</Legend><Legend>max</Legend><Legend>measured</Legend></Line><Line><Value>Absorption (X-Range 1):</Value><Value>0.400000</Value><Value>2.000000</Value><Value>0.015293</Value></Line><Line><Value>Noise (X-Range 4):</Value><Value></Value><Value>0.000300</Value><Value>0.000022</Value></Line><Line><Value>Signal/Noise (X-Range 2):</Value><Value>200.000000</Value><Value></Value><Value>16.363917</Value></Line><Line><Value>Signal/Noise (X-Range 3):</Value><Value>40.000000</Value><Value></Value><Value>85.085537</Value></Line><Line><Value>Water vapour (X-Range 5):</Value><Value></Value><Value>0.000300</Value><Value>0.000016</Value></Line><Line><Value>Signal/Water (X-Range 2):</Value><Value>100.000000</Value><Value></Value><Value>22.513229</Value></Line><Line><Value>Signal/Water (X-Range 3):</Value><Value>20.000000</Value><Value></Value><Value>117.059398</Value></Line><Line><Value>Fringes (X-Range 6):</Value><Value></Value><Value>0.000100</Value><Value>0.000021</Value></Line></Matrix></MainReport></AB__Qtest><Data_Parameters_ScSm><parameter name="DPF">1</parameter><parameter name="NPT">1814</parameter><parameter name="FXV">3996.63438082617</parameter><parameter name="LXV">499.579297603271</parameter><parameter name="CSF">1</parameter><parameter name="MXY">0.329918801784515</parameter><parameter name="MNY">0.0732155963778496</parameter><parameter name="DAT">17/01/2024</parameter><parameter name="TIM">13:06:28.688 (GMT+1)</parameter><parameter name="DXU">WN</parameter></Data_Parameters_ScSm><Data_Parameters_ScRf><parameter name="DPF">1</parameter><parameter name="NPT">1820</parameter><parameter name="FXV">4004.34989121387</parameter><parameter name="LXV">495.721542409425</parameter><parameter name="CSF">1</parameter><parameter name="MXY">0.317568898200989</parameter><parameter name="MNY">0.0681838691234589</parameter><parameter name="DAT">17/01/2024</parameter><parameter name="TIM">13:06:02.828 (GMT+1)</parameter><parameter name="DXU">WN</parameter></Data_Parameters_ScRf><Optic_Parameters_Rf><parameter name="APR">0</parameter><parameter name="APT">Open</parameter><parameter name="BMS">KBr</parameter><parameter name="DTC">RT-DLaTGS_IR-Biotyper [Microplate reader]</parameter><parameter name="HPF">0</parameter><parameter name="LPF">10.0</parameter><parameter name="LPV">4000</parameter><parameter name="PGR">0</parameter><parameter name="RCH">Module port</parameter><parameter name="RDX">0</parameter><parameter name="SRC">MIR</parameter><parameter name="VEL">10.0</parameter><parameter name="SON">Off</parameter></Optic_Parameters_Rf><Acquisition_Parameters_Rf><parameter name="ADT">1</parameter><parameter name="AQM">DD</parameter><parameter name="CFE">0</parameter><parameter name="COR">0</parameter><parameter name="DEL">0</parameter><parameter name="DLY">0</parameter><parameter name="HFW">8000</parameter><parameter name="LFW">0</parameter><parameter name="NSR">32</parameter><parameter name="PLF">AB</parameter><parameter name="RES">6</parameter><parameter name="RGN">-1</parameter><parameter name="STR">0</parameter><parameter name="TCL">MakeCompatibleScalar (0, {WSV=1.000000, ARV=0});</parameter><parameter name="TDL">37</parameter><parameter name="RPO">0</parameter></Acquisition_Parameters_Rf><FT_-_Parameters_Rf><parameter name="APF">B3</parameter><parameter name="HFQ">500</parameter><parameter name="LFQ">4000</parameter><parameter name="NLI">0</parameter><parameter name="PHR">24</parameter><parameter name="PHZ">ML</parameter><parameter name="SPZ">NO</parameter><parameter name="ZFF">1</parameter></FT_-_Parameters_Rf><Optic_Parameters_><parameter name="APR">0</parameter><parameter name="APT">Open</parameter><parameter name="BMS">KBr</parameter><parameter name="CHN">Module port</parameter><parameter name="DTC">RT-DLaTGS_IR-Biotyper [Microplate reader]</parameter><parameter name="HPF">0</parameter><parameter name="LPF">10.0</parameter><parameter name="LPV">4000</parameter><parameter name="PGN">0</parameter><parameter name="RDX">0</parameter><parameter name="SRC">MIR</parameter><parameter name="VEL">10.0</parameter><parameter name="SON">Off</parameter></Optic_Parameters_><FT_-_Parameters_><parameter name="APF">B3</parameter><parameter name="HFQ">500</parameter><parameter name="LFQ">4000</parameter><parameter name="NLI">0</parameter><parameter name="PHR">24</parameter><parameter name="PHZ">ML</parameter><parameter name="SPZ">NO</parameter><parameter name="ZFF">1</parameter></FT_-_Parameters_><Acquisition_Parameters_><parameter name="ADT">1</parameter><parameter name="AQM">DD</parameter><parameter name="CFE">0</parameter><parameter name="COR">0</parameter><parameter name="DEL">0</parameter><parameter name="DLY">0</parameter><parameter name="HFW">8000</parameter><parameter name="LFW">0</parameter><parameter name="NSS">32</parameter><parameter name="PLF">AB</parameter><parameter name="RES">6</parameter><parameter name="SOT">0</parameter><parameter name="TCL">MakeCompatibleScalar (0, {WSV=1.000000, ARV=0});</parameter><parameter name="TDL">37</parameter><parameter name="SPO">0</parameter><parameter name="SGN">-1</parameter></Acquisition_Parameters_><Instrument_Parameters_Rf><parameter name="HFL">15801.365274</parameter><parameter name="LFL">0</parameter><parameter name="LWN">15801.365274</parameter><parameter name="ABP">32157</parameter><parameter name="SSP">1</parameter><parameter name="ARG">2</parameter><parameter name="ASG">2</parameter><parameter name="ASS">32</parameter><parameter name="GFW">16</parameter><parameter name="GBW">16</parameter><parameter name="BFW">0</parameter><parameter name="BBW">0</parameter><parameter name="PKA">9113</parameter><parameter name="PKL">4987</parameter><parameter name="PRA">9134</parameter><parameter name="PRL">5010</parameter><parameter name="P2A">1</parameter><parameter name="P2L">1</parameter><parameter name="P2R">1</parameter><parameter name="P2K">1</parameter><parameter name="DAQ">0</parameter><parameter name="AG2">1</parameter><parameter name="SSM">1</parameter><parameter name="RSN">46308</parameter><parameter name="CRR">0</parameter><parameter name="SRT">1705496762.828</parameter><parameter name="DUR">19.6439971923828</parameter><parameter name="TSC">30.8</parameter><parameter name="MVD">0.510677337646484</parameter><parameter name="AN1">0.226039067413962</parameter><parameter name="AN2">0</parameter><parameter name="VSN">2.485 Apr  4 2017</parameter><parameter name="SRN">0085</parameter><parameter name="CAM">0</parameter><parameter name="INS">IR-Biotyper</parameter><parameter name="FOC">69</parameter><parameter name="RDY">1</parameter><parameter name="ARS">32</parameter></Instrument_Parameters_Rf><Sample_Parameters_><parameter name="BLD"></parameter><parameter name="CNM">Admin</parameter><parameter name="CPY"></parameter><parameter name="DPM"></parameter><parameter name="EXP">IRBT_v3_32Scans.XPM</parameter><parameter name="LCT"></parameter><parameter name="SFM">Microplate, HTS-XT</parameter><parameter name="SNM">240117-1222-Cdiff_SCFA_1_C1_232096617_A6_8c85dd2c-d8eb-4e65-a18e-5fcd2d8b2f68.0</parameter><parameter name="XPP">C:\Users\Public\Documents\Bruker\OPUS_8.2.28\XPM</parameter><parameter name="IST">OK</parameter><parameter name="CPG">1252</parameter><parameter name="UID">f6790a33-8a39-4bd6-a7a4-742183ab6227</parameter></Sample_Parameters_><Instrument_Parameters_><parameter name="HFL">15801.365274</parameter><parameter name="LFL">0</parameter><parameter name="LWN">15801.365274</parameter><parameter name="ABP">32157</parameter><parameter name="SSP">1</parameter><parameter name="ASG">2</parameter><parameter name="ARG">2</parameter><parameter name="ASS">32</parameter><parameter name="GFW">16</parameter><parameter name="GBW">16</parameter><parameter name="BFW">0</parameter><parameter name="BBW">0</parameter><parameter name="PKA">9523</parameter><parameter name="PKL">4987</parameter><parameter name="PRA">9565</parameter><parameter name="PRL">5010</parameter><parameter name="P2A">1</parameter><parameter name="P2L">1</parameter><parameter name="P2R">1</parameter><parameter name="P2K">1</parameter><parameter name="DAQ">0</parameter><parameter name="AG2">1</parameter><parameter name="SSM">1</parameter><parameter name="RSN">23847</parameter><parameter name="CRR">0</parameter><parameter name="SRT">1705496788.689</parameter><parameter name="DUR">19.6439971923828</parameter><parameter name="TSC">30.8</parameter><parameter name="MVD">0.625364542007446</parameter><parameter name="AN1">0.225994723202165</parameter><parameter name="AN2">0</parameter><parameter name="VSN">2.485 Apr  4 2017</parameter><parameter name="SRN">0085</parameter><parameter name="CAM">0</parameter><parameter name="INS">IR-Biotyper</parameter><parameter name="FOC">69</parameter><parameter name="RDY">1</parameter></Instrument_Parameters_><History/></OPUSDataFile>
