<?xml version="1.0" encoding="UTF-8" ?>
<OPUSDataFile><AB><Ydata ylabel="Absorbance Units"><values byteorder="INTEL" format="FLOAT32" numvalues="3497"> -0.08756042 -0.08757655 -0.08759433 -0.08761356 -0.08763392 -0.08765447 -0.08767261 -0.08768906 -0.08770356 -0.08771768
 -0.08773366 -0.08775009 -0.08776774 -0.08778135 -0.08778837 -0.0877862 -0.08777204 -0.08775169 -0.08772522 -0.08770192
 -0.08768349 -0.08767264 -0.08767003 -0.08767077 -0.08767468 -0.08767879 -0.08768359 -0.08769335 -0.0877082 -0.08773195
 -0.08776255 -0.08779576 -0.08782907 -0.08785398 -0.08787167 -0.08787925 -0.08788127 -0.08788148 -0.08788308 -0.08789074
 -0.08790177 -0.08791675 -0.08793011 -0.08793968 -0.08794352 -0.08793999 -0.0879333 -0.08792348 -0.08791745 -0.0879159
 -0.08792202 -0.08793592 -0.08795463 -0.08797761 -0.08799759 -0.08801444 -0.0880231 -0.08802506 -0.08802205 -0.08801674
 -0.08801615 -0.08802129 -0.08803806 -0.08806261 -0.08809415 -0.08812587 -0.088152 -0.08816991 -0.08817507 -0.08817358
 -0.08816562 -0.08816095 -0.08816219 -0.08817382 -0.08819775 -0.08822846 -0.08826598 -0.08829945 -0.08832831 -0.08834575
 -0.08835232 -0.08835197 -0.08834632 -0.08834685 -0.08835377 -0.08837505 -0.08840722 -0.08844706 -0.08848946 -0.08852447
 -0.08855056 -0.08856089 -0.08856007 -0.08854877 -0.08853327 -0.08851713 -0.08850372 -0.08849507 -0.08849236 -0.08849642
 -0.08850654 -0.08852328 -0.08854139 -0.08856058 -0.08857465 -0.08858326 -0.08858691 -0.08858613 -0.0885881 -0.08859278
 -0.08860423 -0.08862075 -0.08863848 -0.08865619 -0.08866829 -0.08867656 -0.08868096 -0.08868442 -0.0886904 -0.08870018
 -0.08871638 -0.08873756 -0.08876412 -0.08879296 -0.08882347 -0.08885161 -0.08887639 -0.08889461 -0.08890553 -0.08890795
 -0.08890136 -0.08888974 -0.08887327 -0.08886168 -0.08885561 -0.08886649 -0.08889356 -0.08893959 -0.08900034 -0.08906323
 -0.08912238 -0.08915525 -0.08916456 -0.08914109 -0.08909948 -0.08905329 -0.08901229 -0.08899107 -0.08898558 -0.08899853
 -0.08902093 -0.08904997 -0.08907977 -0.08910824 -0.08913301 -0.08915359 -0.08916745 -0.08917427 -0.08917278 -0.08916288
 -0.08914707 -0.08912565 -0.08910345 -0.0890807 -0.0890611 -0.08904475 -0.08903392 -0.08902847 -0.08902917 -0.08903582
 -0.08904839 -0.08906682 -0.08909171 -0.08912098 -0.08915447 -0.08918621 -0.08921326 -0.08923013 -0.08923263 -0.08922423
 -0.08920378 -0.08918183 -0.08916006 -0.08914486 -0.08913738 -0.08913647 -0.08914213 -0.08915219 -0.08916662 -0.08918513
 -0.08920719 -0.0892298 -0.08925137 -0.08926387 -0.08926696 -0.08925447 -0.08922993 -0.0891959 -0.08915753 -0.08912215
 -0.08909258 -0.08907406 -0.08906595 -0.08906972 -0.0890826 -0.08910438 -0.08913077 -0.08916099 -0.08919016 -0.08921757
 -0.08923823 -0.08925153 -0.08925394 -0.08924516 -0.08922546 -0.08919527 -0.08916134 -0.0891247 -0.08909592 -0.08907488
 -0.08906748 -0.08907127 -0.08908342 -0.08910064 -0.0891155 -0.08912711 -0.08913045 -0.08912869 -0.08912247 -0.08911573
 -0.08911133 -0.08911005 -0.08911324 -0.08911911 -0.08912697 -0.0891379 -0.0891515 -0.08917262 -0.08920199 -0.0892403
 -0.08928782 -0.0893345 -0.08937974 -0.08941171 -0.08943129 -0.08943887 -0.08943624 -0.08943209 -0.08942451 -0.08941296
 -0.08939502 -0.08936367 -0.08932414 -0.08927879 -0.08923623 -0.08920663 -0.08918884 -0.0891874 -0.08919093 -0.08919585
 -0.08919392 -0.08918024 -0.08916092 -0.08913548 -0.08911557 -0.08910298 -0.08909938 -0.0891052 -0.08911105 -0.08911644
 -0.08911183 -0.08909783 -0.08907373 -0.0890414 -0.08900803 -0.08897464 -0.08894796 -0.08892723 -0.08891462 -0.08890788
 -0.08890577 -0.08890422 -0.0888997 -0.08888787 -0.08886398 -0.0888299 -0.0887835 -0.08873465 -0.08868532 -0.0886446
 -0.08861543 -0.0885966 -0.08858904 -0.08858248 -0.08857633 -0.08856087 -0.08853602 -0.08850194 -0.08845953 -0.08841618
 -0.08837171 -0.08833007 -0.08828867 -0.08824237 -0.08818925 -0.08812201 -0.08804363 -0.0879539 -0.08785912 -0.08776508
 -0.08767549 -0.08759483 -0.08752289 -0.08746132 -0.08740628 -0.08735806 -0.08730803 -0.08725515 -0.08718963 -0.08710989
 -0.08701283 -0.08689801 -0.08676796 -0.08662286 -0.0864661 -0.08629838 -0.08612654 -0.08595201 -0.0857852 -0.08562567
 -0.08547857 -0.08534051 -0.08520748 -0.08507664 -0.08494216 -0.08480385 -0.08465912 -0.08450969 -0.08435542 -0.0841996
 -0.08404332 -0.08389025 -0.08374261 -0.08359806 -0.08345772 -0.08331096 -0.08315684 -0.08298514 -0.0827948 -0.08258671
 -0.08236118 -0.08212771 -0.08188694 -0.08164836 -0.08141217 -0.08118432 -0.08096438 -0.08075443 -0.08055334 -0.08036056
 -0.08017348 -0.07998987 -0.07980328 -0.07960773 -0.07939626 -0.07916001 -0.07890469 -0.0786274 -0.07834756 -0.07807101
 -0.07780852 -0.07756557 -0.07733166 -0.07710687 -0.07687484 -0.07663415 -0.07637965 -0.07611149 -0.07583822 -0.0755606
 -0.07528923 -0.07502339 -0.07476617 -0.0745145 -0.07426138 -0.07400351 -0.07373001 -0.07344183 -0.07313406 -0.07281327
 -0.07248326 -0.07215147 -0.07182427 -0.07150503 -0.07119772 -0.07089972 -0.07061161 -0.07032778 -0.07004698 -0.06976668
 -0.06948608 -0.06920706 -0.06892983 -0.06865245 -0.06837464 -0.06808722 -0.06779006 -0.06747711 -0.06715053 -0.06681728
 -0.06647976 -0.06614967 -0.06582586 -0.06551214 -0.06520493 -0.06490046 -0.06459671 -0.06428951 -0.06398062 -0.06366939
 -0.06335964 -0.06305335 -0.06275166 -0.06245647 -0.06216234 -0.06186895 -0.06156874 -0.06126023 -0.06094237 -0.06061468
 -0.06028333 -0.05994863 -0.05961664 -0.05928728 -0.05896216 -0.05864089 -0.05832263 -0.05800668 -0.05769065 -0.05737349
 -0.05705196 -0.05672506 -0.05638997 -0.05604628 -0.05569217 -0.05532895 -0.05495561 -0.05457811 -0.05419771 -0.05382397
 -0.05346071 -0.05311194 -0.05278079 -0.0524587 -0.05214555 -0.05182821 -0.05150535 -0.05117264 -0.05083001 -0.0504848
 -0.05013764 -0.04979829 -0.04946621 -0.04914419 -0.04883007 -0.04851871 -0.04820784 -0.04788982 -0.04756448 -0.0472273
 -0.04688174 -0.04652877 -0.04617422 -0.04582253 -0.04547742 -0.04514288 -0.04481627 -0.04449823 -0.04418284 -0.04386856
 -0.04355344 -0.0432367 -0.04292076 -0.04260585 -0.04229242 -0.0419804 -0.04166578 -0.04134838 -0.04102474 -0.04069567
 -0.04036341 -0.04002932 -0.03969904 -0.03937336 -0.0390573 -0.0387497 -0.03845152 -0.03815993 -0.0378724 -0.0375866
 -0.03729972 -0.03701176 -0.03672184 -0.03643114 -0.03613982 -0.03584905 -0.03555892 -0.03527139 -0.03498666 -0.03470686
 -0.03443223 -0.03416347 -0.03390061 -0.03364344 -0.0333919 -0.03314584 -0.03290459 -0.03266481 -0.03242511 -0.03217861
 -0.03192543 -0.03166137 -0.03138998 -0.03111432 -0.03083895 -0.03057037 -0.03030999 -0.03006154 -0.02982287 -0.02959419
 -0.02937206 -0.02915537 -0.0289417 -0.02873037 -0.02851959 -0.02830905 -0.02809727 -0.02788406 -0.02766854 -0.02745068
 -0.02723173 -0.0270118 -0.02679268 -0.02657417 -0.02635585 -0.02613763 -0.02591851 -0.02569956 -0.02548313 -0.02526922
 -0.02506024 -0.02485198 -0.02464131 -0.02442308 -0.02419058 -0.02394701 -0.02368984 -0.02343194 -0.02317704 -0.02293565
 -0.02271234 -0.02250504 -0.02231505 -0.0221314 -0.02195327 -0.02177141 -0.02158529 -0.02139316 -0.02119518 -0.02099309
 -0.02078696 -0.02057799 -0.02036625 -0.02015231 -0.01993689 -0.01972202 -0.01950805 -0.01929653 -0.01908716 -0.01887974
 -0.0186753 -0.01847416 -0.01827865 -0.01809086 -0.01790941 -0.0177357 -0.01756174 -0.01738622 -0.01720103 -0.01700377
 -0.01679672 -0.0165791 -0.0163648 -0.01615455 -0.01596217 -0.01578735 -0.01562938 -0.01548595 -0.01534243 -0.0151978
 -0.01503907 -0.01487006 -0.0146927 -0.01451248 -0.01434068 -0.0141769 -0.01402696 -0.01388328 -0.01374193 -0.01359628
 -0.01344034 -0.01327556 -0.01309993 -0.01292117 -0.01274108 -0.01256411 -0.01239223 -0.01222023 -0.01204834 -0.01186415
 -0.01166692 -0.01144949 -0.01121255 -0.0109646 -0.01070806 -0.01046275 -0.01022918 -0.01002125 -0.009834587 -0.009666551
 -0.00951041 -0.009352885 -0.009191719 -0.009017874 -0.008834961 -0.008642949 -0.008445373 -0.008245136 -0.008040862 -0.007832444
 -0.007619358 -0.007400305 -0.007181469 -0.00696338 -0.006753363 -0.006552845 -0.006358613 -0.006170665 -0.005975235 -0.005771866
 -0.005550781 -0.005313598 -0.005065429 -0.00480927 -0.004559958 -0.004317628 -0.004091694 -0.003876939 -0.003669632 -0.003462492
 -0.003244829 -0.003013436 -0.002760816 -0.002490492 -0.002201304 -0.001901016 -0.001592031 -0.001281299 -0.0009713268 -0.0006649567
 -0.0003636121 -6.4263E-05 0.0002330314 0.0005337966 0.000838384 0.001149798 0.001468059 0.001793087 0.002125348 0.002467395
 0.002820912 0.003194448 0.003588073 0.004009027 0.004449849 0.004904471 0.005356181 0.005783166 0.006170623 0.006495118
 0.006761185 0.006959378 0.007117587 0.007242214 0.007364864 0.007496827 0.007649268 0.007828479 0.008019711 0.008223296
 0.008411836 0.008583655 0.008716021 0.008808577 0.008854965 0.008857086 0.008824884 0.008760605 0.008679041 0.008579919
 0.008470462 0.008348364 0.008212186 0.008061585 0.007894265 0.007714256 0.007523549 0.007327682 0.007132003 0.006934349
 0.006738212 0.006527441 0.006299753 0.006035156 0.00572809 0.005376787 0.004978601 0.00455566 0.004109046 0.003664825
 0.003223635 0.002795127 0.002378342 0.001970468 0.001571357 0.00117916 0.0007941038 0.0004161379 4.484403E-05 -0.0003213099
 -0.0006806578 -0.001032781 -0.001372926 -0.001695734 -0.002001286 -0.002285491 -0.00255903 -0.002824257 -0.003094128 -0.003374351
 -0.003664774 -0.003968372 -0.004268606 -0.004564629 -0.004835631 -0.005079967 -0.0052886 -0.005461991 -0.005612459 -0.005742738
 -0.005879742 -0.0060247 -0.006198994 -0.006398095 -0.006622133 -0.00686256 -0.007103072 -0.007338633 -0.007554512 -0.007753295
 -0.007931181 -0.008095106 -0.008248194 -0.008395987 -0.008541821 -0.008687764 -0.008835166 -0.008984179 -0.009135069 -0.009287458
 -0.009441388 -0.009595923 -0.009751014 -0.009905419 -0.01005913 -0.01021212 -0.01036478 -0.01052021 -0.01067876 -0.01084406
 -0.01101515 -0.01119152 -0.01137123 -0.01154989 -0.01172732 -0.01190094 -0.01207273 -0.01224396 -0.01241531 -0.0125884
 -0.01276046 -0.01293041 -0.01309713 -0.01325895 -0.01342117 -0.01358405 -0.01375529 -0.01393633 -0.01412759 -0.01432949
 -0.014534 -0.01474076 -0.01494233 -0.01513935 -0.01533386 -0.01552722 -0.01572739 -0.01593376 -0.01614969 -0.01637141
 -0.0165933 -0.01681179 -0.01701867 -0.01721498 -0.01739751 -0.01757211 -0.01774121 -0.0179108 -0.01808475 -0.01826422
 -0.01845117 -0.01864132 -0.01883465 -0.0190244 -0.01920984 -0.01938481 -0.01954872 -0.01969934 -0.01983679 -0.01996748
 -0.02009266 -0.02022652 -0.02036965 -0.02053365 -0.02071542 -0.02091319 -0.02112087 -0.0213253 -0.0215226 -0.02170045
 -0.02186145 -0.02200226 -0.02213077 -0.02225023 -0.02237008 -0.02249577 -0.02263156 -0.02278156 -0.02293911 -0.02310486
 -0.02326421 -0.02341516 -0.02354889 -0.0236641 -0.02376626 -0.02385568 -0.02394179 -0.0240239 -0.02410006 -0.0241681
 -0.02421551 -0.02424297 -0.02424366 -0.02422502 -0.02419719 -0.0241711 -0.02416766 -0.02419071 -0.02425522 -0.0243498
 -0.02447414 -0.02460779 -0.02474063 -0.02486117 -0.02496165 -0.02504687 -0.02511615 -0.02517742 -0.02523233 -0.02527974
 -0.02531972 -0.02534962 -0.0253695 -0.0253871 -0.02540326 -0.02543006 -0.02546624 -0.02551258 -0.0255653 -0.02561256
 -0.02565264 -0.02567482 -0.02568263 -0.02567584 -0.02566047 -0.02564248 -0.02562617 -0.02561637 -0.02561514 -0.02562439
 -0.0256458 -0.02567992 -0.02572928 -0.02579422 -0.02587823 -0.02598186 -0.02610755 -0.02625596 -0.02642095 -0.02660202
 -0.02678107 -0.02695692 -0.02710988 -0.02724152 -0.027348 -0.02743476 -0.02751705 -0.02759913 -0.02769913 -0.02781435
 -0.02794983 -0.02809817 -0.02825315 -0.02841033 -0.02856337 -0.02871457 -0.02886297 -0.02901309 -0.02916664 -0.02932484
 -0.0294886 -0.02965618 -0.02982758 -0.0300001 -0.03017367 -0.03034303 -0.0305079 -0.03066176 -0.0308049 -0.03093727
 -0.03106079 -0.03118594 -0.0313137 -0.03145422 -0.03160389 -0.03176043 -0.03191862 -0.03206819 -0.03220965 -0.03233831
 -0.03246039 -0.03257926 -0.03269883 -0.0328229 -0.03294951 -0.03307883 -0.03320858 -0.03333773 -0.03346802 -0.03359967
 -0.03373357 -0.03387019 -0.03400386 -0.03413425 -0.03425077 -0.0343531 -0.03443352 -0.0344936 -0.03453673 -0.03456692
 -0.03459937 -0.03463705 -0.03469544 -0.0347719 -0.03487122 -0.03498396 -0.03510297 -0.03521692 -0.0353153 -0.03539065
 -0.03543556 -0.03545022 -0.03543202 -0.03538775 -0.03531824 -0.0352305 -0.03512618 -0.03500569 -0.03486948 -0.03471261
 -0.03453483 -0.03433395 -0.03411011 -0.03386535 -0.03359911 -0.03330995 -0.03299548 -0.03264643 -0.03226145 -0.03183128
 -0.03135973 -0.03084731 -0.03030198 -0.02973258 -0.02914537 -0.02854865 -0.02794319 -0.02733185 -0.02671267 -0.02608502
 -0.02544954 -0.02480575 -0.02415714 -0.02350399 -0.02285025 -0.0221961 -0.02154688 -0.02090288 -0.0202771 -0.01967127
 -0.01911011 -0.01859666 -0.01816158 -0.01780626 -0.01755315 -0.01739901 -0.0173491 -0.01739526 -0.01752856 -0.01773705
 -0.01800683 -0.01832067 -0.01866502 -0.01901473 -0.01935624 -0.01966139 -0.01991754 -0.02010557 -0.02021736 -0.02024974
 -0.02020012 -0.02007601 -0.0198775 -0.01961517 -0.01928958 -0.01891594 -0.01849589 -0.0180544 -0.01759458 -0.0171478
 -0.01671694 -0.0163292 -0.01598534 -0.01570061 -0.01547468 -0.01531297 -0.0152168 -0.01518797 -0.01523289 -0.01535502
 -0.01556619 -0.01587285 -0.01628616 -0.01681354 -0.01745329 -0.01820968 -0.01906131 -0.02000789 -0.02101392 -0.02207686
 -0.02315836 -0.02425613 -0.0253358 -0.02639575 -0.02740678 -0.02836818 -0.02925985 -0.03008349 -0.03083341 -0.03151456
 -0.03213516 -0.03270181 -0.03322875 -0.03372201 -0.03419395 -0.03464869 -0.03509377 -0.03553014 -0.03596144 -0.03638301
 -0.0367951 -0.03718834 -0.03756071 -0.03790392 -0.03821596 -0.03849434 -0.0387384 -0.03894989 -0.0391289 -0.03927609
 -0.03939142 -0.03947385 -0.03952356 -0.03954103 -0.03952726 -0.03948537 -0.03941824 -0.03933251 -0.03923555 -0.03914034
 -0.03906002 -0.03901406 -0.03901558 -0.0390834 -0.03921967 -0.03943456 -0.03971233 -0.04005323 -0.0404267 -0.04082747
 -0.04122008 -0.04159855 -0.04193348 -0.04222091 -0.04244443 -0.04260257 -0.04269649 -0.04272764 -0.04271906 -0.04267657
 -0.04264827 -0.04264384 -0.04272684 -0.04290377 -0.04322743 -0.04368962 -0.04430664 -0.04505002 -0.04589717 -0.04680751
 -0.04774163 -0.04866463 -0.04954418 -0.05036638 -0.05111578 -0.05179978 -0.05241613 -0.05298037 -0.05349474 -0.05397131
 -0.0544116 -0.05482324 -0.05520681 -0.05556816 -0.05590755 -0.05622907 -0.05653287 -0.05682161 -0.05709615 -0.05736114
 -0.05761773 -0.05787171 -0.05812268 -0.05837313 -0.0586206 -0.05886295 -0.05909828 -0.05932367 -0.05954001 -0.05974663
 -0.05994604 -0.06013901 -0.06032776 -0.06051301 -0.06069642 -0.06087847 -0.06105976 -0.06124058 -0.06141942 -0.06159626
 -0.06176821 -0.06193517 -0.06209539 -0.06224927 -0.06239869 -0.06254454 -0.06269156 -0.0628401 -0.06299411 -0.06315206
 -0.06331359 -0.06347568 -0.06363417 -0.06378737 -0.06393147 -0.06406858 -0.06419817 -0.06432492 -0.06445061 -0.06457859
 -0.06471074 -0.06484585 -0.06498455 -0.06512159 -0.06525653 -0.06538443 -0.06550483 -0.065618 -0.06572414 -0.06582849
 -0.06593134 -0.06603775 -0.06614721 -0.06626035 -0.06637627 -0.0664928 -0.06660946 -0.06672426 -0.06683722 -0.06694749
 -0.06705555 -0.06716114 -0.06726602 -0.06737088 -0.06747815 -0.06758942 -0.06770457 -0.06782468 -0.067945 -0.06806508
 -0.06817916 -0.06828631 -0.06838469 -0.06847399 -0.06855717 -0.0686345 -0.0687113 -0.06878795 -0.06887011 -0.06895787
 -0.06905506 -0.06916051 -0.06927357 -0.06939154 -0.06950886 -0.06962396 -0.0697316 -0.06983384 -0.06993026 -0.07002461
 -0.07011969 -0.07021634 -0.07031617 -0.07041667 -0.07051747 -0.07061622 -0.07071229 -0.07080514 -0.07089449 -0.07098138
 -0.07106576 -0.07115098 -0.07123727 -0.07132993 -0.07142892 -0.07153656 -0.07165179 -0.07177112 -0.07189343 -0.07201339
 -0.07213127 -0.07224496 -0.07235546 -0.07246356 -0.07256916 -0.07267267 -0.07277305 -0.07286963 -0.07296204 -0.07304963
 -0.07313363 -0.07321397 -0.07329318 -0.0733717 -0.07345177 -0.07353384 -0.07361833 -0.0737054 -0.0737931 -0.07388129
 -0.07396707 -0.07405043 -0.07412998 -0.07420608 -0.0742798 -0.07435156 -0.07442334 -0.07449511 -0.07456797 -0.07464084
 -0.07471271 -0.07478249 -0.0748484 -0.07491109 -0.07496989 -0.07502765 -0.07508534 -0.07514579 -0.07521032 -0.07527948
 -0.07535388 -0.07543186 -0.07551346 -0.07559588 -0.07567892 -0.07576014 -0.07583945 -0.07591603 -0.07598998 -0.07606208
 -0.07613241 -0.07620188 -0.07627039 -0.07633795 -0.07640477 -0.07647105 -0.07653763 -0.07660586 -0.07667615 -0.07674973
 -0.07682565 -0.07690397 -0.07698259 -0.07706051 -0.07713643 -0.07720969 -0.07727979 -0.07734639 -0.07741001 -0.07747063
 -0.07752912 -0.07758556 -0.07764112 -0.07769591 -0.07775128 -0.07780734 -0.07786562 -0.07792628 -0.07799111 -0.07805997
 -0.07813367 -0.07821126 -0.07829138 -0.07837252 -0.07845196 -0.07852846 -0.07859954 -0.07866543 -0.07872508 -0.07878058
 -0.07883228 -0.07888338 -0.07893503 -0.07898916 -0.07904664 -0.07910695 -0.07917023 -0.07923526 -0.0793019 -0.07937014
 -0.07943999 -0.07951184 -0.07958552 -0.07965923 -0.07973262 -0.07980275 -0.07986969 -0.07993187 -0.07999013 -0.08004549
 -0.08009876 -0.08015159 -0.08020457 -0.08025895 -0.08031503 -0.08037348 -0.08043417 -0.08049745 -0.08056207 -0.08062788
 -0.08069298 -0.08075688 -0.08081862 -0.08087783 -0.08093546 -0.08099149 -0.08104782 -0.08110455 -0.08116316 -0.08122367
 -0.08128692 -0.0813527 -0.08142062 -0.08149001 -0.08155864 -0.08162579 -0.08168851 -0.08174711 -0.08180025 -0.08184993
 -0.08189762 -0.08194552 -0.08199599 -0.08204939 -0.08210688 -0.08216681 -0.08222899 -0.0822916 -0.08235421 -0.08241568
 -0.08247578 -0.08253398 -0.08259024 -0.0826439 -0.08269496 -0.08274301 -0.08278813 -0.08283088 -0.08287149 -0.08291159
 -0.08295143 -0.08299276 -0.08303558 -0.08308071 -0.08312802 -0.0831776 -0.08322951 -0.08328406 -0.08334059 -0.08339907
 -0.08345766 -0.08351545 -0.08357092 -0.08362292 -0.08367253 -0.08371951 -0.08376651 -0.08381405 -0.08386245 -0.08391191
 -0.08396013 -0.084007 -0.08405127 -0.08409307 -0.08413392 -0.084174 -0.08421534 -0.08425772 -0.08430146 -0.08434632
 -0.08439165 -0.08443795 -0.08448577 -0.08453543 -0.08458784 -0.08464218 -0.0846982 -0.08475489 -0.08481133 -0.0848681
 -0.08492502 -0.08498354 -0.08504418 -0.08510683 -0.08517176 -0.08523705 -0.08530257 -0.08536666 -0.08542923 -0.08548959
 -0.08554769 -0.08560303 -0.08565555 -0.08570444 -0.08574986 -0.08579179 -0.08583082 -0.08586807 -0.08590463 -0.08594261
 -0.08598318 -0.0860287 -0.08607905 -0.08613551 -0.0861956 -0.08625872 -0.08632158 -0.0863826 -0.08644083 -0.08649534
 -0.08654835 -0.08659997 -0.08665305 -0.08670798 -0.08676544 -0.0868255 -0.08688632 -0.08694775 -0.08700708 -0.08706421
 -0.08711694 -0.08716542 -0.08720881 -0.08724769 -0.0872828 -0.08731522 -0.08734701 -0.08737917 -0.08741388 -0.08745105
 -0.08749168 -0.08753418 -0.08757801 -0.08762157 -0.08766391 -0.08770502 -0.08774462 -0.08778365 -0.08782233 -0.08786076
 -0.08789899 -0.08793657 -0.08797345 -0.08801036 -0.08804738 -0.08808613 -0.08812647 -0.08816852 -0.0882118 -0.08825427
 -0.08829587 -0.08833512 -0.08837285 -0.08840977 -0.08844675 -0.08848543 -0.08852529 -0.08856671 -0.08860806 -0.08864824
 -0.08868702 -0.08872371 -0.08876 -0.08879613 -0.08883387 -0.0888738 -0.08891522 -0.08895825 -0.08900069 -0.08904239
 -0.0890821 -0.08911981 -0.08915576 -0.08918989 -0.08922217 -0.08925232 -0.08927905 -0.08930245 -0.08932167 -0.089338
 -0.08935289 -0.08936851 -0.08938822 -0.08941294 -0.08944532 -0.08948309 -0.08952645 -0.08957046 -0.08961322 -0.08965135
 -0.08968288 -0.08970989 -0.089732 -0.08975445 -0.08977786 -0.0898048 -0.08983555 -0.089867 -0.08989894 -0.08992696
 -0.08995128 -0.08997136 -0.08998802 -0.09000444 -0.09002111 -0.09004115 -0.09006413 -0.09009074 -0.09012028 -0.09015203
 -0.09018584 -0.09022108 -0.09025851 -0.09029824 -0.09034155 -0.09038875 -0.09044163 -0.09050079 -0.09056716 -0.09064125
 -0.09072163 -0.09080844 -0.09089798 -0.09099003 -0.09108125 -0.09117154 -0.09125873 -0.09134259 -0.09142067 -0.09149211
 -0.09155208 -0.09160005 -0.0916319 -0.09164815 -0.09164772 -0.09163145 -0.09160014 -0.09155393 -0.09149219 -0.09141817
 -0.09133121 -0.09124271 -0.09115575 -0.09108461 -0.0910342 -0.0910117 -0.09102011 -0.09105658 -0.09112197 -0.09120394
 -0.09130201 -0.09139618 -0.09148552 -0.09155297 -0.09159955 -0.09162418 -0.09162986 -0.09162873 -0.09162253 -0.0916229
 -0.09162839 -0.09164274 -0.09166133 -0.09167986 -0.09169415 -0.09169796 -0.09169216 -0.0916745 -0.09165015 -0.09162071
 -0.09159023 -0.0915604 -0.09153235 -0.09150642 -0.09148388 -0.09146477 -0.09145171 -0.09144492 -0.09144607 -0.09145514
 -0.09147083 -0.09149271 -0.09151679 -0.09154259 -0.09156578 -0.09158638 -0.09160185 -0.09161333 -0.09162137 -0.09162819
 -0.09163688 -0.0916492 -0.09166836 -0.09169353 -0.09172591 -0.09176157 -0.09179938 -0.09183526 -0.09186731 -0.09189542
 -0.09191877 -0.09194107 -0.09196256 -0.09198717 -0.09201526 -0.09204838 -0.09208653 -0.09212908 -0.09217577 -0.09222419
 -0.09227391 -0.09232178 -0.09236749 -0.09240852 -0.09244523 -0.092477 -0.09250466 -0.09252895 -0.0925509 -0.09257161
 -0.09259205 -0.09261315 -0.09263548 -0.09265958 -0.09268536 -0.09271301 -0.09274191 -0.09277199 -0.09280268 -0.09283391
 -0.09286506 -0.0928961 -0.09292626 -0.09295554 -0.0929835 -0.09301019 -0.09303585 -0.09306057 -0.09308476 -0.0931083
 -0.09313102 -0.09315271 -0.09317286 -0.09319139 -0.09320776 -0.09322266 -0.09323628 -0.09324996 -0.09326462 -0.09328123
 -0.09330071 -0.09332241 -0.09334652 -0.09337149 -0.0933971 -0.09342194 -0.09344578 -0.09346796 -0.0934884 -0.09350671
 -0.09352288 -0.0935371 -0.09354948 -0.09356093 -0.09357163 -0.09358291 -0.09359474 -0.0936078 -0.09362183 -0.09363667
 -0.09365193 -0.09366693 -0.09368141 -0.09369486 -0.09370731 -0.09371854 -0.093729 -0.0937387 -0.09374857 -0.09375886
 -0.09377042 -0.09378345 -0.09379853 -0.09381579 -0.09383496 -0.09385605 -0.0938783 -0.09390165 -0.09392488 -0.09394786
 -0.09396885 -0.0939877 -0.09400262 -0.09401374 -0.09402018 -0.09402286 -0.09402297 -0.09402207 -0.0940231 -0.0940265
 -0.09403435 -0.09404468 -0.09405696 -0.09406875 -0.09407821 -0.09408601 -0.09409153 -0.09409793 -0.09410597 -0.09411669
 -0.0941306 -0.09414558 -0.0941615 -0.09417694 -0.09419188 -0.09420754 -0.09422393 -0.09424182 -0.09426066 -0.09427799
 -0.09429322 -0.09430295 -0.09430768 -0.09430635 -0.09430076 -0.09429289 -0.09428479 -0.09427948 -0.09427768 -0.09428121
 -0.09428881 -0.0943005 -0.0943144 -0.0943299 -0.09434586 -0.09436195 -0.09437738 -0.09439199 -0.09440514 -0.09441672
 -0.09442702 -0.09443606 -0.09444465 -0.09445275 -0.09446011 -0.09446662 -0.09447129 -0.09447463 -0.09447766 -0.09448116
 -0.09448775 -0.0944968 -0.09450899 -0.09452205 -0.09453357 -0.09454264 -0.09454697 -0.09454934 -0.09455009 -0.09455326
 -0.09456083 -0.09457288 -0.09459039 -0.09460905 -0.09462844 -0.09464463 -0.09465707 -0.09466609 -0.09467173 -0.09467695
 -0.09468184 -0.0946883 -0.09469607 -0.09470463 -0.09471378 -0.09472248 -0.09473085 -0.0947386 -0.09474597 -0.09475323
 -0.09476056 -0.09476828 -0.09477647 -0.09478526 -0.09479477 -0.09480518 -0.09481608 -0.09482755 -0.0948383 -0.0948481
 -0.09485562 -0.09486047 -0.09486316 -0.09486356 -0.09486462 -0.0948665 -0.0948723 -0.09488196 -0.09489588 -0.09491353
 -0.09493222 -0.09495132 -0.0949671 -0.09497973 -0.09498743 -0.09499165 -0.09499363 -0.09499525 -0.0949994 -0.09500626
 -0.09501742 -0.09503078 -0.09504576 -0.09506045 -0.09507376 -0.09508595 -0.09509674 -0.09510751 -0.09511848 -0.09513009
 -0.09514244 -0.09515478 -0.09516709 -0.09517901 -0.0951906 -0.09520242 -0.09521449 -0.09522758 -0.09524129 -0.09525477
 -0.09526739 -0.09527688 -0.09528363 -0.09528679 -0.09528813 -0.09528928 -0.09529173 -0.09529764 -0.09530605 -0.09531721
 -0.09532926 -0.09534139 -0.09535314 -0.09536409 -0.0953751 -0.09538624 -0.09539827 -0.09541129 -0.09542564 -0.09544132
 -0.09545843 -0.09547694 -0.0954962 -0.09551603 -0.09553498 -0.09555294 -0.09556873 -0.09558234 -0.0955932 -0.09560137
 -0.09560651 -0.09560931 -0.09561011 -0.09561042 -0.09561133 -0.0956145 -0.09562116 -0.09563215 -0.09564834 -0.09566891
 -0.09569417 -0.09572136 -0.09575036 -0.09577706 -0.09580102 -0.09581966 -0.0958328 -0.09584121 -0.09584498 -0.09584587
 -0.09584389 -0.09583996 -0.09583428 -0.09582764 -0.09582089 -0.09581657 -0.09581504 -0.09581858 -0.09582555 -0.09583534
 -0.0958451 -0.09585207 -0.0958553 -0.09585295 -0.09584709 -0.09583786 -0.09582794 -0.09581828 -0.09580922 -0.09580107
 -0.09579303 -0.09578495 -0.09577754 -0.09577082 -0.0957661 -0.09576329 -0.09576155 -0.09576054 -0.09575734 -0.09575215
 -0.09574385 -0.09573349 -0.09572329 -0.09571386 -0.09570774 -0.09570395 -0.09570266 -0.09570201 -0.09570049 -0.09569685
 -0.09568986 -0.09567931 -0.09566474 -0.09564683 -0.09562551 -0.09560222 -0.09557712 -0.09555168 -0.0955261 -0.09550136
 -0.09547755 -0.09545542 -0.09543504 -0.0954176 -0.09540301 -0.09539139 -0.09538215 -0.09537333 -0.09536405 -0.09535082
 -0.09533376 -0.09531091 -0.09528412 -0.09525446 -0.09522453 -0.0951972 -0.09517315 -0.09515421 -0.09513798 -0.09512422
 -0.0951097 -0.09509322 -0.09507418 -0.095052 -0.0950288 -0.09500477 -0.09498157 -0.09495934 -0.09493778 -0.09491679
 -0.09489464 -0.09487128 -0.09484555 -0.0948177 -0.09478811 -0.09475724 -0.09472649 -0.09469616 -0.09466753 -0.0946405
 -0.09461551 -0.09459221 -0.09457063 -0.09454987 -0.09452958 -0.0945086 -0.09448623 -0.09446228 -0.0944363 -0.09440967
 -0.09438263 -0.09435569 -0.09432913 -0.09430077 -0.09427051 -0.09423605 -0.09419742 -0.09415513 -0.09410954 -0.09406371
 -0.09401792 -0.09397499 -0.09393464 -0.0938978 -0.09386368 -0.09383141 -0.09379993 -0.09376734 -0.09373337 -0.09369703
 -0.09365857 -0.09361789 -0.09357509 -0.0935301 -0.09348335 -0.09343467 -0.09338582 -0.093337 -0.09329022 -0.09324585
 -0.09320392 -0.09316451 -0.09312605 -0.09308846 -0.09304969 -0.09300976 -0.09296761 -0.0929236 -0.09287844 -0.09283263
 -0.09278827 -0.09274501 -0.09270357 -0.09266232 -0.09261927 -0.09257369 -0.09252366 -0.09247077 -0.09241527 -0.09235916
 -0.09230375 -0.09224866 -0.0921942 -0.09213909 -0.09208301 -0.09202586 -0.09196755 -0.09190843 -0.09184853 -0.09178809
 -0.09172715 -0.09166633 -0.09160578 -0.09154663 -0.09148895 -0.09143372 -0.09138034 -0.09132788 -0.09127519 -0.09121969
 -0.09116051 -0.09109498 -0.09102417 -0.09094775 -0.09086817 -0.09078669 -0.09070564 -0.09062629 -0.0905503 -0.0904786
 -0.0904112 -0.09034881 -0.09028763 -0.09022757 -0.09016246 -0.09009174 -0.09001323 -0.089927 -0.08983726 -0.08974439
 -0.08965377 -0.08956511 -0.08948009 -0.0893978 -0.08931651 -0.08923534 -0.08915164 -0.08906537 -0.08897495 -0.0888819
 -0.08878698 -0.08869181 -0.08859795 -0.08850535 -0.08841449 -0.0883244 -0.08823463 -0.08814577 -0.08805791 -0.0879712
 -0.08788595 -0.08779941 -0.08771145 -0.08761916 -0.0875225 -0.08742187 -0.08731744 -0.08721112 -0.08710262 -0.0869917
 -0.08687778 -0.08675879 -0.08663514 -0.08650615 -0.08637363 -0.08623989 -0.08610625 -0.08597554 -0.08584608 -0.08571813
 -0.08558821 -0.08545434 -0.08531612 -0.08517226 -0.08502696 -0.08488096 -0.08473726 -0.08459681 -0.08445719 -0.08431844
 -0.08417467 -0.08402559 -0.08386625 -0.08369685 -0.08351694 -0.08332748 -0.08313309 -0.08293416 -0.0827349 -0.08253367
 -0.08232935 -0.08211967 -0.0819004 -0.08167163 -0.08143153 -0.08118196 -0.08092383 -0.08065795 -0.08038522 -0.08010484
 -0.07981708 -0.07951948 -0.07921181 -0.07889064 -0.07855505 -0.07820637 -0.07784422 -0.07747864 -0.0771101 -0.07674689
 -0.07638858 -0.07603358 -0.0756816 -0.07532986 -0.07497961 -0.0746344 -0.07429338 -0.07395826 -0.07362325 -0.07328045
 -0.07292591 -0.07255043 -0.07215936 -0.07175292 -0.07133856 -0.0709215 -0.07050022 -0.07007619 -0.06964304 -0.06919931
 -0.06874258 -0.06827235 -0.06778776 -0.06728921 -0.06676675 -0.06621972 -0.0656277 -0.0649905 -0.06429696 -0.06355099
 -0.0627677 -0.06194951 -0.06111564 -0.06025825 -0.05937144 -0.05844319 -0.05745206 -0.0563929 -0.05525283 -0.05402915
 -0.05272061 -0.05131055 -0.04979471 -0.0481447 -0.04634694 -0.04439778 -0.04228576 -0.04006207 -0.03772748 -0.03536458
 -0.03297996 -0.03064124 -0.02835187 -0.02614283 -0.02401157 -0.02194452 -0.01993171 -0.01791394 -0.01588183 -0.01376466
 -0.01157911 -0.009317586 -0.007024191 -0.004770475 -0.002567263 -0.0004673922 0.001576491 0.003579475 0.005591763 0.007647728
 0.009756733 0.0119313 0.01416082 0.01644318 0.01878061 0.02117458 0.02361629 0.0261069 0.02860836 0.03111868
 0.03360483 0.03606419 0.03846327 0.04079018 0.04296369 0.04496854 0.04670629 0.04817826 0.0493375 0.05019586
 0.05074817 0.05101498 0.05100382 0.05077073 0.05035039 0.04981397 0.04920908 0.04856892 0.04791743 0.04725741
 0.04659421 0.04592203 0.04524298 0.04453402 0.04379523 0.04297833 0.04208068 0.0410495 0.03988517 0.03857446
 0.0371265 0.03558692 0.03396391 0.03231261 0.03062924 0.02893157 0.0272148 0.02547343 0.02371979 0.02195802
 0.02022174 0.01853434 0.01693127 0.01543916 0.01407057 0.01283796 0.01173422 0.0107599 0.009907182 0.00917478
 0.008558905 0.008059339 0.007669888 0.007390201 0.007213112 0.007138474 0.007163123 0.007286753 0.007506886 0.007821349
 0.008221798 0.008704743 0.009257916 0.009878913 0.01055821 0.01129544 0.01208672 0.01293195 0.01383031 0.01478039
 0.01578153 0.01683171 0.0179305 0.01907467 0.02026428 0.02149203 0.02275733 0.02405081 0.02537161 0.02671241
 0.02807277 0.02944415 0.03082589 0.03220647 0.03358585 0.03495875 0.0363243 0.03768061 0.03901775 0.04031358
 0.04155269 0.04269577 0.04374367 0.04467874 0.04551619 0.046265 0.04692897 0.04751517 0.04801459 0.04842431
 0.04874218 0.04896649 0.04910034 0.04914472 0.0490958 0.04895299 0.048717 0.04838775 0.04797851 0.04748904
 0.04691901 0.04626454 0.04550069 0.04462348 0.04360399 0.04244243 0.04112364 0.03965248 0.03803169 0.03626202
 0.03434806 0.03228152 0.03004871 0.02767167 0.0251384 0.02254542 0.01992179 0.01735935 0.01489863 0.01253027
 0.01026308 0.008043998 0.005866259 0.003719339 0.001601806 -0.0004592871 -0.002463144 -0.004394097 -0.006253558 -0.008044608
 -0.009766664 -0.01141834 -0.01299946 -0.01450437 -0.01594436 -0.01733075 -0.01868891 -0.02005199 -0.02144404 -0.02290009
 -0.02441993 -0.02601834 -0.02766973 -0.02936818 -0.03109069 -0.03283019 -0.0345735 -0.03632301 -0.03803021 -0.03969397
 -0.04122911 -0.04262953 -0.04387149 -0.04495856 -0.04595696 -0.04687354 -0.04778936 -0.04870199 -0.0496478 -0.05061407
 -0.05158783 -0.05255496 -0.05348518 -0.05436788 -0.05517991 -0.05591009 -0.05654223 -0.05706716 -0.05747426 -0.05776247
 -0.05792818 -0.05797595 -0.05790647 -0.05772289 -0.05742621 -0.05701604 -0.05649287 -0.05585107 -0.05509034 -0.05420258
 -0.05318889 -0.05206558 -0.05084271 -0.04959717 -0.04834494 -0.04719557 -0.04615114 -0.04527802 -0.04455831 -0.04399408
 -0.04355696 -0.04321541 -0.04293827 -0.04269053 -0.04244392 -0.04217171 -0.04185944 -0.04148942 -0.04108054 -0.0406293
 -0.04018157 -0.03974667 -0.03934655 -0.03898755 -0.03864918 -0.03833079 -0.03800222 -0.03766276 -0.03730208 -0.03692225
 -0.03653421 -0.03613951 -0.03575173 -0.03536812 -0.03498998 -0.03460988 -0.03421597 -0.03379909 -0.03334316 -0.03284081
 -0.03228165 -0.03165652 -0.0309602 -0.0301755 -0.02929544 -0.02830282 -0.02718914 -0.02595592 -0.02459956 -0.02314143
 -0.02158358 -0.01994256 -0.01821993 -0.01641561 -0.01453024 -0.01257494 -0.01055628 -0.008528275 -0.006502821 -0.004559605
 -0.002707084 -0.001006997 0.0005321269 0.001871111 0.002990661 0.003853081 0.004434943 0.004699727 0.004641306 0.004239471
 0.00351671 0.002471491 0.001149393 -0.0004421271 -0.002244106 -0.004248064 -0.006389552 -0.00866255 -0.01099732 -0.01338938
 -0.01576399 -0.01811763 -0.0203904 -0.02258316 -0.02467525 -0.02667157 -0.02858339 -0.03041281 -0.0321732 -0.03386021
 -0.03547182 -0.03700328 -0.0384455 -0.03980087 -0.04106642 -0.04225156 -0.04336027 -0.04440373 -0.0453874 -0.04631977
 -0.04720435 -0.04804615 -0.04884618 -0.04961022 -0.05033834 -0.05104226 -0.05172275 -0.05239245 -0.05305151 -0.05369772
 -0.05432824 -0.05491799 -0.05546341 -0.05593286 -0.05632856 -0.05663807 -0.05687127 -0.05704064 -0.05715765 -0.05724355
 -0.05730477 -0.05735606 -0.05739633 -0.05743015 -0.05745123 -0.05745762 -0.05744509 -0.05741062 -0.05735851 -0.05728788
 -0.05721072 -0.05712785 -0.05705343 -0.05698847 -0.05694558 -0.05692535 -0.05693622 -0.05697797 -0.05705236 -0.0571583
 -0.05729201 -0.0574517 -0.05763083 -0.05782638 -0.0580304 -0.05823741 -0.05843756 -0.05862383 -0.05878631 -0.05891937
 -0.0590158 -0.05907478 -0.05909296 -0.05907608 -0.05902398 -0.05894741 -0.05884772 -0.05873752 -0.05861814 -0.05850262
 -0.05839192 -0.05829906 -0.05822468 -0.05817905 -0.05816201 -0.0581768 -0.05822206 -0.0582934 -0.0583885 -0.05849845
 -0.05862052 -0.05874503 -0.0588698 -0.05898708 -0.05909735 -0.05919727 -0.05929117 -0.0593802 -0.05947079 -0.0595664
 -0.05967053 -0.05978604 -0.05990965 -0.06004202 -0.06017485 -0.06030738 -0.06043135 -0.06054602 -0.06064636 -0.06073214
 -0.06080119 -0.06085369 -0.06089067 -0.06091272 -0.06092329 -0.06092262 -0.06091359 -0.0608952 -0.06086677 -0.06082712
 -0.06077396 -0.06070731 -0.06062639 -0.06053128 -0.06042216 -0.06029788 -0.06015769 -0.06000159 -0.05982879 -0.05964256
 -0.05944318 -0.05923509 -0.059019 -0.05879754 -0.05857097 -0.05834132 -0.05810878 -0.0578783 -0.05765042 -0.05743248
 -0.05722481 -0.05703318 -0.05685687 -0.05669677 -0.05655144 -0.05641793 -0.05629572 -0.05618213 -0.05607887 -0.05598631
 -0.0559073 -0.05584412 -0.05579835 -0.05577178 -0.05576332 -0.05577333 -0.05579905 -0.05583999 -0.05589376 -0.05595996
 -0.05603717 -0.05612526 -0.05622258 -0.056329 -0.05644131 -0.05655937 -0.05668036 -0.05680466 -0.05693282 -0.05706572
 -0.05720666 -0.05735608 -0.05751669 -0.05768808 -0.05787108 -0.05806438 -0.05826753 -0.05847762 -0.05869331 -0.05890926
 -0.05912282 -0.05932897 -0.05952511 -0.05970972 -0.05988167 -0.06004243 -0.06019201 -0.06033189 -0.06046217 -0.06058423
 -0.06069817 -0.06080623 -0.06090847 -0.06100633 -0.06109935 -0.06118564 -0.06126483 -0.06133431 -0.06139497 -0.06144742
 -0.06149288 -0.06153434 -0.06157041 -0.06160163 -0.06162377 -0.06163415 -0.06162866 -0.06160437 -0.06155943 -0.06149276
 -0.06140286 -0.06128966 -0.06114976 -0.06098289 -0.06078456 -0.06055422 -0.06028966 -0.05999075 -0.05966223 -0.05930522
 -0.0589342 -0.05855152 -0.05817823 -0.05781566 -0.0574808 -0.05717098 -0.05688987 -0.05663081 -0.05638538 -0.05614663
 -0.05590326 -0.05565213 -0.05538667 -0.05510797 -0.05481442 -0.05450962 -0.05419401 -0.05387252 -0.05354591 -0.05322039
 -0.05289678 -0.05258115 -0.05227422 -0.05197927 -0.05169651 -0.05142534 -0.05116544 -0.05091265 -0.05066607 -0.05041848
 -0.05016861 -0.049908 -0.04963605 -0.04934688 -0.04904129 -0.04871764 -0.04837784 -0.04802321 -0.04765598 -0.04727769
 -0.04689187 -0.04649998 -0.04610755 -0.04571635 -0.04533251 -0.04495817 -0.04459544 -0.04424592 -0.04390303 -0.04356682
 -0.04322455 -0.04287548 -0.04251049 -0.04212989 -0.04173622 -0.04133097 -0.04092479 -0.04051855 -0.04012125 -0.03973265
 -0.03935647 -0.03899255 -0.03864208 -0.03830528 -0.03798292 -0.03767483 -0.03738133 -0.0371015 -0.0368352 -0.0365806
 -0.03633721 -0.03610265 -0.03587636 -0.03565612 -0.03544168 -0.03523047 -0.0350225 -0.03481232 -0.03459965 -0.03437573
 -0.03414017 -0.03388539 -0.03361177 -0.03331754 -0.03300433 -0.03267683 -0.03233758 -0.03199478 -0.03165099 -0.03131391
 -0.03098601 -0.03067266 -0.03037683 -0.0301021 -0.02985228 -0.02963025 -0.02943903 -0.02928065 -0.02915563 -0.02906506
 -0.02900584 -0.02897857 -0.0289741 -0.0289923 -0.02901692 -0.02904706 -0.02906393 -0.02906688 -0.02904355 -0.02899455
 -0.02891772 -0.02881438 -0.0286884 -0.0285408 -0.02837615 -0.02819472 -0.02799914 -0.02778913 -0.02756541 -0.02732753
 -0.02707462 -0.02680884 -0.02652921 -0.02624475 -0.02595655 -0.02568075 -0.0254211 -0.02519257 -0.02499942 -0.02484331
 -0.02472615 -0.02463248 -0.02456166 -0.02449087 -0.02441914 -0.02432907 -0.02422082 -0.0240869 -0.02392816 -0.02374371
 -0.02353475 -0.02330348 -0.02305173 -0.02278342 -0.02250071 -0.02220779 -0.02190618 -0.0215985 -0.02128583 -0.02096897
 -0.02065043 -0.02033063 -0.02001463 -0.01970322 -0.01940327 -0.01911583 -0.01884745 -0.01859884 -0.01837542 -0.01817757
 -0.01800966 -0.01787189 -0.01776771 -0.01769756 -0.01766591 -0.01767407 -0.01772941 -0.01783402 -0.01799747 -0.01822066
 -0.01851076 -0.01886494 -0.01928433 -0.01976073 -0.0202895 -0.02085743 -0.02145658 -0.0220735 -0.02270064 -0.02333081
 -0.02395979 -0.02458842 -0.02521587 -0.02584608 -0.02647939 -0.02711899 -0.02776509 -0.02842085 -0.02908644 -0.02976486
 -0.03045589 -0.03115969 -0.03187554 -0.03260074 -0.03333434 -0.03407295 -0.03481443 -0.03555428 -0.03628809 -0.03700917
 -0.03771196 -0.03838927 -0.03903749 -0.03965223 -0.04023257 -0.04077696 -0.04128598 -0.04175921 -0.04219882 -0.0426047
 -0.04298147 -0.0433294 -0.04365465 -0.04395765 -0.04424291 -0.04451052 -0.04476139 -0.04499536 -0.04521155 -0.04541004
 -0.04559061 -0.04575396 -0.04590175 -0.04603507 -0.04615664 -0.04626733 -0.04636975 -0.04646317 -0.04654838 -0.04662267
 -0.04668438 -0.04673216 -0.04676422 -0.04678335 -0.04678994 -0.04678679 -0.0467754 -0.04675149 -0.04671514 -0.04665801
 -0.04657933 -0.04647743 -0.04635254 -0.046212 -0.04605656 -0.04589523 -0.04572899 -0.04556612 -0.04540912 -0.04526914
 -0.04514881 -0.04505989 -0.04499995 -0.04497264 -0.04496888 -0.04498249 -0.0450031 -0.04502214 -0.04503367 -0.04503289
 -0.04501771 -0.04498664 -0.04493872 -0.0448733 -0.04479147 -0.044693 -0.04458172 -0.04445792 -0.04432412 -0.0441803
 -0.04402395 -0.04385474 -0.0436685 -0.04346587 -0.0432472 -0.04301426 -0.04277232 -0.042523 -0.04227183 -0.04202022
 -0.04177181 -0.04152902 -0.04129513 -0.04107273 -0.04086541 -0.04067122 -0.04049171 -0.04031848 -0.04014976 -0.03997695
 -0.03979713 -0.03961053 -0.03941603 -0.03922259 -0.03903074 -0.03884869 -0.03867677 -0.03851771 -0.03837144 -0.03823844
 -0.03811855 -0.0380121 -0.03791736 -0.03783015 -0.03774697 -0.03765868 -0.03756281 -0.03745132 -0.03732511 -0.03718188
 -0.03702405 -0.03685245 -0.03666954 -0.03647647 -0.03627549 -0.03606756 -0.03585392 -0.03563504 -0.03541104 -0.03518181
 -0.03494875 -0.03471176 -0.03447614 -0.03424221 -0.03401685 -0.03380014 -0.03359568 -0.03340253 -0.03321835 -0.03304131
 -0.03286448 -0.03268662 -0.03250096 -0.03230937 -0.03211042 -0.03190985 -0.03171222 -0.03152402 -0.03135166 -0.03119709
 -0.03106425 -0.03094756 -0.03084716 -0.03075292 -0.03066276 -0.03056916 -0.03047041 -0.03036569 -0.03025464 -0.0301403
 -0.03002278 -0.02990291 -0.02978028 -0.0296508 -0.02951381 -0.02936327 -0.02919989 -0.02902167 -0.02883205 -0.02863706
 -0.02844053 -0.02825192 -0.02807 -0.02789837 -0.02773057 -0.02756267 -0.0273912 -0.02721197 -0.02702937 -0.02684368
 -0.02666014 -0.02648076 -0.026304 -0.02613028 -0.02595427 -0.02577551 -0.02559101 -0.02540059 -0.02520257 -0.0249967
 -0.02477959 -0.02455114 -0.02430842 -0.02405269 -0.02378597 -0.02351074 -0.02323394 -0.02295594 -0.02268143 -0.02240673
 -0.02212973 -0.02184712 -0.02155369 -0.02125499 -0.02095022 -0.02065302 -0.020368 -0.02010391 -0.01986544 -0.01964573
 -0.0194455 -0.01924874 -0.01905385 -0.01885337 -0.01864695 -0.01844383 -0.01824499 -0.01806569 -0.01790499 -0.01776665
 -0.01764686 -0.01753478 -0.01742745 -0.01731208 -0.01718963 -0.0170555 -0.01691297 -0.01676395 -0.01661081 -0.01645617
 -0.01630053 -0.01614526 -0.01598858 -0.01583018 -0.01566856 -0.0155024 -0.0153361 -0.01516916 -0.01501326 -0.01486931
 -0.01474804 -0.01465004 -0.01457539 -0.0145233 -0.01448406 -0.01445661 -0.01442969 -0.01440358 -0.01437325 -0.01433946
 -0.01430262 -0.01426044 -0.01421105 -0.01414782 -0.0140625 -0.01395114 -0.01380578 -0.01363273 -0.01343137 -0.01321435
 -0.0129858 -0.01275551 -0.01252676 -0.01230409 -0.012089 -0.01188117 -0.01168122 -0.01148139 -0.01128129 -0.01106949
 -0.01084588 -0.01060584 -0.01035058 -0.01008488 -0.009810018 -0.009532621 -0.009253997 -0.008979527 -0.008712298 -0.008459211
 -0.008223702 -0.008012608 -0.007826797 -0.007669102 -0.007539416 -0.007437871 -0.007366198 -0.007325576 -0.007315009 -0.007336547
 -0.007377468 -0.007437613 -0.007495049 -0.007547752 -0.007578499 -0.007586174 -0.007568107 -0.007524799 -0.007462978 -0.007383121
 -0.007291217 -0.007187509 -0.007075765 -0.006956618 -0.006833939 -0.006706945 -0.006576064 -0.006440406 -0.006296448 -0.006151919
 -0.006009012 -0.005883319 -0.005786882 -0.00571889 -0.005691188 -0.005657839 -0.005614579 -0.005496358 -0.005284566 -0.004993288
 -0.004617373 -0.004239987 -0.003865898 -0.003538917 -0.003258061 -0.003013431 -0.002802262 -0.002600892 -0.002411883 -0.002230509
 -0.002064877 -0.001932955 -0.001839917 -0.001804947 -0.001823476 -0.001899897 -0.002021845 -0.002182403 -0.00236668 -0.002565588
 -0.002765956 -0.002960793 -0.003142613 -0.00330768 -0.003455528 -0.003585555 -0.003698415 -0.003794389 -0.003870054 -0.003925178
 -0.0039596 -0.00397407 -0.003980409 -0.003980455 -0.0039929 -0.004017495 -0.004064179 -0.004129482 -0.004209596 -0.00430168
 -0.004397302 -0.004499981 -0.004609984 -0.004732812 -0.004876932 -0.005033252 -0.005203249 -0.005362736 -0.005501374 -0.005607836
 -0.005673266 -0.00571424 -0.005731143 -0.00574698 -0.005765542 -0.005786812 -0.005811394 -0.005814853 -0.005795885 -0.005729687
 -0.005617385 -0.005453526 -0.00524253 -0.004998066 -0.004725293 -0.004444325 -0.004158087 -0.003881154 -0.003613601 -0.003362026
 -0.003123101 -0.002898092 -0.002677603 -0.002458296 -0.002226774 -0.001976447 -0.001700896 -0.00139545 -0.001066486 -0.0007139429
 -0.0003470966 3.267273E-05 0.0004236185 0.0008255073 0.001239856 0.001666418 0.002101196 0.002542568 0.002978496 0.003404907
 0.003800819 0.004159071 0.004450333 0.004669446 0.004790492 0.004820284 0.004752448 0.004608315 0.004401241 0.004157151
 0.003894903 0.003631468 0.003378815 0.003142002 0.002924979 0.002727055 0.002548293 0.002390104 0.002252262 0.002140393
 0.002054846 0.002000695 0.001977753 0.001982039 0.002011608 0.002050306 0.00209597 0.002129775 0.002153375 0.002160322
 0.002156299 0.002149263 0.00214253 0.002144977 0.002153886 0.002170828 0.002189753 0.002208593 0.002218704 0.002217845
 0.002192501 0.002138571 0.002046144 0.001910644 0.001740731 0.001535426 0.001318515 0.001091483 0.0008747612 0.000668899
 0.0004806847 0.0003091048 0.0001502221 1.79624E-06 -0.0001474985 -0.000299888 -0.0004683858 -0.0006514518 -0.0008539738 -0.001069074
 -0.001290892 -0.001510351 -0.001718029 -0.001905272 -0.002064143 -0.002189347 -0.002274519 -0.002326827 -0.002344378 -0.00234773
 -0.002340524 -0.002337674 -0.002342955 -0.002348672 -0.002354847 -0.002344435 -0.002317167</values></Ydata></AB><ScSm><Ydata ylabel="Single channel"><values byteorder="INTEL" format="FLOAT32" numvalues="1814"> 0.0868718 0.08699073 0.08712761 0.08728707 0.08746096 0.08763553 0.08779873 0.08794492 0.08807364 0.088184
 0.08827804 0.08837169 0.08849026 0.08864552 0.08882307 0.08899352 0.08913349 0.08924444 0.08935632 0.08949888
 0.08965836 0.08977546 0.08979963 0.08974501 0.0896838 0.08968231 0.08975796 0.08991313 0.09017426 0.09052598
 0.0908228 0.09088492 0.09072371 0.09056821 0.09061077 0.09081402 0.09101038 0.0910881 0.09103322 0.09090713
 0.09086695 0.09111894 0.09173222 0.09248386 0.09292437 0.09263331 0.09149825 0.08987314 0.08849953 0.08811915
 0.08893675 0.09039352 0.09158705 0.09200011 0.09178021 0.09135661 0.09099284 0.09077941 0.09082833 0.09125161
 0.09197796 0.09268291 0.09291559 0.09239319 0.09132099 0.09035608 0.09007117 0.09050959 0.09138697 0.09243669
 0.0931557 0.09254479 0.08999031 0.08661257 0.08492479 0.08651455 0.0903829 0.09398284 0.09553947 0.09499525
 0.09327997 0.09148689 0.09057949 0.09106023 0.09264296 0.09453771 0.09607939 0.0969055 0.09678689 0.09573481
 0.09422107 0.09297784 0.09258768 0.09331666 0.09501122 0.09693104 0.09803852 0.09781523 0.09665425 0.09535025
 0.09451091 0.09452378 0.0955893 0.09748416 0.09958029 0.1013085 0.1024548 0.1030354 0.1031574 0.1029979
 0.1027175 0.1024356 0.102351 0.1026414 0.1031187 0.1032638 0.1028027 0.1020753 0.1016915 0.1019038
 0.1023911 0.1026486 0.1024887 0.1019541 0.1008104 0.09865662 0.09574822 0.09312862 0.09161334 0.091217
 0.09181345 0.0934841 0.09571791 0.0971625 0.09698336 0.09599006 0.0957628 0.0969446 0.09883559 0.1004139
 0.1013274 0.1019541 0.1028074 0.1039551 0.1048681 0.1048106 0.1035913 0.1020359 0.1014401 0.1023175
 0.103899 0.1050808 0.1055848 0.1059273 0.1065045 0.1070167 0.1067287 0.1052558 0.1032271 0.1020685
 0.1028284 0.1051395 0.1074104 0.1080303 0.1065126 0.103756 0.1012913 0.1001829 0.1006114 0.1023072
 0.1049302 0.1079086 0.1103476 0.1114824 0.1112075 0.1100562 0.1086188 0.1069921 0.1049906 0.1030021
 0.1022138 0.1035032 0.1063104 0.1090826 0.1107077 0.1111334 0.1107373 0.1095712 0.1074577 0.104766
 0.1027631 0.1026775 0.1043031 0.1060443 0.1066127 0.106234 0.1059261 0.1061053 0.1063566 0.1062855
 0.1061055 0.1063315 0.1071201 0.108071 0.1086527 0.1086936 0.1084159 0.1081216 0.1079067 0.1076077
 0.1070516 0.1064412 0.1063417 0.1070885 0.108337 0.1094076 0.1099565 0.1101157 0.1100823 0.1097848
 0.1090075 0.1078147 0.1067567 0.10648 0.1070984 0.1081077 0.1089224 0.1093133 0.1093468 0.109163
 0.1088812 0.1085712 0.1082714 0.1080695 0.1080861 0.1083156 0.1085799 0.1087046 0.1086624 0.1085104
 0.1082765 0.107958 0.1075895 0.1072665 0.1070866 0.1070717 0.1071628 0.107282 0.1073646 0.107349
 0.1071997 0.106953 0.1066916 0.106467 0.1062813 0.1061365 0.1060549 0.1060422 0.1060592 0.1060506
 0.1059904 0.1058877 0.1057557 0.1055978 0.1054229 0.1052578 0.1051352 0.1050734 0.1050596 0.1050551
 0.1050359 0.10502 0.1050288 0.1050326 0.1049759 0.1048519 0.1047146 0.1046188 0.1045753 0.1045608
 0.1045441 0.104497 0.1043952 0.1042347 0.1040565 0.1039376 0.1039314 0.1040259 0.1041706 0.1043226
 0.1044494 0.1045243 0.1045473 0.1045473 0.1045461 0.104536 0.1045043 0.1044632 0.104449 0.1044952
 0.1045996 0.1047214 0.1048163 0.1048691 0.104888 0.1048929 0.1049154 0.1049754 0.1050467 0.1050758
 0.1050509 0.1050209 0.1050348 0.1050853 0.105124 0.1051192 0.1050852 0.1050613 0.1050697 0.1050981
 0.1051217 0.1051318 0.10514 0.1051572 0.1051689 0.1051398 0.1050506 0.1049268 0.104815 0.1047355
 0.1046747 0.1046215 0.1045833 0.1045649 0.1045478 0.1045035 0.1044219 0.1043206 0.1042223 0.1041281
 0.1040186 0.1038795 0.1037178 0.1035519 0.1033948 0.1032472 0.1031003 0.1029418 0.1027642 0.1025678
 0.1023577 0.1021384 0.1019115 0.1016786 0.1014516 0.1012528 0.1010922 0.1009444 0.1007628 0.1005254
 0.1002576 0.1000073 0.09980284 0.09963667 0.09948386 0.09932937 0.09917853 0.09904687 0.09894498 0.09887357
 0.09882685 0.09879733 0.09878276 0.09879287 0.0988431 0.09893335 0.09903702 0.09912164 0.09918102 0.09923838
 0.09931903 0.09942771 0.0995519 0.09967817 0.09980316 0.09993307 0.1000715 0.100209 0.1003319 0.1004415
 0.1005554 0.1006879 0.1008399 0.1010077 0.1011851 0.1013563 0.1015034 0.1016295 0.1017597 0.1019154
 0.1020942 0.1022822 0.1024741 0.1026741 0.1028858 0.1031099 0.1033489 0.1036086 0.1038923 0.1041964
 0.10451 0.1048198 0.1051202 0.1054215 0.105743 0.1060957 0.1064722 0.1068539 0.1072279 0.107595
 0.1079642 0.1083408 0.1087229 0.1091112 0.1095156 0.1099438 0.1103871 0.1108264 0.1112524 0.1116723
 0.1120976 0.1125305 0.1129659 0.113401 0.113842 0.114297 0.1147627 0.1152193 0.1156468 0.116046
 0.1164377 0.1168432 0.1172676 0.1176995 0.1181183 0.1185076 0.1188706 0.1192294 0.1196014 0.1199801
 0.1203476 0.1207031 0.1210666 0.1214521 0.1218446 0.1222116 0.1225352 0.1228294 0.1231242 0.123434
 0.1237445 0.1240314 0.1242881 0.1245313 0.1247809 0.125043 0.1253161 0.125603 0.1259048 0.1262067
 0.1264862 0.1267356 0.1269688 0.1272023 0.1274381 0.1276668 0.1278802 0.1280796 0.128276 0.1284789
 0.1286869 0.1288939 0.1291051 0.1293369 0.1295986 0.129885 0.1301919 0.1305259 0.1308897 0.1312662
 0.1316344 0.1319975 0.1323778 0.1327791 0.1331699 0.1335151 0.1338144 0.1340948 0.1343786 0.134674
 0.1349916 0.1353475 0.1357446 0.1361639 0.1365754 0.1369578 0.1373114 0.1376577 0.1380179 0.1383871
 0.1387352 0.1390375 0.139299 0.1395463 0.1398021 0.1400704 0.1403378 0.140584 0.1407916 0.1409468
 0.1410324 0.1410308 0.1409393 0.1407756 0.1405558 0.1402716 0.1398948 0.1394017 0.1387844 0.1380399
 0.1371616 0.13615 0.1350367 0.133898 0.1328472 0.1320069 0.1314783 0.1313201 0.1315398 0.1320903
 0.1328723 0.1337492 0.1345738 0.1352123 0.1355595 0.1355513 0.1351782 0.1344877 0.1335654 0.1325083
 0.1314063 0.1303313 0.1293357 0.1284703 0.1278196 0.1275171 0.1277158 0.1285309 0.1299921 0.1320188
 0.1344196 0.1369321 0.1393101 0.1414071 0.1431983 0.144735 0.1460874 0.1473159 0.1484669 0.1495689
 0.150627 0.1516292 0.1525622 0.1534182 0.1541897 0.1548625 0.1554162 0.1558307 0.1560979 0.1562313
 0.1562684 0.1562623 0.1562715 0.1563469 0.1565085 0.1567183 0.1568828 0.1568952 0.1566865 0.1562552
 0.1556772 0.1551166 0.1548243 0.1550831 0.1560905 0.1578409 0.1601068 0.1625456 0.1648526 0.1668506
 0.1684884 0.1697984 0.1708543 0.1717375 0.1725125 0.1732192 0.1738808 0.1745124 0.1751234 0.1757175
 0.1762951 0.1768581 0.1774124 0.1779637 0.178512 0.1790515 0.179579 0.1800996 0.1806234 0.1811568
 0.1816956 0.1822301 0.1827561 0.183279 0.1838032 0.184322 0.1848251 0.1853121 0.185794 0.1862809
 0.186774 0.1872677 0.187754 0.1882251 0.1886778 0.1891171 0.1895521 0.1899875 0.190421 0.1908497
 0.1912753 0.1917017 0.1921291 0.192555 0.1929765 0.1933916 0.1937969 0.1941896 0.1945726 0.1949548
 0.195343 0.1957364 0.1961293 0.1965181 0.196904 0.1972924 0.1976902 0.1980991 0.1985103 0.1989096
 0.1992912 0.1996648 0.2000436 0.2004318 0.2008242 0.2012161 0.2016074 0.2019991 0.2023892 0.2027753
 0.2031578 0.2035389 0.2039186 0.2042946 0.204665 0.2050287 0.2053862 0.2057408 0.2060972 0.2064583
 0.2068229 0.2071871 0.207547 0.2079006 0.2082503 0.2086005 0.2089531 0.2093061 0.2096573 0.2100074
 0.2103595 0.2107154 0.211074 0.2114325 0.2117906 0.2121498 0.21251 0.2128681 0.2132225 0.2135737
 0.2139232 0.2142724 0.2146221 0.2149715 0.2153187 0.2156645 0.2160127 0.2163657 0.2167218 0.2170768
 0.2174278 0.2177755 0.2181232 0.2184731 0.2188239 0.2191737 0.2195225 0.2198705 0.2202168 0.2205609
 0.2209034 0.2212448 0.2215866 0.2219321 0.2222817 0.2226318 0.2229783 0.22332 0.2236595 0.2240018
 0.2243505 0.2247034 0.2250564 0.2254087 0.2257612 0.2261115 0.2264565 0.2267983 0.2271405 0.2274844
 0.2278301 0.2281777 0.2285264 0.2288756 0.2292253 0.2295735 0.2299184 0.2302613 0.2306049 0.2309496
 0.2312971 0.2316515 0.2320127 0.2323746 0.2327332 0.2330895 0.2334456 0.2338022 0.2341596 0.2345185
 0.2348804 0.2352475 0.2356164 0.2359776 0.2363265 0.2366672 0.2370052 0.2373419 0.2376787 0.2380159
 0.238352 0.2386883 0.2390288 0.239373 0.2397157 0.240056 0.240397 0.2407407 0.2410905 0.2414501
 0.2418179 0.242188 0.2425581 0.2429283 0.2432968 0.2436649 0.2440365 0.2444111 0.2447858 0.2451618
 0.2455405 0.2459174 0.2462903 0.2466626 0.247037 0.247413 0.2477909 0.2481675 0.2485362 0.2488978
 0.2492588 0.2496217 0.2499872 0.25036 0.250741 0.2511234 0.2515048 0.2518882 0.2522694 0.2526419
 0.2530085 0.2533743 0.2537394 0.2541071 0.2544835 0.2548654 0.2552462 0.2556274 0.256009 0.2563843
 0.2567539 0.2571273 0.2575063 0.257885 0.2582589 0.2586222 0.2589709 0.2593141 0.2596617 0.2600006
 0.2602988 0.2604943 0.2604246 0.2597439 0.2578762 0.2540271 0.2473412 0.2372459 0.2237999 0.2077879
 0.1904988 0.1733213 0.1573704 0.1433424 0.1316068 0.1223536 0.1156943 0.111754 0.1107481 0.113086
 0.1195118 0.1306663 0.1454675 0.1597037 0.1676029 0.1662019 0.1580316 0.1488179 0.1428134 0.1407051
 0.1410582 0.1424533 0.1443269 0.1468132 0.1502561 0.1547054 0.1598637 0.1655822 0.1721482 0.1798519
 0.1884252 0.1971399 0.2054196 0.213213 0.2207792 0.2282354 0.2353818 0.2418944 0.2475758 0.2524218
 0.2565551 0.2601455 0.2633436 0.2662477 0.2689223 0.2714055 0.273661 0.2755521 0.2769198 0.2777105
 0.2780397 0.2781373 0.2782187 0.2783913 0.2786699 0.2790453 0.2795129 0.2800625 0.2806804 0.281354
 0.2820629 0.2827816 0.2834949 0.2841957 0.2848748 0.2855251 0.2861472 0.2867409 0.2873029 0.2878364
 0.2883491 0.2888461 0.2893322 0.2898129 0.2902876 0.2907524 0.2912084 0.291656 0.2920879 0.292496
 0.2928805 0.2932445 0.2935915 0.2939297 0.2942662 0.294602 0.2949367 0.2952722 0.2956076 0.2959403
 0.2962706 0.2965977 0.2969177 0.2972321 0.2975476 0.2978641 0.2981754 0.2984821 0.2987908 0.2991032
 0.2994168 0.2997318 0.3000489 0.3003651 0.3006751 0.3009761 0.3012739 0.3015833 0.3019159 0.3022655
 0.3026168 0.302964 0.3033113 0.3036603 0.3040096 0.3043605 0.3047144 0.3050697 0.3054257 0.3057817
 0.3061314 0.306463 0.3067697 0.3070577 0.3073452 0.3076492 0.3079695 0.3082903 0.308601 0.3089065
 0.3092169 0.3095366 0.309864 0.3101932 0.3105192 0.3108472 0.3111904 0.3115541 0.3119302 0.3123098
 0.3126895 0.3130659 0.3134369 0.3138078 0.3141836 0.3145583 0.3149214 0.3152744 0.3156372 0.3160354
 0.3164756 0.3169314 0.3173653 0.3177648 0.3181486 0.3185435 0.3189638 0.3194003 0.3198147 0.3201665
 0.3204665 0.320786 0.3211901 0.3216754 0.3221861 0.3226739 0.323128 0.323559 0.3239731 0.3243652
 0.3247275 0.32506 0.3253805 0.3257291 0.3261463 0.3266301 0.3271286 0.3275916 0.3280114 0.3284051
 0.3287869 0.3291665 0.3295347 0.3298403 0.3300369 0.3301812 0.3304288 0.3308871 0.3314968 0.332098
 0.3325945 0.3330122 0.3334117 0.3338065 0.3341806 0.3345054 0.3346952 0.3346492 0.3344371 0.3343663
 0.3347305 0.3355119 0.3364175 0.3371767 0.3377211 0.3381227 0.3384681 0.3387999 0.3390931 0.3392609
 0.3392466 0.3391543 0.3392322 0.3396482 0.3403003 0.3409281 0.3413869 0.3417297 0.3420593 0.3424107
 0.3427349 0.3428795 0.3426532 0.3420868 0.3416126 0.3417855 0.3427462 0.3440585 0.345144 0.3457975
 0.3461919 0.3464751 0.3465536 0.3462707 0.3456024 0.3446666 0.3437738 0.3434755 0.3442042 0.3457183
 0.3472003 0.3480746 0.3485042 0.3489778 0.3496765 0.3503948 0.350877 0.3510473 0.3509687 0.3506951
 0.3502431 0.3497627 0.3496388 0.3502187 0.3514097 0.3527018 0.3536498 0.354223 0.3545977 0.3546402
 0.353777 0.351674 0.3491202 0.3478287 0.3489164 0.351729 0.3545488 0.3562939 0.3571126 0.3575769
 0.35794 0.3580643 0.3574107 0.3552168 0.3515301 0.348111 0.3473669 0.3499821 0.3541532 0.3573372
 0.3581956 0.3568724 0.3543458 0.3519728 0.3510113 0.3519405 0.3542553 0.3569809 0.3592612 0.3605973
 0.3608823 0.3603503 0.3594748 0.3588418 0.3587849 0.3588888 0.3582455 0.3566341 0.354948 0.3538165
 0.3524446 0.3499094 0.3472175 0.3466796 0.3490523 0.3524469 0.3545212 0.3548769 0.3546371 0.3541853
 0.3522412 0.3475486 0.3411971 0.3365915 0.336534 0.3404289 0.3448741 0.3470003 0.3467383 0.3458559
 0.3454651 0.344842 0.342509 0.3383313 0.3343254 0.3328575 0.3340028 0.3354456 0.3350468 0.3323531
 0.3274845 0.3205789 0.3135375 0.3104014 0.313783 0.3216029 0.3289237 0.3322179 0.3304804 0.3237495
 0.3134276 0.3037777 0.3000163 0.3035036 0.310147 0.3143474 0.3134111 0.3076947 0.298321 0.2866332
 0.2753196 0.2681066 0.2673891 0.2723262 0.2790726 0.282522 0.2789206 0.2688267 0.2577843 0.2521544
 0.2531844 0.2562243 0.2562012 0.2523652 0.2472567 0.2431618 0.2408152 0.2399106 0.2394966 0.2387236
 0.2375426 0.2355012 0.230452 0.2210486 0.2105687 0.205197 0.2075876 0.2146567 0.2224086 0.2298701
 0.2368704 0.2411924 0.2409637 0.2384661 0.2387038 0.2440809 0.2520803 0.2584053 0.2612873 0.2622008
 0.2630372 0.2637245 0.2632633 0.2623811 0.2635507 0.2679222 0.2735431 0.2774879 0.2788084 0.278552
 0.2777987 0.2767648 0.2753351 0.2734947 0.2712972 0.2688866 0.2664822 0.2641498 0.2617701 0.2593027
 0.2567122 0.2534107 0.2483228 0.2413216 0.2344359 0.2304745 0.2301209 0.2315116 0.2329294 0.2340682
 0.2338186 0.2293293 0.2197377 0.2095213 0.2054152 0.2099122 0.219299 0.2278422 0.2323189 0.232401
 0.2286988 0.2225054 0.2172936 0.2181417 0.2277853 0.2437115 0.260389 0.2739239 0.2835179 0.2893396
 0.2910994 0.2892215 0.2861519 0.2854274 0.2892975 0.2972702 0.3065086 0.3130913 0.3137013 0.3083888
 0.3025128 0.303467 0.3132107 0.3255645 0.3330376 0.3347486 0.33525 0.3373951 0.3398808 0.3412576
 0.3427731 0.3461529 0.3506778 0.353743 0.3531842 0.3481991 0.3393334 0.3290988 0.3216017 0.3194069
 0.3208869 0.3222523 0.3215154 0.318549 0.3127072 0.3039584 0.2959948 0.2942315 0.2996501 0.3073553
 0.3121723 0.3134804 0.3136749 0.3138291 0.312433 0.3079507 0.3015436 0.296562 0.2952262 0.296487
 0.297659 0.2972823 0.2953816 0.2918354 0.2863275 0.280012 0.2756695 0.275304 0.2781069 0.2813682
 0.2830922 0.2832906 0.2831093 0.2834761 0.2846226 0.2862685 0.2880788 0.2903017 0.2938327 0.2991039
 0.3050826 0.3101149 0.3137757 0.3172011 0.3214816 0.3263129 0.3304387 0.3330364 0.3344516 0.3357844
 0.337918 0.3408122 0.343571 0.345246 0.3457583 0.346071 0.3473071 0.349664 0.3523347 0.3544446
 0.3558014 0.3567448 0.3576164 0.3584836 0.3591242 0.3592189 0.3588025 0.3585367 0.35924 0.3610602
 0.363309 0.3651542 0.3662869 0.3668809 0.3671411 0.3670714 0.3666186 0.3658828 0.3651177 0.364552
 0.3642538 0.3641586 0.3641769 0.3642544 0.3643736 0.3645451 0.3647887 0.3651013 0.3654558 0.3658353
 0.3662429 0.366663 0.3670505 0.3673806 0.3676713 0.3679281 0.3680915 0.3680683 0.3677928 0.3672307
 0.3663459 0.3650978 0.3634549 0.3613806 0.3588358 0.3558946 0.3529336 0.3506648 0.3498387 0.3507776
 0.3531326 0.356087 0.3588192 0.3608573 0.3621311 0.362808 0.3631073 0.3631995 0.3631839 0.3631003
 0.3629572 0.3627632 0.3625379 0.3623027 0.3620746 0.3618733 0.3617221 0.3616324 0.3615924 0.3615696
 0.3615226 0.3614128 0.361212 0.3609064 0.3604921 0.3599634 0.3593014 0.3584845 0.3575195 0.3564596
 0.3553836 0.3543543 0.3533876 0.3524504 0.3514828 0.3504204 0.3491869 0.3476926 0.3459054 0.34395
 0.3420729 0.3404475 0.3390293 0.3376355 0.3361328 0.3345088 0.3328019 0.3310298 0.3291893 0.3272809
 0.3253104 0.3232772 0.3211689 0.3189697 0.3166787 0.3143142 0.3118949 0.3094239 0.3068958 0.3043084
 0.3016446 0.2988329 0.295735 0.2921804 0.2880219 0.2831741 0.2776299 0.271469 0.2648571 0.2580205
 0.2511981 0.2446034 0.2384165 0.2327944 0.227876 0.2237747 0.2205703 0.2183086 0.2170072 0.2166606
 0.2172415 0.2186971 0.2209398 0.2238354 0.2272034 0.2308336 0.2345078 0.2380249 0.2412457 0.2441427
 0.2467944 0.2493036 0.2517093 0.2539787 0.2560646 0.2579452 0.2596068 0.2610212 0.2621606 0.2630304
 0.2636738 0.2641455 0.2644851 0.2647081 0.264813 0.2648003 0.2646926 0.2645412 0.2644114 0.2643574
 0.2644005 0.2645252 0.2646968 0.2648906 0.2651048 0.2653524 0.2656451 0.2659856 0.2663651 0.2667694
 0.2671937 0.2676592 0.2682149 0.2689224 0.2698341 0.2709782 0.2723553 0.2739409 0.2756857 0.2775148
 0.2793375 0.2810666 0.2826377 0.2840162 0.2851876 0.2861444 0.2868857 0.2874283 0.2878057 0.2880551
 0.2882088 0.2882969 0.2883456 0.2883655 0.2883448 0.2882564 0.2880776 0.2878066 0.2874604 0.2870537
 0.2865886 0.2860674 0.2855018 0.2849053 0.2842845 0.2836435 0.2829878 0.2823247 0.281666 0.2810236
 0.2803954 0.2797558 0.2790585 0.2782472 0.2772711 0.2760981 0.2747146 0.2731166 0.2713115 0.2693239
 0.2671896 0.2649493 0.2626466 0.2603172 0.2579693 0.2555792 0.2531065 0.2505143 0.2478006 0.245025
 0.2422909 0.2396886 0.2372548 0.2349787 0.2328275 0.2307699 0.2287923 0.2268965 0.2250862 0.2233633
 0.2217286 0.2201737 0.2186837 0.2172572 0.2159156 0.2146862 0.2135905 0.2126434 0.2118457 0.2111765
 0.2106024 0.2100922 0.209636 0.2092623 0.2090194 0.2089124 0.2088701 0.2087874 0.208597 0.2083031
 0.2079685 0.2076678 0.2074383 0.2072689 0.2071205 0.2069341 0.206626 0.206104 0.2052855 0.2040957
 0.2024816 0.2004536 0.1981036 0.1955829 0.193071 0.1907385 0.1887036 0.187018 0.1856834 0.184654
 0.1838406 0.1831617 0.1826056 0.1822363 0.1821379 0.1823208 0.1826487 0.1828969 0.1829469 0.1829097
 0.1830221 0.1834441 0.1841645 0.185043 0.1859061 0.1866333 0.1871813 0.187552 0.1877677 0.1878674
 0.1878779 0.18779 0.1875863 0.1872705 0.186852 0.1863383 0.1857481 0.1850923 0.1843506 0.1835008
 0.1825438 0.1814815 0.1803105 0.1790341 0.1776387 0.1760971 0.1744706 0.172985 0.1719455 0.1715716
 0.171887 0.1727124 0.1737816 0.174906 0.1759963 0.1769467 0.1776445 0.1781643 0.1788458 0.1800708
 0.1819415 0.1841727 0.18629 0.1879354 0.1889828 0.1894343 0.1893328 0.1887587 0.1877749 0.1863742
 0.1845721 0.1824822 0.1802299 0.1779054 0.1756361 0.1735623 0.1717476 0.1702103 0.1689556 0.167983
 0.1673624 0.1668215 0.1647651 0.1588394 0.1492731 0.1410327 0.1400673 0.1468964 0.1558884 0.1613083
 0.1621859 0.1609384 0.159583 0.1585765 0.1578632 0.1575159 0.1575741 0.1579101 0.1582792 0.1584313
 0.1582596 0.1577781 0.1568565 0.1549916 0.1513104 0.1448826 0.1354046 0.1238398 0.1122215 0.1025804
 0.09594385 0.09211645 0.09011079 0.0888394 0.08774245 0.08697644 0.08704212 0.08826637 0.09062205 0.09388706
 0.09780032 0.1020298 0.1061184 0.1096273 0.1123656 0.1143967 0.1158259 0.1166854 0.1170094 0.1168857
 0.1164064 0.1156401 0.1146507 0.1134831 0.1121437 0.1106448 0.1090806 0.1076486 0.1065702 0.1059447
 0.105681 0.1056027 0.1055972 0.1056372 0.1057139 0.1058153 0.1059423 0.1061081 0.106335 0.1066427
 0.107011 0.1073687 0.1076479 0.1078327 0.1079464 0.1080046 0.1079803 0.1078206 0.1075299 0.1072027
 0.1068894 0.1064523 0.1056764 0.1045498 0.1033697 0.1025489 0.1023324 0.1026531 0.1032052 0.1036691
 0.1039097 0.1039862 0.1040027 0.1039631</values></Ydata></ScSm><ScRf><Ydata ylabel="Single channel"><values byteorder="INTEL" format="FLOAT32" numvalues="1820"> 0.0705694 0.07070377 0.07082114 0.07092126 0.07101136 0.07110357 0.07120949 0.07133333 0.07147002 0.07160814
 0.07173633 0.07185066 0.07195456 0.07204968 0.07213458 0.07221663 0.0723145 0.07244028 0.07258371 0.07271838
 0.07282345 0.07290339 0.07298817 0.07310318 0.0732332 0.0733259 0.07334097 0.07329377 0.07324502 0.07324661
 0.07330863 0.07343103 0.07363719 0.07391885 0.07416002 0.07421221 0.07407957 0.07394566 0.07396996 0.07412837
 0.07428766 0.07435331 0.07430732 0.07419641 0.07415183 0.07434825 0.074846 0.07546055 0.07581799 0.07557083
 0.0746311 0.07329578 0.07217398 0.07186796 0.07253966 0.07373012 0.07470191 0.07503335 0.074848 0.07449964
 0.07420287 0.0740273 0.07406219 0.07440154 0.07499055 0.07556403 0.07575111 0.07531909 0.07443601 0.0736398
 0.07340004 0.07375415 0.07447119 0.07533156 0.07591923 0.07541303 0.07331298 0.07054255 0.06916248 0.07046783
 0.07363306 0.07657081 0.07783344 0.07738011 0.07597363 0.07450681 0.07376583 0.07416045 0.07545627 0.07700713
 0.0782688 0.07894421 0.07884599 0.07798342 0.07674111 0.07571749 0.07539193 0.07598568 0.07737245 0.07894292
 0.0798474 0.07966364 0.07871321 0.07764395 0.0769532 0.07696179 0.07783636 0.07939221 0.08111106 0.08252387
 0.08345501 0.08391944 0.08400774 0.08386818 0.08363537 0.08340913 0.08335078 0.08360037 0.08399738 0.08411537
 0.0837341 0.08313681 0.08282398 0.08299927 0.08339734 0.08360565 0.08347221 0.08303122 0.0820888 0.08031861
 0.07793565 0.07579626 0.07456301 0.07424262 0.07473332 0.07610542 0.07793924 0.07912411 0.0789781 0.07816829
 0.0779883 0.07895902 0.08050333 0.08178729 0.0825298 0.08304502 0.08375134 0.08469871 0.08545123 0.08540782
 0.0844149 0.08315021 0.08267489 0.08340729 0.08471416 0.0856882 0.08610256 0.08638486 0.08686498 0.0872985
 0.08708053 0.0858947 0.08425822 0.08333991 0.08399485 0.08591779 0.08780369 0.08833385 0.08711189 0.08487844
 0.08289231 0.08202706 0.08243054 0.08388156 0.08609839 0.08860564 0.09066516 0.09165114 0.09148055 0.09059261
 0.08947089 0.08819172 0.08659852 0.08501203 0.08442027 0.08555765 0.08796543 0.09035505 0.09179729 0.09224118
 0.09199575 0.09110356 0.08941974 0.08725838 0.08568276 0.08571708 0.08717966 0.08873037 0.08929606 0.08907452
 0.08892153 0.0891812 0.0894984 0.08953923 0.08948951 0.08979266 0.09058523 0.09152377 0.09214902 0.09230834
 0.0921901 0.09205464 0.09198609 0.09184439 0.09148313 0.0910814 0.09112716 0.09190416 0.09311016 0.09415973
 0.09476005 0.09502709 0.09512945 0.09500086 0.09445199 0.09354103 0.09275062 0.09264463 0.09332094 0.09433825
 0.09518526 0.09566126 0.09582537 0.09580246 0.09569939 0.09557901 0.09547393 0.09545599 0.09562321 0.09596684
 0.09633566 0.0965852 0.09669412 0.09670728 0.09664173 0.09649289 0.09629651 0.09614509 0.0961297 0.09626749
 0.09649888 0.09674871 0.09695993 0.09708141 0.09708272 0.09699482 0.09689221 0.09682468 0.09679671 0.09680802
 0.09687418 0.09699632 0.0971389 0.09725474 0.09732366 0.09735468 0.0973592 0.09733884 0.09730023 0.09726619
 0.09726646 0.09731825 0.09741022 0.09751 0.09760101 0.09770279 0.09783068 0.0979493 0.0980027 0.09798543
 0.09795104 0.09795336 0.09800439 0.09808372 0.09816296 0.09821444 0.09821409 0.09815823 0.09808579 0.09806721
 0.09815222 0.09833492 0.09857549 0.09883213 0.09906254 0.09923064 0.09933631 0.09941563 0.09949678 0.0995744
 0.09963507 0.09968928 0.09977095 0.09991009 0.1001034 0.1003117 0.1004913 0.1006248 0.1007208 0.1008052
 0.1009156 0.1010702 0.1012323 0.1013396 0.1013817 0.1014181 0.1015064 0.101636 0.101749 0.1018107
 0.1018424 0.1018912 0.1019791 0.1020879 0.1021891 0.1022781 0.1023762 0.1024995 0.1026264 0.1027053
 0.102706 0.1026581 0.1026215 0.1026248 0.102654 0.1026937 0.1027519 0.1028336 0.1029156 0.1029636
 0.1029702 0.1029636 0.1029737 0.1029966 0.1029998 0.102962 0.1028963 0.1028342 0.1027969 0.102784
 0.1027788 0.1027617 0.1027218 0.1026614 0.10259 0.1025149 0.1024379 0.1023636 0.1023114 0.1023078
 0.1023514 0.1023868 0.1023384 0.1021806 0.101965 0.1017725 0.1016455 0.101566 0.1014857 0.1013704
 0.1012204 0.1010606 0.1009145 0.1007889 0.1006766 0.1005688 0.1004678 0.1003904 0.1003518 0.1003376
 0.1003027 0.1002112 0.1000744 0.09993686 0.09983239 0.09976381 0.09971688 0.09967784 0.09964243 0.09961891
 0.09961736 0.09963021 0.09963414 0.09961785 0.09959736 0.09959966 0.09964277 0.09973016 0.09984522 0.09994973
 0.1000092 0.1000291 0.1000516 0.1001126 0.1002119 0.1003291 0.1004523 0.1005822 0.100722 0.1008724
 0.1010367 0.1012215 0.1014297 0.1016551 0.1018843 0.1021053 0.102317 0.1025316 0.1027661 0.1030299
 0.1033179 0.1036136 0.1039001 0.1041716 0.1044358 0.1047044 0.1049814 0.1052657 0.1055596 0.105869
 0.1061921 0.1065195 0.106844 0.1071667 0.1074909 0.1078162 0.108141 0.1084691 0.108812 0.1091795
 0.1095624 0.1099287 0.1102498 0.11053 0.1108046 0.1111071 0.1114439 0.111795 0.1121285 0.1124223
 0.1126848 0.1129506 0.113245 0.1135576 0.1138638 0.1141654 0.1144929 0.1148637 0.1152487 0.1155903
 0.1158558 0.116068 0.1162801 0.1165226 0.1167803 0.1170229 0.1172446 0.117463 0.1176892 0.1179182
 0.1181492 0.1183976 0.1186751 0.1189658 0.1192384 0.1194769 0.1196897 0.1198894 0.120075 0.1202336
 0.1203553 0.1204478 0.1205394 0.1206578 0.1208036 0.1209535 0.1210928 0.1212334 0.1213945 0.1215805
 0.1217871 0.1220156 0.1222664 0.1225249 0.1227744 0.1230234 0.1232989 0.1236036 0.1238971 0.1241373
 0.1243285 0.1245087 0.1247028 0.1249108 0.125136 0.1253938 0.1256894 0.1260038 0.1263085 0.1265897
 0.1268587 0.1271427 0.1274561 0.1277763 0.128058 0.128276 0.1284506 0.1286278 0.1288438 0.1291055
 0.1293938 0.129682 0.1299532 0.1301992 0.1304067 0.1305577 0.1306524 0.130718 0.1307787 0.1308225
 0.1308066 0.1306936 0.1304702 0.1301339 0.1296765 0.1290939 0.1284101 0.1276907 0.1270289 0.1265159
 0.1262173 0.1261678 0.1263725 0.1268021 0.1273875 0.1280307 0.1286324 0.1291072 0.1293843 0.1294105
 0.1291698 0.1286943 0.1280464 0.1272894 0.1264734 0.1256371 0.1248142 0.1240475 0.1234149 0.1230353
 0.1230385 0.1235165 0.1244912 0.125899 0.127587 0.1293432 0.1309731 0.1323753 0.1335542 0.1345679
 0.1354723 0.136304 0.1370867 0.1378339 0.1385455 0.1392159 0.1398453 0.1404385 0.1409933 0.141496
 0.1419279 0.1422722 0.1425206 0.1426802 0.142773 0.1428225 0.142845 0.1428521 0.1428488 0.1428185
 0.1427169 0.1424945 0.1421281 0.1416376 0.1410895 0.1406018 0.1403397 0.1404786 0.1411309 0.1422761
 0.1437551 0.1453433 0.1468453 0.1481439 0.1491964 0.1500165 0.1506553 0.1511759 0.1516281 0.1520422
 0.1524347 0.1528125 0.153176 0.1535259 0.1538673 0.154207 0.1545503 0.1548985 0.1552482 0.1555916
 0.155925 0.1562546 0.1565929 0.1569473 0.1573114 0.1576703 0.1580155 0.1583536 0.1586967 0.1590451
 0.1593882 0.1597183 0.1600393 0.1603604 0.1606894 0.1610281 0.1613695 0.1617 0.1620104 0.1623046
 0.1625938 0.162885 0.1631775 0.1634685 0.1637561 0.1640391 0.1643174 0.1645949 0.1648775 0.1651665
 0.165455 0.1657333 0.165996 0.1662458 0.1664909 0.1667403 0.1669972 0.1672574 0.1675146 0.1677705
 0.168034 0.1683103 0.1685928 0.1688681 0.1691268 0.1693697 0.1696054 0.169843 0.170086 0.1703334
 0.1705837 0.1708376 0.1710954 0.1713559 0.1716181 0.1718797 0.1721373 0.1723883 0.1726335 0.1728762
 0.1731186 0.1733618 0.1736067 0.1738546 0.1741069 0.1743636 0.1746212 0.1748731 0.1751162 0.1753522
 0.1755852 0.1758173 0.1760504 0.1762862 0.1765262 0.176771 0.1770191 0.1772674 0.1775129 0.1777551
 0.1779948 0.1782336 0.1784729 0.1787144 0.1789588 0.1792059 0.1794545 0.1797018 0.1799438 0.1801783
 0.1804081 0.1806381 0.1808728 0.1811139 0.1813601 0.1816085 0.1818561 0.1821009 0.182342 0.1825794
 0.1828132 0.1830434 0.1832721 0.1835034 0.1837398 0.1839796 0.1842206 0.1844626 0.1847045 0.1849431
 0.185177 0.1854085 0.1856416 0.1858793 0.1861215 0.1863643 0.1866028 0.1868378 0.1870739 0.1873141
 0.1875573 0.1878006 0.1880408 0.1882767 0.1885107 0.1887461 0.1889844 0.1892261 0.1894722 0.1897218
 0.1899721 0.1902216 0.1904695 0.1907149 0.1909587 0.1912042 0.1914524 0.1917026 0.1919546 0.1922082
 0.1924611 0.192713 0.1929676 0.1932272 0.1934907 0.1937568 0.1940222 0.1942801 0.1945251 0.1947594
 0.1949887 0.1952167 0.1954438 0.1956681 0.195888 0.1961076 0.1963329 0.1965647 0.1967999 0.1970389
 0.1972838 0.1975336 0.197786 0.1980389 0.1982894 0.1985373 0.1987876 0.1990429 0.1992988 0.1995513
 0.1998026 0.2000551 0.2003109 0.2005746 0.2008486 0.2011271 0.2014034 0.2016757 0.2019446 0.2022128
 0.2024839 0.2027559 0.2030224 0.2032833 0.2035447 0.2038074 0.2040694 0.2043348 0.2046078 0.204885
 0.2051625 0.2054394 0.2057125 0.2059799 0.2062452 0.2065099 0.2067706 0.207031 0.2072995 0.2075757
 0.2078541 0.2081363 0.2084245 0.208714 0.2090006 0.209284 0.2095601 0.2098277 0.2100934 0.2103603
 0.2106227 0.2108794 0.2111337 0.2113798 0.211599 0.2117414 0.211669 0.2110952 0.2095509 0.206393
 0.2009285 0.1926924 0.181732 0.1686842 0.1545972 0.1406029 0.1276113 0.1161896 0.1066372 0.09910776
 0.09369239 0.09049281 0.08968213 0.09159125 0.09682459 0.1059027 0.1179417 0.1295091 0.1359071 0.1347319
 0.1280548 0.1205421 0.1156533 0.1139408 0.114229 0.1153567 0.1168652 0.1188696 0.1216576 0.1252712
 0.1294652 0.1341137 0.1394475 0.1456996 0.1526492 0.1597032 0.1663953 0.1726889 0.1788002 0.1848282
 0.1906093 0.195874 0.200455 0.2043481 0.20766 0.2105371 0.2131031 0.2154319 0.2175684 0.2195406
 0.2213199 0.2228006 0.2238605 0.2244617 0.2246986 0.2247545 0.2247998 0.2249177 0.2251181 0.2253935
 0.2257409 0.2261535 0.2266214 0.2271357 0.2276809 0.2282358 0.2287874 0.2293305 0.2298589 0.2303677
 0.2308557 0.2313188 0.2317515 0.2321567 0.2325441 0.2329206 0.2332915 0.2336622 0.2340317 0.234395
 0.2347504 0.235097 0.2354293 0.2357428 0.2360391 0.2363209 0.2365904 0.2368517 0.2371087 0.2373609
 0.2376084 0.2378542 0.2381003 0.2383481 0.2386014 0.2388607 0.2391189 0.2393697 0.2396141 0.2398561
 0.2400973 0.240338 0.2405773 0.2408141 0.2410497 0.2412871 0.2415248 0.2417595 0.2419923 0.2422279
 0.2424718 0.2427295 0.2430012 0.243277 0.2435463 0.2438089 0.2440711 0.2443364 0.2446049 0.2448772
 0.2451531 0.2454318 0.2457141 0.2459968 0.2462692 0.2465221 0.2467574 0.2469852 0.2472146 0.2474496
 0.247688 0.2479256 0.2481619 0.2484007 0.2486446 0.2488935 0.2491468 0.2494021 0.2496559 0.2499115
 0.2501786 0.2504609 0.2507514 0.2510441 0.251339 0.2516363 0.2519336 0.2522291 0.2525206 0.2528029
 0.2530736 0.253342 0.2536274 0.2539455 0.254293 0.2546455 0.2549773 0.2552836 0.2555796 0.2558842
 0.2562078 0.2565445 0.2568641 0.2571328 0.2573583 0.2576002 0.2579158 0.2583032 0.2587112 0.2590949
 0.2594464 0.2597786 0.2600983 0.2603999 0.2606755 0.2609243 0.2611603 0.2614173 0.2617311 0.2621028
 0.2624923 0.2628593 0.2631955 0.2635093 0.263806 0.2640902 0.2643557 0.2645676 0.264698 0.2647981
 0.2649917 0.265361 0.2658561 0.2663461 0.2667472 0.2670756 0.2673844 0.2676945 0.2679989 0.2682705
 0.268434 0.2684068 0.2682462 0.2681971 0.2684929 0.2691213 0.2698536 0.2704742 0.2709226 0.2712505
 0.2715287 0.2717978 0.272043 0.2721964 0.2722111 0.2721673 0.2722605 0.272623 0.273171 0.2736932
 0.2740736 0.2743601 0.2746439 0.2749568 0.2752537 0.2754015 0.2752416 0.2748039 0.2744438 0.2746097
 0.2754107 0.2764925 0.277391 0.2779451 0.2782959 0.2785612 0.278662 0.2784688 0.2779611 0.2772346
 0.2765417 0.2763298 0.2769481 0.2781997 0.2794257 0.2801676 0.2805611 0.2809983 0.2816179 0.2822478
 0.2826803 0.2828574 0.2828359 0.2826622 0.2823499 0.2820196 0.2819805 0.2825089 0.2835252 0.2846178
 0.2854308 0.2859441 0.2863021 0.2863943 0.2857526 0.284106 0.2820985 0.281119 0.2820679 0.2844115
 0.2867612 0.2882448 0.288982 0.2894347 0.2898069 0.2899854 0.2895305 0.2878221 0.2849015 0.2822028
 0.281685 0.2839039 0.2873913 0.2900759 0.290864 0.28987 0.2878961 0.2860586 0.2853853 0.2862576
 0.2882542 0.2905792 0.2925408 0.29374 0.2940921 0.2937827 0.2931904 0.292792 0.292862 0.2930609
 0.2926469 0.2914452 0.2901916 0.2894 0.2884163 0.2864857 0.2844361 0.2841609 0.2862757 0.2892268
 0.2910954 0.2915626 0.2915521 0.2913687 0.2899505 0.2862654 0.2812207 0.2776323 0.277816 0.2812781
 0.2852049 0.287228 0.2872973 0.2868776 0.2868862 0.286719 0.2851468 0.2820573 0.2791351 0.2783553
 0.279769 0.2814258 0.2815318 0.2797034 0.2760254 0.2706072 0.2650741 0.2628695 0.2662172 0.2733593
 0.2801123 0.2834791 0.2825885 0.2774501 0.2692607 0.2617067 0.2593127 0.2632711 0.2700517 0.2748207
 0.2752564 0.2716559 0.2649639 0.2563545 0.2482542 0.2440478 0.2459255 0.2531192 0.2620359 0.2678082
 0.2667853 0.2594623 0.2512087 0.2482249 0.2517155 0.2570929 0.2593707 0.2578517 0.2551005 0.2534441
 0.2536866 0.2555396 0.2579519 0.2599398 0.2613448 0.2614539 0.2576153 0.2481699 0.2368165 0.2306515
 0.2328526 0.2401235 0.2480741 0.25564 0.262624 0.2665262 0.2652051 0.2611133 0.2597269 0.2636959
 0.270322 0.2750085 0.2759245 0.2747453 0.2736063 0.2725617 0.2706426 0.2686004 0.2689399 0.2728024
 0.2781776 0.2820852 0.2835643 0.2836726 0.2834821 0.2831762 0.2826058 0.2817387 0.2806197 0.2793871
 0.278259 0.2772941 0.2763482 0.2753543 0.2742535 0.2723902 0.2685609 0.2625782 0.2566106 0.2536892
 0.2545278 0.2570756 0.2594695 0.2613816 0.2615477 0.2567596 0.2460542 0.2344585 0.2295296 0.2340507
 0.2438173 0.2523551 0.2560343 0.2545175 0.2485717 0.2397113 0.231722 0.2300025 0.2374099 0.2512707
 0.2657792 0.2769041 0.2839251 0.2871859 0.2865439 0.2825084 0.27753 0.2750347 0.2770733 0.2829733
 0.289851 0.2939563 0.2923074 0.2851464 0.2775625 0.2764137 0.2835266 0.2932667 0.2987543 0.2990699
 0.298243 0.2988623 0.2998596 0.3000457 0.3005962 0.3030711 0.306855 0.3096683 0.3096114 0.3059663
 0.2991889 0.2914613 0.2863458 0.2859657 0.2886587 0.2908821 0.2908479 0.2885579 0.2835764 0.2759945
 0.2692189 0.2681481 0.2736052 0.2810889 0.2859043 0.2875368 0.2881967 0.2888414 0.2880481 0.2843947
 0.2789821 0.2749586 0.2744367 0.2765037 0.2787273 0.27979 0.2796998 0.2782678 0.2751146 0.2713014
 0.2694829 0.2715504 0.2766063 0.2818351 0.2850876 0.2861957 0.2861627 0.2858662 0.2855849 0.2851534
 0.2843922 0.2837118 0.2841437 0.2862437 0.2891273 0.2912785 0.2923039 0.2932577 0.2951584 0.2977421
 0.2998661 0.3007728 0.3007554 0.3007836 0.3016287 0.3032314 0.3047616 0.3053523 0.3049518 0.3044817
 0.3050084 0.3067265 0.3088804 0.3106302 0.3117554 0.312542 0.3133052 0.3141189 0.3147792 0.3149744
 0.3146962 0.3144905 0.3150532 0.3165089 0.318264 0.3196105 0.3203089 0.3205536 0.3205689 0.3203919
 0.3199868 0.3194265 0.3189009 0.3185728 0.3184649 0.3184853 0.318529 0.3185407 0.3185193 0.3185022
 0.3185386 0.318651 0.318823 0.319027 0.3192428 0.3194423 0.3195928 0.3196947 0.3197868 0.3198884
 0.3199533 0.3198978 0.3196554 0.3191887 0.3184697 0.3174701 0.3161646 0.3145211 0.3125081 0.3101893
 0.3078829 0.3061979 0.3057838 0.3069201 0.3092926 0.3121696 0.3148162 0.3168153 0.3181123 0.3188597
 0.3192448 0.3194054 0.3194207 0.3193272 0.31914 0.3188739 0.3185509 0.3181948 0.317829 0.3174776
 0.3171589 0.3168734 0.3166029 0.3163177 0.3159865 0.3155878 0.3151172 0.3145808 0.3139828 0.3133157
 0.3125589 0.3116899 0.3107088 0.3096589 0.3086137 0.3076333 0.3067286 0.3058629 0.3049867 0.3040597
 0.3030319 0.3018332 0.3004404 0.2989696 0.2976455 0.2966232 0.2958508 0.2951307 0.2942923 0.2932831
 0.2921329 0.2908891 0.2895894 0.2882574 0.2869006 0.2855092 0.2840581 0.2825166 0.2808685 0.2791218
 0.2772951 0.2754017 0.273455 0.2714735 0.2694556 0.2673389 0.264992 0.2622509 0.2589689 0.2550502
 0.2504699 0.2452919 0.2396774 0.2338546 0.2280549 0.2224652 0.2172292 0.2124753 0.2083266 0.2048887
 0.2022377 0.2004198 0.1994571 0.1993518 0.2000862 0.2016187 0.2038754 0.2067439 0.2100746 0.2136884
 0.2173877 0.2209771 0.2243091 0.2273375 0.2301178 0.2327301 0.235196 0.2374731 0.2395127 0.2412983
 0.2428348 0.2441287 0.2451921 0.2460558 0.2467647 0.2473615 0.2478727 0.2483065 0.2486599 0.2489337
 0.2491435 0.2493152 0.2494716 0.2496282 0.2497989 0.2499994 0.2502441 0.2505461 0.2509202 0.2513802
 0.2519311 0.2525643 0.253259 0.2539928 0.2547557 0.2555608 0.2564423 0.257443 0.2585977 0.259921
 0.261403 0.2630111 0.2646852 0.2663326 0.2678402 0.2691058 0.2700707 0.2707299 0.271116 0.2712681
 0.2712124 0.2709681 0.2705607 0.2700183 0.269365 0.2686234 0.2678189 0.266969 0.2660734 0.2651234
 0.2641227 0.2630969 0.2620793 0.2610891 0.2601279 0.2591923 0.2582821 0.2573955 0.2565285 0.2556821
 0.2548624 0.2540757 0.2533275 0.2526206 0.2519465 0.2512822 0.2505931 0.2498335 0.2489523 0.2479144
 0.2467152 0.2453668 0.2438783 0.2422558 0.2405117 0.2386625 0.2367212 0.2346961 0.2325943 0.2304219
 0.2281762 0.2258448 0.2234334 0.2209976 0.2186281 0.2163989 0.2143384 0.2124409 0.2106828 0.2090335
 0.2074694 0.2059802 0.2045597 0.2032001 0.2018942 0.2006367 0.1994295 0.198288 0.1972329 0.1962756
 0.1954229 0.1946839 0.1940589 0.19353 0.1930764 0.1926882 0.1923718 0.192157 0.1920841 0.1921527
 0.1922925 0.192404 0.1924245 0.1923551 0.1922449 0.1921521 0.1921064 0.1921022 0.1921163 0.1921048
 0.1919893 0.1916688 0.1910477 0.1900481 0.1886283 0.1868149 0.1847065 0.182446 0.1801967 0.178117
 0.1763234 0.1748729 0.1737684 0.1729555 0.1723351 0.1718282 0.1714353 0.1712257 0.1712739 0.1715822
 0.1720241 0.1723952 0.1725884 0.1727109 0.1729913 0.1735847 0.1744774 0.1755259 0.1765598 0.1774707
 0.1782256 0.1788183 0.179246 0.1795286 0.1796993 0.1797718 0.1797403 0.1795952 0.1793238 0.1789298
 0.1784496 0.1779142 0.1773106 0.1766118 0.1758117 0.1749096 0.173904 0.1728002 0.1715785 0.1701961
 0.1686977 0.1673022 0.1663193 0.1659773 0.1663067 0.1671351 0.1682124 0.1693745 0.1705491 0.1716276
 0.1724795 0.1731587 0.1739864 0.1753346 0.1773151 0.1796676 0.1819372 0.1837663 0.1850188 0.1856832
 0.1857843 0.1853845 0.1845377 0.1832352 0.1814894 0.1794148 0.1771551 0.1748323 0.1725967 0.1705895
 0.1688634 0.1674269 0.166279 0.1654139 0.1649006 0.1644731 0.1625437 0.1567581 0.1473375 0.139243
 0.1384261 0.1454113 0.1545638 0.1601402 0.1611674 0.160064 0.1588355 0.1579084 0.1572011 0.1567859
 0.1567246 0.1569199 0.1571535 0.1571919 0.1569327 0.1563899 0.1554384 0.1535784 0.149929 0.1435453
 0.134119 0.1226162 0.1110635 0.1014694 0.09484176 0.0909912 0.08895911 0.08768026 0.08659042 0.08582733
 0.0858843 0.08710038 0.08946738 0.09277336 0.09675364 0.1010654 0.1052421 0.1088404 0.1116696 0.1138012
 0.115355 0.1163715 0.1168781 0.1169521 0.1166807 0.1161317 0.1153629 0.1144046 0.1132387 0.111846
 0.1102978 0.1087977 0.1076007 0.1068444 0.1064614 0.106282 0.1061939 0.1061705 0.1062079 0.1062978
 0.106437 0.1066239 0.1068642 0.1071734 0.1075402 0.1079025 0.1081916 0.1083849 0.1084949 0.1085228
 0.1084308 0.1081725 0.1077738 0.107348 0.1069515 0.1064427 0.1055954 0.104387 0.1031125 0.1021934
 0.1018877 0.1021408 0.1026558 0.1031103 0.103352 0.103426 0.1034409 0.1034137 0.103238 0.102802
</values></Ydata></ScRf><Data_Parameters_AB><parameter name="DPF">1</parameter><parameter name="NPT">3497</parameter><parameter name="FXV">3996</parameter><parameter name="LXV">500</parameter><parameter name="CSF">1</parameter><parameter name="MXY">0.0510149821639061</parameter><parameter name="MNY">-0.0958552956581116</parameter><parameter name="DAT">18/01/2024</parameter><parameter name="TIM">11:03:58.970 (GMT+1)</parameter><parameter name="DXU">WN</parameter></Data_Parameters_AB><AB__Qtest><MainReport name="Quality Test Report"><Header><Line><Legend>Test result ok/not ok [1/0]: </Legend><Value>0</Value></Line><Line><Legend>Method file: </Legend><Value>C:\Users\Public\Documents\Bruker\OPUS_8.2.28\QT\IRBT_v3_default.QT</Value></Line></Header><Matrix><Line><Legend></Legend><Legend>min</Legend><Legend>max</Legend><Legend>measured</Legend></Line><Line><Value>Absorption (X-Range 1):</Value><Value>0.400000</Value><Value>2.000000</Value><Value>0.146870</Value></Line><Line><Value>Noise (X-Range 4):</Value><Value></Value><Value>0.000300</Value><Value>0.000033</Value></Line><Line><Value>Signal/Noise (X-Range 2):</Value><Value>200.000000</Value><Value></Value><Value>127.320212</Value></Line><Line><Value>Signal/Noise (X-Range 3):</Value><Value>40.000000</Value><Value></Value><Value>34.269453</Value></Line><Line><Value>Water vapour (X-Range 5):</Value><Value></Value><Value>0.000300</Value><Value>0.000018</Value></Line><Line><Value>Signal/Water (X-Range 2):</Value><Value>100.000000</Value><Value></Value><Value>229.298507</Value></Line><Line><Value>Signal/Water (X-Range 3):</Value><Value>20.000000</Value><Value></Value><Value>61.717887</Value></Line><Line><Value>Fringes (X-Range 6):</Value><Value></Value><Value>0.000100</Value><Value>0.000026</Value></Line></Matrix></MainReport></AB__Qtest><Data_Parameters_ScSm><parameter name="DPF">1</parameter><parameter name="NPT">1814</parameter><parameter name="FXV">3996.63438082617</parameter><parameter name="LXV">499.579297603271</parameter><parameter name="CSF">1</parameter><parameter name="MXY">0.368091464042664</parameter><parameter name="MNY">0.0849247872829437</parameter><parameter name="DAT">18/01/2024</parameter><parameter name="TIM">11:03:58.970 (GMT+1)</parameter><parameter name="DXU">WN</parameter></Data_Parameters_ScSm><Data_Parameters_ScRf><parameter name="DPF">1</parameter><parameter name="NPT">1820</parameter><parameter name="FXV">4004.34989121387</parameter><parameter name="LXV">495.721542409425</parameter><parameter name="CSF">1</parameter><parameter name="MXY">0.320568889379501</parameter><parameter name="MNY">0.069162480533123</parameter><parameter name="DAT">18/01/2024</parameter><parameter name="TIM">11:03:33.107 (GMT+1)</parameter><parameter name="DXU">WN</parameter></Data_Parameters_ScRf><Optic_Parameters_Rf><parameter name="APR">0</parameter><parameter name="APT">Open</parameter><parameter name="BMS">KBr</parameter><parameter name="DTC">RT-DLaTGS_IR-Biotyper [Microplate reader]</parameter><parameter name="HPF">0</parameter><parameter name="LPF">10.0</parameter><parameter name="LPV">4000</parameter><parameter name="PGR">0</parameter><parameter name="RCH">Module port</parameter><parameter name="RDX">0</parameter><parameter name="SRC">MIR</parameter><parameter name="VEL">10.0</parameter><parameter name="SON">Off</parameter></Optic_Parameters_Rf><Acquisition_Parameters_Rf><parameter name="ADT">1</parameter><parameter name="AQM">DD</parameter><parameter name="CFE">0</parameter><parameter name="COR">0</parameter><parameter name="DEL">0</parameter><parameter name="DLY">0</parameter><parameter name="HFW">8000</parameter><parameter name="LFW">0</parameter><parameter name="NSR">32</parameter><parameter name="PLF">AB</parameter><parameter name="RES">6</parameter><parameter name="RGN">-1</parameter><parameter name="STR">0</parameter><parameter name="TCL">MakeCompatibleScalar (0, {WSV=1.000000, ARV=0});</parameter><parameter name="TDL">37</parameter><parameter name="RPO">0</parameter></Acquisition_Parameters_Rf><FT_-_Parameters_Rf><parameter name="APF">B3</parameter><parameter name="HFQ">500</parameter><parameter name="LFQ">4000</parameter><parameter name="NLI">0</parameter><parameter name="PHR">24</parameter><parameter name="PHZ">ML</parameter><parameter name="SPZ">NO</parameter><parameter name="ZFF">1</parameter></FT_-_Parameters_Rf><Optic_Parameters_><parameter name="APR">0</parameter><parameter name="APT">Open</parameter><parameter name="BMS">KBr</parameter><parameter name="CHN">Module port</parameter><parameter name="DTC">RT-DLaTGS_IR-Biotyper [Microplate reader]</parameter><parameter name="HPF">0</parameter><parameter name="LPF">10.0</parameter><parameter name="LPV">4000</parameter><parameter name="PGN">0</parameter><parameter name="RDX">0</parameter><parameter name="SRC">MIR</parameter><parameter name="VEL">10.0</parameter><parameter name="SON">Off</parameter></Optic_Parameters_><FT_-_Parameters_><parameter name="APF">B3</parameter><parameter name="HFQ">500</parameter><parameter name="LFQ">4000</parameter><parameter name="NLI">0</parameter><parameter name="PHR">24</parameter><parameter name="PHZ">ML</parameter><parameter name="SPZ">NO</parameter><parameter name="ZFF">1</parameter></FT_-_Parameters_><Acquisition_Parameters_><parameter name="ADT">1</parameter><parameter name="AQM">DD</parameter><parameter name="CFE">0</parameter><parameter name="COR">0</parameter><parameter name="DEL">0</parameter><parameter name="DLY">0</parameter><parameter name="HFW">8000</parameter><parameter name="LFW">0</parameter><parameter name="NSS">32</parameter><parameter name="PLF">AB</parameter><parameter name="RES">6</parameter><parameter name="SOT">0</parameter><parameter name="TCL">MakeCompatibleScalar (0, {WSV=1.000000, ARV=0});</parameter><parameter name="TDL">37</parameter><parameter name="SPO">0</parameter><parameter name="SGN">-1</parameter></Acquisition_Parameters_><Instrument_Parameters_Rf><parameter name="HFL">15801.365274</parameter><parameter name="LFL">0</parameter><parameter name="LWN">15801.365274</parameter><parameter name="ABP">32157</parameter><parameter name="SSP">1</parameter><parameter name="ARG">2</parameter><parameter name="ASG">2</parameter><parameter name="ASS">32</parameter><parameter name="GFW">16</parameter><parameter name="GBW">16</parameter><parameter name="BFW">0</parameter><parameter name="BBW">0</parameter><parameter name="PKA">9304</parameter><parameter name="PKL">4987</parameter><parameter name="PRA">9280</parameter><parameter name="PRL">5010</parameter><parameter name="P2A">1</parameter><parameter name="P2L">1</parameter><parameter name="P2R">1</parameter><parameter name="P2K">1</parameter><parameter name="DAQ">0</parameter><parameter name="AG2">1</parameter><parameter name="SSM">1</parameter><parameter name="RSN">46522</parameter><parameter name="CRR">0</parameter><parameter name="SRT">1705575813.107</parameter><parameter name="DUR">19.64599609375</parameter><parameter name="TSC">32</parameter><parameter name="MVD">2.6095826625824</parameter><parameter name="AN1">0.226049304020981</parameter><parameter name="AN2">0</parameter><parameter name="VSN">2.485 Apr  4 2017</parameter><parameter name="SRN">0085</parameter><parameter name="CAM">0</parameter><parameter name="INS">IR-Biotyper</parameter><parameter name="FOC">69</parameter><parameter name="RDY">1</parameter><parameter name="ARS">32</parameter></Instrument_Parameters_Rf><Sample_Parameters_><parameter name="BLD"></parameter><parameter name="CNM">Admin</parameter><parameter name="CPY"></parameter><parameter name="DPM"></parameter><parameter name="EXP">IRBT_v3_32Scans.XPM</parameter><parameter name="LCT"></parameter><parameter name="SFM">Microplate, HTS-XT</parameter><parameter name="SNM">240118-1045-Cdiff_SCFA_2_C20_232120808_B2_457a991c-c145-43c8-b647-858248acaa43.0</parameter><parameter name="XPP">C:\Users\Public\Documents\Bruker\OPUS_8.2.28\XPM</parameter><parameter name="IST">OK</parameter><parameter name="CPG">1252</parameter><parameter name="UID">fd54e869-9f9d-466d-af20-d5f9575c0612</parameter></Sample_Parameters_><Instrument_Parameters_><parameter name="HFL">15801.365274</parameter><parameter name="LFL">0</parameter><parameter name="LWN">15801.365274</parameter><parameter name="ABP">32157</parameter><parameter name="SSP">1</parameter><parameter name="ASG">2</parameter><parameter name="ARG">2</parameter><parameter name="ASS">32</parameter><parameter name="GFW">16</parameter><parameter name="GBW">16</parameter><parameter name="BFW">0</parameter><parameter name="BBW">0</parameter><parameter name="PKA">10645</parameter><parameter name="PKL">4987</parameter><parameter name="PRA">10612</parameter><parameter name="PRL">5002</parameter><parameter name="P2A">1</parameter><parameter name="P2L">1</parameter><parameter name="P2R">1</parameter><parameter name="P2K">1</parameter><parameter name="DAQ">0</parameter><parameter name="AG2">1</parameter><parameter name="SSM">1</parameter><parameter name="RSN">23954</parameter><parameter name="CRR">0</parameter><parameter name="SRT">1705575838.97</parameter><parameter name="DUR">19.64599609375</parameter><parameter name="TSC">32</parameter><parameter name="MVD">0.273098170757294</parameter><parameter name="AN1">0.225997008299655</parameter><parameter name="AN2">0</parameter><parameter name="VSN">2.485 Apr  4 2017</parameter><parameter name="SRN">0085</parameter><parameter name="CAM">0</parameter><parameter name="INS">IR-Biotyper</parameter><parameter name="FOC">69</parameter><parameter name="RDY">1</parameter></Instrument_Parameters_><History/></OPUSDataFile>
