<?xml version="1.0" encoding="UTF-8" ?>
<OPUSDataFile><AB><Ydata ylabel="Absorbance Units"><values byteorder="INTEL" format="FLOAT32" numvalues="3497"> -0.08353964 -0.08354533 -0.08355156 -0.08355821 -0.08356483 -0.08357149 -0.08357812 -0.08358485 -0.08359168 -0.08359916
 -0.08360808 -0.08361787 -0.08362884 -0.08363876 -0.0836463 -0.08365134 -0.08365264 -0.08365504 -0.08365937 -0.08366963
 -0.0836872 -0.08370837 -0.0837332 -0.08375353 -0.08376898 -0.08377608 -0.08377544 -0.08377217 -0.08376709 -0.0837675
 -0.0837728 -0.08378571 -0.08380357 -0.08382232 -0.08383912 -0.08384711 -0.08384728 -0.08383662 -0.08382148 -0.08380487
 -0.08379369 -0.08379322 -0.08380311 -0.08382576 -0.08385289 -0.08388359 -0.08390849 -0.08392584 -0.08393217 -0.08392681
 -0.08391167 -0.08388686 -0.08385719 -0.08382314 -0.08379123 -0.08376222 -0.08374377 -0.08373591 -0.08374351 -0.08376437
 -0.0837969 -0.08383699 -0.08387747 -0.08391602 -0.08394648 -0.08397119 -0.08398931 -0.08400542 -0.08402198 -0.08404081
 -0.08406386 -0.08408812 -0.08411373 -0.08413521 -0.0841518 -0.0841594 -0.08415739 -0.0841459 -0.08412497 -0.08409911
 -0.08406879 -0.08404056 -0.0840152 -0.08400016 -0.08399645 -0.08401196 -0.08404591 -0.08410218 -0.08417524 -0.08426014
 -0.08434688 -0.08442256 -0.08448125 -0.08451209 -0.08452098 -0.08450601 -0.08448128 -0.08445156 -0.08442547 -0.08440695
 -0.08439428 -0.08438817 -0.08438256 -0.08437682 -0.08436831 -0.08435687 -0.08434576 -0.08433526 -0.08432994 -0.08432958
 -0.0843355 -0.08434682 -0.08436114 -0.08437762 -0.08439282 -0.0844069 -0.08441817 -0.08442853 -0.08443946 -0.08445244
 -0.08447023 -0.08448945 -0.08451007 -0.08452541 -0.08453235 -0.08452959 -0.084515 -0.08449598 -0.08447333 -0.0844532
 -0.08443648 -0.08442283 -0.08441228 -0.08440751 -0.08440912 -0.0844263 -0.08445863 -0.08451027 -0.08457631 -0.08464275
 -0.08470242 -0.08472889 -0.08472458 -0.08467714 -0.08460394 -0.08451959 -0.08443893 -0.08438015 -0.08434483 -0.08434009
 -0.08435843 -0.08440031 -0.08445194 -0.08451127 -0.08456156 -0.08459976 -0.08461557 -0.08460688 -0.08457918 -0.0845326
 -0.08448385 -0.0844335 -0.08439337 -0.08436281 -0.08434366 -0.08433527 -0.08433631 -0.08434669 -0.0843662 -0.08439325
 -0.08442582 -0.08446059 -0.08449288 -0.08452042 -0.08453926 -0.08455031 -0.08455279 -0.08454891 -0.08453927 -0.0845255
 -0.08450765 -0.08448914 -0.08447026 -0.08445532 -0.08444492 -0.08444054 -0.08444237 -0.08444763 -0.08445609 -0.08446374
 -0.08447058 -0.08447466 -0.08447627 -0.08447556 -0.0844726 -0.08446757 -0.08446054 -0.08445142 -0.08444089 -0.08442947
 -0.08441852 -0.08440933 -0.08440294 -0.08440083 -0.0844015 -0.0844053 -0.08440825 -0.0844093 -0.08440607 -0.08439743
 -0.08438616 -0.08437221 -0.08436088 -0.08435254 -0.08434866 -0.08434909 -0.08435083 -0.0843537 -0.08435471 -0.0843543
 -0.0843526 -0.08435003 -0.08434797 -0.08434618 -0.084345 -0.08434382 -0.08434197 -0.08433931 -0.08433529 -0.08433057
 -0.08432551 -0.0843201 -0.08431462 -0.08430805 -0.08429973 -0.0842912 -0.08428186 -0.08427891 -0.08428305 -0.08430023
 -0.08433107 -0.08436867 -0.08441217 -0.0844452 -0.08446787 -0.08447237 -0.08446125 -0.08444138 -0.08441304 -0.08438086
 -0.08434297 -0.08429597 -0.08424433 -0.08419035 -0.08414372 -0.08411533 -0.08410551 -0.08412132 -0.08414691 -0.08417929
 -0.08419866 -0.08419676 -0.08417328 -0.08412447 -0.08407061 -0.08401344 -0.08396957 -0.08394049 -0.08392397 -0.08391934
 -0.08391242 -0.08390302 -0.08388238 -0.08385277 -0.08381865 -0.08378242 -0.08375341 -0.08373091 -0.08371889 -0.08371317
 -0.08371058 -0.08370629 -0.08369441 -0.08367378 -0.08364036 -0.08360056 -0.08355534 -0.08351298 -0.08347705 -0.08344718
 -0.08342503 -0.08340091 -0.08337407 -0.08333498 -0.08328282 -0.08321675 -0.0831371 -0.08305158 -0.08296094 -0.08287469
 -0.0827923 -0.08271714 -0.08264685 -0.08257691 -0.0825052 -0.0824249 -0.08233733 -0.08224094 -0.08213893 -0.08203376
 -0.08192737 -0.08182137 -0.08171783 -0.08161775 -0.0815235 -0.08143666 -0.08135501 -0.08127928 -0.08120122 -0.08112015
 -0.08102805 -0.08092429 -0.08080485 -0.08066956 -0.08051507 -0.08034185 -0.08015111 -0.07994497 -0.07973322 -0.0795178
 -0.07930966 -0.07910829 -0.07891815 -0.07873747 -0.07856595 -0.07840142 -0.07824276 -0.07808544 -0.07792678 -0.07776199
 -0.07758821 -0.07740342 -0.0772066 -0.07699636 -0.07677252 -0.07653234 -0.07627495 -0.07600354 -0.07571795 -0.07543024
 -0.07514096 -0.0748599 -0.07458644 -0.07432009 -0.07405933 -0.07379677 -0.07353207 -0.07325947 -0.07298169 -0.07270095
 -0.07242071 -0.07214821 -0.07188074 -0.07162079 -0.07135724 -0.07108338 -0.07079221 -0.07047598 -0.0701441 -0.06979673
 -0.06944778 -0.06910124 -0.06875805 -0.06841943 -0.06807791 -0.06773294 -0.06738187 -0.06702479 -0.06666738 -0.06630991
 -0.06595806 -0.06561048 -0.0652644 -0.0649174 -0.0645602 -0.06419315 -0.06381083 -0.06341877 -0.06302208 -0.062626
 -0.06223853 -0.06185905 -0.06149016 -0.06112801 -0.06077135 -0.06041788 -0.06006675 -0.05971626 -0.05936623 -0.05901363
 -0.05865814 -0.05829711 -0.05793035 -0.05755489 -0.05717056 -0.05677376 -0.05636506 -0.05594733 -0.05552259 -0.05510241
 -0.05468747 -0.05428711 -0.05389798 -0.05351823 -0.05314335 -0.05276577 -0.05238386 -0.05199241 -0.0515941 -0.05118823
 -0.05078083 -0.05037439 -0.04997377 -0.04958231 -0.0491964 -0.04881728 -0.04843223 -0.04803979 -0.04762994 -0.04720131
 -0.0467572 -0.04629794 -0.04583649 -0.04537345 -0.04491999 -0.04447539 -0.04404265 -0.04361966 -0.04320158 -0.04278646
 -0.04236738 -0.04194468 -0.04151542 -0.04108204 -0.04064582 -0.04020896 -0.03977359 -0.03934009 -0.03890929 -0.03848065
 -0.03805421 -0.03762925 -0.03720561 -0.03678277 -0.03636057 -0.03593936 -0.03551912 -0.03510041 -0.03468323 -0.03426753
 -0.03385319 -0.03343913 -0.03302482 -0.03260715 -0.03218542 -0.03175524 -0.03131763 -0.03087168 -0.03042109 -0.0299707
 -0.02952381 -0.0290864 -0.02865753 -0.02823924 -0.02782692 -0.02741894 -0.02701155 -0.02660281 -0.02619236 -0.02577957
 -0.025366 -0.02495183 -0.02453797 -0.02412457 -0.02371079 -0.02329662 -0.0228825 -0.02246858 -0.02205677 -0.02164694
 -0.02123952 -0.02083393 -0.02042799 -0.02002247 -0.01961745 -0.01921521 -0.01881966 -0.01843116 -0.01805261 -0.01768033
 -0.01731275 -0.01694633 -0.01657789 -0.01620946 -0.01584001 -0.01547665 -0.01512103 -0.01477689 -0.01444599 -0.01412156
 -0.01380356 -0.01347877 -0.01314654 -0.01280095 -0.01244286 -0.01208018 -0.01171401 -0.01135513 -0.01100207 -0.01065566
 -0.01031386 -0.009971297 -0.009629779 -0.009288752 -0.008953119 -0.008628679 -0.008316582 -0.008021356 -0.00773645 -0.007460592
 -0.0071851 -0.006905854 -0.006621299 -0.006329268 -0.006036398 -0.00574345 -0.005455133 -0.005172311 -0.004891656 -0.004613012
 -0.004330859 -0.00404545 -0.003758144 -0.003469819 -0.003186476 -0.002907944 -0.002637474 -0.002372897 -0.002111275 -0.001849739
 -0.001582512 -0.001307724 -0.001020174 -0.0007221696 -0.0004124527 -9.797762E-05 0.0002186871 0.0005298986 0.0008321082 0.001122057
 0.001397646 0.001661582 0.001913457 0.002160034 0.002401736 0.002646029 0.002893337 0.003147533 0.003408499 0.003675673
 0.003948761 0.004226013 0.004506957 0.00478935 0.005072186 0.005351791 0.005628082 0.005898621 0.006165629 0.006430621
 0.006695586 0.006963397 0.007232254 0.007502185 0.007770592 0.008035921 0.008299359 0.008560716 0.008822521 0.009085776
 0.00934716 0.009606781 0.009856725 0.01009654 0.01032377 0.01053909 0.01075138 0.0109618 0.0111829 0.01141303
 0.01165419 0.01190134 0.01214308 0.01237676 0.01259073 0.01279053 0.01297617 0.01315866 0.01334682 0.01354779
 0.01376944 0.01400882 0.01426817 0.01453669 0.01481246 0.01508544 0.01535281 0.01561515 0.01587145 0.01613399
 0.01640343 0.0166907 0.0169953 0.01731232 0.01763925 0.01795775 0.01826669 0.0185509 0.01881383 0.01905532
 0.01928138 0.01950224 0.01972153 0.01994819 0.02018157 0.02042367 0.02067427 0.02093278 0.02120283 0.0214859
 0.02178367 0.02209846 0.02242197 0.02275404 0.02308112 0.02340137 0.02371091 0.02400924 0.02430738 0.02460613
 0.02492061 0.02525025 0.02559984 0.02596618 0.0263399 0.0267179 0.02708676 0.02744752 0.02779441 0.02813363
 0.02846974 0.02880962 0.0291609 0.02952628 0.02991012 0.03031027 0.03072749 0.0311568 0.03159756 0.03204349
 0.0324936 0.03294243 0.03338914 0.03383254 0.03427248 0.03471145 0.03514967 0.03559072 0.03603522 0.03648847
 0.03695217 0.03743615 0.03794101 0.03847609 0.03903394 0.03961011 0.04018583 0.04073809 0.04124833 0.0416894
 0.04206371 0.04235875 0.04260471 0.04280752 0.04300402 0.04320692 0.04343037 0.04368193 0.04394444 0.04421844
 0.04447018 0.04469759 0.044872 0.04499295 0.0450522 0.0450522 0.04500574 0.04491563 0.04480059 0.04466034
 0.04450401 0.04432924 0.04413511 0.04392185 0.0436882 0.04343818 0.04317471 0.04290114 0.04262188 0.04233271
 0.0420352 0.04171592 0.04137255 0.04098998 0.04056414 0.0400924 0.03957267 0.0390202 0.03843561 0.03784145
 0.03723867 0.03664377 0.03605664 0.03548452 0.03492653 0.03438343 0.03385366 0.0333334 0.03282187 0.03231483
 0.03181511 0.03132372 0.03084592 0.03038766 0.02994925 0.02953455 0.02913531 0.02875006 0.02836785 0.02798481
 0.02759647 0.02720004 0.02680281 0.02640421 0.02602248 0.0256587 0.02533196 0.02504246 0.02479197 0.02457733
 0.0243758 0.0241835 0.02397029 0.02373819 0.02347508 0.02319 0.022894 0.02259506 0.02230961 0.02203774
 0.02178628 0.02154988 0.02132696 0.02111368 0.02090791 0.02070794 0.02051345 0.02032066 0.02012917 0.01993381
 0.01973373 0.01952754 0.01931496 0.01909951 0.01888138 0.0186641 0.01844742 0.01823103 0.01801432 0.01779431
 0.01757101 0.01734262 0.01711017 0.01687473 0.01663737 0.01640033 0.01616313 0.01592642 0.01568867 0.01544897
 0.01520665 0.01496094 0.01471265 0.01446173 0.01420956 0.01395648 0.01370301 0.01344935 0.0131951 0.01294031
 0.01268234 0.01242098 0.01215205 0.01187569 0.01159067 0.01129835 0.01100381 0.01070886 0.01042181 0.0101426
 0.00987591 0.009618593 0.009368792 0.00912232 0.008874315 0.008622873 0.008364521 0.008101622 0.007833707 0.007565812
 0.007299103 0.007038329 0.006784559 0.006541133 0.006308606 0.00608914 0.005883086 0.00568857 0.005505243 0.005323114
 0.005141082 0.004944648 0.004734149 0.004502184 0.004252472 0.003991149 0.003723789 0.003464314 0.003216678 0.002993003
 0.00279257 0.00262089 0.002470037 0.002338702 0.00221232 0.002084425 0.001943358 0.001782081 0.001604677 0.001408913
 0.001212052 0.001016114 0.0008333249 0.0006652552 0.0005085017 0.0003628706 0.0002215735 8.55457E-05 -3.943694E-05 -0.0001513812
 -0.0002361874 -0.0002956215 -0.0003253992 -0.0003335319 -0.0003333381 -0.0003338977 -0.0003551339 -0.0003983207 -0.0004749211 -0.0005738659
 -0.0006931426 -0.0008161775 -0.0009339674 -0.001038966 -0.001124775 -0.001199028 -0.001261652 -0.001323627 -0.001387281 -0.001451929
 -0.001518118 -0.001575305 -0.001623058 -0.001655608 -0.001673663 -0.001682044 -0.001681595 -0.001679451 -0.001674842 -0.001669081
 -0.001661084 -0.001648728 -0.00163257 -0.001611777 -0.001589219 -0.00156702 -0.001548872 -0.001537985 -0.001536601 -0.001546839
 -0.001568568 -0.001601679 -0.001647985 -0.001706796 -0.001786146 -0.001886901 -0.002016882 -0.002177484 -0.002361313 -0.002567714
 -0.002771145 -0.002970319 -0.003141288 -0.003286437 -0.003404073 -0.003500179 -0.003593259 -0.003686672 -0.003798018 -0.003924215
 -0.004069036 -0.00422638 -0.0043908 -0.004559382 -0.004727649 -0.00489697 -0.005066744 -0.005239179 -0.005415003 -0.005595212
 -0.0057802 -0.005970252 -0.006165663 -0.006364919 -0.006568181 -0.006769372 -0.006968165 -0.007157706 -0.007338366 -0.00751125
 -0.007678193 -0.007849998 -0.008027162 -0.008218628 -0.008420086 -0.008627195 -0.008834057 -0.009028471 -0.009210605 -0.009374045
 -0.009526833 -0.009672527 -0.009818546 -0.009970739 -0.01012847 -0.01029349 -0.01046075 -0.01062927 -0.01079622 -0.01096093
 -0.01112309 -0.01128278 -0.01143724 -0.01158627 -0.0117231 -0.01184735 -0.01195204 -0.01203787 -0.01210385 -0.01215312
 -0.01219498 -0.01223336 -0.0122826 -0.01234234 -0.01242041 -0.01250911 -0.01260446 -0.01269573 -0.01277333 -0.01283165
 -0.01286428 -0.01287329 -0.01285778 -0.01282168 -0.0127666 -0.01269049 -0.01259423 -0.01246785 -0.01231074 -0.01211204
 -0.01187116 -0.01158613 -0.01125755 -0.0108926 -0.01049183 -0.01006245 -0.009603213 -0.009113695 -0.008592432 -0.008035272
 -0.007442898 -0.006814055 -0.006151174 -0.005456328 -0.00473181 -0.003979458 -0.003202522 -0.002402343 -0.001584086 -0.0007495409
 9.645875E-05 0.0009520787 0.001816693 0.002689944 0.003572417 0.004464685 0.005359766 0.006257303 0.007134955 0.007990449
 0.008789361 0.009528948 0.01017532 0.01072767 0.01116449 0.01148799 0.0116915 0.01178071 0.01175937 0.01163913
 0.01142995 0.01115464 0.0108278 0.01048594 0.01014702 0.00985436 0.009625885 0.009495533 0.00947623 0.009578939
 0.009809328 0.01015473 0.01061547 0.01116713 0.01180838 0.01251324 0.01328011 0.01408296 0.01491927 0.01576135
 0.01660554 0.01742447 0.01821457 0.01895418 0.01964029 0.02025977 0.0208072 0.021275 0.02164843 0.02191886
 0.02205773 0.02205126 0.02186549 0.02148479 0.02088825 0.02006456 0.01902059 0.0177515 0.01629732 0.01465823
 0.01290719 0.01104811 0.009177933 0.007301938 0.005514225 0.00381598 0.00226449 0.0008529688 -0.0004109003 -0.00153906
 -0.00255595 -0.00347219 -0.00431622 -0.005095015 -0.005826819 -0.006517531 -0.007176941 -0.007810527 -0.008424432 -0.009019224
 -0.009598074 -0.01015311 -0.01068374 -0.01117909 -0.01163676 -0.01205309 -0.01242698 -0.0127631 -0.01306168 -0.01332696
 -0.01355869 -0.0137535 -0.01391033 -0.01402016 -0.01408288 -0.01409147 -0.01405019 -0.01396262 -0.01384139 -0.01370627
 -0.01357696 -0.01348396 -0.01344315 -0.01348063 -0.01359467 -0.01379616 -0.01406212 -0.0143904 -0.01474465 -0.01511832
 -0.01546909 -0.01579077 -0.0160412 -0.01621565 -0.01628087 -0.01623427 -0.01606582 -0.01577748 -0.01539896 -0.0149411
 -0.01448544 -0.0140537 -0.01377164 -0.01366085 -0.01384654 -0.01432333 -0.01515368 -0.01628341 -0.017686 -0.0192688
 -0.02095227 -0.02264717 -0.02427819 -0.02580139 -0.02717677 -0.02841147 -0.02949657 -0.03046326 -0.03131495 -0.03208001
 -0.03276173 -0.03338045 -0.03393758 -0.03445145 -0.03492299 -0.03536852 -0.03578829 -0.036192 -0.03657909 -0.03695244
 -0.03731174 -0.03765732 -0.03798983 -0.03831041 -0.03862019 -0.03892102 -0.03921364 -0.03949951 -0.03977827 -0.0400501
 -0.04031465 -0.04057125 -0.04082202 -0.04106691 -0.04131022 -0.04155289 -0.0417968 -0.0420427 -0.04228669 -0.04252864
 -0.04276184 -0.0429861 -0.04319794 -0.04339793 -0.04358831 -0.04377 -0.04394804 -0.04412279 -0.04429802 -0.04447313
 -0.04464882 -0.04482413 -0.04499778 -0.04517003 -0.04534009 -0.04551028 -0.04568179 -0.04585644 -0.04603599 -0.04621852
 -0.04640467 -0.04658828 -0.04676858 -0.0469391 -0.04709871 -0.04724599 -0.04738057 -0.04750796 -0.04762858 -0.0477514
 -0.04787662 -0.0480103 -0.04815152 -0.04829998 -0.04845387 -0.04860801 -0.04876117 -0.04890826 -0.04904995 -0.04918458
 -0.04931454 -0.04944132 -0.04956723 -0.0496944 -0.04982327 -0.04995504 -0.0500875 -0.05022056 -0.05035085 -0.05047771
 -0.05059898 -0.05071416 -0.0508237 -0.05092747 -0.05102945 -0.05112991 -0.05123478 -0.05134414 -0.05146186 -0.05158706
 -0.05171833 -0.051854 -0.05198843 -0.05212095 -0.05224708 -0.05236837 -0.0524847 -0.05259874 -0.0527133 -0.05282907
 -0.0529477 -0.05306771 -0.05318885 -0.05330982 -0.05342988 -0.05354988 -0.05366992 -0.05379058 -0.05391208 -0.05403329
 -0.05415409 -0.05427467 -0.05439514 -0.05451883 -0.05464581 -0.05477845 -0.05491564 -0.05505371 -0.05519122 -0.05532151
 -0.05544529 -0.05555991 -0.05566876 -0.0557753 -0.05588268 -0.05599577 -0.05611416 -0.05623996 -0.05636867 -0.05649931
 -0.05662635 -0.0567477 -0.05686087 -0.05696446 -0.05706089 -0.05715 -0.05723682 -0.05732175 -0.05740787 -0.05749524
 -0.05758334 -0.05767205 -0.0577601 -0.05784763 -0.05793478 -0.05802154 -0.05810821 -0.0581941 -0.05827777 -0.05835917
 -0.05843705 -0.05851333 -0.05858909 -0.05866693 -0.05874933 -0.05883642 -0.05892952 -0.05902559 -0.05912403 -0.05922211
 -0.05931895 -0.05941417 -0.05950755 -0.05959984 -0.05969111 -0.05978152 -0.05987107 -0.05995969 -0.06004742 -0.06013433
 -0.06022049 -0.06030625 -0.06039169 -0.06047715 -0.06056286 -0.06064972 -0.06073725 -0.06082549 -0.06091298 -0.0609982
 -0.0610804 -0.0611582 -0.06123286 -0.06130444 -0.06137478 -0.06144464 -0.06151445 -0.06158439 -0.06165473 -0.06172532
 -0.06179814 -0.06187332 -0.06195307 -0.06203745 -0.06212566 -0.06221733 -0.06230848 -0.06239874 -0.06248394 -0.06256452
 -0.06263924 -0.06270976 -0.06277871 -0.06284817 -0.06292266 -0.06300229 -0.0630898 -0.06318173 -0.06327693 -0.06337099
 -0.06346106 -0.06354617 -0.06362481 -0.06369998 -0.0637719 -0.06384403 -0.06391703 -0.0639916 -0.06406792 -0.06414472
 -0.06422194 -0.06429792 -0.06437269 -0.06444575 -0.06451741 -0.06458902 -0.06466097 -0.06473544 -0.06481203 -0.06489129
 -0.0649717 -0.06505129 -0.0651289 -0.06520197 -0.06527182 -0.06533809 -0.06540398 -0.06547105 -0.06554125 -0.06561617
 -0.0656937 -0.06577387 -0.06585346 -0.06593176 -0.06600875 -0.06608424 -0.06616123 -0.06623988 -0.0663211 -0.06640451
 -0.06648599 -0.0665651 -0.06663678 -0.06670193 -0.06676029 -0.06681406 -0.06686793 -0.06692337 -0.06698544 -0.06705262
 -0.06712589 -0.06720124 -0.06727608 -0.06734739 -0.06741228 -0.06747221 -0.06752646 -0.06757963 -0.0676327 -0.06768876
 -0.06774869 -0.06781177 -0.06787813 -0.06794512 -0.0680126 -0.06807894 -0.06814422 -0.0682084 -0.06827163 -0.06833481
 -0.06839778 -0.06846059 -0.06852277 -0.06858329 -0.06864157 -0.06869619 -0.06874713 -0.06879354 -0.06883647 -0.06887603
 -0.06891459 -0.0689532 -0.06899431 -0.06903918 -0.06908841 -0.06914271 -0.06920008 -0.06926034 -0.06932172 -0.06938399
 -0.06944706 -0.0695109 -0.06957554 -0.06964086 -0.06970533 -0.06976885 -0.06982989 -0.06988877 -0.0699457 -0.07000119
 -0.07005651 -0.07011196 -0.07016836 -0.07022655 -0.07028767 -0.07035269 -0.07042306 -0.07049815 -0.07057869 -0.07066137
 -0.07074551 -0.07082713 -0.0709049 -0.07097761 -0.07104453 -0.07110798 -0.07116803 -0.07122786 -0.07128769 -0.07134851
 -0.07141021 -0.07147132 -0.07153175 -0.07159014 -0.07164694 -0.071703 -0.07175901 -0.07181705 -0.07187736 -0.07194155
 -0.07200879 -0.07207903 -0.07215068 -0.07222248 -0.07229321 -0.0723616 -0.0724281 -0.07249229 -0.07255625 -0.07262047
 -0.07268611 -0.07275372 -0.07282131 -0.07288882 -0.0729532 -0.07301427 -0.07307115 -0.07312398 -0.07317463 -0.07322315
 -0.07327119 -0.07331847 -0.07336485 -0.07341034 -0.07345469 -0.07349858 -0.07354297 -0.07358849 -0.07363649 -0.07368653
 -0.07373886 -0.07379256 -0.07384713 -0.07390223 -0.07395765 -0.07401318 -0.0740688 -0.07412394 -0.07417855 -0.07423188
 -0.07428382 -0.07433413 -0.07438278 -0.07442952 -0.07447435 -0.07451712 -0.07455802 -0.07459818 -0.07463796 -0.07467948
 -0.07472283 -0.07476955 -0.07481903 -0.0748711 -0.07492466 -0.07497855 -0.07503137 -0.07508165 -0.07512839 -0.0751704
 -0.07520811 -0.07524104 -0.07527144 -0.07529958 -0.07532849 -0.07535869 -0.0753927 -0.075431 -0.0754734 -0.07551994
 -0.07556648 -0.07561268 -0.07565236 -0.07568583 -0.07571144 -0.07573097 -0.07575027 -0.07577094 -0.07580083 -0.07583849
 -0.07588585 -0.07593862 -0.07599238 -0.07604397 -0.07608851 -0.07612684 -0.07615749 -0.07618418 -0.07620791 -0.07623212
 -0.07625815 -0.07628683 -0.07631879 -0.07635237 -0.07638756 -0.07642151 -0.07645401 -0.07648358 -0.07651027 -0.07653511
 -0.07655822 -0.07658125 -0.07660408 -0.07662701 -0.07664996 -0.07667264 -0.07669564 -0.07671966 -0.07674603 -0.07677656
 -0.0768125 -0.07685569 -0.07690635 -0.07696564 -0.07703145 -0.07710376 -0.0771784 -0.07725434 -0.07732793 -0.07739788
 -0.07746531 -0.07752988 -0.07759685 -0.07766657 -0.07774173 -0.07782212 -0.07790303 -0.077984 -0.07805882 -0.07812836
 -0.07819287 -0.07825353 -0.07831486 -0.07837449 -0.07843165 -0.07848009 -0.07851152 -0.07852143 -0.0785008 -0.0784549
 -0.07838134 -0.07829626 -0.07820461 -0.07812268 -0.07805654 -0.07801303 -0.07799503 -0.07800069 -0.07803053 -0.07807793
 -0.07814265 -0.07821374 -0.07829054 -0.0783608 -0.07842432 -0.07847358 -0.07850982 -0.07853361 -0.07854736 -0.07855771
 -0.07856668 -0.07858191 -0.07860209 -0.07862968 -0.07865962 -0.07868804 -0.07871158 -0.07872599 -0.07873363 -0.07873409
 -0.07873172 -0.07872812 -0.07872391 -0.07871961 -0.07871392 -0.0787065 -0.0786991 -0.07869171 -0.07868894 -0.07869095
 -0.0787001 -0.07871615 -0.07873813 -0.07876573 -0.07879712 -0.07883219 -0.07886989 -0.07890976 -0.0789507 -0.07899179
 -0.07903128 -0.07906901 -0.07910389 -0.07913701 -0.07916872 -0.0792 -0.0792315 -0.07926317 -0.07929511 -0.07932711
 -0.07935896 -0.07939187 -0.07942594 -0.07946242 -0.07950144 -0.07954261 -0.07958584 -0.07962947 -0.07967339 -0.07971612
 -0.07975779 -0.07979813 -0.07983749 -0.07987658 -0.07991601 -0.07995721 -0.0800007 -0.08004805 -0.08009861 -0.08015285
 -0.08020838 -0.08026401 -0.08031726 -0.08036648 -0.08041138 -0.08045123 -0.08048765 -0.08052078 -0.08055232 -0.08058248
 -0.08061244 -0.08064229 -0.08067323 -0.08070531 -0.08073895 -0.08077407 -0.08081007 -0.08084694 -0.08088416 -0.08092199
 -0.08096106 -0.08100127 -0.08104294 -0.08108526 -0.08112731 -0.08116843 -0.08120759 -0.08124457 -0.08127893 -0.08131064
 -0.08133947 -0.08136594 -0.08138993 -0.08141288 -0.08143494 -0.08145799 -0.08148237 -0.08150885 -0.08153756 -0.08156797
 -0.08160004 -0.08163216 -0.0816642 -0.08169419 -0.08172223 -0.08174767 -0.08177103 -0.08179349 -0.08181541 -0.08183838
 -0.08186162 -0.08188473 -0.08190668 -0.08192603 -0.08194306 -0.08195719 -0.08197001 -0.08198204 -0.08199483 -0.082009
 -0.08202553 -0.08204477 -0.08206692 -0.08209208 -0.08211982 -0.08215017 -0.08218122 -0.08221287 -0.08224212 -0.08226888
 -0.08229076 -0.08230811 -0.08232117 -0.08233076 -0.0823395 -0.08234799 -0.08235884 -0.08237186 -0.08238791 -0.08240644
 -0.08242714 -0.08244967 -0.0824739 -0.08249882 -0.08252416 -0.08254835 -0.08257087 -0.08259054 -0.08260687 -0.08261999
 -0.08262973 -0.08263722 -0.08264246 -0.0826473 -0.08265183 -0.08265805 -0.082666 -0.08267696 -0.08269082 -0.08270783
 -0.08272769 -0.08274983 -0.08277366 -0.08279781 -0.08282173 -0.08284386 -0.08286437 -0.08288267 -0.08289965 -0.08291588
 -0.08293175 -0.08294782 -0.08296334 -0.08297817 -0.08299166 -0.08300341 -0.08301443 -0.08302468 -0.08303597 -0.08304843
 -0.08306348 -0.08308118 -0.08310113 -0.08312318 -0.08314548 -0.08316788 -0.08318841 -0.0832073 -0.08322411 -0.08323928
 -0.08325356 -0.08326718 -0.08328073 -0.08329448 -0.08330892 -0.08332411 -0.08334043 -0.08335726 -0.08337454 -0.08339126
 -0.08340693 -0.08342172 -0.08343544 -0.08344921 -0.08346327 -0.08347761 -0.08349234 -0.08350606 -0.08351873 -0.08353001
 -0.0835401 -0.08355097 -0.08356285 -0.08357818 -0.08359666 -0.08361871 -0.08364348 -0.08366928 -0.08369554 -0.08372064
 -0.08374441 -0.08376593 -0.08378552 -0.08380308 -0.08381902 -0.08383342 -0.08384695 -0.0838597 -0.08387277 -0.08388647
 -0.08390124 -0.08391716 -0.08393449 -0.08395328 -0.08397339 -0.0839948 -0.08401697 -0.08403981 -0.0840622 -0.08408413
 -0.08410492 -0.08412489 -0.0841448 -0.08416478 -0.08418569 -0.0842071 -0.0842288 -0.08425026 -0.08427069 -0.08429021
 -0.08430856 -0.08432638 -0.08434392 -0.08436173 -0.08438008 -0.08439931 -0.08441963 -0.08444092 -0.08446325 -0.08448615
 -0.08450956 -0.08453315 -0.08455692 -0.08458085 -0.0846049 -0.08462855 -0.08465163 -0.08467283 -0.08469219 -0.08470895
 -0.08472351 -0.08473633 -0.08474794 -0.08475925 -0.08477098 -0.08478417 -0.08479958 -0.08481836 -0.08484027 -0.08486588
 -0.08489323 -0.08492181 -0.08494963 -0.08497594 -0.08500063 -0.08502341 -0.08504575 -0.08506773 -0.08509112 -0.08511604
 -0.08514362 -0.08517375 -0.08520532 -0.08523788 -0.08526782 -0.08529507 -0.0853169 -0.08533476 -0.08535044 -0.0853659
 -0.08538575 -0.08540938 -0.08543866 -0.08547018 -0.08550167 -0.08553107 -0.08555578 -0.08557811 -0.08559805 -0.08561906
 -0.08564251 -0.08566797 -0.08569603 -0.08572242 -0.08574678 -0.08576599 -0.08577983 -0.08578977 -0.08579609 -0.08580332
 -0.08581164 -0.08582461 -0.08584184 -0.08586407 -0.08589038 -0.08591896 -0.08594891 -0.08597782 -0.08600553 -0.08603092
 -0.08605429 -0.08607572 -0.08609477 -0.08611143 -0.08612463 -0.08613356 -0.08613935 -0.08614162 -0.08614422 -0.0861478
 -0.08615491 -0.08616618 -0.08617888 -0.08619288 -0.08620331 -0.08621016 -0.08621266 -0.08621138 -0.08620965 -0.08620763
 -0.08620793 -0.08620989 -0.08621325 -0.08621705 -0.08621932 -0.0862199 -0.08621764 -0.08621331 -0.0862069 -0.08619995
 -0.08619341 -0.08618822 -0.08618528 -0.08618359 -0.08618318 -0.08618236 -0.08618068 -0.08617815 -0.08617461 -0.08617193
 -0.08617022 -0.08617061 -0.08617304 -0.08617641 -0.08618052 -0.08618309 -0.08618419 -0.08618277 -0.0861792 -0.08617399
 -0.08616718 -0.08615918 -0.0861496 -0.08613791 -0.08612451 -0.08610917 -0.08609348 -0.08607826 -0.08606479 -0.08605414
 -0.08604542 -0.08603884 -0.08603226 -0.08602524 -0.08601709 -0.08600758 -0.08599775 -0.08598763 -0.08597847 -0.08597028
 -0.08596304 -0.08595676 -0.08595131 -0.08594678 -0.08594367 -0.08594173 -0.08594096 -0.08594026 -0.08593772 -0.08593235
 -0.08592168 -0.08590659 -0.08588654 -0.08586398 -0.08584041 -0.0858169 -0.0857945 -0.0857725 -0.08575085 -0.08572915
 -0.08570718 -0.08568578 -0.08566504 -0.08564539 -0.08562689 -0.08560868 -0.08559069 -0.08557181 -0.08555198 -0.08553029
 -0.08550681 -0.08548128 -0.08545399 -0.08542565 -0.08539657 -0.08536769 -0.08533925 -0.08531193 -0.08528598 -0.08526195
 -0.08523978 -0.08522 -0.08520098 -0.08518241 -0.08516201 -0.08513892 -0.08511263 -0.08508268 -0.08505066 -0.08501664
 -0.08498237 -0.084948 -0.08491425 -0.08488118 -0.084849 -0.08481771 -0.08478729 -0.08475776 -0.08472904 -0.08470127
 -0.08467506 -0.08465004 -0.08462607 -0.08460212 -0.08457677 -0.08454937 -0.08451859 -0.08448505 -0.08444878 -0.08441039
 -0.08437026 -0.08432826 -0.08428431 -0.0842388 -0.0841917 -0.08414409 -0.08409615 -0.08404812 -0.08400006 -0.08395164
 -0.08390284 -0.08385355 -0.08380389 -0.08375486 -0.08370665 -0.08366082 -0.08361713 -0.08357623 -0.08353655 -0.08349567
 -0.08345146 -0.08339938 -0.08334035 -0.08327258 -0.08320075 -0.08312736 -0.0830558 -0.08298875 -0.08292555 -0.08286689
 -0.08280998 -0.08275434 -0.0826982 -0.08264122 -0.08258315 -0.08252391 -0.08246434 -0.08240442 -0.082344 -0.08228285
 -0.08221908 -0.08215266 -0.08208218 -0.08200835 -0.08193249 -0.08185516 -0.08177837 -0.0817016 -0.08162493 -0.08154782
 -0.08146959 -0.08139054 -0.08131059 -0.08123037 -0.08115017 -0.08107048 -0.0809915 -0.0809136 -0.08083715 -0.08076078
 -0.08068455 -0.08060552 -0.08052345 -0.08043719 -0.08034674 -0.08025387 -0.08015864 -0.08006261 -0.07996547 -0.07986668
 -0.07976586 -0.07966164 -0.0795538 -0.07944085 -0.0793236 -0.07920209 -0.07907846 -0.07895488 -0.07883266 -0.07871424
 -0.07859697 -0.0784807 -0.07836133 -0.07823704 -0.07810778 -0.07797266 -0.07783588 -0.07769799 -0.07756123 -0.077426
 -0.07728953 -0.0771516 -0.07700586 -0.07685217 -0.07668616 -0.07650883 -0.07632267 -0.07612883 -0.07593277 -0.07573317
 -0.07553051 -0.0753215 -0.07510135 -0.0748684 -0.07461876 -0.07435326 -0.07407112 -0.07377416 -0.07346311 -0.07313892
 -0.07280249 -0.07245209 -0.07208794 -0.07170554 -0.07130384 -0.07088349 -0.0704439 -0.0699975 -0.06954496 -0.06909929
 -0.06866026 -0.06822987 -0.06780769 -0.06739216 -0.0669843 -0.06658757 -0.06620071 -0.06582443 -0.06545302 -0.06507804
 -0.06469611 -0.06429878 -0.06389061 -0.06347241 -0.06304781 -0.06262083 -0.06218523 -0.0617406 -0.06127805 -0.06079499
 -0.06028936 -0.05976039 -0.05920938 -0.05863685 -0.05803519 -0.05740384 -0.0567232 -0.05599299 -0.05520138 -0.05435223
 -0.05346036 -0.05252802 -0.05157397 -0.05058938 -0.04956621 -0.04849107 -0.04733957 -0.04610546 -0.04477435 -0.04334082
 -0.04180316 -0.04013617 -0.03833342 -0.03635227 -0.03417417 -0.03178485 -0.02916773 -0.0263794 -0.0234187 -0.02039116
 -0.01730455 -0.01425445 -0.01124577 -0.008329802 -0.00550376 -0.002758978 -8.318526E-05 0.002592283 0.005279128 0.008062238
 0.01092222 0.01386944 0.01685192 0.01978564 0.02265859 0.02540885 0.02809456 0.03073479 0.03339226 0.03610957
 0.03890009 0.04178035 0.04473646 0.04776609 0.05086954 0.05404805 0.05729102 0.06059982 0.0639288 0.06727552
 0.07059538 0.07388469 0.077095 0.08021188 0.0831325 0.08583888 0.0882125 0.09025261 0.09189966 0.09316014
 0.09401471 0.09448153 0.09455366 0.09430756 0.09378432 0.09308614 0.09228014 0.09141137 0.09051192 0.08958928
 0.08864932 0.08770025 0.08674761 0.08576871 0.08476605 0.08365721 0.08243776 0.08100878 0.07937102 0.07750057
 0.07541449 0.07319923 0.07086844 0.0685204 0.06614547 0.06376881 0.0613791 0.0589608 0.05652995 0.05408826
 0.05168192 0.04934353 0.04711616 0.04503589 0.04310686 0.04134234 0.03971927 0.0382327 0.03687422 0.03563919
 0.03454579 0.03359541 0.03280114 0.0321638 0.03167174 0.03132373 0.0311004 0.03100143 0.03101586 0.03114323
 0.03137725 0.03171493 0.03214679 0.0326687 0.03326979 0.03394747 0.03469484 0.03551029 0.03639078 0.03733448
 0.03833942 0.03940549 0.04053184 0.0417206 0.04297254 0.04428698 0.04566451 0.04709986 0.04859291 0.05013572
 0.05172788 0.05335548 0.05501732 0.05669364 0.05838355 0.0600729 0.06175926 0.06343093 0.06507561 0.06666017
 0.06816892 0.06955559 0.07082616 0.07196426 0.07299566 0.07393658 0.07480343 0.075612 0.07636117 0.07705425
 0.07768667 0.07825854 0.07876264 0.07919941 0.07955121 0.07981636 0.07998139 0.08004529 0.08001404 0.07988751
 0.07966699 0.07934868 0.07890951 0.07834423 0.07762048 0.07673659 0.07567146 0.0744276 0.07300258 0.07139158
 0.06959369 0.06758725 0.06534708 0.06288207 0.06016484 0.05730343 0.05432311 0.05134801 0.04842677 0.04557
 0.04279154 0.04004543 0.0373252 0.03463572 0.03197638 0.02939526 0.02689355 0.02449567 0.02219876 0.01999397
 0.01788104 0.01585488 0.01391641 0.01207096 0.01030573 0.008608622 0.006947212 0.00528036 0.003576186 0.001789118
 -8.064375E-05 -0.00205206 -0.004092886 -0.00619424 -0.008333516 -0.01050181 -0.01269528 -0.0149199 -0.01711838 -0.01929158
 -0.02131357 -0.02317571 -0.024826 -0.02626875 -0.0275847 -0.02878388 -0.02997726 -0.03116197 -0.03238936 -0.0336423
 -0.03490343 -0.03615585 -0.03736173 -0.03851094 -0.03957864 -0.0405525 -0.04141621 -0.04215519 -0.04275621 -0.04321232
 -0.04351661 -0.04367169 -0.04367667 -0.04353644 -0.04325218 -0.04282437 -0.04225393 -0.04153197 -0.04065804 -0.03961801
 -0.03841311 -0.03706118 -0.03557524 -0.03405314 -0.0325162 -0.03110749 -0.0298315 -0.02877949 -0.02792986 -0.02729136
 -0.02682589 -0.02649403 -0.02625184 -0.02605068 -0.02585352 -0.0256236 -0.0253459 -0.02499908 -0.02460833 -0.02417079
 -0.02373966 -0.0233262 -0.02295376 -0.02262956 -0.02232794 -0.022048 -0.02175443 -0.02144647 -0.02111365 -0.02075856
 -0.02039599 -0.02002798 -0.01967213 -0.01932608 -0.01899389 -0.01866898 -0.01834241 -0.01800534 -0.01764416 -0.0172489
 -0.0168086 -0.01630911 -0.01574254 -0.0150863 -0.01433115 -0.0134541 -0.01244501 -0.01129971 -0.01001318 -0.008604011
 -0.007073478 -0.005439779 -0.003704504 -0.001869901 6.330473E-05 0.002083699 0.004184587 0.006311241 0.008450889 0.01051977
 0.01250839 0.0143498 0.0160355 0.01752373 0.01879622 0.0198158 0.02055929 0.02099143 0.02110336 0.02087465
 0.0203216 0.01944053 0.01827047 0.01681636 0.01513411 0.01323082 0.01117217 0.008964095 0.006678461 0.004319931
 0.00196372 -0.0003866311 -0.002671572 -0.004891776 -0.007025192 -0.009076439 -0.01105493 -0.01296265 -0.01481153 -0.01659768
 -0.01831917 -0.01997196 -0.02154817 -0.02305008 -0.0244755 -0.02583198 -0.0271229 -0.02835679 -0.02953787 -0.03067285
 -0.03176465 -0.03281646 -0.03382922 -0.03480508 -0.03574367 -0.03665362 -0.03753528 -0.03840193 -0.0392538 -0.04009135
 -0.04091141 -0.04168765 -0.0424151 -0.04305508 -0.04360884 -0.04405689 -0.04441021 -0.04467948 -0.04487904 -0.04503315
 -0.045151 -0.0452511 -0.0453337 -0.04540555 -0.04546015 -0.04549599 -0.04550833 -0.04549386 -0.04545752 -0.04539831
 -0.04533001 -0.04525357 -0.04518534 -0.04512649 -0.04509199 -0.04508253 -0.04510907 -0.04517151 -0.04527406 -0.04541545
 -0.04559275 -0.04580336 -0.04603917 -0.04629556 -0.04656075 -0.04682788 -0.04708335 -0.04731997 -0.04752596 -0.04769703
 -0.04782614 -0.04791425 -0.04795872 -0.04796689 -0.04793933 -0.04788725 -0.04781229 -0.04772682 -0.04763208 -0.0475416
 -0.04745625 -0.04739167 -0.04734863 -0.04733999 -0.04736538 -0.04742721 -0.04752333 -0.04764512 -0.04778984 -0.04794488
 -0.0481083 -0.04827002 -0.04842953 -0.04858139 -0.04872714 -0.04886589 -0.0490007 -0.04913306 -0.04926644 -0.04940288
 -0.04954434 -0.04969223 -0.04984581 -0.05000571 -0.05016759 -0.05033135 -0.05049019 -0.05064365 -0.0507849 -0.05091361
 -0.05102504 -0.05111921 -0.05119408 -0.05125003 -0.05128778 -0.05130794 -0.05131291 -0.05130276 -0.05127896 -0.05124099
 -0.05118876 -0.05112175 -0.05103929 -0.05094146 -0.05082819 -0.05069944 -0.05055546 -0.05039518 -0.0502186 -0.05002356
 -0.04980959 -0.04957495 -0.04931894 -0.04904374 -0.04874913 -0.04844368 -0.04812788 -0.04781405 -0.04750275 -0.04720416
 -0.04691813 -0.04664933 -0.04639722 -0.04616249 -0.04594488 -0.04574401 -0.0455602 -0.04539358 -0.04524509 -0.04511531
 -0.04500626 -0.04491902 -0.04485676 -0.0448212 -0.04481465 -0.04483867 -0.04489243 -0.04497644 -0.04508712 -0.04522406
 -0.04538453 -0.04556824 -0.04577379 -0.04600108 -0.04624657 -0.0465098 -0.04678432 -0.04706997 -0.04736211 -0.04766181
 -0.04797009 -0.04828834 -0.04862061 -0.04896653 -0.04932812 -0.04970225 -0.0500869 -0.05047768 -0.05087107 -0.0512631
 -0.05165134 -0.05203181 -0.05240329 -0.05276044 -0.05310198 -0.05342346 -0.05372357 -0.05400353 -0.054263 -0.05450894
 -0.05474172 -0.05496769 -0.05518678 -0.05539989 -0.05560631 -0.05580244 -0.05598767 -0.05615794 -0.05631335 -0.05645178
 -0.05657434 -0.05668162 -0.05677529 -0.05685788 -0.05692903 -0.05699042 -0.05703756 -0.05706966 -0.0570791 -0.05706362
 -0.05701558 -0.056933 -0.05681002 -0.05664552 -0.05643533 -0.05617873 -0.05587609 -0.0555274 -0.0551426 -0.05472318
 -0.05428995 -0.05384541 -0.05341496 -0.05299958 -0.05261736 -0.0522649 -0.05194501 -0.05164969 -0.05136821 -0.05109207
 -0.05080723 -0.05051 -0.05019167 -0.04985609 -0.04950202 -0.04913726 -0.04876417 -0.04838902 -0.04801374 -0.04764206
 -0.04727448 -0.04691578 -0.04656626 -0.04623257 -0.04591511 -0.04561663 -0.04533648 -0.04506703 -0.04480634 -0.04453909
 -0.04426367 -0.04396589 -0.04364601 -0.04329744 -0.04292156 -0.04251756 -0.04208724 -0.04163162 -0.04115428 -0.04065726
 -0.0401468 -0.03962595 -0.03910185 -0.03857778 -0.03805815 -0.0375449 -0.03703883 -0.03654073 -0.03604783 -0.03556022
 -0.03507203 -0.03458296 -0.03408593 -0.03358076 -0.03306341 -0.03253448 -0.03199535 -0.03144735 -0.03089575 -0.03034228
 -0.02979342 -0.02925122 -0.02872155 -0.02820707 -0.02771286 -0.02724134 -0.02679627 -0.0263781 -0.02598881 -0.02562531
 -0.02528752 -0.02497001 -0.02467182 -0.02438702 -0.02411493 -0.02384857 -0.02358756 -0.02332254 -0.02305297 -0.02276927
 -0.02247108 -0.02215162 -0.02181107 -0.02144671 -0.02105962 -0.02065133 -0.02022492 -0.01978745 -0.01934466 -0.01890849
 -0.01848568 -0.01808862 -0.01772224 -0.01739482 -0.01710799 -0.01686495 -0.01666542 -0.0165101 -0.01639784 -0.01632933
 -0.01629928 -0.0163083 -0.01634242 -0.01640103 -0.01646412 -0.01653045 -0.01658359 -0.01662314 -0.01664202 -0.01664045
 -0.01661688 -0.01657103 -0.01650094 -0.01640627 -0.01628497 -0.0161375 -0.01596344 -0.01576417 -0.01554053 -0.01529564
 -0.01503111 -0.01475352 -0.01446547 -0.01417738 -0.01389283 -0.01362341 -0.01337252 -0.01314921 -0.01295598 -0.01279529
 -0.01266835 -0.01256849 -0.01249553 -0.01243519 -0.01238651 -0.0123325 -0.01227222 -0.01219108 -0.01208872 -0.01195536
 -0.01179229 -0.01159697 -0.01137307 -0.01112542 -0.0108585 -0.01057992 -0.01029204 -0.009999636 -0.009702872 -0.009402272
 -0.009100611 -0.008797485 -0.008501852 -0.008215117 -0.007948662 -0.007704743 -0.007490735 -0.007307927 -0.007157996 -0.007041122
 -0.006958306 -0.00690986 -0.006901355 -0.006934074 -0.007019606 -0.007159857 -0.007368965 -0.007647797 -0.008006345 -0.00844338
 -0.008961831 -0.009558637 -0.01023186 -0.01097665 -0.0117901 -0.01266229 -0.01358896 -0.0145542 -0.01555188 -0.01656565
 -0.01758977 -0.01861434 -0.01963633 -0.02065263 -0.02166227 -0.02266702 -0.02366684 -0.02466761 -0.02566972 -0.02668059
 -0.0277 -0.02873028 -0.02976961 -0.03081213 -0.03185509 -0.03288846 -0.03390921 -0.03490756 -0.03588033 -0.03681979
 -0.03772318 -0.03858534 -0.03940523 -0.04018066 -0.04091198 -0.04159864 -0.04224208 -0.04284206 -0.04340249 -0.04392318
 -0.04441308 -0.04487281 -0.04531341 -0.04573575 -0.04614562 -0.04654303 -0.04692537 -0.04729224 -0.04763896 -0.04796624
 -0.04827464 -0.04856538 -0.04884268 -0.0491062 -0.04935772 -0.04959535 -0.04981735 -0.050022 -0.05020702 -0.05037166
 -0.05051458 -0.05063633 -0.05073647 -0.05081715 -0.05087885 -0.05092359 -0.05095228 -0.05096307 -0.05095615 -0.05092636
 -0.05087332 -0.05079364 -0.05068736 -0.05055768 -0.05040582 -0.0502426 -0.05007049 -0.04990602 -0.04975165 -0.04962345
 -0.04952139 -0.04945404 -0.04941754 -0.04941109 -0.04942843 -0.04946401 -0.04951147 -0.04956551 -0.04962094 -0.04967457
 -0.04972223 -0.04976266 -0.04979061 -0.04980546 -0.0497997 -0.04977243 -0.04971716 -0.04963318 -0.04952018 -0.04937827
 -0.04921252 -0.04902339 -0.04881685 -0.04859363 -0.04835964 -0.04811664 -0.04787261 -0.04762951 -0.0473955 -0.04717027
 -0.04695776 -0.04675421 -0.04655789 -0.04636425 -0.04616932 -0.04597184 -0.04576924 -0.04556559 -0.045361 -0.04516184
 -0.04496948 -0.04478792 -0.0446183 -0.04445869 -0.04430924 -0.04416353 -0.04402127 -0.0438779 -0.04373411 -0.0435941
 -0.04345939 -0.0433404 -0.04323606 -0.04315045 -0.04307728 -0.04300666 -0.04293067 -0.04283292 -0.04271135 -0.04255582
 -0.04237373 -0.04216564 -0.04194305 -0.04171189 -0.04147801 -0.04124584 -0.04101124 -0.04077456 -0.04052867 -0.04027203
 -0.04000561 -0.03972894 -0.03945208 -0.03917555 -0.03890847 -0.03865063 -0.03840335 -0.03816584 -0.03793494 -0.03771019
 -0.03748874 -0.03727024 -0.0370525 -0.03683563 -0.03661793 -0.0364023 -0.03619032 -0.03598668 -0.03579536 -0.03561861
 -0.0354593 -0.03531495 -0.03518549 -0.03506801 -0.03496183 -0.03486535 -0.03477859 -0.03469808 -0.03462381 -0.03454804
 -0.03447033 -0.03438227 -0.03428366 -0.03416933 -0.03403948 -0.03389203 -0.033728 -0.03354891 -0.03335698 -0.03315777
 -0.03295254 -0.03274626 -0.03253723 -0.03232525 -0.03210942 -0.03188794 -0.03166423 -0.03143966 -0.03121624 -0.0309961
 -0.03077441 -0.03055026 -0.03032074 -0.03008424 -0.02984904 -0.02961549 -0.02939409 -0.02918526 -0.0289872 -0.02879881
 -0.02860728 -0.02841166 -0.02820021 -0.02797337 -0.0277262 -0.02746007 -0.02717508 -0.02687364 -0.02655902 -0.02623417
 -0.0259031 -0.02556849 -0.02523285 -0.02489993 -0.02457142 -0.02425282 -0.02394617 -0.02365573 -0.0233834 -0.0231281
 -0.02289043 -0.02266474 -0.02245071 -0.02224209 -0.02203855 -0.02183528 -0.02163204 -0.0214243 -0.02121218 -0.02099336
 -0.02076944 -0.02054393 -0.02031977 -0.02010567 -0.01990264 -0.01971718 -0.01954596 -0.01938869 -0.01923951 -0.01909439
 -0.01894781 -0.0187963 -0.01863518 -0.0184617 -0.01827505 -0.01807301 -0.01786485 -0.01765055 -0.0174467 -0.01725483
 -0.01708684 -0.0169434 -0.01682464 -0.01673005 -0.01665376 -0.01659514 -0.01654824 -0.01651176 -0.01647918 -0.01644701
 -0.01640512 -0.01634834 -0.01626395 -0.01614895 -0.01599362 -0.01580193 -0.01557185 -0.01531412 -0.01503279 -0.01473936
 -0.01443804 -0.01413923 -0.01384555 -0.01356693 -0.01330589 -0.01306392 -0.01284245 -0.01262556 -0.01241245 -0.01218146
 -0.0119326 -0.01166019 -0.01136662 -0.01106358 -0.01075228 -0.0104439 -0.01013644 -0.009830271 -0.009524395 -0.009214944
 -0.008908356 -0.008607321 -0.008326828 -0.008078158 -0.007875745 -0.007732593 -0.007647693 -0.007627176 -0.007651147 -0.007717936
 -0.007800703 -0.00789535 -0.007981071 -0.008055325 -0.008106593 -0.008134077 -0.008135117 -0.008110059 -0.008063267 -0.007995339
 -0.007912152 -0.007813784 -0.007703391 -0.007581257 -0.007449774 -0.007308776 -0.007159083 -0.007000342 -0.00683036 -0.006655451
 -0.006477303 -0.006309712 -0.006163023 -0.006037516 -0.005944251 -0.005842079 -0.005727633 -0.005540406 -0.005263446 -0.004907463
 -0.004467411 -0.004019111 -0.003566831 -0.003156774 -0.002789011 -0.002469797 -0.002198024 -0.001970087 -0.001786437 -0.001647166
 -0.001552913 -0.001506067 -0.001505073 -0.001549184 -0.00163464 -0.00175682 -0.001912698 -0.002098697 -0.002311924 -0.002551653
 -0.002809441 -0.003084255 -0.003360083 -0.003634214 -0.003887281 -0.004116273 -0.004303673 -0.004446911 -0.004539645 -0.004581076
 -0.004587604 -0.004561402 -0.004539219 -0.004523681 -0.004551042 -0.004620377 -0.004749096 -0.004931286 -0.005163765 -0.005434258
 -0.00572348 -0.006013169 -0.006273679 -0.006493457 -0.006647056 -0.006750084 -0.006797938 -0.006830086 -0.006860517 -0.006918665
 -0.007019626 -0.007154591 -0.007328787 -0.007498495 -0.00766056 -0.007770309 -0.007824409 -0.007813057 -0.007737227 -0.007615902
 -0.007449703 -0.007251828 -0.007020974 -0.006756941 -0.006462582 -0.006143648 -0.005806893 -0.005468049 -0.005128625 -0.004798282
 -0.004471809 -0.004147405 -0.003822367 -0.003493096 -0.003163864 -0.002835995 -0.002511283 -0.002192677 -0.00186914 -0.00154043
 -0.001188649 -0.0008113818 -0.0004008182 4.403662E-05 0.0005120267 0.00100196 0.001491537 0.00197906 0.002442765 0.002880433
 0.003272636 0.003615559 0.003889329 0.00409138 0.004206322 0.004237941 0.004182071 0.004051303 0.003852476 0.003603965
 0.003316962 0.003009278 0.00269034 0.002371933 0.002058509 0.001758992 0.001474614 0.001218013 0.0009905557 0.000803492
 0.0006578995 0.0005521033 0.0004854888 0.0004444859 0.0004284219 0.000425753 0.0004371923 0.0004598328 0.0004942 0.0005411508
 0.0005986053 0.0006648308 0.0007332582 0.0007965759 0.0008443694 0.0008645742 0.0008515423 0.0007955362 0.0007051101 0.0005792254
 0.0004355513 0.0002791569 0.0001208784 -3.525459E-05 -0.0001917323 -0.0003477841 -0.0005129374 -0.0006877304 -0.000881599 -0.001094806
 -0.001331292 -0.00159003 -0.00186528 -0.002155127 -0.002448036 -0.002743418 -0.003033621 -0.003319264 -0.003599195 -0.003870871
 -0.0041324 -0.004375952 -0.004594126 -0.004780223 -0.004925903 -0.005035102 -0.005104873 -0.005150682 -0.005175424 -0.005195508
 -0.005215027 -0.005241009 -0.005275341 -0.005315543 -0.005361653 -0.005408523 -0.00545607</values></Ydata></AB><ScSm><Ydata ylabel="Single channel"><values byteorder="INTEL" format="FLOAT32" numvalues="1814"> 0.08594757 0.08605927 0.0861856 0.08633641 0.08650744 0.08668244 0.08684316 0.08698086 0.08709846 0.08720204
 0.08729839 0.08740211 0.08753239 0.08769464 0.08787133 0.08803399 0.08816284 0.08826341 0.08836778 0.08850507
 0.08866091 0.08877698 0.08880405 0.08875493 0.08869875 0.08869994 0.08877499 0.08892421 0.08917292 0.08951059
 0.08980106 0.0898684 0.08971649 0.08956318 0.08959899 0.08979586 0.08999504 0.09008364 0.0900384 0.08991246
 0.0898619 0.09009816 0.09069619 0.09143569 0.09186898 0.091581 0.09046553 0.08887367 0.08753046 0.08715849
 0.08795755 0.08938285 0.09055154 0.09095523 0.09073754 0.09031998 0.08996169 0.08975118 0.08979821 0.09021299
 0.09092559 0.09161735 0.09184566 0.09133191 0.09027502 0.08931892 0.08902915 0.08945323 0.09031383 0.09134705
 0.09205601 0.09145698 0.08894572 0.08562335 0.08396205 0.0855239 0.08932666 0.09286592 0.09439753 0.09386492
 0.09217899 0.09041013 0.08950539 0.0899647 0.09151486 0.09338234 0.09490961 0.09573421 0.09562761 0.09459949
 0.09311172 0.09188357 0.09149207 0.09220503 0.09387249 0.09576216 0.09685059 0.09662905 0.09548569 0.0942011
 0.09337214 0.09338157 0.0944285 0.09629308 0.09835607 0.1000561 0.1011819 0.1017495 0.1018649 0.1017038
 0.1014254 0.1011492 0.1010702 0.1013595 0.1018272 0.1019636 0.1015055 0.1007923 0.100422 0.1006355
 0.1011105 0.1013511 0.1011798 0.1006457 0.09951898 0.09740131 0.09454043 0.09196283 0.09047244 0.09008442
 0.0906738 0.0923191 0.09451629 0.09593469 0.09575374 0.0947704 0.09453954 0.09569403 0.09754638 0.09909327
 0.09998983 0.1006071 0.1014474 0.1025762 0.1034731 0.1034141 0.1022101 0.1006738 0.1000829 0.1009447
 0.1025025 0.1036664 0.104158 0.104483 0.1050343 0.1055228 0.1052294 0.1037761 0.1017783 0.1006337
 0.1013707 0.1036292 0.105847 0.1064428 0.1049403 0.1022244 0.09979848 0.09870483 0.09911814 0.1007714
 0.1033287 0.1062285 0.1085963 0.1096863 0.1093979 0.1082541 0.1068324 0.1052247 0.1032448 0.1012695
 0.1004633 0.1016904 0.1044073 0.107095 0.1086616 0.1090511 0.1086299 0.1074518 0.1053508 0.1026935
 0.1007158 0.1006089 0.1021637 0.1038233 0.1043374 0.1039312 0.1035967 0.1037369 0.1039471 0.1038416
 0.1036259 0.1038 0.10452 0.1054017 0.1059301 0.1059358 0.1056326 0.1053124 0.1050672 0.1047382
 0.1041601 0.1035326 0.1034025 0.1040893 0.1052549 0.1062429 0.1067255 0.1068325 0.1067541 0.1064219
 0.1056304 0.1044434 0.1033884 0.1030832 0.1036337 0.1045541 0.1052841 0.1056074 0.1055914 0.1053714
 0.1050609 0.1047258 0.1044021 0.104172 0.1041472 0.1043203 0.1045253 0.1046026 0.1045271 0.1043473
 0.1040821 0.1037267 0.1033187 0.1029571 0.1027408 0.1026905 0.1027446 0.1028222 0.1028583 0.102794
 0.1025981 0.1023093 0.1020108 0.1017549 0.101544 0.1013765 0.1012689 0.101223 0.1012016 0.1011534
 0.1010551 0.1009166 0.1007538 0.1005734 0.100384 0.1002048 0.1000579 0.09995683 0.09989469 0.09984482
 0.09979026 0.09974715 0.09973101 0.09970999 0.09962998 0.09948297 0.09931847 0.09919028 0.0991154 0.09907667
 0.09904119 0.09897386 0.09884912 0.09866722 0.09847065 0.09833063 0.09829582 0.09835664 0.09846873 0.09859028
 0.09868602 0.09872809 0.09871832 0.09868776 0.09865826 0.09862179 0.09856479 0.09849726 0.09845373 0.09846783
 0.09853956 0.09862924 0.09869166 0.09871001 0.09869321 0.09866366 0.09865388 0.09868348 0.09872609 0.09872969
 0.09868212 0.09862894 0.09861583 0.09863593 0.09864502 0.09861414 0.09855679 0.09850834 0.09848744 0.09848236
 0.09847191 0.09844968 0.09842578 0.0984086 0.09838536 0.09832472 0.09820898 0.0980609 0.09792407 0.09781869
 0.09773353 0.0976565 0.09759055 0.09753551 0.09747323 0.09738114 0.09725556 0.0971152 0.09697904 0.09684405
 0.09669062 0.096508 0.09630679 0.09610586 0.09591548 0.09573281 0.09554683 0.09534567 0.09512353 0.09488301
 0.09463109 0.09437382 0.09411289 0.09384841 0.0935885 0.0933515 0.09314746 0.09295774 0.09274548 0.0924926
 0.09221986 0.09196688 0.09175684 0.09158307 0.09142548 0.09127399 0.09113511 0.09102124 0.09093957 0.09088977
 0.09086585 0.09086008 0.09087203 0.09091502 0.09100521 0.09113847 0.09128511 0.09141576 0.09152962 0.09164956
 0.09179289 0.09195605 0.09212565 0.09229386 0.0924623 0.09263748 0.0928214 0.09300365 0.09316851 0.09331478
 0.09346084 0.09362589 0.09381394 0.09401691 0.0942212 0.09440862 0.0945669 0.09470613 0.09485378 0.09502754
 0.09522118 0.09542033 0.09562138 0.0958304 0.09605163 0.09628534 0.0965333 0.0968001 0.09708826 0.09739406
 0.09770794 0.09801928 0.09832431 0.09863184 0.0989586 0.09931527 0.09969687 0.1000875 0.1004736 0.1008526
 0.1012305 0.1016129 0.1020014 0.1023984 0.1028107 0.1032429 0.1036888 0.1041349 0.1045736 0.105008
 0.1054436 0.1058809 0.1063171 0.1067524 0.1071938 0.1076496 0.1081164 0.1085745 0.1090039 0.1094052
 0.1097983 0.1102025 0.1106213 0.111044 0.1114537 0.1118377 0.112199 0.1125572 0.1129294 0.1133115
 0.1136859 0.1140468 0.1144088 0.1147857 0.1151674 0.1155251 0.1158405 0.1161248 0.1164059 0.1166976
 0.1169873 0.1172557 0.1174996 0.1177334 0.1179699 0.1182099 0.1184538 0.1187092 0.1189796 0.119251
 0.1195025 0.1197298 0.1199465 0.120164 0.1203803 0.1205875 0.1207825 0.120971 0.1211634 0.1213658
 0.1215729 0.1217776 0.1219861 0.1222158 0.1224748 0.1227567 0.1230577 0.1233864 0.1237477 0.1241256
 0.1244976 0.1248641 0.1252454 0.1256461 0.1260374 0.1263871 0.1266959 0.1269888 0.1272831 0.1275826
 0.1278971 0.1282448 0.1286322 0.1290432 0.129451 0.1298357 0.130194 0.13054 0.1308897 0.1312385
 0.1315605 0.1318343 0.1320679 0.1322916 0.1325314 0.1327896 0.1330465 0.133275 0.1334535 0.133566
 0.1335949 0.1335256 0.1333623 0.1331293 0.1328455 0.1324993 0.1320561 0.1314894 0.1307945 0.1299752
 0.1290273 0.1279481 0.126764 0.12555 0.124423 0.1235085 0.1229055 0.1226665 0.1227976 0.1232595
 0.1239642 0.1247794 0.125549 0.1261241 0.1263888 0.1262783 0.1257895 0.124975 0.1239217 0.1227265
 0.1214803 0.1202559 0.1191051 0.1180773 0.117258 0.1167864 0.1168275 0.1175156 0.1189064 0.1209479
 0.1234651 0.1261858 0.1288237 0.1311806 0.1331947 0.1349069 0.1363938 0.1377254 0.1389561 0.140122
 0.1412352 0.1422878 0.143266 0.1441602 0.1449638 0.1456671 0.1462539 0.1467026 0.1469965 0.1471402
 0.1471696 0.1471442 0.1471317 0.1471876 0.1473293 0.1475139 0.1476453 0.1476121 0.1473334 0.1467872
 0.146034 0.1452424 0.1446979 0.1447491 0.1456715 0.1475134 0.1500393 0.1528377 0.1555134 0.1578242
 0.1596963 0.1611713 0.1623447 0.1633178 0.164166 0.1649332 0.1656444 0.166317 0.1669631 0.1675888
 0.1681958 0.1687855 0.1693613 0.1699286 0.1704903 0.1710451 0.1715908 0.1721301 0.1726696 0.1732138
 0.1737584 0.174293 0.1748139 0.17533 0.1758511 0.1763731 0.176883 0.1773768 0.1778643 0.1783558
 0.1788527 0.1793506 0.1798439 0.1803257 0.180791 0.1812407 0.1816801 0.182113 0.1825405 0.1829636
 0.1833858 0.1838102 0.184236 0.1846602 0.185081 0.1854982 0.185909 0.1863084 0.1866957 0.1870775
 0.187461 0.1878475 0.1882345 0.1886204 0.1890069 0.1893977 0.1897971 0.190206 0.1906176 0.1910221
 0.1914162 0.1918061 0.1921991 0.1925955 0.1929903 0.1933798 0.1937664 0.1941542 0.1945444 0.1949337
 0.1953171 0.1956928 0.1960623 0.1964294 0.196797 0.1971652 0.1975325 0.1978974 0.1982592 0.1986181
 0.1989753 0.1993335 0.1996935 0.2000532 0.2004103 0.200764 0.2011144 0.201462 0.2018084 0.2021559
 0.2025058 0.2028584 0.2032137 0.2035714 0.2039305 0.2042886 0.2046438 0.2049963 0.2053478 0.2056985
 0.2060474 0.2063963 0.2067488 0.207105 0.20746 0.2078099 0.2081559 0.2085025 0.208854 0.2092112
 0.2095698 0.2099243 0.2102739 0.2106229 0.2109736 0.2113239 0.2116708 0.2120132 0.2123523 0.212691
 0.2130318 0.2133743 0.2137172 0.21406 0.2144024 0.2147448 0.21509 0.215439 0.2157884 0.2161356
 0.2164837 0.2168362 0.2171915 0.2175453 0.2178959 0.218243 0.2185871 0.2189297 0.2192714 0.2196128
 0.2199552 0.2202984 0.2206391 0.2209745 0.2213072 0.2216423 0.2219831 0.2223306 0.2226827 0.2230354
 0.2233862 0.2237355 0.2240832 0.2244297 0.2247785 0.225132 0.2254876 0.2258436 0.2262038 0.2265703
 0.2269392 0.2273053 0.2276654 0.228018 0.2283648 0.2287091 0.2290511 0.2293892 0.2297256 0.2300617
 0.2303953 0.2307264 0.23106 0.2313975 0.2317351 0.2320722 0.2324138 0.2327638 0.233123 0.2334892
 0.2338561 0.2342198 0.2345833 0.23495 0.2353173 0.235683 0.2360492 0.2364175 0.2367874 0.2371593
 0.2375311 0.2378975 0.2382599 0.2386246 0.238993 0.2393624 0.2397327 0.2401037 0.2404724 0.2408409
 0.2412133 0.2415861 0.241953 0.2423172 0.242684 0.2430526 0.2434228 0.243797 0.2441716 0.2445408
 0.2449068 0.2452721 0.2456352 0.2460005 0.2463751 0.2467539 0.2471261 0.2474917 0.2478572 0.2482253
 0.2485989 0.2489777 0.2493514 0.2497121 0.2500659 0.2504184 0.2507665 0.2511113 0.251456 0.2517888
 0.2520823 0.2522764 0.2522108 0.2515503 0.249741 0.2460199 0.2395618 0.2298101 0.2168135 0.2013226
 0.184582 0.1679414 0.152487 0.1388943 0.1275192 0.1185479 0.1120949 0.1082862 0.1073291 0.1096171
 0.1158682 0.1266994 0.1410538 0.1548426 0.1624745 0.1610899 0.1531529 0.1442152 0.138395 0.136355
 0.1367036 0.1380649 0.1398925 0.1423167 0.1456722 0.1500084 0.1550361 0.1606058 0.1669898 0.174468
 0.1827857 0.1912429 0.1992817 0.2068508 0.2142017 0.2214494 0.2283975 0.2347264 0.2402418 0.2449418
 0.2489483 0.2524272 0.2555244 0.258338 0.2609344 0.2633514 0.2655489 0.2673897 0.2687195 0.2694911
 0.2698211 0.2699343 0.2700385 0.2702343 0.270531 0.2709155 0.2713816 0.2719215 0.2725258 0.2731857
 0.2738834 0.2745951 0.2753069 0.2760114 0.2766949 0.2773444 0.2779586 0.2785401 0.2790906 0.2796156
 0.2801218 0.2806127 0.281093 0.2815696 0.2820417 0.2825031 0.2829542 0.2833981 0.2838298 0.2842395
 0.2846224 0.2849805 0.285323 0.2856656 0.2860174 0.2863723 0.28672 0.2870579 0.2873879 0.2877111
 0.2880297 0.2883444 0.288654 0.288962 0.289277 0.2896008 0.2899251 0.2902426 0.2905529 0.2908584
 0.2911621 0.2914684 0.2917793 0.2920936 0.2924083 0.2927207 0.2930318 0.293351 0.2936876 0.2940372
 0.2943866 0.2947307 0.2950746 0.2954221 0.2957734 0.2961289 0.2964878 0.296847 0.297204 0.2975565
 0.2978982 0.2982213 0.2985253 0.2988169 0.2991073 0.2994063 0.2997154 0.3000282 0.30034 0.3006519
 0.3009667 0.3012869 0.301615 0.3019491 0.302283 0.302619 0.3029691 0.303338 0.3037143 0.3040868
 0.3044562 0.3048282 0.3052067 0.3055933 0.3059828 0.3063619 0.306722 0.3070739 0.3074433 0.3078519
 0.3082978 0.308752 0.3091831 0.3095864 0.3099824 0.3103911 0.3108174 0.3112479 0.3116514 0.3119988
 0.312306 0.3126379 0.3130509 0.3135386 0.3140484 0.3145358 0.3149916 0.3154277 0.315854 0.3162678
 0.3166564 0.3170094 0.317339 0.3176874 0.3181006 0.3185813 0.3190823 0.3195569 0.3199944 0.3204028
 0.3207879 0.3211598 0.3215172 0.321818 0.3220215 0.3221821 0.3224483 0.3229232 0.3235499 0.3241708
 0.3246849 0.3251125 0.3255168 0.3259194 0.3263068 0.3266458 0.3268515 0.326831 0.3266538 0.3266113
 0.3269811 0.3277488 0.3286398 0.329397 0.3299511 0.3303654 0.3307205 0.3310583 0.3313577 0.3315368
 0.3315392 0.3314628 0.3315502 0.3319704 0.3326296 0.3332725 0.3337508 0.3341092 0.3344474 0.3348042
 0.3351361 0.3352945 0.3350911 0.3345557 0.3341115 0.3343006 0.3352606 0.336566 0.3376532 0.3383196
 0.3387305 0.3390292 0.3391273 0.3388739 0.3382429 0.3373448 0.3364815 0.3361955 0.336915 0.3384078
 0.3398771 0.3407604 0.3412137 0.341708 0.342414 0.3431297 0.3436095 0.3437838 0.343719 0.3434724
 0.3430628 0.3426318 0.3425452 0.3431364 0.3443176 0.345596 0.3465373 0.347109 0.3474852 0.3475426
 0.3467264 0.3447076 0.3422495 0.3410206 0.3421127 0.3448895 0.3476744 0.3494094 0.3502357 0.350709
 0.3510767 0.3512082 0.3505814 0.3484538 0.3448713 0.3415516 0.3408435 0.3434152 0.3475085 0.3506409
 0.3515018 0.3502281 0.3477771 0.3454805 0.3445708 0.3455111 0.3477994 0.3504799 0.35272 0.3540368
 0.354327 0.3538209 0.3529861 0.3523986 0.3523799 0.3525132 0.3519023 0.3503324 0.3486868 0.3475895
 0.3462632 0.3438003 0.3411837 0.3406755 0.3430183 0.3463641 0.3484198 0.3487911 0.3485718 0.348136
 0.3462356 0.3416466 0.3354383 0.3309442 0.3309053 0.334735 0.3390987 0.3411837 0.3409184 0.3400307
 0.3396079 0.3389409 0.3365847 0.3324097 0.3283907 0.3268417 0.3278385 0.3291255 0.3286228 0.3258956
 0.3210632 0.314259 0.3073385 0.3042448 0.3075198 0.3151212 0.3222196 0.3253679 0.3235852 0.3169143
 0.3067343 0.2972113 0.2934256 0.2966851 0.3029871 0.3068734 0.3057232 0.2998854 0.2904484 0.2787059
 0.2672462 0.2596561 0.258234 0.2621681 0.267786 0.2702434 0.2660101 0.2556546 0.2444476 0.2383943
 0.2386467 0.2408026 0.2400824 0.2357828 0.230288 0.2257316 0.2227802 0.2211327 0.2199189 0.2183883
 0.2165353 0.2139958 0.2088725 0.1999906 0.1903355 0.1854728 0.1877411 0.1943033 0.201528 0.2085219
 0.2151083 0.2192827 0.2194005 0.2175944 0.2184229 0.2240319 0.232079 0.2386152 0.2420094 0.243593
 0.2450707 0.2463461 0.2464971 0.2462302 0.247866 0.252457 0.2581444 0.2621821 0.2636984 0.263687
 0.2631563 0.2623032 0.2610253 0.2593211 0.2572493 0.254948 0.252621 0.2503234 0.2479339 0.2454092
 0.2427169 0.2393107 0.2341943 0.2272759 0.2204956 0.2165137 0.215968 0.2170845 0.2182179 0.2190494
 0.2185288 0.2140117 0.2047339 0.1948958 0.1907547 0.1945943 0.2029502 0.210523 0.2143641 0.2142053
 0.2106397 0.2048861 0.2001669 0.2011719 0.2104166 0.2255734 0.2415325 0.2546778 0.2642182 0.2702406
 0.2724293 0.2711682 0.268746 0.2684816 0.2725063 0.2803988 0.2895352 0.296239 0.2973592 0.2929121
 0.2879592 0.2894996 0.2993599 0.3116331 0.3191962 0.3212431 0.3221353 0.3245906 0.3273542 0.3290393
 0.3308357 0.3343737 0.3389304 0.3419848 0.3414562 0.3365742 0.3278561 0.3177136 0.3101198 0.3076044
 0.3086888 0.3097985 0.3090344 0.3062274 0.3006909 0.2923497 0.2847347 0.2830513 0.2882574 0.2956694
 0.3003242 0.3016188 0.301843 0.3020267 0.3007297 0.2964914 0.2904367 0.2857833 0.2846538 0.2860265
 0.2873052 0.287069 0.2853209 0.2819312 0.2765993 0.2704517 0.2661757 0.2656983 0.2682353 0.2711819
 0.272631 0.2726074 0.2722213 0.2723681 0.2732782 0.2746962 0.2763142 0.2783747 0.281731 0.2867903
 0.2925608 0.2974582 0.3010736 0.3044921 0.3087602 0.3135928 0.3177923 0.3205682 0.3222403 0.3238482
 0.3262241 0.3293185 0.3322672 0.3341619 0.3349317 0.3354992 0.3369308 0.3394001 0.3421233 0.3442661
 0.3456581 0.3466353 0.3475255 0.3483896 0.3490154 0.3491055 0.3487088 0.3484767 0.3492043 0.3510317
 0.3532894 0.3551674 0.356356 0.3570114 0.3573263 0.3573065 0.3569059 0.3562269 0.3555203 0.3550108
 0.3547656 0.3547238 0.3548007 0.3549403 0.3551174 0.3553361 0.3556193 0.3559759 0.3563897 0.3568427
 0.3573245 0.3578064 0.3582433 0.3586181 0.3589529 0.3592505 0.359451 0.359467 0.3592375 0.3587261
 0.3578906 0.3566855 0.3550805 0.3530455 0.3505468 0.3476529 0.3447211 0.3424395 0.3415431 0.3423529
 0.3445315 0.3472824 0.3498107 0.3516704 0.3528077 0.3533921 0.3536349 0.3536993 0.3536835 0.3536325
 0.3535599 0.3534762 0.3534007 0.3533534 0.3533454 0.3533868 0.353494 0.3536798 0.3539333 0.3542129
 0.3544612 0.3546308 0.354698 0.3546558 0.354498 0.354211 0.3537743 0.353173 0.3524185 0.3515622
 0.3506784 0.3498243 0.3490087 0.3481942 0.3473271 0.3463533 0.3451987 0.3437674 0.3420222 0.3400866
 0.3382041 0.3365414 0.3350539 0.3335747 0.3319954 0.3303217 0.3285893 0.326796 0.3249197 0.3229561
 0.3209215 0.3188305 0.3166814 0.3144606 0.3121614 0.3097943 0.3073761 0.3049104 0.3023874 0.299794
 0.2970997 0.2942258 0.2910368 0.2873758 0.2831138 0.2781788 0.2725658 0.2663497 0.2596924 0.2528195
 0.2459689 0.2393484 0.2331302 0.2274672 0.2224997 0.2183453 0.2150842 0.2127567 0.211375 0.2109359
 0.2114196 0.2127765 0.2149128 0.2176845 0.2209071 0.2243719 0.2278628 0.2311822 0.2342025 0.2369148
 0.2394131 0.2418026 0.2441174 0.2463232 0.2483744 0.2502442 0.2519074 0.2533288 0.254483 0.2553787
 0.2560542 0.2565553 0.2569152 0.2571473 0.2572516 0.2572353 0.25713 0.2569906 0.2568769 0.2568357
 0.2568896 0.2570335 0.2572418 0.2574863 0.257751 0.2580346 0.2583452 0.2586909 0.2590696 0.2594692
 0.2598863 0.260349 0.2609164 0.261655 0.2626146 0.2638196 0.2652719 0.2669522 0.2688155 0.2707931
 0.2728036 0.2747693 0.2766308 0.2783538 0.2799222 0.2813221 0.2825376 0.2835626 0.2844106 0.285111
 0.2857015 0.2862206 0.2866921 0.2871122 0.2874516 0.2876742 0.2877596 0.2877151 0.2875679 0.2873397
 0.2870377 0.2866694 0.286255 0.2858142 0.2853532 0.2848712 0.2843734 0.2838713 0.2833757 0.2828893
 0.2824 0.2818782 0.2812763 0.2805362 0.2796071 0.2784629 0.2770981 0.2755111 0.2737061 0.271706
 0.2695528 0.2672957 0.2649816 0.2626455 0.2602993 0.2579271 0.2554889 0.2529365 0.2502553 0.2475029
 0.2447885 0.242204 0.2397801 0.2374996 0.2353325 0.2332586 0.231274 0.2293806 0.227571 0.2258322
 0.2241603 0.2225597 0.2210377 0.2196062 0.2182792 0.217067 0.2159799 0.2150307 0.2142222 0.2135386
 0.2129528 0.2124352 0.2119691 0.2115755 0.211304 0.2111695 0.2111064 0.2110053 0.2107915 0.210471
 0.2101137 0.2097946 0.2095421 0.2093403 0.209158 0.2089446 0.2086127 0.2080611 0.2072057 0.2059793
 0.2043368 0.2022918 0.1999326 0.1974001 0.1948619 0.1924874 0.1904087 0.1886946 0.1873512 0.1863217
 0.1855025 0.1848077 0.1842318 0.1838459 0.1837324 0.1838933 0.1841872 0.1843957 0.1844145 0.1843664
 0.1844876 0.184925 0.1856509 0.1865152 0.1873471 0.1880369 0.1885494 0.1888861 0.1890682 0.1891395
 0.189133 0.189036 0.1888195 0.1884785 0.1880222 0.1874629 0.1868241 0.1861205 0.1853357 0.1844505
 0.1834648 0.1823739 0.1811664 0.1798453 0.1784056 0.1768275 0.1751708 0.1736576 0.1725958 0.1722116
 0.1725277 0.1733507 0.1743977 0.1754751 0.1765028 0.1773881 0.1780251 0.1784923 0.1791362 0.1803435
 0.182211 0.1844399 0.1865453 0.1881666 0.1891766 0.189574 0.1894009 0.1887513 0.187713 0.1862963
 0.1845109 0.1824501 0.1802252 0.1779243 0.1756724 0.1736047 0.1717872 0.1702483 0.168999 0.1680346
 0.1674184 0.1668764 0.1648137 0.1588737 0.1492821 0.1410041 0.1399897 0.1467606 0.1556914 0.1610582
 0.1619024 0.1606474 0.1593053 0.1583197 0.1576241 0.1572912 0.1573702 0.1577441 0.1581694 0.1583841
 0.1582626 0.1578066 0.1568893 0.1550242 0.1513568 0.1449659 0.135545 0.1240451 0.1124801 0.1028622
 0.09621453 0.09236109 0.09034635 0.08909736 0.08803707 0.08729257 0.08735368 0.08856052 0.09090358 0.09416637
 0.0980832 0.102315 0.106397 0.1098836 0.1125856 0.114581 0.1159928 0.1168541 0.1171802 0.1170395
 0.1165219 0.1157091 0.1146801 0.113488 0.1121411 0.1106485 0.1090965 0.1076755 0.1066068 0.1059989
 0.1057719 0.1057498 0.1058051 0.1058891 0.1059839 0.1060877 0.1062165 0.1063863 0.10661 0.1069039
 0.107261 0.1076286 0.1079415 0.1081667 0.1083046 0.1083618 0.1083219 0.1081535 0.1078787 0.1075953
 0.1073429 0.1069656 0.1062296 0.1051138 0.1039224 0.1030873 0.1028697 0.1032053 0.1037816 0.1042701
 0.1045279 0.1046135 0.1046391 0.1046176</values></Ydata></ScSm><ScRf><Ydata ylabel="Single channel"><values byteorder="INTEL" format="FLOAT32" numvalues="1820"> 0.07044216 0.07058166 0.0707071 0.07081492 0.07090835 0.07099873 0.07110089 0.0712232 0.07136218 0.07150426
 0.07163386 0.07174408 0.07183894 0.07192379 0.07200143 0.07208134 0.07218125 0.07231022 0.07245569 0.07259116
 0.07269602 0.07277369 0.07285407 0.07296607 0.07309874 0.07319914 0.07322049 0.07317236 0.07311667 0.07311258
 0.07317628 0.07330704 0.07352278 0.07381061 0.07405344 0.07410344 0.07396595 0.0738266 0.07384704 0.07400362
 0.07416207 0.07422741 0.0741821 0.0740734 0.07403257 0.07423383 0.0747362 0.07535397 0.075713 0.0754661
 0.07452478 0.0731854 0.07205765 0.07174451 0.0724081 0.0735907 0.07455867 0.07489325 0.07471608 0.07437585
 0.0740841 0.07391107 0.07394653 0.07428289 0.07486485 0.07543083 0.07561481 0.0751857 0.07430948 0.07352109
 0.07328747 0.07364366 0.07435759 0.07521163 0.07579461 0.07529125 0.07320374 0.07045035 0.0690814 0.07038593
 0.0735427 0.07647319 0.07773329 0.07727958 0.07587259 0.07440539 0.07366385 0.07405628 0.0753486 0.076897
 0.07815838 0.07883476 0.07873847 0.0778802 0.07664517 0.075629 0.07530668 0.07589713 0.07727577 0.07883761
 0.07973713 0.07955424 0.07861023 0.07755035 0.07686719 0.07687575 0.0777398 0.07927836 0.08098085 0.08238349
 0.08331087 0.08377692 0.08387199 0.08374256 0.08351824 0.08329377 0.0832288 0.08346611 0.08385132 0.08396449
 0.08358796 0.08300105 0.08269698 0.08287436 0.08326745 0.08346777 0.08332974 0.08289264 0.08196257 0.08020787
 0.07783782 0.07570781 0.07448337 0.07417243 0.07466962 0.07604133 0.07786857 0.07904425 0.07888839 0.07806855
 0.07788074 0.07884857 0.08039413 0.0816796 0.08242121 0.08293366 0.08363665 0.08458047 0.08532941 0.08528386
 0.08429219 0.08303105 0.08255681 0.08328401 0.08458224 0.08555152 0.0859683 0.08625665 0.08674179 0.08717968
 0.08696929 0.08579553 0.08417049 0.08325523 0.08390199 0.08581157 0.08768898 0.08822103 0.08700889 0.08478601
 0.08280445 0.08193518 0.08232762 0.08376433 0.08596731 0.08846392 0.09051746 0.091501 0.0913284 0.09043698
 0.08931307 0.08803834 0.08645865 0.08488997 0.08431086 0.08544832 0.08784351 0.09021463 0.09164105 0.0920776
 0.09183448 0.09095177 0.08928032 0.08712943 0.08555798 0.08558911 0.0870459 0.08859585 0.08916899 0.08895831
 0.08881229 0.08907361 0.08939233 0.08943945 0.08939809 0.08970279 0.09048424 0.09140325 0.092011 0.09216145
 0.09204109 0.09190515 0.09183641 0.09169838 0.09134815 0.09096207 0.09101851 0.0917924 0.09298228 0.09401233
 0.09459883 0.09485978 0.09496148 0.09483615 0.09429415 0.09339245 0.09261166 0.09251425 0.09319726 0.09421791
 0.09506381 0.09553611 0.09569836 0.09567791 0.09557899 0.09545904 0.09534788 0.09531963 0.09547739 0.09581614
 0.09618463 0.0964355 0.09654466 0.09655619 0.09648831 0.09633879 0.09614557 0.09600022 0.0959896 0.09612748
 0.09635593 0.09660356 0.09681326 0.0969303 0.09692362 0.09682847 0.09672368 0.09665851 0.096634 0.09664881
 0.09672028 0.09684978 0.09699789 0.09711353 0.09717742 0.09720321 0.09720494 0.09718315 0.0971428 0.09710739
 0.09710854 0.09716396 0.09726097 0.09736551 0.09746079 0.09756675 0.09769757 0.09781526 0.09786315 0.09783854
 0.09779862 0.09779905 0.09785201 0.09793684 0.09802336 0.09808078 0.09808239 0.09802348 0.09794402 0.09791845
 0.09800185 0.09819004 0.09843814 0.09869751 0.0989245 0.09908691 0.099188 0.09926433 0.099344 0.09942219
 0.09948485 0.09954038 0.09962134 0.09975847 0.09995027 0.100159 0.1003419 0.1004807 0.1005818 0.1006686
 0.1007761 0.1009219 0.1010729 0.1011743 0.1012207 0.1012688 0.1013656 0.1014928 0.101595 0.1016461
 0.1016743 0.1017272 0.1018239 0.1019429 0.1020529 0.1021469 0.1022452 0.1023649 0.102488 0.1025659
 0.1025676 0.1025184 0.1024753 0.1024697 0.1024923 0.1025311 0.1025926 0.1026789 0.1027638 0.1028123
 0.1028167 0.1028055 0.102811 0.1028332 0.102842 0.1028136 0.1027554 0.102695 0.1026544 0.1026364
 0.1026285 0.1026134 0.1025789 0.1025225 0.1024505 0.1023713 0.1022901 0.1022122 0.1021555 0.102146
 0.1021839 0.1022167 0.1021701 0.102017 0.1018075 0.1016223 0.1015036 0.101432 0.1013574 0.1012447
 0.1010946 0.1009324 0.1007823 0.1006518 0.1005336 0.1004192 0.1003129 0.1002343 0.1001981 0.1001875
 0.1001558 0.1000674 0.09993377 0.09979849 0.09969421 0.09962302 0.09957056 0.09952466 0.09948391 0.09945814
 0.09945689 0.09947135 0.0994776 0.09946376 0.09944445 0.09944554 0.09948605 0.09957242 0.09969069 0.09980194
 0.09986819 0.09989199 0.09991546 0.09997477 0.1000697 0.1001814 0.1003015 0.1004341 0.1005799 0.1007347
 0.100899 0.1010802 0.1012835 0.1015047 0.1017313 0.1019507 0.1021606 0.1023722 0.1026032 0.102863
 0.1031453 0.103434 0.1037163 0.1039903 0.1042617 0.1045339 0.1048052 0.1050774 0.1053625 0.1056733
 0.1060067 0.1063456 0.1066753 0.1069948 0.107311 0.1076293 0.1079519 0.1082827 0.1086311 0.1090033
 0.1093867 0.1097484 0.1100627 0.1103379 0.1106103 0.1109134 0.1112548 0.1116158 0.1119618 0.1122652
 0.1125306 0.112793 0.1130816 0.1133903 0.1136962 0.1139999 0.1143285 0.1146973 0.1150786 0.1154191
 0.1156894 0.1159111 0.1161332 0.1163811 0.1166373 0.1168718 0.1170814 0.1172898 0.1175149 0.1177532
 0.1179982 0.1182564 0.1185336 0.1188155 0.1190768 0.1193071 0.1195155 0.1197127 0.1198945 0.1200449
 0.1201534 0.1202331 0.1203191 0.1204401 0.1205909 0.1207437 0.1208856 0.1210316 0.1211984 0.1213864
 0.1215918 0.1218208 0.1220767 0.122343 0.1225995 0.1228524 0.1231282 0.1234296 0.123717 0.1239511
 0.1241397 0.1243231 0.1245237 0.124736 0.1249579 0.1252055 0.1254901 0.1257992 0.1261078 0.1263994
 0.1266782 0.1269648 0.1272745 0.1275911 0.1278724 0.1280906 0.1282642 0.1284417 0.1286605 0.1289232
 0.1292068 0.1294869 0.1297532 0.1300014 0.1302169 0.1303777 0.1304802 0.1305487 0.1306061 0.1306412
 0.1306152 0.1304959 0.1302721 0.1299385 0.129483 0.1288996 0.1282132 0.1274904 0.1268253 0.1263104
 0.1260132 0.1259673 0.1261752 0.1266061 0.1271929 0.1278397 0.1284443 0.1289184 0.1291932 0.1292209
 0.128986 0.1285135 0.1278604 0.1270941 0.1262747 0.1254455 0.1246347 0.1238772 0.1232478 0.1228692
 0.1228738 0.1233544 0.1243327 0.125744 0.1274312 0.129178 0.130792 0.1321803 0.133354 0.1343697
 0.1352774 0.1361098 0.1368932 0.137645 0.138365 0.1390427 0.1396742 0.1402646 0.140814 0.1413094
 0.1417316 0.1420648 0.1423038 0.1424601 0.1425577 0.1426168 0.1426472 0.1426566 0.1426513 0.142618
 0.1425134 0.1422876 0.1419172 0.1414221 0.1408691 0.1403784 0.1401178 0.1402622 0.1409197 0.1420654
 0.1435402 0.1451237 0.1466246 0.1479247 0.1489765 0.149792 0.1504281 0.150954 0.1514173 0.1518386
 0.1522289 0.1526008 0.1529645 0.1533235 0.1536764 0.1540217 0.1543625 0.1547042 0.155047 0.1553837
 0.1557098 0.1560322 0.1563655 0.1567179 0.1570823 0.1574426 0.1577904 0.1581329 0.1584812 0.1588316
 0.1591686 0.1594851 0.159792 0.1601068 0.16044 0.1607901 0.1611448 0.1614864 0.1618026 0.1620954
 0.1623777 0.1626607 0.1629469 0.163233 0.1635168 0.1637992 0.1640823 0.1643682 0.1646589 0.1649536
 0.1652444 0.1655191 0.1657721 0.1660121 0.1662541 0.1665058 0.1667636 0.1670201 0.1672738 0.1675295
 0.1677933 0.168065 0.168338 0.1686047 0.1688618 0.1691105 0.1693546 0.1696004 0.1698531 0.170112
 0.1703711 0.1706245 0.1708711 0.1711146 0.1713605 0.1716119 0.1718677 0.1721242 0.1723794 0.1726341
 0.1728884 0.173141 0.1733912 0.1736416 0.1738945 0.1741482 0.1743974 0.1746387 0.1748741 0.1751076
 0.1753405 0.1755724 0.1758043 0.1760384 0.1762755 0.1765154 0.1767572 0.1769998 0.1772428 0.1774879
 0.1777361 0.177986 0.1782359 0.1784847 0.178731 0.1789735 0.1792122 0.1794485 0.1796842 0.179922
 0.180164 0.1804086 0.1806507 0.1808876 0.1811214 0.1813565 0.1815958 0.1818388 0.1820823 0.1823229
 0.1825598 0.1827944 0.1830282 0.1832615 0.1834932 0.183723 0.1839541 0.1841907 0.1844311 0.1846697
 0.1849045 0.1851389 0.1853748 0.1856105 0.1858444 0.1860787 0.1863181 0.1865664 0.1868212 0.1870732
 0.1873142 0.1875457 0.1877773 0.1880168 0.1882646 0.1885133 0.1887543 0.1889858 0.1892138 0.1894453
 0.1896832 0.189927 0.1901751 0.1904263 0.1906813 0.1909415 0.191205 0.1914671 0.1917255 0.1919803
 0.192232 0.1924823 0.1927347 0.1929911 0.1932508 0.1935115 0.1937699 0.1940222 0.1942678 0.1945063
 0.1947345 0.1949517 0.1951654 0.1953844 0.1956097 0.1958383 0.1960692 0.196302 0.1965356 0.1967715
 0.1970121 0.1972566 0.1975032 0.1977511 0.1979991 0.1982474 0.1984984 0.1987517 0.1990028 0.1992529
 0.1995085 0.1997724 0.2000414 0.2003134 0.2005866 0.2008568 0.2011226 0.2013865 0.2016501 0.2019126
 0.2021752 0.2024381 0.2027001 0.202964 0.203234 0.2035074 0.2037792 0.2040496 0.2043196 0.2045858
 0.2048493 0.2051156 0.2053862 0.2056598 0.2059381 0.2062191 0.206496 0.2067677 0.2070403 0.2073168
 0.207598 0.2078857 0.2081736 0.2084504 0.2087172 0.2089863 0.209261 0.2095366 0.2098111 0.210082
 0.210344 0.2106007 0.2108597 0.2111134 0.2113374 0.2114786 0.2114021 0.2108271 0.2092871 0.2061382
 0.2006856 0.1924637 0.1815204 0.1684948 0.1544362 0.1404725 0.1275061 0.1160992 0.106553 0.09902564
 0.09360957 0.09040478 0.08958505 0.09148642 0.09671734 0.1057949 0.1178271 0.12938 0.1357656 0.1345903
 0.1279231 0.1204178 0.1155254 0.1138029 0.1140853 0.1152165 0.1167322 0.1187399 0.1215253 0.1251362
 0.1293304 0.1339788 0.1393072 0.1455504 0.1524939 0.1595481 0.1662434 0.1725374 0.1786419 0.1846543
 0.1904133 0.1956561 0.2002231 0.2041115 0.2074212 0.2102899 0.2128397 0.2151504 0.2172751 0.2192459
 0.2210325 0.2225233 0.2235906 0.2241934 0.2244255 0.2244707 0.2245026 0.2246108 0.2248097 0.2250901
 0.2254444 0.2258625 0.2263341 0.2268499 0.227394 0.2279478 0.2285004 0.2290445 0.2295688 0.2300652
 0.2305356 0.2309837 0.2314114 0.2318221 0.2322188 0.2326002 0.2329687 0.2333307 0.2336889 0.2340418
 0.2343906 0.2347352 0.2350686 0.2353844 0.2356823 0.2359646 0.2362353 0.2365034 0.2367738 0.2370409
 0.237297 0.2375438 0.2377886 0.2380368 0.2382893 0.2385405 0.2387836 0.2390199 0.2392576 0.2394994
 0.239741 0.2399803 0.2402201 0.2404624 0.2407077 0.2409557 0.2412042 0.2414496 0.2416892 0.2419224
 0.2421537 0.2423946 0.2426537 0.2429252 0.2431967 0.2434654 0.2437368 0.2440124 0.2442886 0.2445632
 0.2448361 0.2451085 0.2453823 0.2456563 0.2459232 0.246175 0.2464097 0.2466323 0.2468533 0.2470831
 0.2473231 0.2475657 0.247807 0.2480504 0.2482987 0.2485496 0.2488006 0.2490498 0.2492963 0.2495464
 0.2498123 0.2500977 0.2503923 0.250685 0.250974 0.2512626 0.2515535 0.2518484 0.252144 0.2524318
 0.2527058 0.2529733 0.2532537 0.253566 0.2539108 0.2542644 0.2545994 0.2549105 0.2552132 0.2555244
 0.2558488 0.2561761 0.2564809 0.2567406 0.2569708 0.2572265 0.2575525 0.2579406 0.2583436 0.2587215
 0.2590662 0.2593923 0.2597129 0.2600268 0.2603205 0.2605817 0.2608181 0.2610672 0.2613747 0.2617474
 0.2621409 0.2625052 0.2628291 0.2631286 0.2634169 0.2636985 0.263964 0.2641788 0.2643182 0.2644334
 0.2646435 0.2650232 0.2655182 0.2659981 0.2663852 0.2667025 0.2670053 0.2673113 0.2676107 0.2678791
 0.2680448 0.2680227 0.2678643 0.2678137 0.2681087 0.2687387 0.2694714 0.2700905 0.2705405 0.2708786
 0.2711737 0.2714587 0.2717116 0.2718616 0.2718642 0.2718038 0.2718794 0.2722258 0.2727637 0.2732864
 0.273677 0.2739744 0.2742594 0.2745629 0.2748504 0.2749993 0.2748502 0.2744234 0.2740671 0.2742312
 0.2750301 0.2761132 0.2770152 0.2775698 0.2779127 0.2781606 0.2782421 0.2780393 0.2775376 0.2768267
 0.2761471 0.2759397 0.2765569 0.2778093 0.2790409 0.2797893 0.2801841 0.2806147 0.2812233 0.2818447
 0.2822748 0.282454 0.2824341 0.2822606 0.2819484 0.2816182 0.2815768 0.2821006 0.2831142 0.2842087
 0.2850246 0.2855346 0.2858818 0.2859645 0.2853252 0.2836941 0.2817041 0.2807325 0.2816779 0.2840155
 0.2863652 0.2878545 0.2885967 0.2890484 0.2894141 0.2895862 0.2891313 0.2874331 0.2845287 0.2818435
 0.2813288 0.2835392 0.2870116 0.2896833 0.2904698 0.2894892 0.2875361 0.2857124 0.2850359 0.2858916
 0.2878695 0.290182 0.2921364 0.293327 0.2936677 0.2933506 0.2927626 0.2923792 0.292466 0.2926761
 0.2922686 0.2910713 0.2898199 0.2890295 0.2880508 0.2861294 0.2840863 0.2838089 0.2859163 0.2888629
 0.2907296 0.2911912 0.2911705 0.290981 0.2895694 0.2859037 0.2808815 0.2773071 0.2774903 0.2809409
 0.2848544 0.2868689 0.286935 0.2865148 0.2865249 0.286363 0.2848021 0.2817294 0.2788225 0.2780479
 0.2794543 0.2810993 0.2811985 0.2793726 0.2757071 0.270312 0.2648042 0.2626077 0.2659311 0.2730253
 0.2797337 0.2830791 0.2821937 0.277083 0.2689382 0.2614313 0.2590643 0.2630168 0.2697697 0.2745138
 0.2749423 0.2713502 0.2646741 0.2560843 0.2480038 0.2438086 0.2456792 0.2528469 0.2617305 0.2674796
 0.2664577 0.2591613 0.2509427 0.2479774 0.2514588 0.256812 0.2590715 0.2575499 0.2548093 0.2531675
 0.2534171 0.2552611 0.2576523 0.2596188 0.2610097 0.261116 0.2572956 0.2478949 0.2365963 0.2304648
 0.2326654 0.239915 0.2478375 0.2553685 0.2623149 0.266196 0.2648834 0.2608154 0.2594407 0.2633998
 0.2700091 0.2746886 0.2756106 0.2744417 0.2733097 0.2722694 0.2703559 0.2683171 0.2686471 0.2724846
 0.2778322 0.281725 0.2832051 0.2833213 0.283137 0.2828331 0.2822621 0.2813939 0.280273 0.2790351
 0.2778967 0.2769208 0.2759699 0.2749799 0.27389 0.2720406 0.2682259 0.2622585 0.2563073 0.2534008
 0.2542487 0.2567967 0.2591815 0.2610804 0.2612425 0.2564758 0.2458183 0.2342722 0.22936 0.2338518
 0.2435611 0.252043 0.2556865 0.2541604 0.248235 0.2394228 0.2314924 0.2298115 0.2372171 0.2510437
 0.2655099 0.276602 0.2836041 0.2868611 0.2862312 0.2822209 0.2772721 0.2748018 0.2768529 0.2827477
 0.2896063 0.2936957 0.292054 0.2849233 0.277364 0.2762032 0.2832713 0.2929715 0.2984524 0.2987824
 0.2979593 0.2985616 0.299539 0.29972 0.3002756 0.30275 0.3065222 0.309323 0.3092661 0.3056369
 0.2988837 0.2911751 0.2860621 0.2856681 0.2883447 0.2905636 0.2905379 0.2882624 0.2833002 0.2757447
 0.2689912 0.2679158 0.2733345 0.2807677 0.2855498 0.2871743 0.2878361 0.2884794 0.2876855 0.2840438
 0.2786548 0.2746516 0.2741337 0.2761915 0.2784055 0.2794665 0.2793799 0.2779532 0.2748082 0.271009
 0.2692055 0.2712774 0.2763186 0.2815164 0.284735 0.2858193 0.2857783 0.2854844 0.2852067 0.2847756
 0.2840162 0.2833439 0.2837872 0.2858946 0.2887796 0.2909306 0.291958 0.2929131 0.2948107 0.2973882
 0.299511 0.3004295 0.3004358 0.3004871 0.3013414 0.3029369 0.3044529 0.3050322 0.3046249 0.304149
 0.3046685 0.3063783 0.3085254 0.3102726 0.3114001 0.3121902 0.3129526 0.3137581 0.314405 0.314589
 0.3143091 0.3141119 0.314685 0.3161432 0.3178914 0.3192272 0.3199168 0.3201559 0.3201681 0.31999
 0.3195845 0.3190236 0.318498 0.3181723 0.3180685 0.31809 0.3181275 0.3181262 0.3180893 0.3180584
 0.3180853 0.3181943 0.3183706 0.3185874 0.3188218 0.3190402 0.319203 0.3193066 0.3193892 0.3194719
 0.3195146 0.3194448 0.3192061 0.3187594 0.3180629 0.3170769 0.315776 0.314133 0.3121168 0.3097898
 0.307475 0.3057901 0.305388 0.3065387 0.3089148 0.3117793 0.3144063 0.3163908 0.3176823 0.31843
 0.3188185 0.3189856 0.3190078 0.3189166 0.3187252 0.3184522 0.3181233 0.3177612 0.317386 0.3170238
 0.3167005 0.3164235 0.3161713 0.3159035 0.315581 0.3151815 0.314702 0.3141516 0.3135419 0.3128741
 0.3121283 0.3112742 0.3103061 0.3092675 0.3082333 0.3072644 0.3063733 0.3055231 0.3046581 0.3037291
 0.3026841 0.3014624 0.3000535 0.2985823 0.2972717 0.2962658 0.295499 0.2947704 0.2939194 0.2929069
 0.2917648 0.2905313 0.2892365 0.2879046 0.2865457 0.2851512 0.2837002 0.2821688 0.2805384 0.2788036
 0.2769747 0.2750745 0.2731314 0.2711666 0.2691668 0.2670596 0.264713 0.2619675 0.2586814 0.2547629
 0.2501903 0.2450254 0.2394199 0.2335917 0.2277725 0.2221613 0.2169148 0.2121658 0.2080349 0.2046236
 0.2020002 0.2001994 0.1992353 0.1991149 0.1998337 0.2013594 0.2036184 0.2064932 0.2098278 0.2134389
 0.2171279 0.2207033 0.2240248 0.2270511 0.2298347 0.2324483 0.2349105 0.2371833 0.2392226 0.2410114
 0.2425525 0.2438524 0.2449207 0.2457817 0.2464772 0.2470561 0.2475548 0.2479862 0.2483454 0.2486281
 0.2488443 0.2490185 0.2491783 0.2493464 0.2495379 0.249761 0.250021 0.2503265 0.2506939 0.2511428
 0.2516842 0.2523111 0.2529988 0.2537205 0.2544683 0.2552619 0.256138 0.2571353 0.2582843 0.2596031
 0.2610895 0.2627096 0.2643899 0.2660268 0.2675137 0.2687663 0.2697345 0.2704039 0.2707933 0.270939
 0.2708753 0.2706284 0.2702236 0.2696876 0.2690449 0.2683171 0.267524 0.2666785 0.2657813 0.2648283
 0.2638258 0.2627991 0.2617811 0.2607924 0.2598355 0.2589077 0.2580067 0.257126 0.2562582 0.2554073
 0.2545865 0.2538037 0.2530591 0.2523519 0.2516774 0.2510163 0.2503305 0.2495675 0.2486772 0.2476317
 0.2464287 0.2450765 0.2435841 0.2419631 0.240226 0.2383797 0.2364317 0.234398 0.2322976 0.2301385
 0.2279076 0.2255791 0.2231512 0.2206865 0.2182963 0.2160731 0.2140438 0.2121832 0.2104523 0.2088204
 0.2072675 0.2057795 0.2043444 0.2029588 0.2016316 0.2003723 0.1991815 0.1980586 0.1970094 0.1960461
 0.1951882 0.1944541 0.193839 0.193313 0.1928488 0.1924432 0.1921153 0.1919018 0.1918377 0.1919131
 0.1920544 0.1921662 0.1921913 0.1921338 0.1920422 0.1919709 0.1919438 0.1919519 0.1919718 0.191961
 0.1918406 0.1915103 0.1908801 0.1898805 0.1884722 0.1866726 0.1845665 0.1822897 0.1800089 0.1778931
 0.1760716 0.1746106 0.1735122 0.1727143 0.1721137 0.1716319 0.1712662 0.1710777 0.1711398 0.1714611
 0.1719149 0.1722865 0.1724644 0.1725657 0.1728295 0.1734114 0.1742935 0.1753347 0.1763676 0.1772788
 0.1780263 0.1786019 0.1790141 0.1792957 0.1794782 0.1795573 0.1795145 0.1793527 0.1790867 0.1787305
 0.178299 0.1777909 0.1771809 0.1764546 0.1756252 0.1747011 0.1736809 0.1725696 0.1713488 0.1699755
 0.1684905 0.1671072 0.1661311 0.1657903 0.1661187 0.1669492 0.1680334 0.1692015 0.1703753 0.1714471
 0.1722922 0.1729669 0.1737902 0.1751352 0.177119 0.1794834 0.1817658 0.1835971 0.184835 0.1854751
 0.1855594 0.1851623 0.1843314 0.18304 0.1812928 0.1792135 0.1769565 0.1746423 0.1724112 0.170399
 0.1686632 0.1672227 0.1660831 0.1652363 0.1647436 0.1643362 0.1624302 0.156673 0.147278 0.1391937
 0.1383687 0.1453394 0.1544883 0.1600759 0.1611142 0.1600024 0.1587411 0.1577711 0.1570304 0.1566019
 0.1565429 0.1567434 0.1569746 0.1570005 0.1567262 0.1561784 0.1552402 0.1534076 0.1497869 0.1434228
 0.1340027 0.1224938 0.1109305 0.1013369 0.09473243 0.09092125 0.08892233 0.08765097 0.08654273 0.08575287
 0.08579325 0.08700543 0.08937038 0.09267026 0.09664744 0.1009653 0.1051518 0.1087561 0.1115911 0.1137351
 0.1153038 0.1163254 0.1168231 0.1168805 0.116593 0.1160296 0.1152459 0.1142716 0.1130937 0.1117006
 0.1101661 0.1086854 0.1075009 0.1067481 0.106369 0.1062007 0.1061248 0.1061042 0.1061308 0.1062014
 0.1063207 0.1064947 0.1067334 0.1070532 0.1074431 0.1078379 0.1081541 0.1083465 0.1084216 0.1084037
 0.1082885 0.1080443 0.1076852 0.1073009 0.1069278 0.1064165 0.1055463 0.1043046 0.1029964 0.1020544
 0.1017468 0.1020191 0.1025602 0.1030317 0.1032766 0.1033453 0.1033497 0.1033066 0.1031129 0.1026675
</values></Ydata></ScRf><Data_Parameters_AB><parameter name="DPF">1</parameter><parameter name="NPT">3497</parameter><parameter name="FXV">3996</parameter><parameter name="LXV">500</parameter><parameter name="CSF">1</parameter><parameter name="MXY">0.0945536643266678</parameter><parameter name="MNY">-0.0862198993563652</parameter><parameter name="DAT">18/01/2024</parameter><parameter name="TIM">11:32:49.042 (GMT+1)</parameter><parameter name="DXU">WN</parameter></Data_Parameters_AB><AB__Qtest><MainReport name="Quality Test Report"><Header><Line><Legend>Test result ok/not ok [1/0]: </Legend><Value>0</Value></Line><Line><Legend>Method file: </Legend><Value>C:\Users\Public\Documents\Bruker\OPUS_8.2.28\QT\IRBT_v3_default.QT</Value></Line></Header><Matrix><Line><Legend></Legend><Legend>min</Legend><Legend>max</Legend><Legend>measured</Legend></Line><Line><Value>Absorption (X-Range 1):</Value><Value>0.400000</Value><Value>2.000000</Value><Value>0.180774</Value></Line><Line><Value>Noise (X-Range 4):</Value><Value></Value><Value>0.000300</Value><Value>0.000023</Value></Line><Line><Value>Signal/Noise (X-Range 2):</Value><Value>200.000000</Value><Value></Value><Value>252.239671</Value></Line><Line><Value>Signal/Noise (X-Range 3):</Value><Value>40.000000</Value><Value></Value><Value>69.844210</Value></Line><Line><Value>Water vapour (X-Range 5):</Value><Value></Value><Value>0.000300</Value><Value>0.000021</Value></Line><Line><Value>Signal/Water (X-Range 2):</Value><Value>100.000000</Value><Value></Value><Value>270.398225</Value></Line><Line><Value>Signal/Water (X-Range 3):</Value><Value>20.000000</Value><Value></Value><Value>74.872244</Value></Line><Line><Value>Fringes (X-Range 6):</Value><Value></Value><Value>0.000100</Value><Value>0.000021</Value></Line></Matrix></MainReport></AB__Qtest><Data_Parameters_ScSm><parameter name="DPF">1</parameter><parameter name="NPT">1814</parameter><parameter name="FXV">3996.63438082617</parameter><parameter name="LXV">499.579297603271</parameter><parameter name="CSF">1</parameter><parameter name="MXY">0.359466969966888</parameter><parameter name="MNY">0.0839620530605316</parameter><parameter name="DAT">18/01/2024</parameter><parameter name="TIM">11:32:49.042 (GMT+1)</parameter><parameter name="DXU">WN</parameter></Data_Parameters_ScSm><Data_Parameters_ScRf><parameter name="DPF">1</parameter><parameter name="NPT">1820</parameter><parameter name="FXV">4004.34989121387</parameter><parameter name="LXV">495.721542409425</parameter><parameter name="CSF">1</parameter><parameter name="MXY">0.320168107748032</parameter><parameter name="MNY">0.0690813958644867</parameter><parameter name="DAT">18/01/2024</parameter><parameter name="TIM">11:32:23.178 (GMT+1)</parameter><parameter name="DXU">WN</parameter></Data_Parameters_ScRf><Optic_Parameters_Rf><parameter name="APR">0</parameter><parameter name="APT">Open</parameter><parameter name="BMS">KBr</parameter><parameter name="DTC">RT-DLaTGS_IR-Biotyper [Microplate reader]</parameter><parameter name="HPF">0</parameter><parameter name="LPF">10.0</parameter><parameter name="LPV">4000</parameter><parameter name="PGR">0</parameter><parameter name="RCH">Module port</parameter><parameter name="RDX">0</parameter><parameter name="SRC">MIR</parameter><parameter name="VEL">10.0</parameter><parameter name="SON">Off</parameter></Optic_Parameters_Rf><Acquisition_Parameters_Rf><parameter name="ADT">1</parameter><parameter name="AQM">DD</parameter><parameter name="CFE">0</parameter><parameter name="COR">0</parameter><parameter name="DEL">0</parameter><parameter name="DLY">0</parameter><parameter name="HFW">8000</parameter><parameter name="LFW">0</parameter><parameter name="NSR">32</parameter><parameter name="PLF">AB</parameter><parameter name="RES">6</parameter><parameter name="RGN">-1</parameter><parameter name="STR">0</parameter><parameter name="TCL">MakeCompatibleScalar (0, {WSV=1.000000, ARV=0});</parameter><parameter name="TDL">37</parameter><parameter name="RPO">0</parameter></Acquisition_Parameters_Rf><FT_-_Parameters_Rf><parameter name="APF">B3</parameter><parameter name="HFQ">500</parameter><parameter name="LFQ">4000</parameter><parameter name="NLI">0</parameter><parameter name="PHR">24</parameter><parameter name="PHZ">ML</parameter><parameter name="SPZ">NO</parameter><parameter name="ZFF">1</parameter></FT_-_Parameters_Rf><Optic_Parameters_><parameter name="APR">0</parameter><parameter name="APT">Open</parameter><parameter name="BMS">KBr</parameter><parameter name="CHN">Module port</parameter><parameter name="DTC">RT-DLaTGS_IR-Biotyper [Microplate reader]</parameter><parameter name="HPF">0</parameter><parameter name="LPF">10.0</parameter><parameter name="LPV">4000</parameter><parameter name="PGN">0</parameter><parameter name="RDX">0</parameter><parameter name="SRC">MIR</parameter><parameter name="VEL">10.0</parameter><parameter name="SON">Off</parameter></Optic_Parameters_><FT_-_Parameters_><parameter name="APF">B3</parameter><parameter name="HFQ">500</parameter><parameter name="LFQ">4000</parameter><parameter name="NLI">0</parameter><parameter name="PHR">24</parameter><parameter name="PHZ">ML</parameter><parameter name="SPZ">NO</parameter><parameter name="ZFF">1</parameter></FT_-_Parameters_><Acquisition_Parameters_><parameter name="ADT">1</parameter><parameter name="AQM">DD</parameter><parameter name="CFE">0</parameter><parameter name="COR">0</parameter><parameter name="DEL">0</parameter><parameter name="DLY">0</parameter><parameter name="HFW">8000</parameter><parameter name="LFW">0</parameter><parameter name="NSS">32</parameter><parameter name="PLF">AB</parameter><parameter name="RES">6</parameter><parameter name="SOT">0</parameter><parameter name="TCL">MakeCompatibleScalar (0, {WSV=1.000000, ARV=0});</parameter><parameter name="TDL">37</parameter><parameter name="SPO">0</parameter><parameter name="SGN">-1</parameter></Acquisition_Parameters_><Instrument_Parameters_Rf><parameter name="HFL">15801.365274</parameter><parameter name="LFL">0</parameter><parameter name="LWN">15801.365274</parameter><parameter name="ABP">32157</parameter><parameter name="SSP">1</parameter><parameter name="ARG">2</parameter><parameter name="ASG">2</parameter><parameter name="ASS">32</parameter><parameter name="GFW">16</parameter><parameter name="GBW">16</parameter><parameter name="BFW">0</parameter><parameter name="BBW">0</parameter><parameter name="PKA">9301</parameter><parameter name="PKL">4987</parameter><parameter name="PRA">9263</parameter><parameter name="PRL">5010</parameter><parameter name="P2A">1</parameter><parameter name="P2L">1</parameter><parameter name="P2R">1</parameter><parameter name="P2K">1</parameter><parameter name="DAQ">0</parameter><parameter name="AG2">1</parameter><parameter name="SSM">1</parameter><parameter name="RSN">46586</parameter><parameter name="CRR">0</parameter><parameter name="SRT">1705577543.179</parameter><parameter name="DUR">19.64599609375</parameter><parameter name="TSC">31.8</parameter><parameter name="MVD">0.303968131542206</parameter><parameter name="AN1">0.225993424218402</parameter><parameter name="AN2">0</parameter><parameter name="VSN">2.485 Apr  4 2017</parameter><parameter name="SRN">0085</parameter><parameter name="CAM">0</parameter><parameter name="INS">IR-Biotyper</parameter><parameter name="FOC">69</parameter><parameter name="RDY">1</parameter><parameter name="ARS">32</parameter></Instrument_Parameters_Rf><Sample_Parameters_><parameter name="BLD"></parameter><parameter name="CNM">Admin</parameter><parameter name="CPY"></parameter><parameter name="DPM"></parameter><parameter name="EXP">IRBT_v3_32Scans.XPM</parameter><parameter name="LCT"></parameter><parameter name="SFM">Microplate, HTS-XT</parameter><parameter name="SNM">240118-1045-Cdiff_SCFA_2_C20_232120808_B6_5cd124be-22a0-47bb-be93-5abd916a49fc.0</parameter><parameter name="XPP">C:\Users\Public\Documents\Bruker\OPUS_8.2.28\XPM</parameter><parameter name="IST">OK</parameter><parameter name="CPG">1252</parameter><parameter name="UID">5cdd27da-042d-4f9b-89e8-ed320116ac34</parameter></Sample_Parameters_><Instrument_Parameters_><parameter name="HFL">15801.365274</parameter><parameter name="LFL">0</parameter><parameter name="LWN">15801.365274</parameter><parameter name="ABP">32157</parameter><parameter name="SSP">1</parameter><parameter name="ASG">2</parameter><parameter name="ARG">2</parameter><parameter name="ASS">32</parameter><parameter name="GFW">16</parameter><parameter name="GBW">16</parameter><parameter name="BFW">0</parameter><parameter name="BBW">0</parameter><parameter name="PKA">10316</parameter><parameter name="PKL">4987</parameter><parameter name="PRA">10300</parameter><parameter name="PRL">5002</parameter><parameter name="P2A">1</parameter><parameter name="P2L">1</parameter><parameter name="P2R">1</parameter><parameter name="P2K">1</parameter><parameter name="DAQ">0</parameter><parameter name="AG2">1</parameter><parameter name="SSM">1</parameter><parameter name="RSN">23986</parameter><parameter name="CRR">0</parameter><parameter name="SRT">1705577569.042</parameter><parameter name="DUR">19.64599609375</parameter><parameter name="TSC">31.8</parameter><parameter name="MVD">0.466470003128052</parameter><parameter name="AN1">0.226010981044885</parameter><parameter name="AN2">0</parameter><parameter name="VSN">2.485 Apr  4 2017</parameter><parameter name="SRN">0085</parameter><parameter name="CAM">0</parameter><parameter name="INS">IR-Biotyper</parameter><parameter name="FOC">69</parameter><parameter name="RDY">1</parameter></Instrument_Parameters_><History/></OPUSDataFile>
