<?xml version="1.0" encoding="UTF-8" ?>
<OPUSDataFile><AB><Ydata ylabel="Absorbance Units"><values byteorder="INTEL" format="FLOAT32" numvalues="3497"> -0.07717679 -0.0771861 -0.0771881 -0.07718227 -0.07716551 -0.07714101 -0.07711416 -0.07708747 -0.07706747 -0.07705359
 -0.077048 -0.07704833 -0.07705319 -0.0770622 -0.07707455 -0.07709139 -0.07711336 -0.07713937 -0.07717004 -0.07719971
 -0.07722785 -0.07724877 -0.07726181 -0.07726604 -0.07726143 -0.07725002 -0.07723193 -0.07720892 -0.07718144 -0.07715212
 -0.07712232 -0.07709794 -0.07707984 -0.07707354 -0.07707702 -0.0770901 -0.07710928 -0.07713056 -0.07715241 -0.07717216
 -0.07719059 -0.07720771 -0.0772234 -0.07723797 -0.07724956 -0.07725775 -0.07726155 -0.07726047 -0.07725652 -0.07724967
 -0.07724393 -0.0772395 -0.07723968 -0.0772444 -0.07725409 -0.07726817 -0.07728373 -0.07730031 -0.07731456 -0.07732686
 -0.07733621 -0.07734372 -0.07735088 -0.07735762 -0.07736508 -0.07737099 -0.07737412 -0.07737258 -0.07736416 -0.07735161
 -0.07733463 -0.07731925 -0.07730702 -0.07730089 -0.07730216 -0.07730687 -0.07731493 -0.07732049 -0.07732328 -0.07732198
 -0.07731688 -0.07731073 -0.07730397 -0.07730027 -0.07730035 -0.07730859 -0.07732558 -0.07735565 -0.07739683 -0.0774498
 -0.07750718 -0.07756236 -0.07760636 -0.07762863 -0.07762989 -0.07760467 -0.07756757 -0.07752153 -0.07748231 -0.07745524
 -0.07744349 -0.07744928 -0.07746462 -0.0774891 -0.07751409 -0.07753912 -0.07756068 -0.07757877 -0.07759277 -0.07760251
 -0.07760666 -0.07760504 -0.07759595 -0.07757988 -0.07755625 -0.07752778 -0.07749733 -0.0774703 -0.07745393 -0.07745112
 -0.07746858 -0.07749978 -0.07754511 -0.07759094 -0.07763207 -0.07766113 -0.07767414 -0.07767499 -0.07766344 -0.0776456
 -0.07762194 -0.07759741 -0.07757228 -0.07755694 -0.077552 -0.07756953 -0.07760789 -0.07766547 -0.07773604 -0.07779703
 -0.07784248 -0.07784314 -0.0778068 -0.07772865 -0.07763001 -0.07753451 -0.07745384 -0.07740783 -0.077391 -0.07740714
 -0.07744373 -0.07749809 -0.07755627 -0.07761519 -0.07766104 -0.0776909 -0.07769801 -0.07768046 -0.07764801 -0.07760107
 -0.07755962 -0.07752403 -0.0775036 -0.07749665 -0.07749707 -0.07750379 -0.07750921 -0.07751445 -0.07751879 -0.07752267
 -0.07752691 -0.07753041 -0.07753198 -0.07753127 -0.07752762 -0.07752103 -0.07751186 -0.07749809 -0.07747872 -0.07745363
 -0.0774214 -0.0773889 -0.07735677 -0.07733248 -0.0773172 -0.07731121 -0.07731464 -0.07732262 -0.07733483 -0.07734579
 -0.07735509 -0.07735743 -0.07735258 -0.07733594 -0.07730927 -0.07727364 -0.07723322 -0.07719581 -0.0771639 -0.07714467
 -0.07713545 -0.07713728 -0.07714459 -0.07715461 -0.07716314 -0.07716758 -0.07716718 -0.07716101 -0.07715062 -0.07713601
 -0.07711937 -0.07710091 -0.07708237 -0.07706385 -0.07704635 -0.07702991 -0.07701574 -0.077004 -0.07699645 -0.07699315
 -0.0769955 -0.07700291 -0.07701541 -0.07703029 -0.07704355 -0.0770511 -0.07704566 -0.07702693 -0.07699002 -0.07694291
 -0.07688765 -0.07683488 -0.07678996 -0.07675649 -0.07673711 -0.07672924 -0.07673268 -0.07674631 -0.07677002 -0.07680319
 -0.07684593 -0.07688924 -0.07693239 -0.07696141 -0.07697663 -0.0769734 -0.07695342 -0.07692174 -0.07687776 -0.07682176
 -0.0767542 -0.07667318 -0.0765871 -0.07650472 -0.07643533 -0.07639266 -0.07637246 -0.07637938 -0.07639593 -0.07641665
 -0.07642654 -0.0764184 -0.07639469 -0.07635336 -0.07630865 -0.07626211 -0.07622192 -0.07618889 -0.0761601 -0.07613527
 -0.07610843 -0.07607974 -0.0760475 -0.07601242 -0.07597658 -0.07594014 -0.07590474 -0.07586974 -0.07583508 -0.07579914
 -0.07576053 -0.07571597 -0.07566147 -0.07559697 -0.0755188 -0.07543696 -0.07535374 -0.07528093 -0.07522438 -0.07518037
 -0.07515107 -0.0751182 -0.07507989 -0.07502245 -0.0749445 -0.07485037 -0.0747408 -0.07463189 -0.07452407 -0.07442899
 -0.07434433 -0.0742678 -0.07419433 -0.0741087 -0.07400809 -0.07387768 -0.07372382 -0.07354645 -0.07335851 -0.07317204
 -0.07299454 -0.0728357 -0.07269271 -0.07256829 -0.0724519 -0.07234254 -0.07222482 -0.07209586 -0.07194421 -0.07176735
 -0.07156771 -0.07134512 -0.07110841 -0.0708578 -0.07059559 -0.07032206 -0.07003958 -0.06975 -0.06946322 -0.06917994
 -0.0689083 -0.06864547 -0.06839017 -0.06813869 -0.06788563 -0.06762841 -0.06736285 -0.06708753 -0.06679969 -0.06650145
 -0.06619273 -0.0658771 -0.06555673 -0.06522823 -0.06489196 -0.06454022 -0.06417142 -0.06378748 -0.06338818 -0.06298346
 -0.06257354 -0.06215979 -0.06174162 -0.06131374 -0.06087752 -0.06043566 -0.05999133 -0.05955561 -0.0591292 -0.05872038
 -0.05832406 -0.05793894 -0.05755401 -0.05715965 -0.05674437 -0.0562951 -0.05581593 -0.05530111 -0.05477462 -0.05424275
 -0.05372173 -0.05321854 -0.05272369 -0.05223775 -0.05174227 -0.05123561 -0.05071326 -0.05017538 -0.04963205 -0.04908366
 -0.04853816 -0.04799408 -0.04744884 -0.04690066 -0.04634208 -0.04577438 -0.04519551 -0.04461 -0.04402312 -0.04343871
 -0.04286285 -0.04229591 -0.04174032 -0.04119416 -0.04065796 -0.04012667 -0.03959959 -0.03906937 -0.03853388 -0.03799178
 -0.03744202 -0.03689111 -0.03633975 -0.03578726 -0.03523324 -0.03466184 -0.03407292 -0.03345655 -0.03281697 -0.03216905
 -0.0315172 -0.03088453 -0.0302677 -0.02967238 -0.02909027 -0.02851149 -0.02793139 -0.02734031 -0.02674123 -0.02613241
 -0.02552036 -0.02490835 -0.02429826 -0.02369284 -0.02308509 -0.02247435 -0.02185245 -0.02121732 -0.02057185 -0.01991565
 -0.01926141 -0.0186097 -0.01796936 -0.01733997 -0.0167209 -0.01611099 -0.01550436 -0.01490002 -0.01429176 -0.01367948
 -0.01305987 -0.01243352 -0.01180037 -0.01115976 -0.01051125 -0.009853577 -0.009184451 -0.008507644 -0.0078227 -0.007139449
 -0.006461165 -0.00579364 -0.005139893 -0.004495219 -0.003859914 -0.003224544 -0.00258824 -0.001946708 -0.001299827 -0.0006506157
 4.71214E-07 0.000647483 0.00129064 0.001927592 0.002559658 0.003189758 0.003819016 0.004451537 0.005087014 0.005726672
 0.006370154 0.007017422 0.007668526 0.008324015 0.008982074 0.009642638 0.01030167 0.01095803 0.01160797 0.01225024
 0.01288409 0.01350887 0.01412779 0.01474085 0.01535529 0.01597146 0.01659419 0.01722296 0.01785428 0.01848698
 0.01911292 0.01973212 0.02034025 0.02093845 0.02152726 0.02210733 0.02267971 0.02324514 0.0238044 0.02435913
 0.02491056 0.02546032 0.02600956 0.02655897 0.02710922 0.02765972 0.02821073 0.02875989 0.02930686 0.02984983
 0.03038846 0.03092452 0.03145809 0.03199008 0.03251997 0.03304223 0.0335564 0.03405614 0.03454323 0.03501986
 0.0354888 0.03595798 0.03642744 0.03690161 0.03737717 0.03785245 0.03832396 0.03878797 0.03924447 0.03969165
 0.04013352 0.04057068 0.04100816 0.04144749 0.04189033 0.04233747 0.04278709 0.04323926 0.0436901 0.04413938
 0.04457999 0.0450116 0.0454272 0.04582809 0.0462171 0.04659763 0.04698335 0.04737548 0.04778494 0.04820783
 0.04864334 0.04908616 0.04952941 0.04997208 0.05041049 0.0508476 0.05128411 0.05172221 0.05216368 0.05260577
 0.05304902 0.05348608 0.05391587 0.05433321 0.05473703 0.05513152 0.05551688 0.05590214 0.05628749 0.05667768
 0.05707201 0.05746874 0.05786737 0.05826506 0.05866214 0.0590579 0.05945298 0.05984838 0.06024392 0.06064007
 0.06103563 0.06143006 0.06182172 0.06220907 0.06259314 0.06297326 0.06335371 0.06373537 0.06412169 0.06451397
 0.06490926 0.06530792 0.06569993 0.06608473 0.06645296 0.06680509 0.06714502 0.06747503 0.06781197 0.06815578
 0.06851744 0.06889042 0.06926499 0.0696345 0.06998081 0.07030819 0.07061152 0.07090531 0.07119918 0.07150437
 0.07183143 0.07217888 0.07255031 0.07293431 0.07332902 0.07372389 0.07411578 0.07450689 0.07489615 0.0753004
 0.07572056 0.07617082 0.07665025 0.07714888 0.07766274 0.07816123 0.07864295 0.07908437 0.07949136 0.07986528
 0.08021509 0.08055723 0.08089574 0.0812425 0.08159644 0.08195927 0.08233339 0.0827188 0.08312377 0.08355229
 0.08400614 0.08448948 0.08498581 0.08549446 0.08599143 0.08647341 0.08693396 0.08737226 0.08780812 0.08824307
 0.08870488 0.08919284 0.08971792 0.09027495 0.09085093 0.09143981 0.09201903 0.09258785 0.0931325 0.09366098
 0.09417556 0.09468911 0.09521273 0.09575599 0.09632906 0.09693018 0.09756348 0.09821469 0.0988821 0.09954795
 0.1002082 0.1008567 0.1014912 0.1021244 0.1027568 0.1034076 0.1040773 0.1047733 0.1054944 0.1062348
 0.1069943 0.1077698 0.1085632 0.1093808 0.1102169 0.1110706 0.1119188 0.1127365 0.1134969 0.1141637
 0.1147387 0.1152035 0.1156002 0.1159374 0.1162646 0.1166 0.1169567 0.1173446 0.1177334 0.1181229
 0.118467 0.1187628 0.1189786 0.1191145 0.1191698 0.1191485 0.1190767 0.1189582 0.1188227 0.1186679
 0.1185043 0.1183248 0.1181213 0.1178898 0.1176203 0.117316 0.1169752 0.1166055 0.1162119 0.1157956
 0.1153613 0.1148952 0.1143963 0.1138432 0.1132308 0.1125534 0.111808 0.111016 0.1101783 0.1093272
 0.1084639 0.1076105 0.1067672 0.1059454 0.105145 0.1043722 0.1036249 0.1029009 0.1021967 0.1015032
 0.100822 0.1001495 0.09949248 0.09885695 0.09824342 0.09765698 0.09708557 0.09652605 0.09596619 0.0953999
 0.09483017 0.09425443 0.09369155 0.09314279 0.09262943 0.09215322 0.09172276 0.09133755 0.0909844 0.09066038
 0.09033678 0.09001223 0.08966371 0.0892958 0.08890778 0.08850817 0.08811325 0.0877272 0.08736368 0.0870193
 0.08669613 0.08638879 0.08609415 0.08580978 0.08553411 0.08526537 0.0850035 0.08474366 0.08448505 0.08422363
 0.08395861 0.08369029 0.08341866 0.08314385 0.08286569 0.08258008 0.08228696 0.08198351 0.08167096 0.08135331
 0.08103184 0.08071285 0.08039526 0.0800803 0.07976551 0.07944755 0.07912628 0.07879993 0.07847059 0.07813943
 0.07780694 0.07747432 0.07713863 0.07679936 0.07645357 0.07610005 0.07574071 0.07537535 0.07500884 0.07464159
 0.07427545 0.07391039 0.07354339 0.07317439 0.07280109 0.0724243 0.07204651 0.07166852 0.07129433 0.07092314
 0.0705555 0.07018992 0.06982441 0.06945848 0.06909068 0.06872179 0.06835157 0.06798201 0.06761386 0.06724893
 0.06688809 0.0665315 0.06617932 0.06583139 0.06548721 0.06515168 0.06482493 0.06451582 0.06422448 0.0639497
 0.06368937 0.06342436 0.06315253 0.06285176 0.06252569 0.06217134 0.06179851 0.06142502 0.06105924 0.06072191
 0.06041259 0.06014072 0.05989576 0.05967546 0.05946438 0.05925489 0.0590372 0.05880488 0.05856224 0.05830757
 0.05805561 0.05780825 0.05757435 0.05735519 0.05714535 0.05694456 0.05674556 0.05654967 0.05636533 0.05619589
 0.05606331 0.05596696 0.05592016 0.05591173 0.05592847 0.05595192 0.05594935 0.05591104 0.05580988 0.05566109
 0.05546101 0.05524489 0.05502794 0.05483573 0.05468353 0.05456499 0.05448375 0.05441566 0.05435736 0.05429697
 0.05423265 0.05417112 0.05411268 0.05406433 0.05402557 0.05399396 0.05396912 0.05394739 0.05393016 0.0539202
 0.05391817 0.05392792 0.05394672 0.0539733 0.05400198 0.05402704 0.05404299 0.054044 0.05402821 0.05399252
 0.05393985 0.05387078 0.05378676 0.05368949 0.0535717 0.05343303 0.05326326 0.05306087 0.05283062 0.05257308
 0.05231439 0.05205623 0.05182722 0.05162516 0.05145587 0.0513118 0.05117255 0.05103114 0.05086085 0.05066342
 0.05042737 0.05016393 0.04987953 0.04958636 0.04929617 0.04901233 0.04874082 0.04847629 0.04821851 0.0479613
 0.04770304 0.04744072 0.04717342 0.0469016 0.04662495 0.04634868 0.04607309 0.04580592 0.04554679 0.04529516
 0.04504878 0.04479468 0.04453235 0.04425091 0.04395669 0.04365726 0.04336093 0.04308618 0.04283069 0.04260214
 0.04238642 0.04217567 0.04195913 0.04172679 0.04148341 0.0412272 0.04096954 0.04071347 0.04046241 0.04021785
 0.03997574 0.03973558 0.03949838 0.03926427 0.03904625 0.03884541 0.03867927 0.0385467 0.03845285 0.03839137
 0.03834512 0.03830548 0.03824325 0.03815731 0.0380291 0.03787212 0.03769055 0.03750689 0.03733873 0.03720248
 0.03711262 0.03707097 0.03708252 0.03713964 0.0372413 0.0373819 0.03755997 0.03777632 0.03803074 0.03832668
 0.03866433 0.0390446 0.03946747 0.03993242 0.04044034 0.04099534 0.04159962 0.04226328 0.04298709 0.04377917
 0.04463555 0.04555489 0.04652952 0.04755072 0.04861229 0.04970631 0.05083112 0.05198395 0.0531643 0.0543726
 0.05560358 0.0568573 0.05812299 0.05939957 0.0606753 0.06194937 0.06320935 0.06445452 0.06566208 0.06682922
 0.06791526 0.0689154 0.06978012 0.07050725 0.0710611 0.0714462 0.07165341 0.0716932 0.07157516 0.07131681
 0.07093506 0.07046248 0.06992081 0.06936168 0.06881198 0.06832791 0.0679349 0.06766994 0.06754838 0.06757951
 0.06776842 0.06810614 0.06859321 0.06921028 0.06995636 0.07079708 0.07172914 0.07270146 0.0737092 0.07469753
 0.07566244 0.07656102 0.07739019 0.07812255 0.07875403 0.07926743 0.07965613 0.07990848 0.08001258 0.07995903
 0.07972772 0.07930771 0.07867689 0.07782294 0.07674009 0.07541926 0.07388894 0.07214683 0.07025724 0.06822326
 0.06613132 0.0639864 0.06187709 0.0598072 0.05784728 0.0559972 0.05429384 0.05273144 0.05131047 0.05002092
 0.04884022 0.0477573 0.04674448 0.04579211 0.04487865 0.04399754 0.04313576 0.04229334 0.04146472 0.04065989
 0.03987947 0.03913996 0.03844544 0.03780844 0.03723257 0.03671836 0.03626673 0.0358706 0.03552959 0.0352396
 0.03500094 0.0348184 0.034693 0.03463424 0.03464154 0.0347204 0.03486366 0.03506107 0.03529411 0.03553105
 0.03574467 0.03589104 0.03594885 0.03588244 0.03569326 0.03536598 0.03493126 0.03439088 0.03379778 0.03316125
 0.03254354 0.03195447 0.03145088 0.03103995 0.0307577 0.0306072 0.03059057 0.03070494 0.03090508 0.03117848
 0.03142407 0.03162004 0.03162771 0.03143097 0.03090981 0.03008034 0.02890139 0.02743481 0.02572706 0.02386806
 0.02194362 0.02003254 0.01820595 0.01649909 0.01494709 0.01353971 0.01228414 0.01114813 0.01012807 0.009193073
 0.008339464 0.007546196 0.006811668 0.006123227 0.005480409 0.004875899 0.004309233 0.003774051 0.003268953 0.002785137
 0.00232083 0.001866695 0.001422252 0.0009820227 0.0005471726 0.0001166807 -0.0003072812 -0.0007235033 -0.001129249 -0.001522616
 -0.00190163 -0.002264151 -0.002613029 -0.002947527 -0.003276068 -0.003599937 -0.003926176 -0.004256237 -0.004588767 -0.004923932
 -0.005253469 -0.005577047 -0.005888501 -0.006188391 -0.006478001 -0.006758238 -0.007034031 -0.007304823 -0.007572175 -0.007833824
 -0.008085804 -0.008327719 -0.008555847 -0.008775263 -0.008987866 -0.009202158 -0.009424439 -0.009658132 -0.009907902 -0.01016739
 -0.01043709 -0.01070437 -0.01096706 -0.01121547 -0.01144775 -0.01166292 -0.01186052 -0.01204928 -0.0122298 -0.01241436
 -0.01260292 -0.01280149 -0.01300829 -0.01321888 -0.01343152 -0.01363848 -0.01384051 -0.01403484 -0.01422438 -0.01441199
 -0.01459954 -0.01479022 -0.01498331 -0.01517968 -0.01537695 -0.01557445 -0.0157698 -0.01596216 -0.01615004 -0.01633297
 -0.01651055 -0.01668261 -0.01684961 -0.01701152 -0.01717077 -0.01732757 -0.01748665 -0.01764813 -0.01781557 -0.017988
 -0.01816344 -0.01834016 -0.01851166 -0.01867813 -0.0188359 -0.01898831 -0.0191379 -0.01928877 -0.01944636 -0.01961086
 -0.01978491 -0.01996445 -0.02014891 -0.02033272 -0.0205139 -0.02068988 -0.02085932 -0.02102419 -0.0211842 -0.02134477
 -0.02150622 -0.02167424 -0.02184902 -0.0220323 -0.02222362 -0.02241984 -0.02262025 -0.02281998 -0.0230188 -0.0232135
 -0.02340424 -0.02358995 -0.02377063 -0.02394587 -0.02411563 -0.02427956 -0.02443826 -0.02459192 -0.02474144 -0.02488733
 -0.02502995 -0.02516945 -0.02530628 -0.02544043 -0.02557301 -0.0257041 -0.02583505 -0.02596595 -0.02609786 -0.02623083
 -0.02636583 -0.02650284 -0.02664226 -0.02678382 -0.02692668 -0.02707019 -0.02721203 -0.02735153 -0.02748607 -0.02761586
 -0.02773958 -0.02785914 -0.02797542 -0.0280915 -0.02820983 -0.02833188 -0.02845956 -0.02859086 -0.02872591 -0.02886101
 -0.02899527 -0.02912719 -0.02925625 -0.02938378 -0.02950982 -0.02963604 -0.0297625 -0.0298893 -0.03001644 -0.0301438
 -0.0302713 -0.03039869 -0.0305257 -0.03065139 -0.03077542 -0.03089638 -0.03101478 -0.03113049 -0.03124481 -0.03135915
 -0.03147402 -0.03159068 -0.03170751 -0.03182421 -0.03193884 -0.03205025 -0.0321593 -0.03226565 -0.03237225 -0.03247952
 -0.03258916 -0.03270144 -0.03281534 -0.03293082 -0.03304702 -0.03316412 -0.03328369 -0.03340576 -0.03353166 -0.03366039
 -0.03378972 -0.03391815 -0.03404089 -0.03415835 -0.03426829 -0.03437384 -0.03447708 -0.0345815 -0.0346908 -0.03480503
 -0.03492605 -0.03504965 -0.03517509 -0.03529794 -0.03541684 -0.03553057 -0.03563849 -0.03574295 -0.03584403 -0.03594498
 -0.03604597 -0.03614883 -0.03625356 -0.03636069 -0.0364701 -0.03658138 -0.03669435 -0.03680818 -0.03692274 -0.03703722
 -0.03715182 -0.03726639 -0.03738143 -0.03749759 -0.03761461 -0.03773283 -0.03785078 -0.03796797 -0.03808276 -0.03819425
 -0.03830256 -0.03840734 -0.03851018 -0.03861117 -0.0387121 -0.03881311 -0.03891608 -0.0390211 -0.03912912 -0.03923995
 -0.03935191 -0.03946452 -0.03957414 -0.0396809 -0.03978288 -0.03988139 -0.03997829 -0.04007488 -0.04017441 -0.0402762
 -0.04038113 -0.04048706 -0.04059263 -0.04069659 -0.04079745 -0.04089668 -0.04099423 -0.04109245 -0.04119207 -0.04129358
 -0.04139744 -0.04150125 -0.04160491 -0.04170505 -0.04180151 -0.04189329 -0.04198058 -0.04206528 -0.04214775 -0.04223099
 -0.0423151 -0.04240211 -0.04249159 -0.04258367 -0.04267748 -0.04277183 -0.04286579 -0.04295778 -0.04304766 -0.04313454
 -0.04321947 -0.0433027 -0.04338533 -0.04346801 -0.04355042 -0.04363272 -0.04371387 -0.04379361 -0.04387229 -0.04394984
 -0.04402833 -0.0441079 -0.04418996 -0.04427443 -0.04436074 -0.04444873 -0.04453705 -0.04462601 -0.0447158 -0.04480693
 -0.04490091 -0.04499747 -0.04509711 -0.04519879 -0.0453016 -0.04540462 -0.04550646 -0.04560793 -0.04570884 -0.04581103
 -0.04591526 -0.04602234 -0.04613291 -0.04624541 -0.04635992 -0.04647331 -0.04658532 -0.04669326 -0.04679698 -0.04689626
 -0.04699131 -0.04708463 -0.04717655 -0.04727044 -0.04736611 -0.04746479 -0.04756586 -0.04766846 -0.04777215 -0.04787582
 -0.04797933 -0.04808226 -0.0481841 -0.04828436 -0.04838247 -0.0484778 -0.04857087 -0.04866149 -0.04875121 -0.04884041
 -0.04893001 -0.04902028 -0.04911105 -0.04920227 -0.04929443 -0.04938754 -0.0494833 -0.04958178 -0.04968445 -0.04979088
 -0.04989961 -0.05000962 -0.05011634 -0.0502192 -0.05031403 -0.05040186 -0.05048212 -0.05055712 -0.05062943 -0.05070056
 -0.05077277 -0.05084595 -0.05092064 -0.05099634 -0.05107287 -0.05115031 -0.05122864 -0.05130789 -0.05138811 -0.05146883
 -0.05155002 -0.051631 -0.05171175 -0.05179096 -0.05186858 -0.05194328 -0.0520152 -0.05208454 -0.05215193 -0.05221996
 -0.05228906 -0.05236189 -0.05243763 -0.05251639 -0.0525966 -0.0526763 -0.05275485 -0.0528307 -0.05290494 -0.05297762
 -0.05305023 -0.05312365 -0.05319767 -0.05327272 -0.05334673 -0.05341947 -0.05348901 -0.05355502 -0.05361738 -0.05367604
 -0.05373273 -0.05378755 -0.05384261 -0.05389795 -0.05395495 -0.05401354 -0.05407421 -0.05413698 -0.05420227 -0.05426992
 -0.05434011 -0.05441196 -0.05448467 -0.05455703 -0.05462756 -0.05469623 -0.05476248 -0.05482693 -0.05488992 -0.05495098
 -0.05501019 -0.05506623 -0.05511861 -0.05516836 -0.05521536 -0.05526301 -0.05531155 -0.05536303 -0.05541742 -0.05547356
 -0.05553126 -0.0555885 -0.05564545 -0.05570181 -0.05575793 -0.05581453 -0.05587211 -0.05593167 -0.055994 -0.05606046
 -0.05613153 -0.05620836 -0.05629019 -0.05637715 -0.05646762 -0.05656074 -0.05665635 -0.0567538 -0.05685559 -0.05696187
 -0.05707609 -0.05719883 -0.05733041 -0.05747096 -0.05761646 -0.05776655 -0.05791492 -0.05806103 -0.0581982 -0.05832564
 -0.05843648 -0.0585303 -0.05860199 -0.05865278 -0.05868278 -0.05869269 -0.05868467 -0.05865548 -0.05860193 -0.05852508
 -0.05841967 -0.05830546 -0.05818659 -0.05808967 -0.05802435 -0.05800037 -0.05802324 -0.05808141 -0.05817544 -0.05828169
 -0.05839873 -0.05850363 -0.05859587 -0.0586684 -0.05872309 -0.05877123 -0.05881391 -0.05886255 -0.05891515 -0.05897236
 -0.05903138 -0.05908701 -0.05913804 -0.05918041 -0.05921488 -0.05924065 -0.05925902 -0.05927059 -0.05927617 -0.05927581
 -0.05927176 -0.05926381 -0.05925809 -0.05925555 -0.05926171 -0.05927781 -0.05930236 -0.05933549 -0.05937042 -0.05940691
 -0.05944167 -0.05947524 -0.05951077 -0.0595487 -0.05959312 -0.05964288 -0.05969715 -0.05975381 -0.05980808 -0.05985947
 -0.05990454 -0.05994594 -0.05998426 -0.06002385 -0.06006777 -0.06011835 -0.06017793 -0.06024497 -0.06032002 -0.06039887
 -0.060481 -0.06056208 -0.06064146 -0.06071681 -0.06078784 -0.06085543 -0.06091972 -0.06098429 -0.06104934 -0.06111829
 -0.06119086 -0.06126785 -0.06134851 -0.06143096 -0.06151488 -0.06159863 -0.06168263 -0.0617668 -0.0618516 -0.06193787
 -0.06202452 -0.06211157 -0.06219628 -0.06227728 -0.06235342 -0.0624235 -0.06248995 -0.06255285 -0.06261559 -0.06267869
 -0.06274335 -0.06280978 -0.06287638 -0.06294309 -0.06300846 -0.06307246 -0.06313424 -0.0631939 -0.06325139 -0.063307
 -0.06336145 -0.06341519 -0.06346962 -0.06352478 -0.06358144 -0.06363917 -0.06369799 -0.06375683 -0.0638151 -0.06387161
 -0.06392562 -0.06397674 -0.06402439 -0.06407008 -0.06411385 -0.06415799 -0.06420285 -0.06424951 -0.06429809 -0.06434852
 -0.06440079 -0.06445494 -0.0645109 -0.0645683 -0.06462689 -0.06468529 -0.06474327 -0.0647994 -0.06485376 -0.06490581
 -0.06495575 -0.06500357 -0.06504973 -0.06509441 -0.06513885 -0.06518397 -0.06523051 -0.06527958 -0.06532931 -0.06537972
 -0.06542744 -0.06547157 -0.06551127 -0.0655459 -0.06557916 -0.06561122 -0.06564676 -0.06568596 -0.06572974 -0.06577768
 -0.06582589 -0.06587391 -0.06591731 -0.06595664 -0.06599111 -0.06602217 -0.06605249 -0.06608298 -0.0661163 -0.06615238
 -0.06619227 -0.06623511 -0.06628092 -0.06632792 -0.06637565 -0.06642146 -0.06646445 -0.06650259 -0.06653494 -0.06656244
 -0.06658465 -0.06660634 -0.06662776 -0.06665401 -0.06668529 -0.06672221 -0.0667643 -0.06680653 -0.06684855 -0.06688536
 -0.06691807 -0.06694732 -0.06697503 -0.06700608 -0.06704042 -0.06708077 -0.0671244 -0.06716966 -0.06721368 -0.06725337
 -0.06728892 -0.06731909 -0.06734675 -0.06737254 -0.06739905 -0.0674272 -0.06745704 -0.06748886 -0.06752115 -0.06755381
 -0.06758614 -0.06761812 -0.06765091 -0.06768461 -0.06772088 -0.06775957 -0.06780105 -0.06784483 -0.06788965 -0.06793487
 -0.06797843 -0.06802006 -0.06805815 -0.06809365 -0.06812672 -0.06815906 -0.06819199 -0.06822661 -0.06826416 -0.06830358
 -0.06834503 -0.06838628 -0.06842688 -0.06846529 -0.0685011 -0.06853454 -0.06856549 -0.06859576 -0.06862545 -0.06865712
 -0.06869084 -0.06872866 -0.06877036 -0.06881618 -0.06886545 -0.06891616 -0.06896763 -0.06901728 -0.06906478 -0.06910845
 -0.0691486 -0.06918474 -0.06921786 -0.06924825 -0.06927774 -0.06930701 -0.06933863 -0.06937387 -0.06941319 -0.06945742
 -0.0695036 -0.06955154 -0.06959748 -0.06964089 -0.06968179 -0.06972017 -0.06975976 -0.06980067 -0.06984574 -0.06989444
 -0.06994551 -0.0699982 -0.07004927 -0.07009848 -0.07014353 -0.07018485 -0.07022209 -0.07025594 -0.07028683 -0.07031602
 -0.07034433 -0.0703736 -0.07040482 -0.07043994 -0.07048007 -0.07052542 -0.07057666 -0.07063116 -0.07068884 -0.07074592
 -0.07080203 -0.07085446 -0.07090303 -0.07094771 -0.07098866 -0.07102771 -0.07106517 -0.0711038 -0.07114388 -0.07118792
 -0.07123562 -0.07128782 -0.07134333 -0.07140072 -0.0714586 -0.07151458 -0.07156863 -0.07161964 -0.07166906 -0.07171733
 -0.07176568 -0.07181507 -0.07186431 -0.07191347 -0.07196046 -0.07200477 -0.07204652 -0.07208548 -0.0721247 -0.07216434
 -0.07220782 -0.07225514 -0.07230718 -0.0723634 -0.07242108 -0.07247957 -0.07253492 -0.07258727 -0.07263463 -0.07267846
 -0.07272027 -0.07276143 -0.07280446 -0.07284902 -0.07289585 -0.07294384 -0.07299224 -0.07304157 -0.07309172 -0.07314407
 -0.0731993 -0.07325644 -0.07331579 -0.07337364 -0.07342961 -0.07348147 -0.07352907 -0.07357437 -0.07361757 -0.07366222
 -0.07370819 -0.07375662 -0.07380684 -0.07385696 -0.07390652 -0.0739533 -0.07399749 -0.07403823 -0.07407632 -0.07411224
 -0.07414708 -0.07418185 -0.07421729 -0.07425414 -0.0742925 -0.07433269 -0.07437415 -0.07441685 -0.0744599 -0.07450321
 -0.07454558 -0.07458692 -0.07462604 -0.07466285 -0.07469676 -0.0747278 -0.07475661 -0.07478342 -0.07481012 -0.07483684
 -0.07486509 -0.07489464 -0.07492578 -0.07495799 -0.0749905 -0.07502297 -0.07505465 -0.07508548 -0.07511528 -0.07514362
 -0.07517033 -0.07519467 -0.0752162 -0.07523496 -0.07525069 -0.07526465 -0.07527688 -0.07528955 -0.07530292 -0.07531853
 -0.07533651 -0.07535678 -0.07537924 -0.07540197 -0.07542482 -0.07544571 -0.07546492 -0.07548228 -0.07549836 -0.07551491
 -0.07553153 -0.07554867 -0.07556496 -0.07557869 -0.07558938 -0.0755956 -0.07559884 -0.07559934 -0.07559919 -0.07559931
 -0.07560101 -0.07560488 -0.0756112 -0.07562026 -0.07563091 -0.07564317 -0.07565472 -0.07566541 -0.07567483 -0.07568317
 -0.07569347 -0.07570584 -0.07572289 -0.07574393 -0.07576771 -0.07579312 -0.07581635 -0.07583729 -0.07585365 -0.07586683
 -0.07587755 -0.07588731 -0.07589803 -0.07590946 -0.0759226 -0.07593475 -0.07594498 -0.07595146 -0.075953 -0.07595126
 -0.0759461 -0.07594097 -0.07593636 -0.07593339 -0.07593218 -0.07593223 -0.07593355 -0.07593615 -0.07593999 -0.07594498
 -0.07595065 -0.07595494 -0.07595735 -0.0759552 -0.07594894 -0.07593783 -0.07592332 -0.07590686 -0.07588991 -0.07587447
 -0.07586078 -0.07584985 -0.07584041 -0.07583211 -0.07582419 -0.07581622 -0.07580855 -0.07580128 -0.07579409 -0.07578711
 -0.07577848 -0.07576808 -0.07575472 -0.07573843 -0.07572023 -0.07570031 -0.07568052 -0.07566115 -0.07564422 -0.07563005
 -0.075621 -0.07561637 -0.0756166 -0.07561932 -0.07562172 -0.07562172 -0.07561597 -0.07560501 -0.07558773 -0.0755668
 -0.07554296 -0.07551868 -0.07549498 -0.0754726 -0.07545213 -0.07543179 -0.07541158 -0.0753887 -0.07536291 -0.07533407
 -0.0753023 -0.07527094 -0.07524014 -0.07521261 -0.07518778 -0.07516483 -0.07514276 -0.07511846 -0.07509101 -0.07505694
 -0.07501659 -0.07496829 -0.07491466 -0.07485738 -0.07479903 -0.07474224 -0.07468671 -0.07463296 -0.07458007 -0.07452748
 -0.07447654 -0.07442744 -0.0743813 -0.07433859 -0.07429674 -0.07425563 -0.07421224 -0.07416648 -0.07411792 -0.07406656
 -0.07401224 -0.07395478 -0.07389308 -0.07382758 -0.07375883 -0.07368775 -0.07361653 -0.07354556 -0.0734764 -0.07340872
 -0.07334294 -0.07327809 -0.07321399 -0.07314871 -0.07308125 -0.07301056 -0.07293564 -0.07285833 -0.07277872 -0.07269909
 -0.07261989 -0.0725411 -0.07246279 -0.0723848 -0.07230717 -0.07223031 -0.07215405 -0.07207712 -0.07199898 -0.07191628
 -0.07182897 -0.07173507 -0.07163495 -0.07152823 -0.07141567 -0.07129802 -0.07117633 -0.07105211 -0.0709253 -0.07079677
 -0.07066456 -0.07052757 -0.0703862 -0.07023943 -0.0700925 -0.06994636 -0.06980466 -0.06966874 -0.06953366 -0.06939942
 -0.06925523 -0.06910054 -0.06892668 -0.06873418 -0.06852383 -0.06829755 -0.06806546 -0.06782822 -0.06759446 -0.06736039
 -0.06712323 -0.06687697 -0.06661121 -0.06632365 -0.0660069 -0.06566489 -0.06529754 -0.06491048 -0.06450673 -0.06408839
 -0.06365791 -0.06321024 -0.06274551 -0.06225431 -0.06173466 -0.06118641 -0.06060861 -0.06001838 -0.05941659 -0.05882104
 -0.05823144 -0.05765079 -0.0570788 -0.05651488 -0.05596068 -0.05542279 -0.05489909 -0.05439074 -0.05388896 -0.05338084
 -0.05286159 -0.05231841 -0.05175978 -0.05118766 -0.05060985 -0.05003367 -0.04945114 -0.04886247 -0.04825418 -0.04762261
 -0.04696371 -0.04627633 -0.04556087 -0.04481808 -0.04403346 -0.04320597 -0.04230256 -0.0413229 -0.04024866 -0.03908629
 -0.03786117 -0.03657683 -0.03526378 -0.0339081 -0.0324972 -0.03101073 -0.02941154 -0.02768987 -0.02582425 -0.02380407
 -0.02162588 -0.01924733 -0.01665603 -0.01378625 -0.01060764 -0.00710474 -0.003252566 0.0008530656 0.005212163 0.009660324
 0.01418484 0.01864496 0.02303347 0.02727986 0.03138883 0.03538051 0.03927455 0.04318465 0.04712885 0.05124396
 0.05549557 0.05989414 0.06435162 0.06872208 0.07298738 0.07704374 0.08099102 0.08486365 0.08876561 0.09276937
 0.09689198 0.1011597 0.1055446 0.1100411 0.1146487 0.1193689 0.1241878 0.1291078 0.1340629 0.1390499
 0.1440124 0.1489451 0.1537843 0.1585049 0.1629381 0.1670532 0.1706474 0.1737301 0.1762189 0.1781451
 0.179522 0.1803753 0.1807209 0.1806303 0.1801396 0.1793749 0.1784067 0.177326 0.176183 0.1750078
 0.1738191 0.1726106 0.1713886 0.1701063 0.1687639 0.1672689 0.1656162 0.1637035 0.1615307 0.1590635
 0.1563185 0.153372 0.1502401 0.1470236 0.1437173 0.1403571 0.1369372 0.1334535 0.1299319 0.1263865
 0.1228804 0.1194606 0.1161894 0.113116 0.1102589 0.1076392 0.1052427 0.1030687 0.101109 0.09936117
 0.0978285 0.09651185 0.09540214 0.09449891 0.09378057 0.09324645 0.09288279 0.09269021 0.09266641 0.09281024
 0.09311762 0.09358401 0.09419756 0.0949524 0.09583429 0.0968381 0.09795317 0.09917514 0.1004976 0.1019174
 0.1034313 0.1050381 0.106737 0.1085258 0.1104048 0.1123668 0.1144116 0.1165292 0.1187191 0.120968
 0.1232753 0.1256169 0.1279914 0.1303737 0.1327658 0.1351695 0.1375869 0.1400346 0.1424932 0.1449314
 0.147312 0.1495525 0.1516485 0.1535543 0.1553033 0.1569126 0.1583919 0.1597588 0.1609868 0.1620661
 0.1629923 0.1637558 0.1643965 0.1649182 0.1653627 0.1657369 0.1660409 0.1662757 0.166393 0.1663895
 0.166206 0.1658404 0.1652516 0.1644367 0.1633638 0.1620294 0.1604074 0.1585004 0.1563021 0.1538136
 0.1510382 0.147963 0.1445668 0.140879 0.136877 0.1327125 0.1284272 0.1241802 0.120037 0.1160006
 0.1120881 0.1082278 0.1044103 0.1006314 0.09688964 0.09323981 0.08968344 0.08625055 0.0829384 0.0797408
 0.07665911 0.07369601 0.07085353 0.06814624 0.06555544 0.063067 0.06063193 0.05819056 0.0556917 0.05306588
 0.05030736 0.04738316 0.04434063 0.04118901 0.03797421 0.03471056 0.03142126 0.02810274 0.02483674 0.02162434
 0.01862054 0.01583623 0.01332682 0.0110865 0.009007417 0.007077016 0.005153439 0.003240314 0.001271768 -0.0007305654
 -0.00274578 -0.004751524 -0.006699626 -0.00857384 -0.01033921 -0.01197491 -0.01345494 -0.01475638 -0.01585778 -0.01675053
 -0.01742437 -0.01788589 -0.0181349 -0.01817842 -0.01801873 -0.01765325 -0.0170831 -0.0162922 -0.01527974 -0.01402272
 -0.01252253 -0.01079775 -0.008865719 -0.006853609 -0.004790916 -0.002870684 -0.001100138 0.000395117 0.001642228 0.002626346
 0.003392699 0.003986412 0.004459451 0.004866873 0.005259241 0.005682247 0.006162926 0.006733297 0.007358863 0.008045644
 0.008711654 0.009339831 0.009893329 0.01036088 0.01078227 0.01115883 0.01154678 0.01194758 0.01238325 0.0128506
 0.01333555 0.01383537 0.01432937 0.01482106 0.0153072 0.01579771 0.01630826 0.01684982 0.01744237 0.01809408
 0.01881561 0.01962212 0.02051891 0.0215409 0.02270024 0.02403606 0.02556473 0.02729521 0.02923548 0.03136056
 0.03366828 0.03614043 0.03877511 0.04158099 0.04455733 0.04769187 0.05097314 0.05430995 0.05768169 0.0609505
 0.06410418 0.06704143 0.06975273 0.07218298 0.07430187 0.0760553 0.07739826 0.07826926 0.07864697 0.07849158
 0.07782937 0.07665291 0.07502572 0.07295744 0.07052976 0.06775415 0.06472088 0.06143793 0.05800728 0.05443522
 0.05083812 0.04722174 0.0436869 0.04023328 0.0369047 0.03369413 0.03059269 0.02759669 0.02468863 0.02187416
 0.01915541 0.01653992 0.01404052 0.011657 0.00939554 0.00724843 0.005214109 0.00328073 0.001444374 -0.0003096179
 -0.001985391 -0.003596997 -0.005147106 -0.006648911 -0.008103414 -0.00952875 -0.01092618 -0.01231404 -0.01369246 -0.01505527
 -0.01639726 -0.01767215 -0.01887277 -0.01993864 -0.02087253 -0.02164636 -0.02227769 -0.0227853 -0.02319131 -0.02353426
 -0.02382781 -0.02410088 -0.02435198 -0.02459092 -0.02480443 -0.02498912 -0.02513351 -0.02523127 -0.02528609 -0.02529525
 -0.02527856 -0.02523683 -0.02519802 -0.02516397 -0.0251626 -0.02519523 -0.02528156 -0.0254212 -0.02561948 -0.02587421
 -0.0261787 -0.0265298 -0.02691587 -0.02733203 -0.02776478 -0.02820588 -0.02864005 -0.02905615 -0.02943929 -0.02977822
 -0.03006079 -0.0302817 -0.03043343 -0.03052294 -0.0305482 -0.03052849 -0.03046575 -0.03038441 -0.030287 -0.03019821
 -0.03011989 -0.03007525 -0.03006542 -0.03010629 -0.03019723 -0.03033958 -0.03053065 -0.03075874 -0.03102067 -0.03130113
 -0.03159731 -0.03189639 -0.03219625 -0.03248809 -0.03277205 -0.03304409 -0.03330839 -0.0335657 -0.03382276 -0.03408263
 -0.03435104 -0.0346312 -0.03492279 -0.03522724 -0.03553748 -0.03585324 -0.03616454 -0.03647063 -0.03676325 -0.03704197
 -0.03730035 -0.03753807 -0.03774916 -0.03793367 -0.03808822 -0.03821391 -0.03831219 -0.03838468 -0.03843552 -0.03846584
 -0.03847927 -0.03847559 -0.03845657 -0.03841957 -0.03836397 -0.03828525 -0.03818122 -0.03804831 -0.03788442 -0.03768987
 -0.03746376 -0.03721045 -0.03692994 -0.03662966 -0.03631004 -0.03597999 -0.03564002 -0.03529868 -0.03495652 -0.03462186
 -0.03429572 -0.03398766 -0.03369854 -0.03343653 -0.03320101 -0.03299484 -0.03281654 -0.03266465 -0.03253929 -0.03243947
 -0.03236734 -0.03232367 -0.03231174 -0.03233302 -0.03239093 -0.03248695 -0.03262305 -0.03280066 -0.03301657 -0.03327115
 -0.03355633 -0.03387155 -0.034209 -0.03456827 -0.03494551 -0.03534078 -0.03575332 -0.03618323 -0.03663075 -0.03709581
 -0.03757836 -0.03807816 -0.03859479 -0.03912769 -0.03967626 -0.04023879 -0.04081431 -0.04139816 -0.04198787 -0.04257599
 -0.04315869 -0.043729 -0.04428352 -0.0448192 -0.04533451 -0.04582961 -0.04630422 -0.04675949 -0.04719536 -0.04761456
 -0.04801724 -0.04840825 -0.04878772 -0.04915915 -0.0495218 -0.04987362 -0.05021324 -0.0505346 -0.05083764 -0.05111858
 -0.05137955 -0.05162229 -0.05184836 -0.05206136 -0.05225835 -0.05243981 -0.05259778 -0.05272919 -0.05282505 -0.05288199
 -0.05289262 -0.05285523 -0.05276185 -0.05261153 -0.05239499 -0.05211109 -0.05175535 -0.05132748 -0.05083752 -0.05028761
 -0.04970659 -0.04909864 -0.0485027 -0.0479214 -0.0473863 -0.04689373 -0.04645341 -0.0460541 -0.04568369 -0.04532846
 -0.04496839 -0.04459491 -0.04419361 -0.04376578 -0.04330659 -0.04282589 -0.04232478 -0.04181718 -0.04130587 -0.0408045
 -0.04031539 -0.03984867 -0.03940574 -0.03898989 -0.03860139 -0.03823605 -0.03789308 -0.0375613 -0.03723906 -0.03691137
 -0.03657611 -0.03621795 -0.03583525 -0.03541616 -0.03496089 -0.03446377 -0.03392792 -0.0333535 -0.0327471 -0.03211271
 -0.03145931 -0.03079172 -0.03011963 -0.0294468 -0.02878292 -0.02813095 -0.02749765 -0.02688554 -0.02629118 -0.02571551
 -0.02514089 -0.0245664 -0.02397011 -0.02335165 -0.02270113 -0.02202068 -0.02131814 -0.02059662 -0.01987164 -0.01914522
 -0.01842971 -0.01772646 -0.01704265 -0.01638029 -0.01574412 -0.01513625 -0.01456011 -0.01401608 -0.0135061 -0.01302693
 -0.0125787 -0.01215474 -0.01175403 -0.01136838 -0.0109967 -0.0106306 -0.0102694 -0.009903848 -0.009533395 -0.009147854
 -0.008746635 -0.008319386 -0.007865753 -0.007377803 -0.006856371 -0.006299278 -0.005709889 -0.005093984 -0.004457983 -0.003813577
 -0.003170576 -0.002542927 -0.001944168 -0.001387867 -0.0008894179 -0.0004606121 -0.0001121808 0.0001476374 0.0003200081 0.0004012151
 0.0004073032 0.0003382897 0.0002219714 6.027758E-05 -0.0001151623 -0.0003023618 -0.0004746937 -0.000631188 -0.000754491 -0.0008445088
 -0.0008918072 -0.0008968979 -0.0008562707 -0.0007712794 -0.0006432601 -0.0004740867 -0.0002672584 -2.509271E-05 0.0002493887 0.0005510931
 0.0008770144 0.00121615 0.001563739 0.001903619 0.002230161 0.002525248 0.002783873 0.002990108 0.003140065 0.003226346
 0.003246634 0.003209661 0.003115491 0.002988947 0.00283176 0.002675176 0.002520749 0.00239466 0.002296772 0.002241452
 0.002225837 0.002250785 0.002311144 0.00239831 0.002507954 0.002630748 0.00276587 0.00290956 0.003061984 0.003223881
 0.003389626 0.003559411 0.003719277 0.003866656 0.003985546 0.004072728 0.004117708 0.004118782 0.004071807 0.003976381
 0.00383115 0.003636044 0.003389928 0.003092748 0.0027437 0.002342506 0.001887557 0.001378658 0.0008137997 0.0001945572
 -0.0004783845 -0.001200108 -0.001965553 -0.002766549 -0.003595534 -0.004442704 -0.005300779 -0.00616125 -0.007018682 -0.007869533
 -0.008711068 -0.009545706 -0.01037295 -0.01119869 -0.01202326 -0.01285392 -0.01369107 -0.0145442 -0.01541388 -0.01631024
 -0.01723353 -0.01819063 -0.01918067 -0.02020431 -0.0212591 -0.02233959 -0.0234418 -0.02455662 -0.02567903 -0.02679933
 -0.02791295 -0.02901277 -0.03009531 -0.03115682 -0.03219435 -0.03320635 -0.0341889 -0.03514095 -0.03605795 -0.03693889
 -0.0377806 -0.03858228 -0.03934501 -0.04006868 -0.04075832 -0.04141422 -0.04204201 -0.04264193 -0.04321822 -0.04377133
 -0.04430546 -0.04482086 -0.04532075 -0.04580432 -0.04627185 -0.04672163 -0.04715141 -0.04756008 -0.04794584 -0.04830819
 -0.04864623 -0.04896007 -0.04924956 -0.04951492 -0.04975652 -0.04997281 -0.0501643 -0.05032489 -0.05045413 -0.05054519
 -0.05059738 -0.05061065 -0.05058529 -0.05052988 -0.0504457 -0.05034634 -0.0502341 -0.05012548 -0.05002411 -0.04994858
 -0.04990189 -0.04989954 -0.04994035 -0.05003088 -0.05016365 -0.05033617 -0.05053502 -0.05075282 -0.05097319 -0.05118816
 -0.05138342 -0.05155316 -0.05168879 -0.05178743 -0.05184627 -0.05186446 -0.05184231 -0.05177965 -0.05167926 -0.05154143
 -0.05137232 -0.05117268 -0.05095166 -0.05070994 -0.05045554 -0.05018874 -0.04991411 -0.04963244 -0.04934663 -0.04905935
 -0.04877507 -0.04849718 -0.04823092 -0.047977 -0.0477385 -0.04751143 -0.04729563 -0.04708411 -0.04687482 -0.04666217
 -0.04644383 -0.04622171 -0.04599484 -0.04577449 -0.04556134 -0.04536686 -0.04519138 -0.04503492 -0.04489645 -0.04476615
 -0.04464372 -0.04452228 -0.04440314 -0.04428744 -0.04417481 -0.04406632 -0.04395776 -0.04384445 -0.04372055 -0.04357873
 -0.0434148 -0.04322333 -0.04300368 -0.04275327 -0.04247633 -0.04217245 -0.04185095 -0.04151317 -0.04116908 -0.04082038
 -0.04047149 -0.04012309 -0.03977365 -0.03942311 -0.03907051 -0.03871633 -0.03836486 -0.03801688 -0.03767888 -0.03735042
 -0.03703402 -0.03672774 -0.0364286 -0.03613525 -0.03584345 -0.03555552 -0.03527063 -0.03499612 -0.03473613 -0.03449821
 -0.03428813 -0.0341055 -0.03395281 -0.03382157 -0.03371073 -0.03361183 -0.03352355 -0.03344109 -0.03336421 -0.03328475
 -0.03320215 -0.03310219 -0.03298449 -0.03283929 -0.03266801 -0.03247234 -0.03225474 -0.0320239 -0.03178145 -0.03153506
 -0.03128542 -0.03103707 -0.03078942 -0.03054394 -0.03029856 -0.03005256 -0.02980322 -0.02954924 -0.0292882 -0.02901882
 -0.02874061 -0.02845233 -0.02815941 -0.02786179 -0.02756996 -0.02728499 -0.02701202 -0.02675118 -0.02649347 -0.02623757
 -0.02596607 -0.02567838 -0.02536194 -0.02501804 -0.02464408 -0.02424183 -0.02381385 -0.02336151 -0.02288712 -0.022394
 -0.02188427 -0.02136734 -0.02084882 -0.02034157 -0.01985385 -0.01939175 -0.01896059 -0.01855543 -0.01817653 -0.01781637
 -0.01747355 -0.01714586 -0.0168329 -0.01653459 -0.01625092 -0.01598044 -0.01572313 -0.01547858 -0.01524651 -0.01502582
 -0.01481492 -0.01460813 -0.0144037 -0.01419448 -0.01398091 -0.0137604 -0.01353437 -0.01330399 -0.01306859 -0.0128285
 -0.01258137 -0.01232626 -0.01206078 -0.01178353 -0.01149476 -0.01119328 -0.01088541 -0.01057079 -0.01026347 -0.009964153
 -0.009691325 -0.009446014 -0.009245581 -0.009090072 -0.008986543 -0.008931756 -0.008912669 -0.008922871 -0.008933453 -0.008940114
 -0.008918097 -0.008867913 -0.008780031 -0.008655039 -0.008490572 -0.00828583 -0.008038084 -0.007751748 -0.007425951 -0.007073776
 -0.006698248 -0.00631505 -0.005928374 -0.00554883 -0.005179564 -0.004819388 -0.004469323 -0.00411477 -0.003754972 -0.003373672
 -0.002971029 -0.002544801 -0.002096923 -0.001637824 -0.001168647 -0.0006986532 -0.0002283583 0.0002380168 0.0006965233 0.001141248
 0.001562531 0.001949232 0.002288362 0.002567035 0.002774769 0.002900746 0.002946859 0.00290712 0.002804388 0.002639187
 0.002451167 0.002245293 0.002059696 0.001898896 0.001783148 0.001713877 0.001692031 0.001716931 0.001779398 0.001878393
 0.00200346 0.002153514 0.002319177 0.002499713 0.002687911 0.002885593 0.003092992 0.003310745 0.003543264 0.003779592
 0.004015348 0.004232215 0.004414335 0.004567705 0.004679427 0.004809562 0.004966116 0.005222171 0.005600582 0.006072578
 0.00664273 0.007209693 0.007767539 0.008267492 0.008710255 0.009101517 0.009442878 0.009747876 0.01001373 0.01023789
 0.01041516 0.01053087 0.01058313 0.01056101 0.01046758 0.01030169 0.010068 0.009768385 0.00941145 0.008998017
 0.008550731 0.008073723 0.007603198 0.007147783 0.006739272 0.006385522 0.00609658 0.005875821 0.005708533 0.005594281
 0.005501166 0.00542702 0.005334339 0.005221138 0.005055217 0.004837056 0.004548979 0.004197487 0.003786033 0.003330275
 0.00285606 0.002382642 0.00194535 0.001549861 0.001216858 0.0009318247 0.000692768 0.0004842875 0.0002981584 0.0001323455
 -1.610916E-05 -0.0001418468 -0.000244532 -0.0003186902 -0.0003636531 -0.0003761915 -0.0003559966 -0.0003050542 -0.0002235639 -0.0001158428
 1.87775E-05 0.0001823326 0.0003767457 0.0006109838 0.0008858394 0.001209053 0.001577619 0.001991698 0.002443 0.00292318
 0.003420546 0.003922281 0.004421323 0.004907771 0.005387137 0.005857067 0.006333099 0.006817871 0.00732827 0.007867335
 0.008448391 0.009073447 0.009748845 0.01047538 0.01124547 0.01205782 0.01288901 0.01373599 0.01456742 0.01537892
 0.01613792 0.0168379 0.01744667 0.01795667 0.0183392 0.01859107 0.01869373 0.01865643 0.01847555 0.01817764
 0.01777281 0.01729718 0.01676601 0.01620962 0.01563794 0.01507491 0.01452422 0.0140151 0.01355058 0.01315912
 0.01284328 0.01260526 0.01244366 0.01232718 0.01225297 0.0121836 0.01212089 0.01205141 0.01198132 0.0119221
 0.01187449 0.0118498 0.01183411 0.01181724 0.01177794 0.01169121 0.01155176 0.01134324 0.01108808 0.01078918
 0.01047627 0.01016036 0.009850206 0.00955155 0.009250655 0.008947166 0.008623126 0.008277115 0.007901606 0.0074968
 0.007069952 0.006622575 0.00616984 0.005712409 0.005261068 0.004815628 0.004379819 0.003956228 0.003550323 0.003167357
 0.002817367 0.002501132 0.002224549 0.001981386 0.001769775 0.001583394 0.001418583 0.001273673 0.001147593 0.001039386
 0.0009491462 0.0008734739 0.000812202 0.0007605781 0.0007183115 0.0006799654 0.0006454485</values></Ydata></AB><ScSm><Ydata ylabel="Single channel"><values byteorder="INTEL" format="FLOAT32" numvalues="1814"> 0.08472207 0.08484046 0.08497062 0.08511671 0.08527417 0.08543181 0.08557808 0.08570927 0.08582954 0.08594124
 0.0860441 0.08614768 0.08627208 0.08642741 0.08659866 0.08675534 0.08687503 0.08696403 0.08705784 0.08718856
 0.08734274 0.08746128 0.08749312 0.08744878 0.08739482 0.08739373 0.08746243 0.08760503 0.08785155 0.0881927
 0.08848882 0.08855937 0.08840641 0.08824889 0.08827817 0.08846508 0.08865029 0.08872387 0.088668 0.08853893
 0.08849055 0.08872882 0.08932483 0.09005904 0.09048833 0.09020272 0.08909847 0.08752394 0.08619556 0.08582477
 0.08660728 0.0880073 0.0891573 0.08955684 0.08934575 0.08893815 0.0885886 0.08838256 0.08842668 0.08883067
 0.0895284 0.09020727 0.09043068 0.0899232 0.08888105 0.08794008 0.08765867 0.08808232 0.08893422 0.08995228
 0.09064861 0.09005667 0.08758071 0.08430286 0.08265832 0.08419001 0.08793464 0.09142502 0.09293918 0.09241803
 0.09075832 0.08901526 0.08812276 0.08857445 0.09010126 0.09193984 0.09344152 0.09425022 0.09414187 0.09312549
 0.09165551 0.09044088 0.0900496 0.09074414 0.09237751 0.09423132 0.09529891 0.0950782 0.09395105 0.0926868
 0.09187174 0.09187962 0.09290639 0.0947393 0.09677086 0.09844573 0.09955208 0.1001057 0.1002143 0.1000524
 0.09977502 0.09949657 0.09940965 0.09968691 0.1001452 0.1002813 0.09983044 0.09912311 0.09874983 0.09895283
 0.09941869 0.09965824 0.09949195 0.09896475 0.09785164 0.09576344 0.0929445 0.09040272 0.08892711 0.08853184
 0.08909575 0.09070191 0.09286117 0.09426478 0.09409817 0.09313792 0.0929125 0.09404703 0.09586594 0.09738073
 0.09825151 0.09884537 0.09965967 0.1007597 0.1016337 0.1015695 0.1003813 0.09886494 0.09827221 0.09910309
 0.1006197 0.1017542 0.1022305 0.1025419 0.1030731 0.1035407 0.1032399 0.1018 0.09982273 0.09867725
 0.09937307 0.1015609 0.1037116 0.1042743 0.1027786 0.1000878 0.09767301 0.09655675 0.09691323 0.09848491
 0.1009477 0.1037543 0.1060447 0.1070806 0.1067575 0.105587 0.1041393 0.1025133 0.1005322 0.09855996
 0.09772313 0.09885953 0.1014404 0.1039874 0.1054394 0.1057474 0.1052746 0.1040749 0.1019808 0.09933805
 0.09734011 0.09714695 0.09856814 0.1001017 0.1005311 0.1000647 0.09966093 0.09971505 0.09983802 0.09965441
 0.09935958 0.09943791 0.1000443 0.1008099 0.1012369 0.10116 0.1007836 0.1003886 0.1000671 0.09967171
 0.09904167 0.09835657 0.09813195 0.09867981 0.09969114 0.1005457 0.1009258 0.1009477 0.1007888 0.1003843
 0.09954152 0.09832197 0.0972258 0.09683818 0.09726171 0.0980394 0.09864171 0.09886068 0.09875594 0.09845492
 0.09806804 0.09765986 0.09726261 0.09695104 0.0968309 0.09689777 0.09699589 0.09697259 0.0968027 0.09653388
 0.09618936 0.09576814 0.09530405 0.0948851 0.09459962 0.0944646 0.09442201 0.09439924 0.09434126 0.09419748
 0.09393763 0.09359172 0.09323114 0.09290362 0.09261587 0.09237172 0.09218788 0.09206487 0.091967 0.09184678
 0.09168284 0.09148432 0.09126392 0.09102401 0.09077127 0.09052834 0.09032335 0.09017093 0.09005901 0.08995554
 0.08984317 0.08974082 0.08966656 0.08959007 0.08945797 0.08926223 0.0890511 0.0888748 0.08874502 0.08864264
 0.08854136 0.08841823 0.08825471 0.08804612 0.08782168 0.08764125 0.08755065 0.08754556 0.08758888 0.08764328
 0.08767472 0.08765575 0.08758888 0.08750525 0.08742546 0.08734074 0.08723895 0.08713128 0.08704816 0.08701535
 0.08703036 0.08706084 0.08707075 0.08704434 0.08698492 0.08691008 0.08685073 0.08682631 0.0868127 0.08676304
 0.08666778 0.08656924 0.08650921 0.08648263 0.08645023 0.08638373 0.08629122 0.08620198 0.08613228 0.08607264
 0.08600651 0.08593073 0.08585375 0.08577959 0.08569621 0.08558063 0.08542283 0.08524413 0.0850804 0.08494616
 0.08482759 0.08470894 0.08458991 0.08447406 0.08435461 0.08421877 0.08406211 0.08389258 0.08371826 0.08353432
 0.08332833 0.08309799 0.08285671 0.08262031 0.08239369 0.08216958 0.08193542 0.08168221 0.08141017 0.08112545
 0.08083196 0.08052874 0.08021428 0.07989223 0.0795745 0.07927763 0.07900971 0.07875955 0.07850428 0.07823141
 0.07795197 0.07769093 0.07746612 0.07727706 0.07711342 0.07697025 0.07685122 0.0767599 0.07669533 0.07665665
 0.07664549 0.07666284 0.07670988 0.07679259 0.07691865 0.07708475 0.07727173 0.07745852 0.0776406 0.07783008
 0.07803755 0.07825899 0.07848166 0.07869785 0.0789105 0.07912718 0.0793494 0.07956767 0.07977042 0.07995826
 0.08014408 0.08033821 0.08054118 0.08075021 0.08096156 0.08116443 0.08134621 0.08150932 0.08167317 0.08185409
 0.0820504 0.08225071 0.08245036 0.08265382 0.08286686 0.083092 0.08333126 0.08358875 0.08386773 0.08416444
 0.08446724 0.0847644 0.08505505 0.08535194 0.08567146 0.08602004 0.08638955 0.0867647 0.08713466 0.08749899
 0.08786491 0.08823913 0.08862256 0.08901323 0.08941253 0.08982423 0.09024761 0.09067574 0.09110251 0.09152775
 0.09195402 0.09238178 0.09280917 0.09323587 0.0936653 0.09410148 0.09454158 0.09497377 0.09538631 0.09577924
 0.09616449 0.09655484 0.0969547 0.09735782 0.0977501 0.09811875 0.09846564 0.09880816 0.09916174 0.09952341
 0.09987795 0.1002178 0.1005503 0.1008844 0.1012166 0.1015338 0.1018281 0.1021065 0.1023818 0.1026568
 0.1029207 0.1031621 0.1033818 0.1035928 0.1038069 0.1040259 0.1042489 0.1044801 0.1047221 0.1049639
 0.1051896 0.1053968 0.1055986 0.1058046 0.1060116 0.1062141 0.1064135 0.106616 0.1068241 0.1070338
 0.1072377 0.107436 0.1076443 0.1078835 0.1081598 0.108461 0.1087766 0.1091099 0.1094651 0.1098325
 0.1101971 0.1105604 0.1109386 0.1113356 0.1117278 0.1120863 0.1124055 0.1127027 0.1129972 0.1133019
 0.1136293 0.1139892 0.1143788 0.1147823 0.1151804 0.1155574 0.115907 0.1162365 0.1165592 0.1168788
 0.1171841 0.1174627 0.1177151 0.1179522 0.1181835 0.1184082 0.1186144 0.1187847 0.1189032 0.1189559
 0.1189264 0.1187992 0.1185729 0.1182616 0.1178772 0.1174114 0.1168434 0.116159 0.1153569 0.1144389
 0.1134041 0.1122605 0.1110414 0.1098151 0.1086821 0.1077576 0.1071424 0.1068963 0.1070259 0.1074872
 0.1081892 0.1090002 0.109767 0.1103444 0.1106216 0.1105377 0.1100883 0.1093236 0.1083332 0.1072215
 0.1060838 0.1049933 0.1040023 0.1031624 0.1025536 0.1022949 0.1025211 0.1033391 0.1047856 0.1067974
 0.1092023 0.111752 0.1142014 0.1163905 0.1182729 0.1198848 0.1212933 0.122565 0.1237541 0.124894
 0.12599 0.1270269 0.127986 0.1288555 0.1296271 0.130289 0.1308232 0.1312103 0.1314386 0.1315169
 0.131484 0.1314075 0.1313694 0.1314405 0.1316465 0.131942 0.132219 0.1323501 0.1322412 0.1318668
 0.1312919 0.1306887 0.1303355 0.1305555 0.1315879 0.133452 0.1359124 0.1385906 0.1411381 0.1433487
 0.1451632 0.1466193 0.1478001 0.1487937 0.1496662 0.1504566 0.1511903 0.1518869 0.1525593 0.1532118
 0.1538454 0.1544623 0.1550668 0.1556618 0.1562474 0.1568228 0.1573889 0.1579488 0.1585067 0.1590655
 0.1596238 0.1601753 0.1607144 0.1612425 0.1617656 0.1622865 0.1628043 0.1633194 0.1638344 0.1643485
 0.1648576 0.1653595 0.1658539 0.166339 0.1668107 0.1672674 0.1677134 0.1681553 0.1685981 0.1690427
 0.1694851 0.1699191 0.1703414 0.1707567 0.1711742 0.1715984 0.1720242 0.1724423 0.172848 0.1732438
 0.1736348 0.1740246 0.1744157 0.1748103 0.1752097 0.1756161 0.1760313 0.1764528 0.1768737 0.1772877
 0.1776955 0.1781028 0.1785138 0.178928 0.1793419 0.1797525 0.1801579 0.180558 0.1809526 0.1813425
 0.181729 0.1821137 0.1824969 0.1828773 0.183254 0.1836276 0.1839994 0.184371 0.1847433 0.1851162
 0.1854892 0.1858617 0.1862323 0.186598 0.1869571 0.1873109 0.1876629 0.1880164 0.1883736 0.1887355
 0.1891021 0.1894718 0.189841 0.190206 0.190567 0.1909278 0.1912912 0.1916549 0.1920155 0.1923721
 0.1927264 0.1930811 0.1934383 0.1937986 0.1941618 0.1945268 0.1948909 0.1952511 0.1956066 0.1959608
 0.1963173 0.1966779 0.1970425 0.1974085 0.1977706 0.1981266 0.1984791 0.1988308 0.1991814 0.199531
 0.1998816 0.2002342 0.2005885 0.2009443 0.2013016 0.2016599 0.2020192 0.2023786 0.202736 0.2030915
 0.2034494 0.2038119 0.204176 0.2045377 0.2048967 0.2052539 0.20561 0.2059647 0.206317 0.2066666
 0.2070158 0.2073683 0.2077248 0.2080831 0.2084404 0.2087936 0.2091429 0.2094927 0.2098472 0.2102051
 0.2105643 0.2109248 0.2112862 0.2116474 0.2120096 0.2123741 0.2127378 0.2130983 0.2134576 0.2138194
 0.2141847 0.2145531 0.2149226 0.2152893 0.2156516 0.2160101 0.2163651 0.2167171 0.2170695 0.2174235
 0.2177764 0.2181285 0.2184837 0.2188423 0.2192016 0.2195629 0.2199291 0.2202992 0.2206724 0.22105
 0.2214295 0.221807 0.2221851 0.222568 0.2229526 0.223334 0.223712 0.2240895 0.2244703 0.2248577
 0.2252487 0.2256347 0.2260148 0.2263962 0.2267808 0.2271635 0.2275439 0.2279251 0.2283074 0.2286913
 0.2290785 0.2294654 0.2298472 0.2302258 0.2306044 0.2309824 0.2313617 0.2317462 0.2321323 0.2325142
 0.2328937 0.233273 0.2336493 0.2340245 0.2344046 0.2347873 0.2351667 0.2355456 0.2359286 0.2363137
 0.2366998 0.2370862 0.2374647 0.2378314 0.2381951 0.2385607 0.2389219 0.239278 0.2396343 0.2399814
 0.2402918 0.2405066 0.2404751 0.2398791 0.2381881 0.2346697 0.2285334 0.2192486 0.2068659 0.1921062
 0.1761585 0.1603067 0.1455831 0.1326316 0.1217929 0.1132426 0.1070866 0.1034453 0.1025218 0.1046956
 0.1106521 0.1209811 0.1346837 0.1478686 0.1551965 0.1539175 0.1463635 0.1378331 0.1322724 0.1303284
 0.1306757 0.1319949 0.1337573 0.1360846 0.1392982 0.143447 0.1482556 0.153583 0.1596951 0.1668644
 0.1748456 0.1829611 0.190672 0.1979317 0.2049872 0.2119506 0.218631 0.2247194 0.2300299 0.2345623
 0.2384348 0.2418055 0.2448125 0.2475471 0.2500715 0.2524228 0.254564 0.2563639 0.2576754 0.258455
 0.2588149 0.2589678 0.2591093 0.2593345 0.2596532 0.2600541 0.260534 0.2610869 0.2617025 0.2623686
 0.2630666 0.2637738 0.2644772 0.265171 0.2658464 0.2664974 0.2671252 0.2677285 0.2683012 0.2688425
 0.2693579 0.2698533 0.2703366 0.2708178 0.2713003 0.27178 0.2722537 0.2727176 0.2731631 0.2735835
 0.2739799 0.2743575 0.2747225 0.2750826 0.2754416 0.2757961 0.2761453 0.2764943 0.276844 0.277189
 0.2775266 0.2778592 0.2781896 0.2785209 0.2788559 0.2791912 0.27952 0.2798405 0.2801554 0.2804673
 0.2807822 0.2811078 0.2814433 0.2817767 0.2820982 0.2824111 0.2827292 0.283066 0.2834236 0.2837896
 0.2841502 0.2845053 0.2848641 0.2852296 0.285597 0.2859628 0.2863275 0.286694 0.2870654 0.2874391
 0.2878025 0.2881412 0.2884521 0.2887474 0.2890464 0.2893633 0.2896979 0.2900388 0.2903768 0.290712
 0.2910477 0.291386 0.2917289 0.2920754 0.292423 0.2927752 0.2931412 0.2935234 0.293913 0.2943044
 0.2946995 0.2950989 0.2955 0.2959029 0.2963073 0.2967058 0.2970915 0.2974704 0.2978618 0.2982838
 0.2987338 0.2991866 0.2996179 0.3000307 0.3004485 0.3008873 0.301345 0.3018029 0.3022282 0.302592
 0.3029124 0.30326 0.3036972 0.3042183 0.3047633 0.305279 0.3057547 0.3062072 0.3066494 0.3070764
 0.3074755 0.3078428 0.308197 0.3085814 0.3090359 0.3095546 0.3100832 0.3105726 0.311018 0.3114384
 0.3118494 0.3122608 0.3126625 0.3130047 0.3132463 0.3134444 0.3137463 0.3142503 0.314898 0.3155351
 0.316065 0.3165094 0.3169307 0.3173509 0.3177583 0.3181227 0.3183608 0.3183777 0.3182395 0.3182343
 0.3186378 0.3194328 0.320344 0.3211181 0.3216914 0.3221293 0.3225107 0.3228766 0.3232061 0.3234164
 0.3234497 0.3234033 0.3235192 0.323965 0.3246459 0.3253082 0.3258049 0.326182 0.3265408 0.3269199
 0.327275 0.3274603 0.3272927 0.3268017 0.3264 0.3266174 0.3275887 0.3288964 0.3299879 0.3306682
 0.3311023 0.3314289 0.3315548 0.33133 0.3307352 0.3298873 0.3290836 0.3288478 0.3295918 0.3310877
 0.3325589 0.3334567 0.3339337 0.3344517 0.3351779 0.3359122 0.3364106 0.3366051 0.3365625 0.33634
 0.3359562 0.3355511 0.3354877 0.3360972 0.3372923 0.3385837 0.3395405 0.3401319 0.3405318 0.3406199
 0.3398513 0.3379022 0.3355203 0.3343402 0.3354321 0.338174 0.3409262 0.3426551 0.3434991 0.3439994
 0.3443946 0.3445552 0.3439676 0.3419009 0.3384003 0.3351564 0.3344818 0.3370343 0.3410819 0.3441797
 0.345041 0.343805 0.3414125 0.339169 0.3382862 0.3392252 0.3414948 0.3441517 0.3463738 0.3476877
 0.3479944 0.3475185 0.3467135 0.3461405 0.3461178 0.3462436 0.3456444 0.3441128 0.3425175 0.3414685
 0.3401926 0.3377882 0.3352191 0.3347145 0.3370095 0.3402886 0.3422939 0.3426375 0.3424019 0.3419638
 0.3400945 0.335577 0.3294495 0.3249866 0.3248913 0.3285978 0.3328331 0.3348262 0.3344938 0.3335254
 0.3329903 0.3321976 0.329734 0.3254722 0.321345 0.3196233 0.3203924 0.3214504 0.3207587 0.3178944
 0.3129888 0.3061783 0.299257 0.2960517 0.2990403 0.3062406 0.3129475 0.3157977 0.3138397 0.3071236
 0.2969826 0.2874339 0.2833827 0.286098 0.2917107 0.2949287 0.2932025 0.2868744 0.2770089 0.2648356
 0.2527884 0.244254 0.2414159 0.2435411 0.2472452 0.2480974 0.2428919 0.232142 0.2206113 0.2137432
 0.2126233 0.2133206 0.2115193 0.2065384 0.2004786 0.1952265 0.191351 0.1885821 0.1861899 0.1835533
 0.1807057 0.1774571 0.1723678 0.1645008 0.1562451 0.1521045 0.1539703 0.1594788 0.1655903 0.1715363
 0.177186 0.1809137 0.1813613 0.1802832 0.1814796 0.1867855 0.1942856 0.2006651 0.2044993 0.206844
 0.2090832 0.2110788 0.2119907 0.2123925 0.214288 0.2186262 0.2238373 0.227544 0.2289646 0.2289417
 0.2283547 0.2273908 0.2259756 0.2241183 0.2218801 0.2193896 0.216831 0.2142613 0.2115875 0.2087824
 0.2058307 0.2022893 0.1973331 0.1908746 0.1845177 0.1804944 0.1793779 0.1797174 0.1801417 0.1804016
 0.1796801 0.1758139 0.168112 0.159946 0.1564392 0.1595222 0.16642 0.1728185 0.1763056 0.1766612
 0.1743559 0.170354 0.1672957 0.169094 0.1778827 0.1917278 0.2063293 0.2186245 0.2279148 0.2342165
 0.2371905 0.2371127 0.2359388 0.2365737 0.2409476 0.248795 0.2578977 0.2650199 0.2672729 0.2645462
 0.261321 0.2639264 0.2740454 0.2863071 0.29421 0.2970438 0.2988545 0.3021527 0.3057339 0.3082443
 0.3107412 0.3147264 0.3195174 0.3227367 0.3224055 0.317779 0.3093418 0.2993799 0.2916677 0.2886533
 0.2890423 0.289554 0.28843 0.285498 0.2800835 0.2720652 0.2646938 0.262834 0.2674337 0.2741603
 0.2783642 0.2794363 0.2794895 0.2794945 0.2781276 0.2740266 0.2682103 0.2636356 0.2622565 0.2631161
 0.2637869 0.2629258 0.2605354 0.2565309 0.2506661 0.2439668 0.2388679 0.2371457 0.2381672 0.2396725
 0.240021 0.2393034 0.2385819 0.2387025 0.2398709 0.2418235 0.2442304 0.2472434 0.2515619 0.2574942
 0.2640982 0.2699054 0.2745242 0.2789324 0.2840747 0.2896729 0.2946056 0.2981276 0.3005316 0.3028003
 0.3057418 0.3093459 0.312831 0.3153527 0.316818 0.3180399 0.3199706 0.3227566 0.3256804 0.3279944
 0.3295707 0.330736 0.3317869 0.3327628 0.3334572 0.3336 0.3332646 0.333107 0.3339157 0.3358352
 0.3382138 0.3402566 0.341653 0.3425433 0.3430973 0.3432947 0.343065 0.3424989 0.3418545 0.3413763
 0.3411556 0.3411555 0.3413105 0.3415761 0.3419262 0.342351 0.3428495 0.3434078 0.3439992 0.3446127
 0.3452546 0.3459146 0.346555 0.3471514 0.3477117 0.3482308 0.3486469 0.3488661 0.3488152 0.3484538
 0.3477511 0.3466789 0.3452134 0.3433177 0.3409461 0.3381566 0.3352962 0.3330421 0.3321216 0.3328564
 0.3349212 0.3375437 0.3399607 0.3417501 0.3428622 0.3434554 0.3437322 0.3438557 0.3439296 0.3440024
 0.344088 0.3441893 0.3443126 0.3444686 0.3446718 0.3449406 0.3452905 0.3457241 0.3462271 0.3467688
 0.347304 0.3477813 0.3481584 0.3484138 0.3485425 0.3485392 0.3483859 0.3480619 0.3475754 0.3469778
 0.3463414 0.3457175 0.345112 0.3444921 0.3438103 0.3430133 0.3420224 0.3407311 0.3390841 0.3371813
 0.3352482 0.3334537 0.331777 0.3300867 0.328308 0.3264664 0.3246019 0.3227038 0.3207321 0.3186623
 0.3164987 0.3142602 0.311962 0.3096083 0.3072035 0.3047612 0.302294 0.2997954 0.2972434 0.2946128
 0.2918642 0.2889147 0.2856321 0.2818697 0.2775126 0.272501 0.2668391 0.2606079 0.2539679 0.2471317
 0.2403164 0.233715 0.2274979 0.2218229 0.2168328 0.212643 0.20933 0.2069321 0.205463 0.2049214
 0.205288 0.2065116 0.208497 0.2110998 0.2141334 0.2173849 0.2206357 0.2236894 0.2264217 0.2288269
 0.2310082 0.2330944 0.2351524 0.2371736 0.2391219 0.2409661 0.2426669 0.2441651 0.2454051 0.2463692
 0.2470826 0.2475925 0.2479418 0.248152 0.2482241 0.2481617 0.2480001 0.2478109 0.2476793 0.2476755
 0.2478359 0.248153 0.2485809 0.24906 0.2495459 0.2500244 0.2505066 0.2510104 0.2515412 0.2520898
 0.2526542 0.2532637 0.2539808 0.2548807 0.2560249 0.2574463 0.2591448 0.2610884 0.263214 0.2654319
 0.2676381 0.2697333 0.2716413 0.2733199 0.2747545 0.2759453 0.2769054 0.2776645 0.2782648 0.2787485
 0.2791587 0.279543 0.2799421 0.2803684 0.2808003 0.2811995 0.2815368 0.2818066 0.28202 0.2821848
 0.2822981 0.2823554 0.2823567 0.2823009 0.2821882 0.2820258 0.2818273 0.2816077 0.2813834 0.2811669
 0.2809505 0.2806989 0.2803566 0.2798629 0.2791659 0.2782331 0.2770476 0.2756019 0.2739024 0.2719796
 0.2698838 0.2676762 0.2654225 0.2631758 0.2609547 0.258735 0.2564597 0.2540629 0.2515147 0.2488596
 0.2461988 0.2436221 0.2411667 0.2388309 0.2366017 0.2344675 0.2324228 0.230467 0.2285981 0.2268128
 0.2251098 0.2234843 0.2219296 0.2204493 0.2190626 0.2177961 0.2166745 0.2157121 0.2148998 0.2142097
 0.2136142 0.2130932 0.2126357 0.212255 0.2119817 0.2118118 0.2116735 0.2114713 0.2111562 0.2107491
 0.2103129 0.2099066 0.2095549 0.2092534 0.2089828 0.2086955 0.2083014 0.2076948 0.2067915 0.2055305
 0.2038724 0.2018264 0.1994708 0.1969406 0.194402 0.1920201 0.1899209 0.188175 0.1867976 0.1857382
 0.1848913 0.1841659 0.1835549 0.1831282 0.182965 0.1830665 0.1832992 0.1834556 0.1834335 0.1833455
 0.1834125 0.183771 0.1843912 0.1851296 0.1858246 0.1863731 0.186747 0.1869585 0.187035 0.187016
 0.1869278 0.1867602 0.1864916 0.1861168 0.1856368 0.1850539 0.184385 0.1836452 0.1828244 0.1819068
 0.1808877 0.1797563 0.1785 0.1771244 0.1756282 0.1739992 0.1723096 0.1707892 0.1697431 0.1693826
 0.169713 0.1705323 0.1715603 0.1726059 0.173586 0.1744058 0.1749658 0.1753523 0.17591 0.1770125
 0.1787445 0.1808093 0.1827392 0.1841912 0.185048 0.1853135 0.1850402 0.1843331 0.1832865 0.1819121
 0.1802147 0.1782711 0.176168 0.1739725 0.1718018 0.1697921 0.1680135 0.1664992 0.1652643 0.1643021
 0.1636663 0.1630849 0.1610088 0.1551509 0.1457342 0.137596 0.1365373 0.1430726 0.1517195 0.1568919
 0.1576508 0.1563655 0.1550138 0.1540442 0.1534 0.1531509 0.1533359 0.153827 0.1543693 0.1546889
 0.154651 0.1542589 0.153405 0.1516322 0.1481127 0.141942 0.132811 0.1216392 0.110388 0.1010272
 0.09456865 0.09084497 0.08890928 0.08769674 0.0866451 0.08589895 0.08595614 0.08715092 0.08946191 0.09266524
 0.09649613 0.1006219 0.1045867 0.1079561 0.1105489 0.1124425 0.113751 0.1145004 0.1147042 0.1144309
 0.1137714 0.1128131 0.1116429 0.1103186 0.1088509 0.1072597 0.1056514 0.1042333 0.1032238 0.1027078
 0.1025771 0.1026421 0.1027789 0.1029466 0.1031266 0.1033077 0.1034998 0.1037216 0.1039893 0.1043148
 0.1046833 0.1050481 0.1053686 0.1056364 0.1058553 0.1060139 0.1060732 0.1059897 0.1057856 0.1055662
 0.1053807 0.1050828 0.1044456 0.1034465 0.102375 0.1016392 0.1014823 0.1018406 0.1024172 0.1029005
 0.1031565 0.1032458 0.1032803 0.1032698</values></Ydata></ScSm><ScRf><Ydata ylabel="Single channel"><values byteorder="INTEL" format="FLOAT32" numvalues="1820"> 0.07048917 0.07061598 0.07073185 0.07083552 0.07092994 0.07102571 0.07113595 0.07126521 0.07140553 0.07154283
 0.0716662 0.07177398 0.07187027 0.07195646 0.07203298 0.07211114 0.07221128 0.07234262 0.0724915 0.07263119
 0.07274088 0.07282183 0.07290044 0.07300456 0.07312663 0.07321963 0.07324088 0.07319929 0.07315177 0.07315125
 0.07321078 0.07333142 0.07353635 0.07381761 0.07406015 0.07411497 0.07398427 0.07385018 0.07387246 0.07402846
 0.07418667 0.07425362 0.07421043 0.07410197 0.07405913 0.07425768 0.07475796 0.07537454 0.075734 0.0754901
 0.07455368 0.0732181 0.07209083 0.07177638 0.07244018 0.07362542 0.07459534 0.07492752 0.07474317 0.07439413
 0.07409574 0.07392004 0.07395709 0.07429959 0.07489206 0.07546955 0.07565977 0.0752274 0.0743406 0.07354132
 0.07330251 0.07366063 0.07438061 0.07523987 0.07582377 0.07531694 0.07322466 0.07046875 0.06910117 0.07040984
 0.0735705 0.07650217 0.07776116 0.07730629 0.07589936 0.07443307 0.07369243 0.07408454 0.07537321 0.07691445
 0.07816902 0.07884371 0.07875167 0.07790011 0.07667031 0.07565592 0.07533222 0.07592032 0.07729781 0.0788596
 0.07975819 0.07957254 0.07862532 0.07756421 0.07688336 0.07689808 0.07777078 0.07931718 0.08102313 0.08242388
 0.08334667 0.08380905 0.08390262 0.08377254 0.08354703 0.08332065 0.08325389 0.08349051 0.08387587 0.08398757
 0.08360481 0.08300874 0.08270061 0.08288588 0.08329618 0.08351223 0.08337914 0.08293553 0.08199387 0.08022939
 0.07785343 0.0757188 0.07448827 0.07417054 0.07466405 0.07603845 0.07787491 0.07906352 0.07892013 0.07810885
 0.07792382 0.07888958 0.08043139 0.08171439 0.08245455 0.08296348 0.08365973 0.08459678 0.08534385 0.08530337
 0.08432105 0.08306901 0.08260015 0.08332805 0.0846235 0.08558954 0.08600609 0.08629782 0.08678596 0.08722104
 0.0870012 0.0858163 0.08418533 0.08327268 0.08392815 0.08584552 0.08772301 0.08824682 0.08702444 0.08479644
 0.08281631 0.08195048 0.08234423 0.08378071 0.08598551 0.08848763 0.09054779 0.09153515 0.09136237 0.09046906
 0.0893444 0.08807085 0.08649275 0.08492383 0.0843413 0.08547307 0.08786409 0.09023762 0.09167433 0.09212328
 0.09188648 0.09100136 0.08932275 0.08716419 0.08558607 0.08561297 0.08706953 0.08862176 0.08919534 0.08898203
 0.08883419 0.08909862 0.08942449 0.08947745 0.0894368 0.08973935 0.09052177 0.09144647 0.09205915 0.09220794
 0.09208064 0.09193866 0.09186807 0.09172955 0.09137516 0.0909804 0.09102871 0.09180146 0.09299872 0.09404081
 0.09463958 0.09491052 0.09501821 0.09489422 0.09435126 0.09344953 0.09266906 0.09256823 0.09324206 0.09425119
 0.09508833 0.09555594 0.09571413 0.09568711 0.09558122 0.09545976 0.09535572 0.09533953 0.09550741 0.09585068
 0.09621927 0.09646878 0.0965766 0.09658694 0.09651774 0.09636578 0.09616734 0.09601473 0.09599909 0.09613883
 0.0963761 0.09663571 0.0968575 0.09698544 0.0969865 0.0968933 0.09678479 0.09671409 0.09668545 0.0966967
 0.09676229 0.09688388 0.09702557 0.09713876 0.09720284 0.09722929 0.0972324 0.09721419 0.09717977 0.09715185
 0.09716189 0.09722628 0.09732795 0.09742798 0.09751025 0.09760243 0.09772762 0.09784984 0.09790578 0.09788502
 0.0978434 0.09784079 0.09789218 0.09797552 0.09805856 0.09811006 0.09810427 0.09803914 0.097959 0.0979394
 0.09802941 0.09821679 0.09845667 0.09870925 0.09893848 0.09911122 0.09922388 0.09930709 0.09938715 0.0994612
 0.0995191 0.09957215 0.09965281 0.09979031 0.09998299 0.100194 0.1003806 0.1005225 0.1006237 0.1007082
 0.100815 0.1009644 0.1011207 0.1012218 0.1012603 0.1012993 0.1013953 0.1015314 0.1016447 0.1017012
 0.101727 0.1017728 0.1018599 0.1019676 0.1020669 0.1021548 0.1022549 0.1023828 0.1025147 0.1025966
 0.1025972 0.1025457 0.1025034 0.102501 0.1025252 0.1025604 0.1026147 0.1026952 0.1027801 0.1028334
 0.1028436 0.1028364 0.1028442 0.102869 0.102882 0.1028587 0.1028041 0.102745 0.1027055 0.1026918
 0.1026898 0.1026757 0.1026332 0.1025635 0.1024814 0.102401 0.1023266 0.1022583 0.102209 0.1022036
 0.1022438 0.102278 0.1022307 0.1020747 0.1018618 0.1016746 0.101554 0.1014773 0.1013927 0.1012676
 0.1011071 0.1009389 0.1007873 0.1006586 0.1005457 0.1004402 0.1003441 0.100273 0.1002396 0.1002276
 0.1001931 0.1001026 0.09996752 0.09982975 0.09972173 0.09964816 0.0995975 0.09955697 0.09952217 0.09950131
 0.09950383 0.09952047 0.09952626 0.09950976 0.09948796 0.09948877 0.09953038 0.09961627 0.09973043 0.09983563
 0.09989808 0.09992272 0.09995043 0.1000147 0.100114 0.1002289 0.1003501 0.1004809 0.1006239 0.1007785
 0.1009467 0.1011335 0.1013393 0.1015576 0.1017781 0.101992 0.1021988 0.10241 0.1026438 0.1029097
 0.1031988 0.1034901 0.1037679 0.104033 0.104298 0.1045723 0.1048547 0.1051412 0.1054358 0.1057464
 0.106072 0.1064023 0.1067283 0.1070505 0.1073738 0.1077011 0.1080306 0.1083623 0.1087044 0.1090689
 0.1094505 0.109818 0.1101384 0.1104122 0.1106749 0.1109651 0.1112965 0.1116517 0.1119959 0.1123012
 0.1125716 0.1128404 0.1131339 0.1134447 0.1137502 0.114051 0.1143762 0.1147455 0.1151341 0.1154838
 0.115755 0.1159651 0.1161701 0.1164077 0.1166653 0.1169078 0.1171238 0.1173329 0.1175545 0.1177888
 0.1180317 0.1182912 0.1185732 0.1188618 0.1191284 0.1193601 0.1195666 0.119761 0.1199412 0.1200938
 0.120211 0.1203046 0.120403 0.1205289 0.1206775 0.1208248 0.1209584 0.121092 0.1212464 0.1214288
 0.1216366 0.1218696 0.1221257 0.1223899 0.1226458 0.1229002 0.1231783 0.1234829 0.1237744 0.1240115
 0.1242005 0.1243829 0.1245849 0.1248028 0.1250324 0.1252857 0.1255717 0.125878 0.1261801 0.1264626
 0.1267326 0.1270152 0.1273283 0.1276533 0.1279428 0.1281647 0.1283357 0.1285056 0.1287157 0.128974
 0.1292613 0.1295522 0.1298297 0.130082 0.1302922 0.1304432 0.1305386 0.1306049 0.1306628 0.1306971
 0.1306677 0.1305426 0.1303122 0.1299743 0.1295192 0.1289413 0.1282631 0.1275478 0.1268865 0.1263717
 0.1260723 0.1260253 0.1262344 0.1266672 0.1272524 0.1278937 0.128493 0.1289652 0.1292384 0.1292602
 0.1290169 0.1285423 0.1278983 0.1271475 0.1263397 0.1255128 0.1246972 0.1239334 0.1232999 0.1229181
 0.1229192 0.123395 0.1243667 0.1257694 0.1274494 0.1291974 0.1308253 0.1322351 0.133427 0.1344503
 0.1353562 0.1361826 0.1369573 0.1376959 0.1383994 0.1390632 0.13969 0.1402855 0.140845 0.1413497
 0.1417772 0.1421132 0.1423565 0.1425202 0.1426241 0.142683 0.1427063 0.1427076 0.1426989 0.1426678
 0.1425691 0.1423495 0.1419826 0.141487 0.1409323 0.1404422 0.1401843 0.1403301 0.1409859 0.1421297
 0.1436054 0.1451915 0.1466946 0.147997 0.1490537 0.1498751 0.150512 0.1510293 0.1514792 0.1518926
 0.1522868 0.1526694 0.1530405 0.153397 0.1537394 0.154074 0.1544107 0.1547565 0.1551087 0.1554555
 0.155788 0.1561106 0.1564374 0.1567789 0.157132 0.1574844 0.1578296 0.1581753 0.158531 0.1588909
 0.1592376 0.1595623 0.1598748 0.1601917 0.1605235 0.1608701 0.1612203 0.1615564 0.161867 0.1621577
 0.1624431 0.1627327 0.1630254 0.1633161 0.1636005 0.1638761 0.164144 0.1644112 0.1646876 0.1649769
 0.1652705 0.1655533 0.1658166 0.1660664 0.166317 0.166576 0.1668391 0.1670972 0.167348 0.1675991
 0.1678612 0.1681371 0.1684178 0.1686902 0.1689471 0.1691914 0.1694318 0.169675 0.1699226 0.1701735
 0.1704268 0.1706828 0.1709404 0.1711986 0.1714576 0.1717184 0.1719795 0.1722376 0.1724904 0.1727371
 0.1729784 0.1732175 0.1734593 0.1737078 0.1739639 0.1742235 0.174478 0.1747206 0.1749519 0.175179
 0.1754076 0.1756395 0.1758744 0.1761129 0.1763551 0.1766002 0.1768465 0.1770926 0.1773381 0.1775835
 0.1778292 0.1780756 0.1783229 0.1785694 0.1788127 0.1790526 0.1792919 0.1795325 0.1797717 0.1800073
 0.1802413 0.1804786 0.180721 0.1809648 0.1812044 0.1814391 0.181675 0.1819171 0.1821637 0.1824093
 0.1826517 0.1828903 0.1831241 0.1833539 0.1835828 0.1838131 0.1840445 0.1842755 0.1845063 0.1847393
 0.1849775 0.1852205 0.1854643 0.1857059 0.1859463 0.1861863 0.186426 0.1866673 0.1869122 0.1871577
 0.1873985 0.1876338 0.1878672 0.1881017 0.1883377 0.1885746 0.1888118 0.1890511 0.1892946 0.1895414
 0.1897884 0.1900349 0.1902815 0.1905272 0.190773 0.1910224 0.1912765 0.1915328 0.1917903 0.19205
 0.1923109 0.1925701 0.1928266 0.1930811 0.1933358 0.1935919 0.1938471 0.1940954 0.194335 0.1945691
 0.1948008 0.1950299 0.1952559 0.1954781 0.1956963 0.1959157 0.1961444 0.1963829 0.1966245 0.1968652
 0.1971056 0.1973467 0.1975902 0.1978383 0.1980905 0.1983449 0.1986033 0.1988666 0.1991303 0.19939
 0.1996447 0.1998942 0.2001398 0.2003878 0.2006437 0.2009069 0.2011764 0.2014518 0.2017289 0.202002
 0.2022713 0.2025395 0.2028069 0.2030748 0.2033459 0.2036192 0.2038924 0.2041666 0.2044398 0.204707
 0.2049707 0.2052391 0.2055125 0.2057841 0.2060527 0.2063198 0.2065865 0.2068578 0.2071396 0.2074269
 0.2077109 0.2079917 0.2082723 0.2085503 0.2088251 0.2090986 0.2093676 0.2096298 0.2098922 0.2101598
 0.2104293 0.2106985 0.2109665 0.2112213 0.2114406 0.2115761 0.2114956 0.2109178 0.2093741 0.2062182
 0.2007554 0.1925237 0.1815746 0.1685456 0.1544798 0.1405016 0.1275178 0.1160966 0.1065402 0.09900411
 0.0935813 0.090376 0.08956192 0.0914686 0.09670006 0.1057777 0.1178166 0.129382 0.1357771 0.134603
 0.1279325 0.1204272 0.115539 0.1138185 0.1140956 0.1152175 0.1167284 0.1187393 0.1215312 0.1251457
 0.1293416 0.1339935 0.1393264 0.1455705 0.1525114 0.1595647 0.1662644 0.172566 0.1786789 0.1847028
 0.1904799 0.1957469 0.2003382 0.2042435 0.2075584 0.2104218 0.2129614 0.2152649 0.2173915 0.2193722
 0.2211688 0.2226614 0.2237213 0.2243151 0.2245438 0.2245921 0.2246285 0.2247378 0.2249346 0.2252126
 0.225565 0.22598 0.2264462 0.2269555 0.2274946 0.2280453 0.2285965 0.2291411 0.2296689 0.2301727
 0.2306546 0.2311164 0.2315563 0.2319748 0.232374 0.2327547 0.2331211 0.2334819 0.23384 0.2341929
 0.2345407 0.234883 0.2352137 0.2355266 0.2358212 0.2360983 0.2363607 0.2366185 0.2368817 0.2371498
 0.2374155 0.2376741 0.237925 0.238171 0.2384184 0.23867 0.2389216 0.2391692 0.2394128 0.2396514
 0.2398836 0.2401142 0.2403508 0.2405941 0.2408403 0.2410861 0.2413299 0.2415711 0.2418105 0.2420483
 0.2422853 0.2425285 0.2427866 0.2430591 0.2433362 0.2436121 0.2438884 0.2441669 0.2444461 0.2447242
 0.2449995 0.2452714 0.245542 0.2458125 0.246077 0.2463265 0.2465565 0.2467721 0.2469857 0.2472111
 0.247453 0.2477051 0.2479594 0.2482125 0.2484618 0.2487052 0.2489443 0.2491834 0.2494265 0.2496806
 0.2499543 0.2502468 0.2505455 0.2508387 0.2511258 0.2514133 0.2517067 0.2520063 0.2523046 0.25259
 0.2528598 0.2531264 0.2534114 0.2537306 0.2540796 0.2544323 0.2547622 0.255066 0.2553625 0.2556705
 0.2559963 0.25633 0.2566439 0.2569095 0.257136 0.2573777 0.2576866 0.2580626 0.2584617 0.2588412
 0.2591889 0.2595157 0.2598344 0.2601454 0.2604379 0.2607025 0.2609478 0.2612091 0.2615263 0.2619035
 0.2622982 0.2626638 0.2629893 0.2632895 0.2635799 0.2638681 0.2641423 0.2643624 0.2645013 0.2646123
 0.2648156 0.265187 0.2656749 0.2661537 0.2665473 0.2668756 0.2671889 0.2675015 0.2678004 0.2680593
 0.268209 0.268172 0.2680067 0.2679586 0.2682611 0.2688978 0.2696328 0.2702492 0.2706935 0.2710229
 0.2713061 0.2715787 0.2718247 0.2719765 0.2719858 0.2719317 0.2720126 0.2723656 0.2729114 0.2734406
 0.2738344 0.2741312 0.2744125 0.2747108 0.2749943 0.275144 0.2750028 0.2745895 0.2742466 0.2744181
 0.2752195 0.2763051 0.2772113 0.2777675 0.2781073 0.2783509 0.2784299 0.2782232 0.2777112 0.2769856
 0.2762952 0.2760861 0.2767096 0.2779715 0.2792121 0.2799674 0.2803663 0.2807966 0.2813996 0.2820126
 0.2824372 0.282617 0.2826022 0.2824338 0.2821245 0.2817946 0.2817512 0.2822722 0.2832852 0.2843833
 0.2852072 0.2857287 0.2860891 0.2861819 0.2855439 0.2839041 0.2819013 0.2809199 0.2818606 0.2841948
 0.2865375 0.2880169 0.2887529 0.2892067 0.2895792 0.2897535 0.2892919 0.2875824 0.2846715 0.2819901
 0.2814864 0.2837074 0.2871863 0.2898635 0.2906562 0.2896774 0.2877164 0.2858786 0.2851925 0.2860489
 0.2880356 0.2903598 0.2923258 0.2935273 0.2938755 0.2935588 0.2929627 0.2925676 0.2926464 0.292856
 0.292452 0.2912574 0.2900071 0.2892172 0.2882366 0.2863091 0.2842554 0.2839665 0.2860659 0.2890102
 0.2908812 0.2913522 0.2913415 0.2911563 0.2897402 0.2860645 0.2810353 0.2774629 0.277656 0.2811176
 0.2850371 0.2870532 0.2871218 0.2867088 0.2867262 0.2865632 0.2849883 0.281893 0.2789654 0.2781815
 0.2795933 0.2812522 0.2813627 0.2795399 0.2758725 0.2704747 0.2649648 0.2627686 0.2660993 0.2732075
 0.2799289 0.2832789 0.2823879 0.2772633 0.2691001 0.2615775 0.2592066 0.2631692 0.2699372 0.2746878
 0.2751084 0.2714992 0.2648068 0.256208 0.2481254 0.2439308 0.245802 0.2529721 0.2618626 0.2676225
 0.266609 0.2593117 0.2510834 0.2481064 0.2515801 0.2569317 0.2591945 0.2576784 0.2549394 0.2532927
 0.2535359 0.2553791 0.2577745 0.2597442 0.2611352 0.2612408 0.2574176 0.2480087 0.2366986 0.2305603
 0.2327611 0.2400138 0.2479419 0.2554874 0.2624583 0.2663605 0.2650493 0.2609631 0.2595684 0.2635227
 0.2701422 0.2748334 0.2757577 0.2745834 0.2734467 0.2724058 0.2704923 0.2684531 0.2687895 0.2726468
 0.2780221 0.2819363 0.2834214 0.2835273 0.283328 0.2830152 0.2824445 0.2815804 0.2804621 0.2792257
 0.2780906 0.2771187 0.2761684 0.275173 0.2740718 0.2722053 0.2683705 0.2623861 0.2564276 0.253525
 0.2543835 0.2569414 0.2593308 0.2612285 0.261383 0.2566001 0.2459204 0.2343586 0.2294511 0.2339695
 0.2437129 0.2522195 0.2558708 0.254338 0.2483958 0.2395606 0.2316077 0.2299144 0.2373214 0.2511564
 0.2656304 0.2767305 0.2837463 0.2870198 0.2863989 0.2823832 0.2774191 0.2749333 0.276978 0.2828799
 0.2897557 0.2938594 0.2922159 0.2850683 0.2774937 0.2763341 0.283417 0.2931271 0.2986016 0.2989174
 0.2980896 0.298703 0.2996965 0.299885 0.3004381 0.3029104 0.3066891 0.3095009 0.3094476 0.3058091
 0.2990404 0.2913223 0.2862121 0.2858301 0.2885188 0.2907431 0.2907167 0.2884391 0.2834714 0.2759002
 0.2691244 0.268039 0.2734731 0.2809347 0.285731 0.287346 0.2879913 0.288631 0.2878479 0.2842205
 0.278842 0.2748455 0.2743316 0.2763877 0.2785914 0.2796338 0.2795255 0.2780812 0.2749278 0.2711276
 0.2693245 0.2713958 0.2764396 0.2816488 0.2848843 0.2859806 0.2859396 0.2856401 0.285366 0.2849548
 0.2842206 0.2835604 0.2839948 0.2860805 0.2889465 0.2910906 0.2921224 0.2930861 0.294988 0.2975616
 0.2996743 0.3005815 0.3005784 0.3006217 0.301469 0.3030596 0.3045745 0.305157 0.3047573 0.304294
 0.304831 0.3065611 0.3087263 0.3104838 0.3116121 0.3123961 0.31315 0.3139494 0.3145958 0.3147837
 0.3145071 0.3143101 0.3148847 0.3163514 0.3181129 0.3194575 0.3201454 0.3203745 0.320376 0.320193
 0.3197916 0.319243 0.3187329 0.3184191 0.318317 0.3183287 0.3183517 0.3183424 0.318311 0.3182951
 0.3183348 0.3184461 0.3186146 0.3188184 0.3190397 0.319248 0.3194061 0.3195097 0.3195933 0.3196755
 0.319718 0.319651 0.3194161 0.3189709 0.3182738 0.3172868 0.3159842 0.3143396 0.312326 0.3100072
 0.3077004 0.3060149 0.3056015 0.3067381 0.3091087 0.3119814 0.3146245 0.3166229 0.3179197 0.3186639
 0.3190433 0.3192015 0.3192223 0.3191384 0.3189559 0.318685 0.3183531 0.317991 0.317623 0.3172682
 0.3169404 0.3166421 0.3163617 0.3160746 0.3157485 0.3153562 0.3148882 0.3143514 0.3137543 0.313094
 0.3123518 0.3115024 0.3105412 0.3095067 0.3084701 0.307493 0.3065888 0.3057211 0.3048381 0.3038996
 0.3028616 0.3016596 0.3002675 0.2987948 0.2974633 0.2964305 0.2956498 0.2949286 0.2940992 0.2931057
 0.2919684 0.2907275 0.2894217 0.2880812 0.2867188 0.2853268 0.2838802 0.2823459 0.2807016 0.278952
 0.2771195 0.2752262 0.2732893 0.2713236 0.2693208 0.2672147 0.2648723 0.2621304 0.2588466 0.2549294
 0.2503516 0.2451687 0.2395362 0.2336877 0.227868 0.2222743 0.2170511 0.2123197 0.2081966 0.2047836
 0.2021508 0.2003349 0.1993538 0.1992186 0.1999281 0.2014521 0.2037169 0.2066014 0.2099445 0.2135596
 0.2172491 0.2208242 0.2241466 0.2271762 0.2299675 0.2325927 0.235063 0.2373302 0.2393495 0.2411169
 0.2426479 0.2439482 0.2450185 0.2458791 0.2465763 0.247165 0.247684 0.2481444 0.2485348 0.2488389
 0.2490577 0.2492179 0.2493575 0.2495082 0.2496883 0.2499073 0.2501705 0.2504837 0.2508583 0.2513099
 0.2518484 0.2524675 0.2531466 0.2538651 0.254618 0.2554208 0.2563032 0.257302 0.2584528 0.2597762
 0.2612665 0.2628862 0.2645664 0.2662103 0.2677078 0.2689638 0.2699246 0.2705845 0.2709689 0.2711115
 0.2710416 0.2707876 0.2703791 0.2698416 0.2691962 0.2684666 0.2676777 0.2668424 0.2659571 0.2650144
 0.2640192 0.2629935 0.2619653 0.2609537 0.2599669 0.2590122 0.2580969 0.257218 0.2563646 0.2555311
 0.2547194 0.2539333 0.2531806 0.2524729 0.2518099 0.2511656 0.2504933 0.2497394 0.2488572 0.2478212
 0.2466288 0.2452862 0.243798 0.2421717 0.2404213 0.2385631 0.236613 0.2345854 0.2324888 0.230322
 0.2280747 0.2257343 0.2233107 0.2208638 0.2184887 0.216263 0.2142122 0.2123215 0.2105616 0.2089065
 0.2073418 0.205859 0.2044446 0.2030829 0.2017676 0.2005017 0.199293 0.1981561 0.1971065 0.1961504
 0.195293 0.1945477 0.1939222 0.1934022 0.192962 0.1925841 0.1922721 0.1920575 0.191983 0.1920499
 0.1921871 0.1922921 0.1923027 0.1922294 0.1921305 0.1920606 0.1920354 0.1920409 0.1920563 0.1920443
 0.1919285 0.1916077 0.1909873 0.1899923 0.188583 0.1867811 0.1846735 0.1823944 0.1801111 0.1779968
 0.1761815 0.1747262 0.1736312 0.172837 0.1722385 0.1717499 0.1713682 0.1711647 0.1712186 0.1715334
 0.1719773 0.172341 0.1725213 0.1726364 0.1729192 0.1735173 0.1744075 0.1754509 0.1764892 0.1774143
 0.1781765 0.1787581 0.1791686 0.1794496 0.179637 0.179725 0.1796931 0.179538 0.1792614 0.178868
 0.178384 0.1778357 0.1772167 0.1765098 0.1757104 0.1748121 0.1738067 0.172699 0.1714776 0.17011
 0.1686398 0.1672695 0.1662919 0.1659374 0.1662559 0.1670882 0.1681766 0.1693401 0.1705014 0.1715616
 0.1724008 0.173077 0.1739116 0.1752756 0.1772756 0.1796434 0.181919 0.1837447 0.1849851 0.1856305
 0.1857124 0.1853017 0.1844532 0.1831497 0.1813953 0.1793058 0.1770338 0.1747075 0.1724746 0.1704724
 0.1687561 0.1673421 0.1662308 0.1654057 0.1649217 0.1645072 0.1625776 0.1567824 0.1473447 0.1392291
 0.1383968 0.1453806 0.1545435 0.1601297 0.1611542 0.1600349 0.1587855 0.1578446 0.1571404 0.1567458
 0.1567091 0.1569143 0.1571365 0.1571522 0.1568745 0.156325 0.1553771 0.1535265 0.1498873 0.1435095
 0.1340789 0.1225607 0.1109903 0.1013907 0.09477752 0.0909535 0.08894426 0.0876755 0.08658649 0.08582486
 0.08588972 0.08711419 0.08947637 0.09275796 0.096706 0.1009989 0.1051821 0.1088068 0.1116682 0.1138253
 0.1153917 0.1164059 0.1168966 0.116945 0.1166464 0.1160789 0.115305 0.1143492 0.1131865 0.1118013
 0.1102746 0.108809 0.1076436 0.1069005 0.1065098 0.1063088 0.1061949 0.1061537 0.1061911 0.1062973
 0.1064556 0.1066528 0.1068951 0.1072052 0.1075747 0.1079362 0.1082126 0.1083787 0.1084575 0.1084686
 0.1083847 0.1081516 0.1077767 0.1073611 0.1069616 0.1064436 0.1055885 0.1043801 0.1031191 0.102227
 0.1019507 0.1022189 0.1027253 0.1031542 0.1033703 0.1034319 0.1034467 0.1034203 0.1032346 0.102776
</values></Ydata></ScRf><Data_Parameters_AB><parameter name="DPF">1</parameter><parameter name="NPT">3497</parameter><parameter name="FXV">3996</parameter><parameter name="LXV">500</parameter><parameter name="CSF">1</parameter><parameter name="MXY">0.18072085082531</parameter><parameter name="MNY">-0.0778431445360184</parameter><parameter name="DAT">18/01/2024</parameter><parameter name="TIM">11:25:34.926 (GMT+1)</parameter><parameter name="DXU">WN</parameter></Data_Parameters_AB><AB__Qtest><MainReport name="Quality Test Report"><Header><Line><Legend>Test result ok/not ok [1/0]: </Legend><Value>0</Value></Line><Line><Legend>Method file: </Legend><Value>C:\Users\Public\Documents\Bruker\OPUS_8.2.28\QT\IRBT_v3_default.QT</Value></Line></Header><Matrix><Line><Legend></Legend><Legend>min</Legend><Legend>max</Legend><Legend>measured</Legend></Line><Line><Value>Absorption (X-Range 1):</Value><Value>0.400000</Value><Value>2.000000</Value><Value>0.256678</Value></Line><Line><Value>Noise (X-Range 4):</Value><Value></Value><Value>0.000300</Value><Value>0.000025</Value></Line><Line><Value>Signal/Noise (X-Range 2):</Value><Value>200.000000</Value><Value></Value><Value>338.116699</Value></Line><Line><Value>Signal/Noise (X-Range 3):</Value><Value>40.000000</Value><Value></Value><Value>73.476542</Value></Line><Line><Value>Water vapour (X-Range 5):</Value><Value></Value><Value>0.000300</Value><Value>0.000017</Value></Line><Line><Value>Signal/Water (X-Range 2):</Value><Value>100.000000</Value><Value></Value><Value>483.957137</Value></Line><Line><Value>Signal/Water (X-Range 3):</Value><Value>20.000000</Value><Value></Value><Value>105.169301</Value></Line><Line><Value>Fringes (X-Range 6):</Value><Value></Value><Value>0.000100</Value><Value>0.000032</Value></Line></Matrix></MainReport></AB__Qtest><Data_Parameters_ScSm><parameter name="DPF">1</parameter><parameter name="NPT">1814</parameter><parameter name="FXV">3996.63438082617</parameter><parameter name="LXV">499.579297603271</parameter><parameter name="CSF">1</parameter><parameter name="MXY">0.348866105079651</parameter><parameter name="MNY">0.0766454935073853</parameter><parameter name="DAT">18/01/2024</parameter><parameter name="TIM">11:25:34.926 (GMT+1)</parameter><parameter name="DXU">WN</parameter></Data_Parameters_ScSm><Data_Parameters_ScRf><parameter name="DPF">1</parameter><parameter name="NPT">1820</parameter><parameter name="FXV">4004.34989121387</parameter><parameter name="LXV">495.721542409425</parameter><parameter name="CSF">1</parameter><parameter name="MXY">0.320376038551331</parameter><parameter name="MNY">0.0691011697053909</parameter><parameter name="DAT">18/01/2024</parameter><parameter name="TIM">11:25:07.992 (GMT+1)</parameter><parameter name="DXU">WN</parameter></Data_Parameters_ScRf><Optic_Parameters_Rf><parameter name="APR">0</parameter><parameter name="APT">Open</parameter><parameter name="BMS">KBr</parameter><parameter name="DTC">RT-DLaTGS_IR-Biotyper [Microplate reader]</parameter><parameter name="HPF">0</parameter><parameter name="LPF">10.0</parameter><parameter name="LPV">4000</parameter><parameter name="PGR">0</parameter><parameter name="RCH">Module port</parameter><parameter name="RDX">0</parameter><parameter name="SRC">MIR</parameter><parameter name="VEL">10.0</parameter><parameter name="SON">Off</parameter></Optic_Parameters_Rf><Acquisition_Parameters_Rf><parameter name="ADT">1</parameter><parameter name="AQM">DD</parameter><parameter name="CFE">0</parameter><parameter name="COR">0</parameter><parameter name="DEL">0</parameter><parameter name="DLY">0</parameter><parameter name="HFW">8000</parameter><parameter name="LFW">0</parameter><parameter name="NSR">32</parameter><parameter name="PLF">AB</parameter><parameter name="RES">6</parameter><parameter name="RGN">-1</parameter><parameter name="STR">0</parameter><parameter name="TCL">MakeCompatibleScalar (0, {WSV=1.000000, ARV=0});</parameter><parameter name="TDL">37</parameter><parameter name="RPO">0</parameter></Acquisition_Parameters_Rf><FT_-_Parameters_Rf><parameter name="APF">B3</parameter><parameter name="HFQ">500</parameter><parameter name="LFQ">4000</parameter><parameter name="NLI">0</parameter><parameter name="PHR">24</parameter><parameter name="PHZ">ML</parameter><parameter name="SPZ">NO</parameter><parameter name="ZFF">1</parameter></FT_-_Parameters_Rf><Optic_Parameters_><parameter name="APR">0</parameter><parameter name="APT">Open</parameter><parameter name="BMS">KBr</parameter><parameter name="CHN">Module port</parameter><parameter name="DTC">RT-DLaTGS_IR-Biotyper [Microplate reader]</parameter><parameter name="HPF">0</parameter><parameter name="LPF">10.0</parameter><parameter name="LPV">4000</parameter><parameter name="PGN">0</parameter><parameter name="RDX">0</parameter><parameter name="SRC">MIR</parameter><parameter name="VEL">10.0</parameter><parameter name="SON">Off</parameter></Optic_Parameters_><FT_-_Parameters_><parameter name="APF">B3</parameter><parameter name="HFQ">500</parameter><parameter name="LFQ">4000</parameter><parameter name="NLI">0</parameter><parameter name="PHR">24</parameter><parameter name="PHZ">ML</parameter><parameter name="SPZ">NO</parameter><parameter name="ZFF">1</parameter></FT_-_Parameters_><Acquisition_Parameters_><parameter name="ADT">1</parameter><parameter name="AQM">DD</parameter><parameter name="CFE">0</parameter><parameter name="COR">0</parameter><parameter name="DEL">0</parameter><parameter name="DLY">0</parameter><parameter name="HFW">8000</parameter><parameter name="LFW">0</parameter><parameter name="NSS">32</parameter><parameter name="PLF">AB</parameter><parameter name="RES">6</parameter><parameter name="SOT">0</parameter><parameter name="TCL">MakeCompatibleScalar (0, {WSV=1.000000, ARV=0});</parameter><parameter name="TDL">37</parameter><parameter name="SPO">0</parameter><parameter name="SGN">-1</parameter></Acquisition_Parameters_><Instrument_Parameters_Rf><parameter name="HFL">15801.365274</parameter><parameter name="LFL">0</parameter><parameter name="LWN">15801.365274</parameter><parameter name="ABP">32157</parameter><parameter name="SSP">1</parameter><parameter name="ARG">2</parameter><parameter name="ASG">2</parameter><parameter name="ASS">32</parameter><parameter name="GFW">16</parameter><parameter name="GBW">16</parameter><parameter name="BFW">0</parameter><parameter name="BBW">0</parameter><parameter name="PKA">9303</parameter><parameter name="PKL">4987</parameter><parameter name="PRA">9271</parameter><parameter name="PRL">5010</parameter><parameter name="P2A">1</parameter><parameter name="P2L">1</parameter><parameter name="P2R">1</parameter><parameter name="P2K">1</parameter><parameter name="DAQ">0</parameter><parameter name="AG2">1</parameter><parameter name="SSM">1</parameter><parameter name="RSN">46570</parameter><parameter name="CRR">0</parameter><parameter name="SRT">1705577107.992</parameter><parameter name="DUR">19.6449890136719</parameter><parameter name="TSC">31.9</parameter><parameter name="MVD">0.255404382944107</parameter><parameter name="AN1">0.226025773695189</parameter><parameter name="AN2">0</parameter><parameter name="VSN">2.485 Apr  4 2017</parameter><parameter name="SRN">0085</parameter><parameter name="CAM">0</parameter><parameter name="INS">IR-Biotyper</parameter><parameter name="FOC">69</parameter><parameter name="RDY">1</parameter><parameter name="ARS">32</parameter></Instrument_Parameters_Rf><Sample_Parameters_><parameter name="BLD"></parameter><parameter name="CNM">Admin</parameter><parameter name="CPY"></parameter><parameter name="DPM"></parameter><parameter name="EXP">IRBT_v3_32Scans.XPM</parameter><parameter name="LCT"></parameter><parameter name="SFM">Microplate, HTS-XT</parameter><parameter name="SNM">240118-1045-Cdiff_SCFA_2_C20_232120808_B5_aa50f5a0-3dbd-4b7a-a3c7-fc9dc0675c4d.0</parameter><parameter name="XPP">C:\Users\Public\Documents\Bruker\OPUS_8.2.28\XPM</parameter><parameter name="IST">OK</parameter><parameter name="CPG">1252</parameter><parameter name="UID">a81782c7-3031-4837-81b6-ba45fc17a433</parameter></Sample_Parameters_><Instrument_Parameters_><parameter name="HFL">15801.365274</parameter><parameter name="LFL">0</parameter><parameter name="LWN">15801.365274</parameter><parameter name="ABP">32157</parameter><parameter name="SSP">1</parameter><parameter name="ASG">2</parameter><parameter name="ARG">2</parameter><parameter name="ASS">32</parameter><parameter name="GFW">16</parameter><parameter name="GBW">16</parameter><parameter name="BFW">0</parameter><parameter name="BBW">0</parameter><parameter name="PKA">9774</parameter><parameter name="PKL">4979</parameter><parameter name="PRA">9774</parameter><parameter name="PRL">5002</parameter><parameter name="P2A">1</parameter><parameter name="P2L">1</parameter><parameter name="P2R">1</parameter><parameter name="P2K">1</parameter><parameter name="DAQ">0</parameter><parameter name="AG2">1</parameter><parameter name="SSM">1</parameter><parameter name="RSN">23978</parameter><parameter name="CRR">0</parameter><parameter name="SRT">1705577134.926</parameter><parameter name="DUR">19.64599609375</parameter><parameter name="TSC">31.9</parameter><parameter name="MVD">0.36081999540329</parameter><parameter name="AN1">0.226012259184702</parameter><parameter name="AN2">0</parameter><parameter name="VSN">2.485 Apr  4 2017</parameter><parameter name="SRN">0085</parameter><parameter name="CAM">0</parameter><parameter name="INS">IR-Biotyper</parameter><parameter name="FOC">69</parameter><parameter name="RDY">1</parameter></Instrument_Parameters_><History/></OPUSDataFile>
