<?xml version="1.0" encoding="UTF-8" ?>
<OPUSDataFile><AB><Ydata ylabel="Absorbance Units"><values byteorder="INTEL" format="FLOAT32" numvalues="3497"> -0.08304201 -0.08303323 -0.08302145 -0.0830074 -0.08299337 -0.08297947 -0.08296771 -0.08295608 -0.08294251 -0.08292544
 -0.0829016 -0.08287318 -0.08283978 -0.08280656 -0.08277618 -0.08275113 -0.08273394 -0.08272016 -0.08270985 -0.08269558
 -0.08267592 -0.08264935 -0.08261519 -0.08258159 -0.08254899 -0.0825277 -0.08251757 -0.08252116 -0.08253688 -0.08255792
 -0.08258278 -0.08260286 -0.08261795 -0.08262318 -0.0826197 -0.0826069 -0.08258662 -0.08256019 -0.08253004 -0.08249829
 -0.08246657 -0.0824365 -0.08240767 -0.08238055 -0.08235324 -0.08232528 -0.08229603 -0.08226507 -0.08223427 -0.08220357
 -0.08217761 -0.08215663 -0.08214554 -0.08214425 -0.08215364 -0.08217244 -0.0821947 -0.08221841 -0.08223347 -0.08223963
 -0.0822303 -0.08220904 -0.08217761 -0.08214149 -0.08210786 -0.08207832 -0.08205761 -0.08204118 -0.08202811 -0.08201391
 -0.08199561 -0.08197647 -0.08195614 -0.08194149 -0.08193416 -0.0819334 -0.08193979 -0.08194373 -0.08194473 -0.0819349
 -0.08191463 -0.08188568 -0.08184934 -0.08181356 -0.08177894 -0.08175191 -0.08173171 -0.08172034 -0.08171533 -0.08171432
 -0.0817136 -0.08170804 -0.08169583 -0.0816725 -0.08164284 -0.08160691 -0.08157353 -0.08154618 -0.08152914 -0.08152539
 -0.08152902 -0.08154033 -0.08154774 -0.08155013 -0.08154024 -0.08151767 -0.08148602 -0.08144592 -0.0814069 -0.08136875
 -0.08133592 -0.08130644 -0.08127564 -0.08124227 -0.08119994 -0.0811514 -0.08109742 -0.08104318 -0.08099508 -0.08095556
 -0.08092974 -0.08091435 -0.08090962 -0.08091018 -0.08091398 -0.08091814 -0.08092166 -0.08092284 -0.08092146 -0.08091497
 -0.08090305 -0.08088405 -0.08085784 -0.08082844 -0.0807964 -0.08076998 -0.08074924 -0.08073951 -0.08073891 -0.08074465
 -0.08075271 -0.08075169 -0.08074012 -0.08070828 -0.08066247 -0.08060525 -0.0805449 -0.08048964 -0.08044174 -0.08040577
 -0.08037739 -0.08035671 -0.08033685 -0.08031595 -0.08029037 -0.08025878 -0.08022314 -0.08018341 -0.08014275 -0.08010136
 -0.08005901 -0.08001563 -0.0799696 -0.07992151 -0.07987392 -0.07982821 -0.07979102 -0.07976284 -0.07974879 -0.07974692
 -0.07975716 -0.07977512 -0.0797966 -0.0798155 -0.07982571 -0.07982292 -0.079802 -0.07976527 -0.07971113 -0.07964819
 -0.07957804 -0.07950842 -0.07944109 -0.07937847 -0.07932105 -0.07926855 -0.07922099 -0.07917889 -0.07914233 -0.07911246
 -0.07908924 -0.07907331 -0.079064 -0.07905957 -0.07905833 -0.07905549 -0.07904926 -0.07903411 -0.07901007 -0.07897455
 -0.07892948 -0.07887502 -0.07881478 -0.07874991 -0.07868635 -0.07862632 -0.0785751 -0.07853547 -0.07850509 -0.07848498
 -0.07846488 -0.07844381 -0.07841434 -0.07837585 -0.07833122 -0.07828089 -0.07823239 -0.07818555 -0.0781429 -0.07810353
 -0.07806489 -0.07802703 -0.07798844 -0.07795038 -0.07791465 -0.07788159 -0.0778532 -0.07782684 -0.07780112 -0.07777362
 -0.07774172 -0.07770726 -0.07766974 -0.07763369 -0.07760064 -0.07757138 -0.0775466 -0.07752392 -0.07750304 -0.07748359
 -0.0774655 -0.07745024 -0.07743764 -0.07742517 -0.07741229 -0.07739407 -0.07737022 -0.07733724 -0.07729474 -0.07723972
 -0.07717252 -0.07709059 -0.07699923 -0.07690308 -0.07680921 -0.07672658 -0.07665502 -0.07659896 -0.07654919 -0.07650346
 -0.07645275 -0.07639293 -0.07632534 -0.07624882 -0.07617141 -0.076094 -0.07602081 -0.07595229 -0.07588637 -0.07582285
 -0.07575763 -0.07569081 -0.07562107 -0.07554913 -0.07547721 -0.07540592 -0.07533823 -0.07527394 -0.07521447 -0.07515825
 -0.07510486 -0.07504991 -0.07499 -0.07492016 -0.07483517 -0.07473704 -0.07462355 -0.07450507 -0.07438396 -0.07426836
 -0.07416101 -0.07406045 -0.07396731 -0.07387419 -0.07378069 -0.07367988 -0.07357156 -0.07345278 -0.07332405 -0.07318781
 -0.073045 -0.0729012 -0.07275635 -0.07261397 -0.07247151 -0.07232644 -0.0721752 -0.07201153 -0.07183505 -0.07164183
 -0.07143703 -0.07122174 -0.0710038 -0.07078718 -0.07057535 -0.07037167 -0.07016927 -0.06996825 -0.06975698 -0.06953364
 -0.06929559 -0.06904228 -0.0687815 -0.06851353 -0.06824384 -0.06797185 -0.06769526 -0.06741358 -0.06712313 -0.0668247
 -0.06651818 -0.06620549 -0.06589008 -0.06557357 -0.06526019 -0.06494872 -0.06464054 -0.06433085 -0.06401677 -0.06369567
 -0.06336531 -0.06302644 -0.06267933 -0.06232237 -0.06195565 -0.06157523 -0.06118017 -0.06077302 -0.0603537 -0.05993101
 -0.05950524 -0.05908064 -0.05865701 -0.05823418 -0.05781232 -0.05739217 -0.05697398 -0.05655919 -0.05614706 -0.05573714
 -0.05532767 -0.05491686 -0.05450109 -0.05407685 -0.05364004 -0.05318563 -0.05271623 -0.05222987 -0.05173737 -0.05124189
 -0.05074947 -0.05026287 -0.04977803 -0.04929487 -0.04880841 -0.04831813 -0.04782448 -0.04732749 -0.04682878 -0.04632809
 -0.04582392 -0.04531571 -0.0447999 -0.04427642 -0.04374273 -0.04320012 -0.04264972 -0.04209337 -0.04153449 -0.04097308
 -0.04041057 -0.03984577 -0.03927771 -0.03870763 -0.03813541 -0.03756396 -0.03699433 -0.03642766 -0.0358645 -0.03530459
 -0.03474813 -0.0341933 -0.03364022 -0.03308079 -0.03251456 -0.03193199 -0.03133398 -0.03072414 -0.0301051 -0.0294923
 -0.02888538 -0.02829236 -0.02770899 -0.02713003 -0.02655295 -0.02597125 -0.02538585 -0.02479527 -0.02420089 -0.02360332
 -0.02300323 -0.02240113 -0.02179731 -0.02119239 -0.02058437 -0.01997293 -0.01935649 -0.01873427 -0.01811031 -0.01748477
 -0.01686314 -0.01624559 -0.01563162 -0.01502081 -0.01440887 -0.01379585 -0.01317964 -0.01256081 -0.01193997 -0.01131793
 -0.01069666 -0.01007667 -0.009460134 -0.008845476 -0.008232326 -0.007617936 -0.006999481 -0.006378058 -0.005752645 -0.005127952
 -0.00450572 -0.003887185 -0.003273628 -0.002660734 -0.00204807 -0.001432318 -0.0008130219 -0.0001910383 0.0004335589 0.001057574
 0.001680836 0.002300275 0.002916163 0.003527828 0.004136499 0.004745923 0.005356556 0.005972108 0.006590061 0.007208577
 0.007824603 0.008433124 0.0090361 0.009632061 0.01022773 0.01082615 0.0114315 0.0120471 0.0126687 0.01329665
 0.01392267 0.01454525 0.01516227 0.01577312 0.01638258 0.01699081 0.01759844 0.0182047 0.01880131 0.01938819
 0.0199596 0.02051811 0.02106905 0.02161482 0.02216383 0.02271558 0.02327296 0.02383489 0.02440118 0.02497134
 0.02554555 0.02612153 0.02669872 0.02727356 0.02784447 0.02841059 0.02897121 0.02952765 0.03007985 0.03063004
 0.03117828 0.03172846 0.03228075 0.03283774 0.0333989 0.03395927 0.03451798 0.03506706 0.03560749 0.036138
 0.03666083 0.03718081 0.0376985 0.03821734 0.03873578 0.03925342 0.03976876 0.04028051 0.04078793 0.04129018
 0.04178745 0.04227929 0.04276759 0.04325246 0.04373685 0.04422121 0.04470765 0.04519653 0.04568727 0.04617984
 0.04667026 0.04715824 0.04763912 0.04811326 0.04858009 0.04904067 0.04949858 0.04995413 0.05040987 0.05086546
 0.05132112 0.05177757 0.05223556 0.05269606 0.05316045 0.05362791 0.05409864 0.05457088 0.05504412 0.05551687
 0.05598893 0.05645797 0.05692364 0.05738393 0.05783848 0.0582881 0.05873282 0.05917546 0.05961619 0.06005777
 0.06050036 0.06094665 0.06139649 0.06185128 0.0623098 0.06276993 0.06323058 0.06368848 0.06414469 0.06459941
 0.06505297 0.06550677 0.06595726 0.06640284 0.0668412 0.06726968 0.06769395 0.06811421 0.06853939 0.06897177
 0.06941067 0.06985707 0.0702975 0.07073127 0.07114593 0.07154202 0.07192383 0.07229368 0.07266889 0.07304865
 0.0734412 0.07383981 0.07423245 0.0746137 0.07496653 0.07529604 0.07559944 0.07588854 0.0761722 0.0764573
 0.07675128 0.07705206 0.07736102 0.07767295 0.07798661 0.07829916 0.07860927 0.07892057 0.07923279 0.07955582
 0.07989022 0.08024101 0.08060712 0.08097464 0.08134066 0.0816789 0.08198963 0.0822577 0.08249016 0.08269556
 0.08288275 0.08307175 0.08326445 0.08347239 0.08369013 0.08391625 0.08414832 0.08438273 0.08462533 0.0848782
 0.08514331 0.08542436 0.08570631 0.08598834 0.08624947 0.08648642 0.08669814 0.08688415 0.08706797 0.08725092
 0.08745799 0.08768768 0.08794387 0.08822141 0.08850329 0.08878487 0.08904477 0.08928429 0.08949357 0.08968218
 0.08985569 0.09002815 0.09021314 0.09041921 0.09065748 0.09092171 0.09121476 0.09151798 0.09182786 0.09212647
 0.09240922 0.09267234 0.09291401 0.09314524 0.09336651 0.09359258 0.09382384 0.0940678 0.09432431 0.09459508
 0.09488141 0.09518909 0.09551975 0.09588356 0.09627374 0.09668886 0.09710664 0.09750218 0.09785032 0.09811698
 0.09830286 0.09839049 0.09841768 0.09839173 0.09835785 0.09833224 0.09832913 0.09835733 0.09839352 0.09843759
 0.09845296 0.09843725 0.09836519 0.09823669 0.09805062 0.09781 0.09753505 0.09722868 0.09691447 0.0965905
 0.09626476 0.09593144 0.09558303 0.09521706 0.09482563 0.09441344 0.09398078 0.09353571 0.09308423 0.09262758
 0.09217082 0.09169973 0.09121376 0.0906891 0.09012043 0.08949798 0.08881794 0.08810002 0.08734484 0.08658731
 0.08582874 0.08509208 0.08437638 0.08368582 0.08301837 0.08236858 0.0817339 0.08110498 0.08047982 0.07984862
 0.07921568 0.07858051 0.07795323 0.07734415 0.07675537 0.07619511 0.07564816 0.07511134 0.07456739 0.07400838
 0.0734363 0.07284769 0.07226439 0.0716878 0.07114259 0.07063072 0.07016279 0.0697382 0.06934202 0.0689704
 0.06858666 0.06818873 0.06774497 0.06726279 0.06674364 0.06620155 0.06566455 0.06513946 0.0646495 0.06418785
 0.06375748 0.06334726 0.06295047 0.06256168 0.06217666 0.06179445 0.0614142 0.0610347 0.06065586 0.06027528
 0.0598929 0.05950467 0.05911037 0.0587048 0.05828787 0.0578581 0.05741633 0.05696854 0.05651578 0.05606629
 0.0556194 0.05517786 0.05473969 0.05430209 0.0538642 0.05342312 0.0529804 0.05253602 0.05209277 0.05165251
 0.05121665 0.05078659 0.05036143 0.04994145 0.04952427 0.04910947 0.04869534 0.04828171 0.04786665 0.04745004
 0.04702987 0.04660609 0.0461778 0.04574517 0.04530939 0.04487064 0.04443059 0.04398878 0.04354452 0.04309789
 0.04264804 0.04219716 0.04174748 0.04130187 0.04086445 0.0404348 0.0400146 0.03960016 0.03919004 0.03878231
 0.03837537 0.03797205 0.03757228 0.03718084 0.03679803 0.03643015 0.03607769 0.03574606 0.03543517 0.03513896
 0.03485508 0.03455997 0.03425157 0.03390528 0.03352596 0.03311266 0.03267709 0.03224222 0.03181666 0.03142432
 0.03106244 0.03073931 0.03044247 0.0301677 0.02989957 0.02962994 0.0293494 0.02905158 0.02874094 0.02841569
 0.02809157 0.02777046 0.0274636 0.02717243 0.02689389 0.02662784 0.02636886 0.02611818 0.02588481 0.02567128
 0.02549633 0.02535784 0.02526251 0.025199 0.02514937 0.02509889 0.02501735 0.02490062 0.02472913 0.02451822
 0.02426909 0.02400695 0.02374474 0.02349549 0.02326854 0.02305705 0.02286153 0.02267204 0.02248617 0.02230797
 0.02213722 0.02198584 0.02185423 0.02174363 0.02165274 0.02156905 0.02149202 0.02141134 0.02132962 0.02124966
 0.02117405 0.02111098 0.02105795 0.02101624 0.02097891 0.02093965 0.02089276 0.02083153 0.02075592 0.02066363
 0.0205583 0.02044101 0.02031277 0.02017483 0.02002207 0.01985408 0.01966526 0.01945462 0.01922771 0.01898506
 0.01874703 0.01851485 0.01830976 0.01813014 0.01798052 0.01785512 0.0177386 0.0176251 0.01749385 0.01734404
 0.01716414 0.01695956 0.01673082 0.01648546 0.01622927 0.01596635 0.01570068 0.01543187 0.0151608 0.01488562
 0.01460577 0.0143217 0.01403274 0.01374503 0.01345862 0.01318608 0.01292805 0.01269531 0.01248691 0.01229723
 0.01212292 0.01194242 0.01175514 0.01154543 0.01131991 0.01108503 0.01084801 0.01062526 0.01041349 0.0102178
 0.01002613 0.009830727 0.009624714 0.009400593 0.009163515 0.008912882 0.008657322 0.008399088 0.008141573 0.007885579
 0.007632299 0.007381491 0.007140545 0.006909915 0.006704587 0.006525267 0.006385997 0.006284979 0.006221607 0.006189738
 0.006169356 0.006153733 0.00611617 0.006057887 0.005965904 0.005852788 0.00572529 0.005599923 0.005491294 0.005409135
 0.00536303 0.005353701 0.005383496 0.005450775 0.005555165 0.005697507 0.005877844 0.006097348 0.006356356 0.006652127
 0.006984512 0.00734741 0.007740736 0.008160985 0.008609556 0.009092052 0.009610974 0.01017861 0.01079488 0.01146781
 0.01219092 0.0129593 0.01376212 0.01458608 0.01542228 0.01625921 0.01709424 0.01792256 0.01874588 0.01956389
 0.02037805 0.02118888 0.02199605 0.02279975 0.0235984 0.02439207 0.02517688 0.02595261 0.02670943 0.02744614
 0.02814555 0.02880529 0.02940381 0.02993715 0.0303816 0.03073093 0.03095923 0.03106156 0.0310147 0.03082745
 0.03049147 0.0300452 0.02950375 0.02893668 0.0283774 0.02790043 0.02754114 0.02733919 0.02731617 0.02745889
 0.02777202 0.02821072 0.02877158 0.02941489 0.03013817 0.03092267 0.03176816 0.03266834 0.03362308 0.03462804
 0.03568318 0.0367849 0.03793583 0.03913764 0.04039991 0.04173489 0.04316199 0.04470596 0.04638748 0.04823707
 0.05024578 0.05243888 0.0547222 0.05710595 0.05934483 0.06141963 0.06293394 0.06383308 0.06374446 0.06261047
 0.06037799 0.05703735 0.05298065 0.04824481 0.04344613 0.03861035 0.03421862 0.03024504 0.02686042 0.02400325
 0.02161278 0.01963123 0.01793462 0.01648631 0.01519729 0.01404464 0.01298361 0.01199773 0.01106644 0.01018261
 0.009337908 0.008535958 0.00777539 0.007064863 0.006405668 0.005803765 0.005260155 0.004775262 0.004349207 0.003978597
 0.003663338 0.003401317 0.003192968 0.003040415 0.002943667 0.002906169 0.00292269 0.002986305 0.003081177 0.003181081
 0.003262329 0.003286084 0.003237226 0.003084993 0.00284122 0.002496869 0.002092572 0.001636952 0.001181814 0.000739945
 0.0003573954 4.261029E-05 -0.0001673829 -0.0002692893 -0.0002231391 -2.693179E-05 0.0003856296 0.00101936 0.00196771 0.00322541
 0.004829104 0.006720392 0.008726991 0.01071296 0.01225274 0.01322189 0.01316061 0.01213623 0.009974973 0.006997366
 0.0033724 -0.0005027769 -0.004345941 -0.007927743 -0.01106732 -0.01377113 -0.01599148 -0.01785495 -0.01937401 -0.02066514
 -0.02174298 -0.02267612 -0.02346988 -0.02416616 -0.02476685 -0.02530402 -0.02577885 -0.0262153 -0.02661386 -0.02698955
 -0.02734205 -0.02767815 -0.0279974 -0.02830158 -0.0285915 -0.02886838 -0.02913442 -0.02939197 -0.02964251 -0.02988788
 -0.03012754 -0.03036164 -0.03058967 -0.03081122 -0.03102742 -0.03123827 -0.03144581 -0.0316503 -0.03185289 -0.03205372
 -0.0322523 -0.03244863 -0.03264269 -0.03283475 -0.03302697 -0.03321943 -0.03341416 -0.03360983 -0.03380426 -0.03399541
 -0.03417777 -0.03435194 -0.03451514 -0.03467225 -0.03482623 -0.03498225 -0.03514544 -0.03531465 -0.0354919 -0.03566974
 -0.03584672 -0.03601583 -0.03617517 -0.03632294 -0.0364585 -0.03658357 -0.03669816 -0.03680591 -0.03690716 -0.03700854
 -0.03711057 -0.03722072 -0.03733831 -0.037465 -0.03759846 -0.03773307 -0.03786699 -0.03799346 -0.03811332 -0.03822447
 -0.03832934 -0.03842936 -0.03852661 -0.03862267 -0.03871927 -0.03881758 -0.03891828 -0.03902213 -0.03912747 -0.03923452
 -0.03933909 -0.03944084 -0.03953527 -0.03962198 -0.03969995 -0.03976937 -0.03983549 -0.03989901 -0.03996838 -0.04004353
 -0.04012935 -0.04022368 -0.04032325 -0.04042535 -0.04052273 -0.04061519 -0.04069849 -0.04077618 -0.04084976 -0.04092334
 -0.04100049 -0.04108179 -0.0411691 -0.04125902 -0.04135093 -0.04144195 -0.04153091 -0.04161948 -0.04170754 -0.04179848
 -0.04189264 -0.04199 -0.04209049 -0.04219091 -0.04229132 -0.04239061 -0.04248932 -0.04258963 -0.04269134 -0.04279554
 -0.04290055 -0.04300352 -0.04310319 -0.04319579 -0.04328326 -0.04336544 -0.04344643 -0.04352924 -0.0436153 -0.04370696
 -0.04380058 -0.04389587 -0.0439882 -0.04407626 -0.04415931 -0.04423686 -0.04431096 -0.04438173 -0.04445028 -0.04451662
 -0.04458076 -0.04464281 -0.04470383 -0.04476399 -0.04482464 -0.04488553 -0.04494662 -0.04500745 -0.04506692 -0.04512508
 -0.04518133 -0.04523651 -0.04529114 -0.04534613 -0.04540236 -0.04546002 -0.04551969 -0.04558013 -0.0456411 -0.0457013
 -0.04576019 -0.04581822 -0.04587521 -0.04593341 -0.04599301 -0.04605521 -0.04612001 -0.04618666 -0.04625504 -0.04632381
 -0.04639293 -0.04646158 -0.04652956 -0.04659586 -0.0466601 -0.04672073 -0.04677813 -0.04683174 -0.04688325 -0.04693396
 -0.0469857 -0.0470405 -0.04709815 -0.04715946 -0.04722235 -0.04728647 -0.04734946 -0.04741066 -0.04746918 -0.04752473
 -0.04757756 -0.04762761 -0.04767651 -0.04772437 -0.04777396 -0.04782539 -0.04788083 -0.04793994 -0.04800228 -0.04806723
 -0.04813261 -0.04819819 -0.04826229 -0.0483252 -0.04838655 -0.04844671 -0.0485059 -0.04856452 -0.04862288 -0.04868144
 -0.04874048 -0.04880029 -0.04886099 -0.04892279 -0.0489858 -0.04904994 -0.0491154 -0.04918067 -0.04924573 -0.04930744
 -0.04936562 -0.04941856 -0.04946659 -0.04951248 -0.04955682 -0.04960443 -0.04965493 -0.04970993 -0.04976821 -0.04982787
 -0.04988815 -0.04994679 -0.05000421 -0.05005994 -0.05011471 -0.05016886 -0.05022298 -0.05027735 -0.05033265 -0.05038904
 -0.0504475 -0.05050843 -0.05057164 -0.05063749 -0.05070284 -0.05076762 -0.05082645 -0.05087906 -0.05092193 -0.05095536
 -0.0509814 -0.05100117 -0.05102166 -0.05104376 -0.05107446 -0.05111315 -0.05116253 -0.05121998 -0.05128312 -0.05134849
 -0.05141142 -0.05146993 -0.05152049 -0.05156451 -0.05160123 -0.05163448 -0.05166542 -0.05169662 -0.05172917 -0.05176258
 -0.05179692 -0.05183143 -0.05186586 -0.05190264 -0.05194187 -0.05198697 -0.05203778 -0.05209382 -0.05215418 -0.05221348
 -0.05227111 -0.05232164 -0.05236616 -0.052404 -0.05243747 -0.05247005 -0.05250297 -0.05253948 -0.05257815 -0.05261915
 -0.05266025 -0.05270001 -0.05273822 -0.05277413 -0.05280957 -0.05284496 -0.05288101 -0.05291817 -0.05295434 -0.05298938
 -0.05302083 -0.05304853 -0.05307368 -0.05309656 -0.05312146 -0.05314839 -0.05318 -0.05321541 -0.05325295 -0.05329185
 -0.05332908 -0.05336554 -0.05340096 -0.05343732 -0.05347693 -0.05352046 -0.05356969 -0.0536229 -0.05368005 -0.05373817
 -0.05379631 -0.05385196 -0.05390431 -0.05395217 -0.05399504 -0.05403391 -0.05406865 -0.05410241 -0.05413534 -0.05417027
 -0.05420714 -0.05424583 -0.054286 -0.05432551 -0.05436453 -0.05440219 -0.05443943 -0.05447805 -0.05451882 -0.05456421
 -0.05461327 -0.0546664 -0.05472092 -0.05477507 -0.05482625 -0.05487229 -0.05491295 -0.05494716 -0.05497766 -0.05500469
 -0.05503183 -0.05505981 -0.0550901 -0.05512303 -0.05515768 -0.05519402 -0.05523119 -0.05526926 -0.05530928 -0.05535125
 -0.05539595 -0.05544267 -0.05548922 -0.05553469 -0.05557548 -0.05561186 -0.05564226 -0.05566841 -0.05569165 -0.05571346
 -0.05573556 -0.05575845 -0.05578289 -0.05580889 -0.0558367 -0.05586594 -0.0558967 -0.05592787 -0.0559593 -0.05598991
 -0.05601946 -0.05604849 -0.05607699 -0.05610688 -0.05613819 -0.05617182 -0.05620745 -0.05624368 -0.05628 -0.05631372
 -0.05634471 -0.05637095 -0.05639355 -0.05641311 -0.05643176 -0.05645242 -0.05647613 -0.05650541 -0.0565384 -0.05657526
 -0.05661241 -0.0566483 -0.05668141 -0.05671056 -0.05673784 -0.05676327 -0.05678982 -0.05681795 -0.05684778 -0.05687942
 -0.05691065 -0.05694141 -0.05697009 -0.05699689 -0.05702234 -0.05704677 -0.05707167 -0.0570971 -0.05712402 -0.0571522
 -0.05718172 -0.05721208 -0.05724292 -0.0572733 -0.05730237 -0.05732944 -0.05735378 -0.05737549 -0.0573943 -0.05741104
 -0.05742579 -0.05743985 -0.05745341 -0.05746771 -0.05748289 -0.0575001 -0.05751944 -0.05754121 -0.05756536 -0.05759136
 -0.05761907 -0.05764704 -0.05767527 -0.05770277 -0.05772992 -0.05775703 -0.05778488 -0.05781494 -0.05784789 -0.05788511
 -0.05792716 -0.05797492 -0.05802884 -0.05808963 -0.05815676 -0.05823067 -0.05830872 -0.05839052 -0.05847287 -0.05855478
 -0.05863676 -0.05871843 -0.05880451 -0.0588953 -0.05899456 -0.0591021 -0.05921419 -0.05932966 -0.05943839 -0.05953925
 -0.05962169 -0.05968634 -0.05972902 -0.05975198 -0.05975779 -0.05974717 -0.05972316 -0.05968267 -0.05962237 -0.05954528
 -0.05944752 -0.05934941 -0.05925629 -0.05919196 -0.05916614 -0.05918305 -0.05924746 -0.05934217 -0.05946711 -0.05959366
 -0.05971996 -0.05982152 -0.059898 -0.05994732 -0.05997184 -0.05998925 -0.06000007 -0.06001648 -0.06003575 -0.06005632
 -0.06007642 -0.06009128 -0.06010216 -0.0601084 -0.06011243 -0.06011638 -0.0601214 -0.06012953 -0.0601385 -0.06014837
 -0.06015477 -0.06015616 -0.06015115 -0.06013848 -0.06012303 -0.06010491 -0.0600918 -0.06008432 -0.06008645 -0.0600982
 -0.06011814 -0.06014578 -0.06017681 -0.06021092 -0.06024442 -0.06027748 -0.06030858 -0.06033814 -0.06036621 -0.06039321
 -0.06041967 -0.06044597 -0.06047273 -0.06049991 -0.06052778 -0.06055586 -0.06058396 -0.06061207 -0.06063994 -0.06066874
 -0.06069864 -0.06073066 -0.06076509 -0.06080116 -0.06083885 -0.06087721 -0.06091626 -0.06095712 -0.06099986 -0.06104573
 -0.06109434 -0.0611446 -0.06119581 -0.06124517 -0.06129289 -0.06133773 -0.06138116 -0.06142453 -0.06146957 -0.06151876
 -0.06157191 -0.06163025 -0.061691 -0.06175362 -0.06181427 -0.06187145 -0.06192384 -0.06197052 -0.06201374 -0.06205354
 -0.06209304 -0.06213253 -0.06217274 -0.06221367 -0.06225442 -0.06229496 -0.06233476 -0.06237404 -0.06241348 -0.06245349
 -0.06249556 -0.06253991 -0.06258795 -0.06263907 -0.0626935 -0.06274932 -0.06280498 -0.06285845 -0.06290758 -0.06295244
 -0.06299181 -0.06302936 -0.06306569 -0.06310493 -0.06314839 -0.06319644 -0.06324971 -0.06330372 -0.06335821 -0.06340821
 -0.06345358 -0.06349375 -0.06352918 -0.06356385 -0.06359812 -0.06363603 -0.06367691 -0.06372116 -0.06376722 -0.06381194
 -0.06385469 -0.06389271 -0.06392774 -0.06395985 -0.06399261 -0.06402844 -0.06406981 -0.06411909 -0.06417508 -0.0642386
 -0.06430504 -0.06437381 -0.06444006 -0.06450287 -0.06456088 -0.06461378 -0.06466399 -0.06471164 -0.0647594 -0.06480714
 -0.06485452 -0.06490125 -0.0649455 -0.06498768 -0.06502783 -0.06506704 -0.06510769 -0.06515034 -0.06519705 -0.06524736
 -0.06530186 -0.06535905 -0.06541826 -0.06547768 -0.06553628 -0.06559294 -0.06564689 -0.06569854 -0.06574767 -0.06579585
 -0.06584323 -0.06589141 -0.06594057 -0.06599147 -0.06604412 -0.06609799 -0.06615292 -0.06620719 -0.06626067 -0.06631164
 -0.0663604 -0.06640691 -0.06645173 -0.06649609 -0.06654044 -0.06658598 -0.06663293 -0.066682 -0.06673317 -0.06678684
 -0.06684222 -0.06689923 -0.06695655 -0.06701387 -0.06706963 -0.06712339 -0.06717455 -0.06722283 -0.06726936 -0.06731413
 -0.06736011 -0.06740746 -0.06745823 -0.06751222 -0.06756777 -0.06762432 -0.06767761 -0.06772788 -0.06777318 -0.0678151
 -0.06785604 -0.06789762 -0.06794374 -0.06799393 -0.06804965 -0.06810835 -0.06816877 -0.06822859 -0.06828605 -0.06834087
 -0.06839228 -0.06844192 -0.06848998 -0.06853805 -0.06858641 -0.06863606 -0.06868712 -0.06874016 -0.06879521 -0.06885264
 -0.06891239 -0.06897415 -0.06903772 -0.06910204 -0.06916682 -0.0692306 -0.06929298 -0.06935238 -0.0694085 -0.06946
 -0.06950734 -0.0695501 -0.06959023 -0.06962864 -0.06966805 -0.06971008 -0.06975644 -0.06980845 -0.06986532 -0.06992754
 -0.06999169 -0.07005752 -0.07012087 -0.07018125 -0.07023727 -0.07028885 -0.07033782 -0.07038441 -0.07043201 -0.07048061
 -0.07053211 -0.07058606 -0.07064207 -0.07069968 -0.07075757 -0.07081574 -0.07087346 -0.07093129 -0.07098961 -0.07104876
 -0.07110938 -0.07117079 -0.07123294 -0.07129465 -0.0713554 -0.07141484 -0.07147259 -0.07152963 -0.07158599 -0.07164322
 -0.07170148 -0.07176189 -0.07182451 -0.07188961 -0.07195703 -0.0720251 -0.0720934 -0.07215839 -0.07222009 -0.07227625
 -0.07232822 -0.07237776 -0.07242685 -0.07247975 -0.07253688 -0.07260097 -0.07266983 -0.07274309 -0.07281744 -0.07289118
 -0.07296177 -0.07302779 -0.07308855 -0.0731432 -0.07319405 -0.07324092 -0.07328916 -0.07333924 -0.07339574 -0.07345899
 -0.07352809 -0.07360267 -0.0736772 -0.07375147 -0.07382109 -0.07388673 -0.07394853 -0.07400723 -0.0740649 -0.07412137
 -0.07417737 -0.07423244 -0.07428608 -0.07433877 -0.07439049 -0.07444252 -0.07449552 -0.07455053 -0.07460823 -0.07466874
 -0.07473241 -0.07479819 -0.07486618 -0.07493382 -0.07500091 -0.07506485 -0.07512549 -0.07518287 -0.07523724 -0.07529195
 -0.07534724 -0.07540631 -0.0754687 -0.07553463 -0.07560321 -0.07567229 -0.07574125 -0.07580803 -0.07587237 -0.07593296
 -0.07599024 -0.07604386 -0.07609519 -0.07614478 -0.07619418 -0.07624427 -0.07629531 -0.07634773 -0.07640034 -0.07645303
 -0.07650466 -0.07655507 -0.07660373 -0.0766506 -0.07669571 -0.07673912 -0.0767816 -0.07682332 -0.07686581 -0.0769091
 -0.07695419 -0.07700074 -0.07704834 -0.07709675 -0.07714513 -0.07719412 -0.07724408 -0.07729578 -0.07735029 -0.07740692
 -0.07746594 -0.07752529 -0.07758425 -0.07764142 -0.07769608 -0.07774864 -0.07779904 -0.07784791 -0.07789537 -0.07794145
 -0.07798616 -0.07802977 -0.07807235 -0.07811543 -0.07815914 -0.07820529 -0.07825375 -0.07830509 -0.07835899 -0.07841498
 -0.07847281 -0.07853176 -0.07859199 -0.0786534 -0.07871612 -0.07878046 -0.07884575 -0.07891201 -0.07897766 -0.07904201
 -0.07910424 -0.07916363 -0.07922188 -0.07927897 -0.07933787 -0.07939903 -0.07946324 -0.07953064 -0.07959866 -0.0796671
 -0.07973249 -0.07979488 -0.07985284 -0.07990703 -0.07995939 -0.0800105 -0.08006309 -0.08011686 -0.08017267 -0.0802296
 -0.08028691 -0.08034379 -0.08039944 -0.08045299 -0.0805038 -0.08055098 -0.08059355 -0.08063303 -0.08066913 -0.08070593
 -0.08074419 -0.08078644 -0.08083335 -0.08088283 -0.08093483 -0.08098555 -0.0810349 -0.08108112 -0.08112442 -0.08116536
 -0.08120424 -0.08124264 -0.08128058 -0.08131907 -0.08135759 -0.08139549 -0.08143263 -0.08146802 -0.08150315 -0.08153889
 -0.0815766 -0.08161819 -0.08166132 -0.08170608 -0.08174786 -0.08178489 -0.08181651 -0.08184167 -0.08186513 -0.08188723
 -0.08191285 -0.08194245 -0.08197688 -0.08201607 -0.0820573 -0.08210046 -0.08214294 -0.08218517 -0.08222751 -0.08227067
 -0.0823174 -0.08236677 -0.08241919 -0.08247142 -0.08251928 -0.08256063 -0.08259089 -0.08261309 -0.08262672 -0.0826384
 -0.08265089 -0.08266834 -0.08269314 -0.0827241 -0.08276188 -0.08280176 -0.08284336 -0.08288193 -0.08291706 -0.08294643
 -0.08297003 -0.08298919 -0.08300425 -0.0830187 -0.08303266 -0.08304896 -0.0830667 -0.08308523 -0.08310258 -0.08311415
 -0.08311985 -0.08311639 -0.08310795 -0.08309686 -0.08308786 -0.08308548 -0.0830895 -0.08310164 -0.08311781 -0.0831373
 -0.08315633 -0.08317421 -0.08318763 -0.08319616 -0.08319707 -0.08319001 -0.08317628 -0.08315603 -0.08313373 -0.08310952
 -0.08308652 -0.08306452 -0.08304411 -0.08302534 -0.08300872 -0.08299422 -0.08298236 -0.08297228 -0.08296311 -0.08295382
 -0.08294326 -0.08293039 -0.08291416 -0.08289401 -0.08286864 -0.0828412 -0.08281165 -0.08278616 -0.08276649 -0.08275353
 -0.08274834 -0.08274353 -0.08273866 -0.08272731 -0.08270937 -0.08268669 -0.08265956 -0.08263197 -0.08260289 -0.08256962
 -0.0825306 -0.0824789 -0.08241548 -0.0823379 -0.08225048 -0.08215832 -0.0820647 -0.08197594 -0.0818895 -0.08180634
 -0.08172095 -0.08163016 -0.08153374 -0.08142971 -0.08132496 -0.08122069 -0.08112186 -0.08103002 -0.0809412 -0.0808555
 -0.08076325 -0.08066402 -0.08055061 -0.08042363 -0.08028559 -0.08013843 -0.07999353 -0.07985107 -0.07971895 -0.07959303
 -0.07946909 -0.07934208 -0.07920212 -0.07904863 -0.07887661 -0.07868961 -0.07848886 -0.07827641 -0.07805459 -0.07782024
 -0.07757422 -0.07730711 -0.07701788 -0.07669413 -0.07633319 -0.07593437 -0.07549659 -0.07503816 -0.07455999 -0.07407989
 -0.07359735 -0.07311359 -0.07262823 -0.0721394 -0.07164878 -0.07116296 -0.07067827 -0.07019389 -0.06969629 -0.069165
 -0.06859115 -0.06795256 -0.06726374 -0.06652506 -0.0657603 -0.06498403 -0.06419936 -0.06341293 -0.06261098 -0.06179139
 -0.06094514 -0.06007073 -0.05916367 -0.05822444 -0.05723233 -0.05618602 -0.05504782 -0.05381822 -0.05248524 -0.0510577
 -0.0495774 -0.04804816 -0.04651065 -0.0449483 -0.0433472 -0.04168591 -0.03992346 -0.03805464 -0.03605885 -0.033937
 -0.0316914 -0.02929698 -0.02675021 -0.0240005 -0.02102703 -0.01781082 -0.01433256 -0.01065433 -0.006775115 -0.002807447
 0.001240096 0.005270519 0.009278835 0.01321413 0.01708015 0.02089348 0.02467135 0.02851354 0.03243532 0.03655999
 0.04084554 0.04528274 0.04976886 0.05412778 0.05832974 0.06224652 0.0659755 0.06954192 0.07305048 0.07657176
 0.08012448 0.08373562 0.08737608 0.0910413 0.09472269 0.09841998 0.1021164 0.1058126 0.1094577 0.1130491
 0.1165536 0.1199688 0.1232662 0.1264302 0.1293617 0.1320416 0.1343462 0.1362836 0.1378089 0.1389442
 0.1397043 0.1401079 0.140168 0.1399372 0.1394411 0.138777 0.1379951 0.1371813 0.1363762 0.1356283
 0.134959 0.1343748 0.133883 0.1334534 0.1330845 0.1327429 0.1324265 0.132117 0.1318127 0.1314929
 0.131154 0.1307642 0.1303235 0.1298125 0.1292393 0.1286106 0.1279403 0.1272507 0.1265586 0.1258897
 0.1252575 0.124681 0.1241646 0.1237148 0.1233351 0.1230268 0.1227989 0.1226552 0.122594 0.1226182
 0.1227022 0.1228439 0.1230211 0.1232322 0.1234847 0.1237802 0.1241412 0.1245676 0.1250709 0.125649
 0.1262992 0.1270208 0.1278091 0.1286671 0.1295958 0.1306017 0.1316918 0.132872 0.1341502 0.1355264
 0.1370047 0.1385766 0.140242 0.1419841 0.1437999 0.1456701 0.1475896 0.1495586 0.1515746 0.1536689
 0.1558435 0.1581222 0.1605014 0.162941 0.1654241 0.1678362 0.1701448 0.1721779 0.1738959 0.175108
 0.175819 0.1759274 0.1755217 0.1746492 0.1734333 0.1719812 0.1703963 0.1687608 0.1671397 0.1655784
 0.1640917 0.1626963 0.1613664 0.160101 0.158872 0.1576758 0.1565057 0.1553614 0.154232 0.1531152
 0.1519706 0.1507958 0.1495527 0.1482448 0.1468643 0.1454197 0.1439291 0.1423967 0.1408492 0.1392553
 0.1376177 0.1358181 0.133789 0.1313509 0.1283667 0.1247938 0.1205414 0.1158031 0.1105962 0.1051579
 0.09952622 0.09388451 0.08825047 0.08280808 0.0775694 0.07267491 0.06812488 0.06393454 0.06009258 0.05653095
 0.05324392 0.05017447 0.04732253 0.0446647 0.04218987 0.039876 0.03769298 0.03560068 0.03356298 0.03153504
 0.02950055 0.02743368 0.02534612 0.02323605 0.0211182 0.01899526 0.01688038 0.0147691 0.01272167 0.01073989
 0.00892312 0.007278545 0.005832269 0.004580414 0.003451391 0.002436984 0.001446136 0.00047679 -0.0005304518 -0.001566742
 -0.002644664 -0.003741858 -0.004830141 -0.005876497 -0.00683423 -0.007665153 -0.00832415 -0.008778734 -0.008997287 -0.008964681
 -0.008666171 -0.00810351 -0.007273044 -0.006186354 -0.004844528 -0.00325981 -0.001434512 0.0006340768 0.002946049 0.005508605
 0.008317781 0.01130704 0.01445334 0.01755875 0.02060143 0.02337442 0.0258976 0.02811327 0.03006179 0.03179272
 0.03332904 0.03471249 0.03597634 0.03714311 0.03830133 0.03950154 0.04083493 0.04237386 0.04407085 0.04595298
 0.04782864 0.04966318 0.05134425 0.05284409 0.05422555 0.0554897 0.05674541 0.05799567 0.05928633 0.06061201
 0.06195298 0.0633047 0.06463578 0.06595048 0.06724408 0.06852301 0.06980271 0.07107208 0.07233085 0.07354508
 0.07468359 0.07572483 0.07663817 0.07744526 0.07814368 0.0787723 0.07934403 0.0798737 0.08037013 0.08081263
 0.08120247 0.08149469 0.0816871 0.08172022 0.08159068 0.08123621 0.08065535 0.07980678 0.0786942 0.0773108
 0.07566229 0.07376045 0.07161011 0.06922326 0.06660974 0.06378222 0.06076298 0.05757062 0.0542401 0.050793
 0.04727138 0.04369449 0.04010356 0.03651321 0.03295314 0.02943118 0.02596416 0.02255374 0.01922204 0.01597
 0.01283628 0.009822697 0.006962129 0.00425269 0.001694894 -0.0007172916 -0.00300979 -0.005188166 -0.007281668 -0.009292377
 -0.01123818 -0.01311844 -0.0149393 -0.01670027 -0.01840232 -0.02004682 -0.02163456 -0.02316764 -0.02464735 -0.02607413
 -0.02744806 -0.02877041 -0.03003959 -0.03126796 -0.03245455 -0.03363169 -0.03480107 -0.03600363 -0.03724066 -0.03852734
 -0.03985812 -0.04119506 -0.04252623 -0.04377607 -0.04493802 -0.04595023 -0.04682113 -0.04753472 -0.04811051 -0.04856594
 -0.04892462 -0.0492116 -0.04945404 -0.04967266 -0.0498988 -0.0501484 -0.05045224 -0.05082258 -0.05127903 -0.05183001
 -0.05247023 -0.05320273 -0.05399537 -0.05484677 -0.05571361 -0.05659372 -0.05745121 -0.05828516 -0.05907267 -0.05981326
 -0.0604926 -0.0611099 -0.0616549 -0.06212796 -0.06252367 -0.06284598 -0.06309664 -0.0632837 -0.06341454 -0.06349848
 -0.06354367 -0.06355658 -0.06354187 -0.06350388 -0.06344448 -0.06336781 -0.0632752 -0.06316815 -0.06304748 -0.06290945
 -0.06275396 -0.0625758 -0.06237483 -0.06215032 -0.06190297 -0.06163827 -0.06135803 -0.06107285 -0.0607862 -0.06051293
 -0.06025847 -0.06004019 -0.0598642 -0.05974655 -0.05969089 -0.05970818 -0.05979469 -0.05995385 -0.0601721 -0.06044653
 -0.06075684 -0.06109763 -0.06144762 -0.06180214 -0.06214326 -0.06246799 -0.06276488 -0.06303252 -0.06326807 -0.06347146
 -0.06364527 -0.06378984 -0.06390896 -0.0640036 -0.06407999 -0.06414043 -0.06419551 -0.06424676 -0.06430367 -0.06436359
 -0.06442779 -0.06449011 -0.06454519 -0.06458698 -0.06460955 -0.06460965 -0.06458376 -0.06453256 -0.06445479 -0.06435507
 -0.06423371 -0.06409691 -0.06394543 -0.06378449 -0.06361442 -0.063441 -0.06326462 -0.06309539 -0.06293422 -0.06279431
 -0.06267655 -0.06259241 -0.06254246 -0.06253448 -0.06256875 -0.06264998 -0.06277723 -0.06295212 -0.06317057 -0.06343018
 -0.06372373 -0.06404572 -0.0643898 -0.0647506 -0.06512808 -0.06551968 -0.0659331 -0.06636886 -0.06683749 -0.06734076
 -0.06788427 -0.06846914 -0.06909008 -0.06974671 -0.07042398 -0.07112078 -0.07182017 -0.07252154 -0.07321298 -0.07389407
 -0.07455754 -0.07520211 -0.07582171 -0.07641459 -0.0769754 -0.07750318 -0.0779947 -0.07845039 -0.07886913 -0.079253
 -0.07960206 -0.07992072 -0.08020986 -0.08047538 -0.0807187 -0.08094424 -0.08115291 -0.08134688 -0.08152643 -0.08169299
 -0.08184667 -0.08198922 -0.08212066 -0.08224178 -0.0823524 -0.08245197 -0.08254018 -0.08261572 -0.08267833 -0.08272663
 -0.08276103 -0.08278134 -0.08278868 -0.08278433 -0.0827685 -0.08274304 -0.08270342 -0.08264982 -0.08257084 -0.08246429
 -0.082314 -0.08211634 -0.08185734 -0.08153376 -0.08114184 -0.08068014 -0.08015893 -0.07957873 -0.07896134 -0.07830844
 -0.07764643 -0.0769774 -0.07632673 -0.07569611 -0.07510541 -0.07455407 -0.07405201 -0.07359432 -0.07317907 -0.07279737
 -0.07243957 -0.07209633 -0.07175777 -0.07141726 -0.07106862 -0.07070933 -0.07033693 -0.06995178 -0.0695531 -0.06914417
 -0.06872519 -0.06830057 -0.06787086 -0.06743787 -0.06700174 -0.06655841 -0.06610728 -0.06563967 -0.06515469 -0.06464311
 -0.06410394 -0.06352922 -0.06291765 -0.06226221 -0.06156211 -0.06081174 -0.06001428 -0.05916854 -0.05828584 -0.05737098
 -0.05644482 -0.05551704 -0.05461216 -0.0537409 -0.05292022 -0.05215808 -0.05145353 -0.05080991 -0.05020597 -0.049641
 -0.04908431 -0.04853408 -0.04796929 -0.04739033 -0.0467985 -0.04619715 -0.04560657 -0.04503149 -0.04449905 -0.04401393
 -0.04360119 -0.04326285 -0.04301567 -0.0428535 -0.04277932 -0.04277575 -0.04283302 -0.04292757 -0.0430451 -0.043166
 -0.04327923 -0.04337619 -0.04345131 -0.04350871 -0.04354703 -0.04358016 -0.04360906 -0.0436481 -0.04369825 -0.04376447
 -0.04384647 -0.04393971 -0.04404364 -0.04415239 -0.04426647 -0.04438489 -0.04450811 -0.04463726 -0.04477132 -0.04490889
 -0.04504928 -0.04518966 -0.04533414 -0.04548284 -0.04564688 -0.04583076 -0.0460489 -0.04630766 -0.04661702 -0.04698239
 -0.04740043 -0.04787394 -0.04838067 -0.04892021 -0.0494559 -0.04998562 -0.05047291 -0.05091664 -0.05129575 -0.05161161
 -0.05186243 -0.05205139 -0.05218914 -0.05227937 -0.05233594 -0.05236302 -0.05237252 -0.05237136 -0.05237002 -0.05238109
 -0.05241644 -0.05249157 -0.05261911 -0.05280649 -0.05306262 -0.05337676 -0.05375115 -0.05415826 -0.05459562 -0.05502936
 -0.0554561 -0.05584648 -0.05619842 -0.05649222 -0.05672739 -0.0568949 -0.05699584 -0.05703184 -0.05700688 -0.05693535
 -0.05682569 -0.05670489 -0.05658448 -0.0564963 -0.05645072 -0.05647339 -0.05656948 -0.05675271 -0.05702206 -0.0573819
 -0.05782532 -0.05835176 -0.05895062 -0.05962013 -0.06034702 -0.06112992 -0.0619515 -0.06281061 -0.06368468 -0.06457233
 -0.06544942 -0.06631488 -0.06714984 -0.06795416 -0.06871752 -0.06944085 -0.07012195 -0.0707627 -0.07136651 -0.07193575
 -0.07247646 -0.07298973 -0.07348003 -0.07394566 -0.07438727 -0.07480112 -0.0751852 -0.07553668 -0.07585347 -0.07613589
 -0.07638314 -0.07659847 -0.07678205 -0.07693809 -0.07706691 -0.07717337 -0.07725772 -0.07732647 -0.07737994 -0.07742447
 -0.07745995 -0.07748874 -0.07750982 -0.07752034 -0.07751874 -0.07749943 -0.07746109 -0.07739853 -0.07731131 -0.07719641
 -0.07705479 -0.07688605 -0.07669185 -0.07647345 -0.07623086 -0.07596458 -0.0756734 -0.07535636 -0.07501595 -0.0746512
 -0.0742725 -0.07388018 -0.07348994 -0.07310279 -0.07273324 -0.072382 -0.07206026 -0.07176857 -0.07151642 -0.07130405
 -0.07113872 -0.0710185 -0.07094316 -0.07090741 -0.07090212 -0.07092027 -0.07094905 -0.07098327 -0.07101361 -0.07103793
 -0.07105219 -0.07105603 -0.07104813 -0.07102953 -0.07099938 -0.07096296 -0.07092011 -0.07088181 -0.07084913 -0.07083291
 -0.07083429 -0.07085393 -0.07089143 -0.07093406 -0.07098047 -0.07101316 -0.07103185 -0.07102539 -0.07099541 -0.07094029
 -0.07086294 -0.07076786 -0.07065816 -0.07053979 -0.07041489 -0.07028767 -0.0701589 -0.07003003 -0.06990213 -0.06977582
 -0.06965236 -0.06953275 -0.06941533 -0.06930068 -0.06918261 -0.06906078 -0.06892703 -0.06878074 -0.06861596 -0.06843248
 -0.06822829 -0.06800395 -0.06776305 -0.06750696 -0.06724383 -0.06697479 -0.06670793 -0.06644244 -0.06618107 -0.06592099
 -0.06565972 -0.06539386 -0.06511889 -0.06483376 -0.06453548 -0.06422746 -0.06391003 -0.06358818 -0.06326406 -0.06293828
 -0.06261202 -0.06228071 -0.06194395 -0.06159768 -0.06124146 -0.06087448 -0.06049674 -0.06010871 -0.05971028 -0.0593009
 -0.05887985 -0.05844394 -0.05799128 -0.05751444 -0.05701215 -0.05647697 -0.05591193 -0.05531635 -0.05469877 -0.0540658
 -0.05342876 -0.0527959 -0.05217905 -0.05158517 -0.05102314 -0.05049766 -0.05001093 -0.04956451 -0.04915644 -0.04878613
 -0.04845669 -0.04816807 -0.04792931 -0.04774072 -0.04760488 -0.04752029 -0.04747406 -0.04746291 -0.04746443 -0.0474753
 -0.04747411 -0.04745794 -0.04741072 -0.04733052 -0.04720678 -0.04704193 -0.04683214 -0.04658815 -0.046314 -0.04602555
 -0.04573172 -0.0454412 -0.04516094 -0.04488376 -0.04461093 -0.04432532 -0.04402468 -0.04369731 -0.04334155 -0.04295969
 -0.04255199 -0.04213307 -0.04170412 -0.04128285 -0.04086923 -0.04047289 -0.04009193 -0.03972494 -0.03937123 -0.03902771
 -0.03869687 -0.03838158 -0.03808249 -0.03780321 -0.03753791 -0.03728497 -0.03703485 -0.03678322 -0.03652114 -0.0362451
 -0.03594829 -0.03562809 -0.03528387 -0.03491432 -0.0345275 -0.0341238 -0.03371257 -0.03329426 -0.03287249 -0.03244741
 -0.03202121 -0.03159502 -0.03117583 -0.03076494 -0.0303704 -0.02999246 -0.02963577 -0.02929934 -0.02898438 -0.02868768
 -0.02840719 -0.02813755 -0.02787398 -0.0276138 -0.02735351 -0.02709582 -0.02684108 -0.02659108 -0.02634744 -0.02610433
 -0.0258617 -0.02560969 -0.02534724 -0.02507019 -0.02477835 -0.02447706 -0.02416696 -0.02385737 -0.02354825 -0.02324432
 -0.02294462 -0.02264838 -0.02235496 -0.02206285 -0.02177101 -0.02147786 -0.02118085 -0.02087599 -0.02056359 -0.02024063
 -0.01991479 -0.01958827 -0.0192705 -0.01896596 -0.01867715 -0.01840623 -0.01814931 -0.01790653 -0.01767132 -0.01744347
 -0.01721235 -0.01697736 -0.01672699 -0.01646104 -0.01617415 -0.01586633 -0.01553561 -0.01518026 -0.01479297 -0.01437252
 -0.01391087 -0.01341183 -0.01287623 -0.01231251 -0.01172923 -0.01113571 -0.01054104 -0.009952981 -0.009377405 -0.008820099
 -0.008282899 -0.00777538 -0.007298563 -0.006868245 -0.006487872 -0.006162263 -0.005894408 -0.005653765 -0.005438792 -0.005193718
 -0.004916557 -0.004566614 -0.004146723 -0.003651736 -0.003087477 -0.002470503 -0.001807152 -0.001118302 -0.000412822 0.0002886065
 0.00097235 0.001618222 0.002208185 0.002723966 0.003147654 0.003464198 0.00366682 0.003745615 0.003717492 0.003579423
 0.003375425 0.003108226 0.002838757 0.002572074 0.002366175 0.002224641 0.002179635 0.002230293 0.002371501 0.002599137
 0.002885665 0.003228469 0.0036028 0.004010177 0.004441351 0.00490029 0.005391375 0.005912402 0.006468358 0.007038612
 0.007612494 0.008160674 0.008659998 0.009108633 0.009490917 0.00985525 0.01020901 0.01060196 0.01105338 0.01151601
 0.01199151 0.01237713 0.01266674 0.01280923 0.01280541 0.01265991 0.01237796 0.01199321 0.01151164 0.01097246
 0.01038025 0.009763187 0.009129456 0.008502835 0.007895909 0.007333711 0.006820694 0.006371687 0.005976676 0.005635207
 0.005333873 0.005066318 0.004828761 0.00461793 0.004439171 0.00429303 0.004183346 0.004111244 0.004070971 0.004062412
 0.004068328 0.004087256 0.004094634 0.004088284 0.004041763 0.003953773 0.003803617 0.003594696 0.003321482 0.002996788
 0.002637666 0.002261441 0.001899054 0.001551177 0.001236267 0.0009252523 0.000609262 0.000255402 -0.0001562801 -0.0006239541
 -0.001158191 -0.001713386 -0.002287443 -0.002814961 -0.003288537 -0.003664997 -0.003940606 -0.004122951 -0.004213826 -0.004247715
 -0.004224563 -0.004160506 -0.004052733 -0.003895964 -0.003693714 -0.003449523 -0.00317473 -0.002891307 -0.00260685 -0.002342066
 -0.002092308 -0.001862182 -0.001640599 -0.001420993 -0.001200257 -0.0009725674 -0.000750586 -0.0005349552 -0.000344829 -0.000184501
 -6.127388E-05 2.226463E-05 7.836879E-05 0.0001075198 0.0001273548 0.0001380677 0.0001427204 0.0001395185 0.0001162033 7.270642E-05
 4.344984E-07 -9.549005E-05 -0.0002069217 -0.0003267519 -0.0004373155 -0.0005370724 -0.0006150489 -0.0006777936 -0.0007268976 -0.0007695056
 -0.0008129676 -0.0008520655 -0.0008897089 -0.0009063312 -0.0008970763 -0.0008473595 -0.000749958 -0.0006229136 -0.0004646016 -0.0003236217
 -0.0002031633 -0.0001384241 -0.0001289861 -0.0001599394 -0.000226304 -0.0002825264 -0.0003280875 -0.0003349739 -0.0003097308 -0.0002561729
 -0.0001794457 -9.176949E-05 6.746277E-06 0.0001116017 0.0002221341 0.0003372779 0.0004534202 0.0005681374 0.0006788071 0.000783733
 0.000881764 0.0009725322 0.001054057 0.001125815 0.001187135 0.001237626 0.001279886 0.00131405 0.001342894 0.001366382
 0.001382992 0.001392171 0.001388607 0.001372346 0.001339777 0.001293412 0.001236977 0.001176059 0.00112255 0.001081502
 0.001065996 0.001073893 0.001110588 0.001163807 0.001228832 0.001291259 0.001342074 0.001379698 0.001399344 0.001415404
 0.001429834 0.001454365 0.001491962 0.001535503 0.001584841 0.001628768 0.001667103</values></Ydata></AB><ScSm><Ydata ylabel="Single channel"><values byteorder="INTEL" format="FLOAT32" numvalues="1814"> 0.085875 0.08598423 0.08610725 0.08625112 0.08641123 0.08657229 0.08671828 0.08684473 0.08695788 0.0870607
 0.08715089 0.08723753 0.08734503 0.08749032 0.08766238 0.08782927 0.08796294 0.08806323 0.08816112 0.08828755
 0.08843036 0.08853289 0.08854632 0.08848351 0.08841437 0.08840507 0.08847316 0.08861916 0.08886794 0.08920684
 0.08949451 0.08954982 0.08937733 0.08920252 0.08922352 0.08941238 0.08960399 0.08968005 0.08961828 0.08947742
 0.08941764 0.08964961 0.09024423 0.09097773 0.09140149 0.09110098 0.08997105 0.088365 0.0870106 0.08663104
 0.087424 0.08884222 0.09000255 0.0903974 0.09017088 0.089745 0.08937953 0.08916222 0.08920009 0.08960063
 0.09029324 0.09096153 0.09116735 0.09063712 0.08957291 0.08861754 0.0883317 0.08875714 0.08961295 0.09063408
 0.09132499 0.09070818 0.08818917 0.08487315 0.08322146 0.08477785 0.08855285 0.09205307 0.09355091 0.0929974
 0.09130219 0.08953232 0.08863021 0.08908801 0.09062521 0.09246793 0.09396534 0.09476359 0.09463996 0.09360577
 0.09211987 0.09089434 0.09049829 0.09119496 0.09283538 0.09469303 0.09575255 0.09551133 0.09435782 0.0930683
 0.09223501 0.09223694 0.09326932 0.09510997 0.09714162 0.09880814 0.09990315 0.1004464 0.1005464 0.1003774
 0.1000928 0.09980455 0.09970424 0.09996536 0.1004057 0.1005232 0.1000559 0.09933694 0.09895658 0.09915298
 0.09960805 0.099833 0.09965424 0.09911902 0.0979958 0.09588903 0.09304772 0.09048907 0.08900388 0.08860251
 0.08916359 0.09076947 0.09292259 0.09430552 0.09410821 0.09312181 0.09288274 0.09401025 0.09581834 0.09731513
 0.09816633 0.09874617 0.09955323 0.1006477 0.1015114 0.1014304 0.1002235 0.09869315 0.09809241 0.09891352
 0.1004105 0.1015163 0.1019641 0.1022547 0.102773 0.1032298 0.1029147 0.101458 0.09946823 0.09831627
 0.09900206 0.1011649 0.1032764 0.103798 0.1022729 0.09956902 0.09715367 0.09604205 0.09640232 0.09797247
 0.1004232 0.1032043 0.1054605 0.1064648 0.1061201 0.1049378 0.1034824 0.1018478 0.09985732 0.09787803
 0.09703726 0.098167 0.100734 0.1032647 0.1047068 0.1050128 0.1045391 0.1033348 0.101238 0.09860559
 0.09663406 0.09647156 0.09791031 0.09944449 0.09987037 0.09940892 0.09901653 0.09907918 0.09920563 0.09902676
 0.09874293 0.0988358 0.09945296 0.1002209 0.1006428 0.1005574 0.1001731 0.09977371 0.09945162 0.09905693
 0.09842801 0.09774849 0.09753647 0.09809758 0.09911269 0.09996012 0.1003301 0.1003459 0.1001867 0.09978658
 0.09895264 0.09774631 0.09666608 0.09629397 0.0967288 0.09751159 0.09811421 0.09833269 0.09823062 0.09793779
 0.09756489 0.09717542 0.09679929 0.09650794 0.09640357 0.09648094 0.09658736 0.09657484 0.09642027 0.09617001
 0.09584436 0.09544016 0.09499054 0.09458426 0.09431135 0.09419021 0.09416214 0.09415126 0.09409952 0.09395777
 0.09370126 0.09336413 0.09301786 0.0927083 0.09244053 0.0922154 0.09204488 0.09192628 0.09182509 0.09169808
 0.09152788 0.0913253 0.0911027 0.09086123 0.09060594 0.09035696 0.09014016 0.08997034 0.08983862 0.08971687
 0.08958957 0.08947508 0.08938916 0.08929874 0.08914899 0.08893298 0.08870111 0.08850452 0.08835483 0.08823362
 0.08811553 0.08797675 0.0877964 0.08756955 0.08732846 0.08713581 0.08703581 0.08701941 0.08704664 0.08708169
 0.0870938 0.08705701 0.08697312 0.08687252 0.08677672 0.08667802 0.08656253 0.08643733 0.08633091 0.08627148
 0.08625983 0.08626324 0.08624437 0.08619015 0.08610873 0.0860182 0.08594455 0.08590312 0.0858712 0.08580578
 0.08569928 0.08559358 0.08552951 0.08550121 0.08546891 0.08540471 0.08531865 0.08524262 0.08519474 0.08516508
 0.085134 0.08509471 0.08505511 0.08502271 0.08498938 0.08493222 0.08483724 0.08472076 0.08461544 0.08453628
 0.08447404 0.0844189 0.08437303 0.08433796 0.08430354 0.08425516 0.08418757 0.08410857 0.08402781 0.08394326
 0.08384417 0.08372788 0.08360602 0.08349164 0.08338635 0.08328219 0.08317083 0.08304913 0.08291893 0.08278297
 0.08264151 0.08249286 0.08233587 0.08217237 0.08201078 0.08186568 0.08174549 0.08163898 0.08152144 0.08137883
 0.08122265 0.08108007 0.08097065 0.08089325 0.08083324 0.08078046 0.08073719 0.08071135 0.08070758 0.08072677
 0.08076821 0.08082898 0.08090682 0.08100635 0.08113684 0.08129873 0.0814766 0.08165091 0.08181597 0.08198141
 0.0821577 0.08234488 0.08253634 0.08272897 0.0829277 0.08313958 0.08336338 0.08358619 0.08379501 0.08399126
 0.08418918 0.0844006 0.08462709 0.08486526 0.08511026 0.0853527 0.08558266 0.08580157 0.08602333 0.08625954
 0.0865083 0.08676129 0.08701687 0.08728049 0.08755624 0.08784438 0.08814698 0.08846979 0.0888163 0.08918172
 0.08955417 0.08992201 0.0902822 0.090644 0.09102326 0.09142974 0.09185843 0.09229323 0.09272017 0.09313738
 0.09355351 0.0939766 0.09440784 0.09484701 0.09529902 0.09576958 0.0962549 0.09674186 0.09722002 0.09769002
 0.09815888 0.09863062 0.09910348 0.09957562 0.1000496 0.1005295 0.101014 0.1014948 0.1019639 0.1024203
 0.1028701 0.1033202 0.1037739 0.1042281 0.1046724 0.1050955 0.1054981 0.1058956 0.1063026 0.1067157
 0.1071192 0.107506 0.1078864 0.1082727 0.1086619 0.1090379 0.1093895 0.1097238 0.1100579 0.1103984
 0.110732 0.1110399 0.1113184 0.1115816 0.1118445 0.1121115 0.1123843 0.1126687 0.1129651 0.1132584
 0.1135304 0.1137804 0.1140231 0.1142679 0.1145101 0.1147427 0.1149655 0.1151833 0.1153996 0.1156139
 0.1158209 0.11602 0.1162252 0.1164592 0.1167335 0.1170415 0.1173751 0.1177359 0.1181234 0.1185218
 0.1189113 0.1192907 0.119676 0.1200747 0.1204688 0.1208319 0.121156 0.121455 0.1217479 0.1220523
 0.1223882 0.1227723 0.1232017 0.1236511 0.1240872 0.1244863 0.1248447 0.125179 0.1255101 0.125842
 0.1261587 0.126443 0.1266951 0.1269289 0.1271582 0.1273848 0.1275965 0.1277725 0.1278944 0.1279498
 0.1279277 0.127818 0.1276197 0.1273446 0.1270037 0.1265933 0.1260992 0.1255127 0.1248349 0.124064
 0.1231891 0.1222041 0.1211318 0.1200384 0.1190244 0.1181968 0.1176409 0.1174102 0.1175307 0.1179963
 0.1187442 0.1196384 0.1204894 0.1211086 0.1213646 0.1212119 0.1206819 0.1198483 0.1187932 0.1175886
 0.1162918 0.1149439 0.1135689 0.1121826 0.1108164 0.1095392 0.1084649 0.1077625 0.1076837 0.1085483
 0.1105955 0.1137563 0.1175698 0.121384 0.124695 0.1273352 0.1294048 0.1310923 0.1325546 0.1338864
 0.13513 0.1362937 0.1373726 0.1383604 0.1392469 0.140015 0.1406454 0.1411222 0.1414371 0.1415992
 0.1416473 0.1416485 0.1416799 0.1417986 0.1420095 0.1422513 0.1424142 0.1423832 0.1420753 0.14145
 0.1404959 0.1392437 0.137863 0.1367983 0.1367306 0.1382225 0.1412723 0.1452284 0.1491954 0.1525458
 0.1551054 0.1569974 0.1584193 0.159534 0.1604522 0.1612443 0.1619551 0.1626126 0.1632318 0.1638208
 0.1643871 0.1649392 0.1654837 0.166024 0.1665593 0.1670859 0.1676018 0.1681115 0.1686238 0.1691441
 0.1696705 0.1701951 0.1707115 0.1712212 0.1717284 0.1722312 0.1727222 0.1731981 0.1736642 0.1741284
 0.1745954 0.1750643 0.1755294 0.1759821 0.1764178 0.1768378 0.177246 0.177646 0.178041 0.1784344
 0.1788285 0.1792238 0.1796186 0.180009 0.180392 0.1807664 0.1811319 0.1814882 0.1818383 0.1821884
 0.1825434 0.1829008 0.1832545 0.1836012 0.1839451 0.1842961 0.1846623 0.185042 0.1854243 0.1857973
 0.1861582 0.1865128 0.1868683 0.1872276 0.1875897 0.1879513 0.1883088 0.188661 0.1890098 0.1893583
 0.1897066 0.1900525 0.1903947 0.1907331 0.1910677 0.1913983 0.1917269 0.192056 0.1923859 0.1927156
 0.1930449 0.1933746 0.1937039 0.1940296 0.1943491 0.1946628 0.1949748 0.1952899 0.1956103 0.1959336
 0.1962558 0.1965762 0.1968968 0.1972179 0.1975384 0.1978588 0.1981809 0.1985055 0.1988312 0.1991558
 0.199478 0.1997993 0.2001226 0.2004488 0.2007751 0.2010991 0.2014208 0.201742 0.2020638 0.2023857
 0.2027058 0.203023 0.2033394 0.2036587 0.2039829 0.2043101 0.2046362 0.2049566 0.2052704 0.2055815
 0.2058937 0.2062072 0.2065202 0.206833 0.2071462 0.2074598 0.2077737 0.2080883 0.2084035 0.2087183
 0.2090315 0.2093412 0.2096472 0.2099535 0.2102647 0.2105807 0.2108985 0.2112158 0.2115311 0.2118435
 0.2121543 0.2124652 0.2127753 0.2130843 0.2133949 0.2137097 0.2140281 0.2143475 0.2146646 0.2149785
 0.2152927 0.2156121 0.2159355 0.2162578 0.2165785 0.2169016 0.2172279 0.2175547 0.2178796 0.2182026
 0.2185254 0.2188499 0.2191734 0.2194895 0.2197966 0.2200993 0.2204022 0.2207067 0.2210144 0.2213238
 0.2216298 0.2219306 0.2222304 0.2225319 0.2228348 0.2231416 0.2234558 0.223777 0.2241024 0.2244301
 0.2247557 0.225076 0.225394 0.2257143 0.2260373 0.2263633 0.2266943 0.2270285 0.227362 0.2276962
 0.2280328 0.228369 0.228703 0.2290365 0.2293699 0.2297035 0.2300408 0.2303819 0.230721 0.2310569
 0.2313939 0.2317319 0.2320687 0.2324076 0.2327506 0.233092 0.2334286 0.2337631 0.2340971 0.2344313
 0.2347708 0.2351165 0.2354619 0.2358052 0.23615 0.2364944 0.236836 0.2371802 0.2375288 0.2378752
 0.2382183 0.2385628 0.2389046 0.2392373 0.2395637 0.2398869 0.2402053 0.2405235 0.2408463 0.2411611
 0.2414388 0.2416211 0.2415576 0.2409299 0.2392065 0.2356522 0.2294733 0.2201365 0.2076905 0.1928545
 0.1768183 0.1608737 0.1460645 0.1330436 0.1221539 0.1135671 0.1073825 0.103717 0.102776 0.1049454
 0.1109149 0.1212741 0.1350192 0.1482498 0.1556121 0.1543438 0.1467756 0.1382177 0.1326311 0.1306701
 0.1310062 0.1323142 0.1340628 0.1363768 0.1395838 0.1437367 0.1485574 0.1538972 0.160014 0.1671787
 0.1751507 0.1832593 0.1909682 0.1982264 0.2052736 0.2122199 0.2188786 0.2249447 0.2302319 0.2347361
 0.2385735 0.2419053 0.244875 0.2475767 0.2500713 0.2523929 0.2545054 0.2562791 0.2575654 0.2583153
 0.2586383 0.2587506 0.2588544 0.2590492 0.2593443 0.2597259 0.2601867 0.2607177 0.261308 0.261947
 0.2626193 0.2633057 0.2639932 0.2646714 0.2653275 0.2659561 0.2665618 0.2671445 0.2676979 0.2682239
 0.2687323 0.2692288 0.2697147 0.2701925 0.2706637 0.2711287 0.2715907 0.2720488 0.2724921 0.2729101
 0.2733026 0.2736774 0.2740446 0.2744136 0.2747859 0.2751541 0.2755142 0.2758699 0.2762226 0.2765697
 0.2769128 0.2772571 0.2776042 0.2779538 0.2783055 0.2786539 0.2789924 0.2793237 0.2796569 0.2799968
 0.2803423 0.2806918 0.2810426 0.2813908 0.2817338 0.2820716 0.2824087 0.2827568 0.2831259 0.2835119
 0.2839014 0.2842877 0.2846712 0.2850508 0.2854266 0.285805 0.2861915 0.2865836 0.2869753 0.2873623
 0.2877392 0.2880992 0.28844 0.2887678 0.289095 0.2894318 0.2897784 0.2901289 0.2904819 0.2908409
 0.291205 0.2915677 0.2919269 0.2922845 0.2926427 0.2930068 0.2933856 0.2937814 0.2941877 0.2946002
 0.29502 0.2954427 0.2958598 0.2962707 0.2966823 0.2970952 0.2975018 0.2979003 0.2983058 0.298742
 0.2992168 0.299708 0.300182 0.3006265 0.3010568 0.3014961 0.3019589 0.3024393 0.3029028 0.3033088
 0.3036628 0.3040297 0.3044752 0.3050019 0.3055576 0.3060915 0.3065888 0.3070607 0.3075184 0.3079615
 0.3083826 0.3087773 0.3091577 0.3095604 0.3100258 0.310554 0.3110954 0.3116008 0.3120625 0.312498
 0.3129215 0.3133422 0.3137518 0.3141047 0.3143616 0.3145781 0.314899 0.3154226 0.3160916 0.3167527
 0.3173105 0.3177869 0.3182432 0.3186988 0.3191402 0.3195366 0.319803 0.3198435 0.3197237 0.3197317
 0.3201457 0.3209541 0.3218877 0.3226934 0.3233016 0.3237723 0.3241858 0.3245874 0.3249578 0.3252136
 0.3252954 0.3252983 0.3254597 0.3259453 0.3266647 0.3273714 0.327923 0.3283641 0.3287927 0.3292462
 0.3296815 0.3299513 0.3298665 0.3294509 0.3291174 0.3294029 0.3304489 0.3318384 0.3330114 0.333764
 0.3342593 0.3346434 0.3348323 0.3346772 0.3341522 0.3333652 0.3326125 0.332427 0.3332337 0.3348083
 0.3363638 0.3373382 0.3378809 0.3384597 0.3392487 0.3400516 0.3406256 0.3409 0.3409364 0.3407888
 0.3404757 0.340139 0.3401423 0.3408195 0.3420891 0.3434656 0.3445154 0.3451994 0.345686 0.3458534
 0.3451532 0.3432552 0.3409107 0.3397761 0.3409461 0.3438018 0.3466818 0.3485282 0.3494703 0.3500533
 0.3505221 0.3507526 0.350231 0.3482148 0.3447379 0.3415053 0.3408724 0.3435284 0.3477269 0.3509775
 0.3519557 0.3507894 0.3484311 0.3462116 0.3453706 0.3463843 0.3487597 0.3515416 0.3538921 0.3553209
 0.3557187 0.3553119 0.3545661 0.3540587 0.3541207 0.3543451 0.3538342 0.3523629 0.3508122 0.3498134
 0.3485853 0.3462006 0.3436329 0.3431652 0.3455693 0.3489987 0.3511317 0.3515553 0.351375 0.3509842
 0.3491292 0.3445629 0.3383507 0.3338586 0.3338743 0.3378261 0.3423476 0.3445792 0.3444329 0.3436542
 0.3433493 0.3428017 0.3405391 0.3364095 0.3323908 0.3308231 0.3317969 0.3330376 0.332437 0.3295587
 0.3245361 0.3174956 0.3102706 0.3068073 0.3096775 0.3168572 0.3235068 0.3261671 0.3238643 0.3166531
 0.3059021 0.2957426 0.2912313 0.2936931 0.2991672 0.3022246 0.3002567 0.2936367 0.2834941 0.2711307
 0.2590607 0.2507362 0.2483412 0.2510473 0.2552928 0.2564514 0.2512012 0.240106 0.2281474 0.2210212
 0.2199208 0.220831 0.219301 0.2146158 0.2089401 0.2042333 0.2011046 0.1992824 0.197979 0.1964908
 0.1947767 0.1925021 0.1879621 0.1800596 0.1714186 0.1670367 0.1690617 0.174951 0.1813707 0.1874373
 0.192968 0.1961561 0.1954645 0.192716 0.1919789 0.1952755 0.2006665 0.204738 0.2060566 0.2057775
 0.205432 0.2050354 0.2038465 0.2024149 0.2026361 0.2054152 0.2092711 0.2119419 0.212663 0.2122111
 0.2114019 0.2103882 0.2090591 0.2073751 0.2053515 0.203086 0.2007546 0.1984363 0.1960676 0.1936067
 0.1909707 0.1876875 0.183037 0.1771338 0.1717391 0.1691267 0.1698391 0.1723486 0.1751247 0.1776873
 0.1790109 0.1768205 0.1704196 0.1632726 0.1606616 0.1646331 0.1723796 0.1794252 0.1831805 0.1833139
 0.1802836 0.1751954 0.1710361 0.1722061 0.1812523 0.1963474 0.2129196 0.2274072 0.238634 0.2463271
 0.2500726 0.2502519 0.249051 0.2496176 0.2539855 0.2617857 0.2705787 0.2769532 0.2780018 0.2737649
 0.2689756 0.270187 0.2791482 0.2903728 0.2971866 0.2988078 0.299347 0.301416 0.3038455 0.3052348
 0.3065563 0.3092367 0.3125622 0.3141865 0.3122205 0.3060362 0.2962037 0.2850105 0.2761704 0.2720964
 0.2715139 0.2711406 0.2691801 0.2655066 0.2595801 0.2512379 0.2433491 0.240373 0.2433047 0.2482965
 0.2511129 0.2511379 0.2502399 0.2492986 0.24716 0.2426426 0.236695 0.2320195 0.2304665 0.2313072
 0.232464 0.2327606 0.2321714 0.2305842 0.2277834 0.2247629 0.2238223 0.2266088 0.2324392 0.2390001
 0.2444725 0.2486389 0.2522395 0.2559029 0.2597467 0.2635077 0.2669337 0.2703525 0.2747 0.2804639
 0.286741 0.2920227 0.2959384 0.2995985 0.3040949 0.3091962 0.3137304 0.3168935 0.3189678 0.3209541
 0.3236724 0.3271078 0.3304718 0.3329359 0.3344603 0.3359184 0.3382618 0.3415404 0.3448893 0.3474571
 0.3491268 0.350356 0.3516346 0.3531679 0.3548046 0.3561879 0.3572141 0.3583681 0.3603313 0.3631824
 0.3662079 0.3685663 0.3699575 0.3706041 0.3707988 0.3706377 0.3701222 0.3693619 0.3685928 0.3680094
 0.3676293 0.3673323 0.3669941 0.3665644 0.3660744 0.365626 0.3653532 0.3653522 0.365641 0.3661824
 0.3669082 0.3677124 0.3684723 0.3691145 0.3696407 0.3700659 0.3703541 0.3704354 0.3702659 0.3698353
 0.3691257 0.3680888 0.3666604 0.364771 0.3623672 0.3595272 0.3566418 0.3544433 0.3537045 0.3547613
 0.3572681 0.3604073 0.3633677 0.365705 0.3673794 0.368567 0.3694611 0.370186 0.3708047 0.3713532
 0.3718697 0.3724034 0.3729976 0.3736632 0.3743804 0.3751242 0.3758789 0.3766219 0.3773087 0.3778787
 0.3782775 0.378475 0.3784711 0.37829 0.3779625 0.3775039 0.3769014 0.3761303 0.3751912 0.3741335
 0.3730393 0.3719755 0.3709544 0.3699347 0.3688587 0.3676743 0.3663061 0.3646376 0.3625975 0.3602908
 0.3579777 0.3558637 0.3539344 0.3520277 0.3500295 0.3479517 0.3458564 0.3437736 0.3416956 0.3396018
 0.337468 0.3352659 0.3329653 0.330541 0.3279826 0.3252977 0.3225002 0.3195981 0.316595 0.3134884
 0.310243 0.3067642 0.3029125 0.2985574 0.293623 0.2880922 0.28199 0.2753828 0.2683936 0.2612063
 0.254043 0.2471312 0.2406845 0.2349002 0.2299532 0.2259745 0.2230257 0.2210986 0.2201464 0.2201225
 0.2209946 0.2227307 0.2252721 0.2285118 0.2322889 0.2363983 0.240611 0.2447068 0.2485292 0.2520356
 0.2552889 0.2583807 0.261356 0.2642079 0.2669179 0.2694684 0.2718174 0.2738886 0.2756101 0.2769646
 0.2779999 0.2787943 0.2794174 0.2799164 0.2803327 0.2807228 0.281158 0.2816951 0.282346 0.2830732
 0.2838127 0.2845008 0.2850928 0.2855756 0.285977 0.2863653 0.2868339 0.2874729 0.2883425 0.289466
 0.2908456 0.292482 0.2943848 0.2965669 0.2990266 0.3017316 0.3046175 0.3075962 0.3105604 0.313388
 0.3159589 0.3181785 0.3199938 0.3213915 0.3223849 0.3229997 0.3232682 0.3232304 0.3229302 0.3224095
 0.3217111 0.3208824 0.3199625 0.3189634 0.3178679 0.3166481 0.3152923 0.3138203 0.3122748 0.3106918
 0.3090861 0.3074664 0.305854 0.3042817 0.3027852 0.301399 0.3001503 0.2990515 0.298097 0.2972624
 0.2965029 0.2957587 0.2949641 0.294055 0.2929811 0.2917242 0.2902979 0.2887232 0.2870073 0.2851431
 0.2831186 0.2809263 0.2785726 0.276079 0.2734706 0.2707645 0.2679611 0.2650504 0.2620465 0.2590209
 0.2560816 0.2533069 0.2507128 0.2482758 0.2459689 0.2437731 0.2416753 0.2396602 0.2377066 0.2357979
 0.2339368 0.2321399 0.2304232 0.2287955 0.2272576 0.2258063 0.224445 0.2231861 0.2220318 0.2209631
 0.2199527 0.2189828 0.2180602 0.2172303 0.2165577 0.2160676 0.2157097 0.2153952 0.2150662 0.214733
 0.2144559 0.2142876 0.2142248 0.2142174 0.2142042 0.214111 0.2138332 0.2132586 0.2123056 0.2109257
 0.2090967 0.2068424 0.2042473 0.2014478 0.1986205 0.1959565 0.1936091 0.1916602 0.1901235 0.1889513
 0.1880449 0.1873061 0.1867006 0.1862705 0.1860829 0.1861376 0.186296 0.1863425 0.1861796 0.185945
 0.1858987 0.1862106 0.1868647 0.18771 0.1885665 0.1893093 0.1898861 0.1902842 0.1905127 0.1906033
 0.1905813 0.1904371 0.1901503 0.1897219 0.1891652 0.1884987 0.1877522 0.186942 0.1860475 0.1850446
 0.1839384 0.1827422 0.1814615 0.1800983 0.178628 0.1770059 0.1752702 0.1736276 0.172379 0.1717514
 0.1717737 0.1722673 0.1729753 0.1737349 0.1744897 0.1751526 0.1756087 0.1759308 0.1764761 0.1776373
 0.1794805 0.1816455 0.1836 0.1849789 0.1856853 0.1857591 0.1852818 0.1843768 0.1831525 0.1816387
 0.1798613 0.1779106 0.1758637 0.1737496 0.1716335 0.1696163 0.1677631 0.1661186 0.164709 0.1635378
 0.1626708 0.1618512 0.1595592 0.1535538 0.144082 0.1359439 0.1348778 0.1413996 0.1501113 0.1555125
 0.156671 0.1558907 0.1550657 0.1545727 0.1542988 0.1542763 0.1545365 0.1549765 0.1553907 0.1555599
 0.1553903 0.1549002 0.1539722 0.1521291 0.1485282 0.1422631 0.1330341 0.1217754 0.1104613 0.1010701
 0.09461811 0.09094249 0.08909754 0.08800931 0.08709459 0.08647387 0.08663071 0.08790287 0.0902846 0.0935645
 0.0974804 0.1017027 0.1057863 0.1093019 0.112056 0.1141087 0.1155762 0.1165102 0.1169547 0.1169902
 0.1166938 0.1161254 0.1153492 0.1144052 0.113274 0.1119266 0.1104257 0.1089683 0.1078009 0.1070561
 0.1066676 0.106469 0.1063502 0.1062933 0.1063104 0.1064006 0.1065481 0.1067312 0.106948 0.1072192
 0.1075421 0.1078611 0.1081105 0.1082643 0.1083311 0.1083156 0.1081896 0.1079108 0.1074986 0.1070563
 0.1066347 0.1060956 0.1052249 0.1040114 0.1027512 0.101857 0.1015752 0.1018417 0.1023556 0.1027971
 0.1030219 0.1030832 0.1030914 0.1030547</values></Ydata></ScSm><ScRf><Ydata ylabel="Single channel"><values byteorder="INTEL" format="FLOAT32" numvalues="1820"> 0.07048126 0.07061622 0.07073505 0.070837 0.07092846 0.07102131 0.07112715 0.07125039 0.07138635 0.07152431
 0.0716532 0.07176832 0.07187095 0.07196121 0.07203947 0.07211769 0.07221714 0.07234725 0.07249303 0.0726268
 0.07272975 0.07280735 0.07288834 0.07299837 0.07312563 0.07322074 0.0732415 0.07319841 0.07315038 0.07315266
 0.07321869 0.07334614 0.07355274 0.07382774 0.07405832 0.07410125 0.07396404 0.07383057 0.07385837 0.07402092
 0.074184 0.07425303 0.07420808 0.07409362 0.07404248 0.07423462 0.07473336 0.07535233 0.0757149 0.07547339
 0.07453974 0.07320939 0.07209007 0.07178389 0.07245218 0.0736355 0.07459811 0.07492217 0.0747342 0.07438847
 0.07409813 0.07393041 0.07397182 0.0743148 0.07490465 0.07547723 0.07566278 0.07522989 0.07434756 0.07355335
 0.07331517 0.07366905 0.07438351 0.07523962 0.07582355 0.0753185 0.07322778 0.07047214 0.0691031 0.07040791
 0.07356232 0.07648775 0.07774383 0.07729095 0.0758895 0.07442899 0.07369196 0.07408621 0.0753791 0.07692805
 0.07818967 0.07886462 0.0787639 0.0778981 0.07665461 0.07563324 0.07531255 0.07591132 0.07730068 0.07887071
 0.07977341 0.07958922 0.07864085 0.07757443 0.07688357 0.07688597 0.0777483 0.07928977 0.080998 0.08240844
 0.08334552 0.08382004 0.08391759 0.08378439 0.08355521 0.08332869 0.08326307 0.08349849 0.08388123 0.08399361
 0.0836174 0.08302914 0.08272126 0.08289517 0.08328776 0.08348957 0.08335196 0.08291337 0.08198138 0.08022527
 0.07785263 0.0757163 0.07448118 0.07415849 0.07464899 0.076023 0.07785924 0.07904529 0.07889876 0.07808824
 0.07790905 0.07888141 0.08042586 0.08170716 0.08244534 0.08295691 0.08366143 0.08460798 0.08535882 0.08531254
 0.08431762 0.08305387 0.08258128 0.083315 0.08462073 0.0855931 0.08600657 0.08628798 0.08676708 0.08720204
 0.08699036 0.08581405 0.08418438 0.08326438 0.08390862 0.08581737 0.08769272 0.08821985 0.08700231 0.08477884
 0.08280499 0.08194937 0.08235432 0.0837968 0.0860002 0.08849826 0.09055784 0.09154865 0.09137893 0.09048487
 0.08935552 0.08807427 0.08648712 0.08491202 0.0843308 0.08547118 0.08787188 0.09024911 0.09168117 0.09212021
 0.09187298 0.09097998 0.08929771 0.08714198 0.08557437 0.08561587 0.08708374 0.0886396 0.08921079 0.08899221
 0.08883668 0.08909077 0.08940587 0.08945169 0.08940937 0.08971394 0.09049904 0.09142643 0.09204354 0.09219933
 0.09207932 0.09194163 0.09187165 0.09173269 0.09138023 0.09098987 0.09104136 0.09181267 0.0930047 0.09404093
 0.09463399 0.0948983 0.09499991 0.09487414 0.09433472 0.09343851 0.09266151 0.09256124 0.09323466 0.09424482
 0.09508578 0.09555952 0.09572425 0.09570226 0.09559885 0.0954771 0.09536965 0.09534694 0.09550698 0.09584453
 0.096212 0.0964645 0.09657741 0.09659364 0.09653048 0.09638399 0.09619031 0.09604175 0.09602753 0.0961626
 0.09638867 0.09663504 0.09684697 0.09697074 0.09697339 0.0968872 0.096789 0.09672666 0.09669949 0.09670499
 0.0967612 0.09687319 0.0970075 0.09711808 0.09718567 0.09721911 0.0972278 0.09721153 0.09717645 0.09714594
 0.097151 0.09720954 0.09730821 0.09741069 0.09749967 0.0975996 0.09773073 0.09785613 0.09791355 0.0978937
 0.0978516 0.09784527 0.09789035 0.09796855 0.09805141 0.09810925 0.09811495 0.09806252 0.09799096 0.09797285
 0.09805886 0.09824052 0.09847473 0.09872077 0.09894215 0.09910759 0.09921667 0.0993021 0.09938893 0.09947064
 0.09953362 0.09958811 0.09966775 0.09980303 0.09999228 0.1001981 0.1003777 0.1005122 0.1006081 0.1006908
 0.1007983 0.1009487 0.101105 0.1012067 0.1012487 0.1012943 0.1013969 0.1015369 0.1016517 0.101709
 0.1017348 0.101778 0.1018609 0.1019672 0.1020707 0.1021661 0.1022706 0.1023967 0.102522 0.1025968
 0.1025926 0.10254 0.1024995 0.1025005 0.1025291 0.1025703 0.1026313 0.1027164 0.102801 0.1028492
 0.1028534 0.1028419 0.1028468 0.1028675 0.1028743 0.1028442 0.1027845 0.1027225 0.1026814 0.102666
 0.1026633 0.1026526 0.102619 0.102561 0.1024875 0.1024086 0.1023297 0.1022552 0.1022013 0.1021933
 0.1022324 0.1022681 0.1022259 0.1020768 0.1018687 0.1016811 0.1015562 0.1014758 0.1013913 0.1012687
 0.1011104 0.1009442 0.1007957 0.1006717 0.100563 0.1004591 0.1003603 0.1002816 0.1002374 0.1002163
 0.1001781 0.1000892 0.09995814 0.09982491 0.09972119 0.09965035 0.09959891 0.09955392 0.09951323 0.09948812
 0.0994904 0.09951057 0.09952047 0.0995049 0.0994802 0.09947756 0.09951912 0.09960923 0.09972899 0.09983663
 0.09989595 0.09991422 0.09993693 0.1000001 0.1001011 0.1002184 0.1003423 0.1004765 0.1006242 0.1007836
 0.1009533 0.1011357 0.1013338 0.101547 0.1017686 0.1019875 0.1021971 0.1024054 0.1026313 0.1028891
 0.1031749 0.1034704 0.1037576 0.104033 0.1043045 0.1045792 0.1048577 0.1051407 0.1054349 0.1057459
 0.1060693 0.1063942 0.1067142 0.1070313 0.1073496 0.1076712 0.1079964 0.1083277 0.1086738 0.1090435
 0.109429 0.1097996 0.1101254 0.1104083 0.110682 0.1109806 0.1113143 0.1116665 0.1120064 0.112309
 0.1125772 0.1128418 0.1131292 0.1134342 0.1137365 0.114038 0.1143667 0.1147384 0.1151253 0.1154722
 0.1157467 0.1159694 0.1161894 0.1164333 0.1166841 0.1169127 0.1171183 0.1173264 0.1175536 0.1177929
 0.1180368 0.1182952 0.1185765 0.1188637 0.1191265 0.1193533 0.1195567 0.1197494 0.119928 0.1200804
 0.1202012 0.120301 0.1204038 0.1205291 0.1206742 0.1208199 0.1209568 0.1210962 0.1212538 0.121434
 0.1216359 0.1218624 0.1221112 0.1223663 0.1226138 0.1228648 0.123146 0.1234583 0.1237609 0.1240123
 0.1242146 0.1244014 0.1245942 0.124795 0.1250117 0.1252639 0.1255582 0.1258733 0.1261776 0.126455
 0.1267178 0.1269967 0.1273098 0.1276363 0.1279287 0.1281578 0.1283409 0.1285219 0.128735 0.1289874
 0.129266 0.1295511 0.129825 0.1300723 0.1302755 0.1304212 0.130515 0.1305824 0.1306411 0.1306755
 0.1306463 0.1305225 0.1302952 0.1299613 0.1295099 0.1289333 0.1282525 0.1275325 0.1268692 0.1263589
 0.1260699 0.1260329 0.1262452 0.1266742 0.1272556 0.1278993 0.1285066 0.1289873 0.1292664 0.129291
 0.1290468 0.1285657 0.1279101 0.1271464 0.1263286 0.1254964 0.1246804 0.1239196 0.1232899 0.1229113
 0.1229137 0.1233889 0.1243584 0.1257589 0.1274385 0.1291876 0.1308151 0.1322216 0.1334079 0.1344249
 0.1353249 0.1361474 0.1369226 0.1376683 0.138384 0.1390608 0.139696 0.1402949 0.1408561 0.1413652
 0.1418006 0.1421452 0.1423939 0.1425578 0.1426592 0.1427171 0.1427408 0.1427385 0.1427188 0.142674
 0.1425678 0.1423503 0.1419896 0.1414964 0.1409374 0.1404391 0.140174 0.140316 0.1409708 0.1421149
 0.1435914 0.1451791 0.1466839 0.1479871 0.149043 0.1498629 0.1504999 0.1510213 0.1514788 0.1518987
 0.1522925 0.1526671 0.1530273 0.1533779 0.1537228 0.1540649 0.1544066 0.154751 0.1550981 0.1554431
 0.1557815 0.1561161 0.1564552 0.1568038 0.1571574 0.1575066 0.1578497 0.1581962 0.1585522 0.1589071
 0.1592431 0.1595562 0.1598615 0.1601769 0.1605103 0.1608593 0.1612131 0.1615552 0.1618716 0.1621622
 0.1624398 0.1627178 0.1630016 0.1632902 0.1635808 0.1638703 0.1641553 0.1644346 0.1647108 0.1649894
 0.1652712 0.1655487 0.1658132 0.1660646 0.1663134 0.1665692 0.1668319 0.1670929 0.1673474 0.1676012
 0.1678658 0.1681446 0.1684256 0.1686938 0.1689464 0.1691928 0.1694409 0.1696903 0.1699393 0.1701906
 0.1704463 0.1707032 0.170955 0.1712001 0.1714431 0.1716893 0.1719393 0.1721908 0.1724419 0.1726924
 0.1729425 0.1731925 0.1734432 0.1736951 0.1739489 0.1742036 0.1744563 0.1747032 0.1749436 0.1751803
 0.1754163 0.1756531 0.1758908 0.1761282 0.1763638 0.1765984 0.1768354 0.1770777 0.1773242 0.1775714
 0.1778163 0.1780587 0.1783004 0.1785434 0.1787884 0.1790364 0.1792876 0.1795387 0.1797843 0.1800231
 0.1802587 0.1804953 0.1807345 0.1809751 0.1812143 0.1814501 0.1816836 0.1819179 0.1821546 0.1823946
 0.1826386 0.1828849 0.1831283 0.1833652 0.183597 0.1838275 0.1840592 0.1842927 0.1845274 0.1847619
 0.1849946 0.1852243 0.1854509 0.1856785 0.185914 0.1861609 0.1864153 0.1866693 0.1869158 0.1871515
 0.1873802 0.1876114 0.1878516 0.1880993 0.1883492 0.1885977 0.1888443 0.1890892 0.1893314 0.1895684
 0.189801 0.1900355 0.1902775 0.190526 0.1907767 0.1910279 0.1912795 0.1915317 0.1917852 0.1920409
 0.1922984 0.1925581 0.1928218 0.1930874 0.19335 0.1936075 0.1938606 0.1941085 0.1943491 0.1945809
 0.1948046 0.195024 0.1952461 0.1954749 0.1957083 0.1959434 0.196179 0.1964131 0.1966456 0.1968822
 0.1971268 0.197375 0.1976204 0.197862 0.1981024 0.1983458 0.1985967 0.1988549 0.1991142 0.1993722
 0.1996317 0.1998921 0.2001487 0.2004018 0.2006573 0.2009193 0.2011882 0.2014615 0.2017347 0.2020056
 0.2022769 0.2025491 0.2028192 0.2030878 0.2033579 0.2036266 0.2038907 0.2041557 0.2044282 0.2047064
 0.2049847 0.2052583 0.2055233 0.205783 0.2060489 0.2063258 0.2066052 0.2068805 0.2071542 0.2074281
 0.2077028 0.2079818 0.208264 0.208542 0.208815 0.2090885 0.2093619 0.2096316 0.2099006 0.2101701
 0.2104363 0.2107004 0.210965 0.2112183 0.2114359 0.2115691 0.2114879 0.2109125 0.2093743 0.2062269
 0.2007745 0.1925515 0.1816045 0.1685706 0.1544975 0.140514 0.1275272 0.1161039 0.1065468 0.0990124
 0.09359162 0.09038498 0.0895665 0.09147023 0.09670237 0.1057801 0.1178129 0.1293664 0.13575 0.134571
 0.127903 0.1204041 0.1155225 0.1138079 0.1140912 0.11522 0.1167362 0.1187485 0.1215386 0.1251499
 0.1293423 0.1339915 0.139325 0.1455741 0.1525204 0.1595735 0.1662666 0.1725604 0.1786689 0.1846903
 0.190462 0.1957177 0.200294 0.2041871 0.2074992 0.2103707 0.2129246 0.2152408 0.2173732 0.2193532
 0.2211472 0.2226409 0.2237079 0.2243112 0.2245478 0.2246011 0.2246404 0.2247502 0.2249445 0.2252195
 0.2255727 0.2259928 0.2264646 0.2269773 0.2275188 0.2280736 0.2286285 0.2291715 0.2296886 0.2301763
 0.2306445 0.2311 0.2315387 0.2319553 0.2323492 0.2327238 0.2330883 0.2334542 0.2338235 0.2341892
 0.2345464 0.2348946 0.2352319 0.2355546 0.2358596 0.2361432 0.236406 0.236657 0.2369066 0.2371586
 0.237413 0.2376687 0.2379222 0.2381716 0.238422 0.2386765 0.2389308 0.2391799 0.2394232 0.2396599
 0.2398893 0.2401172 0.2403512 0.2405924 0.2408365 0.2410805 0.2413233 0.2415649 0.2418064 0.2420475
 0.2422891 0.2425379 0.2428004 0.2430727 0.243345 0.2436146 0.2438856 0.2441586 0.2444313 0.2447036
 0.2449763 0.2452509 0.2455306 0.2458148 0.246092 0.246347 0.2465757 0.24679 0.2470075 0.2472392
 0.2474824 0.2477282 0.2479731 0.2482189 0.248464 0.2487037 0.2489386 0.2491741 0.249416 0.2496717
 0.2499485 0.2502426 0.2505402 0.2508321 0.25112 0.2514071 0.251695 0.2519866 0.2522837 0.2525802
 0.252866 0.2531405 0.2534197 0.2537251 0.2540621 0.2544103 0.2547426 0.2550514 0.255351 0.2556593
 0.2559851 0.2563211 0.2566375 0.256904 0.2571326 0.2573825 0.2577032 0.2580857 0.2584795 0.2588463
 0.2591833 0.2595079 0.2598324 0.2601517 0.2604483 0.2607086 0.2609446 0.2611988 0.2615143 0.2618904
 0.2622807 0.2626421 0.2629691 0.2632755 0.2635694 0.2638551 0.2641249 0.2643425 0.2644806 0.2645915
 0.2647967 0.2651716 0.2656611 0.2661367 0.2665237 0.2668464 0.2671596 0.2674795 0.2677911 0.2680637
 0.2682248 0.2681963 0.268036 0.267987 0.268282 0.2689093 0.2696398 0.2702593 0.2707108 0.2710463
 0.2713312 0.2716004 0.271839 0.2719824 0.2719854 0.2719271 0.2720048 0.2723565 0.2729057 0.2734429
 0.2738451 0.2741488 0.2744368 0.2747426 0.27503 0.2751758 0.2750244 0.2746003 0.2742501 0.2744178
 0.275214 0.276289 0.277182 0.2777312 0.2780753 0.278331 0.2784221 0.2782234 0.2777165 0.2769951
 0.2763089 0.2761037 0.2767288 0.2779882 0.2792215 0.2799665 0.2803556 0.2807814 0.2813867 0.2820049
 0.2824327 0.2826132 0.2825991 0.2824308 0.2821186 0.2817848 0.2817428 0.2822721 0.2832946 0.2843969
 0.2852172 0.2857293 0.2860783 0.2861622 0.2855213 0.2838852 0.2818905 0.2809191 0.2818703 0.2842134
 0.2865609 0.2880387 0.2887651 0.2892023 0.2895588 0.2897287 0.2892795 0.2875921 0.2846981 0.2820185
 0.2815036 0.2837099 0.2871771 0.2898446 0.2906277 0.289643 0.2876863 0.2858627 0.2851928 0.2860599
 0.2880498 0.2903722 0.2923334 0.2935278 0.2938684 0.2935474 0.2929543 0.2925689 0.2926568 0.2928662
 0.2924516 0.2912434 0.2899842 0.2891924 0.2882143 0.2862908 0.2842427 0.2839613 0.2860689 0.2890203
 0.2908953 0.291366 0.291351 0.29116 0.2897395 0.2860609 0.2810283 0.2774516 0.277643 0.2811073
 0.2850316 0.2870499 0.2871157 0.2866945 0.2867017 0.286532 0.2849594 0.2818748 0.2789598 0.2781824
 0.2795904 0.2812372 0.2813356 0.2795073 0.2758412 0.270448 0.264945 0.2627597 0.2661021 0.2732151
 0.2799306 0.2832691 0.2823696 0.2772435 0.2690832 0.2615624 0.259189 0.2631453 0.2699076 0.2746575
 0.2750845 0.2714873 0.2648084 0.2562193 0.2481393 0.2439416 0.2458088 0.2529777 0.2618675 0.2676222
 0.2665963 0.2592845 0.2510502 0.2480828 0.2515776 0.2569467 0.2592118 0.257685 0.2549345 0.2532839
 0.2535303 0.2553803 0.2577834 0.2597589 0.2611501 0.2612489 0.2574155 0.2479983 0.2366854 0.23055
 0.2327581 0.2400209 0.24796 0.2555136 0.2624854 0.2663816 0.2650653 0.2609811 0.2595919 0.2635451
 0.2701546 0.2748352 0.2757571 0.2745881 0.2734565 0.2724138 0.2704908 0.2684398 0.2687688 0.2726259
 0.278005 0.281922 0.2834067 0.2835108 0.2833101 0.2829962 0.2824256 0.2815659 0.2804574 0.2792313
 0.2781011 0.277128 0.2761731 0.2751709 0.2740623 0.2721957 0.2683728 0.2624057 0.2564574 0.2535551
 0.254412 0.2569723 0.2593652 0.2612625 0.2614155 0.256636 0.2459624 0.2343993 0.2294793 0.2339818
 0.243717 0.2522236 0.2558768 0.2543432 0.2483966 0.2395529 0.2315883 0.2298851 0.2372918 0.2511384
 0.2656297 0.2767423 0.2837583 0.2870218 0.2863881 0.2823634 0.2773952 0.2749085 0.2769531 0.2828548
 0.289731 0.293837 0.292196 0.2850465 0.2774656 0.2763042 0.2833986 0.2931321 0.2986293 0.2989567
 0.2981305 0.298741 0.2997288 0.2999061 0.3004437 0.302902 0.3066734 0.3094859 0.3094387 0.3058072
 0.2990418 0.2913219 0.286206 0.2858171 0.2885013 0.2907264 0.2907034 0.2884225 0.2834429 0.275861
 0.2690868 0.2680131 0.2734593 0.2809295 0.2857364 0.2873653 0.2880212 0.2886602 0.2878649 0.2842198
 0.2788259 0.2748232 0.2743149 0.2763854 0.2786051 0.2796584 0.2795528 0.2781043 0.2749446 0.2711408
 0.2693367 0.271405 0.2764426 0.2816472 0.2848867 0.285997 0.2859731 0.2856822 0.2853991 0.2849628
 0.2842017 0.2835282 0.2839683 0.2860715 0.2889537 0.2911027 0.2921257 0.2930735 0.2949638 0.2975383
 0.2996632 0.3005859 0.3005939 0.3006424 0.3014922 0.3030867 0.3046078 0.3051968 0.3048001 0.3043312
 0.3048512 0.3065562 0.3086972 0.3104394 0.3115635 0.312353 0.3131202 0.3139372 0.3145996 0.3147966
 0.3145205 0.3143142 0.3148683 0.3163078 0.3180488 0.3193928 0.3200992 0.3203509 0.3203646 0.3201794
 0.3197656 0.3191988 0.3186688 0.3183383 0.3182315 0.3182575 0.3183097 0.3183278 0.3183055 0.3182827
 0.318317 0.3184351 0.3186161 0.3188289 0.3190555 0.3192694 0.3194316 0.3195338 0.3196119 0.3196889
 0.3197277 0.3196569 0.3194185 0.3189724 0.3182772 0.3172939 0.3159941 0.3143468 0.312323 0.3099899
 0.3076711 0.305981 0.3055728 0.3067237 0.3091109 0.3119936 0.3146366 0.3166302 0.3179247 0.3186706
 0.3190522 0.3192084 0.3192219 0.3191298 0.3189455 0.3186823 0.318361 0.3180046 0.317636 0.3172794
 0.3169548 0.3166658 0.316395 0.3161104 0.3157784 0.3153763 0.3148991 0.314353 0.3137461 0.3130774
 0.3123292 0.3114769 0.3105165 0.3094869 0.3084575 0.3074871 0.3065892 0.3057288 0.304853 0.3039165
 0.3028698 0.30165 0.3002439 0.2987756 0.2974697 0.2964705 0.295711 0.2949884 0.2941407 0.2931261
 0.2919747 0.2907274 0.28942 0.2880803 0.2867187 0.2853237 0.2838704 0.282329 0.2806789 0.2789218
 0.2770784 0.2751753 0.2732366 0.2712788 0.2692873 0.2671885 0.2648486 0.2621095 0.2588322 0.2549243
 0.2503572 0.2451873 0.2395685 0.2337272 0.2279016 0.2222906 0.2170469 0.2122992 0.208165 0.2047436
 0.2021063 0.2002944 0.1993268 0.1992094 0.1999351 0.201471 0.2037413 0.2066244 0.2099647 0.2135825
 0.2172797 0.2208588 0.2241769 0.2271991 0.2299864 0.2326113 0.2350847 0.237361 0.2393946 0.2411715
 0.2426971 0.2439788 0.2450293 0.2458794 0.2465767 0.2471673 0.2476783 0.2481172 0.2484811 0.2487689
 0.248989 0.2491625 0.249317 0.2494785 0.2496643 0.2498833 0.2501395 0.250441 0.2508059 0.2512558
 0.2518011 0.2524332 0.2531291 0.2538657 0.2546331 0.2554434 0.2563279 0.2573265 0.2584745 0.2597913
 0.2612724 0.2628834 0.2645564 0.2661936 0.2676856 0.2689389 0.2699003 0.2705629 0.2709514 0.271099
 0.2710354 0.2707878 0.2703833 0.2698452 0.2691948 0.2684574 0.2676613 0.2668239 0.2659454 0.2650157
 0.2640321 0.2630099 0.2619793 0.2609687 0.259992 0.2590505 0.2581389 0.2572507 0.2563841 0.2555438
 0.254733 0.2539493 0.2531938 0.252475 0.2517943 0.2511314 0.2504453 0.2496859 0.2488087 0.2477865
 0.2466076 0.2452677 0.2437723 0.2421416 0.2404008 0.2385648 0.2366396 0.2346296 0.2325387 0.2303686
 0.2281136 0.2257614 0.223321 0.2208561 0.2184701 0.216245 0.2142045 0.2123313 0.2105947 0.2089625
 0.207409 0.2059177 0.2044784 0.2030887 0.2017563 0.2004902 0.1992946 0.1981748 0.1971388 0.1961904
 0.1953348 0.1945824 0.1939368 0.1933886 0.1929274 0.1925494 0.1922564 0.1920657 0.1920046 0.192067
 0.1921883 0.192283 0.1923009 0.1922464 0.1921602 0.1920873 0.1920474 0.1920345 0.1920328 0.1920069
 0.1918823 0.191559 0.1909403 0.189946 0.188533 0.1867297 0.1846369 0.1823948 0.1801586 0.1780787
 0.1762693 0.1747932 0.1736676 0.1728543 0.1722594 0.1717905 0.1714267 0.1712258 0.1712676 0.1715654
 0.1719943 0.1723454 0.1725143 0.172622 0.1729054 0.173513 0.1744188 0.1754757 0.1765152 0.1774272
 0.1781751 0.1787544 0.1791707 0.1794502 0.1796247 0.1796992 0.1796605 0.1795013 0.1792202 0.1788273
 0.1783521 0.1778129 0.1771943 0.1764808 0.1756785 0.1747869 0.1737935 0.1726936 0.1714683 0.1700846
 0.168594 0.167211 0.1662336 0.1658862 0.1662107 0.1670481 0.168146 0.1693265 0.1705099 0.1715909
 0.172442 0.1731163 0.1739406 0.1752955 0.1772909 0.1796528 0.181917 0.1837299 0.1849639 0.185613
 0.1857058 0.1853072 0.1844671 0.1831671 0.1814146 0.1793286 0.1770599 0.1747339 0.1725014 0.1705067
 0.168803 0.1673927 0.1662655 0.1654128 0.1649077 0.164488 0.1625649 0.1567812 0.1473581 0.1392604
 0.1384437 0.1454322 0.1545848 0.1601516 0.1611589 0.1600302 0.1587766 0.1578314 0.1571216 0.1567239
 0.1566917 0.1569099 0.1571483 0.1571773 0.156908 0.1563641 0.1554194 0.153569 0.1499292 0.1435533
 0.1341258 0.1226076 0.111034 0.1014339 0.0948268 0.0910096 0.08899397 0.08769798 0.08657061 0.08577815
 0.08582862 0.08705001 0.08941413 0.09270312 0.09666431 0.1009696 0.1051564 0.1087752 0.1116281 0.1137841
 0.1153629 0.1164031 0.116927 0.1170054 0.1167254 0.1161629 0.1153847 0.1144201 0.1132439 0.1118388
 0.1102881 0.1087986 0.1076111 0.1068477 0.1064454 0.1062564 0.1061852 0.1061996 0.1062704 0.1063674
 0.1064877 0.1066492 0.1068737 0.1071774 0.1075452 0.1079159 0.108221 0.1084295 0.1085459 0.108573
 0.1084804 0.1082249 0.1078279 0.1073955 0.1069771 0.1064296 0.1055363 0.1042918 0.103007 0.1021091
 0.1018467 0.1021429 0.1026796 0.1031315 0.1033648 0.1034436 0.1034736 0.1034545 0.1032732 0.1028297
</values></Ydata></ScRf><Data_Parameters_AB><parameter name="DPF">1</parameter><parameter name="NPT">3497</parameter><parameter name="FXV">3996</parameter><parameter name="LXV">500</parameter><parameter name="CSF">1</parameter><parameter name="MXY">0.175927430391312</parameter><parameter name="MNY">-0.0831970721483231</parameter><parameter name="DAT">18/01/2024</parameter><parameter name="TIM">11:26:29.328 (GMT+1)</parameter><parameter name="DXU">WN</parameter></Data_Parameters_AB><AB__Qtest><MainReport name="Quality Test Report"><Header><Line><Legend>Test result ok/not ok [1/0]: </Legend><Value>0</Value></Line><Line><Legend>Method file: </Legend><Value>C:\Users\Public\Documents\Bruker\OPUS_8.2.28\QT\IRBT_v3_default.QT</Value></Line></Header><Matrix><Line><Legend></Legend><Legend>min</Legend><Legend>max</Legend><Legend>measured</Legend></Line><Line><Value>Absorption (X-Range 1):</Value><Value>0.400000</Value><Value>2.000000</Value><Value>0.223365</Value></Line><Line><Value>Noise (X-Range 4):</Value><Value></Value><Value>0.000300</Value><Value>0.000021</Value></Line><Line><Value>Signal/Noise (X-Range 2):</Value><Value>200.000000</Value><Value></Value><Value>240.671148</Value></Line><Line><Value>Signal/Noise (X-Range 3):</Value><Value>40.000000</Value><Value></Value><Value>84.575959</Value></Line><Line><Value>Water vapour (X-Range 5):</Value><Value></Value><Value>0.000300</Value><Value>0.000019</Value></Line><Line><Value>Signal/Water (X-Range 2):</Value><Value>100.000000</Value><Value></Value><Value>262.536051</Value></Line><Line><Value>Signal/Water (X-Range 3):</Value><Value>20.000000</Value><Value></Value><Value>92.259660</Value></Line><Line><Value>Fringes (X-Range 6):</Value><Value></Value><Value>0.000100</Value><Value>0.000026</Value></Line></Matrix></MainReport></AB__Qtest><Data_Parameters_ScSm><parameter name="DPF">1</parameter><parameter name="NPT">1814</parameter><parameter name="FXV">3996.63438082617</parameter><parameter name="LXV">499.579297603271</parameter><parameter name="CSF">1</parameter><parameter name="MXY">0.378474980592728</parameter><parameter name="MNY">0.0807075798511505</parameter><parameter name="DAT">18/01/2024</parameter><parameter name="TIM">11:26:29.328 (GMT+1)</parameter><parameter name="DXU">WN</parameter></Data_Parameters_ScSm><Data_Parameters_ScRf><parameter name="DPF">1</parameter><parameter name="NPT">1820</parameter><parameter name="FXV">4004.34989121387</parameter><parameter name="LXV">495.721542409425</parameter><parameter name="CSF">1</parameter><parameter name="MXY">0.320364594459534</parameter><parameter name="MNY">0.0691030994057655</parameter><parameter name="DAT">18/01/2024</parameter><parameter name="TIM">11:26:03.467 (GMT+1)</parameter><parameter name="DXU">WN</parameter></Data_Parameters_ScRf><Optic_Parameters_Rf><parameter name="APR">0</parameter><parameter name="APT">Open</parameter><parameter name="BMS">KBr</parameter><parameter name="DTC">RT-DLaTGS_IR-Biotyper [Microplate reader]</parameter><parameter name="HPF">0</parameter><parameter name="LPF">10.0</parameter><parameter name="LPV">4000</parameter><parameter name="PGR">0</parameter><parameter name="RCH">Module port</parameter><parameter name="RDX">0</parameter><parameter name="SRC">MIR</parameter><parameter name="VEL">10.0</parameter><parameter name="SON">Off</parameter></Optic_Parameters_Rf><Acquisition_Parameters_Rf><parameter name="ADT">1</parameter><parameter name="AQM">DD</parameter><parameter name="CFE">0</parameter><parameter name="COR">0</parameter><parameter name="DEL">0</parameter><parameter name="DLY">0</parameter><parameter name="HFW">8000</parameter><parameter name="LFW">0</parameter><parameter name="NSR">32</parameter><parameter name="PLF">AB</parameter><parameter name="RES">6</parameter><parameter name="RGN">-1</parameter><parameter name="STR">0</parameter><parameter name="TCL">MakeCompatibleScalar (0, {WSV=1.000000, ARV=0});</parameter><parameter name="TDL">37</parameter><parameter name="RPO">0</parameter></Acquisition_Parameters_Rf><FT_-_Parameters_Rf><parameter name="APF">B3</parameter><parameter name="HFQ">500</parameter><parameter name="LFQ">4000</parameter><parameter name="NLI">0</parameter><parameter name="PHR">24</parameter><parameter name="PHZ">ML</parameter><parameter name="SPZ">NO</parameter><parameter name="ZFF">1</parameter></FT_-_Parameters_Rf><Optic_Parameters_><parameter name="APR">0</parameter><parameter name="APT">Open</parameter><parameter name="BMS">KBr</parameter><parameter name="CHN">Module port</parameter><parameter name="DTC">RT-DLaTGS_IR-Biotyper [Microplate reader]</parameter><parameter name="HPF">0</parameter><parameter name="LPF">10.0</parameter><parameter name="LPV">4000</parameter><parameter name="PGN">0</parameter><parameter name="RDX">0</parameter><parameter name="SRC">MIR</parameter><parameter name="VEL">10.0</parameter><parameter name="SON">Off</parameter></Optic_Parameters_><FT_-_Parameters_><parameter name="APF">B3</parameter><parameter name="HFQ">500</parameter><parameter name="LFQ">4000</parameter><parameter name="NLI">0</parameter><parameter name="PHR">24</parameter><parameter name="PHZ">ML</parameter><parameter name="SPZ">NO</parameter><parameter name="ZFF">1</parameter></FT_-_Parameters_><Acquisition_Parameters_><parameter name="ADT">1</parameter><parameter name="AQM">DD</parameter><parameter name="CFE">0</parameter><parameter name="COR">0</parameter><parameter name="DEL">0</parameter><parameter name="DLY">0</parameter><parameter name="HFW">8000</parameter><parameter name="LFW">0</parameter><parameter name="NSS">32</parameter><parameter name="PLF">AB</parameter><parameter name="RES">6</parameter><parameter name="SOT">0</parameter><parameter name="TCL">MakeCompatibleScalar (0, {WSV=1.000000, ARV=0});</parameter><parameter name="TDL">37</parameter><parameter name="SPO">0</parameter><parameter name="SGN">-1</parameter></Acquisition_Parameters_><Instrument_Parameters_Rf><parameter name="HFL">15801.365274</parameter><parameter name="LFL">0</parameter><parameter name="LWN">15801.365274</parameter><parameter name="ABP">32157</parameter><parameter name="SSP">1</parameter><parameter name="ARG">2</parameter><parameter name="ASG">2</parameter><parameter name="ASS">32</parameter><parameter name="GFW">16</parameter><parameter name="GBW">16</parameter><parameter name="BFW">0</parameter><parameter name="BBW">0</parameter><parameter name="PKA">9303</parameter><parameter name="PKL">4987</parameter><parameter name="PRA">9270</parameter><parameter name="PRL">5010</parameter><parameter name="P2A">1</parameter><parameter name="P2L">1</parameter><parameter name="P2R">1</parameter><parameter name="P2K">1</parameter><parameter name="DAQ">0</parameter><parameter name="AG2">1</parameter><parameter name="SSM">1</parameter><parameter name="RSN">46572</parameter><parameter name="CRR">0</parameter><parameter name="SRT">1705577163.467</parameter><parameter name="DUR">19.6449890136719</parameter><parameter name="TSC">31.9</parameter><parameter name="MVD">0.256227970123291</parameter><parameter name="AN1">0.226007731836454</parameter><parameter name="AN2">0</parameter><parameter name="VSN">2.485 Apr  4 2017</parameter><parameter name="SRN">0085</parameter><parameter name="CAM">0</parameter><parameter name="INS">IR-Biotyper</parameter><parameter name="FOC">69</parameter><parameter name="RDY">1</parameter><parameter name="ARS">32</parameter></Instrument_Parameters_Rf><Sample_Parameters_><parameter name="BLD"></parameter><parameter name="CNM">Admin</parameter><parameter name="CPY"></parameter><parameter name="DPM"></parameter><parameter name="EXP">IRBT_v3_32Scans.XPM</parameter><parameter name="LCT"></parameter><parameter name="SFM">Microplate, HTS-XT</parameter><parameter name="SNM">240118-1045-Cdiff_SCFA_2_C21_232120787_C5_5982140a-9a60-4c0b-a6cf-99f5dca85eb2.0</parameter><parameter name="XPP">C:\Users\Public\Documents\Bruker\OPUS_8.2.28\XPM</parameter><parameter name="IST">OK</parameter><parameter name="CPG">1252</parameter><parameter name="UID">aa229a21-4e2e-4c04-8279-03e600af8e5d</parameter></Sample_Parameters_><Instrument_Parameters_><parameter name="HFL">15801.365274</parameter><parameter name="LFL">0</parameter><parameter name="LWN">15801.365274</parameter><parameter name="ABP">32157</parameter><parameter name="SSP">1</parameter><parameter name="ASG">2</parameter><parameter name="ARG">2</parameter><parameter name="ASS">32</parameter><parameter name="GFW">16</parameter><parameter name="GBW">16</parameter><parameter name="BFW">0</parameter><parameter name="BBW">0</parameter><parameter name="PKA">10045</parameter><parameter name="PKL">4979</parameter><parameter name="PRA">10036</parameter><parameter name="PRL">5002</parameter><parameter name="P2A">1</parameter><parameter name="P2L">1</parameter><parameter name="P2R">1</parameter><parameter name="P2K">1</parameter><parameter name="DAQ">0</parameter><parameter name="AG2">1</parameter><parameter name="SSM">1</parameter><parameter name="RSN">23979</parameter><parameter name="CRR">0</parameter><parameter name="SRT">1705577189.329</parameter><parameter name="DUR">19.64599609375</parameter><parameter name="TSC">31.9</parameter><parameter name="MVD">0.391649663448334</parameter><parameter name="AN1">0.22599340120394</parameter><parameter name="AN2">0</parameter><parameter name="VSN">2.485 Apr  4 2017</parameter><parameter name="SRN">0085</parameter><parameter name="CAM">0</parameter><parameter name="INS">IR-Biotyper</parameter><parameter name="FOC">69</parameter><parameter name="RDY">1</parameter></Instrument_Parameters_><History/></OPUSDataFile>
