<?xml version="1.0" encoding="UTF-8" ?>
<OPUSDataFile><AB><Ydata ylabel="Absorbance Units"><values byteorder="INTEL" format="FLOAT32" numvalues="3497"> -0.0785673 -0.0785438 -0.078516 -0.07848591 -0.07846094 -0.07843924 -0.07842013 -0.07840224 -0.07838232 -0.07836242
 -0.07834314 -0.0783274 -0.07831865 -0.07831445 -0.07831562 -0.0783152 -0.07831056 -0.07829943 -0.07827962 -0.07825821
 -0.0782357 -0.07821938 -0.07821026 -0.07820583 -0.07820592 -0.07820262 -0.0781961 -0.07818478 -0.07817011 -0.07815912
 -0.07815225 -0.07815563 -0.07816644 -0.07818213 -0.07819869 -0.07820804 -0.07821041 -0.07820145 -0.07818746 -0.07817124
 -0.07815891 -0.07815567 -0.07815918 -0.07817111 -0.07818217 -0.07819043 -0.07818989 -0.07817874 -0.0781598 -0.07813288
 -0.0781056 -0.07807834 -0.07805786 -0.07804433 -0.07804212 -0.07805068 -0.07807005 -0.07809822 -0.07812901 -0.07815982
 -0.0781813 -0.07819341 -0.078191 -0.07817785 -0.07815534 -0.07812899 -0.07810295 -0.07808196 -0.07806933 -0.078068
 -0.07808048 -0.07810442 -0.07814109 -0.07818032 -0.07822143 -0.07825158 -0.07826931 -0.07826985 -0.07825298 -0.07822651
 -0.07819134 -0.07816053 -0.07813432 -0.07812119 -0.07811994 -0.0781315 -0.07815347 -0.07818155 -0.07821251 -0.07823966
 -0.07826038 -0.07826854 -0.07826535 -0.07824836 -0.07822414 -0.07819445 -0.0781681 -0.07814883 -0.07814096 -0.07814731
 -0.07816309 -0.07818884 -0.07821295 -0.07823452 -0.07824364 -0.07823978 -0.07822336 -0.07819516 -0.07816456 -0.07813241
 -0.07810868 -0.07809278 -0.07808811 -0.07809305 -0.07810539 -0.07812429 -0.07814729 -0.07817451 -0.0782057 -0.07823945
 -0.07827555 -0.07830974 -0.07833982 -0.0783627 -0.07837582 -0.07838216 -0.07838178 -0.07837854 -0.07837364 -0.07836448
 -0.07835087 -0.07833101 -0.07830478 -0.07828312 -0.07826693 -0.07827229 -0.07829746 -0.07834226 -0.07840022 -0.07844821
 -0.07848145 -0.07847266 -0.07843174 -0.07835925 -0.078275 -0.07820436 -0.07815283 -0.07813616 -0.07814348 -0.07817397
 -0.07821459 -0.07826021 -0.07830311 -0.07834037 -0.07836872 -0.07838703 -0.07839517 -0.07839274 -0.07838404 -0.07836928
 -0.07835335 -0.0783362 -0.07831817 -0.07829925 -0.07827913 -0.07825921 -0.07824462 -0.0782365 -0.07824121 -0.07825651
 -0.07828244 -0.07831425 -0.07834695 -0.07837561 -0.07839492 -0.07840114 -0.07839008 -0.07836269 -0.07831606 -0.07826215
 -0.07820201 -0.0781527 -0.078118 -0.07810295 -0.07810935 -0.07812633 -0.07815335 -0.07817705 -0.0781972 -0.0782088
 -0.07821207 -0.07820615 -0.07819089 -0.07816418 -0.07812799 -0.07808486 -0.07803974 -0.0780028 -0.0779757 -0.07796626
 -0.07796867 -0.07798167 -0.07799716 -0.07800969 -0.07801605 -0.07801297 -0.07800281 -0.07798503 -0.07796499 -0.07794315
 -0.07792629 -0.07791527 -0.07791361 -0.07792167 -0.07793421 -0.07795081 -0.07796321 -0.077972 -0.07797676 -0.07797901
 -0.07798549 -0.07799507 -0.07800933 -0.07802393 -0.07803135 -0.07803008 -0.07801323 -0.07798696 -0.07795309 -0.07792023
 -0.07789524 -0.07787816 -0.07787206 -0.07786886 -0.07786638 -0.07786168 -0.07785257 -0.07784818 -0.07784939 -0.07786252
 -0.07788832 -0.07791364 -0.07793749 -0.07793998 -0.07792302 -0.07788976 -0.07784439 -0.07780773 -0.07777678 -0.07775525
 -0.07773612 -0.07770491 -0.07766665 -0.07761914 -0.0775758 -0.07755022 -0.07754233 -0.07756018 -0.07758532 -0.07761284
 -0.07762605 -0.07761694 -0.07758931 -0.07754125 -0.0774877 -0.07743042 -0.07737634 -0.07732619 -0.07727753 -0.07723019
 -0.07717995 -0.07712715 -0.07707181 -0.07701519 -0.07696232 -0.07691471 -0.07687943 -0.07685585 -0.07684766 -0.07684939
 -0.07685754 -0.0768618 -0.07685168 -0.07682133 -0.07676084 -0.07668067 -0.07658055 -0.07647935 -0.07638376 -0.07629845
 -0.07622714 -0.07615768 -0.07608924 -0.07601035 -0.07591999 -0.07581889 -0.07570745 -0.0755944 -0.07548001 -0.07537103
 -0.07526567 -0.07516123 -0.0750532 -0.07492781 -0.07478242 -0.07460272 -0.07439608 -0.07416344 -0.07391997 -0.07368011
 -0.07345244 -0.07324871 -0.07306372 -0.07290055 -0.07274296 -0.0725889 -0.0724164 -0.07222068 -0.07198945 -0.07171908
 -0.071421 -0.07109541 -0.07076376 -0.07042658 -0.07009038 -0.06975432 -0.06941395 -0.06906995 -0.06872337 -0.06837519
 -0.06802958 -0.06768496 -0.06734064 -0.0669938 -0.06664034 -0.06627853 -0.06590464 -0.06552026 -0.06512445 -0.06472215
 -0.06431649 -0.06390599 -0.06349377 -0.06306277 -0.06261054 -0.0621214 -0.0615907 -0.0610345 -0.06045289 -0.05988179
 -0.05932228 -0.05878774 -0.05827595 -0.05777379 -0.05727967 -0.05677871 -0.05627281 -0.05575931 -0.05524145 -0.05472565
 -0.05421055 -0.05370071 -0.05318309 -0.05264917 -0.05208221 -0.05146319 -0.05080314 -0.0500949 -0.04938113 -0.0486749
 -0.04799817 -0.04736283 -0.04674315 -0.04613854 -0.04551447 -0.04486755 -0.0441952 -0.04349797 -0.04279884 -0.04209812
 -0.04140912 -0.04072835 -0.04004662 -0.03936064 -0.03865443 -0.03793061 -0.03718509 -0.03642587 -0.03566281 -0.03490033
 -0.03414796 -0.03340179 -0.03266235 -0.03192448 -0.0311851 -0.03044427 -0.02970121 -0.02895757 -0.02821369 -0.02747001
 -0.02672684 -0.02598295 -0.02523866 -0.02448384 -0.02371776 -0.02292217 -0.02209766 -0.02124008 -0.02035495 -0.01946647
 -0.01857937 -0.0177232 -0.01689305 -0.0160951 -0.01531779 -0.0145473 -0.01377526 -0.01298648 -0.01218326 -0.01136027
 -0.01052978 -0.009696552 -0.008868106 -0.008050674 -0.007233757 -0.006417389 -0.005584608 -0.00473173 -0.003860837 -0.002971056
 -0.002082353 -0.00119556 -0.0003222064 0.0005385811 0.001391094 0.002236009 0.003078887 0.003919307 0.004758311 0.005596464
 0.00643531 0.007275752 0.008119793 0.00896783 0.009820357 0.01067949 0.01154633 0.01242416 0.01331598 0.01421905
 0.01513497 0.01605205 0.01696845 0.01787315 0.0187635 0.01964097 0.02050494 0.02136816 0.02223122 0.0231041
 0.02398627 0.02487615 0.02577261 0.02666897 0.02756533 0.02845868 0.02934945 0.03023735 0.03112216 0.03200306
 0.03288098 0.03375661 0.03463052 0.03550395 0.03637499 0.03724262 0.03810703 0.03896677 0.03982847 0.0406933
 0.04156663 0.04245019 0.04333992 0.04423591 0.04512952 0.04602034 0.04690407 0.04778083 0.04865061 0.0495136
 0.05037066 0.05122185 0.05206789 0.05290852 0.05374303 0.05457254 0.05539731 0.05622157 0.05705008 0.05788506
 0.05873148 0.05958347 0.06044021 0.06129364 0.06213975 0.06297874 0.06380931 0.06463658 0.06546152 0.06628432
 0.06710531 0.06792071 0.06873037 0.06953175 0.07032495 0.07110984 0.07188722 0.07266111 0.07343282 0.07420979
 0.07499082 0.07577807 0.07656699 0.07735129 0.07812817 0.07889102 0.0796427 0.0803825 0.08111582 0.08184483
 0.08257461 0.08330717 0.08404662 0.08479498 0.08555035 0.08631367 0.08707521 0.08783438 0.08858086 0.08931411
 0.09003051 0.09073045 0.09141738 0.0920926 0.09276491 0.0934357 0.09411499 0.09480162 0.09549889 0.0962026
 0.09690747 0.09761056 0.09830568 0.09899452 0.09967583 0.1003534 0.1010289 0.1017049 0.1023827 0.1030624
 0.1037446 0.1044267 0.1051085 0.1057885 0.1064663 0.1071448 0.1078241 0.1085063 0.1091914 0.1098762
 0.1105603 0.1112398 0.1119155 0.112588 0.1132581 0.1139276 0.1145958 0.1152622 0.1159269 0.1165898
 0.1172523 0.1179158 0.1185799 0.1192453 0.1199098 0.1205727 0.1212334 0.1218916 0.1225484 0.1232044
 0.1238561 0.1245036 0.1251366 0.1257546 0.1263481 0.1269176 0.1274666 0.1279973 0.128526 0.1290525
 0.1295869 0.1301232 0.1306513 0.1311665 0.131653 0.1321175 0.1325591 0.1329915 0.1334264 0.1338694
 0.1343288 0.1347986 0.135279 0.1357625 0.1362469 0.1367288 0.1372067 0.137682 0.1381542 0.13863
 0.1391099 0.1396009 0.1401026 0.1406087 0.1411166 0.1416053 0.1420729 0.1424992 0.1428882 0.1432375
 0.1435561 0.1438577 0.1441492 0.1444452 0.144746 0.1450564 0.1453755 0.1457029 0.1460426 0.1463965
 0.1467657 0.1471537 0.1475447 0.1479381 0.1483107 0.1486588 0.1489784 0.1492686 0.1495519 0.1498295
 0.1501273 0.1504436 0.1507818 0.1511363 0.1514879 0.1518328 0.1521497 0.1524429 0.1527073 0.1529549
 0.1531968 0.1534458 0.1537167 0.154014 0.1543462 0.1547065 0.1550962 0.1555001 0.1559154 0.1563256
 0.1567269 0.1571116 0.1574775 0.1578307 0.1581714 0.1585129 0.158856 0.1592102 0.1595753 0.1599547
 0.160349 0.1607619 0.1611933 0.161648 0.1621187 0.1625997 0.1630715 0.1635104 0.1638945 0.1641934
 0.1644081 0.1645229 0.1645734 0.1645663 0.1645457 0.1645274 0.1645257 0.1645492 0.1645757 0.164605
 0.1646028 0.1645668 0.1644713 0.1643158 0.1640913 0.1638001 0.1634529 0.1630539 0.1626263 0.1621709
 0.1617033 0.1612185 0.1607147 0.1601872 0.1596274 0.1590389 0.1584202 0.1577793 0.1571222 0.156448
 0.1557614 0.1550442 0.1542944 0.1534877 0.1526176 0.1516801 0.1506717 0.14962 0.1485262 0.1474295
 0.1463313 0.1452533 0.1441941 0.1431552 0.1421356 0.141132 0.1401439 0.1391694 0.1382071 0.1372532
 0.1363083 0.1353708 0.1344448 0.1335344 0.1326394 0.1317633 0.1308959 0.1300343 0.1291687 0.1282941
 0.1274144 0.126528 0.1256518 0.1247871 0.123952 0.1231479 0.1223823 0.1216545 0.1209515 0.1202703
 0.1195798 0.1188786 0.1181406 0.1173722 0.1165749 0.1157606 0.1149529 0.1141579 0.1133955 0.11266
 0.1119542 0.1112667 0.1105907 0.109919 0.1092463 0.1085726 0.1078966 0.1072212 0.1065467 0.1058747
 0.1052054 0.1045395 0.103877 0.1032198 0.1025679 0.1019225 0.1012832 0.1006468 0.1000118 0.09937024
 0.09872072 0.09805495 0.09737407 0.09667525 0.09596308 0.09524199 0.09451728 0.09379621 0.09307911 0.09236941
 0.09166206 0.09095548 0.09024639 0.08953249 0.08881722 0.08810069 0.08738718 0.0866777 0.08597028 0.08526491
 0.08455693 0.08384622 0.08313253 0.08241624 0.08170082 0.08098598 0.0802725 0.07955954 0.07884465 0.07812818
 0.07740908 0.07668944 0.07597175 0.07525736 0.07454893 0.07384536 0.0731467 0.07245184 0.07175987 0.07107178
 0.07038788 0.06970792 0.0690321 0.06835847 0.06768605 0.06702086 0.06636292 0.06572712 0.06511387 0.0645269
 0.06396345 0.06340092 0.06283604 0.06223879 0.06161365 0.06095541 0.06027642 0.05959899 0.05893234 0.05830109
 0.05770252 0.05714545 0.0566165 0.05611096 0.05561291 0.05511324 0.05460502 0.05408206 0.05355283 0.05301687
 0.05248941 0.0519729 0.05147287 0.05099035 0.05051864 0.05005755 0.04960393 0.04915918 0.04873487 0.04833317
 0.0479719 0.04764917 0.0473715 0.04712906 0.04690748 0.04669185 0.04645439 0.04618681 0.04586661 0.04550478
 0.04509743 0.04467176 0.04423891 0.04382021 0.04342735 0.04305908 0.04271843 0.04239256 0.04207942 0.04177633
 0.04148251 0.04120608 0.04094729 0.04070675 0.04048329 0.04026477 0.04005121 0.03983521 0.03962052 0.03941543
 0.03922215 0.03905185 0.03889845 0.03875967 0.0386245 0.03848016 0.03832161 0.03813915 0.03793932 0.03772172
 0.03749693 0.03726975 0.03704038 0.03681202 0.03656854 0.03630856 0.03601511 0.0356857 0.03532743 0.03494106
 0.03456143 0.03419033 0.03386119 0.03357055 0.03332034 0.03310158 0.03288681 0.03266938 0.03242011 0.03214078
 0.03182006 0.03146589 0.0310823 0.03067599 0.03025352 0.02981686 0.02936842 0.02890933 0.02843972 0.02796345
 0.02748105 0.02699719 0.02651242 0.02603099 0.02555301 0.02508693 0.02463323 0.02420318 0.02379631 0.02341253
 0.02304869 0.02268743 0.02232703 0.02195048 0.02156298 0.02116681 0.02076955 0.02038599 0.02001466 0.01966266
 0.01931714 0.0189717 0.01861407 0.01823477 0.01783359 0.01740673 0.01696403 0.01650624 0.01604577 0.01558412
 0.01513279 0.01469265 0.01427573 0.01388269 0.01352562 0.0132048 0.01292808 0.01269384 0.01249909 0.01233871
 0.01219502 0.01206191 0.01191576 0.01175669 0.01157135 0.01137112 0.01116087 0.01095778 0.01077583 0.0106274
 0.01052325 0.01046597 0.01045912 0.01050062 0.01059015 0.01072806 0.01091374 0.01115263 0.01144504 0.01179702
 0.0122089 0.01268145 0.01321451 0.01380537 0.01445478 0.01516527 0.01593854 0.01678305 0.01769702 0.01868288
 0.01973241 0.02083502 0.02198037 0.02315322 0.02434647 0.02555029 0.02676011 0.02797167 0.02918071 0.03038479
 0.03158175 0.03277025 0.03395176 0.03512635 0.03629539 0.0374595 0.03861275 0.03975486 0.04086784 0.04194964
 0.0429708 0.0439277 0.04478575 0.04553978 0.04615519 0.0466245 0.04691363 0.04701671 0.0469043 0.04658819
 0.04605758 0.04536435 0.04452783 0.04364588 0.04276348 0.04199156 0.04137997 0.04099689 0.0408754 0.0410077
 0.04140305 0.04200029 0.04279562 0.04372642 0.04478892 0.04594717 0.04720039 0.04853115 0.04993904 0.0514115
 0.05294947 0.05454718 0.05621112 0.05794911 0.0597788 0.06172634 0.06382311 0.06611153 0.06862453 0.07141021
 0.07445904 0.07781157 0.08132932 0.08503148 0.08854149 0.09183295 0.09428287 0.09580674 0.09581053 0.09420284
 0.09089562 0.08587337 0.07975072 0.07258463 0.06532736 0.05801673 0.05138319 0.04538618 0.04028055 0.03597244
 0.0323667 0.02937436 0.02680345 0.02459879 0.02262324 0.0208461 0.01920173 0.01766952 0.01622207 0.0148483
 0.01353721 0.01228939 0.01110226 0.009982557 0.008930782 0.007953699 0.007051668 0.006233934 0.005500986 0.004866689
 0.004331574 0.003906604 0.003590239 0.003379486 0.003269245 0.00324124 0.003285416 0.003372034 0.003482546 0.00357634
 0.003627467 0.003589137 0.003444314 0.003156855 0.002741967 0.002188798 0.001549645 0.0008352834 0.0001144138 -0.0005969597
 -0.001233277 -0.001783884 -0.002187925 -0.002440661 -0.002470869 -0.002274882 -0.001743827 -0.0008701343 0.0004919756 0.002335298
 0.004722767 0.007566904 0.01061716 0.01366261 0.01605364 0.01759041 0.01755156 0.01603812 0.01277153 0.008252605
 0.002746242 -0.003137148 -0.008959832 -0.01437976 -0.01912276 -0.02320416 -0.02655388 -0.02936365 -0.03165257 -0.03359755
 -0.03522059 -0.03662918 -0.03783163 -0.03889361 -0.03981791 -0.0406518 -0.04139659 -0.04208461 -0.04271627 -0.04331053
 -0.0438675 -0.0443968 -0.04489909 -0.04537949 -0.04583973 -0.04628392 -0.04671336 -0.04713063 -0.04753603 -0.04793004
 -0.04831414 -0.04868827 -0.04905674 -0.0494205 -0.04978367 -0.05014738 -0.05051247 -0.05087956 -0.05124407 -0.05160587
 -0.05195636 -0.05229522 -0.05261596 -0.05291964 -0.05321045 -0.05349075 -0.05377341 -0.05405844 -0.05435382 -0.0546551
 -0.05495792 -0.055258 -0.05554678 -0.05582573 -0.05609208 -0.05635169 -0.05660781 -0.05686298 -0.05712014 -0.05737558
 -0.05762913 -0.05787594 -0.05811474 -0.05834457 -0.05856502 -0.05877728 -0.05898137 -0.05917915 -0.05937085 -0.05956065
 -0.05974904 -0.0599423 -0.06013985 -0.06034322 -0.06055009 -0.06075485 -0.06095577 -0.06114613 -0.06132754 -0.06149888
 -0.0616635 -0.06182428 -0.06198306 -0.06214208 -0.06230125 -0.06246133 -0.06262073 -0.06277942 -0.06293461 -0.06308585
 -0.06323044 -0.06336782 -0.06349835 -0.06362191 -0.06374264 -0.06386079 -0.06398144 -0.06410453 -0.06423198 -0.06436314
 -0.06449621 -0.06463058 -0.06476335 -0.06489481 -0.06502395 -0.06515166 -0.06527884 -0.06540574 -0.06553302 -0.06566032
 -0.06578755 -0.0659145 -0.06604087 -0.06616727 -0.06629374 -0.06642122 -0.06654975 -0.06668094 -0.06681503 -0.06695289
 -0.06709466 -0.06723965 -0.06738776 -0.06753645 -0.06768564 -0.0678336 -0.06798042 -0.06812565 -0.06826919 -0.06841046
 -0.06854936 -0.06868524 -0.0688185 -0.0689495 -0.06907835 -0.06920565 -0.06933028 -0.06945194 -0.06956882 -0.06967991
 -0.06978459 -0.06988202 -0.06997429 -0.07006139 -0.07014686 -0.07023115 -0.07031678 -0.07040409 -0.07049196 -0.07058029
 -0.07066578 -0.07074841 -0.0708266 -0.07090095 -0.07097342 -0.07104456 -0.07111742 -0.0711914 -0.07126701 -0.07134277
 -0.07141677 -0.07148805 -0.07155481 -0.07161727 -0.07167466 -0.07172872 -0.07177971 -0.07183042 -0.07188157 -0.07193597
 -0.07199453 -0.07205767 -0.07212589 -0.07219627 -0.0722687 -0.07233948 -0.0724085 -0.07247519 -0.07253983 -0.07260495
 -0.07267066 -0.07273924 -0.07280987 -0.07288149 -0.07295288 -0.07302072 -0.07308494 -0.07314362 -0.07319842 -0.07324993
 -0.07330076 -0.07335299 -0.07340787 -0.07346697 -0.07352902 -0.07359435 -0.07365979 -0.07372481 -0.07378634 -0.07384378
 -0.0738963 -0.07394367 -0.07398731 -0.07402731 -0.07406595 -0.07410336 -0.0741414 -0.07418021 -0.07422142 -0.07426497
 -0.07431163 -0.0743609 -0.07441216 -0.07446486 -0.07451784 -0.07457108 -0.07462408 -0.07467704 -0.07473022 -0.07478289
 -0.07483495 -0.07488514 -0.07493286 -0.07497808 -0.07502048 -0.07506172 -0.07510194 -0.07514285 -0.07518467 -0.0752278
 -0.07527229 -0.07531744 -0.07536318 -0.07540838 -0.07545287 -0.07549513 -0.07553507 -0.07557155 -0.07560478 -0.07563446
 -0.07566134 -0.07568631 -0.07571029 -0.07573455 -0.0757596 -0.07578623 -0.07581451 -0.0758447 -0.07587681 -0.07591099
 -0.07594691 -0.07598479 -0.07602285 -0.07606106 -0.07609634 -0.07612845 -0.07615482 -0.07617533 -0.07618983 -0.07619849
 -0.07620317 -0.07620425 -0.07620448 -0.07620415 -0.07620568 -0.07620908 -0.07621565 -0.0762251 -0.07623767 -0.07625272
 -0.0762699 -0.07628784 -0.07630558 -0.07632166 -0.07633506 -0.07634524 -0.07635164 -0.0763549 -0.07635517 -0.07635239
 -0.07634658 -0.07633712 -0.07632382 -0.07630835 -0.07629084 -0.0762758 -0.07626339 -0.0762572 -0.07625662 -0.07626027
 -0.07626701 -0.07627209 -0.07627528 -0.07627329 -0.07626738 -0.0762579 -0.07624647 -0.07623528 -0.07622445 -0.07621508
 -0.0762058 -0.07619605 -0.07618512 -0.07617243 -0.07615865 -0.07614386 -0.07612849 -0.07611275 -0.07609571 -0.07607725
 -0.07605691 -0.07603464 -0.07601131 -0.07598692 -0.07596193 -0.07593626 -0.07590961 -0.07588218 -0.07585437 -0.07582669
 -0.07580052 -0.0757762 -0.075755 -0.07573675 -0.0757219 -0.07570965 -0.07569982 -0.07569075 -0.07568175 -0.07567074
 -0.07565645 -0.0756393 -0.07561863 -0.07559822 -0.07557847 -0.07556286 -0.07555201 -0.07554518 -0.07554239 -0.07553899
 -0.07553472 -0.07552521 -0.0755107 -0.0754903 -0.07546478 -0.07543634 -0.07540557 -0.0753751 -0.07534466 -0.07531501
 -0.07528544 -0.07525526 -0.07522459 -0.07519317 -0.07516172 -0.07513082 -0.07510012 -0.07506995 -0.07503842 -0.07500507
 -0.07496887 -0.07492926 -0.07488841 -0.07484635 -0.07480685 -0.07477016 -0.07473717 -0.07470767 -0.07467869 -0.07464991
 -0.07461758 -0.07458222 -0.07454351 -0.07450252 -0.07446182 -0.07442158 -0.07438359 -0.0743467 -0.07431024 -0.07427327
 -0.07423462 -0.07419429 -0.074152 -0.07410783 -0.07406195 -0.07401364 -0.0739626 -0.07390901 -0.07385258 -0.07379571
 -0.0737386 -0.07368363 -0.07363095 -0.07357956 -0.07352929 -0.07347709 -0.07342301 -0.07336564 -0.07330549 -0.07324373
 -0.07318055 -0.073117 -0.07305294 -0.0729885 -0.07292375 -0.07285877 -0.07279386 -0.07272938 -0.07266529 -0.07260165
 -0.07253847 -0.0724756 -0.07241366 -0.07235278 -0.07229333 -0.07223559 -0.07217823 -0.07212126 -0.07206222 -0.07200098
 -0.07193612 -0.07186765 -0.07179559 -0.07172019 -0.07164303 -0.07156445 -0.07148658 -0.0714096 -0.07133513 -0.07126284
 -0.07119289 -0.0711249 -0.07105847 -0.07099327 -0.07092915 -0.07086515 -0.07080113 -0.07073469 -0.07066478 -0.07059003
 -0.07050931 -0.07042507 -0.07033725 -0.07025042 -0.07016519 -0.07008342 -0.07000532 -0.06992873 -0.06985347 -0.06977662
 -0.06969827 -0.06961753 -0.06953462 -0.06944989 -0.0693635 -0.0692758 -0.0691874 -0.06909931 -0.06901233 -0.06892794
 -0.06884634 -0.06876835 -0.06869363 -0.06862187 -0.06855392 -0.0684896 -0.06843149 -0.06838027 -0.0683376 -0.06830432
 -0.06827818 -0.06825916 -0.06824337 -0.06823047 -0.0682209 -0.06821485 -0.06821688 -0.06822672 -0.06824518 -0.06827024
 -0.06829425 -0.06831498 -0.06832238 -0.06831592 -0.06829 -0.06824494 -0.06817915 -0.06809232 -0.06798351 -0.06785323
 -0.06770013 -0.06753002 -0.06734335 -0.06715135 -0.06695618 -0.06677056 -0.06659663 -0.06644595 -0.06632018 -0.06622634
 -0.06616534 -0.06613022 -0.06611995 -0.06611151 -0.06610388 -0.06607746 -0.06603488 -0.06597673 -0.06590658 -0.06583535
 -0.06576274 -0.06569409 -0.0656256 -0.06555423 -0.06547739 -0.06539046 -0.06529622 -0.06519435 -0.06509013 -0.06498643
 -0.06488382 -0.06478403 -0.0646816 -0.06457566 -0.06446283 -0.06434194 -0.06421806 -0.06409132 -0.06396994 -0.06385411
 -0.0637463 -0.06364593 -0.06354915 -0.06345567 -0.06336182 -0.06326835 -0.06317566 -0.06308406 -0.0629947 -0.06290652
 -0.06281859 -0.06272998 -0.06263915 -0.06254686 -0.06245276 -0.06235908 -0.06226657 -0.06217731 -0.06209204 -0.06201215
 -0.0619382 -0.0618698 -0.06180723 -0.06174712 -0.06168932 -0.06162893 -0.06156578 -0.06149757 -0.06142468 -0.06134893
 -0.06127081 -0.06119367 -0.06111741 -0.06104359 -0.06097168 -0.06090143 -0.06083234 -0.06076345 -0.06069491 -0.06062647
 -0.06055866 -0.06049168 -0.06042624 -0.06036279 -0.06030145 -0.06024253 -0.06018513 -0.0601293 -0.06007319 -0.06001664
 -0.05995769 -0.05989617 -0.05983114 -0.05976259 -0.05969133 -0.05961762 -0.05954397 -0.05947059 -0.05940003 -0.05933186
 -0.05926644 -0.05920249 -0.05913769 -0.05907093 -0.05899925 -0.05892329 -0.05884209 -0.05875811 -0.05867251 -0.05858763
 -0.05850505 -0.05842512 -0.05834857 -0.05827383 -0.05820076 -0.05812774 -0.05805448 -0.0579805 -0.05790571 -0.05783072
 -0.05775555 -0.057681 -0.05760705 -0.05753386 -0.05746138 -0.05738952 -0.05731827 -0.05724769 -0.0571777 -0.05710821
 -0.05703898 -0.05696955 -0.05689991 -0.05682992 -0.05675959 -0.05668903 -0.05661773 -0.05654564 -0.05647173 -0.05639536
 -0.05631725 -0.05623707 -0.05615793 -0.05608015 -0.05600658 -0.05593763 -0.05587211 -0.05580987 -0.05574563 -0.0556792
 -0.05560641 -0.05552811 -0.05544597 -0.05536148 -0.05528037 -0.05520277 -0.0551324 -0.05506702 -0.05500507 -0.05494429
 -0.05488124 -0.05481644 -0.05474866 -0.05468065 -0.05461362 -0.05454864 -0.05448688 -0.05442603 -0.05436597 -0.05430371
 -0.05423866 -0.05417011 -0.05409787 -0.0540235 -0.05394708 -0.05387042 -0.05379353 -0.05371749 -0.05364218 -0.05356757
 -0.05349356 -0.05341983 -0.05334636 -0.05327285 -0.05319954 -0.05312663 -0.05305438 -0.05298328 -0.05291306 -0.05284377
 -0.05277491 -0.05270625 -0.05263749 -0.05256849 -0.05249906 -0.05242916 -0.05235846 -0.05228686 -0.05221441 -0.05214106
 -0.0520675 -0.05199375 -0.05192035 -0.05184728 -0.05177429 -0.05170138 -0.05162839 -0.05155548 -0.05148322 -0.05141147
 -0.05134029 -0.05126929 -0.05119782 -0.05112582 -0.05105278 -0.05097931 -0.05090571 -0.05083242 -0.05075991 -0.05068773
 -0.05061578 -0.05054394 -0.05047208 -0.05040074 -0.05033005 -0.05025966 -0.05018964 -0.050118 -0.05004466 -0.04996883
 -0.04989071 -0.04981227 -0.04973373 -0.04965756 -0.04958345 -0.04951164 -0.04944173 -0.0493727 -0.04930484 -0.04923809
 -0.04917288 -0.04911004 -0.04904873 -0.04898896 -0.04892885 -0.04886752 -0.04880354 -0.04873608 -0.048665 -0.04858984
 -0.0485124 -0.04843257 -0.04835448 -0.04827849 -0.04820818 -0.04814374 -0.04808389 -0.0480282 -0.04797123 -0.04791293
 -0.04784977 -0.04778301 -0.04771503 -0.0476471 -0.04758366 -0.04752445 -0.04747154 -0.04742276 -0.04737669 -0.04733088
 -0.04728303 -0.04723153 -0.04717461 -0.04711288 -0.04704577 -0.0469759 -0.04690368 -0.04683159 -0.0467601 -0.04669026
 -0.04662223 -0.04655618 -0.04649213 -0.04643037 -0.04637092 -0.0463139 -0.04625918 -0.04620602 -0.04615441 -0.04610386
 -0.04605466 -0.04600746 -0.04596189 -0.0459181 -0.04587457 -0.04582971 -0.04578234 -0.04573047 -0.04567553 -0.04561721
 -0.04555904 -0.04550235 -0.04544901 -0.04540018 -0.04535403 -0.04531061 -0.04526683 -0.04522232 -0.04517572 -0.04512692
 -0.04507677 -0.04502536 -0.04497385 -0.04492224 -0.04487115 -0.04482048 -0.0447703 -0.04472033 -0.04467002 -0.04461902
 -0.04456641 -0.04451239 -0.04445669 -0.04440005 -0.044343 -0.04428603 -0.04422963 -0.04417374 -0.04411834 -0.04406387
 -0.04401027 -0.04395882 -0.04390978 -0.04386343 -0.04381996 -0.04377765 -0.04373639 -0.0436944 -0.04365168 -0.04360808
 -0.0435638 -0.04351992 -0.04347654 -0.04343472 -0.04339425 -0.04335534 -0.0433173 -0.04327917 -0.04324005 -0.04319836
 -0.04315397 -0.04310598 -0.04305539 -0.04300249 -0.04294823 -0.0428931 -0.04283736 -0.04278118 -0.04272452 -0.04266733
 -0.04261001 -0.04255259 -0.04249537 -0.04243837 -0.04238224 -0.04232704 -0.04227392 -0.04222278 -0.04217373 -0.04212632
 -0.04207888 -0.04203104 -0.04198095 -0.04192877 -0.0418737 -0.04181665 -0.04175836 -0.04169958 -0.0416414 -0.04158356
 -0.0415264 -0.04146886 -0.04141038 -0.04135109 -0.04129056 -0.04123091 -0.04117238 -0.0411171 -0.0410655 -0.04101671
 -0.04097071 -0.04092512 -0.04087989 -0.04083439 -0.04078884 -0.04074457 -0.04070171 -0.04066156 -0.04062397 -0.04058923
 -0.04055694 -0.04052659 -0.04049766 -0.04046908 -0.04044111 -0.04041331 -0.0403871 -0.04036316 -0.0403426 -0.04032654
 -0.04031333 -0.04030306 -0.04029263 -0.04028147 -0.0402677 -0.04025093 -0.04023173 -0.04021012 -0.04018718 -0.04016287
 -0.0401363 -0.04010737 -0.04007451 -0.0400383 -0.0399999 -0.03996067 -0.0399251 -0.03989347 -0.03986914 -0.03984978
 -0.03983416 -0.03981912 -0.03980116 -0.03977933 -0.03975173 -0.03971957 -0.03968279 -0.03964305 -0.03960066 -0.0395575
 -0.03951377 -0.03947192 -0.03943226 -0.03939613 -0.0393637 -0.03933358 -0.03930556 -0.03927533 -0.03924264 -0.03920335
 -0.03915804 -0.0391065 -0.03905031 -0.03899371 -0.0389377 -0.03888648 -0.03883936 -0.03879738 -0.03875893 -0.0387229
 -0.03868821 -0.03865381 -0.03861939 -0.03858443 -0.03854954 -0.03851463 -0.03848128 -0.0384498 -0.03842099 -0.03839514
 -0.03837079 -0.03834787 -0.03832495 -0.03830205 -0.03827995 -0.03825882 -0.0382403 -0.03822418 -0.03821063 -0.03819905
 -0.03818813 -0.0381768 -0.03816248 -0.0381445 -0.0381205 -0.03809156 -0.03805733 -0.03802044 -0.03798236 -0.0379451
 -0.03791013 -0.03787734 -0.03784713 -0.03781832 -0.03779085 -0.03776314 -0.03773503 -0.0377052 -0.03767354 -0.03763944
 -0.03760288 -0.03756431 -0.0375239 -0.03748309 -0.03744216 -0.03740336 -0.03736632 -0.03733166 -0.03729749 -0.0372604
 -0.03721908 -0.03716925 -0.0371138 -0.03705323 -0.03699243 -0.03693517 -0.0368828 -0.03683757 -0.03679666 -0.03676001
 -0.03672368 -0.03668708 -0.03664612 -0.03660022 -0.03654693 -0.0364859 -0.03641985 -0.03634903 -0.03627924 -0.03621052
 -0.0361457 -0.03608444 -0.03602654 -0.03597187 -0.03592017 -0.03587097 -0.03582344 -0.03577655 -0.03572832 -0.03567867
 -0.03562653 -0.03557301 -0.03551862 -0.03546387 -0.03540901 -0.03535467 -0.03530096 -0.03524895 -0.03519915 -0.03515046
 -0.03510301 -0.03505382 -0.0350026 -0.03494886 -0.03489263 -0.0348364 -0.03478007 -0.03472398 -0.03466726 -0.03460599
 -0.03453947 -0.03446338 -0.03437812 -0.03428185 -0.03417669 -0.03406454 -0.03394798 -0.03383088 -0.03371266 -0.03359494
 -0.03347344 -0.03334614 -0.03321175 -0.0330683 -0.03292126 -0.03277117 -0.03262407 -0.03248126 -0.03234245 -0.03220788
 -0.03207307 -0.03193782 -0.03179865 -0.03165583 -0.03151032 -0.03136298 -0.03121895 -0.03107774 -0.03094173 -0.03080727
 -0.03066834 -0.03052097 -0.03035608 -0.03017395 -0.02997088 -0.02975026 -0.02951368 -0.02926267 -0.02899911 -0.02872067
 -0.02842818 -0.02811398 -0.02777774 -0.02740643 -0.02699789 -0.02654615 -0.02604982 -0.02552127 -0.02496123 -0.02438671
 -0.02379781 -0.02320088 -0.02259649 -0.0219904 -0.02138433 -0.02078951 -0.02020065 -0.01961625 -0.01902003 -0.01838725
 -0.01770704 -0.01695362 -0.0161404 -0.01526582 -0.01435354 -0.01341738 -0.01246168 -0.01149312 -0.01049985 -0.009480117
 -0.008426481 -0.007338047 -0.006208377 -0.005038118 -0.003799284 -0.002490143 -0.001063953 0.0004784072 0.002149129 0.003937109
 0.005788114 0.007698103 0.009617264 0.01156743 0.01356883 0.01564894 0.01786068 0.02021233 0.02273094 0.02542021
 0.02827958 0.03134894 0.03463675 0.03821469 0.04211313 0.04635762 0.0509749 0.05587877 0.06107014 0.06639668
 0.07184642 0.07729398 0.08273295 0.08810376 0.09341164 0.0986843 0.1039442 0.1093247 0.1148449 0.1206656
 0.126728 0.133013 0.1393793 0.1455814 0.1515798 0.1571979 0.1625722 0.1677397 0.1728446 0.177986
 0.1831826 0.1884705 0.1938 0.1991615 0.2045428 0.2099421 0.2153462 0.2207566 0.2261135 0.2314138
 0.2366172 0.2417199 0.2466809 0.2514767 0.255958 0.2600959 0.2637028 0.2667908 0.2692919 0.2712388
 0.272655 0.2735614 0.2739738 0.2739555 0.2735328 0.2728392 0.2719396 0.2709605 0.2699585 0.2690126
 0.2681536 0.2674081 0.2667888 0.2662675 0.2658446 0.2654715 0.2651457 0.2648269 0.2645126 0.2641604
 0.2637667 0.2632873 0.2627244 0.2620592 0.2613028 0.2604693 0.2595752 0.2586495 0.2577138 0.2568004
 0.2559313 0.2551329 0.2544176 0.2537983 0.2532805 0.2528681 0.2525664 0.2523796 0.2522979 0.2523234
 0.2524229 0.2525933 0.2528107 0.2530736 0.2533965 0.2537816 0.2542617 0.2548373 0.2555282 0.2563317
 0.2572481 0.2582751 0.2594063 0.2606438 0.2619864 0.2634422 0.2650186 0.2667262 0.2685765 0.2705735
 0.2727251 0.2750223 0.2774674 0.2800359 0.2827242 0.2855026 0.2883637 0.2913048 0.2943221 0.2974593
 0.3007187 0.3041345 0.3077014 0.3113638 0.3150972 0.3187381 0.322238 0.3253451 0.3279991 0.3299143
 0.3310966 0.3313906 0.3309289 0.3297811 0.3281336 0.3261479 0.3239787 0.3217506 0.3195556 0.3174617
 0.3154808 0.3136364 0.3118757 0.3101954 0.3085378 0.306895 0.3052524 0.3036084 0.3019687 0.3003312
 0.2986678 0.2969749 0.2952115 0.2933812 0.291474 0.2894999 0.2874816 0.2854197 0.2833449 0.2811998
 0.2789735 0.2764803 0.2736027 0.2700829 0.2657096 0.2604592 0.2542084 0.2472823 0.239723 0.2318816
 0.22382 0.2157845 0.2078 0.2001093 0.1927284 0.1858428 0.1794522 0.1735705 0.1681813 0.1631827
 0.1585659 0.154244 0.1502169 0.1464472 0.1429219 0.139612 0.1364788 0.1334715 0.1305413 0.1276285
 0.1247116 0.1217561 0.1187787 0.1157787 0.1127723 0.1097641 0.1067598 0.1037511 0.1008114 0.09794054
 0.09528635 0.09285904 0.09071723 0.08885612 0.08718713 0.08569738 0.08425579 0.08285738 0.08140873 0.07992119
 0.07836925 0.07678431 0.07520263 0.07367026 0.0722512 0.07099862 0.06997453 0.06922571 0.06879655 0.06871022
 0.068988 0.06962953 0.07064022 0.07200724 0.07372902 0.07579552 0.07820395 0.08096737 0.0840865 0.08757976
 0.09144183 0.09558423 0.09997383 0.1043307 0.1086216 0.1125452 0.1161267 0.1192719 0.1220369 0.1244831
 0.1266453 0.1285808 0.1303409 0.1319608 0.1335682 0.1352373 0.1370966 0.1392483 0.1416269 0.1442705
 0.1469138 0.1495089 0.1518998 0.1540481 0.1560383 0.1578716 0.1596939 0.161509 0.1633773 0.1652919
 0.1672287 0.1691822 0.171115 0.1730329 0.1749331 0.1768229 0.1787231 0.1806159 0.1824973 0.1843178
 0.18603 0.1876049 0.1889985 0.1902452 0.1913426 0.1923487 0.1932831 0.1941663 0.1950112 0.1957862
 0.1964931 0.1970645 0.1974969 0.1977008 0.1976712 0.1973158 0.1966329 0.1955643 0.194116 0.1922818
 0.1900703 0.1875015 0.1845827 0.1813332 0.1777681 0.1739077 0.1697845 0.165427 0.1608844 0.1561881
 0.151396 0.146535 0.1416607 0.1367931 0.1319706 0.1272038 0.1225123 0.1178982 0.1133877 0.1089819
 0.1047327 0.1006426 0.09676067 0.09308475 0.08962182 0.08636347 0.08327721 0.08035433 0.07755343 0.07487025
 0.07227688 0.06977363 0.06734975 0.06500646 0.0627419 0.06055543 0.0584469 0.05641319 0.05445368 0.05256313
 0.05074097 0.04897849 0.04727604 0.04561422 0.0439932 0.0423741 0.04075477 0.03908665 0.03736819 0.03558035
 0.03373003 0.03186423 0.02999852 0.02822967 0.02656758 0.02509538 0.02380468 0.02272258 0.02182577 0.02109791
 0.02050676 0.0200218 0.01960199 0.01921754 0.01882225 0.01839165 0.01788495 0.0172847 0.01656845 0.01572589
 0.01476454 0.01368102 0.01251324 0.01126281 0.009981771 0.008672806 0.007382052 0.006111068 0.004892356 0.00372713
 0.002638032 0.001626716 0.0007101031 -0.0001112614 -0.0008267979 -0.001440663 -0.001952008 -0.002371463 -0.002707428 -0.00297311
 -0.00317925 -0.003336032 -0.003450249 -0.003529083 -0.003575513 -0.003596304 -0.003593439 -0.003570422 -0.003528547 -0.003464116
 -0.003377146 -0.003259887 -0.003112003 -0.002928686 -0.002710484 -0.002459564 -0.002178598 -0.001879808 -0.001569394 -0.00127078
 -0.0009929839 -0.0007646687 -0.0005946285 -0.0005074519 -0.0005081478 -0.0006121793 -0.0008157673 -0.001124326 -0.001521317 -0.002003972
 -0.002545298 -0.0031385 -0.003754245 -0.004386453 -0.005008826 -0.005617487 -0.006191707 -0.006729377 -0.007218836 -0.00765961
 -0.008051603 -0.008395769 -0.008700904 -0.008968943 -0.009213633 -0.009437406 -0.009655296 -0.009868174 -0.01008637 -0.0103064
 -0.01052918 -0.01074663 -0.01095182 -0.01113566 -0.01128951 -0.01140841 -0.0114866 -0.01152696 -0.01152808 -0.01149877
 -0.01144025 -0.01136158 -0.01126406 -0.0111544 -0.01103305 -0.01090836 -0.01078088 -0.01066366 -0.01055783 -0.01047943
 -0.0104299 -0.01042494 -0.01046578 -0.01056499 -0.01072229 -0.01094402 -0.01122704 -0.01157027 -0.01196822 -0.01241547
 -0.01290581 -0.01343336 -0.01399361 -0.01458205 -0.01519966 -0.01584417 -0.01652492 -0.01724252 -0.01801066 -0.01883159
 -0.01971334 -0.02065747 -0.02165741 -0.02271271 -0.02380265 -0.02492552 -0.02605567 -0.02719188 -0.02831438 -0.02942297
 -0.03050697 -0.03156583 -0.03259376 -0.03358894 -0.03454639 -0.03546393 -0.03633724 -0.03716565 -0.03794674 -0.03868265
 -0.03937307 -0.0400228 -0.04063279 -0.04120933 -0.04175373 -0.04227173 -0.04276418 -0.04323602 -0.04368771 -0.0441232
 -0.04454271 -0.04494819 -0.04533951 -0.04571565 -0.04607644 -0.04642012 -0.04674701 -0.04705709 -0.04735117 -0.04763126
 -0.04789755 -0.04815179 -0.04839234 -0.04861899 -0.04882756 -0.04901595 -0.04917746 -0.04930935 -0.04940254 -0.04945483
 -0.0494535 -0.04939662 -0.04926751 -0.04906373 -0.04877101 -0.04838718 -0.04791137 -0.04734345 -0.04670276 -0.04599184
 -0.04524626 -0.04447013 -0.0437047 -0.04295345 -0.04225102 -0.04159719 -0.04101063 -0.04048439 -0.04001789 -0.03959824
 -0.03921229 -0.03884618 -0.03848509 -0.03812075 -0.03774409 -0.03735498 -0.03695092 -0.03653577 -0.03611028 -0.03567613
 -0.03523406 -0.03478213 -0.03432033 -0.03384562 -0.03335783 -0.03285479 -0.03233616 -0.03179766 -0.03123769 -0.0306453
 -0.03001722 -0.02933644 -0.02859954 -0.02778947 -0.02690577 -0.02593808 -0.02489309 -0.02377064 -0.02258863 -0.02135638
 -0.02010273 -0.01884268 -0.01760619 -0.01640768 -0.01526444 -0.01418539 -0.01316762 -0.01221394 -0.0113046 -0.01043888
 -0.009588929 -0.008753116 -0.007907281 -0.007051351 -0.006178423 -0.00529243 -0.004411959 -0.003545251 -0.002730996 -0.001978138
 -0.001328316 -0.000784621 -0.0003739039 -8.699203E-05 7.206609E-05 0.0001258993 8.73996E-05 -1.34678E-05 -0.0001586794 -0.0003222585
 -0.0004902391 -0.0006490368 -0.0007911164 -0.0009187904 -0.00102993 -0.001139009 -0.001246907 -0.001369538 -0.001507953 -0.00166867
 -0.001851398 -0.002052049 -0.002269937 -0.002498494 -0.002737897 -0.002985528 -0.003241563 -0.003505557 -0.003776543 -0.004052524
 -0.004333077 -0.004615169 -0.00490413 -0.005200071 -0.005518246 -0.005864304 -0.006260055 -0.006714538 -0.007244623 -0.007858877
 -0.008553498 -0.009332753 -0.01016504 -0.01104966 -0.01193605 -0.01282123 -0.01365754 -0.01444343 -0.01515049 -0.01577976
 -0.01632346 -0.01678422 -0.01716691 -0.01747577 -0.01772197 -0.01791364 -0.01806685 -0.01819625 -0.01832256 -0.01846635
 -0.01864952 -0.01889223 -0.01921257 -0.01961943 -0.02012359 -0.02071417 -0.02139457 -0.02213248 -0.02292625 -0.02372798
 -0.02453377 -0.02529317 -0.02600279 -0.02662547 -0.02716026 -0.0275906 -0.02791831 -0.02814596 -0.02827901 -0.02833723
 -0.02833214 -0.02830007 -0.02825828 -0.02825192 -0.02829819 -0.0284362 -0.02867609 -0.0290406 -0.02953011 -0.03015239
 -0.0308999 -0.03177286 -0.0327586 -0.0338556 -0.03504552 -0.03632696 -0.037673 -0.03908187 -0.04051918 -0.04198277
 -0.04343919 -0.04488702 -0.04630192 -0.04768367 -0.04901919 -0.05030891 -0.05154732 -0.05273539 -0.05387244 -0.05496019
 -0.05600121 -0.05699733 -0.05795219 -0.05886614 -0.05974115 -0.06057557 -0.06136902 -0.06211989 -0.06282704 -0.06349124
 -0.06411223 -0.06469225 -0.06523162 -0.06573222 -0.06619416 -0.0666201 -0.06701015 -0.06736928 -0.06769777 -0.06800036
 -0.0682772 -0.06853123 -0.06876279 -0.0689749 -0.06916782 -0.06934463 -0.06950336 -0.06964284 -0.06975812 -0.06984252
 -0.06989155 -0.06989867 -0.0698619 -0.06977837 -0.06964678 -0.06946577 -0.06923538 -0.06895377 -0.06862918 -0.06826082
 -0.06786904 -0.06745515 -0.06704441 -0.06663857 -0.06625827 -0.06590443 -0.06559157 -0.06532045 -0.06510381 -0.06494219
 -0.06484583 -0.06481292 -0.06484535 -0.06493713 -0.06507932 -0.06526291 -0.06547346 -0.06570147 -0.06593386 -0.06616299
 -0.06638036 -0.06658209 -0.06676359 -0.06692729 -0.06707141 -0.06720661 -0.06733345 -0.06746804 -0.06761228 -0.067779
 -0.06796967 -0.06818266 -0.06841735 -0.06865577 -0.0688963 -0.06911728 -0.06931885 -0.06948976 -0.06963216 -0.06974658
 -0.06983446 -0.06989887 -0.0699404 -0.06996033 -0.0699612 -0.06994461 -0.06991635 -0.06987995 -0.06984148 -0.06980484
 -0.06977213 -0.06974577 -0.0697215 -0.06969973 -0.06967124 -0.06963518 -0.06958262 -0.06951275 -0.06942168 -0.06930931
 -0.06917696 -0.06902505 -0.06885742 -0.06867456 -0.06848072 -0.06827624 -0.06806452 -0.06784538 -0.06762026 -0.06738839
 -0.06714929 -0.06690229 -0.06664606 -0.06638189 -0.06610947 -0.0658325 -0.06555247 -0.06527254 -0.06499474 -0.06471734
 -0.06444106 -0.06415947 -0.06387222 -0.06357087 -0.06325489 -0.06291558 -0.06255251 -0.06215879 -0.06173461 -0.06127913
 -0.0607931 -0.06028018 -0.05973978 -0.05917231 -0.05857595 -0.05794625 -0.05728421 -0.0565879 -0.05586294 -0.05511308
 -0.054346 -0.05356675 -0.05278461 -0.05200291 -0.05123616 -0.05048734 -0.04977672 -0.04910791 -0.04850135 -0.04796024
 -0.0474977 -0.0471154 -0.04681458 -0.04659508 -0.046446 -0.04636566 -0.04633467 -0.04635004 -0.04638813 -0.04644423
 -0.04649257 -0.04652749 -0.04652475 -0.04648159 -0.04638213 -0.04623064 -0.04602325 -0.04577237 -0.04548353 -0.04517268
 -0.04484865 -0.04452194 -0.0441994 -0.04387858 -0.04356187 -0.04323483 -0.04289643 -0.04252975 -0.04213304 -0.04169885
 -0.041227 -0.04072616 -0.04019796 -0.03966232 -0.03912043 -0.0385891 -0.03806775 -0.03756266 -0.03707442 -0.0366061
 -0.03616131 -0.03574731 -0.03536518 -0.03502135 -0.03470735 -0.03442251 -0.03414826 -0.03387795 -0.03358891 -0.03327257
 -0.03291307 -0.03250328 -0.03204748 -0.03154306 -0.03101554 -0.03046645 -0.02992317 -0.02938702 -0.02886725 -0.02836294
 -0.02786684 -0.02737821 -0.02688882 -0.02640025 -0.02591288 -0.02542967 -0.02495748 -0.02449781 -0.02405647 -0.02363224
 -0.02322583 -0.02283637 -0.02246291 -0.02210666 -0.02176888 -0.021447 -0.02114227 -0.02084379 -0.02055001 -0.02024899
 -0.01993852 -0.01961332 -0.01927272 -0.0189139 -0.0185367 -0.01813807 -0.01771858 -0.01728266 -0.01683273 -0.01638424
 -0.01593951 -0.01551514 -0.01511034 -0.01473272 -0.01437714 -0.01404028 -0.01371393 -0.01338803 -0.01305684 -0.01271135
 -0.01235446 -0.01198423 -0.01160847 -0.01122996 -0.01085183 -0.0104757 -0.01010037 -0.009725371 -0.00935371 -0.008985416
 -0.008626502 -0.008277262 -0.007935878 -0.007601042 -0.007256981 -0.006900912 -0.006508897 -0.006079252 -0.005592798 -0.005051133
 -0.004447383 -0.003786575 -0.00307183 -0.002312481 -0.001516919 -0.0007014367 0.0001207727 0.0009329371 0.001721913 0.0024824
 0.003210085 0.003902487 0.004561692 0.005166619 0.005715192 0.006182923 0.006564633 0.006882538 0.007137613 0.007409122
 0.007701662 0.008096546 0.008591777 0.009219496 0.00996971 0.01082664 0.01177704 0.01278495 0.01383513 0.01489156
 0.01593237 0.01692531 0.01783776 0.01863889 0.01929282 0.01977089 0.0200588 0.02013682 0.02003798 0.01975715
 0.01937603 0.01890155 0.0184329 0.01797976 0.01761816 0.01735298 0.0172161 0.0172068 0.01732136 0.01755715
 0.01789773 0.0183399 0.0188647 0.01946783 0.02012961 0.02084761 0.02161074 0.0224136 0.02325205 0.02410287
 0.02495018 0.02576456 0.02651966 0.02722132 0.02785663 0.02847761 0.02909787 0.02974168 0.03042711 0.03107063
 0.03166858 0.03211618 0.03240679 0.03250115 0.03239992 0.03210579 0.03162408 0.03098583 0.03020154 0.0293254
 0.02836739 0.02737764 0.0263643 0.02536114 0.02437825 0.02343951 0.02255346 0.02173516 0.02098697 0.02031486
 0.01971588 0.01919077 0.01873402 0.01834471 0.01801726 0.01775111 0.01753942 0.01738235 0.01726418 0.0171842
 0.0171142 0.01705233 0.01696635 0.01685497 0.01669356 0.01648241 0.01620839 0.01587459 0.0154797 0.0150327
 0.01454692 0.01403376 0.01351552 0.01298898 0.0124647 0.0119179 0.01133734 0.01070441 0.01000364 0.009249591
 0.008437791 0.007610838 0.006771835 0.005976811 0.005230632 0.004589578 0.004057609 0.003665963 0.003413744 0.003286451
 0.003278364 0.00334337 0.003477488 0.003639655 0.003831575 0.004037163 0.004259062 0.004496521 0.004746563 0.005006956
 0.005269873 0.005528604 0.005775513 0.006004406 0.006210665 0.006390973 0.006543537 0.006666733 0.006762723 0.006830923
 0.006878432 0.006905708 0.006920989 0.00692486 0.006921918 0.00691217 0.006895526 0.006871374 0.006835862 0.006787554
 0.006718676 0.00662802 0.006507427 0.006358983 0.006180266 0.005980283 0.005766337 0.005554765 0.005361436 0.005199881
 0.005086566 0.005013698 0.004987314 0.004975467 0.004971364 0.004946844 0.004892589 0.004813693 0.004707717 0.004604643
 0.004506421 0.004431827 0.0043806 0.004343401 0.004318078 0.004283286 0.004239798 0.00417801 0.004103361 0.004024909
 0.003948999 0.003892392 0.003856533 0.00385162 0.003872403 0.003918997 0.003982292 0.004057666 0.004135527 0.004210655
 0.004277812 0.004332793 0.004382077 0.004424871 0.004476495 0.004539154 0.004618658 0.004716076 0.004816856 0.004919898
 0.005002472 0.005063969 0.00508935 0.005079165 0.005026809 0.004934923 0.004804853 0.004644938 0.004469491 0.004290422
 0.00413012 0.003993462 0.003894914 0.003827958 0.003793505 0.003781991 0.003789248 0.003810063 0.003842648 0.003881803
 0.003927462 0.003968257 0.004003262 0.004019252 0.00401492 0.003991021 0.003947546</values></Ydata></AB><ScSm><Ydata ylabel="Single channel"><values byteorder="INTEL" format="FLOAT32" numvalues="1814"> 0.08501301 0.08512239 0.0852477 0.08539554 0.08555856 0.08572063 0.08586757 0.08599643 0.08611254 0.08621813
 0.08631331 0.08641039 0.08653226 0.08668804 0.0868593 0.08701438 0.087133 0.0872236 0.08732125 0.08745576
 0.0876108 0.08772503 0.08774766 0.08769214 0.08762865 0.08762167 0.08768818 0.08783136 0.08807965 0.08842145
 0.08871481 0.0887785 0.08861651 0.08845174 0.08847918 0.08867116 0.08886696 0.08895291 0.08890678 0.08878183
 0.08873163 0.08896402 0.08955316 0.09028248 0.09070966 0.09042177 0.08931029 0.08772242 0.08638041 0.08600469
 0.08679457 0.08820874 0.08937101 0.08977647 0.08956571 0.08915453 0.08879863 0.08858536 0.08862457 0.08902846
 0.08973132 0.09041855 0.09064874 0.09014118 0.08909091 0.08813837 0.08784862 0.08827066 0.08912677 0.09015138
 0.09085231 0.09025916 0.08777468 0.08448437 0.08283073 0.0843626 0.08811566 0.0916156 0.09313374 0.09260958
 0.09094286 0.08919328 0.08829901 0.08875607 0.09029356 0.09214272 0.09365049 0.09446064 0.09435119 0.09333275
 0.09186037 0.09064394 0.090253 0.09095109 0.09259161 0.09445511 0.09553213 0.09531716 0.09419012 0.09292135
 0.09209967 0.0921017 0.093126 0.09496172 0.09700129 0.09868736 0.09980471 0.1003656 0.1004763 0.1003148
 0.1000426 0.09977649 0.09970298 0.09998702 0.1004446 0.1005777 0.1001251 0.09941574 0.0990394 0.09924011
 0.09970535 0.09994403 0.09977575 0.09924737 0.09813371 0.09604044 0.09320776 0.09064789 0.08916059 0.088767
 0.08934397 0.09096749 0.09314263 0.09455718 0.09439452 0.0934319 0.09320189 0.09433383 0.09615248 0.09766681
 0.0985361 0.0991299 0.09994902 0.1010601 0.1019492 0.1018983 0.1007149 0.09919371 0.09859314 0.09942041
 0.1009372 0.1020686 0.1025347 0.1028328 0.1033542 0.1038174 0.1035127 0.102061 0.1000579 0.09887533
 0.09953444 0.101698 0.1038382 0.1043928 0.1028772 0.1001488 0.09768589 0.09652486 0.09684785 0.09839375
 0.1008297 0.1036044 0.1058598 0.1068602 0.1064994 0.1052858 0.1037895 0.1021139 0.1000846 0.09805988
 0.09715952 0.09822374 0.1007363 0.1032283 0.1046348 0.1048959 0.1043705 0.1031203 0.1009869 0.09831026
 0.09626465 0.09599959 0.09733699 0.09879646 0.09916767 0.09864702 0.09818021 0.09816287 0.09821501 0.09796625
 0.09760656 0.09761031 0.0981289 0.09880027 0.09913601 0.09897558 0.09852268 0.09805416 0.09765758 0.09718439
 0.09647657 0.09571278 0.09539928 0.09584022 0.09673215 0.09746899 0.09774075 0.0976615 0.09740837 0.09692545
 0.09602724 0.09476559 0.09361526 0.0931415 0.09344924 0.0941003 0.09458302 0.09469798 0.09450534 0.09412786
 0.09367041 0.09319565 0.09273335 0.09234817 0.0921348 0.09209248 0.09208306 0.09196681 0.09171641 0.09137222
 0.09095493 0.09046329 0.08992788 0.08943194 0.08906174 0.08883595 0.08870093 0.08858858 0.08844552 0.08821973
 0.08787932 0.08745451 0.08701812 0.0866183 0.08625938 0.08594035 0.08567391 0.08546131 0.08527111 0.08505838
 0.08480141 0.08450919 0.08419664 0.08386867 0.08353201 0.08320658 0.08291632 0.08267274 0.08246428 0.0822622
 0.08205139 0.08185056 0.08167789 0.08150528 0.08128111 0.080996 0.08069444 0.08042386 0.08019704 0.07999948
 0.07980902 0.07960302 0.07936037 0.0790744 0.07877372 0.07851715 0.07834837 0.07826091 0.07821673 0.07817993
 0.07812035 0.0780136 0.0778608 0.07768913 0.07751861 0.07734449 0.07715748 0.07696611 0.07679544 0.07666876
 0.07658539 0.07651618 0.07642806 0.0763085 0.07616352 0.07600936 0.07587172 0.0757678 0.07567945 0.07556762
 0.07542221 0.07527664 0.07516587 0.07508703 0.07500738 0.07490157 0.07477608 0.07465829 0.07456468 0.07448618
 0.07440528 0.07431807 0.07423446 0.07416068 0.07408536 0.07398521 0.07385083 0.07370366 0.07357663 0.07348007
 0.07339915 0.07332075 0.0732467 0.07318091 0.07311728 0.07304451 0.07295762 0.07286191 0.07276514 0.07266708
 0.07256022 0.072441 0.07231463 0.07218844 0.07206494 0.07194134 0.07181181 0.07167178 0.07152209 0.07136725
 0.07120973 0.07104814 0.07088013 0.07070662 0.07053646 0.07038543 0.07026261 0.07015647 0.07004258 0.06990825
 0.06976534 0.06963859 0.06954424 0.06948015 0.06943396 0.06939969 0.0693839 0.06939597 0.0694373 0.0695026
 0.06958697 0.06968884 0.06981128 0.06996375 0.07015643 0.07038719 0.07063787 0.07088833 0.07113314 0.07138106
 0.07164121 0.07191356 0.07219167 0.07247046 0.07275102 0.07303882 0.0733358 0.0736341 0.07392223 0.0741988
 0.07447523 0.07476338 0.07506566 0.07537794 0.07569411 0.07600541 0.07630346 0.07658999 0.07687804 0.0771793
 0.07749395 0.07781655 0.07814611 0.07848562 0.07883517 0.07919186 0.07955579 0.07993197 0.08032543 0.08073567
 0.08115628 0.08157976 0.08200394 0.0824349 0.08288319 0.08335593 0.08385006 0.08435261 0.08485001 0.0853396
 0.08583008 0.08632905 0.08683503 0.08734529 0.08786572 0.08840431 0.08895822 0.08951495 0.09006632 0.09061466
 0.09116507 0.09171836 0.0922734 0.09283148 0.0933947 0.09396175 0.09452698 0.09508309 0.09562524 0.09615444
 0.09667724 0.09720106 0.09772924 0.09825842 0.09877869 0.09927847 0.09975573 0.1002238 0.1006986 0.1011798
 0.1016513 0.102104 0.1025464 0.1029906 0.1034338 0.1038622 0.1042698 0.1046668 0.1050664 0.1054686
 0.1058576 0.1062179 0.1065487 0.1068627 0.1071737 0.1074878 0.1078073 0.1081342 0.108466 0.1087917
 0.1091011 0.1093963 0.1096882 0.1099814 0.1102709 0.1105529 0.1108297 0.1111035 0.1113734 0.1116362
 0.1118901 0.1121401 0.112403 0.1127007 0.1130427 0.1134232 0.1138369 0.1142861 0.1147667 0.1152582
 0.1157389 0.1162087 0.1166841 0.1171694 0.1176431 0.1180798 0.1184773 0.1188534 0.1192264 0.1196116
 0.1200304 0.1205017 0.1210224 0.1215634 0.1220884 0.1225728 0.1230128 0.1234227 0.1238206 0.1242082
 0.1245707 0.1248949 0.1251834 0.1254504 0.1257078 0.1259553 0.1261775 0.1263498 0.1264491 0.1264581
 0.126362 0.1261483 0.1258169 0.1253847 0.1248708 0.1242798 0.1236013 0.1228279 0.1219622 0.1210052
 0.1199485 0.1187882 0.1175503 0.1163024 0.1151451 0.1141887 0.1135276 0.1132282 0.1133282 0.1138287
 0.1146666 0.1156912 0.1166792 0.1173981 0.1176829 0.1174824 0.1168462 0.11587 0.1146491 0.1132626
 0.1117747 0.110229 0.1086418 0.1070098 0.1053376 0.103669 0.10211 0.1008634 0.1002834 0.1008593
 0.1030069 0.1067323 0.1114732 0.1163446 0.1206151 0.1240073 0.1266344 0.1287503 0.1305664 0.1322074
 0.1337329 0.1351621 0.1364926 0.1377125 0.1388034 0.1397401 0.1404931 0.1410389 0.1413746 0.1415302
 0.1415698 0.1415819 0.1416606 0.1418751 0.1422302 0.1426459 0.1429812 0.1430884 0.1428553 0.1422102
 0.1410975 0.1394954 0.1375659 0.1358839 0.1354257 0.1370706 0.1409193 0.1461129 0.1513915 0.1558509
 0.1592362 0.1617205 0.1635782 0.1650285 0.1662187 0.1672426 0.1681578 0.1690006 0.1697923 0.1705443
 0.1712637 0.1719567 0.1726311 0.1732972 0.1739626 0.174627 0.1752858 0.1759385 0.1765878 0.1772349
 0.1778769 0.1785108 0.1791364 0.1797571 0.1803745 0.1809833 0.1815747 0.1821465 0.1827046 0.1832576
 0.1838121 0.1843702 0.184926 0.1854682 0.1859912 0.1864985 0.1869957 0.1874842 0.1879629 0.1884327
 0.1888963 0.189356 0.1898117 0.1902613 0.1907039 0.1911404 0.1915698 0.1919888 0.1923957 0.1927962
 0.1931984 0.1936059 0.194015 0.1944213 0.1948263 0.1952373 0.1956601 0.196093 0.1965287 0.1969602
 0.1973846 0.1978025 0.1982168 0.19863 0.1990434 0.1994573 0.1998714 0.2002833 0.2006892 0.2010856
 0.2014726 0.2018526 0.2022298 0.2026073 0.2029848 0.2033573 0.2037207 0.2040767 0.2044313 0.2047898
 0.2051533 0.2055183 0.2058775 0.2062243 0.2065592 0.2068891 0.2072211 0.2075582 0.2079004 0.2082468
 0.2085954 0.208944 0.2092912 0.2096357 0.2099768 0.2103151 0.2106524 0.2109913 0.2113345 0.2116814
 0.2120277 0.2123686 0.2127031 0.2130325 0.2133584 0.2136832 0.2140106 0.2143425 0.2146784 0.2150156
 0.2153502 0.2156786 0.2160013 0.2163225 0.2166459 0.216972 0.2172985 0.2176222 0.2179413 0.2182574
 0.218572 0.2188845 0.2191939 0.2195015 0.2198089 0.2201163 0.2204235 0.2207312 0.22104 0.2213502
 0.2216605 0.2219663 0.2222642 0.2225567 0.2228487 0.2231415 0.2234342 0.2237293 0.2240281 0.2243273
 0.2246229 0.2249133 0.2251977 0.2254764 0.2257527 0.2260318 0.2263179 0.2266123 0.2269108 0.2272061
 0.2274953 0.2277816 0.2280678 0.2283538 0.2286404 0.2289293 0.229219 0.2295073 0.2297935 0.2300768
 0.2303564 0.2306342 0.2309126 0.2311895 0.2314625 0.2317317 0.2319963 0.2322541 0.232506 0.2327556
 0.2330062 0.2332608 0.2335211 0.2337837 0.2340442 0.234303 0.2345626 0.2348234 0.2350862 0.2353525
 0.2356191 0.2358831 0.2361472 0.2364137 0.2366801 0.2369464 0.2372174 0.2374915 0.2377627 0.2380307
 0.2382995 0.2385691 0.2388382 0.2391079 0.2393777 0.2396459 0.2399139 0.2401812 0.2404446 0.2407056
 0.2409693 0.2412336 0.2414933 0.2417495 0.2420039 0.2422551 0.2425065 0.2427649 0.2430278 0.243287
 0.2435428 0.2437989 0.2440545 0.2443107 0.244571 0.2448319 0.2450877 0.2453409 0.2455929 0.2458394
 0.2460815 0.2463237 0.246562 0.2467921 0.2470194 0.2472479 0.2474741 0.2476999 0.2479277 0.2481424
 0.2483138 0.2483836 0.2481983 0.2474285 0.245525 0.2417331 0.2352459 0.2255283 0.2126436 0.1973403
 0.1808417 0.1644637 0.149262 0.1358975 0.1247234 0.1159203 0.1095889 0.1058394 0.1048692 0.1070632
 0.1131239 0.1236483 0.1375935 0.1509605 0.1583027 0.1568568 0.1490484 0.1402898 0.1345775 0.132544
 0.1328327 0.1341064 0.1358303 0.1381257 0.1413156 0.1454491 0.1502481 0.1555696 0.1616761 0.1688347
 0.1767946 0.1848782 0.1925487 0.1997588 0.2067513 0.213636 0.2202232 0.2262074 0.2314051 0.2358159
 0.2395574 0.2427898 0.2456553 0.2482465 0.2506228 0.2528181 0.2547971 0.256433 0.2575813 0.258197
 0.2583905 0.2583741 0.2583448 0.2584 0.2585538 0.2587981 0.259127 0.2595287 0.2599897 0.2604995
 0.2610424 0.2615977 0.2621517 0.2626944 0.2632125 0.2636978 0.2641538 0.2645853 0.2649928 0.2653793
 0.2657478 0.2660963 0.2664265 0.2667482 0.2670679 0.2673848 0.2676992 0.2680107 0.268311 0.26859
 0.2688446 0.269077 0.269292 0.2694973 0.2697015 0.2699099 0.2701255 0.2703451 0.2705564 0.2707514
 0.2709377 0.2711282 0.271324 0.271519 0.2717111 0.2719009 0.2720882 0.2722729 0.2724558 0.2726386
 0.2728248 0.273017 0.2732116 0.2734022 0.2735866 0.2737673 0.27395 0.2741443 0.274356 0.2745777
 0.2747966 0.2750098 0.2752224 0.2754368 0.2756533 0.2758749 0.2761025 0.2763333 0.2765649 0.2767934
 0.2770081 0.2771973 0.2773617 0.2775151 0.2776752 0.2778518 0.2780414 0.2782315 0.278415 0.2785948
 0.2787771 0.2789639 0.2791542 0.2793452 0.2795357 0.279733 0.2799494 0.2801872 0.2804348 0.2806796
 0.2809181 0.2811525 0.2813885 0.2816331 0.2818854 0.282133 0.2823653 0.2825884 0.2828231 0.2830904
 0.2833927 0.2837072 0.2840044 0.2842755 0.2845355 0.2848037 0.2850899 0.285386 0.2856621 0.2858871
 0.2860732 0.2862832 0.2865739 0.2869398 0.2873248 0.2876787 0.2879913 0.2882816 0.2885677 0.2888477
 0.2891049 0.2893274 0.2895283 0.2897505 0.290038 0.2903895 0.2907552 0.2910877 0.2913805 0.2916503
 0.2919081 0.2921586 0.292392 0.2925684 0.2926578 0.2927178 0.292884 0.2932428 0.2937347 0.2942157
 0.2945992 0.2949073 0.2951952 0.2954787 0.2957453 0.2959671 0.2960669 0.295959 0.2957078 0.2955808
 0.2958326 0.2964493 0.2971795 0.2977877 0.2982113 0.2985083 0.2987531 0.2989846 0.2991827 0.2992714
 0.2992018 0.2990672 0.2990869 0.2994074 0.2999399 0.3004592 0.30084 0.3011253 0.3014008 0.3016964
 0.30197 0.3020877 0.3018817 0.3013822 0.3009714 0.3011351 0.3019917 0.3031548 0.3041171 0.3046983
 0.3050467 0.3052898 0.3053486 0.30509 0.3044927 0.3036567 0.3028549 0.3025767 0.3032072 0.3045352
 0.3058405 0.3066151 0.3070001 0.30742 0.3080271 0.3086406 0.309045 0.3091834 0.3091132 0.3088779
 0.3084897 0.3080804 0.3079883 0.3085187 0.3095889 0.3107485 0.3116039 0.3121297 0.3124855 0.3125565
 0.3118372 0.310028 0.3078183 0.306715 0.3077038 0.310212 0.3127295 0.3143046 0.3150653 0.3155121
 0.3158653 0.3160026 0.3154501 0.3135403 0.3103187 0.3073353 0.3067085 0.3090434 0.3127543 0.3155988
 0.3163928 0.3152598 0.3130606 0.3109922 0.3101694 0.3110202 0.3131001 0.3155483 0.3176106 0.3188452
 0.3191521 0.3187345 0.3180137 0.3175119 0.3175241 0.3176781 0.3171643 0.3157867 0.3143432 0.3133992
 0.3122497 0.3100671 0.3077327 0.3072901 0.3094161 0.312446 0.3143046 0.3146306 0.314417 0.314015
 0.312302 0.3081642 0.3025607 0.2985082 0.2984997 0.3020177 0.3060442 0.3080177 0.3078583 0.3071276
 0.306814 0.3062743 0.304192 0.3004342 0.2967685 0.2952774 0.2960319 0.297001 0.2963163 0.2936068
 0.2890002 0.2826035 0.2760383 0.2728081 0.2751923 0.2813801 0.287066 0.2891826 0.286875 0.2801964
 0.2703561 0.2610055 0.256615 0.2583572 0.2627321 0.2649369 0.262661 0.2562365 0.2466669 0.2350867
 0.2236653 0.215376 0.212091 0.2130881 0.2153303 0.2149313 0.2091528 0.1985111 0.1871597 0.1798117
 0.1774722 0.1768811 0.1744092 0.1694533 0.163748 0.1588576 0.1552416 0.1526636 0.1505158 0.1482713
 0.1459227 0.1432851 0.1391706 0.1328035 0.1261055 0.1227215 0.1241897 0.1285914 0.1334237 0.1379931
 0.1421363 0.1445165 0.1440154 0.142001 0.1414968 0.1440096 0.1481109 0.1512696 0.1524103 0.1523679
 0.1522559 0.1520697 0.1512535 0.1502191 0.1503813 0.1524183 0.1552327 0.1571423 0.1575723 0.1570884
 0.1562881 0.1552853 0.1540041 0.1524176 0.1505325 0.1484162 0.1461999 0.1439526 0.1416436 0.1392488
 0.1366978 0.1336463 0.1296147 0.1247635 0.1204337 0.1183013 0.1187656 0.1207049 0.1229545 0.1250884
 0.126323 0.1250286 0.1207222 0.1158827 0.1142772 0.1173725 0.1231805 0.128514 0.1315141 0.1319236
 0.1300592 0.1267503 0.1242627 0.1259447 0.1337746 0.1464422 0.1605156 0.1732203 0.1834994 0.1909772
 0.1952383 0.1965561 0.1966534 0.198039 0.2023735 0.209429 0.2173154 0.223313 0.2250418 0.2224844
 0.2194673 0.2213282 0.2294703 0.2393577 0.2455044 0.2473155 0.2482459 0.250485 0.2530423 0.2546987
 0.2561965 0.2586601 0.2614424 0.2625608 0.2604483 0.2546082 0.2455385 0.2351675 0.2266403 0.2220737
 0.2205433 0.2194095 0.2171846 0.2137264 0.2085429 0.2014061 0.1945346 0.1915063 0.1931964 0.1965925
 0.1983112 0.1978248 0.1965982 0.1953371 0.1931476 0.1891076 0.1839605 0.1798279 0.1781743 0.1784458
 0.1790175 0.178956 0.1782355 0.1767854 0.1744683 0.1720823 0.1714289 0.1738034 0.1787021 0.1843522
 0.1893416 0.1934789 0.1973101 0.2012965 0.2054985 0.2096725 0.2135864 0.2174846 0.2221121 0.2278509
 0.233948 0.2391572 0.2431761 0.2469333 0.251349 0.2562431 0.260642 0.2638686 0.2661543 0.2683437
 0.2711391 0.2745452 0.2779179 0.2805811 0.2825091 0.2844148 0.2870484 0.290395 0.2936871 0.2962028
 0.2978772 0.2991544 0.3005027 0.3021315 0.3039289 0.3055932 0.3070224 0.3086065 0.3109037 0.313959
 0.3171337 0.3196745 0.3213009 0.3222009 0.3226405 0.3227199 0.3224549 0.3219514 0.3214222 0.3210382
 0.3208078 0.3206168 0.320351 0.3199696 0.3195137 0.3190958 0.3188607 0.3189179 0.3193058 0.3200035
 0.3209435 0.3220087 0.3230639 0.3240222 0.3248647 0.3255854 0.3261417 0.3264765 0.3265659 0.3264169
 0.3260219 0.3253357 0.3242886 0.3228025 0.3208216 0.31842 0.3159559 0.3140879 0.3135048 0.3145092
 0.3168023 0.3196712 0.3224125 0.3246468 0.3263437 0.3276516 0.3287318 0.3296912 0.3305893 0.3314636
 0.3323528 0.333305 0.3343616 0.3355324 0.3367925 0.3381035 0.3394312 0.3407423 0.3419912 0.3431182
 0.3440649 0.3447961 0.3453121 0.3456391 0.3458069 0.3458278 0.3456926 0.3453865 0.344917 0.3443299
 0.343697 0.3430781 0.3424852 0.3418805 0.341208 0.3404159 0.3394309 0.33814 0.3364671 0.3344921
 0.332436 0.3304772 0.3286075 0.3267021 0.324693 0.3226262 0.3205805 0.3185873 0.3166283 0.3146664
 0.3126644 0.310592 0.3084236 0.3061367 0.303718 0.30117 0.2985035 0.2957225 0.2928213 0.2897828
 0.2865582 0.2830499 0.2791347 0.2747177 0.2697648 0.264288 0.2583229 0.2519326 0.2452293 0.2383739
 0.2315524 0.224959 0.2187971 0.213275 0.2085814 0.2048498 0.2021306 0.2003953 0.1995724 0.1995955
 0.2004272 0.2020455 0.2044091 0.2074276 0.2109534 0.2147954 0.2187423 0.2225964 0.2262178 0.2295644
 0.2326846 0.2356587 0.2385408 0.2413502 0.2440931 0.2467589 0.249294 0.2516002 0.2535808 0.2551926
 0.2564576 0.2574363 0.2581998 0.2588187 0.2593665 0.259923 0.260568 0.2613628 0.2623248 0.2634118
 0.2645333 0.2655846 0.2664888 0.2672186 0.2677975 0.2682949 0.2688237 0.2695163 0.2704812 0.2717723
 0.2734023 0.2753755 0.2777036 0.2803913 0.2834146 0.2867131 0.2902032 0.2937889 0.2973616 0.3007964
 0.3039674 0.3067748 0.3091626 0.3111163 0.312647 0.3137778 0.3145406 0.3149777 0.3151354 0.315053
 0.314763 0.3143013 0.3137087 0.3130154 0.3122226 0.3113036 0.3102303 0.309005 0.3076582 0.3062169
 0.3046916 0.3030999 0.3014858 0.2999071 0.2984172 0.2970636 0.2958882 0.2949175 0.2941515 0.2935571
 0.2930706 0.2926091 0.2920871 0.2914287 0.2905852 0.2895514 0.2883558 0.2870251 0.285559 0.2839367
 0.2821377 0.2801563 0.278003 0.275694 0.2732446 0.2706718 0.2679902 0.2652032 0.2623247 0.2594151
 0.2565728 0.253876 0.2513479 0.2489742 0.2467301 0.24459 0.2425322 0.2405394 0.238599 0.2367077
 0.2348756 0.233117 0.2314397 0.2298477 0.228343 0.226922 0.2255801 0.2243172 0.2231287 0.2219978
 0.2209023 0.2198256 0.2187734 0.2177912 0.2169464 0.2162673 0.215712 0.2152111 0.2147327 0.2143031
 0.2139804 0.2138074 0.2137733 0.2138181 0.213861 0.2138068 0.2135429 0.2129636 0.2119962 0.2105944
 0.2087353 0.2064419 0.2037978 0.2009356 0.1980282 0.195269 0.1928222 0.1907808 0.1891629 0.1879196
 0.1869539 0.1861728 0.1855427 0.185093 0.1848696 0.1848572 0.1849206 0.1848622 0.1846016 0.1842817
 0.1841569 0.1843888 0.1849554 0.1857052 0.1864631 0.1871124 0.1876084 0.1879405 0.1881117 0.1881444
 0.1880605 0.1878519 0.1874974 0.1869958 0.1863651 0.1856335 0.1848337 0.1839762 0.1830366 0.1819933
 0.1808515 0.1796203 0.1783017 0.1768977 0.1753853 0.1737228 0.1719543 0.1702857 0.1690061 0.1683249
 0.1682574 0.1686179 0.16915 0.1697057 0.1702563 0.1707379 0.171036 0.1712096 0.1716128 0.1726554
 0.1744145 0.1765082 0.178358 0.179565 0.1800355 0.179841 0.1790973 0.1779578 0.1765666 0.1749956
 0.1732932 0.1715268 0.1697148 0.1678241 0.1658805 0.1639684 0.1621486 0.1604692 0.1589729 0.1576842
 0.1566745 0.1556955 0.1532966 0.1473468 0.138096 0.1301455 0.1289975 0.1351621 0.1434909 0.1487315
 0.1499915 0.1494579 0.148914 0.1486957 0.148684 0.1489078 0.1493918 0.1500241 0.1505927 0.1508811
 0.1508019 0.1503805 0.1495147 0.147757 0.1443027 0.1382741 0.1293736 0.1185003 0.1075701 0.09850959
 0.09231548 0.08883688 0.08715281 0.08620764 0.08542329 0.08491443 0.08515233 0.08646182 0.08883481 0.09207602
 0.09594734 0.1001293 0.1041668 0.1076183 0.1102957 0.1122817 0.1137144 0.1146486 0.1151128 0.115171
 0.1148955 0.1143503 0.1136018 0.1126901 0.1115983 0.1103002 0.1088602 0.1074733 0.1063761 0.1056848
 0.105329 0.1051628 0.1051009 0.1051212 0.1052025 0.1053205 0.105471 0.1056644 0.1059184 0.1062484
 0.1066304 0.1069906 0.1072589 0.1074188 0.1074921 0.1074915 0.1073885 0.1071323 0.1067319 0.106287
 0.1058575 0.1053225 0.1044824 0.1033272 0.1021404 0.1013167 0.1010891 0.1013884 0.1019141 0.1023532
 0.1025738 0.102639 0.1026586 0.1026367</values></Ydata></ScSm><ScRf><Ydata ylabel="Single channel"><values byteorder="INTEL" format="FLOAT32" numvalues="1820"> 0.0705315 0.07065451 0.07075918 0.07085173 0.07094224 0.07104075 0.07115456 0.07128515 0.07142706 0.0715687
 0.07169701 0.07180681 0.07190359 0.07199381 0.07207957 0.07216738 0.07227212 0.0724026 0.0725477 0.0726816
 0.07278311 0.07285605 0.07293236 0.07304291 0.07317612 0.07327632 0.07329556 0.0732455 0.07319048 0.07318851
 0.07325247 0.0733806 0.07359248 0.07387584 0.07411247 0.07415561 0.07401519 0.07388033 0.07391129 0.07407957
 0.07424603 0.07431275 0.0742622 0.0741452 0.07409796 0.07429711 0.07480001 0.07541794 0.07577609 0.07552931
 0.074591 0.07325713 0.07213557 0.0718282 0.07249703 0.07368349 0.07465174 0.07498232 0.07479981 0.07445763
 0.07416899 0.07400104 0.07403952 0.07437626 0.07495795 0.07552353 0.07570487 0.07526916 0.07438307 0.07358409
 0.07334243 0.07369663 0.07441606 0.07527971 0.07586996 0.07536723 0.07327521 0.07051694 0.06914571 0.07044938
 0.07360359 0.07652929 0.07778572 0.07733265 0.07592903 0.07446271 0.07371688 0.07410306 0.07539239 0.07694279
 0.07820866 0.07888864 0.07879321 0.07793252 0.07669258 0.07567238 0.07535164 0.07595075 0.07734019 0.07890774
 0.0798054 0.07961704 0.07866879 0.07760762 0.07692593 0.07693903 0.07781002 0.07935487 0.08106045 0.08246423
 0.0833941 0.08386463 0.08396383 0.0838365 0.08361269 0.08338757 0.08332048 0.08355442 0.0839356 0.08404356
 0.08365998 0.08306642 0.08275996 0.08294005 0.08333707 0.08353858 0.08339907 0.08296023 0.08202831 0.08027013
 0.07789516 0.0757606 0.07453135 0.07421298 0.07470201 0.07607143 0.07790619 0.07909562 0.07895239 0.07813933
 0.07795154 0.07891497 0.08045641 0.08174185 0.08248696 0.08300337 0.08371004 0.08465897 0.08541416 0.08537236
 0.08437848 0.08311105 0.08263273 0.08336309 0.08466984 0.08564627 0.08606443 0.08634935 0.08682948 0.08726262
 0.08704759 0.08586782 0.08423456 0.08331136 0.08395568 0.08587002 0.08775377 0.08828594 0.08706593 0.08483315
 0.08284683 0.08197953 0.08237663 0.08381666 0.08602278 0.08852658 0.09059241 0.09158911 0.09142504 0.0905353
 0.0894067 0.08812255 0.08653163 0.08495437 0.08437322 0.0855159 0.08792102 0.09030256 0.09173514 0.09217043
 0.09191933 0.09102645 0.08934683 0.08719091 0.08561771 0.08565129 0.08711416 0.08866987 0.08924463 0.08903205
 0.08888397 0.08914463 0.08946291 0.08950847 0.08946478 0.08976829 0.09055153 0.09147505 0.09208757 0.09224115
 0.09212261 0.09198793 0.09191892 0.09177722 0.0914202 0.09102806 0.09108452 0.09186631 0.09306709 0.09410365
 0.09468974 0.09494781 0.09504978 0.09492852 0.09439103 0.09349098 0.09270737 0.09260228 0.09327419 0.09428447
 0.09512518 0.09559727 0.09575874 0.09573267 0.09562614 0.09550369 0.09539836 0.09538069 0.09554811 0.09589244
 0.09626196 0.0965108 0.09661832 0.09663318 0.09657492 0.09643597 0.09624556 0.09609216 0.09606883 0.09619831
 0.09642501 0.09667426 0.09688774 0.09701317 0.09701894 0.09693438 0.09683277 0.09676418 0.09673378 0.09674165
 0.09680319 0.09692019 0.09705921 0.09717529 0.0972476 0.09728143 0.09728573 0.09726477 0.09722981 0.09720448
 0.09721421 0.09727103 0.09736201 0.09745727 0.0975448 0.09764734 0.09777962 0.09790175 0.09795263 0.09792575
 0.09787999 0.09787709 0.09793195 0.09801972 0.09810513 0.09815738 0.09815323 0.09809177 0.09801634 0.09800188
 0.09809744 0.09828959 0.09853111 0.09878075 0.09900331 0.09916795 0.09927371 0.09935365 0.09943525 0.09951397
 0.09957534 0.09962728 0.09970298 0.09983458 0.1000212 0.1002253 0.1004055 0.100545 0.1006495 0.1007398
 0.1008503 0.1010012 0.10116 0.1012674 0.1013129 0.1013546 0.1014464 0.1015742 0.1016802 0.1017339
 0.1017614 0.1018102 0.1019 0.1020116 0.1021173 0.1022122 0.1023155 0.1024411 0.1025671 0.1026428
 0.1026383 0.1025839 0.1025416 0.1025428 0.1025729 0.1026145 0.1026741 0.1027586 0.1028464 0.1029019
 0.1029137 0.1029072 0.1029139 0.1029351 0.1029418 0.1029103 0.102847 0.1027793 0.1027322 0.102712
 0.1027064 0.1026943 0.1026612 0.1026054 0.102535 0.1024589 0.102382 0.1023091 0.1022564 0.1022484
 0.102286 0.1023184 0.1022713 0.1021166 0.1019034 0.1017121 0.1015843 0.1015007 0.1014148 0.1012957
 0.1011462 0.1009901 0.1008497 0.1007301 0.1006208 0.1005112 0.1004071 0.1003303 0.1002959 0.1002848
 0.1002489 0.1001546 0.1000161 0.09987786 0.09977053 0.09969556 0.09964098 0.09959732 0.09956255 0.09954368
 0.09954813 0.09956633 0.09957352 0.09955814 0.0995378 0.0995421 0.09958912 0.09967898 0.09979205 0.09989092
 0.09994453 0.09996035 0.09998031 0.1000391 0.1001363 0.1002525 0.1003765 0.1005105 0.1006564 0.1008119
 0.1009779 0.1011619 0.1013712 0.1016015 0.1018374 0.1020619 0.102271 0.1024788 0.1027075 0.1029686
 0.1032541 0.103544 0.103824 0.1040946 0.104365 0.104641 0.1049202 0.1052022 0.1054944 0.105804
 0.1061273 0.1064524 0.1067727 0.1070906 0.1074111 0.1077357 0.108063 0.1083931 0.1087339 0.1090963
 0.1094758 0.109843 0.1101663 0.1104459 0.110716 0.1110128 0.1113468 0.1117001 0.1120412 0.1123463
 0.1126193 0.1128897 0.1131815 0.1134893 0.1137934 0.1140951 0.1144207 0.1147868 0.1151693 0.1155162
 0.1157947 0.1160216 0.1162435 0.1164882 0.1167422 0.1169772 0.1171893 0.1173995 0.1176227 0.1178549
 0.1180925 0.1183471 0.1186261 0.1189102 0.1191684 0.1193904 0.1195922 0.1197905 0.119982 0.120147
 0.1202716 0.1203653 0.1204606 0.1205857 0.1207378 0.1208908 0.1210301 0.1211679 0.1213227 0.1214998
 0.1216984 0.1219232 0.122174 0.1224338 0.1226847 0.1229355 0.1232144 0.1235245 0.1238249 0.1240727
 0.1242712 0.1244572 0.1246545 0.1248629 0.125085 0.1253362 0.1256224 0.125927 0.1262256 0.1265063
 0.1267783 0.1270646 0.1273783 0.1276993 0.1279842 0.1282069 0.1283848 0.1285626 0.1287761 0.1290333
 0.1293179 0.1296057 0.1298786 0.1301254 0.1303317 0.130482 0.1305791 0.1306479 0.1307068 0.1307408
 0.1307122 0.1305921 0.1303708 0.1300402 0.1295861 0.1290034 0.1283198 0.1276014 0.1269393 0.1264244
 0.1261256 0.1260785 0.1262854 0.1267148 0.1273009 0.1279504 0.1285614 0.1290411 0.1293149 0.1293343
 0.1290894 0.1286125 0.1279621 0.1272005 0.1263818 0.1255482 0.124732 0.123972 0.1233422 0.122961
 0.1229594 0.1234329 0.1244064 0.125816 0.1275054 0.1292608 0.13089 0.1322947 0.1334783 0.1344954
 0.1353996 0.1362273 0.1370038 0.1377464 0.1384592 0.1391378 0.1397779 0.1403772 0.1409285 0.1414202
 0.1418415 0.142183 0.1424376 0.1426087 0.142713 0.1427693 0.1427905 0.142789 0.1427755 0.1427395
 0.1426373 0.1424139 0.1420404 0.141536 0.1409736 0.1404808 0.1402276 0.1403829 0.1410463 0.14219
 0.1436599 0.1452414 0.1467442 0.1480481 0.1491047 0.149924 0.150559 0.1510783 0.1515343 0.151954
 0.1523488 0.1527269 0.1530941 0.1534525 0.1538014 0.1541414 0.1544779 0.1548175 0.155161 0.155502
 0.155835 0.1561651 0.156506 0.156866 0.1572362 0.1575971 0.1579394 0.1582747 0.1586184 0.1589678
 0.1593062 0.1596258 0.159936 0.1602512 0.1605793 0.1609208 0.1612678 0.1616049 0.1619189 0.1622123
 0.1624988 0.1627895 0.1630836 0.1633752 0.1636615 0.1639434 0.1642229 0.1645024 0.1647849 0.165071
 0.1653545 0.1656255 0.1658806 0.166127 0.1663761 0.1666321 0.16689 0.167145 0.1673986 0.1676576
 0.1679261 0.1682012 0.1684742 0.1687378 0.1689905 0.1692364 0.1694801 0.1697249 0.1699727 0.1702246
 0.1704796 0.1707354 0.1709903 0.1712451 0.1715013 0.1717584 0.1720146 0.172269 0.1725226 0.1727758
 0.1730268 0.1732739 0.1735183 0.1737641 0.1740164 0.1742759 0.174537 0.1747915 0.1750348 0.1752681
 0.1754963 0.1757256 0.1759614 0.1762037 0.176447 0.1766869 0.1769244 0.177164 0.1774077 0.1776532
 0.177896 0.1781348 0.1783728 0.1786147 0.1788618 0.1791117 0.1793616 0.1796093 0.179853 0.1800924
 0.1803295 0.1805673 0.1808076 0.181049 0.181288 0.1815231 0.1817567 0.1819928 0.1822321 0.1824724
 0.182711 0.1829461 0.1831782 0.1834109 0.1836474 0.1838872 0.1841271 0.1843653 0.1846012 0.184834
 0.1850635 0.1852908 0.1855191 0.1857535 0.1859969 0.1862457 0.1864941 0.1867395 0.1869822 0.1872208
 0.1874548 0.1876878 0.1879241 0.1881649 0.1884081 0.188652 0.1888959 0.1891407 0.1893866 0.189631
 0.1898724 0.1901145 0.1903618 0.1906133 0.190865 0.1911146 0.1913626 0.1916112 0.1918627 0.1921178
 0.1923747 0.1926326 0.1928917 0.1931503 0.193407 0.1936637 0.1939213 0.1941754 0.1944216 0.1946594
 0.1948898 0.1951149 0.1953395 0.1955669 0.1957939 0.1960171 0.1962389 0.1964638 0.1966948 0.1969336
 0.197178 0.1974239 0.1976709 0.1979215 0.1981734 0.1984226 0.1986718 0.1989261 0.1991852 0.199446
 0.1997066 0.1999641 0.2002183 0.2004749 0.2007372 0.2010003 0.2012604 0.2015206 0.2017832 0.2020479
 0.2023157 0.2025875 0.2028603 0.2031316 0.2034019 0.2036709 0.2039391 0.2042093 0.2044812 0.2047516
 0.2050228 0.2053006 0.2055816 0.2058589 0.2061326 0.2064049 0.2066743 0.2069441 0.2072212 0.207505
 0.2077909 0.2080778 0.2083628 0.2086397 0.208909 0.2091757 0.2094377 0.2096936 0.2099533 0.2102234
 0.2104973 0.2107686 0.2110359 0.2112897 0.2115092 0.2116462 0.211569 0.2109954 0.2094535 0.2062947
 0.2008268 0.1925912 0.1816384 0.1686033 0.1545295 0.1405465 0.1275627 0.116144 0.1065899 0.09905654
 0.09363735 0.09043445 0.08962024 0.09152638 0.09675838 0.1058352 0.1178697 0.129431 0.135828 0.1346604
 0.1279919 0.1204786 0.115578 0.1138516 0.1141333 0.1152646 0.1167818 0.1187944 0.1215866 0.1252001
 0.1293904 0.1340331 0.1393607 0.1456092 0.152559 0.1596165 0.1663139 0.172614 0.1787306 0.1847576
 0.1905294 0.1957835 0.2003635 0.2042678 0.2075931 0.2104726 0.2130258 0.2153328 0.2174506 0.2194171
 0.2212055 0.2227023 0.2237755 0.2243827 0.2246202 0.2246745 0.224717 0.2248313 0.2250279 0.2252991
 0.2256416 0.2260486 0.2265123 0.2270253 0.2275724 0.2281307 0.2286836 0.2292226 0.2297421 0.2302413
 0.230724 0.2311885 0.2316286 0.232045 0.2324427 0.2328234 0.2331897 0.2335491 0.2339058 0.2342589
 0.2346088 0.234955 0.2352906 0.2356081 0.2359049 0.2361832 0.2364482 0.2367092 0.2369724 0.2372366
 0.237499 0.2377587 0.238015 0.2382682 0.2385207 0.2387718 0.2390157 0.2392525 0.2394896 0.2397293
 0.2399651 0.2401937 0.2404199 0.2406512 0.2408927 0.2411439 0.241398 0.2416474 0.24189 0.2421288
 0.2423694 0.2426195 0.2428831 0.243154 0.2434221 0.2436858 0.2439501 0.2442178 0.2444894 0.244766
 0.2450475 0.2453318 0.2456169 0.2458984 0.2461668 0.2464135 0.2466399 0.2468568 0.2470786 0.2473148
 0.2475623 0.2478095 0.2480504 0.2482915 0.2485397 0.2487928 0.249045 0.2492934 0.2495391 0.2497883
 0.2500505 0.2503296 0.25062 0.2509151 0.2512124 0.2515105 0.2518057 0.2520971 0.2523864 0.2526736
 0.2529556 0.2532318 0.2535104 0.253807 0.2541298 0.2544676 0.2548005 0.2551204 0.2554354 0.2557571
 0.2560912 0.2564301 0.2567462 0.2570113 0.257238 0.2574835 0.2577978 0.258177 0.2585763 0.2589559
 0.2593043 0.25963 0.2599435 0.2602462 0.2605299 0.2607868 0.2610271 0.2612873 0.2616055 0.2619808
 0.2623699 0.2627322 0.2630621 0.2633724 0.263671 0.2639619 0.2642351 0.2644516 0.2645836 0.2646867
 0.2648872 0.2652637 0.2657599 0.2662433 0.2666358 0.2669606 0.2672722 0.2675872 0.2678922 0.268159
 0.2683164 0.2682868 0.2681273 0.2680799 0.268374 0.2689949 0.2697147 0.2703242 0.2707705 0.2711079
 0.2714009 0.2716812 0.2719303 0.2720819 0.2720914 0.2720389 0.272119 0.2724667 0.2730063 0.2735341
 0.2739332 0.2742395 0.2745309 0.2748362 0.2751199 0.2752603 0.2751004 0.2746638 0.2743022 0.2744657
 0.2752671 0.2763536 0.2772608 0.2778262 0.2781877 0.2784574 0.2785518 0.2783423 0.2778161 0.2770775
 0.2763819 0.2761741 0.2768017 0.2780675 0.2793079 0.2800559 0.2804434 0.2808678 0.2814777 0.2821069
 0.2825471 0.2827348 0.282721 0.2825502 0.2822382 0.2819074 0.2818663 0.2823906 0.2834027 0.2844934
 0.2853055 0.2858137 0.2861605 0.286241 0.2855965 0.2839603 0.2819697 0.2810034 0.2819566 0.2842982
 0.2866436 0.2881227 0.2888564 0.2893069 0.2896776 0.2898551 0.2894007 0.2876964 0.2847839 0.2820956
 0.2815864 0.2838066 0.2872851 0.2899546 0.2907315 0.289739 0.2877778 0.2859536 0.2852855 0.2861551
 0.2881479 0.2904726 0.292436 0.2936342 0.2939808 0.293665 0.2930718 0.2926804 0.2927609 0.2929676
 0.292556 0.2913517 0.2900918 0.2892931 0.2883049 0.2863728 0.2843208 0.2840402 0.2861509 0.289104
 0.2909778 0.2914472 0.2914359 0.2912561 0.2898504 0.2861819 0.2811476 0.2775573 0.2777302 0.2811804
 0.2851001 0.2871222 0.2871958 0.2867832 0.2867989 0.2866361 0.285065 0.2819737 0.2790459 0.2782561
 0.2796577 0.281305 0.2814085 0.2795863 0.2759227 0.2705254 0.2650144 0.2628245 0.2661714 0.2732981
 0.2800313 0.2833855 0.282494 0.2773645 0.2691905 0.2616553 0.2592775 0.2632424 0.2700177 0.2747744
 0.2751967 0.2715838 0.2648829 0.2562733 0.248183 0.2439897 0.2458726 0.2530598 0.2619643 0.2677277
 0.2667043 0.2593894 0.2511486 0.2481745 0.2516627 0.2570251 0.2592855 0.2577585 0.2550102 0.253359
 0.2535993 0.2554405 0.2578384 0.2598169 0.26122 0.2613338 0.257509 0.2480876 0.2367614 0.2306136
 0.2328169 0.2400801 0.2480171 0.2555629 0.2625252 0.266416 0.2650995 0.2610195 0.2596408 0.2636123
 0.2702433 0.2749401 0.2758691 0.2747015 0.2735701 0.272528 0.2706066 0.2685579 0.2688866 0.2727351
 0.278098 0.2820002 0.2834803 0.2835892 0.2833937 0.2830788 0.2825028 0.2816378 0.2805272 0.2793028
 0.278178 0.2772132 0.2762685 0.2752784 0.2741812 0.2723177 0.2684852 0.2624994 0.25653 0.2536068
 0.254444 0.2569922 0.2593894 0.2613072 0.2614821 0.2567084 0.2460214 0.2344394 0.2295096 0.2340139
 0.2437542 0.2522645 0.2559221 0.2543963 0.2484571 0.2396153 0.2316475 0.2299431 0.237355 0.2512092
 0.2657033 0.2768129 0.2838256 0.2870885 0.2864554 0.2824287 0.2774558 0.2749651 0.2770099 0.2829152
 0.2897942 0.2938983 0.2922516 0.2850984 0.2775216 0.2763728 0.2834828 0.2932263 0.2987235 0.2990429
 0.2982037 0.2987983 0.2997731 0.299951 0.3005067 0.3029898 0.3067756 0.3095852 0.3095254 0.3058824
 0.2991104 0.2913872 0.2862719 0.2858893 0.2885827 0.290814 0.2907929 0.2885146 0.2835401 0.2759614
 0.269185 0.2681074 0.2735524 0.2810224 0.2858246 0.2874436 0.2880913 0.2887302 0.2879407 0.2842988
 0.2788996 0.2748847 0.2743618 0.2764177 0.2786251 0.279674 0.2795773 0.2781482 0.2750056 0.2712058
 0.2693961 0.271462 0.276507 0.2817212 0.2849612 0.2860608 0.2860253 0.285734 0.2854653 0.2850511
 0.2843083 0.2836426 0.2840802 0.2861744 0.2890449 0.2911833 0.2922007 0.2931493 0.2950452 0.2976259
 0.2997534 0.3006743 0.3006798 0.3007284 0.3015792 0.3031709 0.3046841 0.3052643 0.3048634 0.3043978
 0.3049263 0.3066393 0.308783 0.3105249 0.3116516 0.3124481 0.3132213 0.3140383 0.3146978 0.3148955
 0.3146257 0.3144275 0.3149879 0.3164312 0.3181726 0.3195111 0.320206 0.3204454 0.3204514 0.3202649
 0.3198556 0.3192991 0.3187832 0.3184657 0.3183634 0.3183825 0.3184216 0.3184306 0.3184096 0.3183939
 0.3184313 0.3185447 0.3187183 0.318927 0.3191524 0.319363 0.319517 0.3196089 0.3196813 0.3197621
 0.319811 0.3197478 0.3195094 0.3190591 0.3183627 0.3173822 0.3160865 0.3144427 0.3124221 0.3100923
 0.3077769 0.3060905 0.3056854 0.3068354 0.3092164 0.3120897 0.3147229 0.3167073 0.3179953 0.3187405
 0.3191271 0.3192903 0.3193104 0.3192254 0.3190478 0.3187854 0.3184549 0.3180819 0.3176969 0.3173323
 0.3170103 0.3167313 0.3164731 0.3161997 0.3158752 0.3154765 0.3150006 0.3144581 0.3138577 0.3131939
 0.3124445 0.311586 0.3106206 0.3095923 0.3085697 0.3076054 0.306704 0.3058273 0.3049304 0.3039832
 0.3029444 0.3017428 0.3003473 0.2988723 0.2975496 0.296538 0.2957791 0.295068 0.2942346 0.2932295
 0.2920804 0.2908319 0.2895263 0.2881957 0.2868472 0.2854615 0.2840069 0.2824571 0.2808023 0.2790509
 0.2772176 0.2753164 0.2733689 0.2714003 0.2694041 0.2673043 0.2649598 0.2622092 0.2589168 0.2549956
 0.2504231 0.2452602 0.239657 0.2338281 0.2280018 0.2223791 0.2171223 0.2123662 0.2082294 0.2048127
 0.2021889 0.2003946 0.1994374 0.1993145 0.2000214 0.201536 0.203793 0.2066742 0.2100186 0.2136395
 0.2173364 0.2209167 0.2242433 0.2272792 0.2300764 0.2327013 0.2351664 0.2374323 0.2394579 0.2412316
 0.2427613 0.2440549 0.2451201 0.2459795 0.2466744 0.2472534 0.2477545 0.248195 0.2485718 0.2488741
 0.2491017 0.2492747 0.2494252 0.2495813 0.2497603 0.2499721 0.2502251 0.2505303 0.2509017 0.2513523
 0.2518899 0.2525118 0.2532021 0.2539368 0.254702 0.2555094 0.2563943 0.2573979 0.2585527 0.2598737
 0.2613547 0.2629623 0.2646298 0.2662619 0.2677522 0.2690103 0.2699824 0.2706565 0.2710507 0.2711938
 0.2711157 0.2708503 0.2704341 0.2698952 0.269251 0.2685215 0.2677343 0.2669077 0.2660369 0.2651064
 0.2641149 0.2630866 0.2620584 0.2610582 0.2600941 0.2591614 0.2582517 0.2573582 0.2564811 0.2556291
 0.2548113 0.2540309 0.2532901 0.2525907 0.2519257 0.251271 0.2505873 0.2498272 0.2489464 0.247918
 0.246732 0.2453851 0.2438812 0.2422397 0.2404867 0.2386392 0.2367035 0.2346847 0.2325896 0.2304222
 0.2281771 0.2258397 0.2234143 0.2209596 0.2185763 0.2163473 0.2142989 0.212416 0.2106695 0.2090293
 0.2074702 0.2059751 0.2045345 0.2031476 0.2018209 0.200559 0.1993618 0.1982349 0.1971908 0.1962408
 0.1953954 0.1946653 0.1940475 0.1935222 0.1930701 0.1926841 0.1923691 0.1921514 0.1920706 0.1921308
 0.1922666 0.1923794 0.1924047 0.1923429 0.1922441 0.1921651 0.19213 0.1921275 0.1921333 0.1921082
 0.1919801 0.1916534 0.1910353 0.1900461 0.1886381 0.1868307 0.1847194 0.1824486 0.1801841 0.178087
 0.1762772 0.1748167 0.1737144 0.1729207 0.1723353 0.1718666 0.1714984 0.1712934 0.1713363 0.1716435
 0.1720875 0.1724501 0.1726164 0.1727053 0.1729648 0.1735589 0.1744671 0.175536 0.1765908 0.1775194
 0.1782798 0.1788594 0.1792638 0.179531 0.1797006 0.1797741 0.1797358 0.1795873 0.1793367 0.1789857
 0.1785398 0.1779988 0.1773501 0.1765964 0.1757617 0.1748538 0.1738621 0.1727813 0.171589 0.1702398
 0.1687687 0.1673817 0.1663873 0.1660278 0.1663491 0.1671799 0.1682597 0.1694177 0.1705862 0.1716615
 0.1725102 0.1731818 0.1740031 0.1753568 0.1773548 0.1797242 0.1819982 0.1838186 0.1850564 0.1857078
 0.1858028 0.1854047 0.1845602 0.1832523 0.1814934 0.1794074 0.1771473 0.1748348 0.1726108 0.1706068
 0.1688757 0.1674379 0.1663043 0.1654682 0.1649835 0.1645692 0.1626347 0.1568345 0.1474017 0.1393024
 0.1384861 0.1454742 0.1546326 0.1602179 0.1612511 0.1601434 0.1589011 0.1579618 0.1572552 0.1568549
 0.1568148 0.1570275 0.1572693 0.1573074 0.1570442 0.1564966 0.155537 0.1536628 0.1499967 0.1436015
 0.1341689 0.1226588 0.1110972 0.1015037 0.0948961 0.09107734 0.08906715 0.08778392 0.08666644 0.08587123
 0.08591108 0.08713055 0.08951054 0.09282464 0.09680603 0.1011224 0.1053144 0.1089306 0.1117665 0.1138905
 0.1154318 0.1164407 0.1169463 0.1170196 0.116742 0.1161832 0.1154106 0.1144608 0.113309 0.1119219
 0.1103669 0.1088576 0.1076605 0.1069142 0.1065434 0.1063703 0.1062804 0.1062527 0.10629 0.1063839
 0.1065223 0.1066974 0.1069202 0.1072169 0.1075813 0.1079487 0.1082455 0.1084436 0.1085526 0.1085781
 0.108496 0.1082683 0.1079093 0.107507 0.1071022 0.1065591 0.1056709 0.104433 0.103152 0.1022529
 0.1019851 0.1022754 0.1028109 0.1032693 0.103512 0.1035923 0.1036099 0.1035681 0.1033634 0.1029021
</values></Ydata></ScRf><Data_Parameters_AB><parameter name="DPF">1</parameter><parameter name="NPT">3497</parameter><parameter name="FXV">3996</parameter><parameter name="LXV">500</parameter><parameter name="CSF">1</parameter><parameter name="MXY">0.331390559673309</parameter><parameter name="MNY">-0.0785672962665558</parameter><parameter name="DAT">18/01/2024</parameter><parameter name="TIM">11:19:15.529 (GMT+1)</parameter><parameter name="DXU">WN</parameter></Data_Parameters_AB><AB__Qtest><MainReport name="Quality Test Report"><Header><Line><Legend>Test result ok/not ok [1/0]: </Legend><Value>0</Value></Line><Line><Legend>Method file: </Legend><Value>C:\Users\Public\Documents\Bruker\OPUS_8.2.28\QT\IRBT_v3_default.QT</Value></Line></Header><Matrix><Line><Legend></Legend><Legend>min</Legend><Legend>max</Legend><Legend>measured</Legend></Line><Line><Value>Absorption (X-Range 1):</Value><Value>0.400000</Value><Value>2.000000</Value><Value>0.322058</Value></Line><Line><Value>Noise (X-Range 4):</Value><Value></Value><Value>0.000300</Value><Value>0.000030</Value></Line><Line><Value>Signal/Noise (X-Range 2):</Value><Value>200.000000</Value><Value></Value><Value>228.163355</Value></Line><Line><Value>Signal/Noise (X-Range 3):</Value><Value>40.000000</Value><Value></Value><Value>86.915572</Value></Line><Line><Value>Water vapour (X-Range 5):</Value><Value></Value><Value>0.000300</Value><Value>0.000014</Value></Line><Line><Value>Signal/Water (X-Range 2):</Value><Value>100.000000</Value><Value></Value><Value>481.804038</Value></Line><Line><Value>Signal/Water (X-Range 3):</Value><Value>20.000000</Value><Value></Value><Value>183.536368</Value></Line><Line><Value>Fringes (X-Range 6):</Value><Value></Value><Value>0.000100</Value><Value>0.000028</Value></Line></Matrix></MainReport></AB__Qtest><Data_Parameters_ScSm><parameter name="DPF">1</parameter><parameter name="NPT">1814</parameter><parameter name="FXV">3996.63438082617</parameter><parameter name="LXV">499.579297603271</parameter><parameter name="CSF">1</parameter><parameter name="MXY">0.34582781791687</parameter><parameter name="MNY">0.069383904337883</parameter><parameter name="DAT">18/01/2024</parameter><parameter name="TIM">11:19:15.529 (GMT+1)</parameter><parameter name="DXU">WN</parameter></Data_Parameters_ScSm><Data_Parameters_ScRf><parameter name="DPF">1</parameter><parameter name="NPT">1820</parameter><parameter name="FXV">4004.34989121387</parameter><parameter name="LXV">495.721542409425</parameter><parameter name="CSF">1</parameter><parameter name="MXY">0.320451378822327</parameter><parameter name="MNY">0.0691457092761993</parameter><parameter name="DAT">18/01/2024</parameter><parameter name="TIM">11:18:49.665 (GMT+1)</parameter><parameter name="DXU">WN</parameter></Data_Parameters_ScRf><Optic_Parameters_Rf><parameter name="APR">0</parameter><parameter name="APT">Open</parameter><parameter name="BMS">KBr</parameter><parameter name="DTC">RT-DLaTGS_IR-Biotyper [Microplate reader]</parameter><parameter name="HPF">0</parameter><parameter name="LPF">10.0</parameter><parameter name="LPV">4000</parameter><parameter name="PGR">0</parameter><parameter name="RCH">Module port</parameter><parameter name="RDX">0</parameter><parameter name="SRC">MIR</parameter><parameter name="VEL">10.0</parameter><parameter name="SON">Off</parameter></Optic_Parameters_Rf><Acquisition_Parameters_Rf><parameter name="ADT">1</parameter><parameter name="AQM">DD</parameter><parameter name="CFE">0</parameter><parameter name="COR">0</parameter><parameter name="DEL">0</parameter><parameter name="DLY">0</parameter><parameter name="HFW">8000</parameter><parameter name="LFW">0</parameter><parameter name="NSR">32</parameter><parameter name="PLF">AB</parameter><parameter name="RES">6</parameter><parameter name="RGN">-1</parameter><parameter name="STR">0</parameter><parameter name="TCL">MakeCompatibleScalar (0, {WSV=1.000000, ARV=0});</parameter><parameter name="TDL">37</parameter><parameter name="RPO">0</parameter></Acquisition_Parameters_Rf><FT_-_Parameters_Rf><parameter name="APF">B3</parameter><parameter name="HFQ">500</parameter><parameter name="LFQ">4000</parameter><parameter name="NLI">0</parameter><parameter name="PHR">24</parameter><parameter name="PHZ">ML</parameter><parameter name="SPZ">NO</parameter><parameter name="ZFF">1</parameter></FT_-_Parameters_Rf><Optic_Parameters_><parameter name="APR">0</parameter><parameter name="APT">Open</parameter><parameter name="BMS">KBr</parameter><parameter name="CHN">Module port</parameter><parameter name="DTC">RT-DLaTGS_IR-Biotyper [Microplate reader]</parameter><parameter name="HPF">0</parameter><parameter name="LPF">10.0</parameter><parameter name="LPV">4000</parameter><parameter name="PGN">0</parameter><parameter name="RDX">0</parameter><parameter name="SRC">MIR</parameter><parameter name="VEL">10.0</parameter><parameter name="SON">Off</parameter></Optic_Parameters_><FT_-_Parameters_><parameter name="APF">B3</parameter><parameter name="HFQ">500</parameter><parameter name="LFQ">4000</parameter><parameter name="NLI">0</parameter><parameter name="PHR">24</parameter><parameter name="PHZ">ML</parameter><parameter name="SPZ">NO</parameter><parameter name="ZFF">1</parameter></FT_-_Parameters_><Acquisition_Parameters_><parameter name="ADT">1</parameter><parameter name="AQM">DD</parameter><parameter name="CFE">0</parameter><parameter name="COR">0</parameter><parameter name="DEL">0</parameter><parameter name="DLY">0</parameter><parameter name="HFW">8000</parameter><parameter name="LFW">0</parameter><parameter name="NSS">32</parameter><parameter name="PLF">AB</parameter><parameter name="RES">6</parameter><parameter name="SOT">0</parameter><parameter name="TCL">MakeCompatibleScalar (0, {WSV=1.000000, ARV=0});</parameter><parameter name="TDL">37</parameter><parameter name="SPO">0</parameter><parameter name="SGN">-1</parameter></Acquisition_Parameters_><Instrument_Parameters_Rf><parameter name="HFL">15801.365274</parameter><parameter name="LFL">0</parameter><parameter name="LWN">15801.365274</parameter><parameter name="ABP">32157</parameter><parameter name="SSP">1</parameter><parameter name="ARG">2</parameter><parameter name="ASG">2</parameter><parameter name="ASS">32</parameter><parameter name="GFW">16</parameter><parameter name="GBW">16</parameter><parameter name="BFW">0</parameter><parameter name="BBW">0</parameter><parameter name="PKA">9306</parameter><parameter name="PKL">4987</parameter><parameter name="PRA">9274</parameter><parameter name="PRL">5010</parameter><parameter name="P2A">1</parameter><parameter name="P2L">1</parameter><parameter name="P2R">1</parameter><parameter name="P2K">1</parameter><parameter name="DAQ">0</parameter><parameter name="AG2">1</parameter><parameter name="SSM">1</parameter><parameter name="RSN">46556</parameter><parameter name="CRR">0</parameter><parameter name="SRT">1705576729.666</parameter><parameter name="DUR">19.64599609375</parameter><parameter name="TSC">31.9</parameter><parameter name="MVD">0.383681148290634</parameter><parameter name="AN1">0.226003589111803</parameter><parameter name="AN2">0</parameter><parameter name="VSN">2.485 Apr  4 2017</parameter><parameter name="SRN">0085</parameter><parameter name="CAM">0</parameter><parameter name="INS">IR-Biotyper</parameter><parameter name="FOC">69</parameter><parameter name="RDY">1</parameter><parameter name="ARS">32</parameter></Instrument_Parameters_Rf><Sample_Parameters_><parameter name="BLD"></parameter><parameter name="CNM">Admin</parameter><parameter name="CPY"></parameter><parameter name="DPM"></parameter><parameter name="EXP">IRBT_v3_32Scans.XPM</parameter><parameter name="LCT"></parameter><parameter name="SFM">Microplate, HTS-XT</parameter><parameter name="SNM">240118-1045-Cdiff_SCFA_2_C21_232120787_C4_e3b576c2-6fa0-4342-9212-c42303f87597.0</parameter><parameter name="XPP">C:\Users\Public\Documents\Bruker\OPUS_8.2.28\XPM</parameter><parameter name="IST">OK</parameter><parameter name="CPG">1252</parameter><parameter name="UID">99ba083c-58e4-4f43-b75f-6536c3f5fcb1</parameter></Sample_Parameters_><Instrument_Parameters_><parameter name="HFL">15801.365274</parameter><parameter name="LFL">0</parameter><parameter name="LWN">15801.365274</parameter><parameter name="ABP">32157</parameter><parameter name="SSP">1</parameter><parameter name="ASG">2</parameter><parameter name="ARG">2</parameter><parameter name="ASS">32</parameter><parameter name="GFW">16</parameter><parameter name="GBW">16</parameter><parameter name="BFW">0</parameter><parameter name="BBW">0</parameter><parameter name="PKA">9469</parameter><parameter name="PKL">4979</parameter><parameter name="PRA">9509</parameter><parameter name="PRL">5002</parameter><parameter name="P2A">1</parameter><parameter name="P2L">1</parameter><parameter name="P2R">1</parameter><parameter name="P2K">1</parameter><parameter name="DAQ">0</parameter><parameter name="AG2">1</parameter><parameter name="SSM">1</parameter><parameter name="RSN">23971</parameter><parameter name="CRR">0</parameter><parameter name="SRT">1705576755.529</parameter><parameter name="DUR">19.64599609375</parameter><parameter name="TSC">31.9</parameter><parameter name="MVD">0.259383350610733</parameter><parameter name="AN1">0.22599948682191</parameter><parameter name="AN2">0</parameter><parameter name="VSN">2.485 Apr  4 2017</parameter><parameter name="SRN">0085</parameter><parameter name="CAM">0</parameter><parameter name="INS">IR-Biotyper</parameter><parameter name="FOC">69</parameter><parameter name="RDY">1</parameter></Instrument_Parameters_><History/></OPUSDataFile>
