<?xml version="1.0" encoding="UTF-8" ?>
<OPUSDataFile><AB><Ydata ylabel="Absorbance Units"><values byteorder="INTEL" format="FLOAT32" numvalues="3497"> -0.08182647 -0.08180482 -0.08178215 -0.08175796 -0.08173084 -0.08170034 -0.08166403 -0.08162377 -0.08158091 -0.08153818
 -0.08149938 -0.08146433 -0.08143448 -0.08140776 -0.08138284 -0.08136101 -0.08134179 -0.08132952 -0.08132557 -0.08132992
 -0.08134346 -0.08135907 -0.08137629 -0.08138876 -0.08139624 -0.08139942 -0.08139867 -0.08139836 -0.0813982 -0.08139905
 -0.08139996 -0.08139806 -0.081393 -0.08138219 -0.08136669 -0.08134657 -0.08132409 -0.08130153 -0.08128069 -0.0812638
 -0.0812507 -0.08124248 -0.08123609 -0.08123104 -0.08122356 -0.08121249 -0.08119684 -0.08117589 -0.0811532 -0.0811289
 -0.08110788 -0.08109039 -0.08107762 -0.08106924 -0.0810618 -0.08105499 -0.08104511 -0.08103284 -0.08101827 -0.08100284
 -0.08098993 -0.08098023 -0.08097667 -0.08097822 -0.08098548 -0.08099557 -0.0810068 -0.0810163 -0.08102173 -0.08102335
 -0.08102012 -0.08101567 -0.08101086 -0.08100696 -0.08100481 -0.0810001 -0.08099261 -0.08097741 -0.08095429 -0.08092514
 -0.08089053 -0.08085771 -0.08082697 -0.08080378 -0.08078767 -0.0807798 -0.08077967 -0.08078694 -0.08080062 -0.08081977
 -0.08084161 -0.0808631 -0.08088112 -0.08089148 -0.08089553 -0.08089181 -0.08088604 -0.08088025 -0.08087692 -0.08087794
 -0.08087861 -0.08087872 -0.08087212 -0.08085796 -0.08083633 -0.08080719 -0.08077719 -0.08074661 -0.08072098 -0.08069981
 -0.08068348 -0.08067087 -0.08065818 -0.08064476 -0.0806266 -0.08060501 -0.08057953 -0.0805537 -0.08053128 -0.08051469
 -0.08050813 -0.0805089 -0.08051767 -0.08052807 -0.08053773 -0.08054326 -0.08054274 -0.08053867 -0.08053115 -0.08052257
 -0.08051337 -0.08050207 -0.08048861 -0.0804729 -0.08045538 -0.08044221 -0.08043383 -0.08043716 -0.08044995 -0.08046929
 -0.08048975 -0.08049599 -0.08048718 -0.08045188 -0.08040044 -0.08033958 -0.08027997 -0.08023376 -0.08020165 -0.08018852
 -0.08018781 -0.08019896 -0.08021314 -0.0802286 -0.08023657 -0.08023525 -0.0802201 -0.0801899 -0.0801505 -0.08010215
 -0.08005774 -0.0800176 -0.07998922 -0.07997175 -0.07996372 -0.07996436 -0.07997009 -0.07998069 -0.07999423 -0.08000997
 -0.08002648 -0.0800414 -0.08005188 -0.080055 -0.08004738 -0.08002766 -0.07999314 -0.07994742 -0.07988977 -0.07982998
 -0.07976983 -0.07971922 -0.07968059 -0.07965602 -0.07964642 -0.07964594 -0.07965428 -0.07966419 -0.07967541 -0.07968305
 -0.07968706 -0.07968445 -0.07967519 -0.079657 -0.07963101 -0.07959835 -0.07956119 -0.07952416 -0.07948741 -0.07945383
 -0.07942028 -0.07938494 -0.07934619 -0.07930128 -0.07925478 -0.0792072 -0.07916521 -0.07913134 -0.07910627 -0.07909123
 -0.07908038 -0.07907339 -0.07906373 -0.07905094 -0.07903259 -0.07900891 -0.07898318 -0.07895632 -0.07893641 -0.07892365
 -0.07892421 -0.0789352 -0.07895348 -0.07897373 -0.07898477 -0.07898435 -0.07896341 -0.07892743 -0.07887638 -0.07882046
 -0.07876579 -0.07871818 -0.07868247 -0.07865611 -0.07863975 -0.07862803 -0.07861953 -0.07861497 -0.07861412 -0.07862026
 -0.07863373 -0.0786491 -0.07866576 -0.07867174 -0.07866753 -0.07865074 -0.078623 -0.07859095 -0.07855266 -0.07850603
 -0.07844967 -0.07837668 -0.07829612 -0.07821539 -0.07814529 -0.07810151 -0.07807732 -0.0780772 -0.0780788 -0.07807369
 -0.0780478 -0.07799211 -0.0779186 -0.07782652 -0.07773785 -0.07765548 -0.0775881 -0.07753665 -0.07749523 -0.0774634
 -0.07743222 -0.07740188 -0.07736918 -0.0773351 -0.07730209 -0.07727069 -0.07724394 -0.07722101 -0.07720236 -0.07718539
 -0.07716811 -0.07714529 -0.07711185 -0.07706375 -0.07699528 -0.0769114 -0.07681157 -0.07670578 -0.07659782 -0.07648859
 -0.07637977 -0.07626405 -0.07614033 -0.07600829 -0.07586759 -0.07572844 -0.07559133 -0.07546545 -0.07535004 -0.07524434
 -0.07514578 -0.07504421 -0.0749356 -0.07480317 -0.07464594 -0.07445114 -0.07422799 -0.07398102 -0.07372496 -0.07347615
 -0.0732391 -0.07302362 -0.07282149 -0.07263292 -0.07244495 -0.07225478 -0.07204894 -0.07182429 -0.07157327 -0.0712938
 -0.0709911 -0.07066522 -0.0703268 -0.06997611 -0.06961594 -0.06924623 -0.06886679 -0.06847921 -0.06809028 -0.06770182
 -0.06732312 -0.06695337 -0.06659634 -0.06624811 -0.06590634 -0.06556387 -0.06521357 -0.06484998 -0.06446587 -0.06406508
 -0.06364721 -0.06321763 -0.06278028 -0.0623258 -0.06185365 -0.06135095 -0.06081394 -0.0602564 -0.05967844 -0.05911024
 -0.05855256 -0.05801234 -0.0574875 -0.05696263 -0.05643781 -0.05590451 -0.05536637 -0.05482998 -0.05429704 -0.05377623
 -0.05326166 -0.05275208 -0.05223268 -0.05168993 -0.05111083 -0.05047724 -0.0498037 -0.04908576 -0.0483643 -0.04765274
 -0.04696924 -0.04632464 -0.04569323 -0.04507416 -0.04443492 -0.04377222 -0.04308539 -0.0423751 -0.04166685 -0.040961
 -0.04027301 -0.03959859 -0.0389264 -0.03825158 -0.03755201 -0.03683016 -0.03607785 -0.03530584 -0.03452568 -0.03374546
 -0.03297931 -0.03222414 -0.03148329 -0.03074846 -0.03001678 -0.02928191 -0.02854135 -0.0277912 -0.02702962 -0.02625871
 -0.02547784 -0.02469596 -0.02391395 -0.0231329 -0.02235248 -0.02155781 -0.02074867 -0.01991501 -0.01906067 -0.01819891
 -0.01733308 -0.01648229 -0.01564239 -0.01481474 -0.0139926 -0.01316552 -0.01233312 -0.01148934 -0.01064147 -0.009791964
 -0.008948952 -0.008118603 -0.007298567 -0.006492277 -0.005682269 -0.004866151 -0.004026279 -0.003158245 -0.00226747 -0.001353162
 -0.000440553 0.0004692556 0.001359808 0.002232182 0.003090215 0.003935792 0.004780077 0.005623777 0.006474956 0.007333113
 0.008201429 0.009078166 0.009962432 0.01085199 0.01174391 0.01263792 0.01353273 0.01442937 0.01532851 0.01622915
 0.0171317 0.01803227 0.01893009 0.01982216 0.02070742 0.02158891 0.02246648 0.02334884 0.02423637 0.02513502
 0.02604426 0.02696095 0.02788404 0.02880641 0.02972771 0.0306434 0.03155311 0.03245365 0.03334551 0.03422659
 0.03510173 0.03597447 0.03685073 0.03773733 0.03863236 0.039538 0.04044604 0.04135347 0.04225793 0.04315756
 0.0440568 0.04495619 0.04585813 0.04676313 0.04766759 0.04857132 0.04946906 0.05036074 0.0512435 0.05211808
 0.05298674 0.05385054 0.05471463 0.05557849 0.05644372 0.05730884 0.05817149 0.05903287 0.05989316 0.06075422
 0.06161882 0.06248339 0.06334759 0.06420549 0.06505408 0.06589383 0.06672355 0.06754902 0.0683709 0.06919355
 0.07001743 0.07084469 0.07167546 0.07250909 0.07334509 0.07417757 0.07500604 0.07582431 0.0766332 0.0774323
 0.07822264 0.07900639 0.07978388 0.08055585 0.0813245 0.08209207 0.08286141 0.08363649 0.08441482 0.08519728
 0.08597711 0.0867518 0.08751834 0.0882751 0.08902378 0.08976423 0.09049923 0.09122895 0.09195646 0.09268192
 0.09340766 0.0941335 0.09485807 0.09558125 0.0963014 0.09701952 0.09773848 0.0984586 0.09918255 0.09990873
 0.1006357 0.1013623 0.1020867 0.1028089 0.1035291 0.1042449 0.1049554 0.1056584 0.1063516 0.1070393
 0.1077216 0.1084061 0.1090944 0.1097885 0.110489 0.1111905 0.1118928 0.1125905 0.1132835 0.1139713
 0.1146544 0.1153365 0.1160179 0.116702 0.117388 0.1180759 0.1187651 0.1194541 0.1201442 0.1208365
 0.1215309 0.1222289 0.122925 0.1236172 0.1243005 0.1249711 0.1256332 0.1262864 0.1269399 0.127596
 0.1282554 0.1289192 0.129575 0.130222 0.1308455 0.1314457 0.1320219 0.1325763 0.1331232 0.1336629
 0.1342066 0.1347495 0.1352859 0.1358112 0.1363125 0.1367946 0.1372556 0.1377071 0.138158 0.1386151
 0.1390862 0.1395684 0.1400634 0.1405627 0.141065 0.1415616 0.1420505 0.14253 0.1429991 0.1434683
 0.1439379 0.1444189 0.1449102 0.1454031 0.1458941 0.1463562 0.1467888 0.1471732 0.1475166 0.1478258
 0.1481104 0.148391 0.148671 0.1489635 0.1492658 0.149579 0.1499029 0.1502365 0.1505835 0.1509469
 0.1513215 0.1517098 0.1520905 0.1524612 0.1528005 0.1531046 0.1533755 0.153613 0.1538445 0.1540719
 0.154325 0.1546027 0.154914 0.1552534 0.1556049 0.1559626 0.1563025 0.1566249 0.1569173 0.157189
 0.1574448 0.1576974 0.1579591 0.158237 0.1585401 0.1588649 0.159214 0.1595747 0.1599453 0.1603099
 0.1606651 0.1610037 0.1613237 0.1616336 0.1619338 0.1622397 0.1625519 0.1628786 0.1632193 0.1635729
 0.1639402 0.1643225 0.1647215 0.1651445 0.165586 0.166045 0.1665014 0.1669334 0.1673168 0.1676201
 0.1678419 0.1679647 0.1680232 0.1680233 0.1680094 0.1679973 0.1680015 0.1680313 0.1680619 0.168093
 0.1680848 0.1680347 0.1679168 0.1677311 0.1674792 0.1671639 0.1668062 0.1664079 0.1659887 0.1655467
 0.1650863 0.1646047 0.1640978 0.1635666 0.16301 0.1624309 0.161832 0.1612126 0.1605744 0.1599125
 0.1592265 0.1585071 0.1577525 0.1569518 0.1561015 0.1552019 0.1542509 0.1532682 0.1522546 0.1512363
 0.1502142 0.149202 0.1481993 0.1472092 0.146232 0.1452715 0.1443266 0.143398 0.1424808 0.1415655
 0.1406507 0.139728 0.1388058 0.1378882 0.1369836 0.1361012 0.1352344 0.1343846 0.1335357 0.1326822
 0.131819 0.1309416 0.1300654 0.1291904 0.1283426 0.1275235 0.1267507 0.1260238 0.1253346 0.1246794
 0.1240252 0.1233691 0.1226787 0.1219587 0.1212031 0.1204225 0.1196348 0.1188469 0.1180768 0.1173237
 0.1165933 0.1158815 0.1151874 0.1145068 0.1138387 0.1131767 0.1125195 0.1118595 0.1111947 0.1105221
 0.1098408 0.1091538 0.1084614 0.1077683 0.1070748 0.1063849 0.1056987 0.1050188 0.1043444 0.1036744
 0.1030067 0.1023344 0.1016565 0.1009666 0.1002679 0.09956137 0.09885292 0.09814929 0.0974519 0.09676535
 0.09608305 0.09540389 0.09471963 0.09402677 0.09332432 0.09261061 0.09189193 0.09116878 0.09044665 0.08972614
 0.08900569 0.08828508 0.08755882 0.08682708 0.08608834 0.08534423 0.08460125 0.08386069 0.08313046 0.08240918
 0.08169862 0.08099524 0.08029488 0.07959507 0.07889144 0.07818463 0.07747296 0.07676042 0.07604768 0.07534047
 0.07464074 0.07395172 0.0732746 0.07260941 0.07195595 0.07131726 0.07069339 0.07009111 0.06951039 0.06894743
 0.06839966 0.06784289 0.06727462 0.06666773 0.06602713 0.06535035 0.06464995 0.06394937 0.06325912 0.06260575
 0.0619884 0.06141884 0.06088348 0.06037926 0.05988625 0.05939458 0.05889153 0.05836844 0.05783237 0.0572813
 0.05673584 0.05619879 0.05568137 0.05518525 0.0547033 0.05423523 0.0537742 0.05332189 0.05289083 0.05248392
 0.05212388 0.05180759 0.05154112 0.05131145 0.05109702 0.05088173 0.05063159 0.05034273 0.04999378 0.04960288
 0.04917176 0.04873091 0.0482961 0.04788296 0.04750354 0.04714571 0.04681006 0.04647735 0.04614347 0.0458101
 0.04547631 0.04516115 0.04486537 0.04459757 0.04435643 0.0441316 0.04392242 0.0437193 0.04352469 0.04334217
 0.04317193 0.04301845 0.04287509 0.04273492 0.04259012 0.04242874 0.04225083 0.04205119 0.04183725 0.04161143
 0.04137883 0.04114338 0.04089949 0.04064805 0.04037492 0.04007797 0.03974914 0.03938664 0.03900347 0.03860057
 0.03820911 0.0378304 0.03749083 0.0371876 0.03692214 0.03668728 0.03646177 0.03623867 0.03599218 0.03572059
 0.03540878 0.03506212 0.03467936 0.03426973 0.03383898 0.03339511 0.03294385 0.03248804 0.03203043 0.03156893
 0.03110394 0.03063083 0.03014849 0.02965745 0.02915691 0.02866099 0.0281705 0.02770707 0.02727054 0.02686807
 0.0264957 0.02613587 0.02578534 0.02542202 0.0250504 0.02466839 0.02428427 0.0239122 0.02355099 0.02320832
 0.02286986 0.02252831 0.02217025 0.02178457 0.02137384 0.02093435 0.02048075 0.02001529 0.01955124 0.01909081
 0.0186423 0.01820632 0.01779339 0.01740412 0.01705195 0.016737 0.01646596 0.01623623 0.0160382 0.0158668
 0.01569989 0.01553419 0.01534959 0.0151502 0.01493086 0.01470431 0.01448078 0.01427517 0.01410203 0.01396947
 0.01388645 0.01385178 0.01386724 0.01392887 0.01403543 0.01418745 0.01438428 0.01463142 0.01492925 0.01528266
 0.0156919 0.01615671 0.016677 0.01725091 0.01787944 0.01856684 0.0193152 0.02013492 0.02102521 0.02199175
 0.0230269 0.02412351 0.02526826 0.02644503 0.02764073 0.02884037 0.03003658 0.03122098 0.03239347 0.03355194
 0.03469918 0.03583578 0.03696252 0.03808005 0.03918517 0.04027804 0.04135116 0.04240413 0.04341987 0.04439629
 0.04530335 0.04613743 0.04686278 0.04747584 0.04794643 0.04827029 0.04842329 0.04840127 0.0481829 0.04777775
 0.04717617 0.04642603 0.04554402 0.04462471 0.04371104 0.0429106 0.04227231 0.04185907 0.04170255 0.04179117
 0.04213313 0.04266734 0.04338995 0.04423821 0.04520834 0.04625932 0.04739005 0.04857741 0.04982169 0.05111179
 0.05245 0.05383712 0.05527867 0.05678442 0.05836836 0.06005137 0.06186218 0.06383725 0.06601062 0.06842842
 0.0710857 0.07402261 0.07711289 0.08037441 0.08346465 0.08635875 0.0884952 0.08979796 0.08973011 0.08820972
 0.08514838 0.08053162 0.07490534 0.06832138 0.06164467 0.05491123 0.04879589 0.04326195 0.03854815 0.0345668
 0.03122904 0.02845209 0.02605683 0.02399314 0.02213459 0.02045383 0.01889091 0.01742806 0.01604011 0.01472047
 0.01345965 0.01226391 0.0111325 0.01007534 0.009094274 0.008193946 0.007375231 0.00663797 0.005982194 0.005407897
 0.004915252 0.004507092 0.004183695 0.003949348 0.003802278 0.003741604 0.003757584 0.003831455 0.00393994 0.004039559
 0.004099133 0.004063736 0.003915114 0.00361334 0.003174003 0.002586209 0.001900106 0.001125758 0.0003297391 -0.0004732316
 -0.001215598 -0.001886836 -0.00242197 -0.002815416 -0.002997796 -0.002965301 -0.002622846 -0.001963937 -0.0008635461 0.000672022
 0.00269702 0.005134449 0.007764103 0.01039827 0.0124613 0.01377218 0.01368561 0.01228562 0.009315311 0.005217596
 0.0002208101 -0.005125915 -0.01043308 -0.01538567 -0.01973531 -0.02348923 -0.0265819 -0.0291837 -0.03131067 -0.03312407
 -0.03464369 -0.03596959 -0.0371095 -0.03812406 -0.03901566 -0.03982402 -0.04055017 -0.04122053 -0.04183608 -0.04241484
 -0.04295782 -0.04347701 -0.04397253 -0.0444499 -0.04490928 -0.04535244 -0.04578123 -0.04619722 -0.04660371 -0.04700301
 -0.04739746 -0.04778897 -0.04817687 -0.0485616 -0.04894073 -0.04931368 -0.04968019 -0.05004002 -0.05039517 -0.05074582
 -0.05109149 -0.05143202 -0.05176368 -0.05208669 -0.05240066 -0.05270684 -0.05301063 -0.05331234 -0.05361629 -0.05392039
 -0.05422274 -0.05452159 -0.054813 -0.05509888 -0.05537893 -0.05565707 -0.05593609 -0.05621692 -0.05650156 -0.0567859
 -0.05706967 -0.05734697 -0.05761659 -0.05787519 -0.05812203 -0.05835749 -0.05858147 -0.05879716 -0.0590048 -0.05920903
 -0.05941002 -0.05961156 -0.05981324 -0.06001559 -0.06021779 -0.06041789 -0.06061521 -0.06080745 -0.06099448 -0.06117497
 -0.06134958 -0.06151785 -0.06168241 -0.06184439 -0.06200706 -0.0621727 -0.06234086 -0.0625127 -0.06268295 -0.0628508
 -0.06301203 -0.06316556 -0.06331393 -0.06345711 -0.06360161 -0.06374768 -0.0638991 -0.06405547 -0.06421532 -0.064378
 -0.06453998 -0.06470095 -0.06485805 -0.0650117 -0.06516112 -0.06530752 -0.06545201 -0.06559601 -0.06574158 -0.06588839
 -0.06603741 -0.06618591 -0.06633291 -0.06647641 -0.06661478 -0.06675132 -0.06688581 -0.0670251 -0.06717029 -0.06732376
 -0.06748602 -0.06765127 -0.06781916 -0.06798175 -0.06813923 -0.06828952 -0.06843369 -0.0685758 -0.0687164 -0.06885962
 -0.0690046 -0.0691518 -0.06929956 -0.06944566 -0.06958926 -0.06972838 -0.069864 -0.06999622 -0.07012581 -0.07025366
 -0.07037807 -0.07049894 -0.0706136 -0.0707211 -0.07082225 -0.07091667 -0.07100908 -0.07109981 -0.07119302 -0.07128883
 -0.07138725 -0.07148802 -0.07158864 -0.07168888 -0.07178619 -0.07188072 -0.07197138 -0.07205892 -0.07214411 -0.07222821
 -0.0723133 -0.07240011 -0.07249042 -0.0725834 -0.07267937 -0.07277637 -0.07287373 -0.07296949 -0.07306288 -0.07315292
 -0.07323918 -0.0733218 -0.07340065 -0.07347719 -0.07355145 -0.07362639 -0.07370216 -0.07378165 -0.07386485 -0.07395301
 -0.07404543 -0.0741396 -0.07423458 -0.07432598 -0.07441387 -0.07449578 -0.0745736 -0.07464892 -0.07472339 -0.0747998
 -0.07487743 -0.07495713 -0.07503636 -0.07511391 -0.07518885 -0.0752603 -0.07532951 -0.07539672 -0.07546239 -0.07552678
 -0.07558865 -0.07564786 -0.07570478 -0.07575952 -0.0758161 -0.07587475 -0.07593913 -0.07600865 -0.07608229 -0.07615892
 -0.07623403 -0.07630774 -0.0763778 -0.07644577 -0.07651305 -0.07658073 -0.07665086 -0.07672258 -0.07679614 -0.07686997
 -0.07694321 -0.0770155 -0.07708646 -0.07715646 -0.07722571 -0.07729331 -0.07735924 -0.07742234 -0.07748243 -0.07753997
 -0.07759498 -0.07764906 -0.07770213 -0.07775404 -0.07780455 -0.07785209 -0.07789693 -0.07793885 -0.07797892 -0.07801939
 -0.07806084 -0.07810546 -0.07815238 -0.07820172 -0.07825202 -0.07830224 -0.07835152 -0.07839902 -0.07844486 -0.07848883
 -0.0785314 -0.07857257 -0.07861301 -0.07865282 -0.0786925 -0.07873214 -0.07877139 -0.07881022 -0.07884729 -0.07888258
 -0.07891537 -0.07894608 -0.07897662 -0.07900774 -0.07904322 -0.07908274 -0.07912809 -0.07917696 -0.07922695 -0.07927514
 -0.07931703 -0.07935234 -0.07937874 -0.07939906 -0.07941394 -0.07942651 -0.07943827 -0.07944995 -0.07946212 -0.07947413
 -0.07948584 -0.0794977 -0.07950971 -0.07952282 -0.07953708 -0.07955215 -0.07956792 -0.07958283 -0.07959694 -0.07960971
 -0.07962158 -0.07963371 -0.07964633 -0.07966077 -0.07967657 -0.07969375 -0.07971133 -0.07972831 -0.07974371 -0.07975639
 -0.07976606 -0.07977208 -0.0797752 -0.07977536 -0.07977422 -0.07977223 -0.07977019 -0.07976843 -0.07976639 -0.07976413
 -0.07976035 -0.07975499 -0.0797474 -0.07973766 -0.07972633 -0.07971358 -0.07970072 -0.07968774 -0.07967531 -0.07966309
 -0.07965045 -0.07963753 -0.07962388 -0.07961091 -0.07959986 -0.07959233 -0.07959042 -0.07959332 -0.07960177 -0.07961256
 -0.07962482 -0.07963572 -0.07964411 -0.07965003 -0.07965316 -0.07965519 -0.07965625 -0.07965741 -0.0796587 -0.07965937
 -0.07965935 -0.07965744 -0.07965376 -0.07964834 -0.07964148 -0.0796344 -0.07962698 -0.07961968 -0.07961185 -0.07960257
 -0.07959155 -0.07957786 -0.07956206 -0.07954419 -0.07952521 -0.0795056 -0.07948618 -0.07946733 -0.07944977 -0.07943387
 -0.07941914 -0.07940573 -0.0793915 -0.07937626 -0.07935815 -0.07933705 -0.07931404 -0.07928928 -0.07926545 -0.0792424
 -0.0792208 -0.07920001 -0.07917792 -0.07915419 -0.07912675 -0.07909615 -0.07906223 -0.07902604 -0.07898878 -0.07895118
 -0.07891426 -0.07887817 -0.07884331 -0.07880943 -0.07877661 -0.07874411 -0.07871183 -0.07867869 -0.07864446 -0.07860871
 -0.07857128 -0.07853317 -0.07849442 -0.07845643 -0.07841916 -0.07838222 -0.07834535 -0.07830659 -0.07826597 -0.07822233
 -0.07817636 -0.07812922 -0.07808148 -0.07803489 -0.07798905 -0.07794428 -0.07789982 -0.07785495 -0.07780981 -0.07776395
 -0.07771879 -0.07767491 -0.07763273 -0.07759298 -0.07755315 -0.0775132 -0.07746922 -0.0774207 -0.07736656 -0.07730667
 -0.07724436 -0.07717984 -0.07711709 -0.07705589 -0.07699668 -0.07693887 -0.07688024 -0.07682081 -0.07675944 -0.07669667
 -0.07663312 -0.07656895 -0.07650474 -0.07644007 -0.07637473 -0.07630859 -0.07624128 -0.07617371 -0.07610612 -0.0760392
 -0.07597339 -0.0759079 -0.07584284 -0.07577624 -0.07570788 -0.07563653 -0.07556204 -0.07548465 -0.07540439 -0.07532218
 -0.07523803 -0.07515205 -0.07506453 -0.07497643 -0.07488849 -0.07480317 -0.07472084 -0.07464376 -0.0745706 -0.07450092
 -0.07443262 -0.07436342 -0.07429302 -0.07421985 -0.07414693 -0.07407441 -0.07400783 -0.07394855 -0.0739014 -0.07386781
 -0.07384819 -0.07384322 -0.07384716 -0.07385978 -0.07387246 -0.0738849 -0.07389162 -0.07389306 -0.07388936 -0.07388128
 -0.07387212 -0.07386198 -0.07385333 -0.07384463 -0.07383494 -0.07382093 -0.07379875 -0.07376371 -0.07371081 -0.07363581
 -0.07353357 -0.07340623 -0.07325108 -0.07308075 -0.07289651 -0.07271659 -0.07254399 -0.07239463 -0.07227103 -0.0721799
 -0.07212224 -0.0720874 -0.07207422 -0.07205762 -0.07203731 -0.07199831 -0.07194402 -0.07188126 -0.07181271 -0.07175042
 -0.07169224 -0.0716404 -0.07159041 -0.07153688 -0.07147779 -0.07140861 -0.07133133 -0.07124545 -0.07115453 -0.07105992
 -0.07096437 -0.07086909 -0.07077507 -0.070683 -0.07059134 -0.07050022 -0.07040596 -0.07030827 -0.07020544 -0.07009753
 -0.06998725 -0.06987503 -0.06976569 -0.06965915 -0.06955775 -0.06946102 -0.06936883 -0.06928101 -0.06919724 -0.06911733
 -0.06904129 -0.0689678 -0.06889597 -0.06882392 -0.06875009 -0.06867389 -0.06859431 -0.06851272 -0.06842914 -0.06834551
 -0.06826229 -0.06818026 -0.06809962 -0.06802057 -0.06794315 -0.067868 -0.06779519 -0.06772581 -0.06765984 -0.06759741
 -0.06753825 -0.06748106 -0.06742562 -0.06737053 -0.06731597 -0.06726168 -0.06720768 -0.06715396 -0.06710014 -0.06704594
 -0.06699067 -0.06693371 -0.06687496 -0.06681409 -0.06675181 -0.06668822 -0.06662414 -0.06655987 -0.06649531 -0.06643058
 -0.06636442 -0.06629677 -0.06622637 -0.0661532 -0.0660776 -0.06599981 -0.06592187 -0.06584398 -0.06576834 -0.06569474
 -0.06562389 -0.06555504 -0.06548715 -0.06541952 -0.06535066 -0.06528054 -0.06520841 -0.06513504 -0.06506073 -0.06498597
 -0.0649112 -0.06483594 -0.06476016 -0.06468332 -0.06460513 -0.06452635 -0.0644469 -0.06436872 -0.06429198 -0.06421752
 -0.06414533 -0.06407387 -0.06400297 -0.06393021 -0.0638558 -0.06377923 -0.06370118 -0.06362364 -0.06354681 -0.06347239
 -0.06339967 -0.06332847 -0.06325778 -0.06318629 -0.06311402 -0.06304048 -0.06296642 -0.06289205 -0.06281811 -0.0627449
 -0.06267284 -0.06260204 -0.06253276 -0.06246511 -0.06239864 -0.06233342 -0.0622673 -0.06220014 -0.06212976 -0.06205628
 -0.06197992 -0.06190115 -0.06182254 -0.06174424 -0.06166836 -0.06159412 -0.06152089 -0.06144802 -0.06137398 -0.06129941
 -0.06122438 -0.06114972 -0.06107634 -0.06100353 -0.06093139 -0.0608583 -0.06078348 -0.06070713 -0.06062896 -0.06055057
 -0.06047218 -0.06039464 -0.0603181 -0.06024204 -0.06016641 -0.06009117 -0.06001637 -0.05994286 -0.05987062 -0.05980027
 -0.05973134 -0.05966291 -0.05959409 -0.05952244 -0.05944762 -0.0593676 -0.05928377 -0.05919626 -0.05910799 -0.05902096
 -0.05893756 -0.05886002 -0.05878735 -0.05872037 -0.05865472 -0.05858969 -0.05852129 -0.05844854 -0.05837163 -0.05829029
 -0.05820844 -0.05812625 -0.05804648 -0.0579689 -0.05789214 -0.05781587 -0.05773737 -0.05765708 -0.05757499 -0.05749192
 -0.05740995 -0.05732889 -0.05724958 -0.05717096 -0.05709199 -0.05701254 -0.05693188 -0.05685113 -0.05677082 -0.05669115
 -0.05661266 -0.05653353 -0.05645344 -0.05637106 -0.05628594 -0.05619933 -0.05611121 -0.05602443 -0.05593915 -0.05585644
 -0.05577622 -0.05569787 -0.05562137 -0.05554637 -0.0554729 -0.05540099 -0.05533025 -0.05525994 -0.05518945 -0.05511745
 -0.05504384 -0.05496793 -0.05488997 -0.05480995 -0.054728 -0.05464403 -0.05455879 -0.05447229 -0.05438621 -0.05430102
 -0.05421722 -0.0541352 -0.05405293 -0.05397024 -0.05388537 -0.05379825 -0.05371086 -0.05362342 -0.05353957 -0.05345912
 -0.05338307 -0.05331049 -0.05323864 -0.05316692 -0.05309235 -0.05301538 -0.0529352 -0.05285318 -0.05277036 -0.05268828
 -0.05260837 -0.05253179 -0.05245974 -0.05239185 -0.05232879 -0.05226759 -0.05220802 -0.05214583 -0.05208023 -0.05200916
 -0.05193214 -0.05185145 -0.0517672 -0.05168445 -0.05160344 -0.0515285 -0.05145926 -0.05139607 -0.05133784 -0.05128107
 -0.05122469 -0.05116409 -0.05109978 -0.05103001 -0.050957 -0.05088248 -0.05080851 -0.05073753 -0.05066964 -0.05060579
 -0.05054457 -0.05048584 -0.0504278 -0.05037016 -0.05031075 -0.05024926 -0.05018376 -0.05011389 -0.05004016 -0.04996258
 -0.04988503 -0.04980776 -0.0497351 -0.04966677 -0.04960364 -0.04954481 -0.04948752 -0.04943109 -0.04937241 -0.04931157
 -0.04924724 -0.04918009 -0.04911043 -0.04903873 -0.04896545 -0.04889108 -0.04881591 -0.04874057 -0.04866529 -0.04859088
 -0.04851765 -0.04844581 -0.0483755 -0.04830609 -0.0482375 -0.04816949 -0.04810202 -0.04803619 -0.04797204 -0.04791067
 -0.04785183 -0.04779471 -0.04773885 -0.04768208 -0.04762439 -0.04756455 -0.04750309 -0.0474405 -0.04737683 -0.04731262
 -0.04724696 -0.04717927 -0.04710872 -0.04703439 -0.04695682 -0.04687561 -0.04679315 -0.04670975 -0.04662827 -0.04654923
 -0.04647444 -0.04640429 -0.04633798 -0.04627553 -0.04621369 -0.04615222 -0.04608683 -0.04601755 -0.04594216 -0.04586141
 -0.04577673 -0.04568926 -0.04560267 -0.04551737 -0.045436 -0.04535783 -0.0452833 -0.04521074 -0.04513903 -0.04506661
 -0.04499218 -0.0449152 -0.04483477 -0.04475245 -0.04466806 -0.04458525 -0.04450461 -0.04442877 -0.04435828 -0.04429231
 -0.04423089 -0.0441708 -0.04411196 -0.04405228 -0.04399195 -0.04393115 -0.04387007 -0.04380964 -0.04374986 -0.04369121
 -0.04363361 -0.04357691 -0.04352149 -0.04346774 -0.04341603 -0.04336696 -0.0433201 -0.04327562 -0.043232 -0.04318865
 -0.04314458 -0.04309917 -0.04305328 -0.0430069 -0.04296127 -0.0429166 -0.04287276 -0.04282977 -0.04278607 -0.04274158
 -0.04269491 -0.04264619 -0.04259561 -0.04254349 -0.04249127 -0.04243913 -0.04238856 -0.04233885 -0.04228932 -0.0422394
 -0.0421877 -0.04213512 -0.04208183 -0.04202911 -0.04197827 -0.04192827 -0.04187939 -0.04182893 -0.04177598 -0.04172003
 -0.04166062 -0.0415994 -0.04153653 -0.04147288 -0.04140854 -0.04134337 -0.04127738 -0.0412104 -0.0411425 -0.04107403
 -0.04100508 -0.04093618 -0.04086749 -0.0407997 -0.04073284 -0.04066732 -0.04060298 -0.04053962 -0.04047757 -0.04041701
 -0.04035835 -0.04030222 -0.04024757 -0.04019434 -0.0401405 -0.04008523 -0.04002835 -0.03996937 -0.03991072 -0.03985259
 -0.03979734 -0.03974522 -0.03969599 -0.03964957 -0.03960351 -0.03955773 -0.03951019 -0.03946147 -0.03941298 -0.03936522
 -0.03932096 -0.039279 -0.0392387 -0.03919796 -0.03915319 -0.03910456 -0.03905033 -0.03899319 -0.03893448 -0.03887576
 -0.03881837 -0.03876141 -0.03870476 -0.03864809 -0.03859114 -0.03853513 -0.0384802 -0.038427 -0.03837563 -0.0383246
 -0.03827375 -0.0382199 -0.03816295 -0.03810054 -0.03803327 -0.03796246 -0.03788911 -0.03781707 -0.03774604 -0.03767767
 -0.03761017 -0.03754159 -0.03747122 -0.03739735 -0.03732107 -0.03724258 -0.03716289 -0.0370825 -0.03700185 -0.03692115
 -0.03684074 -0.0367608 -0.0366808 -0.03660079 -0.03651934 -0.03643627 -0.03635196 -0.03626649 -0.03618205 -0.03609871
 -0.03601782 -0.03593928 -0.03586351 -0.03579008 -0.03571828 -0.03564711 -0.03557412 -0.0354989 -0.03541919 -0.035337
 -0.03525339 -0.03517012 -0.03508943 -0.03500953 -0.03493028 -0.03484965 -0.03476642 -0.03468226 -0.03459721 -0.03451332
 -0.03443115 -0.03434908 -0.03426705 -0.03418329 -0.03409778 -0.03401081 -0.03392229 -0.03383174 -0.03373864 -0.03364014
 -0.03353612 -0.03342448 -0.03330606 -0.03318129 -0.0330517 -0.03291981 -0.03278605 -0.03265255 -0.03251674 -0.03237794
 -0.03223261 -0.03207796 -0.03191587 -0.03174523 -0.03157375 -0.03140305 -0.03123722 -0.03107771 -0.03091976 -0.03076327
 -0.03060037 -0.03043076 -0.03025117 -0.0300624 -0.02987019 -0.0296762 -0.0294923 -0.02931788 -0.02915893 -0.02901
 -0.02886353 -0.0287128 -0.02854408 -0.02835588 -0.02814066 -0.02790236 -0.02764144 -0.02736145 -0.02706501 -0.02675103
 -0.02642095 -0.0260674 -0.02568978 -0.02527787 -0.02482944 -0.02434439 -0.02382181 -0.02327795 -0.02271359 -0.02214287
 -0.02156529 -0.02098052 -0.02038871 -0.01978991 -0.01918603 -0.01858589 -0.01798456 -0.01738003 -0.01675661 -0.01609007
 -0.01537015 -0.0145717 -0.01370909 -0.01278153 -0.01181361 -0.01081965 -0.009804834 -0.008776112 -0.007722656 -0.006642862
 -0.005530789 -0.004385618 -0.003203282 -0.00198462 -0.0007037427 0.0006410165 0.00209733 0.003664842 0.005361389 0.007176604
 0.009063407 0.01101729 0.01299122 0.01500498 0.01707613 0.01922923 0.02151207 0.02392987 0.02650445 0.02923837
 0.03212823 0.03521517 0.03850744 0.04207854 0.04595937 0.0501769 0.05475767 0.05961963 0.0647638 0.07004478
 0.07545126 0.08086155 0.08626939 0.09161222 0.09689492 0.1021404 0.1073712 0.1127192 0.1182044 0.1239904
 0.1300191 0.136275 0.1426151 0.1487941 0.1547682 0.1603565 0.165692 0.1708071 0.1758469 0.1809089
 0.186019 0.191215 0.196455 0.201732 0.2070344 0.2123612 0.2176934 0.2230322 0.2283124 0.2335308
 0.238645 0.2436516 0.2485121 0.2532044 0.2575874 0.2616339 0.2651664 0.2681975 0.2706644 0.2726002
 0.2740312 0.2749796 0.2754641 0.2755452 0.2752489 0.2747014 0.2739637 0.2731578 0.2723382 0.2715798
 0.2709132 0.2703568 0.2699219 0.2695746 0.2693138 0.2690971 0.2689223 0.2687643 0.2686208 0.268462
 0.2682828 0.2680369 0.2677243 0.2673164 0.266825 0.2662595 0.2656395 0.2649973 0.2643557 0.2637511
 0.2632006 0.26273 0.2623432 0.2620479 0.2618459 0.2617377 0.261732 0.2618328 0.262035 0.2623415
 0.2627208 0.2631698 0.263667 0.2642108 0.264817 0.2654872 0.2662489 0.2671013 0.268054 0.2691052
 0.2702517 0.2714949 0.2728349 0.2742763 0.2758254 0.2774892 0.279277 0.2811972 0.2832601 0.2854676
 0.287827 0.2903245 0.2929612 0.2957051 0.2985512 0.3014627 0.3044308 0.3074488 0.3105126 0.3136622
 0.3168997 0.3202581 0.3237331 0.3272756 0.3308641 0.3343541 0.3377014 0.3406803 0.3432328 0.3450932
 0.3462627 0.3465891 0.3461931 0.3451334 0.3435811 0.3416841 0.339582 0.3373872 0.3351856 0.3330388
 0.3309635 0.3289836 0.3270495 0.3251595 0.323249 0.3213091 0.3193218 0.3172851 0.3152199 0.3131252
 0.3109922 0.3088162 0.3065609 0.3042274 0.3017989 0.2992838 0.2966968 0.2940395 0.291339 0.2885442
 0.2856461 0.2824755 0.2789216 0.2747633 0.2698075 0.2640707 0.2574545 0.2502828 0.2426082 0.2347393
 0.2267344 0.2187923 0.2109329 0.2033651 0.1961026 0.1893152 0.1830028 0.1771788 0.1718275 0.1668525
 0.1622451 0.1579219 0.1538827 0.1500918 0.1465377 0.1431941 0.1400252 0.1369844 0.1340263 0.1310955
 0.1281722 0.1252244 0.1222678 0.1193025 0.1163402 0.1133852 0.1104383 0.1074904 0.1046114 0.1018006
 0.09920391 0.09683147 0.09474239 0.09293194 0.09131298 0.08987258 0.0884799 0.08712993 0.08572906 0.08428925
 0.08278624 0.08125243 0.07972687 0.07825512 0.07690229 0.07571892 0.07476535 0.07408578 0.07372215 0.07369823
 0.07403424 0.07473389 0.07580308 0.07723399 0.0790261 0.08117221 0.08367015 0.08653186 0.08975807 0.0933648
 0.09734685 0.1016171 0.1061429 0.1106483 0.1150997 0.1191968 0.1229633 0.1263026 0.1292693 0.1319219
 0.1342931 0.1364364 0.1384024 0.1402232 0.1420302 0.1438986 0.1459623 0.1483276 0.1509256 0.1537954
 0.15666 0.159469 0.1620621 0.1643995 0.166573 0.1685846 0.1705865 0.1725827 0.1746321 0.1767271
 0.1788377 0.1809584 0.1830483 0.185114 0.1871528 0.1891734 0.191199 0.1932122 0.1952115 0.1971468
 0.1989716 0.2006548 0.202152 0.203494 0.2046778 0.2057561 0.2067471 0.2076669 0.2085273 0.209295
 0.2099714 0.210489 0.2108444 0.210947 0.2107919 0.2102865 0.2094295 0.2081667 0.2065047 0.2044428
 0.2019894 0.1991665 0.1959812 0.1924525 0.188596 0.1844322 0.1799961 0.1753174 0.1704498 0.1654271
 0.1603128 0.1551368 0.1499585 0.1448003 0.1397005 0.1346702 0.1297287 0.1248777 0.120148 0.1155406
 0.1111124 0.1068657 0.1028457 0.09904933 0.09547245 0.09210651 0.08891164 0.08588109 0.08297485 0.08019153
 0.07750967 0.07493071 0.07244879 0.07006311 0.06777249 0.06557141 0.06345724 0.06142168 0.0594609 0.05756781
 0.05574044 0.05397058 0.05225863 0.05058483 0.04894944 0.04731165 0.04566912 0.04397358 0.04222358 0.04040398
 0.03852198 0.03662891 0.03474033 0.03295524 0.03128321 0.02980768 0.02851972 0.02744584 0.02656131 0.02584765
 0.02527134 0.02479967 0.02439144 0.02401594 0.02362769 0.02320272 0.02269916 0.02209991 0.02137872 0.0205247
 0.01954173 0.01842552 0.01721508 0.0159118 0.01457433 0.01320575 0.01186045 0.01054002 0.009280962 0.008083616
 0.006968664 0.005936654 0.005000106 0.004159178 0.003421476 0.00278316 0.002244032 0.001794648 0.001426985 0.001130112
 0.0008947245 0.0007128981 0.000579484 0.0004875517 0.0004348354 0.0004128633 0.0004192471 0.000450196 0.0005041086 0.0005868661
 0.0006986521 0.0008478638 0.001034782 0.001260793 0.001524902 0.001819213 0.002140979 0.002474439 0.002813953 0.003135914
 0.003431986 0.003674846 0.003856112 0.003952494 0.003958748 0.003860007 0.003658578 0.003348491 0.002944194 0.00244719
 0.001883717 0.001259445 0.0006064846 -6.917671E-05 -0.0007359506 -0.001389353 -0.002003994 -0.002577234 -0.003096334 -0.003560812
 -0.00397303 -0.004334284 -0.004657723 -0.004945515 -0.005215092 -0.005468381 -0.005721192 -0.005972785 -0.0062306 -0.006489503
 -0.006746276 -0.006993189 -0.007221674 -0.007424864 -0.007595059 -0.007729555 -0.00782424 -0.007882056 -0.007901979 -0.007892247
 -0.007853823 -0.007796554 -0.007721597 -0.007638272 -0.007547229 -0.0074587 -0.007373298 -0.007303643 -0.007250504 -0.007226168
 -0.007231419 -0.0072765 -0.007362391 -0.007497626 -0.007682802 -0.007923744 -0.008219501 -0.008571862 -0.008977656 -0.009435189
 -0.009938913 -0.01048513 -0.01106733 -0.01168117 -0.01232359 -0.01299123 -0.01368965 -0.01441834 -0.0151892 -0.01600379
 -0.01687149 -0.01779378 -0.01876791 -0.01979364 -0.02085468 -0.0219494 -0.0230547 -0.0241691 -0.02527268 -0.026365
 -0.02743432 -0.02848037 -0.02949741 -0.03048385 -0.03143529 -0.03234914 -0.03322104 -0.03404929 -0.03483079 -0.03556679
 -0.0362563 -0.03690398 -0.03751045 -0.03808263 -0.03862181 -0.03913497 -0.03962319 -0.0400921 -0.0405423 -0.04097725
 -0.04139716 -0.04180318 -0.0421952 -0.04257248 -0.0429348 -0.0432805 -0.04360967 -0.04392149 -0.04421674 -0.04449645
 -0.04476205 -0.04501646 -0.04525997 -0.04549523 -0.04571829 -0.04592864 -0.04611745 -0.04628167 -0.04640909 -0.04649625
 -0.04652869 -0.04650364 -0.0464046 -0.04622894 -0.04596337 -0.04560585 -0.04515595 -0.04461359 -0.04399715 -0.04330912
 -0.04258447 -0.04182755 -0.04108086 -0.0403483 -0.03966675 -0.03903596 -0.03847537 -0.0379782 -0.03754405 -0.03716115
 -0.03681779 -0.03650055 -0.03619649 -0.03589379 -0.03558307 -0.03525746 -0.03491196 -0.0345459 -0.03415778 -0.03375085
 -0.03332529 -0.03288485 -0.03242996 -0.03196258 -0.03148287 -0.03098988 -0.03048317 -0.02995709 -0.02941016 -0.02883125
 -0.02821791 -0.02755594 -0.02684253 -0.02606395 -0.02521888 -0.02429754 -0.02330421 -0.02223644 -0.02110939 -0.0199293
 -0.01872393 -0.01750584 -0.01630885 -0.01514718 -0.01404608 -0.01301647 -0.01206075 -0.01118385 -0.01036126 -0.009592401
 -0.008839268 -0.008099633 -0.007344806 -0.006574944 -0.00578627 -0.004982668 -0.004184424 -0.003398387 -0.002658637 -0.001973617
 -0.001380505 -0.0008848638 -0.0005154983 -0.0002660467 -0.0001457998 -0.0001301853 -0.0002077826 -0.0003420767 -0.0005116528 -0.0006864686
 -0.0008488068 -0.0009895678 -0.001100656 -0.001193971 -0.001268742 -0.00134725 -0.001431429 -0.00154061 -0.001676133 -0.001844667
 -0.002045628 -0.002270596 -0.00251797 -0.002772857 -0.003035188 -0.003296382 -0.003558239 -0.003821274 -0.004086317 -0.004355187
 -0.004627748 -0.004902537 -0.005185564 -0.005477201 -0.005795802 -0.006148731 -0.006560333 -0.00704212 -0.007607406 -0.008265064
 -0.009003958 -0.009827005 -0.01069853 -0.01161691 -0.01253394 -0.01344671 -0.01431092 -0.01512489 -0.01585827 -0.01651129
 -0.01706952 -0.01753543 -0.01790893 -0.01819624 -0.01841052 -0.01856302 -0.01867624 -0.01876674 -0.01886042 -0.01897763
 -0.01914187 -0.01937241 -0.0196872 -0.02009467 -0.02060555 -0.02120804 -0.02190556 -0.02266362 -0.02348051 -0.02430434
 -0.02513093 -0.02590508 -0.02662307 -0.02724375 -0.02776614 -0.02817335 -0.02846768 -0.02865515 -0.02874161 -0.02875026
 -0.02869254 -0.02860609 -0.02850847 -0.02844562 -0.02843608 -0.02852087 -0.02871129 -0.02903192 -0.02948288 -0.03007231
 -0.03079222 -0.03164242 -0.03261127 -0.03369741 -0.03488349 -0.03616859 -0.03752449 -0.03894953 -0.0404061 -0.04189184
 -0.04337114 -0.0448426 -0.04628237 -0.04769028 -0.0490539 -0.0503731 -0.05164069 -0.05285632 -0.05401491 -0.05511751
 -0.05616291 -0.05715461 -0.05809617 -0.05899164 -0.05984611 -0.06066107 -0.06143947 -0.0621793 -0.06288068 -0.06354068
 -0.06415838 -0.06473245 -0.06526227 -0.06574859 -0.06619111 -0.06659392 -0.06695715 -0.06728771 -0.06758598 -0.06785859
 -0.06810577 -0.06833206 -0.06853798 -0.06872822 -0.0689033 -0.06906813 -0.06922039 -0.06935979 -0.06947945 -0.06957108
 -0.06962716 -0.06963728 -0.06959962 -0.06950887 -0.06936988 -0.0691829 -0.06895442 -0.06868592 -0.06838361 -0.06804808
 -0.0676885 -0.06730516 -0.06691318 -0.06651337 -0.06612501 -0.06574922 -0.0654071 -0.06510008 -0.06484906 -0.06465475
 -0.06453273 -0.06448033 -0.0645 -0.06458446 -0.06472229 -0.06490404 -0.0651134 -0.06534138 -0.06557489 -0.06580645
 -0.06602777 -0.06623463 -0.06642209 -0.06659356 -0.06674752 -0.0668952 -0.06703789 -0.06718811 -0.06734774 -0.06752323
 -0.06771541 -0.06792109 -0.06813983 -0.06836071 -0.06858276 -0.06879332 -0.06899194 -0.06916995 -0.06932732 -0.06945954
 -0.06956682 -0.06964679 -0.06970172 -0.06973249 -0.06974473 -0.06974342 -0.06973469 -0.06972459 -0.06971413 -0.06970617
 -0.06969623 -0.06968377 -0.06966373 -0.06963477 -0.06959534 -0.06954502 -0.06948399 -0.06941235 -0.0693273 -0.0692286
 -0.06911008 -0.06897172 -0.06881009 -0.06862655 -0.06842517 -0.06820815 -0.0679841 -0.06775432 -0.06752587 -0.06729787
 -0.06707264 -0.06684714 -0.06661946 -0.06638637 -0.06614447 -0.06589442 -0.06563479 -0.06537057 -0.06510326 -0.06483549
 -0.06456917 -0.06429823 -0.0640228 -0.06373145 -0.06342332 -0.06308961 -0.06272996 -0.0623416 -0.06192472 -0.0614802
 -0.06100768 -0.06050629 -0.05997469 -0.05940818 -0.05880608 -0.0581638 -0.0574838 -0.05676656 -0.0560175 -0.0552408
 -0.05444469 -0.05363357 -0.05282126 -0.0520125 -0.05122723 -0.05047128 -0.04976431 -0.0491112 -0.0485251 -0.04800837
 -0.04756903 -0.04720805 -0.04692786 -0.04672836 -0.0466008 -0.04654319 -0.04653389 -0.04656944 -0.04662217 -0.04668816
 -0.04674158 -0.04677878 -0.04678005 -0.04674316 -0.04665592 -0.04651963 -0.04632954 -0.04609314 -0.0458117 -0.04549992
 -0.04516348 -0.04481877 -0.04447284 -0.0441331 -0.04380441 -0.0434774 -0.04315289 -0.04280942 -0.04244545 -0.04204214
 -0.04159877 -0.04111471 -0.04059189 -0.0400493 -0.03948981 -0.03893802 -0.03839526 -0.03787832 -0.0373876 -0.03693197
 -0.03651137 -0.03613093 -0.03578588 -0.03547587 -0.03518821 -0.03491569 -0.0346428 -0.03436081 -0.03405802 -0.03372863
 -0.03336691 -0.03296997 -0.03253915 -0.03207346 -0.03158183 -0.03106462 -0.03053457 -0.02999237 -0.02944954 -0.02890648
 -0.02837159 -0.02784491 -0.02733093 -0.02682963 -0.02634287 -0.02587168 -0.02541917 -0.02498644 -0.02457747 -0.02418996
 -0.02382385 -0.0234743 -0.02313772 -0.02281103 -0.02249196 -0.02217842 -0.02187032 -0.02156143 -0.02125101 -0.02093069
 -0.02059902 -0.02025154 -0.01988755 -0.01950733 -0.01911091 -0.01870241 -0.01828241 -0.0178588 -0.01743218 -0.01701017
 -0.01659251 -0.01618206 -0.01577883 -0.0153841 -0.01499843 -0.01462437 -0.01425916 -0.01390227 -0.01354669 -0.01318683
 -0.01281861 -0.01243668 -0.0120465 -0.01164731 -0.01125091 -0.01085955 -0.01048381 -0.01012626 -0.009788327 -0.009471067
 -0.009163842 -0.008866085 -0.008560294 -0.008245481 -0.007905535 -0.00753902 -0.007129998 -0.006676388 -0.00616129 -0.005586346
 -0.00494389 -0.004244236 -0.003497598 -0.002720283 -0.001933609 -0.001150165 -0.0003881276 0.0003528145 0.00106648 0.001762496
 0.002445633 0.003111483 0.003764644 0.00437234 0.004930405 0.005410846 0.005807378 0.006149773 0.006439374 0.006759851
 0.007115246 0.007580522 0.008152747 0.008855128 0.00967787 0.01060135 0.01161259 0.012675 0.01377183 0.01486414
 0.01592942 0.0169322 0.01784419 0.01863551 0.01927851 0.01974961 0.02003814 0.02012849 0.02004735 0.01978942
 0.01942719 0.01896499 0.01850452 0.0180546 0.01770688 0.01746712 0.01737554 0.01743023 0.01761208 0.01791602
 0.01830071 0.01876586 0.01928785 0.01987082 0.02051412 0.0212189 0.02199111 0.02281873 0.02369679 0.02459498
 0.02548932 0.02635309 0.02715836 0.02791765 0.02862212 0.02932007 0.03002739 0.03075031 0.03150392 0.03219423
 0.0328151 0.0332717 0.03355784 0.03364389 0.03353024 0.03321669 0.03270753 0.03202536 0.03118106 0.03022518
 0.02917015 0.02807019 0.02693574 0.02580612 0.02469302 0.02362323 0.02260928 0.02166935 0.02081199 0.02004819
 0.0193761 0.01880003 0.0183052 0.0178895 0.01753688 0.01724371 0.01700479 0.01681932 0.01668447 0.01660026
 0.01654764 0.01652429 0.01649153 0.01644607 0.01634632 0.01619204 0.01595787 0.01565034 0.01527033 0.01483074
 0.01435469 0.01385024 0.01334123 0.0128156 0.01227496 0.01169539 0.01106151 0.01036513 0.009595434 0.008767942
 0.007880414 0.006968447 0.006033059 0.00513401 0.004275767 0.003525803 0.002888901 0.002395057 0.002043201 0.001813517
 0.001702723 0.001679216 0.001741875 0.001872046 0.0020653 0.002303778 0.002576733 0.002857516 0.00313743 0.003392944
 0.003626912 0.003831782 0.004019268 0.004194544 0.004365109 0.004537513 0.004705432 0.00487001 0.005016716 0.005143236
 0.005238804 0.005301676 0.005328872 0.005320013 0.005276945 0.005200029 0.005095692 0.004965116 0.004819667 0.004660522
 0.004498748 0.004334267 0.004172493 0.004012828 0.003856221 0.003703286 0.003554845 0.003412378 0.00327771 0.003150943
 0.003033455 0.002922032 0.002816312 0.002711113 0.002604943 0.00249421 0.002377382 0.002256787 0.00213178 0.002012636
 0.001899794 0.001809314 0.00174172 0.001706824 0.001702597 0.001719268 0.00175291 0.001780352 0.001802476 0.001807534
 0.001803729 0.001800893 0.001805648 0.001832877 0.001879045 0.001947351 0.002029455 0.00212115 0.002216439 0.002312453
 0.002403294 0.002487563 0.00255735 0.002610401 0.002645322 0.002660739 0.002667117 0.002664981 0.002666479 0.00267173
 0.002680722 0.002691573 0.002689627 0.002673078 0.002625242 0.002548077 0.002436658 0.002297922 0.002141318 0.001976
 0.0018176 0.001672776 0.001554054 0.001461008 0.001398976 0.001358453 0.001337131 0.001325433 0.00131858 0.001318725
 0.001324787 0.001345152 0.001381813 0.001429279 0.001487788 0.001536086 0.00157384</values></Ydata></AB><ScSm><Ydata ylabel="Single channel"><values byteorder="INTEL" format="FLOAT32" numvalues="1814"> 0.08572254 0.08582717 0.0859468 0.08608773 0.08624333 0.08639953 0.08654261 0.08666696 0.08677639 0.08687574
 0.08696866 0.08706659 0.08718836 0.08734219 0.08751331 0.08767341 0.08780092 0.0878994 0.0879993 0.08812894
 0.08827502 0.08838161 0.08840087 0.08834496 0.08828157 0.0882748 0.08834238 0.08848637 0.08873183 0.08906487
 0.08934533 0.08939767 0.08923151 0.08907062 0.08910587 0.08930373 0.08949935 0.08957781 0.08951899 0.08938091
 0.08932187 0.08955203 0.09014446 0.09087854 0.09130634 0.09101114 0.08988607 0.08828475 0.08693554 0.08656086
 0.08735773 0.08877966 0.08994439 0.09034391 0.09012041 0.08969401 0.0893241 0.0891007 0.08913589 0.08954217
 0.09025051 0.09094051 0.09116651 0.09064841 0.08958627 0.0886251 0.08833002 0.08874816 0.08960265 0.09062868
 0.09132737 0.0907174 0.0882016 0.08488354 0.0832262 0.08478008 0.08856261 0.09207988 0.09359711 0.09305944
 0.09137505 0.08961007 0.08870561 0.08915688 0.09069155 0.0925421 0.09405573 0.09487034 0.09475569 0.09372168
 0.09223112 0.09100137 0.0906041 0.09130302 0.09295075 0.09482287 0.09590249 0.09568092 0.09454185 0.09326157
 0.09243342 0.09243569 0.09346514 0.09530586 0.09734563 0.09902625 0.1001353 0.1006889 0.1007953 0.1006291
 0.1003452 0.1000588 0.09996421 0.1002363 0.1006925 0.1008273 0.1003734 0.09966005 0.09928016 0.09947827
 0.09994008 0.1001737 0.09999963 0.09946385 0.09833984 0.09623501 0.09339473 0.09083331 0.08934541 0.08894606
 0.08951298 0.09112759 0.09329523 0.09469773 0.0945159 0.0935338 0.09329353 0.0944263 0.09625047 0.09776863
 0.09863919 0.09923457 0.1000569 0.1011701 0.1020545 0.1019891 0.1007859 0.09924932 0.09864295 0.09946921
 0.1009813 0.1021024 0.1025587 0.1028527 0.103374 0.1038344 0.1035198 0.1020547 0.1000434 0.09886272
 0.0995291 0.1016947 0.1038249 0.1043597 0.1028236 0.1000815 0.0976131 0.09644867 0.09676406 0.09829737
 0.100719 0.1034799 0.1057232 0.106717 0.106359 0.1051544 0.1036639 0.1019843 0.09994531 0.09791405
 0.09701346 0.09807876 0.1005864 0.1030654 0.1044566 0.1047081 0.104181 0.1029318 0.1007971 0.09811892
 0.09607564 0.09581491 0.09715194 0.09860334 0.09896252 0.09843083 0.09795631 0.09793559 0.09798871 0.09774241
 0.09738252 0.09738231 0.0978962 0.09856538 0.09890153 0.0987413 0.09828528 0.09780951 0.09740382 0.09692302
 0.09621087 0.09544599 0.09513418 0.09557812 0.09647033 0.09720052 0.09745929 0.09736639 0.09710416 0.09661676
 0.09571559 0.09445016 0.09329461 0.09281452 0.09311677 0.09376591 0.0942502 0.09436622 0.09417076 0.09378754
 0.09332333 0.09284066 0.09236994 0.09197927 0.09176463 0.09172082 0.0917052 0.09157985 0.09132236 0.09097327
 0.09054928 0.09004816 0.08950508 0.08900765 0.08864059 0.08841641 0.08827636 0.08815242 0.08799572 0.08775926
 0.08741347 0.086987 0.0865492 0.08614618 0.08578323 0.08546094 0.08519129 0.08497217 0.08476984 0.08454178
 0.08427221 0.08397497 0.08366464 0.08334148 0.08300707 0.08267795 0.0823772 0.08211835 0.08189431 0.08168162
 0.08146852 0.08127227 0.08110444 0.08092922 0.08069342 0.08039437 0.08008572 0.07981846 0.07960153 0.07941255
 0.07922252 0.07900722 0.07875057 0.07845286 0.07814442 0.07788026 0.07770092 0.07760148 0.07754765 0.07750545
 0.07744341 0.07733385 0.07717553 0.07699667 0.0768209 0.07664543 0.07645935 0.07626812 0.07609563 0.07596536
 0.07587624 0.07579783 0.07569769 0.07556782 0.07541963 0.07527034 0.07514022 0.07503895 0.07494444 0.07482031
 0.07466319 0.07451169 0.07439995 0.07431969 0.07423468 0.07412158 0.07399092 0.0738709 0.07377593 0.07369589
 0.07361484 0.07353035 0.07345138 0.07338317 0.07331566 0.0732277 0.073108 0.07297223 0.07284942 0.07275161
 0.0726684 0.07258943 0.07251771 0.07245839 0.07240553 0.07234532 0.07226932 0.07218124 0.072089 0.071992
 0.0718822 0.07175792 0.07162914 0.07150722 0.07139459 0.0712851 0.0711702 0.07104488 0.07091028 0.07077
 0.07062493 0.07047357 0.0703152 0.07015247 0.06999368 0.0698518 0.06973371 0.06962919 0.06951743 0.06938779
 0.06925067 0.06912731 0.069032 0.06896464 0.0689175 0.06888638 0.0688742 0.0688858 0.06892303 0.0689846
 0.06906667 0.06916544 0.06928331 0.0694318 0.06962109 0.06984514 0.07008184 0.07031117 0.07053164 0.07075714
 0.07100005 0.07125969 0.07152599 0.07179163 0.07205987 0.0723397 0.07263285 0.07292755 0.07320991 0.07348051
 0.07375351 0.07403947 0.07433644 0.07463767 0.07493906 0.07523638 0.07552505 0.07580833 0.07609863 0.07640478
 0.07672245 0.07704197 0.07736176 0.07768903 0.07802974 0.07838403 0.07875105 0.07913319 0.07953295 0.07994775
 0.08036983 0.08079195 0.08121331 0.08164071 0.08208337 0.08254605 0.08302566 0.08351374 0.08400209 0.08448835
 0.08497668 0.0854727 0.08597796 0.08649184 0.08701609 0.08755319 0.0881003 0.08864999 0.08919851 0.08974877
 0.09030327 0.09085825 0.09140808 0.09195323 0.09250043 0.09305511 0.09361477 0.09417017 0.09471312 0.09524333
 0.09576749 0.09629194 0.09681748 0.09733933 0.0978495 0.09834091 0.09881501 0.09928436 0.09976154 0.1002438
 0.1007154 0.1011673 0.1016081 0.1020508 0.1024948 0.1029261 0.1033356 0.1037298 0.1041218 0.1045153
 0.1049005 0.1052665 0.1056118 0.1059437 0.1062688 0.1065887 0.1069038 0.1072193 0.1075404 0.1078625
 0.1081751 0.1084749 0.1087689 0.1090628 0.109354 0.1096385 0.109917 0.1101921 0.1104641 0.1107298
 0.1109849 0.1112323 0.1114914 0.1117904 0.1121416 0.1125339 0.1129531 0.113398 0.1138691 0.1143538
 0.1148346 0.1153094 0.1157879 0.1162695 0.1167338 0.1171602 0.1175489 0.1179168 0.1182815 0.1186602
 0.1190757 0.1195465 0.1200681 0.1206125 0.1211432 0.1216319 0.1220704 0.1224748 0.1228701 0.1232632
 0.1236359 0.1239676 0.1242576 0.1245222 0.1247762 0.125019 0.1252336 0.1253959 0.1254865 0.1254925
 0.1254005 0.1251973 0.124881 0.1244661 0.1239683 0.123389 0.1227183 0.1219537 0.121103 0.1201706
 0.1191489 0.1180333 0.1168473 0.1156549 0.1145553 0.1136607 0.1130684 0.112842 0.1130097 0.1135624
 0.1144327 0.1154727 0.1164678 0.1171961 0.1175011 0.1173326 0.116736 0.1158066 0.1146452 0.1133363
 0.1119421 0.1105014 0.1090299 0.1075288 0.1060074 0.1045107 0.1031406 0.1020859 0.1016695 0.1023346
 0.1044569 0.1080351 0.1125438 0.1171605 0.1212083 0.1244349 0.1269494 0.1289879 0.1307455 0.1323388
 0.1338239 0.1352168 0.1365096 0.1376866 0.1387313 0.1396266 0.1403536 0.1408938 0.141238 0.1414039
 0.1414495 0.1414663 0.1415541 0.1417844 0.1421639 0.1426185 0.1430126 0.1431973 0.143057 0.1425234
 0.1415541 0.14014 0.1384382 0.1369818 0.1366693 0.1383045 0.1419707 0.1468688 0.1518351 0.1560375
 0.1592427 0.1616113 0.1633968 0.1648029 0.1659659 0.1669713 0.1678719 0.1687016 0.1694815 0.1702236
 0.1709384 0.1716368 0.1723274 0.1730132 0.1736908 0.1743544 0.1750037 0.1756467 0.1762937 0.1769485
 0.1776057 0.1782558 0.1788917 0.1795158 0.1801353 0.1807511 0.181356 0.181945 0.1825213 0.183092
 0.1836632 0.1842368 0.1848077 0.1853645 0.1858986 0.186411 0.1869088 0.1873981 0.1878816 0.188361
 0.188838 0.1893121 0.1897801 0.1902392 0.1906924 0.1911449 0.1915955 0.1920363 0.1924629 0.1928809
 0.1933002 0.1937257 0.1941548 0.1945826 0.1950075 0.1954325 0.1958643 0.1963064 0.1967556 0.1972029
 0.1976404 0.1980666 0.198486 0.1989052 0.1993284 0.1997564 0.2001866 0.2006151 0.2010382 0.2014536
 0.2018606 0.2022593 0.2026505 0.2030363 0.20342 0.2038035 0.2041863 0.2045656 0.2049396 0.2053112
 0.2056862 0.2060668 0.2064476 0.2068206 0.2071822 0.2075343 0.2078815 0.2082301 0.2085865 0.2089525
 0.2093241 0.209695 0.2100611 0.2104224 0.2107818 0.2111429 0.2115059 0.2118687 0.2122293 0.2125862
 0.2129377 0.2132833 0.2136274 0.2139765 0.2143336 0.214695 0.2150531 0.2154033 0.2157486 0.2160955
 0.2164461 0.2167966 0.217144 0.2174895 0.217834 0.2181767 0.2185168 0.2188547 0.2191906 0.2195243
 0.2198554 0.2201836 0.2205108 0.2208396 0.2211702 0.2215001 0.2218272 0.2221507 0.2224709 0.2227897
 0.2231089 0.2234268 0.2237418 0.2240584 0.2243825 0.2247128 0.225042 0.2253651 0.2256819 0.2259938
 0.2263014 0.2266048 0.226905 0.2272069 0.2275163 0.2278323 0.228148 0.2284592 0.2287666 0.2290732
 0.2293822 0.229695 0.2300078 0.2303149 0.2306161 0.2309156 0.2312156 0.2315161 0.2318174 0.2321194
 0.2324211 0.2327224 0.2330215 0.2333137 0.233597 0.233875 0.2341516 0.2344282 0.2347057 0.2349844
 0.2352619 0.2355388 0.2358178 0.2360987 0.2363794 0.236662 0.2369478 0.2372327 0.2375129 0.2377904
 0.2380688 0.2383506 0.2386376 0.2389271 0.239212 0.2394912 0.2397715 0.2400576 0.2403487 0.2406434
 0.2409376 0.2412246 0.2415043 0.2417835 0.2420653 0.2423487 0.2426353 0.2429242 0.2432101 0.2434914
 0.2437726 0.2440534 0.2443306 0.2446065 0.2448836 0.2451592 0.2454326 0.245707 0.2459824 0.246258
 0.246538 0.2468217 0.2470999 0.2473698 0.247638 0.2479085 0.248182 0.2484602 0.2487373 0.2490017
 0.2492528 0.2494993 0.2497427 0.249982 0.2502243 0.2504714 0.2507149 0.2509513 0.2511826 0.2513981
 0.2515727 0.2516475 0.2514645 0.2506899 0.2487691 0.2449357 0.2383656 0.2285121 0.2154421 0.1999221
 0.1832 0.1666135 0.1512294 0.1377084 0.1263978 0.1174766 0.1110517 0.1072457 0.1062671 0.1085097
 0.114683 0.1253843 0.1395434 0.1530956 0.1605209 0.1590331 0.1511074 0.1422336 0.136454 0.1343996
 0.1346933 0.1359843 0.1377369 0.1400771 0.1433291 0.1475347 0.1524074 0.1578062 0.1640069 0.1712834
 0.1793748 0.1875843 0.1953643 0.2026716 0.2097591 0.2167431 0.2234336 0.2295189 0.234808 0.2392957
 0.2430992 0.2463813 0.2492876 0.2519152 0.2543287 0.2565641 0.258583 0.2602535 0.2614287 0.2620643
 0.2622714 0.2622638 0.2622415 0.2623063 0.2624729 0.2627297 0.2630674 0.2634739 0.2639367 0.264446
 0.2649859 0.2655368 0.2660877 0.266632 0.2671587 0.2676599 0.2681366 0.2685878 0.2690076 0.2693974
 0.2697653 0.2701166 0.2704553 0.2707868 0.2711137 0.2714356 0.2717549 0.272071 0.2723737 0.2726523
 0.2729049 0.273136 0.2733522 0.2735631 0.2737754 0.2739888 0.2742017 0.2744143 0.2746235 0.2748251
 0.2750206 0.2752142 0.2754051 0.2755914 0.2757757 0.2759608 0.2761467 0.2763331 0.2765198 0.2767054
 0.2768912 0.2770804 0.2772712 0.2774581 0.2776386 0.2778149 0.2779912 0.2781749 0.2783726 0.2785826
 0.278798 0.2790158 0.2792362 0.2794561 0.2796732 0.2798896 0.2801065 0.2803224 0.2805384 0.2807561
 0.2809675 0.2811579 0.2813208 0.2814672 0.2816179 0.2817858 0.281965 0.2821407 0.2823085 0.2824775
 0.2826551 0.2828404 0.2830292 0.2832175 0.2834033 0.2835932 0.2837993 0.2840237 0.2842547 0.2844821
 0.2847058 0.2849284 0.2851505 0.2853749 0.2856034 0.2858309 0.2860495 0.2862608 0.2864813 0.2867312
 0.2870154 0.2873144 0.2876015 0.2878683 0.2881252 0.2883856 0.2886568 0.288934 0.2891911 0.2893991
 0.2895701 0.2897654 0.2900399 0.2903876 0.2907549 0.2910947 0.2913972 0.2916781 0.2919512 0.2922134
 0.2924494 0.2926489 0.2928268 0.2930286 0.2933012 0.2936434 0.2940003 0.2943177 0.2945861 0.2948242
 0.2950489 0.2952705 0.2954815 0.2956389 0.2957075 0.2957422 0.2958814 0.2962165 0.2966899 0.2971532
 0.2975155 0.2977985 0.2980607 0.2983197 0.2985619 0.2987582 0.2988312 0.2986953 0.2984166 0.298267
 0.298503 0.2991059 0.2998164 0.3003961 0.3007853 0.301048 0.301263 0.3014703 0.3016458 0.3017081
 0.3016065 0.3014396 0.3014345 0.3017402 0.3022603 0.3027586 0.303106 0.3033516 0.30359 0.3038555
 0.3041072 0.3042084 0.3039837 0.3034549 0.3030047 0.3031285 0.3039522 0.3050866 0.3060171 0.3065628
 0.3068779 0.3070931 0.3071245 0.306832 0.3061955 0.3053231 0.3044935 0.3041946 0.304805 0.306108
 0.3073803 0.3081164 0.3084638 0.3088522 0.3094341 0.3100248 0.3104042 0.3105127 0.310407 0.3101321
 0.3097034 0.3092564 0.309131 0.309631 0.3106726 0.3118058 0.3126377 0.3131388 0.3134621 0.3134916
 0.3127244 0.3108649 0.308607 0.3074644 0.3084261 0.3109142 0.3134093 0.314954 0.3156779 0.3160853
 0.316399 0.3164969 0.3159026 0.3139458 0.3106754 0.3076515 0.3069987 0.3093165 0.3130066 0.3158192
 0.3165712 0.3153913 0.3131458 0.3110359 0.3101771 0.3109957 0.3130453 0.3154633 0.3174911 0.3186839
 0.3189453 0.3184863 0.3177294 0.3171904 0.3171602 0.3172697 0.3167154 0.3153023 0.3138251 0.3128455
 0.3116552 0.309427 0.3070464 0.3065616 0.3086494 0.3116415 0.3134618 0.3137509 0.3135028 0.3130659
 0.3113164 0.307144 0.301509 0.2974224 0.2973715 0.3008438 0.3048333 0.3067824 0.3066011 0.3058388
 0.3054821 0.3048976 0.3027784 0.2989946 0.2953116 0.2938125 0.2945716 0.2955567 0.2948887 0.2921841
 0.2875688 0.2811564 0.2745687 0.2712962 0.273607 0.2796965 0.2852791 0.287306 0.2849362 0.2782349
 0.2684107 0.2590869 0.2546913 0.256376 0.26066 0.26278 0.2604558 0.2540322 0.2445123 0.23302
 0.2217029 0.2135088 0.2102924 0.2113287 0.2135952 0.2132331 0.2075277 0.1969921 0.1857463 0.1784698
 0.1761676 0.1756125 0.1732066 0.1683481 0.1627485 0.1579525 0.1544165 0.1519115 0.1498368 0.1476673
 0.1453916 0.1428154 0.138743 0.1323957 0.1256918 0.1222684 0.1236589 0.1279512 0.1326562 0.1370913
 0.1411031 0.1433669 0.1427681 0.1406551 0.1400185 0.1423484 0.1462313 0.1491676 0.1500972 0.1498464
 0.1495192 0.1491228 0.1481211 0.1469198 0.1469003 0.1487187 0.1512921 0.1529716 0.1532035 0.1525572
 0.1516251 0.1505128 0.1491342 0.1474568 0.1454895 0.1433045 0.1410386 0.1387689 0.136475 0.1341393
 0.1316968 0.1288121 0.1250079 0.120413 0.1162948 0.1142565 0.1146855 0.1165125 0.1186378 0.1206787
 0.1218967 0.1207169 0.1166641 0.1121326 0.110773 0.1140103 0.119917 0.125395 0.1286317 0.1293688
 0.1278994 0.1250122 0.1229111 0.1248744 0.1328346 0.1454822 0.1594283 0.1719598 0.1820731 0.1894256
 0.1936145 0.1949086 0.1950117 0.1964071 0.200735 0.2077598 0.2155948 0.2215307 0.2232034 0.2206046
 0.2175454 0.2193298 0.2273483 0.2370975 0.2431378 0.2448853 0.2457671 0.2479448 0.250423 0.2519884
 0.253384 0.2557362 0.258411 0.2594425 0.2572715 0.2514018 0.2423301 0.2319684 0.2234212 0.2187679
 0.2170903 0.2157896 0.2134104 0.2098244 0.2045535 0.1973701 0.1904444 0.1872868 0.1887617 0.1919225
 0.1934539 0.1928341 0.1914923 0.190123 0.1878638 0.1838219 0.1787184 0.1746116 0.1729238 0.1731197
 0.1736242 0.1735335 0.1728252 0.1714339 0.1692307 0.1669964 0.1664852 0.1689555 0.1739133 0.1796304
 0.1847311 0.1890272 0.1930443 0.1972208 0.2016044 0.205952 0.2100371 0.2140985 0.2188601 0.2246883
 0.2308414 0.2361019 0.2401817 0.2439968 0.2484439 0.2533322 0.2576973 0.2608824 0.2631349 0.2653023
 0.2680828 0.2714792 0.2748507 0.2775211 0.2794574 0.2813598 0.2839699 0.2872757 0.2905224 0.293
 0.294646 0.2958982 0.2972213 0.2988296 0.3006219 0.3023049 0.3037751 0.3054089 0.3077469 0.3108262
 0.3140155 0.3165748 0.3182305 0.3191701 0.319654 0.3197753 0.3195394 0.3190432 0.3184984 0.3180815
 0.3178076 0.3175672 0.3172504 0.3168211 0.316326 0.3158806 0.3156285 0.3156754 0.3160567 0.3167548
 0.3177109 0.3188143 0.3199258 0.3209454 0.321839 0.322594 0.323173 0.3235308 0.3236534 0.3235481
 0.3231987 0.3225517 0.3215385 0.3200896 0.3181556 0.3158085 0.3134009 0.3115871 0.3110547 0.3121069
 0.3144476 0.3173663 0.3201575 0.3224343 0.3241595 0.3254831 0.3265747 0.3275477 0.32846 0.3293422
 0.3302277 0.3311625 0.3321898 0.3333249 0.33455 0.3358301 0.3371289 0.3384088 0.3396232 0.3407158
 0.3416339 0.3423463 0.3428524 0.3431739 0.3433365 0.343352 0.3432127 0.3429054 0.3424386 0.3418579
 0.3412314 0.3406158 0.3400269 0.3394365 0.3387955 0.338048 0.3371119 0.3358706 0.3342509 0.3323348
 0.3303392 0.3284345 0.3266078 0.3247369 0.3227623 0.3207375 0.3187434 0.3168117 0.3149254 0.3130463
 0.3111298 0.3091339 0.3070258 0.3047832 0.3023999 0.2998878 0.2972637 0.2945289 0.2916692 0.288663
 0.2854683 0.2820011 0.2781461 0.2738037 0.2689291 0.2635341 0.257663 0.2513823 0.2447934 0.2380445
 0.2313212 0.2248239 0.2187539 0.2133082 0.2086679 0.2049679 0.2022653 0.200537 0.1997158 0.1997387
 0.2005692 0.2021838 0.204541 0.2075548 0.2110841 0.2149377 0.218897 0.2227559 0.2263724 0.2297081
 0.2328194 0.2357962 0.2387003 0.2415504 0.2443424 0.2470528 0.2496225 0.2519571 0.2539656 0.2556029
 0.2568809 0.257854 0.2585974 0.2591911 0.2597148 0.2602513 0.260886 0.2616852 0.2626643 0.2637728
 0.2649107 0.2659674 0.2668623 0.2675681 0.2681116 0.2685648 0.2690372 0.269659 0.2705459 0.2717679
 0.2733499 0.2752975 0.2776176 0.2803124 0.2833568 0.2866868 0.2902114 0.2938306 0.2974349 0.3008955
 0.304078 0.3068789 0.3092493 0.3111867 0.312708 0.3138332 0.3145869 0.3150051 0.315132 0.3150103
 0.3146793 0.3141803 0.3135554 0.312834 0.312018 0.311082 0.309998 0.3087654 0.3074144 0.3059772
 0.3044696 0.3029067 0.301321 0.2997595 0.2982717 0.2969084 0.2957166 0.294726 0.2939379 0.2933213
 0.2928161 0.2923422 0.2918138 0.2911555 0.2903219 0.2893081 0.2881342 0.2868157 0.2853493 0.2837229
 0.2819263 0.2799561 0.2778173 0.2755221 0.2730873 0.2705326 0.2678714 0.2651041 0.26224 0.2593364
 0.256493 0.2537948 0.2512707 0.2489026 0.2466584 0.2445125 0.2424515 0.2404675 0.2385486 0.2366827
 0.2348703 0.2331239 0.2314594 0.2298858 0.2283993 0.2269873 0.225645 0.224379 0.2231886 0.2220547
 0.2209525 0.2198671 0.2188063 0.2178141 0.216957 0.2162673 0.215707 0.2152038 0.2147201 0.2142848
 0.2139664 0.2138126 0.2138054 0.2138749 0.2139379 0.2139034 0.2136597 0.2130945 0.2121271 0.2107134
 0.2088425 0.20655 0.2039213 0.2010817 0.198193 0.1954385 0.1929787 0.1909139 0.1892772 0.1880306
 0.1870771 0.1863165 0.185706 0.1852681 0.1850481 0.1850369 0.1851055 0.1850544 0.1847954 0.1844669
 0.1843275 0.1845472 0.1851108 0.1858687 0.1866428 0.1873082 0.1878117 0.1881391 0.1882977 0.1883189
 0.1882302 0.1880237 0.1876765 0.1871847 0.1865606 0.1858241 0.1850056 0.1841247 0.1831724 0.1821339
 0.181006 0.1797808 0.178453 0.1770338 0.1755158 0.1738623 0.1721072 0.1704447 0.1691603 0.1684653
 0.1683792 0.1687251 0.1692599 0.1698414 0.1704306 0.170945 0.1712612 0.171443 0.1718493 0.1728818
 0.1746054 0.1766406 0.1784287 0.1795898 0.1800332 0.1798225 0.1790679 0.1779215 0.1765248 0.174944
 0.1732242 0.1714379 0.1696102 0.1677069 0.1657425 0.1637965 0.1619432 0.1602497 0.1587583 0.1574727
 0.1564463 0.1554346 0.1530035 0.1470318 0.1377645 0.1297927 0.128615 0.1347487 0.1430555 0.1482894
 0.149562 0.1490661 0.1485856 0.1484453 0.1485097 0.1487973 0.1493305 0.1499986 0.1505935 0.150905
 0.1508497 0.1504483 0.1495888 0.1478196 0.1443429 0.1382918 0.1293721 0.1184792 0.1075323 0.09847177
 0.09230085 0.0888555 0.08719851 0.08627552 0.08551908 0.08504376 0.08531253 0.0866504 0.08905694 0.09233566
 0.0962362 0.1004311 0.1044713 0.1079292 0.1106255 0.1126412 0.1141036 0.1150545 0.1155156 0.1155574
 0.115271 0.1147368 0.1140186 0.1131363 0.1120557 0.11075 0.1092914 0.1078803 0.1067626 0.1060705
 0.1057418 0.1056167 0.1055881 0.105628 0.1057234 0.1058517 0.105999 0.1061724 0.1064003 0.1067095
 0.1070781 0.1074278 0.1076861 0.1078358 0.1078983 0.1078866 0.1077729 0.1075105 0.1071152 0.1066908
 0.1062909 0.1057809 0.1049503 0.1037906 0.1025957 0.1017677 0.1015367 0.1018282 0.102345 0.1027823
 0.1030065 0.1030704 0.1030807 0.1030508</values></Ydata></ScSm><ScRf><Ydata ylabel="Single channel"><values byteorder="INTEL" format="FLOAT32" numvalues="1820"> 0.07055339 0.07068682 0.07080455 0.07090697 0.07099953 0.07109296 0.07119961 0.0713257 0.07146692 0.07160999
 0.07174037 0.07185258 0.07195093 0.07203881 0.07211664 0.07219367 0.07228946 0.07241454 0.07255639 0.07268916
 0.07279463 0.07287763 0.07296491 0.07307936 0.07320759 0.07330098 0.07331945 0.07327498 0.07322632 0.07322747
 0.07329117 0.07341629 0.07362293 0.07390164 0.07413821 0.07418661 0.0740523 0.07391901 0.07394542 0.07410614
 0.0742671 0.07433334 0.07428604 0.0741724 0.07412623 0.07432473 0.07482747 0.07544705 0.07580815 0.07556388
 0.07462602 0.07328981 0.07216338 0.0718499 0.07251275 0.07369469 0.07466131 0.07499339 0.07481272 0.07446801
 0.07417072 0.07399239 0.0740261 0.07436791 0.07496299 0.07554475 0.0757391 0.07530984 0.07442436 0.07362312
 0.07337835 0.07372816 0.07444116 0.07529806 0.07588416 0.07538018 0.07328631 0.07052319 0.0691473 0.07045228
 0.07361536 0.0765527 0.07781713 0.0773661 0.07596129 0.07449526 0.07375321 0.07414363 0.0754331 0.07697883
 0.07823841 0.07891283 0.07881224 0.0779468 0.07670477 0.07568633 0.07536879 0.07596973 0.07736047 0.07893133
 0.07983344 0.07964648 0.07869466 0.07762754 0.07694095 0.07695095 0.07782023 0.07936583 0.08107652 0.08248973
 0.08343041 0.08390874 0.0840093 0.08387632 0.08364269 0.08340883 0.08333845 0.08357494 0.08396041 0.08406988
 0.08368415 0.0830878 0.08278163 0.08296646 0.08337089 0.08357808 0.08343858 0.08299443 0.08205654 0.08029574
 0.07792068 0.07578471 0.07455166 0.07423051 0.07472123 0.07609524 0.07793148 0.07911536 0.0789633 0.07814686
 0.07796659 0.07894468 0.08049835 0.08178698 0.08252753 0.08303702 0.08373769 0.08468124 0.08543065 0.08538257
 0.08438279 0.08311102 0.08263047 0.08336015 0.08466801 0.08565003 0.08608034 0.08638049 0.08687077 0.08730292
 0.08707739 0.08588596 0.08424914 0.08333315 0.08398885 0.08590926 0.08779082 0.08831708 0.08709233 0.08485633
 0.08286681 0.08199643 0.08239239 0.08383505 0.08604762 0.08855884 0.09062854 0.0916235 0.09145491 0.09056228
 0.08943354 0.08814938 0.08655674 0.08497788 0.08439747 0.08554179 0.08794616 0.09032524 0.09175843 0.09219885
 0.09195252 0.09105881 0.0893743 0.08721587 0.08564615 0.08568661 0.08715431 0.0887098 0.08928031 0.08906278
 0.08891175 0.0891715 0.08948881 0.08953196 0.08948597 0.08979008 0.09057733 0.09150528 0.09211899 0.0922696
 0.09214711 0.09201236 0.09194873 0.09181315 0.09145585 0.09105519 0.09110088 0.09187786 0.09308351 0.09413202
 0.09473114 0.09499704 0.09509826 0.09496916 0.09442163 0.09351398 0.09272748 0.0926242 0.0933011 0.09431715
 0.09516229 0.0956374 0.09580287 0.09578389 0.0956861 0.09556948 0.09546386 0.09544068 0.09560013 0.09593574
 0.09629725 0.09654179 0.09665091 0.09667045 0.09661448 0.09647374 0.09628087 0.0961272 0.09610471 0.09623459
 0.09646271 0.09671581 0.09693339 0.09706003 0.09706479 0.09698004 0.09687968 0.09681129 0.09677926 0.09678687
 0.09685243 0.09697524 0.09711538 0.09722503 0.09728789 0.09731661 0.09732208 0.09730389 0.09726812 0.09723783
 0.09724218 0.09729681 0.09738909 0.09748667 0.09757541 0.0976781 0.09781034 0.09793265 0.09798461 0.0979609
 0.09792013 0.09792127 0.09797664 0.09806147 0.09814271 0.09819196 0.09818789 0.09812945 0.09805666 0.09804052
 0.09813102 0.0983208 0.09856659 0.09882316 0.09904794 0.09920841 0.09930888 0.09938718 0.09946969 0.09954857
 0.09960908 0.09966128 0.09973907 0.09987336 0.1000622 0.1002671 0.1004452 0.1005802 0.1006814 0.1007743
 0.1008939 0.1010544 0.1012166 0.1013194 0.1013579 0.101396 0.1014884 0.1016175 0.1017225 0.1017735
 0.1017988 0.1018484 0.1019417 0.1020577 0.1021664 0.1022626 0.1023668 0.1024942 0.1026225 0.1026988
 0.1026928 0.1026359 0.1025907 0.1025884 0.1026158 0.1026584 0.102724 0.1028157 0.102907 0.1029594
 0.1029618 0.1029422 0.1029364 0.1029498 0.102955 0.102927 0.1028703 0.102811 0.1027716 0.1027558
 0.1027507 0.1027377 0.1027035 0.1026462 0.1025736 0.1024961 0.1024198 0.1023484 0.1022959 0.1022859
 0.1023208 0.1023528 0.1023101 0.1021644 0.1019613 0.1017762 0.1016484 0.1015595 0.1014652 0.1013377
 0.1011826 0.1010251 0.1008843 0.100762 0.1006486 0.1005385 0.1004382 0.1003646 0.1003275 0.1003086
 0.1002657 0.1001697 0.1000342 0.09990055 0.09979777 0.09972794 0.09967957 0.09964128 0.09960795 0.09958585
 0.09958524 0.09960076 0.0996097 0.09959848 0.09958041 0.09958129 0.09961926 0.09969896 0.09980728 0.0999108
 0.09997722 0.1000087 0.100041 0.1001044 0.1001988 0.1003087 0.1004274 0.1005578 0.1007003 0.1008518
 0.1010132 0.1011915 0.1013932 0.1016166 0.1018502 0.1020781 0.1022942 0.1025098 0.1027453 0.1030106
 0.1032962 0.1035831 0.1038589 0.1041255 0.1043926 0.1046661 0.1049434 0.105223 0.1055131 0.1058235
 0.1061513 0.106482 0.1068059 0.1071255 0.1074476 0.1077738 0.1081015 0.108432 0.1087762 0.1091458
 0.1095333 0.1099054 0.1102291 0.1105058 0.1107718 0.1110652 0.1113972 0.1117493 0.112088 0.1123881
 0.1126551 0.1129223 0.1132151 0.1135255 0.113831 0.114134 0.114465 0.1148403 0.1152299 0.1155758
 0.1158456 0.116063 0.1162807 0.1165262 0.116781 0.1170149 0.1172266 0.117441 0.1176734 0.1179162
 0.1181616 0.1184188 0.1186957 0.118976 0.1192312 0.1194526 0.1196551 0.1198517 0.1200348 0.120186
 0.1202981 0.1203864 0.1204818 0.1206059 0.1207532 0.1209016 0.1210423 0.1211886 0.1213558 0.1215447
 0.1217524 0.1219831 0.1222362 0.1224933 0.1227365 0.1229774 0.1232477 0.1235523 0.1238509 0.1240996
 0.1242995 0.1244859 0.1246823 0.1248883 0.1251065 0.1253543 0.125642 0.1259553 0.1262664 0.1265578
 0.1268351 0.1271213 0.1274303 0.1277434 0.1280192 0.1282353 0.1284125 0.1285966 0.1288209 0.1290876
 0.1293757 0.1296607 0.1299285 0.1301707 0.1303735 0.1305215 0.1306176 0.1306874 0.1307499 0.1307901
 0.1307666 0.1306453 0.1304159 0.1300775 0.1296231 0.1290473 0.1283707 0.1276547 0.1269899 0.12647
 0.1261666 0.1261186 0.1263292 0.1267643 0.1273527 0.1279981 0.1286019 0.1290775 0.1293528 0.1293756
 0.1291316 0.1286522 0.127998 0.1272325 0.1264106 0.1255768 0.1247639 0.1240091 0.1233853 0.1230123
 0.1230222 0.1235059 0.1244817 0.1258837 0.1275605 0.1293043 0.1309254 0.1323263 0.1335129 0.1345396
 0.1354553 0.1362901 0.137067 0.1378044 0.1385097 0.1391816 0.1398185 0.1404186 0.1409745 0.1414719
 0.1418946 0.1422292 0.1424719 0.1426353 0.142742 0.1428078 0.1428381 0.1428407 0.1428272 0.1427894
 0.1426859 0.1424624 0.1420915 0.1415942 0.1410417 0.1405539 0.1402943 0.140436 0.1410908 0.1422388
 0.1437204 0.1453095 0.1468095 0.1481039 0.1491522 0.1499698 0.1506086 0.1511314 0.1515876 0.1520056
 0.1523998 0.1527771 0.1531404 0.1534925 0.153839 0.1541854 0.1545327 0.1548789 0.155221 0.1555569
 0.155887 0.1562164 0.156555 0.1569104 0.157278 0.1576417 0.1579906 0.1583305 0.1586734 0.1590185
 0.1593526 0.1596684 0.1599737 0.1602834 0.1606079 0.1609491 0.1612983 0.1616394 0.1619599 0.1622605
 0.1625507 0.1628394 0.163131 0.1634263 0.1637221 0.164012 0.1642924 0.1645682 0.164848 0.1651333
 0.1654149 0.1656809 0.1659296 0.166171 0.1664179 0.1666749 0.1669371 0.1671965 0.1674508 0.1677071
 0.1679745 0.1682521 0.1685276 0.1687896 0.169039 0.1692848 0.1695336 0.1697851 0.1700373 0.1702907
 0.1705478 0.1708085 0.171069 0.1713261 0.1715813 0.1718389 0.1720988 0.1723565 0.1726088 0.1728573
 0.173105 0.1733532 0.1736019 0.1738514 0.1741025 0.1743537 0.1746011 0.1748414 0.1750752 0.1753061
 0.1755379 0.1757739 0.1760151 0.1762591 0.1765008 0.1767393 0.1769779 0.1772198 0.1774636 0.1777068
 0.1779495 0.178194 0.1784411 0.178688 0.1789326 0.1791759 0.1794208 0.1796671 0.1799121 0.1801549
 0.180396 0.1806346 0.18087 0.1811038 0.1813383 0.1815731 0.181807 0.1820405 0.1822758 0.182514
 0.1827536 0.1829929 0.1832326 0.1834745 0.183718 0.1839587 0.1841945 0.1844284 0.1846636 0.1849005
 0.1851377 0.1853738 0.1856081 0.1858415 0.1860758 0.1863116 0.1865485 0.1867865 0.1870248 0.1872606
 0.1874941 0.1877309 0.1879749 0.1882229 0.1884692 0.1887117 0.1889519 0.1891931 0.1894387 0.1896888
 0.1899397 0.1901884 0.1904338 0.190676 0.1909185 0.191165 0.1914157 0.191667 0.1919177 0.1921686
 0.1924199 0.1926721 0.1929275 0.193187 0.1934488 0.1937107 0.1939702 0.1942245 0.1944718 0.1947113
 0.1949416 0.1951638 0.1953847 0.1956098 0.1958381 0.1960675 0.1962987 0.1965326 0.1967694 0.1970102
 0.1972545 0.1974984 0.1977407 0.1979847 0.1982326 0.1984845 0.1987398 0.1989947 0.1992442 0.1994906
 0.1997427 0.2000026 0.2002657 0.2005301 0.200796 0.2010615 0.2013262 0.2015924 0.2018601 0.2021275
 0.2023959 0.2026663 0.2029358 0.2032043 0.2034737 0.203742 0.204007 0.2042739 0.2045464 0.2048198
 0.2050903 0.2053602 0.2056315 0.2059036 0.2061775 0.2064513 0.2067215 0.2069925 0.2072716 0.2075568
 0.2078424 0.2081292 0.2084162 0.2086954 0.2089652 0.2092317 0.2094969 0.2097605 0.2100266 0.2102955
 0.2105611 0.2108241 0.2110882 0.2113444 0.2115699 0.2117148 0.2116434 0.2110695 0.2095219 0.2063564
 0.2008833 0.1926418 0.1816803 0.1686345 0.154551 0.1405613 0.1275764 0.1161641 0.1066221 0.09909973
 0.09368396 0.09047662 0.08965593 0.09155963 0.09679551 0.1058802 0.1179203 0.1294771 0.1358578 0.1346703
 0.1279922 0.1204854 0.1156005 0.1138859 0.1141685 0.1152932 0.1168054 0.1188198 0.1216176 0.1252349
 0.1294256 0.1340668 0.1393917 0.1456355 0.1525818 0.1596411 0.1663445 0.1726483 0.1787636 0.1847889
 0.1905618 0.1958168 0.2003933 0.204291 0.207612 0.2104931 0.2130545 0.2153772 0.2175152 0.2194979
 0.2212904 0.2227792 0.2238408 0.2244395 0.2246709 0.224718 0.2247535 0.2248667 0.2250707 0.2253546
 0.2257088 0.2261229 0.2265884 0.2270992 0.227641 0.2281931 0.2287417 0.2292804 0.2298025 0.2303047
 0.2307894 0.2312542 0.2316928 0.2321069 0.2325047 0.2328892 0.2332605 0.2336217 0.2339777 0.2343327
 0.2346891 0.2350425 0.2353808 0.2356957 0.2359893 0.2362666 0.2365315 0.2367907 0.2370487 0.2373047
 0.2375582 0.2378137 0.2380723 0.2383297 0.2385822 0.2388294 0.2390726 0.2393133 0.239553 0.2397917
 0.2400304 0.2402727 0.2405185 0.2407635 0.2410072 0.2412528 0.2414992 0.2417397 0.2419714 0.242199
 0.242432 0.2426807 0.2429481 0.2432238 0.2434939 0.2437565 0.2440206 0.2442922 0.2445697 0.2448479
 0.2451224 0.2453948 0.2456711 0.245952 0.2462262 0.2464795 0.246709 0.2469259 0.247146 0.2473799
 0.2476258 0.2478738 0.2481179 0.2483603 0.2486053 0.2488531 0.249101 0.2493454 0.2495871 0.2498352
 0.2501021 0.2503898 0.2506874 0.2509841 0.2512761 0.2515645 0.2518535 0.2521488 0.2524483 0.2527401
 0.253016 0.2532838 0.2535645 0.2538773 0.2542221 0.2545757 0.2549101 0.2552175 0.2555138 0.2558203
 0.2561485 0.2564894 0.2568095 0.2570742 0.2572941 0.2575325 0.2578486 0.2582398 0.2586518 0.2590343
 0.259376 0.2596936 0.2600039 0.2603094 0.2606007 0.2608676 0.2611151 0.261375 0.2616878 0.2620592
 0.2624477 0.2628081 0.2631303 0.2634292 0.2637181 0.2640041 0.2642784 0.2645017 0.2646435 0.2647537
 0.2649538 0.2653238 0.2658142 0.2662973 0.266694 0.2670226 0.2673348 0.267649 0.2679562 0.2682294
 0.2683936 0.2683648 0.2681977 0.2681383 0.2684245 0.269049 0.2697833 0.270409 0.2708624 0.2711946
 0.271477 0.2717507 0.2719999 0.2721539 0.2721635 0.2721092 0.2721894 0.2725404 0.273082 0.2736053
 0.2739935 0.2742885 0.2745748 0.2748832 0.2751753 0.2753257 0.2751763 0.2747508 0.2743986 0.274567
 0.2753676 0.2764484 0.2773466 0.2779009 0.2782505 0.2785101 0.2786004 0.2783965 0.2778834 0.277157
 0.276466 0.2762552 0.2768756 0.2781327 0.2793667 0.2801158 0.2805138 0.2809515 0.2815669 0.2821905
 0.2826202 0.2828004 0.2827828 0.2826073 0.2822863 0.2819458 0.2819012 0.2824308 0.2834533 0.2845532
 0.2853718 0.2858875 0.2862443 0.286332 0.2856855 0.2840379 0.2820335 0.2810586 0.2820113 0.2843586
 0.2867127 0.2881984 0.288931 0.2893702 0.2897234 0.2898862 0.289427 0.2877269 0.2848199 0.2821326
 0.2816209 0.2838415 0.2873285 0.290014 0.2908086 0.2898277 0.2878669 0.2860328 0.2853509 0.2862098
 0.2881971 0.2905187 0.2924789 0.2936747 0.2940215 0.2937072 0.2931138 0.2927202 0.2928008 0.2930121
 0.2926071 0.2914081 0.290153 0.2893609 0.2883789 0.2864478 0.2843907 0.2841029 0.2862065 0.2891539
 0.2910254 0.2914971 0.2914872 0.2913002 0.289878 0.2861935 0.281155 0.2775748 0.277765 0.2812287
 0.2851508 0.2871641 0.2872229 0.2867966 0.2868041 0.2866398 0.2850732 0.2819921 0.279079 0.2783058
 0.2797217 0.281377 0.2814783 0.2796439 0.2759623 0.2705481 0.2650261 0.2628333 0.2661857 0.2733223
 0.2800629 0.2834169 0.2825191 0.2773805 0.2691961 0.2616503 0.2592665 0.2632348 0.2700234 0.2747973
 0.2752327 0.2716237 0.2649162 0.2562918 0.2481831 0.2439752 0.2458544 0.2530504 0.2619702 0.2677451
 0.2667228 0.2593987 0.2511451 0.2481633 0.2516531 0.2570228 0.2592892 0.2577653 0.2550214 0.2533799
 0.2536356 0.2554944 0.2579062 0.2598898 0.2612883 0.2613898 0.2575464 0.2481024 0.2367572 0.2306019
 0.2328082 0.2400781 0.2480243 0.255586 0.2625675 0.2664674 0.2651424 0.2610456 0.259656 0.2636257
 0.2702563 0.2749493 0.2758744 0.2747067 0.273577 0.2725337 0.2706077 0.2685574 0.2688959 0.2727684
 0.2781619 0.2820863 0.28357 0.2836677 0.2834602 0.2831419 0.2825668 0.2816977 0.280574 0.2793319
 0.2781892 0.2772084 0.2762517 0.2752571 0.2741641 0.2723103 0.2684871 0.2625088 0.2565492 0.2536412
 0.2544935 0.2570468 0.2594352 0.2613364 0.2614939 0.2567036 0.2460017 0.2344117 0.2294867 0.2340069
 0.243766 0.2522908 0.2559562 0.2544307 0.2484831 0.2396259 0.2316433 0.2299322 0.2373472 0.2512101
 0.2657139 0.2768314 0.2838482 0.2871107 0.2864743 0.2824445 0.2774696 0.274977 0.2770191 0.282922
 0.2897997 0.2939014 0.2922477 0.2850822 0.2774942 0.2763427 0.2834587 0.2932099 0.2987129 0.2990405
 0.2982168 0.2988313 0.2998208 0.3000012 0.300548 0.3030182 0.3067936 0.3095977 0.3095364 0.3058931
 0.2991193 0.2913925 0.2862752 0.2858955 0.2885962 0.290836 0.2908233 0.2885516 0.2835764 0.2759873
 0.2691968 0.2681102 0.2735545 0.2810306 0.2858442 0.2874776 0.2881358 0.2887766 0.2879827 0.284335
 0.2789304 0.2749122 0.2743938 0.2764654 0.2786939 0.2797571 0.2796591 0.2782131 0.2750459 0.2712258
 0.2694106 0.271488 0.2765524 0.281782 0.2850291 0.2861301 0.2860907 0.2857877 0.2855019 0.2850738
 0.284327 0.2836679 0.2841207 0.2862351 0.2891236 0.2912699 0.2922841 0.2932257 0.2951158 0.297691
 0.2998102 0.3007199 0.3007148 0.300759 0.3016154 0.3032191 0.3047413 0.3053202 0.304909 0.3044303
 0.3049485 0.3066574 0.3088051 0.3105557 0.3116889 0.3124852 0.3132539 0.3140673 0.3147231 0.3149122
 0.3146282 0.3144169 0.3149741 0.316426 0.3181829 0.3195373 0.3202442 0.3204907 0.3205005 0.3203174
 0.3199103 0.3193493 0.318819 0.3184833 0.3183709 0.318393 0.3184417 0.3184568 0.3184348 0.3184153
 0.318451 0.3185658 0.3187422 0.318953 0.3191802 0.3193937 0.3195531 0.3196532 0.3197345 0.3198217
 0.3198726 0.3198069 0.3195616 0.3191001 0.3183897 0.3173974 0.3160961 0.3144541 0.3124397 0.3101175
 0.3078097 0.3061299 0.3057281 0.3068759 0.3092502 0.3121187 0.3147563 0.3167553 0.3180613 0.3188187
 0.3192069 0.3193612 0.3193651 0.3192627 0.3190738 0.3188107 0.318489 0.3181298 0.3177587 0.3174045
 0.3170875 0.3168064 0.3165373 0.3162459 0.3159021 0.3154903 0.3150105 0.3144704 0.3138733 0.3132101
 0.3124582 0.3115962 0.3106292 0.3096008 0.3085769 0.3076098 0.3067088 0.3058388 0.3049505 0.3040056
 0.3029602 0.3017489 0.3003491 0.2988782 0.2975632 0.2965557 0.2957951 0.2950791 0.2942415 0.2932343
 0.2920852 0.2908377 0.2895302 0.2881905 0.2868285 0.2854336 0.2839809 0.2824421 0.2808009 0.2790624
 0.2772435 0.2753586 0.273421 0.2714444 0.2694212 0.2672889 0.2649234 0.2621707 0.2588912 0.2549892
 0.2504334 0.2452766 0.2396691 0.2338333 0.2280066 0.2223907 0.2171432 0.2123961 0.2082653 0.2048457
 0.2022049 0.2003859 0.1994136 0.1992985 0.2000313 0.2015723 0.203842 0.2067199 0.2100505 0.2136546
 0.2173391 0.2209136 0.2242368 0.2272673 0.2300605 0.2326886 0.235163 0.237436 0.2394615 0.2412303
 0.2427544 0.244042 0.2451012 0.245957 0.2466551 0.247247 0.2477679 0.2482268 0.2486124 0.2489126
 0.2491332 0.2493004 0.2494466 0.2495967 0.2497678 0.2499747 0.250231 0.2505481 0.250936 0.2514024
 0.2519487 0.2525669 0.2532416 0.2539583 0.2547139 0.2555218 0.2564104 0.2574161 0.2585726 0.2598977
 0.2613828 0.2629901 0.2646513 0.2662727 0.267752 0.2690044 0.2699799 0.2706636 0.2710656 0.2712102
 0.2711291 0.2708599 0.2704408 0.2699001 0.2692564 0.2685301 0.2677459 0.2669173 0.2660361 0.2650876
 0.2640779 0.2630413 0.2620173 0.2610236 0.2600563 0.2591107 0.2581923 0.2573068 0.2564543 0.2556324
 0.2548367 0.2540624 0.2533122 0.2525965 0.2519158 0.2512481 0.2505537 0.2497859 0.2489015 0.2478726
 0.2466893 0.245351 0.2438619 0.2422347 0.2404871 0.2386343 0.2366899 0.2346668 0.2325717 0.230401
 0.228145 0.2257967 0.2233718 0.220929 0.2185566 0.2163273 0.2142701 0.2123795 0.2106322 0.208997
 0.2074451 0.2059561 0.2045172 0.2031251 0.2017891 0.2005211 0.1993259 0.1982062 0.1971682 0.1962197
 0.1953709 0.1946322 0.1940022 0.1934666 0.1930122 0.1926326 0.1923296 0.1921271 0.1920621 0.1921336
 0.1922686 0.1923657 0.192366 0.1922808 0.1921685 0.1920878 0.1920597 0.1920699 0.1920909 0.192079
 0.1919573 0.1916299 0.191009 0.1900218 0.1886226 0.186825 0.1847171 0.1824433 0.180176 0.1780802
 0.1762724 0.1748081 0.1736937 0.1728825 0.1722817 0.1718094 0.1714538 0.1712694 0.1713232 0.17162
 0.1720407 0.1723879 0.17256 0.1726683 0.1729426 0.1735368 0.174435 0.175492 0.1765339 0.1774452
 0.1781851 0.1787473 0.1791435 0.1794128 0.1795947 0.1796887 0.1796722 0.1795343 0.1792741 0.1788986
 0.1784315 0.177889 0.1772592 0.1765333 0.1757233 0.1748323 0.173848 0.1727625 0.1715513 0.1701754
 0.1686827 0.1672882 0.1662962 0.1659404 0.1662667 0.1671113 0.168211 0.1693788 0.170536 0.1715891
 0.1724249 0.1731005 0.1739313 0.1752854 0.1772719 0.1796272 0.1818964 0.1837276 0.1849882 0.1856634
 0.1857713 0.1853696 0.1845108 0.183189 0.1814231 0.1793334 0.1770663 0.1747451 0.1725195 0.1705257
 0.1688078 0.1673737 0.1662329 0.1653875 0.1648973 0.1644791 0.1625419 0.1567463 0.1473266 0.1392402
 0.1384283 0.1454147 0.1545711 0.1601553 0.1611864 0.1600776 0.158837 0.1578985 0.1571829 0.15676
 0.156691 0.1568821 0.1571179 0.1571614 0.1569046 0.1563604 0.1554068 0.1535479 0.1499044 0.1435278
 0.1340992 0.1225803 0.1110113 0.1014243 0.09483336 0.09102759 0.08901873 0.08772883 0.08660355 0.08580121
 0.08583172 0.08703735 0.08940311 0.09271248 0.09670407 0.1010362 0.1052318 0.108833 0.1116496 0.1137716
 0.1153361 0.1163798 0.1169089 0.116982 0.1166874 0.1161085 0.1153171 0.1143457 0.1131713 0.1117731
 0.1102253 0.108732 0.1075428 0.1067909 0.10641 0.1062334 0.1061494 0.1061314 0.1061755 0.1062724
 0.106416 0.1066037 0.1068435 0.1071536 0.1075245 0.1078934 0.1081887 0.1083838 0.1084921 0.108519
 0.1084287 0.1081724 0.1077745 0.1073498 0.1069518 0.1064315 0.1055631 0.1043366 0.1030613 0.1021608
 0.1018804 0.1021484 0.1026585 0.1030947 0.1033237 0.1034048 0.1034406 0.1034281 0.1032474 0.1027908
</values></Ydata></ScRf><Data_Parameters_AB><parameter name="DPF">1</parameter><parameter name="NPT">3497</parameter><parameter name="FXV">3996</parameter><parameter name="LXV">500</parameter><parameter name="CSF">1</parameter><parameter name="MXY">0.346589118242264</parameter><parameter name="MNY">-0.0818264707922935</parameter><parameter name="DAT">18/01/2024</parameter><parameter name="TIM">11:04:53.076 (GMT+1)</parameter><parameter name="DXU">WN</parameter></Data_Parameters_AB><AB__Qtest><MainReport name="Quality Test Report"><Header><Line><Legend>Test result ok/not ok [1/0]: </Legend><Value>0</Value></Line><Line><Legend>Method file: </Legend><Value>C:\Users\Public\Documents\Bruker\OPUS_8.2.28\QT\IRBT_v3_default.QT</Value></Line></Header><Matrix><Line><Legend></Legend><Legend>min</Legend><Legend>max</Legend><Legend>measured</Legend></Line><Line><Value>Absorption (X-Range 1):</Value><Value>0.400000</Value><Value>2.000000</Value><Value>0.332988</Value></Line><Line><Value>Noise (X-Range 4):</Value><Value></Value><Value>0.000300</Value><Value>0.000027</Value></Line><Line><Value>Signal/Noise (X-Range 2):</Value><Value>200.000000</Value><Value></Value><Value>253.182293</Value></Line><Line><Value>Signal/Noise (X-Range 3):</Value><Value>40.000000</Value><Value></Value><Value>98.550273</Value></Line><Line><Value>Water vapour (X-Range 5):</Value><Value></Value><Value>0.000300</Value><Value>0.000010</Value></Line><Line><Value>Signal/Water (X-Range 2):</Value><Value>100.000000</Value><Value></Value><Value>655.532804</Value></Line><Line><Value>Signal/Water (X-Range 3):</Value><Value>20.000000</Value><Value></Value><Value>255.163725</Value></Line><Line><Value>Fringes (X-Range 6):</Value><Value></Value><Value>0.000100</Value><Value>0.000027</Value></Line></Matrix></MainReport></AB__Qtest><Data_Parameters_ScSm><parameter name="DPF">1</parameter><parameter name="NPT">1814</parameter><parameter name="FXV">3996.63438082617</parameter><parameter name="LXV">499.579297603271</parameter><parameter name="CSF">1</parameter><parameter name="MXY">0.34335196018219</parameter><parameter name="MNY">0.0688741952180862</parameter><parameter name="DAT">18/01/2024</parameter><parameter name="TIM">11:04:53.076 (GMT+1)</parameter><parameter name="DXU">WN</parameter></Data_Parameters_ScSm><Data_Parameters_ScRf><parameter name="DPF">1</parameter><parameter name="NPT">1820</parameter><parameter name="FXV">4004.34989121387</parameter><parameter name="LXV">495.721542409425</parameter><parameter name="CSF">1</parameter><parameter name="MXY">0.320500463247299</parameter><parameter name="MNY">0.0691472962498665</parameter><parameter name="DAT">18/01/2024</parameter><parameter name="TIM">11:04:27.213 (GMT+1)</parameter><parameter name="DXU">WN</parameter></Data_Parameters_ScRf><Optic_Parameters_Rf><parameter name="APR">0</parameter><parameter name="APT">Open</parameter><parameter name="BMS">KBr</parameter><parameter name="DTC">RT-DLaTGS_IR-Biotyper [Microplate reader]</parameter><parameter name="HPF">0</parameter><parameter name="LPF">10.0</parameter><parameter name="LPV">4000</parameter><parameter name="PGR">0</parameter><parameter name="RCH">Module port</parameter><parameter name="RDX">0</parameter><parameter name="SRC">MIR</parameter><parameter name="VEL">10.0</parameter><parameter name="SON">Off</parameter></Optic_Parameters_Rf><Acquisition_Parameters_Rf><parameter name="ADT">1</parameter><parameter name="AQM">DD</parameter><parameter name="CFE">0</parameter><parameter name="COR">0</parameter><parameter name="DEL">0</parameter><parameter name="DLY">0</parameter><parameter name="HFW">8000</parameter><parameter name="LFW">0</parameter><parameter name="NSR">32</parameter><parameter name="PLF">AB</parameter><parameter name="RES">6</parameter><parameter name="RGN">-1</parameter><parameter name="STR">0</parameter><parameter name="TCL">MakeCompatibleScalar (0, {WSV=1.000000, ARV=0});</parameter><parameter name="TDL">37</parameter><parameter name="RPO">0</parameter></Acquisition_Parameters_Rf><FT_-_Parameters_Rf><parameter name="APF">B3</parameter><parameter name="HFQ">500</parameter><parameter name="LFQ">4000</parameter><parameter name="NLI">0</parameter><parameter name="PHR">24</parameter><parameter name="PHZ">ML</parameter><parameter name="SPZ">NO</parameter><parameter name="ZFF">1</parameter></FT_-_Parameters_Rf><Optic_Parameters_><parameter name="APR">0</parameter><parameter name="APT">Open</parameter><parameter name="BMS">KBr</parameter><parameter name="CHN">Module port</parameter><parameter name="DTC">RT-DLaTGS_IR-Biotyper [Microplate reader]</parameter><parameter name="HPF">0</parameter><parameter name="LPF">10.0</parameter><parameter name="LPV">4000</parameter><parameter name="PGN">0</parameter><parameter name="RDX">0</parameter><parameter name="SRC">MIR</parameter><parameter name="VEL">10.0</parameter><parameter name="SON">Off</parameter></Optic_Parameters_><FT_-_Parameters_><parameter name="APF">B3</parameter><parameter name="HFQ">500</parameter><parameter name="LFQ">4000</parameter><parameter name="NLI">0</parameter><parameter name="PHR">24</parameter><parameter name="PHZ">ML</parameter><parameter name="SPZ">NO</parameter><parameter name="ZFF">1</parameter></FT_-_Parameters_><Acquisition_Parameters_><parameter name="ADT">1</parameter><parameter name="AQM">DD</parameter><parameter name="CFE">0</parameter><parameter name="COR">0</parameter><parameter name="DEL">0</parameter><parameter name="DLY">0</parameter><parameter name="HFW">8000</parameter><parameter name="LFW">0</parameter><parameter name="NSS">32</parameter><parameter name="PLF">AB</parameter><parameter name="RES">6</parameter><parameter name="SOT">0</parameter><parameter name="TCL">MakeCompatibleScalar (0, {WSV=1.000000, ARV=0});</parameter><parameter name="TDL">37</parameter><parameter name="SPO">0</parameter><parameter name="SGN">-1</parameter></Acquisition_Parameters_><Instrument_Parameters_Rf><parameter name="HFL">15801.365274</parameter><parameter name="LFL">0</parameter><parameter name="LWN">15801.365274</parameter><parameter name="ABP">32157</parameter><parameter name="SSP">1</parameter><parameter name="ARG">2</parameter><parameter name="ASG">2</parameter><parameter name="ASS">32</parameter><parameter name="GFW">16</parameter><parameter name="GBW">16</parameter><parameter name="BFW">0</parameter><parameter name="BBW">0</parameter><parameter name="PKA">9307</parameter><parameter name="PKL">4987</parameter><parameter name="PRA">9274</parameter><parameter name="PRL">5010</parameter><parameter name="P2A">1</parameter><parameter name="P2L">1</parameter><parameter name="P2R">1</parameter><parameter name="P2K">1</parameter><parameter name="DAQ">0</parameter><parameter name="AG2">1</parameter><parameter name="SSM">1</parameter><parameter name="RSN">46524</parameter><parameter name="CRR">0</parameter><parameter name="SRT">1705575867.214</parameter><parameter name="DUR">19.6449890136719</parameter><parameter name="TSC">32</parameter><parameter name="MVD">0.249325022101402</parameter><parameter name="AN1">0.226020269089161</parameter><parameter name="AN2">0</parameter><parameter name="VSN">2.485 Apr  4 2017</parameter><parameter name="SRN">0085</parameter><parameter name="CAM">0</parameter><parameter name="INS">IR-Biotyper</parameter><parameter name="FOC">69</parameter><parameter name="RDY">1</parameter><parameter name="ARS">32</parameter></Instrument_Parameters_Rf><Sample_Parameters_><parameter name="BLD"></parameter><parameter name="CNM">Admin</parameter><parameter name="CPY"></parameter><parameter name="DPM"></parameter><parameter name="EXP">IRBT_v3_32Scans.XPM</parameter><parameter name="LCT"></parameter><parameter name="SFM">Microplate, HTS-XT</parameter><parameter name="SNM">240118-1045-Cdiff_SCFA_2_C21_232120787_C2_c0de7717-d299-42f9-81c5-b025f1a87ea3.0</parameter><parameter name="XPP">C:\Users\Public\Documents\Bruker\OPUS_8.2.28\XPM</parameter><parameter name="IST">OK</parameter><parameter name="CPG">1252</parameter><parameter name="UID">bef30bb0-af25-496f-8ff2-320923f2ef68</parameter></Sample_Parameters_><Instrument_Parameters_><parameter name="HFL">15801.365274</parameter><parameter name="LFL">0</parameter><parameter name="LWN">15801.365274</parameter><parameter name="ABP">32157</parameter><parameter name="SSP">1</parameter><parameter name="ASG">2</parameter><parameter name="ARG">2</parameter><parameter name="ASS">32</parameter><parameter name="GFW">16</parameter><parameter name="GBW">16</parameter><parameter name="BFW">0</parameter><parameter name="BBW">0</parameter><parameter name="PKA">9484</parameter><parameter name="PKL">4979</parameter><parameter name="PRA">9516</parameter><parameter name="PRL">5002</parameter><parameter name="P2A">1</parameter><parameter name="P2L">1</parameter><parameter name="P2R">1</parameter><parameter name="P2K">1</parameter><parameter name="DAQ">0</parameter><parameter name="AG2">1</parameter><parameter name="SSM">1</parameter><parameter name="RSN">23955</parameter><parameter name="CRR">0</parameter><parameter name="SRT">1705575893.077</parameter><parameter name="DUR">19.64599609375</parameter><parameter name="TSC">32</parameter><parameter name="MVD">0.287739127874374</parameter><parameter name="AN1">0.226030887898906</parameter><parameter name="AN2">0</parameter><parameter name="VSN">2.485 Apr  4 2017</parameter><parameter name="SRN">0085</parameter><parameter name="CAM">0</parameter><parameter name="INS">IR-Biotyper</parameter><parameter name="FOC">69</parameter><parameter name="RDY">1</parameter></Instrument_Parameters_><History/></OPUSDataFile>
