<?xml version="1.0" encoding="UTF-8" ?>
<OPUSDataFile><AB><Ydata ylabel="Absorbance Units"><values byteorder="INTEL" format="FLOAT32" numvalues="3497"> -0.09096115 -0.09098867 -0.09101877 -0.09105021 -0.091079 -0.09110504 -0.09112633 -0.09114292 -0.09115397 -0.09115985
 -0.09116022 -0.09115677 -0.09114996 -0.0911433 -0.09113806 -0.09113862 -0.09114664 -0.09116516 -0.09119575 -0.09123636
 -0.09128781 -0.0913399 -0.09139198 -0.0914334 -0.09146374 -0.09148359 -0.09149394 -0.09150554 -0.0915187 -0.09154122
 -0.0915711 -0.09160607 -0.09164431 -0.09168054 -0.09171463 -0.09174449 -0.09176939 -0.091788 -0.0917993 -0.09180107
 -0.09179651 -0.09178516 -0.09177549 -0.09177013 -0.09177552 -0.09179451 -0.0918249 -0.0918676 -0.09191276 -0.09195983
 -0.09199774 -0.09202597 -0.09204 -0.09204046 -0.09203238 -0.09201714 -0.09200484 -0.09199562 -0.09199537 -0.09200307
 -0.09201911 -0.09204325 -0.0920753 -0.09211522 -0.0921639 -0.09221812 -0.09227667 -0.09233421 -0.09238727 -0.09243448
 -0.09247399 -0.09250883 -0.09253976 -0.09256696 -0.09259111 -0.09260689 -0.09261376 -0.09261025 -0.09259637 -0.0925808
 -0.09256422 -0.09255792 -0.09256116 -0.09257609 -0.09260067 -0.09262896 -0.09266035 -0.09269 -0.09271967 -0.09275028
 -0.09278276 -0.09281956 -0.09285768 -0.09289603 -0.09293085 -0.09295899 -0.09298185 -0.09299852 -0.09301409 -0.09302983
 -0.09304804 -0.09306958 -0.09309237 -0.09311632 -0.09313898 -0.09316021 -0.0931794 -0.09319651 -0.09321106 -0.09322312
 -0.09323243 -0.09323986 -0.09324808 -0.09325846 -0.09327611 -0.09330031 -0.09333307 -0.09337094 -0.09341104 -0.09345006
 -0.09348375 -0.09351294 -0.09353633 -0.09355752 -0.09357783 -0.09359846 -0.09362046 -0.09364104 -0.0936599 -0.09367487
 -0.09368543 -0.09369456 -0.09370238 -0.09371509 -0.09373298 -0.09376141 -0.09379993 -0.0938495 -0.09390787 -0.09396883
 -0.09402785 -0.09407037 -0.09409539 -0.09409185 -0.0940688 -0.09403108 -0.09399018 -0.09395745 -0.09393737 -0.09393654
 -0.09395159 -0.09398389 -0.09402468 -0.09407283 -0.09411763 -0.09415702 -0.09418546 -0.09420171 -0.09420951 -0.09420899
 -0.0942077 -0.09420578 -0.09420589 -0.09420785 -0.09421153 -0.09421743 -0.09422762 -0.09424236 -0.09426386 -0.09429083
 -0.09432226 -0.09435654 -0.09439123 -0.09442589 -0.09445999 -0.09449133 -0.09451952 -0.0945393 -0.09454799 -0.09454478
 -0.09452743 -0.09450477 -0.09447733 -0.09445636 -0.09444333 -0.09444182 -0.09445216 -0.09446985 -0.09449446 -0.09451891
 -0.09454297 -0.09456161 -0.09457517 -0.09458173 -0.09458236 -0.09457842 -0.09457145 -0.09456468 -0.09455899 -0.09455692
 -0.09455793 -0.09456239 -0.09456969 -0.09457929 -0.09459194 -0.09460787 -0.09462753 -0.0946516 -0.09467734 -0.09470465
 -0.09472958 -0.0947516 -0.09476937 -0.09478276 -0.09479257 -0.09479883 -0.09480178 -0.09480157 -0.09479883 -0.09479409
 -0.09478986 -0.09478609 -0.09478431 -0.09478329 -0.09478152 -0.09477808 -0.09477044 -0.09476066 -0.09474891 -0.09473937
 -0.09473485 -0.09473679 -0.09474728 -0.09476268 -0.09478268 -0.09480283 -0.09482166 -0.09484108 -0.09486075 -0.09488729
 -0.09492112 -0.0949637 -0.09501456 -0.09506525 -0.09511507 -0.09515484 -0.09518479 -0.09520131 -0.09520382 -0.09518867
 -0.09515616 -0.0951026 -0.09503546 -0.09496082 -0.09488972 -0.09483493 -0.09479927 -0.09479023 -0.09479917 -0.09482542
 -0.09485704 -0.0948903 -0.09491926 -0.09494202 -0.09495755 -0.0949656 -0.09496516 -0.09495614 -0.09493829 -0.09491181
 -0.09488077 -0.09484576 -0.0948133 -0.09478332 -0.09475927 -0.09474003 -0.09472419 -0.09471114 -0.09469889 -0.094688
 -0.09467883 -0.09467053 -0.09466314 -0.09465361 -0.09463958 -0.09462107 -0.09459651 -0.0945709 -0.09454572 -0.09452297
 -0.09450425 -0.09448323 -0.09445948 -0.0944268 -0.09438459 -0.0943351 -0.09427866 -0.09422237 -0.0941662 -0.0941138
 -0.09406415 -0.09401541 -0.09396601 -0.09391078 -0.09384869 -0.09377478 -0.09369054 -0.09359505 -0.09349248 -0.09338596
 -0.09327943 -0.09317622 -0.09307832 -0.09298783 -0.09290335 -0.09282596 -0.09274878 -0.09267155 -0.09258295 -0.09248158
 -0.09235968 -0.09221645 -0.09205236 -0.09186769 -0.09166862 -0.09145594 -0.09123847 -0.09101684 -0.09079891 -0.09058362
 -0.09037243 -0.09016331 -0.0899527 -0.0897403 -0.08952408 -0.08930492 -0.08908342 -0.08885871 -0.08863065 -0.08839774
 -0.08815926 -0.08791462 -0.08766425 -0.08740436 -0.08713489 -0.0868488 -0.08654477 -0.0862228 -0.08588247 -0.08553412
 -0.08517821 -0.08482341 -0.08446948 -0.08411828 -0.08376946 -0.08342268 -0.08307756 -0.08273312 -0.08238863 -0.08204217
 -0.08169333 -0.08134121 -0.08098452 -0.08062291 -0.08025163 -0.07986754 -0.07946737 -0.0790467 -0.07861322 -0.07816698
 -0.07772113 -0.07727877 -0.07684538 -0.07642282 -0.07600549 -0.07559334 -0.07517572 -0.0747522 -0.07431571 -0.07386681
 -0.07340715 -0.0729375 -0.0724626 -0.07198201 -0.07149685 -0.07100658 -0.07050996 -0.07000856 -0.0695038 -0.06899787
 -0.06849381 -0.06799158 -0.06749217 -0.06699469 -0.06649907 -0.06600409 -0.06550982 -0.06501316 -0.06451342 -0.06400886
 -0.06349878 -0.0629862 -0.06247124 -0.06195785 -0.06144607 -0.06093429 -0.06042213 -0.05990521 -0.05938346 -0.05885431
 -0.05831778 -0.05777234 -0.05721863 -0.05665644 -0.05608824 -0.0555173 -0.0549458 -0.05437789 -0.05381211 -0.05324894
 -0.05268585 -0.05212086 -0.05155604 -0.05099114 -0.05043064 -0.04987602 -0.04932659 -0.04878324 -0.04823736 -0.04768849
 -0.04712732 -0.04655354 -0.04596629 -0.04536647 -0.04476224 -0.04415451 -0.0435522 -0.04295475 -0.04236531 -0.04178241
 -0.04120478 -0.04063049 -0.04005656 -0.03948058 -0.03889856 -0.03831071 -0.03771434 -0.03711599 -0.03651768 -0.03592603
 -0.03534494 -0.03477188 -0.03420786 -0.03364447 -0.03308057 -0.03251122 -0.03193578 -0.03135401 -0.0307659 -0.03017271
 -0.02957479 -0.02897618 -0.02837733 -0.02778328 -0.02719321 -0.02660752 -0.02602458 -0.0254406 -0.02485567 -0.02426804
 -0.02367903 -0.02308978 -0.02249996 -0.02191014 -0.02131822 -0.02072337 -0.02012389 -0.01951863 -0.01890859 -0.01829317
 -0.01767723 -0.01706116 -0.01645071 -0.01584657 -0.01524971 -0.01466013 -0.01407407 -0.01349144 -0.01290997 -0.01232992
 -0.01175185 -0.01117545 -0.0106001 -0.01002502 -0.009448056 -0.008869047 -0.008286825 -0.007701457 -0.007112333 -0.006520385
 -0.005925099 -0.005330724 -0.004738805 -0.004154045 -0.003579223 -0.003013036 -0.002456462 -0.001903009 -0.001351808 -0.0007985872
 -0.0002426487 0.0003142688 0.0008720687 0.001425889 0.001975613 0.002518132 0.003053994 0.003584552 0.004110407 0.004634589
 0.005156591 0.005676912 0.006194493 0.006707684 0.007216403 0.007720095 0.008218412 0.008711444 0.009197174 0.009674362
 0.01014256 0.01060049 0.0110522 0.01149815 0.01194285 0.01238718 0.01283277 0.01327984 0.01372982 0.0141828
 0.01463947 0.01509953 0.0155595 0.01601869 0.01647116 0.01691687 0.01735245 0.01777862 0.01819531 0.01860335
 0.01900367 0.01939782 0.01978774 0.02017481 0.02056099 0.02094592 0.02133012 0.02171213 0.02209151 0.02246751
 0.02284014 0.02320743 0.02356935 0.02392214 0.02426532 0.02459817 0.02492065 0.02523778 0.02554995 0.02586354
 0.02617829 0.02649629 0.02681636 0.02713554 0.02745279 0.02776386 0.02806941 0.02836825 0.02866249 0.02895468
 0.02924448 0.02953357 0.02981737 0.03009392 0.03035979 0.03061206 0.03085464 0.03108721 0.03131755 0.0315472
 0.03177886 0.03201331 0.03224628 0.03247757 0.03270317 0.03292336 0.03314096 0.03335671 0.03357713 0.03380109
 0.0340286 0.03425651 0.03447659 0.03468821 0.03488498 0.03507205 0.03525235 0.03543197 0.03561761 0.03580993
 0.03601198 0.0362196 0.03643226 0.03664507 0.03685678 0.03706368 0.03726465 0.03746017 0.03764976 0.03784038
 0.03803241 0.0382315 0.03843712 0.03864295 0.03884717 0.0390344 0.03920463 0.03934837 0.03946968 0.03957288
 0.0396638 0.03975453 0.03984774 0.03995235 0.0400656 0.04018879 0.04031685 0.04044682 0.04057706 0.04070596
 0.04083457 0.04096344 0.04109037 0.04121554 0.04133324 0.0414427 0.04154227 0.04163175 0.04171677 0.04179765
 0.04188017 0.04196396 0.04204966 0.04213633 0.04222068 0.04230211 0.04237738 0.04244651 0.04250785 0.0425623
 0.04260989 0.04265253 0.04269132 0.04272926 0.04276799 0.04281065 0.04285901 0.04291416 0.04297727 0.04304545
 0.04311858 0.04319265 0.04326708 0.04334092 0.04341404 0.04348918 0.0435665 0.04364874 0.043736 0.04383007
 0.04393136 0.04404274 0.044164 0.04429739 0.04443911 0.0445853 0.04472794 0.04485608 0.04496307 0.04503745
 0.04508322 0.0450963 0.04509338 0.04507847 0.04507094 0.04507784 0.04510546 0.04515801 0.04522294 0.04530033
 0.04536774 0.04542372 0.04545192 0.04545229 0.04542446 0.04537037 0.04530341 0.04522508 0.0451494 0.04507447
 0.04500312 0.04493136 0.04485263 0.04476604 0.04466612 0.04455828 0.04444467 0.04433201 0.04422668 0.04412631
 0.04403448 0.04393505 0.04382564 0.04368705 0.04351432 0.0433028 0.04304991 0.04277175 0.04246899 0.0421645
 0.04185902 0.04156477 0.041281 0.04100815 0.04074492 0.04048651 0.04023164 0.03997434 0.03971424 0.0394467
 0.03917534 0.03890208 0.03863256 0.03837403 0.0381247 0.03788792 0.03765235 0.03741389 0.037165 0.03690057
 0.03662831 0.03634769 0.03607372 0.03580826 0.03555944 0.03532812 0.03511202 0.03491068 0.03471503 0.03452391
 0.03432424 0.03411545 0.03388686 0.03364139 0.03338024 0.03310947 0.03284118 0.03257911 0.03233486 0.03210467
 0.03189061 0.03168391 0.03147971 0.0312718 0.03105544 0.03083141 0.03059838 0.0303612 0.03012085 0.02987902
 0.02963635 0.02939001 0.02913987 0.02888334 0.02862046 0.02835337 0.02808235 0.02781111 0.02753923 0.02726693
 0.02699322 0.02671519 0.02643275 0.02614393 0.02585003 0.02555183 0.02525097 0.0249493 0.02464774 0.02434754
 0.02404863 0.02375147 0.02345497 0.023159 0.02286235 0.02256484 0.02226526 0.02196339 0.02165903 0.02135212
 0.02104365 0.0207337 0.02042359 0.02011319 0.01980211 0.01948973 0.01917282 0.0188512 0.01852195 0.01818706
 0.01784861 0.01750967 0.01717594 0.01684758 0.01652796 0.01621265 0.01589985 0.01558578 0.01526725 0.01494663
 0.01462344 0.01430305 0.01398675 0.01367618 0.0133719 0.0130725 0.0127779 0.01248805 0.0122029 0.01192154
 0.0116432 0.01136082 0.01107328 0.01077074 0.01045447 0.01012175 0.00977737 0.009428873 0.009081884 0.008747948
 0.008428804 0.008131942 0.007851814 0.007589061 0.007331244 0.00707333 0.006804828 0.006519884 0.006220385 0.005904039
 0.005584948 0.005264554 0.004954523 0.004656261 0.004368221 0.004090231 0.00381473 0.003542192 0.003273629 0.003010845
 0.002764136 0.002532683 0.002321407 0.002123825 0.001929837 0.001731946 0.001513688 0.001275121 0.001007619 0.0007219525
 0.0004214658 0.0001196768 -0.0001752709 -0.0004591072 -0.0007271464 -0.0009865486 -0.001237669 -0.001489081 -0.001742623 -0.001997915
 -0.002255353 -0.002507837 -0.002755071 -0.002993056 -0.003222152 -0.003444614 -0.003660619 -0.003872357 -0.004079324 -0.00428059
 -0.004476783 -0.00466818 -0.004857034 -0.00504691 -0.005238961 -0.005436278 -0.005637257 -0.005841742 -0.00604813 -0.006254932
 -0.006463893 -0.006674449 -0.006892049 -0.007117284 -0.007357114 -0.007612706 -0.007887836 -0.008183362 -0.008493148 -0.008816729
 -0.009138047 -0.009456317 -0.009756794 -0.01004085 -0.01030694 -0.01055864 -0.01080656 -0.01105328 -0.01131014 -0.01157637
 -0.01185611 -0.01214644 -0.01244591 -0.01275203 -0.01306255 -0.01337606 -0.01369152 -0.01400762 -0.01432395 -0.01463876
 -0.01495157 -0.01526132 -0.01556769 -0.01587101 -0.01617129 -0.01646842 -0.01676236 -0.01705175 -0.01733669 -0.01761748
 -0.017895 -0.01817425 -0.01845564 -0.01874406 -0.01903729 -0.01933345 -0.01962899 -0.01991694 -0.02019733 -0.02046631
 -0.0207288 -0.02098696 -0.02124557 -0.02150845 -0.02177489 -0.02204618 -0.02231758 -0.02258844 -0.02285401 -0.02311342
 -0.02336444 -0.02360681 -0.02383914 -0.02406134 -0.02427033 -0.0244659 -0.02464409 -0.02480558 -0.02495107 -0.02508345
 -0.02521242 -0.02534114 -0.02548273 -0.02563548 -0.02580468 -0.02598149 -0.02615937 -0.02632819 -0.0264776 -0.02660424
 -0.02670252 -0.02677665 -0.02682686 -0.0268572 -0.0268694 -0.02686164 -0.02683426 -0.02678238 -0.02670553 -0.02660128
 -0.02646952 -0.0263109 -0.02612527 -0.02591126 -0.02566783 -0.02538845 -0.02507192 -0.02470988 -0.02430351 -0.02385012
 -0.02335458 -0.02282265 -0.02226051 -0.02167759 -0.02107644 -0.0204629 -0.01983435 -0.01919134 -0.01852962 -0.01784748
 -0.01714353 -0.01641687 -0.01566867 -0.01489885 -0.01410927 -0.01329982 -0.01247527 -0.01163585 -0.01079162 -0.009943591
 -0.009106955 -0.008283491 -0.007490595 -0.006730944 -0.006022152 -0.005368181 -0.004786219 -0.00428066 -0.003867099 -0.003545212
 -0.003324888 -0.003190917 -0.003142327 -0.003140909 -0.003172979 -0.003185877 -0.003159537 -0.003051349 -0.002845095 -0.00252905
 -0.002096515 -0.00156433 -0.0009326283 -0.0002273039 0.0005501663 0.001381383 0.002265978 0.003195706 0.004170421 0.005185666
 0.006239839 0.00732581 0.008439661 0.009569505 0.01070989 0.01184766 0.0129762 0.01408538 0.01516324 0.01620274
 0.01717692 0.01807849 0.01885489 0.01949595 0.01991817 0.02010689 0.01996173 0.01946433 0.0185465 0.01719396
 0.01543678 0.01327486 0.01086118 0.008208778 0.005535177 0.002851563 0.0003407365 -0.002002281 -0.004093859 -0.005954931
 -0.007591638 -0.009029759 -0.01031403 -0.01146592 -0.01252685 -0.01351222 -0.01444721 -0.01534097 -0.01620584 -0.01704242
 -0.01785461 -0.01863633 -0.01938681 -0.02010052 -0.02077579 -0.02141396 -0.02201465 -0.02258397 -0.02312231 -0.023632
 -0.02411257 -0.02455711 -0.02496408 -0.02531987 -0.02562354 -0.02586292 -0.02604093 -0.02615595 -0.02621803 -0.02624091
 -0.02624044 -0.02624024 -0.02625338 -0.02630094 -0.02638119 -0.02650356 -0.02664618 -0.02680708 -0.02695039 -0.02706918
 -0.02712415 -0.02710902 -0.02698816 -0.02675771 -0.02638767 -0.02587598 -0.02519869 -0.0243559 -0.02334221 -0.02216785
 -0.02088526 -0.01953207 -0.01826704 -0.01715829 -0.01645886 -0.0162196 -0.01667052 -0.01776228 -0.01956501 -0.02189978
 -0.02466694 -0.02763544 -0.03064796 -0.03354397 -0.03621372 -0.03862058 -0.04072514 -0.04257438 -0.04416736 -0.04556942
 -0.04678696 -0.04787211 -0.04882858 -0.04969336 -0.05046802 -0.05117865 -0.05182622 -0.05242971 -0.05299032 -0.053523
 -0.05402884 -0.05451861 -0.0549922 -0.05545446 -0.05590457 -0.05634323 -0.05677039 -0.05718615 -0.05759078 -0.05798462
 -0.05836722 -0.05873851 -0.05909785 -0.05944474 -0.05978043 -0.06010494 -0.0604203 -0.06072689 -0.06102461 -0.06131356
 -0.06159053 -0.06185545 -0.06210643 -0.06234417 -0.06257264 -0.06279325 -0.06301449 -0.06323642 -0.06346444 -0.06369589
 -0.06392866 -0.06415963 -0.06438311 -0.06459976 -0.06480718 -0.06500995 -0.06521027 -0.06541143 -0.06561638 -0.0658224
 -0.06603016 -0.06623251 -0.06642821 -0.06661204 -0.06678277 -0.06694228 -0.06709046 -0.06723554 -0.06737794 -0.06752599
 -0.06767927 -0.06783869 -0.06800266 -0.06816474 -0.06832403 -0.0684741 -0.06861638 -0.06875031 -0.06887822 -0.06900322
 -0.06912625 -0.06924944 -0.06937243 -0.06949531 -0.06961852 -0.06974217 -0.06986704 -0.06999378 -0.07012092 -0.07024871
 -0.07037286 -0.07049286 -0.07060558 -0.07071062 -0.07081038 -0.07090514 -0.07100173 -0.07110033 -0.07120567 -0.0713169
 -0.07143295 -0.07155261 -0.0716717 -0.07179005 -0.07190517 -0.07201799 -0.0721288 -0.07223852 -0.07234829 -0.07245819
 -0.07256879 -0.07267927 -0.07278936 -0.07289847 -0.07300609 -0.07311339 -0.07322023 -0.07332945 -0.07344134 -0.07355817
 -0.07368018 -0.07380672 -0.07393771 -0.07407083 -0.07420603 -0.07434177 -0.07447836 -0.07461642 -0.07475606 -0.07489816
 -0.07504214 -0.07518762 -0.07533304 -0.07547602 -0.07561576 -0.07575001 -0.07588045 -0.07600709 -0.07613298 -0.07625966
 -0.07638843 -0.07652039 -0.07665401 -0.07678927 -0.07692396 -0.07705775 -0.07718945 -0.07731893 -0.07744577 -0.07756996
 -0.07769205 -0.07781212 -0.0779314 -0.07804989 -0.07816846 -0.07828671 -0.07840391 -0.07851958 -0.07863236 -0.07874224
 -0.07884844 -0.07895169 -0.0790524 -0.07915143 -0.07924939 -0.07934724 -0.07944565 -0.07954486 -0.0796452 -0.0797461
 -0.07984754 -0.07994863 -0.08004918 -0.08014913 -0.08024839 -0.08034803 -0.08044808 -0.08054981 -0.08065309 -0.08075751
 -0.08086263 -0.08096611 -0.08106761 -0.08116481 -0.08125798 -0.08134636 -0.08143101 -0.08151287 -0.08159369 -0.0816753
 -0.08175965 -0.08184883 -0.08194312 -0.08204389 -0.08214799 -0.08225513 -0.08236059 -0.08246292 -0.08256149 -0.08265555
 -0.08274933 -0.08284309 -0.08294085 -0.08304277 -0.08314829 -0.0832571 -0.0833661 -0.08347525 -0.08358295 -0.0836895
 -0.08379509 -0.08390009 -0.08400542 -0.08411111 -0.08421765 -0.08432463 -0.08443197 -0.08453877 -0.08464428 -0.08474815
 -0.08484972 -0.08495012 -0.08504943 -0.08514923 -0.08524998 -0.08535214 -0.08545597 -0.08556041 -0.0856654 -0.08576966
 -0.08587313 -0.08597512 -0.08607562 -0.08617438 -0.08627171 -0.08636902 -0.0864667 -0.08656695 -0.08666977 -0.08677657
 -0.08688617 -0.08699775 -0.08710952 -0.08721919 -0.08732601 -0.08742827 -0.08752728 -0.08762285 -0.08771761 -0.08781249
 -0.08790875 -0.08800721 -0.08810608 -0.08820534 -0.08830225 -0.08839647 -0.0884878 -0.08857623 -0.08866412 -0.08875153
 -0.08884028 -0.08892994 -0.08901928 -0.08910781 -0.08919321 -0.08927581 -0.08935495 -0.08943185 -0.08950823 -0.0895846
 -0.08966258 -0.08974106 -0.08981989 -0.08989753 -0.0899729 -0.09004601 -0.09011646 -0.09018525 -0.09025262 -0.09031875
 -0.09038377 -0.09044725 -0.09050917 -0.09056953 -0.09062835 -0.09068586 -0.09074206 -0.09079671 -0.09084998 -0.09090257
 -0.09095503 -0.09100964 -0.09106653 -0.0911274 -0.09119152 -0.09125853 -0.09132779 -0.09139843 -0.09147033 -0.09154334
 -0.09161685 -0.09169087 -0.09176359 -0.0918345 -0.09190174 -0.09196467 -0.09202264 -0.09207527 -0.09212384 -0.09216826
 -0.09221237 -0.09225641 -0.09230538 -0.09235933 -0.09242029 -0.09248748 -0.09255759 -0.09262978 -0.09269901 -0.09276573
 -0.09282795 -0.09288752 -0.09294637 -0.09300634 -0.09307048 -0.09313905 -0.09321394 -0.09329249 -0.09337424 -0.09345533
 -0.09353389 -0.09360915 -0.09367988 -0.09375037 -0.09382086 -0.09389696 -0.09397941 -0.09406918 -0.09416636 -0.09426657
 -0.09436953 -0.09447021 -0.09456881 -0.09466386 -0.09475593 -0.09484629 -0.09493527 -0.09502442 -0.09511312 -0.09520112
 -0.09528748 -0.09537075 -0.09545123 -0.09552819 -0.09560379 -0.09567881 -0.09575568 -0.09583583 -0.09591921 -0.09600631
 -0.09609538 -0.09618619 -0.09627745 -0.09636895 -0.09646057 -0.0965523 -0.09664354 -0.09673423 -0.09682336 -0.0969109
 -0.09699619 -0.09707936 -0.09716062 -0.09724007 -0.09731798 -0.09739475 -0.09747096 -0.09754739 -0.09762534 -0.0977047
 -0.09778619 -0.09786821 -0.09795029 -0.09803052 -0.09810787 -0.09818219 -0.09825303 -0.0983218 -0.0983887 -0.09845465
 -0.09851976 -0.09858425 -0.0986481 -0.09871236 -0.09877713 -0.09884413 -0.09891335 -0.09898555 -0.09906036 -0.09913684
 -0.09921472 -0.09929285 -0.09937119 -0.09944926 -0.09952684 -0.09960361 -0.09967915 -0.09975297 -0.09982499 -0.09989485
 -0.09996317 -0.1000299 -0.1000963 -0.1001625 -0.1002293 -0.1002967 -0.1003644 -0.1004325 -0.1004994 -0.1005651
 -0.1006288 -0.1006906 -0.1007513 -0.1008113 -0.1008727 -0.1009352 -0.1009995 -0.1010648 -0.1011293 -0.1011924
 -0.1012516 -0.1013075 -0.1013592 -0.1014083 -0.1014555 -0.1015022 -0.1015494 -0.1015973 -0.1016464 -0.1016967
 -0.1017484 -0.101802 -0.1018576 -0.1019153 -0.1019751 -0.1020353 -0.1020959 -0.1021549 -0.1022121 -0.1022668
 -0.1023189 -0.1023683 -0.1024147 -0.1024573 -0.1024965 -0.1025324 -0.1025664 -0.1026012 -0.1026383 -0.102681
 -0.1027294 -0.1027847 -0.1028454 -0.1029107 -0.1029804 -0.1030536 -0.1031317 -0.1032149 -0.1033043 -0.1034001
 -0.1035022 -0.1036105 -0.1037241 -0.1038427 -0.1039658 -0.1040934 -0.1042233 -0.1043552 -0.1044843 -0.10461
 -0.1047269 -0.104835 -0.1049317 -0.1050175 -0.1050923 -0.1051558 -0.1052086 -0.1052481 -0.1052732 -0.1052791
 -0.1052618 -0.1052214 -0.1051544 -0.1050734 -0.1049791 -0.1048912 -0.1048129 -0.1047606 -0.1047372 -0.1047481
 -0.1047942 -0.1048637 -0.1049555 -0.1050449 -0.1051314 -0.1051984 -0.105248 -0.1052804 -0.1052981 -0.1053073
 -0.1053095 -0.1053103 -0.1053103 -0.1053134 -0.1053176 -0.1053227 -0.105325 -0.1053216 -0.1053119 -0.1052943
 -0.1052727 -0.105248 -0.1052233 -0.1051998 -0.1051767 -0.105154 -0.1051304 -0.1051059 -0.1050822 -0.1050594
 -0.1050391 -0.1050211 -0.1050041 -0.1049878 -0.1049693 -0.104949 -0.1049263 -0.104902 -0.1048776 -0.1048542
 -0.1048338 -0.1048166 -0.1048039 -0.1047943 -0.1047879 -0.1047824 -0.1047765 -0.1047698 -0.1047617 -0.1047547
 -0.1047493 -0.1047479 -0.1047512 -0.1047579 -0.1047682 -0.1047781 -0.1047877 -0.1047948 -0.1047996 -0.1048027
 -0.1048043 -0.1048062 -0.1048086 -0.1048125 -0.1048175 -0.1048234 -0.1048295 -0.1048345 -0.1048382 -0.1048395
 -0.1048391 -0.1048369 -0.1048336 -0.1048296 -0.1048248 -0.1048193 -0.1048133 -0.1048067 -0.104801 -0.1047964
 -0.1047937 -0.1047931 -0.1047933 -0.1047942 -0.1047937 -0.1047918 -0.1047883 -0.1047833 -0.1047786 -0.1047741
 -0.1047709 -0.1047681 -0.1047642 -0.1047584 -0.1047485 -0.1047357 -0.1047201 -0.1047042 -0.1046899 -0.1046778
 -0.1046693 -0.1046617 -0.1046546 -0.1046452 -0.1046327 -0.1046177 -0.1046001 -0.1045824 -0.1045646 -0.104548
 -0.1045325 -0.1045171 -0.1045016 -0.1044847 -0.1044665 -0.1044469 -0.1044266 -0.104407 -0.1043885 -0.1043729
 -0.1043596 -0.104349 -0.1043396 -0.1043304 -0.1043196 -0.1043057 -0.1042885 -0.1042671 -0.1042432 -0.1042169
 -0.1041912 -0.1041667 -0.1041452 -0.1041271 -0.104111 -0.104097 -0.1040823 -0.1040671 -0.1040498 -0.1040308
 -0.1040099 -0.1039873 -0.1039636 -0.1039386 -0.1039127 -0.1038859 -0.1038592 -0.1038327 -0.1038072 -0.1037825
 -0.1037589 -0.103735 -0.1037104 -0.1036837 -0.1036537 -0.1036217 -0.1035873 -0.1035538 -0.1035217 -0.103493
 -0.1034686 -0.1034462 -0.1034258 -0.1034042 -0.1033813 -0.1033574 -0.1033328 -0.1033104 -0.1032902 -0.1032732
 -0.1032583 -0.1032431 -0.1032269 -0.1032065 -0.1031831 -0.1031563 -0.103128 -0.1031003 -0.1030739 -0.1030505
 -0.1030284 -0.1030075 -0.102985 -0.1029601 -0.1029318 -0.1028994 -0.1028649 -0.1028285 -0.1027932 -0.1027596
 -0.1027291 -0.1027019 -0.1026768 -0.1026537 -0.10263 -0.1026061 -0.102581 -0.1025553 -0.1025304 -0.1025064
 -0.1024846 -0.102464 -0.1024434 -0.1024215 -0.1023961 -0.1023677 -0.1023354 -0.1023021 -0.1022689 -0.1022377
 -0.1022102 -0.1021843 -0.1021601 -0.1021335 -0.1021038 -0.1020698 -0.1020311 -0.1019916 -0.1019512 -0.1019142
 -0.1018805 -0.1018501 -0.1018223 -0.1017939 -0.101765 -0.1017334 -0.1016999 -0.1016655 -0.1016307 -0.1015971
 -0.1015646 -0.1015337 -0.1015038 -0.1014749 -0.1014466 -0.101419 -0.1013917 -0.1013649 -0.1013373 -0.1013089
 -0.1012783 -0.1012451 -0.1012099 -0.1011724 -0.1011352 -0.1010982 -0.1010638 -0.1010319 -0.1010021 -0.1009742
 -0.1009463 -0.1009184 -0.1008893 -0.1008593 -0.1008287 -0.1007975 -0.1007662 -0.1007349 -0.1007039 -0.1006735
 -0.1006436 -0.1006144 -0.100586 -0.1005578 -0.1005295 -0.1005007 -0.1004712 -0.1004413 -0.1004111 -0.1003816
 -0.100353 -0.1003258 -0.1003 -0.1002748 -0.1002501 -0.1002241 -0.1001969 -0.1001674 -0.1001359 -0.1001032
 -0.1000696 -0.1000367 -0.1000042 -0.09997242 -0.09994061 -0.09990785 -0.09987373 -0.09983724 -0.09979964 -0.09976102
 -0.09972353 -0.09968814 -0.09965553 -0.0996263 -0.09959918 -0.09957422 -0.0995494 -0.09952448 -0.09949844 -0.09947123
 -0.0994429 -0.09941342 -0.09938278 -0.09935094 -0.09931763 -0.09928302 -0.09924754 -0.09921135 -0.0991751 -0.09913885
 -0.09910297 -0.09906744 -0.09903231 -0.09899779 -0.09896423 -0.09893129 -0.09889904 -0.09886657 -0.09883356 -0.09879927
 -0.09876329 -0.09872618 -0.09868797 -0.09864932 -0.09861034 -0.09857094 -0.0985311 -0.09849078 -0.09845003 -0.09840982
 -0.09837016 -0.09833156 -0.09829372 -0.09825569 -0.09821731 -0.0981775 -0.09813678 -0.09809543 -0.09805418 -0.0980142
 -0.09797537 -0.09793826 -0.09790162 -0.0978649 -0.09782706 -0.09778736 -0.09774618 -0.09770323 -0.09766025 -0.09761747
 -0.09757631 -0.09753707 -0.09749895 -0.09746196 -0.0974235 -0.09738345 -0.09733948 -0.09729172 -0.09723955 -0.09718363
 -0.0971259 -0.09706735 -0.09701151 -0.09695873 -0.09691163 -0.0968689 -0.09683036 -0.09679363 -0.09675662 -0.09671784
 -0.09667557 -0.09663032 -0.09658174 -0.09653118 -0.09647899 -0.09642578 -0.09637178 -0.09631662 -0.09626026 -0.09620272
 -0.09614396 -0.09608592 -0.09602874 -0.09597495 -0.09592438 -0.09587719 -0.09583279 -0.09578897 -0.0957455 -0.09570054
 -0.09565448 -0.09560728 -0.09555915 -0.09551027 -0.09546085 -0.09541109 -0.09536137 -0.09531205 -0.09526301 -0.09521458
 -0.09516534 -0.09511498 -0.09506245 -0.09500732 -0.09495039 -0.09489157 -0.09483317 -0.09477531 -0.09471962 -0.09466609
 -0.09461453 -0.09456478 -0.09451553 -0.09446682 -0.09441799 -0.09436946 -0.0943221 -0.09427592 -0.09423161 -0.09418819
 -0.09414463 -0.09410057 -0.09405494 -0.09400891 -0.09396291 -0.09391761 -0.09387397 -0.09382978 -0.09378479 -0.09373631
 -0.09368352 -0.09362672 -0.09356562 -0.09350326 -0.0934398 -0.09337804 -0.09331806 -0.09326107 -0.09320686 -0.09315445
 -0.09310347 -0.09305177 -0.09299918 -0.092944 -0.09288666 -0.092827 -0.09276594 -0.09270445 -0.09264357 -0.09258466
 -0.09252793 -0.09247424 -0.09242218 -0.09237157 -0.09232026 -0.09226754 -0.09221243 -0.09215453 -0.09209436 -0.09203192
 -0.09196805 -0.09190282 -0.09183686 -0.09177022 -0.09170365 -0.0916371 -0.09157073 -0.09150445 -0.09143799 -0.09137162
 -0.09130602 -0.09124134 -0.09117851 -0.09111664 -0.09105517 -0.09099268 -0.09092745 -0.09085932 -0.09078733 -0.09071286
 -0.09063613 -0.09055874 -0.09048136 -0.09040394 -0.09032667 -0.09024895 -0.09017068 -0.090092 -0.09001289 -0.08993468
 -0.08985742 -0.0897816 -0.08970695 -0.08963155 -0.08955522 -0.089476 -0.08939438 -0.08931074 -0.08922546 -0.08913975
 -0.08905315 -0.08896557 -0.0888765 -0.08878533 -0.08869206 -0.08859651 -0.08849889 -0.08839903 -0.08829807 -0.08819614
 -0.08809512 -0.08799565 -0.08789734 -0.08780055 -0.08770139 -0.08759958 -0.08749249 -0.08738012 -0.08726428 -0.08714519
 -0.08702555 -0.08690517 -0.08678479 -0.08666413 -0.08654285 -0.08642057 -0.08629658 -0.08616999 -0.08603896 -0.08590389
 -0.0857639 -0.0856214 -0.08547764 -0.08533462 -0.08519404 -0.08505486 -0.08491746 -0.08477913 -0.08463943 -0.08449627
 -0.08434923 -0.08419787 -0.08404207 -0.08388285 -0.08372026 -0.08355565 -0.08338883 -0.08321871 -0.08304478 -0.08286386
 -0.08267604 -0.08247957 -0.08227559 -0.08206528 -0.0818502 -0.08163328 -0.08141483 -0.0811968 -0.08097709 -0.08075535
 -0.08052804 -0.08029314 -0.08004956 -0.07979562 -0.07953571 -0.07927009 -0.07900465 -0.07874051 -0.07847854 -0.07821918
 -0.0779563 -0.07768951 -0.07740911 -0.07711493 -0.07680113 -0.07646896 -0.07612137 -0.07575955 -0.07538971 -0.07500994
 -0.07462025 -0.07421607 -0.07379083 -0.07334129 -0.07286114 -0.07235114 -0.07180932 -0.07123908 -0.07064195 -0.0700188
 -0.06937174 -0.0686935 -0.06798425 -0.06722954 -0.06642703 -0.06557004 -0.06465707 -0.06370068 -0.06270158 -0.0616761
 -0.06062392 -0.05954684 -0.05844464 -0.05731578 -0.05616355 -0.05499812 -0.05382116 -0.05264313 -0.05145888 -0.05026435
 -0.04905778 -0.0478317 -0.04659915 -0.04536634 -0.04414564 -0.0429482 -0.04176619 -0.04060079 -0.03943724 -0.03827112
 -0.03710125 -0.03592632 -0.03475289 -0.03358198 -0.03240769 -0.03122953 -0.03002723 -0.02880087 -0.02754243 -0.02625596
 -0.02496009 -0.02365525 -0.02235677 -0.02105295 -0.01972825 -0.01836674 -0.01693677 -0.01543172 -0.0138304 -0.01214003
 -0.01035602 -0.008497228 -0.006564819 -0.004599524 -0.002605204 -0.0006569528 0.001231307 0.00298691 0.004592625 0.006046342
 0.007342927 0.008549408 0.009669255 0.01077368 0.01186444 0.01298298 0.01412998 0.01533048 0.01658592 0.01791773
 0.01931903 0.02079027 0.02231147 0.02385096 0.02539808 0.02692478 0.02844277 0.02995149 0.03146402 0.03298954
 0.03452556 0.0360737 0.03762776 0.03918538 0.04074991 0.04232218 0.04389993 0.04548391 0.04705673 0.0486175
 0.05015177 0.05165922 0.05313366 0.05457277 0.05596154 0.05729548 0.0585514 0.05972663 0.06080431 0.06178243
 0.06264883 0.06340791 0.0640533 0.06461033 0.06509257 0.06553011 0.06594461 0.06634308 0.06673387 0.06711136
 0.06747544 0.06782271 0.06815412 0.0684561 0.06872921 0.06893647 0.06907584 0.06910256 0.0690169 0.06880657
 0.06847931 0.0680737 0.06759556 0.06708877 0.06654661 0.06597542 0.06536656 0.06470419 0.06399633 0.06323867
 0.06246187 0.06168443 0.06094056 0.06025514 0.05963983 0.05910602 0.05864785 0.0582644 0.05795788 0.05772681
 0.05758751 0.05754161 0.05759845 0.05775864 0.05801166 0.05835634 0.05877424 0.05926531 0.05981958 0.06043889
 0.06112473 0.06187834 0.06270386 0.06360037 0.06456811 0.06560625 0.06671368 0.06789063 0.06913668 0.07045278
 0.07183831 0.07329786 0.07483198 0.07644849 0.07815006 0.07993819 0.08181457 0.08377111 0.08580775 0.08791146
 0.0900816 0.09229239 0.09454029 0.09677344 0.09898352 0.1010974 0.1031015 0.1049107 0.10651 0.1078164
 0.1088341 0.1095249 0.109922 0.1100457 0.1099342 0.1096202 0.1091415 0.1085207 0.1078045 0.1070192
 0.1061764 0.105298 0.104307 0.1032007 0.101864 0.1002785 0.09845025 0.09637722 0.09423307 0.09202395
 0.08987457 0.08777171 0.08568747 0.08361321 0.08149584 0.07935005 0.07718513 0.07501871 0.07289543 0.07079678
 0.068736 0.06663921 0.06445637 0.06211355 0.05953602 0.05675723 0.05375737 0.05064531 0.04745035 0.04422165
 0.04097279 0.03771782 0.03445451 0.03125478 0.02812228 0.02515632 0.02235833 0.01976174 0.01735827 0.01510888
 0.01300704 0.01100574 0.009107052 0.007293168 0.005567238 0.003930398 0.002374972 0.0008961256 -0.0005247943 -0.001904734
 -0.003257096 -0.004595559 -0.005921297 -0.007235762 -0.008546655 -0.009855016 -0.01117449 -0.01251369 -0.0138379 -0.01514932
 -0.01635556 -0.01745046 -0.01839057 -0.01917827 -0.0198597 -0.02043978 -0.02097681 -0.02146648 -0.02192315 -0.02233837
 -0.02269562 -0.02299369 -0.0232219 -0.02338417 -0.02348248 -0.02351638 -0.02348785 -0.02339049 -0.02322174 -0.02297462
 -0.02264558 -0.02223119 -0.02172989 -0.02114011 -0.0204621 -0.01969011 -0.01882464 -0.01784871 -0.01676143 -0.01553937
 -0.01418321 -0.01270092 -0.01110442 -0.009478716 -0.007844787 -0.006335646 -0.00495958 -0.003811473 -0.002876354 -0.002178181
 -0.001679288 -0.001350092 -0.001135615 -0.0009823528 -0.0008395302 -0.0006611997 -0.0004223927 -9.739425E-05 0.0003017317 0.0007817782
 0.001300982 0.001853003 0.00240553 0.002952269 0.003494675 0.004031961 0.004585847 0.005157417 0.005767128 0.006414578
 0.007106264 0.007840801 0.008614669 0.00942951 0.01028654 0.01119139 0.01215549 0.01318193 0.01428159 0.01544877
 0.01668194 0.0179764 0.01932536 0.02073879 0.02221838 0.0237764 0.02542084 0.02713828 0.02893248 0.03075764
 0.03261116 0.03443522 0.03622606 0.03793024 0.03954505 0.04102336 0.04236403 0.04353482 0.04453885 0.04537104
 0.0460377 0.04655409 0.04692383 0.04716172 0.04726677 0.0472434 0.04709065 0.04680765 0.04639846 0.04586456
 0.04521194 0.04444436 0.04356221 0.0425679 0.04145291 0.04021647 0.03884818 0.03734532 0.03571402 0.03395338
 0.03210217 0.030163 0.02818987 0.0261842 0.02418099 0.02217982 0.02019495 0.01823106 0.01630713 0.0144317
 0.01263246 0.01090887 0.009275804 0.007717757 0.006228195 0.004785532 0.003374731 0.001979321 0.0005869501 -0.0008047558
 -0.00220259 -0.003587318 -0.004959182 -0.006283418 -0.007555699 -0.008751553 -0.00986805 -0.01091066 -0.0118801 -0.01279929
 -0.013668 -0.01449563 -0.01527772 -0.01599857 -0.01665433 -0.01722346 -0.01770975 -0.01810841 -0.01842987 -0.0186857
 -0.01888631 -0.01904541 -0.01917033 -0.01926884 -0.01934797 -0.0194114 -0.01946832 -0.01952181 -0.01957985 -0.01964512
 -0.01971865 -0.01980145 -0.01988784 -0.01997753 -0.02006466 -0.02014899 -0.02022822 -0.02030258 -0.0203732 -0.02044048
 -0.02050701 -0.0205726 -0.02063881 -0.02070337 -0.02076329 -0.02081433 -0.0208493 -0.02086516 -0.02085543 -0.02082162
 -0.02076152 -0.02068166 -0.02058327 -0.02047613 -0.02036271 -0.02025352 -0.02015104 -0.02006252 -0.01998964 -0.01993281
 -0.0198925 -0.01986215 -0.01984132 -0.01981951 -0.01979586 -0.01975846 -0.01970621 -0.01962728 -0.01952134 -0.01938013
 -0.01920647 -0.01900009 -0.0187695 -0.01852412 -0.01827847 -0.01804792 -0.01785031 -0.01770092 -0.0176158 -0.01760678
 -0.01768015 -0.01784286 -0.01808474 -0.01840772 -0.01878493 -0.01921468 -0.01966229 -0.0201252 -0.02057178 -0.02100041
 -0.0213876 -0.0217329 -0.02202245 -0.02225735 -0.02243473 -0.02255758 -0.02263309 -0.02266498 -0.02266452 -0.02263407
 -0.02258214 -0.02250883 -0.02241749 -0.022307 -0.02217737 -0.02202825 -0.02185883 -0.02167148 -0.02146636 -0.02124747
 -0.02101579 -0.02077372 -0.020522 -0.02025953 -0.01998628 -0.01970102 -0.01940378 -0.01909863 -0.01878638 -0.01847699
 -0.01817142 -0.01788003 -0.01760283 -0.01734538 -0.01710714 -0.01688953 -0.01669229 -0.0165161 -0.01635947 -0.01622226
 -0.01609965 -0.01598903 -0.01588375 -0.01577942 -0.01567362 -0.01556355 -0.01545335 -0.01534275 -0.01523962 -0.01514492
 -0.01506533 -0.01500158 -0.01495677 -0.01493108 -0.01492421 -0.01493613 -0.01496623 -0.01501519 -0.01508596 -0.01518009
 -0.01530438 -0.01545971 -0.01565201 -0.0158798 -0.01614418 -0.0164413 -0.01676785 -0.01711973 -0.01749311 -0.01788484
 -0.01829276 -0.01871376 -0.01914702 -0.01958761 -0.02003475 -0.02048218 -0.02092895 -0.02137051 -0.02180632 -0.02223479
 -0.0226558 -0.02306731 -0.02346886 -0.02385485 -0.02422388 -0.02456565 -0.02487791 -0.02514823 -0.02537357 -0.02554136
 -0.02564888 -0.0256862 -0.02565272 -0.02554289 -0.02536093 -0.02510644 -0.02478935 -0.02441292 -0.02399084 -0.02352761
 -0.0230367 -0.02252184 -0.02199249 -0.02145076 -0.02090065 -0.0203428 -0.01977766 -0.0192053 -0.01862975 -0.01805195
 -0.01748466 -0.01692957 -0.01640341 -0.01590617 -0.01544788 -0.01502472 -0.01463396 -0.01426906 -0.01391902 -0.01357721
 -0.01323201 -0.01287963 -0.01251259 -0.0121326 -0.01173718 -0.01133426 -0.01092464 -0.01052103 -0.0101255 -0.009752924
 -0.009405528 -0.009096253 -0.008826863 -0.008601652 -0.008420981 -0.008274969 -0.008162153 -0.008061109 -0.007969553 -0.007863258
 -0.007740409 -0.007581805 -0.007386528 -0.007142965 -0.006850879 -0.006504614 -0.006104889 -0.005649431 -0.005142096 -0.004583241
 -0.003982507 -0.003343296 -0.002679459 -0.001996475 -0.001304819 -0.0006088506 8.994652E-05 0.0007900704 0.00149689 0.002210808
 0.002936054 0.003672942 0.004417856 0.005169985 0.005917419 0.006658433 0.007376847 0.008070595 0.008723876 0.009334744
 0.009890538 0.01039055 0.01082677 0.01120267 0.01151718 0.01177978 0.01199574 0.01217871 0.0123365 0.01248182
 0.01262079 0.01276231 0.01290926 0.01306882 0.01324159 0.01343899 0.0136612 0.01392934 0.0142445 0.01463713
 0.01510886 0.01568943 0.01637829 0.01718927 0.01811627 0.01914713 0.02026869 0.02144624 0.0226602 0.02386568
 0.02503801 0.02613392 0.02712731 0.02798382 0.02868501 0.02920907 0.02955627 0.02971774 0.02971548 0.02954954
 0.02925833 0.02884526 0.02835914 0.02780377 0.02723252 0.02664872 0.02609975 0.02558726 0.02514144 0.02476155
 0.02445819 0.02422904 0.02407157 0.02398258 0.02395364 0.02398024 0.0240521 0.02416218 0.02429953 0.02445448
 0.02461661 0.02477566 0.02492345 0.02505218 0.02515755 0.02523307 0.02527728 0.0252808 0.02524238 0.02515122
 0.02500571 0.02480194 0.02453935 0.02422553 0.02386111 0.02345842 0.02301768 0.02254667 0.02204426 0.02151047
 0.02094342 0.02033848 0.01969375 0.01900365 0.01826746 0.01748154 0.01664753 0.01576491 0.01483769 0.01386792
 0.01285903 0.01181323 0.01073094 0.009612694 0.008458078 0.007266263 0.00604249 0.004786432 0.003511444 0.002218229
 0.000923038 -0.0003734199 -0.001659051 -0.002933556 -0.004189667 -0.005426228 -0.006635398 -0.007814309 -0.008951506 -0.01004441
 -0.01108215 -0.01206595 -0.01299151 -0.01386524 -0.01469008 -0.01547528 -0.01622602 -0.01695273 -0.01765948 -0.0183587
 -0.01905379 -0.019757 -0.02047154 -0.02120208 -0.02195036 -0.02270953 -0.02347949 -0.02424524 -0.02500578 -0.02574269
 -0.02645462 -0.02712295 -0.02774665 -0.02831121 -0.02881678 -0.02925599 -0.02963021 -0.02993792 -0.03018214 -0.03036463
 -0.03049247 -0.03057055 -0.03061066 -0.03061996 -0.03061131 -0.03059119 -0.03056971 -0.03055041 -0.0305419 -0.03054579
 -0.03057095 -0.03061851 -0.03069541 -0.03080234 -0.03094016 -0.03110859 -0.03130003 -0.03151314 -0.03173416 -0.03196142
 -0.03218056 -0.03239035 -0.03257993 -0.03274893 -0.0328913 -0.03300808 -0.03309756 -0.03316287 -0.03320552 -0.03323047
 -0.03324121 -0.03324123 -0.03323341 -0.03321722 -0.03319372 -0.03315859 -0.03311135 -0.03304747 -0.0329662 -0.03286592
 -0.03274633 -0.03260979 -0.03245652 -0.03229229 -0.03211794 -0.03194267 -0.03176777 -0.03160428 -0.03145235 -0.0313193
 -0.03120192 -0.03109823 -0.03100299 -0.03090755 -0.03081044 -0.03070532 -0.03059833 -0.03049087 -0.03039078 -0.03030373
 -0.03022713 -0.03016427 -0.03009735 -0.03002484 -0.02992376 -0.02979074 -0.02961308 -0.02938911 -0.02912191 -0.02881189
 -0.02847157 -0.02810192 -0.0277162 -0.02731516 -0.02690898 -0.02649857 -0.0260911 -0.02568895 -0.02529927 -0.0249263
 -0.02457887 -0.02425991 -0.02397688 -0.02372608 -0.02350932 -0.02331559 -0.02314123 -0.02297467 -0.02281102 -0.02264616
 -0.02247731 -0.0223102 -0.02214459 -0.02199148 -0.02185165 -0.02173415 -0.02163936 -0.02157135 -0.0215301 -0.0215173
 -0.02153271 -0.02157699 -0.02164815 -0.0217418 -0.02185305 -0.02197088 -0.02208873 -0.02219359 -0.02227849 -0.02233279
 -0.0223497 -0.02232143 -0.02224463 -0.02211457 -0.0219353 -0.0217057 -0.02143634 -0.02112828 -0.02079503 -0.02043803
 -0.02007062 -0.01969383 -0.0193192 -0.01894734 -0.01858806 -0.01824208 -0.01792002 -0.01762281 -0.01736147 -0.01713513
 -0.01694795 -0.01679618 -0.01667439 -0.01657835 -0.01649951 -0.01643537 -0.01638111 -0.01633301 -0.01628853 -0.01624033
 -0.01618502 -0.016115 -0.01602681 -0.01591762 -0.01578582 -0.01563296 -0.01545883 -0.01526664 -0.01505646 -0.01483368
 -0.01459865 -0.0143612 -0.01412197 -0.01389168 -0.01366977 -0.0134595 -0.01325875 -0.01306208 -0.01286888 -0.0126744
 -0.01248109 -0.01229087 -0.01210517 -0.01192715 -0.01175448 -0.01158629 -0.01142119 -0.01125728 -0.01109793 -0.01094379
 -0.01079785 -0.01066154 -0.01053251 -0.01041098 -0.01029169 -0.01017431 -0.01005316 -0.009927892 -0.009790921 -0.009641544
 -0.009470013 -0.009275147 -0.009046117 -0.008781136 -0.008467941 -0.008107115 -0.007690205 -0.007228287 -0.006728485 -0.006217534
 -0.005722874 -0.005274286 -0.004905187 -0.004621256 -0.00444165 -0.004333534 -0.004294946 -0.004275351 -0.004262519 -0.004225154
 -0.004155002 -0.004052156 -0.00391518 -0.003758869 -0.003583951 -0.003403092 -0.003216698 -0.003033269 -0.002852913 -0.002680967
 -0.002516895 -0.002361765 -0.002214932 -0.002075215 -0.001942864 -0.001817945 -0.001700235 -0.00159002 -0.001485513 -0.001385852
 -0.001288459 -0.001192258 -0.001093817 -0.0009919007 -0.0008834336 -0.0007669139 -0.0006438888 -0.0005139136 -0.000382597 -0.0002504705
 -0.0001205179 7.086111E-06 0.0001323129 0.0002550443 0.0003731388 0.0004872679 0.0005982135 0.0007104708 0.0008389706 0.0009897854
 0.00118554 0.001426314 0.001724199 0.002071498 0.002464731 0.002895832 0.003357189 0.003845074 0.004357916 0.004885506
 0.00543058 0.005955718 0.006458141 0.006877872 0.007203922 0.007404823 0.00747226 0.007452378 0.007347331 0.00725409
 0.007175891 0.007180996 0.007263426 0.007424256 0.007653054 0.007913142 0.008199633 0.00848178 0.008762228 0.009031327
 0.009294186 0.009553952 0.009811596 0.01007071 0.01032521 0.0105736 0.01080807 0.01102462 0.01122213 0.01139854
 0.01156003 0.01170679 0.01184739 0.01198248 0.01212047 0.01226185 0.01241272 0.01257305 0.01274352 0.01292382
 0.01311196 0.01330853 0.01351426 0.01373081 0.01396248 0.01421058 0.01448021 0.01476906 0.01507951 0.01539973
 0.01572371 0.0160337 0.01631673 0.01656789 0.01677624 0.01696919 0.01714767 0.01735659 0.01760749 0.01789949
 0.01823692 0.01856951 0.01889454 0.01917481 0.01941008 0.01959118 0.01972022 0.01980492 0.01984849 0.01986693
 0.01986208 0.01984689 0.01982057 0.01978745 0.0197465 0.01969726 0.01964175 0.01958002 0.0195185 0.01945969
 0.0194122 0.01938 0.01936795 0.01937902 0.01941029 0.01946258 0.01952668 0.0196022 0.01967667 0.01974939
 0.01980558 0.01984427 0.01984908 0.01981871 0.01973681 0.01960227 0.01940098 0.01913503 0.01879843 0.01840385
 0.01796432 0.01750739 0.01706857 0.01667584 0.01636844 0.01614763 0.01603161 0.01598957 0.01601753 0.01607402
 0.01614767 0.01620961 0.01625155 0.01626883 0.01625884 0.01623643 0.01620229 0.01617294 0.01614899 0.01614044
 0.01614834 0.01618458 0.01625088 0.0163618 0.0165156 0.01671733 0.01695915 0.0172316 0.01752263 0.01781523
 0.01809661 0.01835012 0.01856898 0.01874257 0.01887644 0.01896871 0.01903249 0.01907088 0.01909358 0.0191028
 0.01910396 0.01909754 0.01909072 0.01908396 0.01908482 0.01909339 0.01911101 0.01913695 0.01916694 0.01919995
 0.01922997 0.01925581 0.01927083 0.01927558 0.01926582 0.01924847 0.01922798 0.01921778 0.01923147 0.01927671
 0.01936617 0.01948706 0.01964165 0.01979925 0.01995294 0.02007518 0.02015831 0.02019642 0.02018625 0.02014561
 0.02007506 0.0200056 0.01993875 0.01990253 0.0198959 0.01992572 0.01998722 0.02006376 0.02015218 0.02023381
 0.02031189 0.02038469 0.02045355 0.02052325 0.02058322 0.02062735 0.02064188 0.02061426 0.02054498 0.02042905
 0.02027889 0.02009701 0.01989275 0.01966804 0.01942961 0.01917782 0.01892414 0.01866938 0.01842237 0.01818304
 0.01794696 0.0177131 0.01747088 0.01722081 0.0169596 0.01668842 0.01640943 0.01612218 0.0158255 0.01552229
 0.01521243 0.01490875 0.01462175 0.01436452 0.0141528 0.01397729 0.01384337 0.01371783 0.01359304 0.01344031
 0.01325059 0.01302226 0.0127523 0.0124605 0.01214765 0.01184263 0.01154592</values></Ydata></AB><ScSm><Ydata ylabel="Single channel"><values byteorder="INTEL" format="FLOAT32" numvalues="1814"> 0.08752972 0.0876546 0.08779456 0.08795686 0.0881352 0.0883126 0.08847275 0.0886118 0.08873685 0.08885291
 0.0889615 0.08907391 0.08921084 0.08938114 0.08956926 0.08974561 0.08988699 0.08999578 0.09010477 0.09024674
 0.09040827 0.09052755 0.09055281 0.09050015 0.09044494 0.09045437 0.0905423 0.09070562 0.0909697 0.09132465
 0.09162981 0.09170203 0.09154581 0.09139008 0.09143447 0.0916471 0.09185864 0.09195149 0.09190576 0.09177949
 0.09173223 0.09197915 0.09259748 0.09336257 0.09381373 0.09352061 0.09237175 0.09073189 0.08935379 0.08898282
 0.08981889 0.09129441 0.09249998 0.09291743 0.09269957 0.09228094 0.091924 0.09171394 0.09176181 0.09218606
 0.09292197 0.09364209 0.09388413 0.09335678 0.09226973 0.09129351 0.09100996 0.09146035 0.09235436 0.09342235
 0.09415647 0.09354623 0.09097186 0.08756815 0.08587477 0.08748986 0.09139803 0.09502788 0.09659484 0.096046
 0.09431815 0.09251076 0.09159583 0.09208263 0.09368438 0.09560505 0.09717431 0.09802465 0.09791963 0.09686526
 0.09533687 0.0940787 0.09368639 0.09443124 0.09615267 0.09809533 0.09921096 0.0989822 0.0978095 0.09649249
 0.09564263 0.09565461 0.0967351 0.09865786 0.1007844 0.1025364 0.1036976 0.1042867 0.1044144 0.1042598
 0.1039833 0.1037054 0.1036265 0.1039235 0.1044025 0.104541 0.1040694 0.1033362 0.1029564 0.1031789
 0.1036745 0.1039336 0.1037706 0.1032314 0.1020769 0.09989946 0.09695959 0.09431422 0.0927854 0.09238513
 0.09298872 0.09468283 0.09694882 0.09841282 0.0982297 0.09722502 0.0970033 0.09821171 0.1001318 0.1017236
 0.102636 0.103263 0.1041308 0.1053041 0.1062381 0.1061817 0.1049437 0.103366 0.1027637 0.1036541
 0.1052555 0.106449 0.1069537 0.1072936 0.1078716 0.1083837 0.1080843 0.1065854 0.1045265 0.1033504
 0.1041147 0.1064453 0.1087306 0.1093403 0.1077849 0.1049796 0.1024762 0.1013471 0.1017687 0.1034655
 0.1060946 0.1090788 0.1115132 0.1126242 0.1123063 0.1110999 0.1096014 0.1079082 0.1058342 0.1037724
 0.1029209 0.1041609 0.1069252 0.1096504 0.1112209 0.1115862 0.111123 0.1098801 0.1076827 0.1049106
 0.102839 0.1026906 0.1042455 0.1059038 0.1063867 0.1059284 0.1055431 0.1056386 0.1057981 0.1056309
 0.1053531 0.1054792 0.1061663 0.1070157 0.1074962 0.1074348 0.1070545 0.1066582 0.106342 0.1059425
 0.1052905 0.1045905 0.1044 0.1050385 0.1061542 0.1070776 0.107482 0.1075083 0.1073525 0.1069419
 0.1060661 0.1047926 0.1036596 0.1032889 0.1037789 0.1046338 0.1052908 0.1055361 0.10544 0.1051409
 0.1047568 0.1043546 0.1039671 0.103673 0.1035834 0.1036898 0.1038241 0.103826 0.1036725 0.1034154
 0.1030772 0.1026544 0.1021836 0.1017604 0.1014802 0.1013601 0.1013357 0.1013282 0.1012779 0.1011302
 0.1008549 0.1004891 0.100114 0.09978069 0.09949207 0.09924781 0.09906326 0.09893741 0.09883125 0.0986946
 0.09850663 0.09827986 0.09803092 0.09776445 0.09748663 0.09721793 0.09698574 0.0968065 0.0966697 0.09654239
 0.0964064 0.09628205 0.09618764 0.09608908 0.09593005 0.09570567 0.09547017 0.09527598 0.09513327 0.0950211
 0.09490971 0.0947703 0.09458094 0.09434219 0.09409475 0.0939073 0.09382586 0.09383985 0.09390605 0.09398449
 0.09404012 0.094044 0.09399822 0.09393604 0.09388062 0.09382291 0.09374823 0.09366702 0.09361334 0.09361745
 0.09367649 0.09375177 0.09380221 0.09381463 0.09379962 0.09377867 0.09378026 0.09381834 0.09386332 0.09386458
 0.09381431 0.09376232 0.09375627 0.09378724 0.09380628 0.09378217 0.09373201 0.0936967 0.09369564 0.09371325
 0.09372619 0.09373157 0.09374511 0.09377689 0.09381008 0.09380721 0.09374724 0.09365434 0.09357469 0.09352861
 0.09350351 0.09348871 0.09349181 0.09351651 0.09354393 0.09354697 0.0935178 0.0934749 0.09344192 0.09342052
 0.09339002 0.09333362 0.09325851 0.09318741 0.09313695 0.0931057 0.09307778 0.09303542 0.0929703 0.09288515
 0.09278804 0.09268582 0.09258114 0.09247614 0.09238242 0.09232031 0.0922945 0.09227125 0.09219797 0.09205294
 0.09186797 0.09169687 0.09156844 0.09147117 0.09137556 0.09126389 0.09114072 0.09102148 0.09091742 0.09083116
 0.09076004 0.09070078 0.09065501 0.09063309 0.09064563 0.09068589 0.09072673 0.09074415 0.0907411 0.09074138
 0.09076363 0.09080812 0.09086589 0.09093087 0.09100442 0.09109272 0.09119803 0.0913105 0.09141473 0.09150723
 0.09160076 0.09171104 0.09184657 0.09200924 0.09219043 0.09236683 0.09251628 0.0926426 0.09277377 0.09293175
 0.09311458 0.09330973 0.09351315 0.09372878 0.09395863 0.09420237 0.09446284 0.09474549 0.09505112 0.09537275
 0.09569971 0.09602425 0.09634696 0.09667809 0.09703148 0.09741299 0.09781402 0.09821779 0.09861331 0.09900362
 0.09939943 0.09980537 0.1002156 0.1006253 0.1010423 0.1014795 0.1019379 0.1024034 0.1028634 0.1033183
 0.1037752 0.1042365 0.1046996 0.1051643 0.1056374 0.1061268 0.1066282 0.1071212 0.1075858 0.1080232
 0.1084548 0.1089024 0.109371 0.1098492 0.1103175 0.1107607 0.1111823 0.1116035 0.1120418 0.1124909
 0.1129326 0.1133646 0.1138065 0.1142738 0.1147531 0.1152093 0.1156191 0.1159932 0.1163621 0.1167426
 0.1171242 0.117489 0.1178361 0.118181 0.1185339 0.1188911 0.1192492 0.1196164 0.1199998 0.1203869
 0.1207536 0.1210903 0.1214089 0.1217239 0.1220361 0.122336 0.1226165 0.1228832 0.1231523 0.1234364
 0.1237308 0.1240219 0.1243097 0.1246124 0.1249458 0.1253093 0.1256957 0.1261043 0.1265338 0.126971
 0.1274027 0.1278359 0.1282924 0.1287724 0.1292411 0.1296619 0.1300365 0.130395 0.1307587 0.1311319
 0.1315221 0.1319446 0.1324015 0.1328731 0.1333321 0.1337622 0.1341665 0.1345646 0.1349745 0.1353903
 0.135782 0.1361247 0.1364229 0.1367047 0.1369971 0.1373063 0.1376161 0.1379001 0.1381372 0.1383139
 0.1384146 0.1384221 0.1383341 0.1381693 0.1379451 0.1376528 0.1372633 0.1367539 0.1361182 0.1353514
 0.1344416 0.1333836 0.1322034 0.1309721 0.1297965 0.1287914 0.1280488 0.127624 0.1275371 0.1277729
 0.1282696 0.1289103 0.1295373 0.129987 0.130128 0.1298913 0.1292808 0.1283575 0.1272049 0.1259011
 0.1245119 0.123091 0.121684 0.1203422 0.1191524 0.1182508 0.117801 0.1179555 0.1188299 0.120477
 0.1228405 0.1257152 0.1287798 0.1317088 0.1342913 0.136472 0.1383093 0.139904 0.1413478 0.1427004
 0.1439855 0.1452018 0.1463415 0.1474009 0.148377 0.1492609 0.1500342 0.1506713 0.1511482 0.1514581
 0.151623 0.1516891 0.1517142 0.151751 0.1518195 0.1518798 0.1518359 0.1515774 0.151027 0.1501631
 0.1490288 0.1477556 0.1466096 0.1460087 0.146425 0.1481511 0.1510789 0.1547047 0.1583871 0.1616472
 0.1642924 0.1663533 0.1679608 0.169256 0.1703483 0.1713098 0.172188 0.1730146 0.1738066 0.1745688
 0.1753024 0.1760114 0.1767023 0.17738 0.1780431 0.1786871 0.1793113 0.1799214 0.180525 0.1811265
 0.1817252 0.1823185 0.1829055 0.1834897 0.1840729 0.1846483 0.1852063 0.1857444 0.1862701 0.1867935
 0.187322 0.1878581 0.1883947 0.1889165 0.1894116 0.1898825 0.1903409 0.1907954 0.1912467 0.1916923
 0.1921317 0.1925671 0.1930009 0.1934356 0.1938713 0.1943044 0.1947285 0.1951386 0.1955354 0.1959255
 0.196317 0.1967142 0.1971159 0.1975177 0.1979183 0.1983214 0.1987336 0.1991574 0.1995882 0.200018
 0.2004413 0.2008578 0.2012713 0.2016867 0.2021077 0.2025342 0.2029619 0.2033859 0.2038051 0.2042215
 0.2046382 0.2050564 0.2054759 0.2058956 0.2063145 0.2067309 0.2071427 0.2075483 0.2079486 0.2083474
 0.2087494 0.2091548 0.2095581 0.2099523 0.2103348 0.2107075 0.211075 0.2114431 0.211817 0.2121985
 0.2125852 0.2129735 0.2133613 0.2137465 0.2141284 0.214509 0.2148917 0.2152779 0.2156647 0.2160482
 0.2164279 0.2168089 0.2171968 0.2175915 0.2179877 0.2183815 0.2187726 0.2191633 0.2195553 0.2199491
 0.2203425 0.220734 0.2211249 0.2215186 0.2219156 0.2223144 0.2227136 0.2231109 0.2235037 0.2238933
 0.2242838 0.2246766 0.2250693 0.2254583 0.2258427 0.226225 0.2266107 0.2270029 0.2273971 0.2277862
 0.2281688 0.228548 0.2289267 0.2293058 0.2296844 0.23006 0.2304305 0.2307967 0.2311605 0.2315254
 0.2318948 0.2322677 0.2326379 0.2330027 0.233366 0.2337317 0.2340988 0.2344659 0.2348343 0.2352042
 0.2355751 0.2359484 0.2363247 0.2367021 0.2370797 0.2374568 0.2378325 0.2382075 0.2385859 0.23897
 0.2393578 0.2397453 0.240128 0.2405037 0.2408753 0.2412486 0.2416233 0.2419944 0.2423602 0.2427236
 0.2430869 0.2434539 0.2438286 0.2442109 0.2445994 0.2449962 0.2454018 0.2458102 0.2462151 0.2466161
 0.2470148 0.2474134 0.247816 0.2482236 0.2486326 0.2490436 0.2494608 0.2498831 0.2503061 0.2507302
 0.2511552 0.2515759 0.2519912 0.2524068 0.2528252 0.2532448 0.2536671 0.2540925 0.2545155 0.2549331
 0.2553485 0.2557644 0.2561821 0.2566051 0.2570321 0.2574569 0.257879 0.2583028 0.2587259 0.2591436
 0.2595589 0.2599749 0.2603908 0.2608103 0.2612379 0.2616661 0.2620874 0.2625095 0.2629391 0.2633678
 0.2637879 0.2642009 0.2646078 0.2650094 0.2654122 0.2658173 0.2662183 0.266616 0.2670133 0.2673962
 0.2677346 0.267965 0.267917 0.2672328 0.2653217 0.2613715 0.2545063 0.2441369 0.2303202 0.2138594
 0.1960801 0.1784148 0.1620156 0.1475999 0.1355461 0.1260474 0.1192175 0.1151863 0.1141788 0.1166232
 0.123292 0.13484 0.1501273 0.1647856 0.1728667 0.1713534 0.162895 0.1534023 0.1472379 0.145087
 0.1454614 0.1468997 0.148828 0.151394 0.1549568 0.1595614 0.1648922 0.170792 0.1775582 0.1854904
 0.194312 0.2032732 0.2117819 0.219787 0.2275576 0.2352168 0.2425577 0.2492434 0.2550684 0.260028
 0.2642475 0.2679012 0.271147 0.2740922 0.2768079 0.2793317 0.2816193 0.2835242 0.284884 0.2856494
 0.2859446 0.2860085 0.2860626 0.286216 0.28648 0.2868398 0.2872857 0.2878067 0.2883916 0.2890319
 0.2897108 0.2904049 0.2910992 0.2917855 0.2924508 0.2930844 0.2936856 0.294255 0.2947905 0.2952947
 0.2957739 0.2962323 0.2966768 0.2971174 0.2975564 0.2979891 0.2984157 0.298838 0.2992482 0.2996346
 0.299992 0.3003214 0.3006297 0.3009301 0.3012339 0.3015413 0.301847 0.3021477 0.3024414 0.3027274
 0.3030103 0.3032933 0.3035739 0.3038515 0.3041283 0.3044025 0.3046696 0.3049332 0.3052012 0.3054747
 0.3057485 0.3060211 0.3062958 0.3065761 0.3068603 0.3071412 0.3074151 0.3076909 0.3079819 0.3082879
 0.308597 0.3089024 0.3092058 0.3095091 0.3098137 0.3101226 0.3104357 0.3107492 0.3110608 0.3113697
 0.3116696 0.3119508 0.3122088 0.3124503 0.3126907 0.3129433 0.3132082 0.3134742 0.313735 0.3139961
 0.3142638 0.3145364 0.3148088 0.3150774 0.3153439 0.3156197 0.3159195 0.3162444 0.3165793 0.3169096
 0.3172324 0.3175511 0.317871 0.3181978 0.31853 0.3188558 0.3191648 0.3194634 0.319774 0.3201198
 0.3205038 0.320901 0.3212793 0.3216297 0.3219678 0.3223137 0.3226774 0.3230517 0.3234037 0.3236963
 0.3239395 0.3242036 0.3245552 0.3249914 0.3254517 0.3258812 0.3262685 0.3266315 0.3269853 0.3273265
 0.3276401 0.3279163 0.3281705 0.3284498 0.3288044 0.3292347 0.3296839 0.3300951 0.3304569 0.3307854
 0.3310944 0.331395 0.3316806 0.3319045 0.3320264 0.3321066 0.3322999 0.3327096 0.3332726 0.3338251
 0.3342655 0.3346186 0.3349518 0.3352877 0.335611 0.3358853 0.3360199 0.3359177 0.3356525 0.3355293
 0.3358353 0.3365507 0.3373864 0.338079 0.3385655 0.338918 0.3392187 0.3395034 0.3397436 0.3398535
 0.3397797 0.3396276 0.3396451 0.3400008 0.3405973 0.3411787 0.3415987 0.3419038 0.3421932 0.3425034
 0.3427867 0.3428891 0.3426179 0.3420048 0.3414821 0.3416032 0.3425092 0.3437689 0.3448112 0.3454325
 0.3457982 0.3460475 0.3460858 0.3457607 0.3450499 0.3440695 0.343133 0.3427984 0.3434989 0.3449874
 0.346442 0.3472893 0.347694 0.3481429 0.3488126 0.3494956 0.3499369 0.350064 0.3499453 0.3496403
 0.3491679 0.3486747 0.3485372 0.3490952 0.3502541 0.3515083 0.3524163 0.3529483 0.3532808 0.3532837
 0.3523906 0.350271 0.3477094 0.346407 0.3474705 0.3502462 0.3530264 0.3547372 0.3555258 0.3559597
 0.3562892 0.3563774 0.3556863 0.3534577 0.3497446 0.3463053 0.3455349 0.348107 0.35222 0.3553416
 0.3561441 0.3547775 0.35222 0.3498212 0.3488275 0.3497103 0.3519636 0.354617 0.3568192 0.3580748
 0.3582791 0.3576704 0.3567283 0.3560384 0.3559214 0.3559462 0.3552042 0.3534892 0.3517061 0.3504853
 0.3490282 0.3464078 0.3436193 0.3429556 0.3451692 0.3483901 0.3502993 0.3505008 0.3501015 0.3494784
 0.3473721 0.342552 0.3360997 0.3313674 0.3311017 0.3347 0.3388074 0.3406033 0.3400184 0.338779
 0.3379665 0.336871 0.3340525 0.3293764 0.3247893 0.3225688 0.3227757 0.3231738 0.3217151 0.3179961
 0.3121834 0.3044601 0.2966567 0.2925911 0.2947017 0.3010023 0.3068422 0.3089293 0.3063658 0.2992411
 0.2888941 0.2792709 0.2751523 0.277743 0.2832496 0.2865276 0.2851112 0.2793313 0.2702551 0.2592181
 0.2488243 0.2425939 0.2427371 0.248392 0.2558508 0.2602196 0.257915 0.2494553 0.2400472 0.2356265
 0.2373158 0.2407548 0.2412584 0.238213 0.2340485 0.2309234 0.2295387 0.2296013 0.2301733 0.2303999
 0.2301634 0.2288824 0.2243196 0.2151248 0.2045586 0.1987126 0.2002025 0.2060782 0.2125314 0.2186596
 0.2243091 0.2273801 0.2261249 0.2227154 0.2218332 0.2256823 0.231902 0.2365496 0.2380641 0.2378536
 0.2376684 0.2374541 0.2363198 0.2349224 0.2354514 0.2388795 0.2434212 0.2464759 0.2472379 0.2466585
 0.2456799 0.2444638 0.2428879 0.2409279 0.2386209 0.236085 0.2335022 0.2309148 0.2282045 0.2253328
 0.2222798 0.2185773 0.2133937 0.2067684 0.2005884 0.197328 0.1975323 0.1995121 0.2017129 0.2037841
 0.2046375 0.2017071 0.1942947 0.1864659 0.1842146 0.1896794 0.1994556 0.2083499 0.2133933 0.214169
 0.211127 0.2054815 0.2006206 0.2014846 0.2107958 0.2263098 0.2428711 0.2567267 0.2669091 0.2733598
 0.2757155 0.2744289 0.2719159 0.2715814 0.2755287 0.2832088 0.2918588 0.2977511 0.2978103 0.2922041
 0.2861155 0.2865734 0.2953853 0.306646 0.3132339 0.3142682 0.3139862 0.3150682 0.3163688 0.3166444
 0.3171385 0.3194722 0.3229555 0.325161 0.324095 0.3190252 0.3104392 0.3006098 0.2932738 0.2907842
 0.2917041 0.2926536 0.2918773 0.2892383 0.284054 0.276201 0.2689916 0.2673349 0.2721127 0.2788858
 0.2829874 0.2838762 0.2837084 0.2834228 0.2816364 0.2769701 0.2704948 0.2652549 0.2632763 0.2636493
 0.2639995 0.2630532 0.2608744 0.2574217 0.2525059 0.2472384 0.2441168 0.2448633 0.2486321 0.2528537
 0.2555856 0.2566802 0.2570373 0.2574319 0.2581008 0.2588947 0.2596642 0.2607988 0.263241 0.2674589
 0.2725514 0.2770208 0.2804323 0.2837223 0.2878016 0.2923905 0.29641 0.2991796 0.3010367 0.3029505
 0.3056469 0.3089875 0.3120725 0.3140195 0.3148145 0.3154202 0.3169028 0.3194186 0.3221771 0.3243425
 0.3257357 0.3266934 0.3275747 0.3284906 0.3292591 0.3295688 0.3294045 0.3293218 0.3300361 0.3316742
 0.3336186 0.3351285 0.3359383 0.3362257 0.3362069 0.3359204 0.3353461 0.3345906 0.333889 0.3334395
 0.3332692 0.3332605 0.3332688 0.3332005 0.3330235 0.3327598 0.3324688 0.3322186 0.3320717 0.332095
 0.332348 0.3328357 0.3334954 0.334247 0.3350287 0.3357665 0.3363436 0.3366396 0.336589 0.3361804
 0.3354128 0.3342755 0.3327525 0.3308162 0.328438 0.3256936 0.3229308 0.3207995 0.3199802 0.3207563
 0.3227993 0.3253648 0.3277182 0.3294469 0.3304974 0.3310229 0.3312124 0.3312007 0.3310549 0.3308011
 0.3304565 0.3300517 0.3296264 0.3292127 0.3288341 0.3285205 0.3283104 0.3282297 0.3282701 0.3283923
 0.3285458 0.3286918 0.3288096 0.3288893 0.3289183 0.3288733 0.3287209 0.3284305 0.3279951 0.3274417
 0.3268116 0.3261246 0.3253525 0.3244286 0.3232867 0.3218925 0.3202306 0.3182833 0.3160784 0.3137709
 0.3116083 0.3097537 0.308161 0.3066527 0.3050927 0.3034528 0.301754 0.3000055 0.2982028 0.2963447
 0.2944362 0.2924847 0.2904978 0.2884857 0.2864636 0.2844447 0.2824241 0.2803737 0.2782568 0.2760385
 0.2736697 0.2710623 0.2680899 0.2646198 0.2605517 0.2558347 0.2504734 0.2445411 0.2381923 0.2316458
 0.225138 0.2188815 0.2130541 0.20781 0.2032848 0.199585 0.1967705 0.1948512 0.1938017 0.1935834
 0.1941563 0.1954706 0.1974418 0.199927 0.2027229 0.2055944 0.2083183 0.2107288 0.2127658 0.2145058
 0.2161287 0.2178177 0.2196657 0.2216623 0.2237444 0.225835 0.2278419 0.2296559 0.2311832 0.2323859
 0.2332906 0.2339575 0.2344425 0.2347789 0.2349864 0.2350915 0.235139 0.2351846 0.2352836 0.2354839
 0.2358208 0.2363074 0.2369336 0.237684 0.238557 0.2395702 0.2407493 0.2421098 0.2436448 0.2453303
 0.2471472 0.2491011 0.2512241 0.2535565 0.2561212 0.2589088 0.2618822 0.2649849 0.2681348 0.2712119
 0.2740717 0.2765878 0.2786925 0.2803869 0.2817195 0.2827565 0.2835649 0.284205 0.2847187 0.2851195
 0.2853968 0.2855303 0.2854969 0.2852691 0.2848214 0.2841454 0.2832634 0.2822324 0.2811286 0.2800199
 0.2789503 0.277949 0.2770402 0.276235 0.275524 0.2748827 0.2742805 0.2736903 0.2730952 0.2724874
 0.2718586 0.2711921 0.2704607 0.269624 0.2686342 0.267455 0.2660715 0.2644839 0.262703 0.2607546
 0.2586777 0.2565111 0.254281 0.2519938 0.2496406 0.2472096 0.2446942 0.2420899 0.239404 0.236677
 0.2339773 0.2313666 0.2288745 0.2265032 0.2242424 0.2220822 0.2200247 0.2180816 0.2162594 0.2145555
 0.2129614 0.2114635 0.2100465 0.2087057 0.2074517 0.2063064 0.2053004 0.2044654 0.2038127 0.2033235
 0.2029608 0.202682 0.2024529 0.2022687 0.2021483 0.2020844 0.2020126 0.2018483 0.2015494 0.2011412
 0.2006985 0.2003017 0.1999978 0.1997929 0.1996649 0.199558 0.1993727 0.1989892 0.1982981 0.1972097
 0.195668 0.1936842 0.1913489 0.1888141 0.1862687 0.1839023 0.1818509 0.1801729 0.1788634 0.1778661
 0.1770862 0.1764431 0.1759292 0.1756115 0.1755703 0.175808 0.1761834 0.1764749 0.1765687 0.1765717
 0.1767049 0.1771026 0.1777259 0.1784259 0.1790672 0.1796151 0.180111 0.1805754 0.1809685 0.1812399
 0.1813662 0.181339 0.1811615 0.1808529 0.1804341 0.1799237 0.179346 0.1787114 0.1779986 0.1771854
 0.1762722 0.1752631 0.174157 0.1729567 0.1716428 0.1701762 0.168601 0.1671303 0.1660706 0.1656471
 0.1658733 0.1665464 0.1673899 0.1682365 0.1690331 0.1696981 0.1701322 0.1704435 0.1710296 0.1723028
 0.1743182 0.1766936 0.1788869 0.1805393 0.1815603 0.1819786 0.18184 0.1812164 0.1801658 0.1786867
 0.1768032 0.1746373 0.1723272 0.1699739 0.1676982 0.1656218 0.1637994 0.1622521 0.1609864 0.159995
 0.1593351 0.1587405 0.1566905 0.1509531 0.1417658 0.1338699 0.1329226 0.139402 0.1479438 0.1531059
 0.1539863 0.1528889 0.151708 0.1508386 0.1501994 0.149855 0.1498537 0.1500874 0.1503331 0.150359
 0.1500702 0.1494951 0.1485366 0.1467399 0.14328 0.1372609 0.1283787 0.1175328 0.1066311 0.09757669
 0.09132944 0.08770441 0.08577675 0.08453181 0.0834536 0.08269861 0.08274531 0.08390741 0.08616075 0.08928894
 0.09303456 0.09707682 0.1009815 0.1043359 0.1069698 0.108961 0.1104231 0.1113844 0.1118611 0.1119216
 0.1116481 0.1111085 0.1103611 0.1094314 0.1082969 0.1069469 0.1054653 0.1040481 0.1029169 0.1021789
 0.1017694 0.1015497 0.1014371 0.1014124 0.1014586 0.101548 0.1016645 0.1018107 0.102008 0.1022806
 0.1026129 0.1029408 0.1032064 0.1033988 0.1035341 0.1036172 0.1036188 0.1034924 0.1032465 0.1029724
 0.1027163 0.1023392 0.101623 0.1005547 0.09943849 0.0986935 0.09855329 0.09892958 0.09951603 0.1000206
 0.1003352 0.1005246 0.1006811 0.1007878</values></Ydata></ScSm><ScRf><Ydata ylabel="Single channel"><values byteorder="INTEL" format="FLOAT32" numvalues="1820"> 0.07054468 0.07067421 0.07079189 0.07089729 0.07099223 0.07108493 0.07118866 0.07131176 0.07145052 0.07159171
 0.07172202 0.0718369 0.0719393 0.07202992 0.0721076 0.07218255 0.07227743 0.07240554 0.07255391 0.07269238
 0.07279782 0.07287392 0.07295087 0.073057 0.07318284 0.07327966 0.07330357 0.07326166 0.07321014 0.07320413
 0.07326064 0.07338375 0.07359666 0.07388815 0.07413819 0.07419486 0.07406153 0.07392359 0.0739426 0.07409541
 0.0742496 0.07431199 0.07426508 0.0741556 0.0741154 0.07431898 0.07482362 0.07544118 0.07579831 0.0755513
 0.07461336 0.07327847 0.07215345 0.0718421 0.07250863 0.07369437 0.07466209 0.07499186 0.07480821 0.07446339
 0.0741697 0.07399611 0.0740321 0.07437111 0.07495754 0.07552646 0.07570833 0.07527244 0.07438847 0.07359477
 0.07335917 0.07371626 0.07443323 0.07529102 0.07587654 0.07537236 0.07327992 0.07051963 0.06914634 0.07045142
 0.07361144 0.07654424 0.07780478 0.0773509 0.07594362 0.074476 0.07373415 0.0741258 0.07541568 0.07696121
 0.07822253 0.0789023 0.078809 0.07794896 0.07670721 0.07568382 0.07535981 0.07595716 0.07734798 0.07891963
 0.07982132 0.07963385 0.07868227 0.07761469 0.07692614 0.07693498 0.07780605 0.07935473 0.08106536 0.08247252
 0.08340256 0.08387002 0.08396368 0.08382942 0.08359915 0.0833707 0.08330488 0.08354353 0.08393012 0.08404289
 0.08366424 0.08307585 0.08277369 0.08295657 0.08335587 0.08355978 0.08342144 0.08298092 0.08204519 0.08028293
 0.0779033 0.07576136 0.07452282 0.0741993 0.07469289 0.07607449 0.07792045 0.07911344 0.07896708 0.07814987
 0.07796061 0.07892428 0.08046475 0.08174722 0.08248974 0.08300616 0.08371495 0.08466595 0.08542222 0.08538122
 0.08438896 0.08312339 0.08264476 0.08336997 0.08466724 0.08563478 0.08605044 0.08634004 0.0868264 0.0872602
 0.08703861 0.08585045 0.08421443 0.08329651 0.08394954 0.08586934 0.08775233 0.0882792 0.08705343 0.08481789
 0.0828336 0.08197327 0.08238109 0.08383282 0.08604722 0.0885524 0.09061303 0.09160194 0.0914318 0.09053921
 0.08940925 0.08812211 0.08652548 0.08494277 0.08436023 0.08550529 0.0879127 0.0902951 0.09173052 0.09217317
 0.09193115 0.09104349 0.08936332 0.08720447 0.08563083 0.08566864 0.08713799 0.08869745 0.08926933 0.0890483
 0.08889174 0.08914915 0.08946937 0.08951822 0.08947677 0.08978283 0.09057082 0.09149972 0.09211432 0.09226455
 0.09214027 0.09200358 0.09193882 0.09180295 0.09144565 0.09104478 0.09108952 0.0918646 0.09306785 0.09411364
 0.09470914 0.09497112 0.09507099 0.09494527 0.09440373 0.09349994 0.09271301 0.09260762 0.09328428 0.09430274
 0.09515076 0.09562629 0.0957877 0.09576054 0.09565461 0.09553521 0.09543319 0.09541552 0.09557857 0.09591691
 0.09628251 0.0965308 0.09664004 0.09665632 0.09659655 0.09645322 0.09626012 0.09611069 0.09609691 0.09623475
 0.09646438 0.0967131 0.09692574 0.09704921 0.09704962 0.09695722 0.09684889 0.0967768 0.09674589 0.09675594
 0.09682307 0.09694873 0.0970962 0.09721658 0.09728815 0.09731863 0.0973193 0.09729491 0.09725653 0.09722817
 0.09723622 0.09729376 0.09738829 0.09748799 0.09757692 0.09767579 0.0978016 0.09791907 0.09797001 0.09794688
 0.09790413 0.09789874 0.09794537 0.09802449 0.09810677 0.09816271 0.09816639 0.09811319 0.09804247 0.09802602
 0.09811379 0.09829786 0.09853585 0.09878624 0.09901097 0.09917851 0.099289 0.09937437 0.09945849 0.09953578
 0.09959569 0.0996507 0.09973422 0.09987492 0.1000695 0.1002794 0.1004613 0.1005964 0.1006919 0.1007735
 0.1008783 0.1010241 0.1011761 0.1012768 0.10132 0.1013643 0.1014602 0.1015905 0.1016975 0.1017525
 0.1017833 0.1018371 0.1019322 0.1020467 0.1021516 0.1022439 0.1023463 0.1024739 0.1026027 0.1026785
 0.1026711 0.1026129 0.1025675 0.1025666 0.1025962 0.1026393 0.1027014 0.1027871 0.1028737 0.1029266
 0.1029358 0.102926 0.102928 0.1029438 0.1029477 0.1029181 0.1028615 0.1028036 0.1027655 0.1027493
 0.1027415 0.102724 0.1026853 0.1026251 0.1025513 0.1024737 0.1023974 0.1023267 0.1022768 0.1022711
 0.102308 0.1023357 0.1022825 0.102125 0.1019143 0.1017299 0.1016114 0.1015367 0.1014545 0.1013314
 0.1011724 0.1010064 0.1008573 0.1007296 0.1006134 0.1005013 0.1004 0.1003296 0.1003013 0.1002936
 0.1002589 0.1001655 0.1000291 0.09989461 0.09979273 0.09972401 0.09967401 0.09963052 0.09959168 0.09956818
 0.0995707 0.09958891 0.09959557 0.09957869 0.09955737 0.0995609 0.09960565 0.09969195 0.09980263 0.09990134
 0.09995595 0.09997363 0.09999758 0.1000625 0.1001657 0.100284 0.100405 0.1005321 0.1006711 0.1008232
 0.1009895 0.1011737 0.1013784 0.1015987 0.1018233 0.1020411 0.1022514 0.1024664 0.1027032 0.1029699
 0.1032575 0.1035474 0.1038269 0.1040981 0.1043719 0.1046541 0.1049395 0.1052224 0.1055081 0.1058081
 0.1061262 0.1064543 0.1067818 0.1071049 0.1074261 0.1077493 0.1080767 0.1084099 0.1087553 0.1091207
 0.1095002 0.1098661 0.1101894 0.1104702 0.1107405 0.1110365 0.1113713 0.1117288 0.1120748 0.112381
 0.1126506 0.1129178 0.1132114 0.1135243 0.1138321 0.114134 0.1144594 0.1148263 0.1152074 0.1155477
 0.1158166 0.1160361 0.1162546 0.116497 0.1167472 0.1169788 0.117191 0.1174053 0.1176355 0.1178762
 0.118122 0.1183817 0.1186611 0.1189429 0.1191997 0.1194232 0.1196271 0.1198242 0.1200097 0.1201667
 0.1202844 0.1203744 0.1204684 0.1205927 0.1207431 0.1208942 0.1210335 0.1211744 0.1213353 0.1215199
 0.1217239 0.1219485 0.1221942 0.1224499 0.1227026 0.1229593 0.123242 0.1235502 0.1238451 0.1240875
 0.1242827 0.1244683 0.1246682 0.1248806 0.1251055 0.1253563 0.12564 0.1259431 0.1262426 0.1265251
 0.1267969 0.1270804 0.1273906 0.1277097 0.1279946 0.1282188 0.1284005 0.1285858 0.1288093 0.1290743
 0.1293608 0.1296456 0.1299141 0.1301562 0.1303573 0.1305031 0.1305991 0.1306715 0.130738 0.1307795
 0.1307527 0.1306267 0.1303951 0.1300575 0.1296033 0.1290252 0.1283443 0.1276228 0.1269532 0.1264317
 0.1261309 0.1260867 0.1262996 0.1267366 0.1273294 0.1279814 0.1285899 0.1290655 0.1293378 0.1293579
 0.1291126 0.128632 0.1279757 0.1272095 0.1263912 0.1255639 0.1247566 0.1240032 0.1233752 0.1229931
 0.122992 0.1234683 0.1244443 0.1258534 0.1275398 0.1292921 0.1309198 0.1323231 0.1335036 0.1345159
 0.1354164 0.136245 0.1370275 0.1377765 0.1384906 0.1391632 0.139794 0.1403877 0.1409419 0.1414428
 0.1418719 0.1422147 0.1424662 0.1426347 0.1427387 0.1427952 0.142815 0.1428105 0.1427927 0.1427515
 0.1426458 0.142425 0.1420629 0.1415752 0.1410263 0.1405351 0.1402689 0.1404036 0.141051 0.1421916
 0.1436686 0.1452596 0.146769 0.1480771 0.1491371 0.1499591 0.1505945 0.151109 0.1515557 0.1519664
 0.152359 0.1527416 0.1531145 0.1534755 0.1538245 0.1541651 0.1545026 0.1548421 0.1551834 0.1555214
 0.1558528 0.156183 0.1565225 0.1568768 0.1572397 0.1575976 0.1579434 0.1582849 0.1586328 0.1589838
 0.1593221 0.1596395 0.1599448 0.1602566 0.1605889 0.1609417 0.1612984 0.1616354 0.161942 0.1622294
 0.1625165 0.1628104 0.1631056 0.1633963 0.1636814 0.1639619 0.1642389 0.1645161 0.1647996 0.1650905
 0.1653804 0.1656559 0.1659116 0.1661551 0.1663995 0.166652 0.1669105 0.1671692 0.167426 0.1676853
 0.1679535 0.1682313 0.1685109 0.1687823 0.1690414 0.1692913 0.169537 0.1697819 0.170028 0.1702767
 0.1705293 0.170785 0.171041 0.1712936 0.1715423 0.1717898 0.1720392 0.1722917 0.1725469 0.1728027
 0.1730556 0.1733034 0.1735481 0.1737953 0.1740497 0.1743104 0.1745705 0.1748223 0.1750627 0.175294
 0.1755214 0.1757498 0.1759823 0.1762185 0.1764575 0.1766999 0.1769474 0.1771991 0.1774517 0.1777017
 0.1779466 0.1781858 0.1784216 0.1786582 0.1788971 0.1791369 0.1793763 0.1796159 0.1798559 0.1800953
 0.1803336 0.180571 0.1808082 0.1810463 0.1812858 0.1815262 0.1817673 0.1820092 0.1822514 0.182494
 0.1827377 0.1829819 0.1832246 0.1834643 0.183701 0.1839341 0.1841641 0.1843937 0.1846253 0.1848595
 0.1850964 0.1853356 0.1855761 0.1858161 0.1860547 0.1862914 0.186526 0.1867614 0.1870004 0.1872415
 0.1874796 0.1877122 0.1879427 0.188177 0.1884187 0.1886654 0.1889117 0.189156 0.1894014 0.1896508
 0.1899034 0.1901568 0.190408 0.1906546 0.1908973 0.1911393 0.1913819 0.191625 0.1918711 0.1921236
 0.1923829 0.1926478 0.1929153 0.1931798 0.1934366 0.1936883 0.1939394 0.1941906 0.1944394 0.1946833
 0.1949196 0.1951483 0.1953759 0.1956071 0.1958375 0.1960609 0.1962785 0.1964971 0.1967234 0.1969613
 0.1972091 0.1974593 0.1977081 0.1979581 0.1982109 0.198464 0.1987154 0.198965 0.1992125 0.1994608
 0.1997137 0.1999712 0.2002317 0.2004965 0.200765 0.2010324 0.201296 0.2015576 0.2018184 0.2020803
 0.2023485 0.2026244 0.2029015 0.2031756 0.2034488 0.2037214 0.2039916 0.2042611 0.2045306 0.2047974
 0.2050624 0.2053299 0.2055995 0.2058681 0.2061369 0.2064065 0.2066747 0.2069454 0.2072244 0.2075068
 0.2077853 0.2080623 0.2083427 0.2086235 0.2089031 0.2091835 0.2094619 0.2097356 0.2100082 0.2102801
 0.210545 0.2108037 0.2110613 0.2113103 0.2115285 0.2116663 0.2115907 0.2110178 0.2094751 0.2063146
 0.200844 0.1926037 0.1816432 0.1685979 0.1545149 0.1405265 0.1275427 0.1161288 0.106583 0.09905854
 0.09364509 0.0904427 0.08962449 0.0915245 0.09675099 0.1058252 0.1178601 0.1294205 0.135811 0.1346339
 0.1279626 0.1204589 0.1155747 0.1138596 0.1141424 0.1152687 0.1167816 0.1187931 0.1215865 0.1252027
 0.1293965 0.1340409 0.1393656 0.1456064 0.1525476 0.1595988 0.1662929 0.1725914 0.1787091 0.1847437
 0.1905295 0.1957974 0.2003834 0.2042851 0.2076057 0.2104835 0.213038 0.2153487 0.217473 0.2194467
 0.2212389 0.2227334 0.2237994 0.224396 0.2246219 0.2246677 0.2247097 0.2248328 0.2250445 0.2253328
 0.2256894 0.226103 0.2265633 0.2270657 0.2276009 0.2281508 0.2287008 0.229243 0.2297709 0.2302804
 0.230769 0.2312302 0.2316595 0.2320638 0.2324537 0.2328319 0.2331994 0.2335621 0.2339233 0.2342822
 0.2346386 0.2349902 0.2353276 0.2356418 0.2359332 0.2362083 0.2364741 0.2367378 0.2370017 0.2372625
 0.2375183 0.2377713 0.2380224 0.238271 0.2385198 0.2387706 0.2390198 0.239265 0.2395081 0.2397512
 0.2399941 0.2402381 0.2404827 0.2407243 0.2409624 0.2412017 0.2414442 0.2416872 0.2419278 0.2421665
 0.2424064 0.2426538 0.2429125 0.2431785 0.2434456 0.2437145 0.2439892 0.2442676 0.2445442 0.2448178
 0.2450907 0.2453642 0.2456381 0.2459085 0.2461684 0.2464138 0.246647 0.2468737 0.2470993 0.2473287
 0.2475655 0.2478092 0.2480575 0.2483077 0.2485569 0.2488039 0.2490515 0.2493003 0.2495496 0.2498044
 0.2500755 0.2503646 0.2506603 0.250952 0.25124 0.2515296 0.2518245 0.2521244 0.2524237 0.2527137
 0.2529901 0.2532602 0.2535413 0.2538507 0.25419 0.2545384 0.2548706 0.2551807 0.2554826 0.2557911
 0.2561121 0.2564387 0.2567467 0.2570099 0.2572384 0.2574862 0.2578028 0.2581857 0.2585898 0.2589736
 0.2593253 0.2596538 0.2599683 0.2602686 0.2605471 0.2607983 0.2610345 0.2612935 0.2616154 0.2619996
 0.2623993 0.2627682 0.2630969 0.2633974 0.2636813 0.2639599 0.2642298 0.2644531 0.264596 0.2647068
 0.2649087 0.265282 0.2657758 0.2662617 0.2666608 0.2669915 0.2673041 0.267616 0.2679183 0.268185
 0.2683436 0.2683125 0.2681474 0.2680935 0.2683861 0.2690142 0.2697482 0.2703717 0.2708255 0.2711612
 0.271447 0.2717204 0.271965 0.2721123 0.2721165 0.2720602 0.2721424 0.2724982 0.2730452 0.2735732
 0.2739649 0.2742628 0.2745506 0.2748578 0.2751452 0.2752882 0.2751306 0.2746977 0.2743399 0.2745047
 0.2753042 0.2763874 0.2772915 0.277853 0.2782075 0.2784681 0.2785565 0.278349 0.2778308 0.2770978
 0.2763997 0.276184 0.2768049 0.2780703 0.2793183 0.2800797 0.2804807 0.280911 0.2815157 0.2821326
 0.2825599 0.2827384 0.2827195 0.2825458 0.2822305 0.2818955 0.2818512 0.2823755 0.2833915 0.2844886
 0.2853077 0.2858228 0.2861763 0.286263 0.2856218 0.2839823 0.2819831 0.2810099 0.2819639 0.2843134
 0.2866687 0.288157 0.2888981 0.289352 0.2897192 0.2898874 0.2894233 0.2877135 0.2847981 0.2821055
 0.2815884 0.2838006 0.2872767 0.2899517 0.2907377 0.2897499 0.2877857 0.2859557 0.2852852 0.2861576
 0.2881553 0.2904832 0.2924454 0.2936382 0.2939796 0.2936642 0.2930774 0.2926928 0.2927757 0.2929789
 0.2925598 0.2913488 0.2900882 0.2892953 0.2883147 0.2863868 0.2843359 0.2840557 0.2861657 0.2891168
 0.2909904 0.2914654 0.2914636 0.2912877 0.2898715 0.2861801 0.2811241 0.2775274 0.2777101 0.281175
 0.285102 0.2871209 0.2871864 0.2867683 0.2867843 0.2866247 0.2850552 0.2819636 0.2790382 0.2782567
 0.279669 0.2813218 0.2814209 0.2795873 0.2759105 0.2705007 0.2649773 0.2627768 0.2661199 0.2732528
 0.28 0.2833694 0.2824875 0.2773581 0.269176 0.2616291 0.2592408 0.2631994 0.2699749 0.2747388
 0.2751725 0.2715697 0.2648718 0.256256 0.248152 0.2439423 0.2458125 0.2529967 0.2619084 0.2676826
 0.2666646 0.2593468 0.2511002 0.2481262 0.2516249 0.2570031 0.2592739 0.2577455 0.2549884 0.2533319
 0.2535777 0.2554342 0.2578492 0.2598383 0.2612407 0.2613433 0.2575007 0.2480614 0.2367237 0.230574
 0.2327812 0.2400488 0.2479917 0.2555509 0.2625332 0.2664397 0.2651254 0.2610375 0.2596503 0.2636173
 0.270244 0.2749324 0.2758484 0.2746661 0.2735229 0.2724754 0.2705569 0.2685188 0.2688642 0.2727326
 0.2781129 0.2820226 0.2834973 0.283594 0.2833912 0.2830812 0.282518 0.2816631 0.2805513 0.2793156
 0.2781777 0.2772048 0.2762566 0.2752621 0.2741563 0.2722825 0.268442 0.2624535 0.256489 0.2535786
 0.2544309 0.2569864 0.2593771 0.2612796 0.2614412 0.2566605 0.2459693 0.2343849 0.2294605 0.2339823
 0.2437463 0.2522749 0.2559401 0.2544116 0.24846 0.2395957 0.2316009 0.2298769 0.2372861 0.2511562
 0.2656766 0.2768103 0.2838346 0.2870966 0.2864583 0.28243 0.2774575 0.2749624 0.2769965 0.2828912
 0.2897661 0.2938701 0.2922185 0.2850527 0.2774652 0.2763195 0.2834453 0.2932038 0.2987069 0.2990278
 0.2981946 0.2987995 0.2997803 0.2999545 0.3005012 0.3029786 0.3067651 0.3095765 0.3095134 0.3058611
 0.2990773 0.291345 0.2862272 0.2858498 0.2885521 0.2907889 0.290766 0.2884805 0.2834954 0.2759039
 0.269117 0.2680385 0.2734952 0.2809837 0.2858019 0.2874308 0.2880833 0.288723 0.2879296 0.2842792
 0.2788701 0.2748499 0.2743317 0.2764013 0.2786234 0.2796802 0.2795838 0.2781515 0.2750052 0.2712029
 0.2693931 0.271462 0.2765113 0.2817296 0.2849741 0.2860784 0.2860436 0.2857463 0.2854683 0.2850472
 0.2842994 0.2836272 0.2840578 0.2861492 0.2890218 0.2911634 0.2921839 0.2931396 0.2950473 0.2976384
 0.2997698 0.300689 0.3006904 0.3007349 0.3015835 0.3031763 0.304691 0.3052666 0.3048521 0.3043699
 0.3048904 0.3066115 0.3087766 0.3105401 0.3116761 0.3124661 0.3132235 0.3140224 0.3146636 0.3148441
 0.3145632 0.3143668 0.3149438 0.3164113 0.3181731 0.3195208 0.3202153 0.3204541 0.3204659 0.3202895
 0.3198854 0.3193232 0.3187943 0.3184655 0.3183606 0.3183846 0.3184279 0.3184343 0.3184063 0.3183852
 0.3184196 0.3185277 0.3186917 0.3188893 0.3191064 0.3193156 0.3194786 0.3195907 0.3196883 0.3197878
 0.3198433 0.3197783 0.3195368 0.319084 0.3183823 0.3173925 0.3160874 0.3144401 0.3124229 0.3100994
 0.3077879 0.3061005 0.3056904 0.3068354 0.3092155 0.3120959 0.3147447 0.3167482 0.3180476 0.3187872
 0.3191541 0.3192964 0.3193046 0.3192155 0.3190368 0.3187764 0.3184536 0.3180907 0.3177104 0.3173422
 0.3170137 0.3167301 0.3164674 0.3161879 0.3158599 0.3154659 0.3150016 0.3144698 0.3138742 0.3132108
 0.3124612 0.3116024 0.3106348 0.3096007 0.3085687 0.3075943 0.3066894 0.3058217 0.3049417 0.3040055
 0.3029631 0.3017503 0.300349 0.2988754 0.297552 0.2965328 0.2957636 0.2950429 0.2941985 0.2931812
 0.292025 0.2907783 0.2894789 0.2881514 0.2868022 0.2854172 0.2839693 0.2824296 0.2807814 0.2790287
 0.2771921 0.2752963 0.2733642 0.2714079 0.2694074 0.2672875 0.2649221 0.2621639 0.2588773 0.2549652
 0.2503954 0.2452278 0.2396212 0.2337986 0.2279885 0.2223827 0.217134 0.2123758 0.2082313 0.2048064
 0.2021769 0.2003842 0.1994407 0.1993401 0.2000636 0.2015768 0.2038166 0.2066762 0.2100048 0.2136191
 0.217318 0.220904 0.2242319 0.2272605 0.2300451 0.2326571 0.2351106 0.2373681 0.2393945 0.241182
 0.2427323 0.2440405 0.2451072 0.2459588 0.2466483 0.2472346 0.247755 0.2482143 0.2485955 0.2488846
 0.2490905 0.2492453 0.2493883 0.2495478 0.2497375 0.2499616 0.2502239 0.250532 0.2508987 0.2513405
 0.2518704 0.2524883 0.2531759 0.2539076 0.2546722 0.2554836 0.256375 0.257384 0.2585411 0.2598612
 0.2613386 0.2629418 0.2646065 0.2662364 0.2677233 0.2689767 0.2699442 0.2706138 0.2710057 0.2711531
 0.2710869 0.2708343 0.2704235 0.2698827 0.2692372 0.2685118 0.2677289 0.2668973 0.2660103 0.2650611
 0.264058 0.263026 0.2619945 0.2609847 0.2600063 0.2590635 0.2581577 0.2572841 0.256433 0.2555987
 0.2547842 0.2539971 0.2532471 0.252541 0.2518724 0.2512164 0.2505316 0.2497682 0.2488806 0.2478437
 0.246653 0.2453117 0.243824 0.2422007 0.2404574 0.2386071 0.2366614 0.2346354 0.2325436 0.2303876
 0.2281493 0.2258052 0.2233644 0.220898 0.2185134 0.2162913 0.2142531 0.2123772 0.2106288 0.2089789
 0.2074144 0.2059294 0.2045104 0.2031407 0.2018174 0.2005512 0.1993526 0.198228 0.1971797 0.1962109
 0.1953364 0.1945798 0.1939496 0.1934289 0.1929934 0.1926275 0.1923292 0.1921227 0.1920489 0.1921127
 0.1922486 0.1923582 0.1923778 0.1923082 0.1922006 0.1921156 0.1920803 0.1920835 0.1920995 0.1920869
 0.1919689 0.1916433 0.1910167 0.1900191 0.1886122 0.1868125 0.1847043 0.1824275 0.1801547 0.1780538
 0.1762422 0.1747736 0.1736532 0.1728337 0.1722194 0.1717277 0.1713545 0.1711684 0.1712438 0.1715785
 0.172038 0.1724133 0.1726018 0.1727194 0.1729973 0.1735849 0.1744642 0.1754979 0.1765254 0.1774382
 0.1781925 0.1787757 0.1791933 0.179478 0.1796626 0.1797442 0.1797059 0.1795471 0.1792749 0.1788994
 0.1784433 0.1779186 0.1773042 0.1765783 0.1757453 0.1748146 0.1737914 0.1726838 0.1714707 0.170105
 0.1686259 0.1672461 0.1662706 0.1659297 0.1662634 0.1671045 0.168194 0.1693543 0.1705137 0.1715785
 0.1724289 0.173114 0.1739457 0.1752936 0.1772741 0.1796336 0.181921 0.1837742 0.1850415 0.1856994
 0.1857769 0.1853526 0.1844887 0.183172 0.1814112 0.1793272 0.1770705 0.1747583 0.1725276 0.1705124
 0.1687701 0.1673205 0.1661729 0.1653273 0.1648508 0.1644659 0.1625717 0.1568081 0.1473985 0.139305
 0.1384769 0.1454407 0.1545711 0.1601328 0.1611517 0.1600412 0.1588067 0.157881 0.1571857 0.1567887
 0.1567444 0.1569507 0.1571893 0.1572272 0.1569622 0.1564119 0.1554573 0.1536025 0.1499625 0.1435832
 0.134144 0.1226071 0.1110126 0.1013985 0.09479284 0.09099427 0.08900813 0.08774323 0.08663851 0.08585119
 0.0858877 0.08708517 0.08942667 0.09269862 0.09664831 0.1009497 0.1051425 0.1087738 0.1116379 0.1137963
 0.1153664 0.116389 0.1168917 0.116952 0.1166634 0.1161038 0.1153354 0.1143799 0.1132076 0.1118004
 0.1102446 0.1087556 0.1075864 0.1068629 0.1065077 0.1063462 0.1062638 0.1062328 0.1062503 0.1063141
 0.1064316 0.1066104 0.106857 0.1071802 0.1075621 0.1079369 0.1082303 0.1084112 0.1084924 0.1084895
 0.1083822 0.1081296 0.1077514 0.1073507 0.1069719 0.1064614 0.1055904 0.1043485 0.1030525 0.1021411
 0.101872 0.102171 0.1027164 0.1031763 0.1034105 0.1034815 0.1035008 0.1034739 0.1032846 0.1028247
</values></Ydata></ScRf><Data_Parameters_AB><parameter name="DPF">1</parameter><parameter name="NPT">3497</parameter><parameter name="FXV">3996</parameter><parameter name="LXV">500</parameter><parameter name="CSF">1</parameter><parameter name="MXY">0.110045738518238</parameter><parameter name="MNY">-0.105324968695641</parameter><parameter name="DAT">18/01/2024</parameter><parameter name="TIM">11:05:47.265 (GMT+1)</parameter><parameter name="DXU">WN</parameter></Data_Parameters_AB><AB__Qtest><MainReport name="Quality Test Report"><Header><Line><Legend>Test result ok/not ok [1/0]: </Legend><Value>0</Value></Line><Line><Legend>Method file: </Legend><Value>C:\Users\Public\Documents\Bruker\OPUS_8.2.28\QT\IRBT_v3_default.QT</Value></Line></Header><Matrix><Line><Legend></Legend><Legend>min</Legend><Legend>max</Legend><Legend>measured</Legend></Line><Line><Value>Absorption (X-Range 1):</Value><Value>0.400000</Value><Value>2.000000</Value><Value>0.170166</Value></Line><Line><Value>Noise (X-Range 4):</Value><Value></Value><Value>0.000300</Value><Value>0.000015</Value></Line><Line><Value>Signal/Noise (X-Range 2):</Value><Value>200.000000</Value><Value></Value><Value>167.188452</Value></Line><Line><Value>Signal/Noise (X-Range 3):</Value><Value>40.000000</Value><Value></Value><Value>163.225745</Value></Line><Line><Value>Water vapour (X-Range 5):</Value><Value></Value><Value>0.000300</Value><Value>0.000014</Value></Line><Line><Value>Signal/Water (X-Range 2):</Value><Value>100.000000</Value><Value></Value><Value>182.524440</Value></Line><Line><Value>Signal/Water (X-Range 3):</Value><Value>20.000000</Value><Value></Value><Value>178.198239</Value></Line><Line><Value>Fringes (X-Range 6):</Value><Value></Value><Value>0.000100</Value><Value>0.000016</Value></Line></Matrix></MainReport></AB__Qtest><Data_Parameters_ScSm><parameter name="DPF">1</parameter><parameter name="NPT">1814</parameter><parameter name="FXV">3996.63438082617</parameter><parameter name="LXV">499.579297603271</parameter><parameter name="CSF">1</parameter><parameter name="MXY">0.35827910900116</parameter><parameter name="MNY">0.0826986134052277</parameter><parameter name="DAT">18/01/2024</parameter><parameter name="TIM">11:05:47.265 (GMT+1)</parameter><parameter name="DXU">WN</parameter></Data_Parameters_ScSm><Data_Parameters_ScRf><parameter name="DPF">1</parameter><parameter name="NPT">1820</parameter><parameter name="FXV">4004.34989121387</parameter><parameter name="LXV">495.721542409425</parameter><parameter name="CSF">1</parameter><parameter name="MXY">0.320465922355652</parameter><parameter name="MNY">0.0691463351249695</parameter><parameter name="DAT">18/01/2024</parameter><parameter name="TIM">11:05:21.403 (GMT+1)</parameter><parameter name="DXU">WN</parameter></Data_Parameters_ScRf><Optic_Parameters_Rf><parameter name="APR">0</parameter><parameter name="APT">Open</parameter><parameter name="BMS">KBr</parameter><parameter name="DTC">RT-DLaTGS_IR-Biotyper [Microplate reader]</parameter><parameter name="HPF">0</parameter><parameter name="LPF">10.0</parameter><parameter name="LPV">4000</parameter><parameter name="PGR">0</parameter><parameter name="RCH">Module port</parameter><parameter name="RDX">0</parameter><parameter name="SRC">MIR</parameter><parameter name="VEL">10.0</parameter><parameter name="SON">Off</parameter></Optic_Parameters_Rf><Acquisition_Parameters_Rf><parameter name="ADT">1</parameter><parameter name="AQM">DD</parameter><parameter name="CFE">0</parameter><parameter name="COR">0</parameter><parameter name="DEL">0</parameter><parameter name="DLY">0</parameter><parameter name="HFW">8000</parameter><parameter name="LFW">0</parameter><parameter name="NSR">32</parameter><parameter name="PLF">AB</parameter><parameter name="RES">6</parameter><parameter name="RGN">-1</parameter><parameter name="STR">0</parameter><parameter name="TCL">MakeCompatibleScalar (0, {WSV=1.000000, ARV=0});</parameter><parameter name="TDL">37</parameter><parameter name="RPO">0</parameter></Acquisition_Parameters_Rf><FT_-_Parameters_Rf><parameter name="APF">B3</parameter><parameter name="HFQ">500</parameter><parameter name="LFQ">4000</parameter><parameter name="NLI">0</parameter><parameter name="PHR">24</parameter><parameter name="PHZ">ML</parameter><parameter name="SPZ">NO</parameter><parameter name="ZFF">1</parameter></FT_-_Parameters_Rf><Optic_Parameters_><parameter name="APR">0</parameter><parameter name="APT">Open</parameter><parameter name="BMS">KBr</parameter><parameter name="CHN">Module port</parameter><parameter name="DTC">RT-DLaTGS_IR-Biotyper [Microplate reader]</parameter><parameter name="HPF">0</parameter><parameter name="LPF">10.0</parameter><parameter name="LPV">4000</parameter><parameter name="PGN">0</parameter><parameter name="RDX">0</parameter><parameter name="SRC">MIR</parameter><parameter name="VEL">10.0</parameter><parameter name="SON">Off</parameter></Optic_Parameters_><FT_-_Parameters_><parameter name="APF">B3</parameter><parameter name="HFQ">500</parameter><parameter name="LFQ">4000</parameter><parameter name="NLI">0</parameter><parameter name="PHR">24</parameter><parameter name="PHZ">ML</parameter><parameter name="SPZ">NO</parameter><parameter name="ZFF">1</parameter></FT_-_Parameters_><Acquisition_Parameters_><parameter name="ADT">1</parameter><parameter name="AQM">DD</parameter><parameter name="CFE">0</parameter><parameter name="COR">0</parameter><parameter name="DEL">0</parameter><parameter name="DLY">0</parameter><parameter name="HFW">8000</parameter><parameter name="LFW">0</parameter><parameter name="NSS">32</parameter><parameter name="PLF">AB</parameter><parameter name="RES">6</parameter><parameter name="SOT">0</parameter><parameter name="TCL">MakeCompatibleScalar (0, {WSV=1.000000, ARV=0});</parameter><parameter name="TDL">37</parameter><parameter name="SPO">0</parameter><parameter name="SGN">-1</parameter></Acquisition_Parameters_><Instrument_Parameters_Rf><parameter name="HFL">15801.365274</parameter><parameter name="LFL">0</parameter><parameter name="LWN">15801.365274</parameter><parameter name="ABP">32157</parameter><parameter name="SSP">1</parameter><parameter name="ARG">2</parameter><parameter name="ASG">2</parameter><parameter name="ASS">32</parameter><parameter name="GFW">16</parameter><parameter name="GBW">16</parameter><parameter name="BFW">0</parameter><parameter name="BBW">0</parameter><parameter name="PKA">9307</parameter><parameter name="PKL">4987</parameter><parameter name="PRA">9271</parameter><parameter name="PRL">5010</parameter><parameter name="P2A">1</parameter><parameter name="P2L">1</parameter><parameter name="P2R">1</parameter><parameter name="P2K">1</parameter><parameter name="DAQ">0</parameter><parameter name="AG2">1</parameter><parameter name="SSM">1</parameter><parameter name="RSN">46526</parameter><parameter name="CRR">0</parameter><parameter name="SRT">1705575921.403</parameter><parameter name="DUR">19.6449890136719</parameter><parameter name="TSC">32</parameter><parameter name="MVD">0.763450801372528</parameter><parameter name="AN1">0.226028786020776</parameter><parameter name="AN2">0</parameter><parameter name="VSN">2.485 Apr  4 2017</parameter><parameter name="SRN">0085</parameter><parameter name="CAM">0</parameter><parameter name="INS">IR-Biotyper</parameter><parameter name="FOC">69</parameter><parameter name="RDY">1</parameter><parameter name="ARS">32</parameter></Instrument_Parameters_Rf><Sample_Parameters_><parameter name="BLD"></parameter><parameter name="CNM">Admin</parameter><parameter name="CPY"></parameter><parameter name="DPM"></parameter><parameter name="EXP">IRBT_v3_32Scans.XPM</parameter><parameter name="LCT"></parameter><parameter name="SFM">Microplate, HTS-XT</parameter><parameter name="SNM">240118-1045-Cdiff_SCFA_2_C22_232120609_D2_51620055-72b9-4a90-9e91-148854de05b4.0</parameter><parameter name="XPP">C:\Users\Public\Documents\Bruker\OPUS_8.2.28\XPM</parameter><parameter name="IST">OK</parameter><parameter name="CPG">1252</parameter><parameter name="UID">7fee1d1b-dd75-43e9-9fc5-0b7f3b9a710c</parameter></Sample_Parameters_><Instrument_Parameters_><parameter name="HFL">15801.365274</parameter><parameter name="LFL">0</parameter><parameter name="LWN">15801.365274</parameter><parameter name="ABP">32157</parameter><parameter name="SSP">1</parameter><parameter name="ASG">2</parameter><parameter name="ARG">2</parameter><parameter name="ASS">32</parameter><parameter name="GFW">16</parameter><parameter name="GBW">16</parameter><parameter name="BFW">0</parameter><parameter name="BBW">0</parameter><parameter name="PKA">10346</parameter><parameter name="PKL">4980</parameter><parameter name="PRA">10309</parameter><parameter name="PRL">5002</parameter><parameter name="P2A">1</parameter><parameter name="P2L">1</parameter><parameter name="P2R">1</parameter><parameter name="P2K">1</parameter><parameter name="DAQ">0</parameter><parameter name="AG2">1</parameter><parameter name="SSM">1</parameter><parameter name="RSN">23956</parameter><parameter name="CRR">0</parameter><parameter name="SRT">1705575947.265</parameter><parameter name="DUR">19.64599609375</parameter><parameter name="TSC">32</parameter><parameter name="MVD">0.273406714200974</parameter><parameter name="AN1">0.226018611364957</parameter><parameter name="AN2">0</parameter><parameter name="VSN">2.485 Apr  4 2017</parameter><parameter name="SRN">0085</parameter><parameter name="CAM">0</parameter><parameter name="INS">IR-Biotyper</parameter><parameter name="FOC">69</parameter><parameter name="RDY">1</parameter></Instrument_Parameters_><History/></OPUSDataFile>
