<?xml version="1.0" encoding="UTF-8" ?>
<OPUSDataFile><AB><Ydata ylabel="Absorbance Units"><values byteorder="INTEL" format="FLOAT32" numvalues="3497"> -0.09354105 -0.09352465 -0.09350754 -0.09348997 -0.09347268 -0.09345589 -0.09344059 -0.09342636 -0.09341286 -0.09340006
 -0.09338746 -0.09337629 -0.09336728 -0.09336115 -0.09335882 -0.09335902 -0.09336173 -0.09336482 -0.0933676 -0.09337017
 -0.09337223 -0.09337629 -0.09338251 -0.09339288 -0.09340744 -0.0934241 -0.09344245 -0.09345744 -0.09346904 -0.0934739
 -0.09347323 -0.0934689 -0.09346267 -0.09345953 -0.0934595 -0.09346562 -0.09347484 -0.09348571 -0.09349383 -0.09349525
 -0.09348859 -0.09347108 -0.0934469 -0.09341598 -0.09338588 -0.09335826 -0.09333831 -0.09332749 -0.09332435 -0.0933291
 -0.09333635 -0.09334581 -0.09335139 -0.09335285 -0.09334551 -0.09332976 -0.09330472 -0.09327223 -0.09323747 -0.09320311
 -0.09317809 -0.0931624 -0.09316121 -0.09316986 -0.09318586 -0.09320366 -0.09321756 -0.09322718 -0.09322996 -0.09323032
 -0.09322927 -0.09323025 -0.09323464 -0.09324199 -0.09325263 -0.0932641 -0.09327624 -0.09328705 -0.09329643 -0.09330246
 -0.09330504 -0.09330203 -0.09329374 -0.0932802 -0.09326264 -0.09324513 -0.093229 -0.09321976 -0.09321655 -0.09322145
 -0.09323022 -0.09323914 -0.09324461 -0.0932413 -0.09323225 -0.09321656 -0.09320162 -0.09319045 -0.09318534 -0.09318858
 -0.09319356 -0.09319986 -0.0932001 -0.09319327 -0.09317958 -0.09315903 -0.0931382 -0.09311747 -0.0931032 -0.09309494
 -0.09309351 -0.09309783 -0.0931047 -0.0931131 -0.09311862 -0.09312204 -0.09312197 -0.09312127 -0.09312291 -0.09312803
 -0.0931399 -0.09315376 -0.09316894 -0.09317774 -0.09317625 -0.09316403 -0.09313874 -0.09311 -0.09307883 -0.09305369
 -0.09303579 -0.09302567 -0.09302342 -0.09302788 -0.09303907 -0.0930578 -0.09308301 -0.09311017 -0.09313586 -0.0931448
 -0.09313577 -0.09309462 -0.09303078 -0.09295143 -0.09287012 -0.09280768 -0.09276454 -0.09274983 -0.09275408 -0.09277483
 -0.09280368 -0.09283714 -0.09286954 -0.09289955 -0.09292001 -0.09292957 -0.09292369 -0.09290113 -0.09286854 -0.0928262
 -0.09278605 -0.09274817 -0.09271585 -0.09268836 -0.09266209 -0.09263814 -0.09261853 -0.09260526 -0.09260537 -0.09261725
 -0.09264281 -0.09267587 -0.09271014 -0.09274052 -0.09276038 -0.09276886 -0.0927634 -0.09274569 -0.09271523 -0.0926761
 -0.09262825 -0.09258024 -0.09253307 -0.0924961 -0.09247067 -0.09245933 -0.09246238 -0.09247428 -0.09249453 -0.09251449
 -0.09253376 -0.09254546 -0.09254961 -0.09254225 -0.09252448 -0.09249634 -0.0924606 -0.09242182 -0.09238236 -0.09234728
 -0.09231634 -0.09229148 -0.0922704 -0.09225209 -0.09223548 -0.09221951 -0.09220561 -0.09219381 -0.09218627 -0.09218358
 -0.09218556 -0.09219258 -0.0922001 -0.09220789 -0.09220999 -0.09220629 -0.09219447 -0.09217526 -0.0921525 -0.09212695
 -0.09210394 -0.09208295 -0.09206563 -0.09205042 -0.09203514 -0.09201914 -0.09200013 -0.09197997 -0.09195921 -0.09194038
 -0.09192578 -0.09191445 -0.09190731 -0.09189967 -0.09188989 -0.09187773 -0.09186174 -0.09185124 -0.09184705 -0.09185706
 -0.09188206 -0.09191331 -0.09194972 -0.09197006 -0.09197476 -0.09195515 -0.09191538 -0.09186804 -0.09181519 -0.09176972
 -0.09172864 -0.09169165 -0.09165788 -0.09162471 -0.0915962 -0.09157575 -0.0915639 -0.09156413 -0.09156801 -0.09157398
 -0.09157116 -0.09155503 -0.09152557 -0.09148081 -0.09143154 -0.09137864 -0.09133143 -0.09129069 -0.09125762 -0.09123211
 -0.09121157 -0.09119606 -0.09118477 -0.09117776 -0.09117526 -0.09117647 -0.09117976 -0.09118365 -0.09118476 -0.09118203
 -0.09117285 -0.09115657 -0.09113141 -0.09109831 -0.09105616 -0.0910102 -0.09096169 -0.09091718 -0.0908795 -0.09084873
 -0.09082624 -0.09080464 -0.09078339 -0.09075511 -0.09071914 -0.09067546 -0.09062441 -0.09057413 -0.09052531 -0.09048744
 -0.09045975 -0.09044534 -0.09044062 -0.09043817 -0.0904332 -0.09041223 -0.09037529 -0.09031468 -0.09023864 -0.09015097
 -0.09006141 -0.08997767 -0.08990339 -0.08984309 -0.08979274 -0.08975307 -0.08971506 -0.08967722 -0.08963224 -0.08957858
 -0.08951712 -0.08944771 -0.08937542 -0.08930035 -0.08922283 -0.08914238 -0.08905516 -0.08896148 -0.08886042 -0.08875336
 -0.08864345 -0.08853226 -0.08842411 -0.08832031 -0.08822471 -0.08813702 -0.08805918 -0.0879878 -0.0879218 -0.08785676
 -0.08779076 -0.0877201 -0.08764381 -0.08755723 -0.08745939 -0.08734637 -0.08721667 -0.08707733 -0.08692843 -0.08678617
 -0.08665107 -0.08652981 -0.08642082 -0.08631403 -0.08620783 -0.08608855 -0.08595832 -0.08581505 -0.08566401 -0.08551537
 -0.08537062 -0.08523848 -0.08511152 -0.08498687 -0.08485506 -0.08470646 -0.08454482 -0.08436627 -0.08418857 -0.08401713
 -0.08386044 -0.08372331 -0.0835949 -0.083475 -0.08334865 -0.08321442 -0.08306956 -0.0829142 -0.08275695 -0.08259808
 -0.08244412 -0.08229366 -0.08214411 -0.08199324 -0.0818327 -0.08166241 -0.08147699 -0.08128079 -0.08107668 -0.08087095
 -0.08067127 -0.08047971 -0.08030131 -0.08013126 -0.07996968 -0.07980796 -0.07964329 -0.07947072 -0.0792877 -0.07909891
 -0.07890413 -0.07871293 -0.07852625 -0.07834593 -0.07817181 -0.07799479 -0.07781458 -0.07762381 -0.07742439 -0.07722145
 -0.07701702 -0.07682078 -0.07663127 -0.07645063 -0.07627556 -0.07610197 -0.07592844 -0.07575198 -0.0755724 -0.07538877
 -0.07520107 -0.07500879 -0.07481316 -0.07461429 -0.07441393 -0.07421272 -0.07400999 -0.07380591 -0.07359796 -0.07338583
 -0.07317068 -0.07295264 -0.07273768 -0.0725259 -0.07232113 -0.07212231 -0.07192644 -0.07173205 -0.07153247 -0.07132839
 -0.0711173 -0.07090247 -0.07068781 -0.07047514 -0.07026903 -0.070066 -0.06986565 -0.06966279 -0.06945381 -0.06923964
 -0.06901857 -0.06879838 -0.0685806 -0.06837009 -0.06816846 -0.06797148 -0.0677791 -0.06758447 -0.06738731 -0.06718622
 -0.06698158 -0.06677728 -0.06657302 -0.06636959 -0.06616545 -0.06595578 -0.06574038 -0.06551529 -0.06528408 -0.06504959
 -0.06481722 -0.06459421 -0.06438205 -0.06418558 -0.06399922 -0.06382251 -0.06364667 -0.06346831 -0.06328367 -0.06309038
 -0.06289264 -0.06269041 -0.06249018 -0.06229272 -0.06209864 -0.06190791 -0.06171518 -0.06152029 -0.06131933 -0.0611131
 -0.06090351 -0.06069193 -0.06048393 -0.06028017 -0.06008507 -0.05989798 -0.05972013 -0.05954971 -0.05938561 -0.05922536
 -0.05906717 -0.05890832 -0.05874703 -0.05858157 -0.05841056 -0.05823517 -0.0580551 -0.05787379 -0.05769185 -0.05751067
 -0.05733063 -0.05714905 -0.05696579 -0.05677941 -0.05659036 -0.05640336 -0.05621898 -0.05604343 -0.05587554 -0.05571522
 -0.05555984 -0.05540309 -0.05524426 -0.05507853 -0.05490877 -0.05473572 -0.05456349 -0.05439575 -0.05423375 -0.05408008
 -0.05393096 -0.05378631 -0.05363987 -0.05348985 -0.05333389 -0.05317065 -0.05300533 -0.05283794 -0.05267813 -0.05252639
 -0.05238855 -0.05226409 -0.05214889 -0.05204148 -0.05193125 -0.05181773 -0.05169303 -0.05155926 -0.05141705 -0.05126919
 -0.05112099 -0.05097249 -0.05082639 -0.05068001 -0.05053205 -0.05038087 -0.05022445 -0.05006511 -0.04990258 -0.04974186
 -0.04958398 -0.04943302 -0.04928996 -0.04915567 -0.04903045 -0.04891257 -0.04880194 -0.04869593 -0.04859431 -0.04849373
 -0.0483938 -0.04829055 -0.04818384 -0.04807061 -0.04795174 -0.04782749 -0.04769936 -0.04756981 -0.04744008 -0.04731231
 -0.04718772 -0.04706772 -0.0469537 -0.04684735 -0.04674725 -0.04665476 -0.04656173 -0.0464672 -0.04636071 -0.04623966
 -0.04610358 -0.04595118 -0.04579791 -0.04564456 -0.04550905 -0.04539114 -0.04529202 -0.04520915 -0.04512691 -0.04504478
 -0.04495094 -0.04485023 -0.04474825 -0.04464969 -0.04456675 -0.04449647 -0.0444417 -0.04439406 -0.04434737 -0.04429713
 -0.04423799 -0.04417296 -0.04410187 -0.04402837 -0.04395399 -0.04387754 -0.0437995 -0.043715 -0.04362362 -0.0435214
 -0.04340808 -0.04328452 -0.0431513 -0.04301647 -0.04288153 -0.04276014 -0.04265296 -0.04257082 -0.04251077 -0.04247241
 -0.04244937 -0.0424308 -0.04241197 -0.04238221 -0.04234206 -0.04228804 -0.0422232 -0.04214863 -0.04206552 -0.04197435
 -0.04187647 -0.0417713 -0.04166522 -0.04155867 -0.04146035 -0.04137144 -0.04129462 -0.0412302 -0.0411716 -0.04111827
 -0.04106057 -0.04099849 -0.04092699 -0.04084717 -0.04076045 -0.04066787 -0.04057296 -0.04047568 -0.04037761 -0.0402782
 -0.04017706 -0.04007481 -0.03997153 -0.03986875 -0.03976766 -0.03966806 -0.03957057 -0.03947283 -0.03937449 -0.03927308
 -0.03916804 -0.03905869 -0.03894483 -0.03882688 -0.03870485 -0.03857937 -0.03845046 -0.03831876 -0.038184 -0.03804501
 -0.03790079 -0.03774665 -0.03758208 -0.03740202 -0.03721002 -0.03700794 -0.03680484 -0.03661174 -0.03643758 -0.03629552
 -0.03618393 -0.03610869 -0.03605458 -0.03601849 -0.03598196 -0.03593851 -0.03588161 -0.03580745 -0.03572585 -0.03563669
 -0.03555751 -0.03548943 -0.03544443 -0.03542252 -0.03542351 -0.03544619 -0.03548203 -0.03553033 -0.03558355 -0.03564222
 -0.03570398 -0.03576951 -0.03583913 -0.0359128 -0.03599064 -0.03607252 -0.03615835 -0.0362481 -0.03634136 -0.03643933
 -0.03654118 -0.03665306 -0.03677546 -0.03691831 -0.03708386 -0.03727635 -0.03749749 -0.03773789 -0.03799726 -0.03825892
 -0.0385222 -0.03877505 -0.03901783 -0.03924716 -0.03946417 -0.0396713 -0.03987028 -0.04006695 -0.04026248 -0.04046279
 -0.04066544 -0.04087077 -0.04107319 -0.04126738 -0.04145115 -0.04162006 -0.04177939 -0.04192948 -0.04207822 -0.04222821
 -0.04238294 -0.0425442 -0.04270855 -0.04287627 -0.04303887 -0.04319582 -0.04333885 -0.04346792 -0.04358415 -0.04368919
 -0.04379664 -0.0439078 -0.04403685 -0.04418084 -0.04434014 -0.04450852 -0.04467415 -0.04483353 -0.04497574 -0.04510398
 -0.04521661 -0.04531965 -0.04541669 -0.04551092 -0.04560513 -0.04569831 -0.04579072 -0.04588094 -0.04596835 -0.04605466
 -0.04613972 -0.04622787 -0.04631944 -0.04641669 -0.04651955 -0.04662548 -0.04673409 -0.0468411 -0.04694669 -0.04704926
 -0.04714967 -0.04724986 -0.0473497 -0.04745036 -0.04755012 -0.04764709 -0.04774022 -0.04782699 -0.0479098 -0.04798872
 -0.04806843 -0.04815149 -0.04823901 -0.04833275 -0.04842799 -0.04852422 -0.0486168 -0.04870467 -0.0487895 -0.0488712
 -0.04895607 -0.0490444 -0.04914106 -0.04924586 -0.04935942 -0.04948103 -0.04960794 -0.0497393 -0.04987142 -0.05000345
 -0.05013189 -0.05025661 -0.050376 -0.05049029 -0.05059914 -0.0507029 -0.05080161 -0.0508959 -0.05098565 -0.05107303
 -0.05115838 -0.05124477 -0.0513332 -0.05142364 -0.05151682 -0.05160629 -0.05169173 -0.05176487 -0.05182554 -0.05187439
 -0.05191284 -0.05195386 -0.05199888 -0.05206254 -0.05214303 -0.05224378 -0.05235964 -0.05248223 -0.05260672 -0.05272249
 -0.05282811 -0.05291742 -0.05299383 -0.05305657 -0.05311311 -0.0531662 -0.05322288 -0.05328673 -0.05335775 -0.05343765
 -0.05351825 -0.05359891 -0.05367137 -0.05373475 -0.05378744 -0.05382947 -0.05386445 -0.05389245 -0.05391553 -0.05393307
 -0.05394287 -0.05394502 -0.05393748 -0.05392343 -0.05390735 -0.05389461 -0.05389559 -0.05391131 -0.05394927 -0.05400025
 -0.05406221 -0.0541206 -0.05416702 -0.05419664 -0.05420367 -0.05419932 -0.05418409 -0.05417301 -0.05416907 -0.05417401
 -0.05418875 -0.05420126 -0.05421097 -0.05420747 -0.0541914 -0.05416497 -0.05412966 -0.05409471 -0.0540596 -0.0540281
 -0.05399769 -0.05396431 -0.05392745 -0.05388343 -0.05383596 -0.05378708 -0.05374116 -0.05370265 -0.05367136 -0.05364885
 -0.05363207 -0.05361959 -0.05361266 -0.05361024 -0.05362036 -0.05364392 -0.05368779 -0.05375315 -0.05383445 -0.05393124
 -0.05402552 -0.05411639 -0.05418709 -0.05423938 -0.05427244 -0.05429077 -0.05430857 -0.05432854 -0.05436466 -0.05441412
 -0.05447957 -0.05455534 -0.05463601 -0.05471897 -0.05479997 -0.05488052 -0.0549604 -0.05504078 -0.05512231 -0.05520421
 -0.0552863 -0.0553686 -0.05545108 -0.05553403 -0.05561765 -0.05569868 -0.05577695 -0.0558485 -0.05591376 -0.05597586
 -0.05603626 -0.05610498 -0.05618178 -0.05627236 -0.05637279 -0.05647763 -0.05658248 -0.05667728 -0.05676229 -0.05683288
 -0.05689415 -0.05694835 -0.05699974 -0.05705169 -0.05710402 -0.05715742 -0.05721088 -0.05726364 -0.05731881 -0.05737669
 -0.05744072 -0.05751164 -0.05758527 -0.05766135 -0.05772693 -0.05778151 -0.05781458 -0.05782771 -0.05782319 -0.05780466
 -0.05778551 -0.05776822 -0.0577658 -0.05777659 -0.05780497 -0.05784485 -0.05789219 -0.05793926 -0.05797921 -0.05800664
 -0.05801668 -0.05800819 -0.05797952 -0.057932 -0.05786585 -0.05778138 -0.0576788 -0.05755687 -0.05741543 -0.05725434
 -0.0570736 -0.0568761 -0.05666202 -0.05643494 -0.05619444 -0.05594049 -0.05567173 -0.05538339 -0.05507447 -0.05473977
 -0.05438026 -0.05399455 -0.05358569 -0.05315632 -0.05270947 -0.05224836 -0.05177436 -0.0512891 -0.05079272 -0.05028542
 -0.04976791 -0.04924021 -0.04870386 -0.04815891 -0.04760781 -0.04705061 -0.04649131 -0.04593012 -0.0453771 -0.04483344
 -0.04431678 -0.04382888 -0.04338942 -0.04299883 -0.04266973 -0.0423999 -0.04219122 -0.04203932 -0.04193923 -0.04188402
 -0.04186586 -0.04187417 -0.04190055 -0.0419305 -0.04195606 -0.04196116 -0.04193923 -0.0418764 -0.0417681 -0.04160633
 -0.0413886 -0.04111522 -0.04078557 -0.04040633 -0.03997783 -0.03951029 -0.03900478 -0.03847675 -0.03792878 -0.03738342
 -0.03684451 -0.03633776 -0.03586594 -0.03544829 -0.03508621 -0.03478894 -0.03456108 -0.03440835 -0.03434344 -0.03437548
 -0.03452239 -0.03479689 -0.03520794 -0.03576585 -0.03645577 -0.03728105 -0.03820054 -0.03921131 -0.0402593 -0.0413398
 -0.04240315 -0.04344621 -0.04443347 -0.04536406 -0.04621916 -0.04699999 -0.04770354 -0.04833338 -0.04890006 -0.04940867
 -0.04987637 -0.05030783 -0.05071863 -0.05111103 -0.05149395 -0.05186712 -0.05223364 -0.05259101 -0.0529391 -0.05327419
 -0.05359506 -0.05389821 -0.05418219 -0.0544467 -0.05469107 -0.05491864 -0.05512958 -0.05532773 -0.05551334 -0.05568777
 -0.05585085 -0.05600068 -0.05613635 -0.05625176 -0.0563451 -0.05640593 -0.05643358 -0.05641884 -0.05636751 -0.05628208
 -0.05617734 -0.05607024 -0.05597719 -0.05591832 -0.05590015 -0.0559347 -0.05601267 -0.05613621 -0.05628341 -0.05645165
 -0.05661101 -0.05675746 -0.05686009 -0.05691506 -0.05690296 -0.05682203 -0.05667702 -0.05646994 -0.05623415 -0.05597629
 -0.05575497 -0.05558039 -0.05552357 -0.05559118 -0.05584104 -0.05626275 -0.05687261 -0.05763584 -0.05852334 -0.05948606
 -0.06047553 -0.0614505 -0.06237233 -0.06322462 -0.06398939 -0.06467387 -0.06527499 -0.06581015 -0.06628144 -0.066705
 -0.06708271 -0.06742614 -0.06773612 -0.06802051 -0.06827966 -0.06851944 -0.06874026 -0.06894802 -0.06914342 -0.06933251
 -0.06951584 -0.06969818 -0.06987911 -0.07006028 -0.0702405 -0.07041913 -0.07059482 -0.07076644 -0.07093228 -0.07109118
 -0.07124138 -0.07138149 -0.0715121 -0.07163254 -0.0717463 -0.07185388 -0.07195805 -0.07205945 -0.07215675 -0.07224995
 -0.07233623 -0.0724156 -0.07248825 -0.07255464 -0.07261837 -0.0726799 -0.07274335 -0.07280842 -0.07287677 -0.07294697
 -0.07301724 -0.07308615 -0.07315066 -0.07321136 -0.07326701 -0.07332088 -0.07337438 -0.07343072 -0.07349221 -0.07355812
 -0.07362946 -0.07370123 -0.07377289 -0.07383903 -0.07389875 -0.07395072 -0.07399465 -0.07403411 -0.07406934 -0.07410529
 -0.07414188 -0.07418098 -0.07422184 -0.07426233 -0.07430202 -0.07433826 -0.07437186 -0.0744028 -0.07443275 -0.07446397
 -0.07449738 -0.07453514 -0.07457586 -0.07461984 -0.07466371 -0.07470614 -0.07474446 -0.07477717 -0.0748051 -0.07482772
 -0.0748492 -0.07486995 -0.07489383 -0.07492124 -0.07495268 -0.07498809 -0.07502476 -0.07506241 -0.07509733 -0.07512955
 -0.07515701 -0.07518037 -0.07520037 -0.0752179 -0.07523511 -0.07525235 -0.07527109 -0.07529091 -0.07531188 -0.07533362
 -0.07535576 -0.07537846 -0.07540156 -0.07542584 -0.07545153 -0.0754791 -0.07550881 -0.07553994 -0.07557257 -0.07560452
 -0.07563561 -0.07566441 -0.07569095 -0.07571726 -0.07574368 -0.07577409 -0.07580815 -0.07584666 -0.07588825 -0.07592914
 -0.07596859 -0.07600277 -0.07603299 -0.07605916 -0.07608365 -0.0761091 -0.07613573 -0.07616508 -0.07619478 -0.07622433
 -0.07625114 -0.07627404 -0.0762929 -0.07630721 -0.07631912 -0.07632875 -0.07633851 -0.07634863 -0.07636078 -0.07637501
 -0.07639138 -0.07640968 -0.076428 -0.07644606 -0.07646132 -0.0764742 -0.07648437 -0.07649318 -0.07650341 -0.07651554
 -0.07653196 -0.07655106 -0.07657234 -0.07659363 -0.07661295 -0.07663026 -0.0766448 -0.076658 -0.07667017 -0.07668235
 -0.07669499 -0.07670765 -0.07672037 -0.0767326 -0.07674431 -0.07675482 -0.0767641 -0.07677164 -0.0767775 -0.07678202
 -0.07678537 -0.07678875 -0.07679193 -0.07679488 -0.07679744 -0.07679895 -0.07680025 -0.07680203 -0.07680557 -0.07681286
 -0.0768231 -0.07683705 -0.07685134 -0.07686448 -0.07687451 -0.07687968 -0.07688294 -0.07688433 -0.07688837 -0.07689597
 -0.07690761 -0.07692359 -0.07693965 -0.07695559 -0.07696746 -0.07697547 -0.0769801 -0.07698192 -0.07698426 -0.07698716
 -0.07699271 -0.07700004 -0.07700822 -0.0770167 -0.07702385 -0.0770307 -0.07703741 -0.0770458 -0.07705766 -0.07707257
 -0.07709139 -0.07711087 -0.07713012 -0.07714686 -0.07716 -0.077171 -0.07717973 -0.0771892 -0.0771997 -0.07721192
 -0.07722584 -0.07724017 -0.07725487 -0.077269 -0.07728278 -0.07729676 -0.07731127 -0.0773278 -0.07734632 -0.07736762
 -0.07739103 -0.07741595 -0.07744145 -0.07746611 -0.07748999 -0.07751253 -0.07753456 -0.07755662 -0.07757834 -0.07760002
 -0.07761979 -0.07763717 -0.07765157 -0.07766254 -0.07767247 -0.07768147 -0.07769263 -0.07770608 -0.07772261 -0.07774206
 -0.07776264 -0.07778415 -0.07780457 -0.07782403 -0.07784189 -0.07785843 -0.07787399 -0.0778887 -0.07790294 -0.07791658
 -0.07792949 -0.07794201 -0.07795424 -0.07796681 -0.07798025 -0.07799418 -0.07800899 -0.07802238 -0.07803393 -0.07804145
 -0.0780443 -0.07804317 -0.07803788 -0.07803253 -0.07802736 -0.07802662 -0.07803025 -0.07803909 -0.07805245 -0.07806695
 -0.078082 -0.07809351 -0.0781022 -0.07810732 -0.07811079 -0.07811557 -0.07812244 -0.0781341 -0.07814845 -0.07816517
 -0.07818101 -0.07819392 -0.07820302 -0.07820711 -0.07820822 -0.07820655 -0.07820422 -0.07820164 -0.07819965 -0.0781984
 -0.07819774 -0.07819767 -0.07819732 -0.07819655 -0.0781936 -0.07818863 -0.07818116 -0.07817218 -0.07816469 -0.07815985
 -0.07816228 -0.07817147 -0.07818928 -0.07821336 -0.07824199 -0.07827269 -0.07830297 -0.07833148 -0.07835673 -0.0783786
 -0.07839647 -0.07841168 -0.07842419 -0.07843668 -0.07844961 -0.07846475 -0.07848245 -0.07850116 -0.07852082 -0.07853916
 -0.07855626 -0.07857269 -0.07858884 -0.07860758 -0.0786288 -0.0786538 -0.07868176 -0.07871154 -0.07874226 -0.07877204
 -0.07880016 -0.07882522 -0.07884641 -0.07886248 -0.07887365 -0.07887925 -0.07888141 -0.07888044 -0.07887933 -0.07887883
 -0.07888118 -0.07888693 -0.07889685 -0.07891116 -0.07892925 -0.07895109 -0.07897425 -0.07899847 -0.07901997 -0.07903873
 -0.07905238 -0.07906168 -0.07906802 -0.07907241 -0.07907824 -0.0790854 -0.07909565 -0.07910725 -0.07911901 -0.0791292
 -0.07913568 -0.07913867 -0.07913733 -0.07913356 -0.07912768 -0.0791221 -0.07911748 -0.07911522 -0.07911571 -0.07911913
 -0.0791256 -0.07913439 -0.07914548 -0.0791581 -0.0791722 -0.07918724 -0.07920308 -0.07921869 -0.07923375 -0.07924651
 -0.07925676 -0.0792629 -0.07926527 -0.07926355 -0.07925855 -0.07925078 -0.0792418 -0.07923285 -0.07922584 -0.07922236
 -0.07922288 -0.07922848 -0.07923679 -0.07924771 -0.07925756 -0.0792655 -0.07927044 -0.079272 -0.07927205 -0.07927065
 -0.07926972 -0.07926927 -0.07926916 -0.07926922 -0.07926825 -0.07926624 -0.07926239 -0.07925706 -0.07925068 -0.07924374
 -0.07923736 -0.07923181 -0.0792281 -0.07922569 -0.0792245 -0.07922401 -0.07922367 -0.07922406 -0.07922513 -0.07922808
 -0.07923349 -0.07924074 -0.07925013 -0.07925868 -0.07926615 -0.0792697 -0.0792691 -0.07926451 -0.07925608 -0.07924658
 -0.07923625 -0.07922815 -0.07922211 -0.07921917 -0.07921869 -0.07921947 -0.0792212 -0.07922243 -0.07922414 -0.07922678
 -0.07923195 -0.07924144 -0.0792556 -0.07927566 -0.07929965 -0.07932698 -0.07935636 -0.07938672 -0.07942059 -0.07945784
 -0.07950372 -0.07955902 -0.07962475 -0.07970122 -0.07977994 -0.07986022 -0.07992899 -0.07998606 -0.08002339 -0.08004235
 -0.08004411 -0.08003063 -0.08000785 -0.07997664 -0.079942 -0.07990215 -0.07985743 -0.07980418 -0.07973818 -0.07966062
 -0.0795681 -0.07947318 -0.07937905 -0.07930004 -0.07924189 -0.07920761 -0.07919991 -0.07921039 -0.07923903 -0.07927232
 -0.07930943 -0.07933795 -0.07935757 -0.07936364 -0.07935692 -0.07934102 -0.0793167 -0.07928919 -0.0792583 -0.07922632
 -0.07919235 -0.07915574 -0.07911579 -0.07907077 -0.07902194 -0.07896905 -0.07891579 -0.07886429 -0.07881734 -0.07877731
 -0.07874272 -0.0787142 -0.07868709 -0.07866064 -0.07863124 -0.07859816 -0.07856134 -0.07852065 -0.07847878 -0.07843589
 -0.07839449 -0.07835457 -0.07831725 -0.07828236 -0.0782498 -0.07821944 -0.07819091 -0.07816406 -0.0781384 -0.0781138
 -0.07808986 -0.07806662 -0.07804392 -0.07802209 -0.07800153 -0.07798178 -0.07796311 -0.07794371 -0.0779232 -0.07789966
 -0.07787237 -0.0778418 -0.07780764 -0.07777326 -0.07773884 -0.07770789 -0.07768051 -0.07765736 -0.07763815 -0.07762077
 -0.07760487 -0.07758768 -0.07756928 -0.07754833 -0.0775256 -0.0775018 -0.07747813 -0.07745671 -0.07743768 -0.07742248
 -0.07740896 -0.07739651 -0.07738215 -0.07736408 -0.07734166 -0.07731372 -0.07728349 -0.0772513 -0.0772206 -0.07719205
 -0.07716625 -0.07714337 -0.07712154 -0.07710069 -0.07707964 -0.07705848 -0.07703759 -0.077017 -0.07699725 -0.07697793
 -0.07695821 -0.07693749 -0.07691402 -0.07688791 -0.07685838 -0.07682633 -0.0767923 -0.07675737 -0.07672245 -0.07668813
 -0.07665475 -0.07662323 -0.07659385 -0.07656747 -0.07654455 -0.07652419 -0.07650661 -0.07648841 -0.07646938 -0.07644667
 -0.07642022 -0.07639048 -0.07635774 -0.07632498 -0.07629225 -0.07626171 -0.07623263 -0.07620412 -0.07617532 -0.07614373
 -0.07610966 -0.07607215 -0.07603262 -0.07599205 -0.07595178 -0.07591325 -0.07587635 -0.0758414 -0.07580796 -0.07577583
 -0.07574535 -0.07571656 -0.07568961 -0.07566465 -0.07564052 -0.07561722 -0.07559251 -0.07556628 -0.07553735 -0.07550582
 -0.07547195 -0.07543609 -0.07539988 -0.07536373 -0.07533005 -0.07529874 -0.07527106 -0.07524595 -0.07522272 -0.0751994
 -0.07517367 -0.07514451 -0.0751099 -0.07507154 -0.07502911 -0.07498667 -0.07494536 -0.0749085 -0.07487732 -0.0748519
 -0.07483274 -0.07481658 -0.07480324 -0.07478875 -0.07477288 -0.07475214 -0.07472659 -0.07469529 -0.07465888 -0.07462003
 -0.07457956 -0.07454181 -0.07450645 -0.07447532 -0.0744468 -0.07441917 -0.07439156 -0.07436192 -0.07433143 -0.07430034
 -0.07426958 -0.07424005 -0.07421073 -0.07418158 -0.0741512 -0.07411909 -0.07408568 -0.07405087 -0.07401588 -0.07398085
 -0.07394551 -0.07390985 -0.07387223 -0.07383273 -0.07379136 -0.07374864 -0.07370731 -0.07366782 -0.07363327 -0.07360318
 -0.07357837 -0.07355729 -0.07353817 -0.07351928 -0.07349814 -0.0734738 -0.07344465 -0.07341091 -0.07337201 -0.07332948
 -0.07328342 -0.07323639 -0.07318895 -0.07314298 -0.07309892 -0.07305715 -0.07301776 -0.07298064 -0.0729458 -0.07291339
 -0.07288335 -0.0728549 -0.07282772 -0.07279954 -0.07277036 -0.0727387 -0.07270534 -0.07267132 -0.07263734 -0.07260539
 -0.07257452 -0.07254473 -0.07251418 -0.07248117 -0.07244556 -0.07240627 -0.07236572 -0.07232446 -0.07228471 -0.07224743
 -0.07221189 -0.07217825 -0.07214455 -0.07211054 -0.07207596 -0.07204079 -0.07200664 -0.07197357 -0.07194293 -0.07191454
 -0.07188801 -0.071863 -0.07183818 -0.07181335 -0.07178743 -0.07176042 -0.07173183 -0.07170179 -0.07167032 -0.07163751
 -0.0716034 -0.07156812 -0.07153159 -0.07149462 -0.07145741 -0.07142094 -0.07138556 -0.07135136 -0.07131862 -0.07128544
 -0.07125168 -0.07121586 -0.0711779 -0.07113858 -0.0710981 -0.0710592 -0.07102206 -0.0709894 -0.07096097 -0.07093748
 -0.07091824 -0.07090221 -0.07088843 -0.07087495 -0.07086091 -0.07084447 -0.07082546 -0.07080301 -0.07077762 -0.07074919
 -0.0707187 -0.07068645 -0.07065341 -0.07061992 -0.07058614 -0.07055219 -0.07051796 -0.07048341 -0.0704487 -0.07041384
 -0.07037979 -0.07034658 -0.07031474 -0.07028412 -0.07025398 -0.07022414 -0.07019336 -0.07016188 -0.0701296 -0.07009707
 -0.07006517 -0.07003445 -0.07000598 -0.06997973 -0.06995634 -0.06993463 -0.06991441 -0.06989366 -0.06987156 -0.06984694
 -0.069819 -0.06978917 -0.06975732 -0.0697265 -0.06969707 -0.06966995 -0.06964525 -0.06962061 -0.06959586 -0.06956797
 -0.06953706 -0.06950229 -0.06946415 -0.06942382 -0.06938186 -0.06934007 -0.06929895 -0.06926019 -0.06922381 -0.06919081
 -0.06916009 -0.06913135 -0.06910289 -0.06907355 -0.06904259 -0.06900895 -0.06897467 -0.06893986 -0.06890735 -0.06887783
 -0.0688517 -0.06882933 -0.06880724 -0.06878527 -0.06875897 -0.06872836 -0.06869252 -0.068652 -0.06860998 -0.06856695
 -0.06852683 -0.0684891 -0.06845476 -0.0684223 -0.06838953 -0.06835558 -0.06831808 -0.06827817 -0.06823563 -0.06819284
 -0.06815119 -0.06811208 -0.06807678 -0.06804405 -0.06801398 -0.06798445 -0.06795514 -0.06792435 -0.06789183 -0.06785713
 -0.06782019 -0.0677817 -0.06774172 -0.06770128 -0.06766041 -0.06761982 -0.06757936 -0.06753876 -0.06749792 -0.06745631
 -0.06741444 -0.06737288 -0.06733238 -0.06729428 -0.06725851 -0.06722583 -0.06719469 -0.06716462 -0.06713355 -0.06710044
 -0.06706447 -0.06702501 -0.06698295 -0.06693821 -0.06689279 -0.06684681 -0.06680258 -0.06676028 -0.06672096 -0.06668451
 -0.06664874 -0.06661324 -0.06657354 -0.06652986 -0.06648028 -0.06642623 -0.06637037 -0.06631403 -0.06626119 -0.06621149
 -0.06616642 -0.06612436 -0.06608434 -0.06604535 -0.06600642 -0.06596728 -0.06592756 -0.06588735 -0.06584659 -0.0658054
 -0.06576377 -0.06572195 -0.06567998 -0.06563804 -0.06559613 -0.06555445 -0.065513 -0.06547122 -0.06542901 -0.06538509
 -0.06533946 -0.06529135 -0.06524114 -0.06518941 -0.06513655 -0.06508365 -0.06503061 -0.06497774 -0.06492513 -0.06487292
 -0.06482149 -0.06477129 -0.06472185 -0.0646732 -0.06462435 -0.06457485 -0.06452495 -0.06447439 -0.06442507 -0.06437722
 -0.06433172 -0.0642887 -0.06424697 -0.06420643 -0.06416519 -0.06412327 -0.06407989 -0.06403517 -0.06398923 -0.06394207
 -0.06389387 -0.06384437 -0.06379317 -0.06374003 -0.0636844 -0.06362633 -0.06356553 -0.06350257 -0.06343761 -0.0633716
 -0.06330474 -0.06323867 -0.06317372 -0.0631119 -0.06305376 -0.06300001 -0.06295107 -0.06290447 -0.06286015 -0.06281365
 -0.06276478 -0.06271087 -0.0626522 -0.06258965 -0.06252377 -0.06245779 -0.06239156 -0.06232665 -0.06226189 -0.06219568
 -0.06212743 -0.06205493 -0.06198012 -0.06190367 -0.06182841 -0.06175688 -0.06168891 -0.06162572 -0.06156385 -0.06150269
 -0.06143862 -0.06137067 -0.0612976 -0.06121895 -0.06113616 -0.06104924 -0.06096119 -0.06087218 -0.06078565 -0.06070164
 -0.06062214 -0.06054683 -0.06047547 -0.06040719 -0.06033938 -0.06027108 -0.06019888 -0.06012302 -0.06004194 -0.05995744
 -0.05987086 -0.059783 -0.05969533 -0.05960621 -0.05951503 -0.05942139 -0.0593243 -0.05922761 -0.05913187 -0.05904052
 -0.05895452 -0.05887124 -0.05879065 -0.05870714 -0.05862054 -0.05852944 -0.05843421 -0.05833774 -0.05823995 -0.05814211
 -0.05804328 -0.05794121 -0.05783543 -0.05772334 -0.05760624 -0.05748466 -0.05736035 -0.05723568 -0.05711029 -0.0569851
 -0.05685782 -0.05672748 -0.05659309 -0.05645359 -0.05631137 -0.05616664 -0.05602226 -0.0558789 -0.05573581 -0.05559313
 -0.05544676 -0.05529648 -0.05513795 -0.05497139 -0.05479664 -0.05461463 -0.0544301 -0.05424334 -0.05405836 -0.05387343
 -0.05368739 -0.05349742 -0.05329873 -0.05309011 -0.05286797 -0.05263402 -0.05238796 -0.05213278 -0.05187008 -0.05160066
 -0.05132611 -0.05104179 -0.05074762 -0.05043576 -0.05010458 -0.0497536 -0.04938208 -0.04900226 -0.04861478 -0.04823164
 -0.04785248 -0.04747799 -0.04710739 -0.04673672 -0.04636646 -0.04599705 -0.04562699 -0.04525489 -0.04487504 -0.04447768
 -0.04406097 -0.04361604 -0.04315387 -0.04267828 -0.04220219 -0.04173518 -0.04127518 -0.04082457 -0.04037452 -0.03992231
 -0.03946898 -0.03901342 -0.03856587 -0.03812728 -0.0377017 -0.03728918 -0.03688215 -0.03648031 -0.03607719 -0.03567443
 -0.03527777 -0.03488812 -0.03451335 -0.0341491 -0.03379098 -0.03343178 -0.03305909 -0.03266721 -0.03224656 -0.03179125
 -0.03129691 -0.03075089 -0.03014813 -0.02947153 -0.02871262 -0.02786868 -0.02693315 -0.02593362 -0.02487049 -0.02378818
 -0.02269032 -0.02161212 -0.02055536 -0.01953588 -0.0185525 -0.01759964 -0.0166726 -0.01574401 -0.01480907 -0.01383352
 -0.01282468 -0.01177699 -0.01071171 -0.009662095 -0.008634771 -0.007655988 -0.006704827 -0.005775392 -0.004845594 -0.003899852
 -0.002936502 -0.00195008 -0.0009502833 6.111824E-05 0.001079809 0.002105532 0.00313095 0.004155964 0.005165045 0.006157413
 0.007127116 0.008074204 0.008999809 0.009900756 0.01076037 0.01157409 0.01231481 0.01298654 0.01358295 0.01411472
 0.01459736 0.01503438 0.01543708 0.01580098 0.01612354 0.01640984 0.01665947 0.01688582 0.01709566 0.01728808
 0.01746722 0.01761221 0.01772164 0.01777074 0.01775742 0.01766092 0.01748003 0.01719654 0.01681068 0.01631843
 0.0157239 0.01504872 0.0142963 0.01349169 0.01263131 0.01171939 0.010751 0.00971719 0.008623062 0.00746532
 0.006266403 0.00503815 0.003811349 0.002605488 0.001438322 0.0003219455 -0.0007428088 -0.001754245 -0.002710916 -0.003613421
 -0.004451944 -0.005225261 -0.005931136 -0.006569375 -0.007152662 -0.007681664 -0.008168701 -0.008612962 -0.009015623 -0.009375795
 -0.009690299 -0.009960363 -0.01018694 -0.01037236 -0.01052057 -0.01063386 -0.01071561 -0.0107693 -0.01079816 -0.01080627
 -0.01079673 -0.01077148 -0.01073222 -0.01067822 -0.01060973 -0.01052525 -0.01042465 -0.01030633 -0.01017016 -0.01001411
 -0.009838037 -0.009641123 -0.00942336 -0.009184686 -0.008924913 -0.008642343 -0.008337603 -0.008010626 -0.007665316 -0.007310162
 -0.006950589 -0.006600659 -0.006260204 -0.005935313 -0.005621842 -0.005317055 -0.00502219 -0.004735632 -0.004464769 -0.004212599
 -0.003981797 -0.003774935 -0.003585384 -0.003412721 -0.003249046 -0.003092867 -0.002947254 -0.002812174 -0.002704815 -0.002626094
 -0.002592701 -0.002604383 -0.002667558 -0.002781795 -0.002948919 -0.00316882 -0.003442716 -0.00376921 -0.004146677 -0.00457339
 -0.005046243 -0.005565489 -0.006132327 -0.006740531 -0.007392413 -0.008062499 -0.008743373 -0.009408915 -0.01004801 -0.01066155
 -0.01124639 -0.01181929 -0.01238196 -0.01294317 -0.01350367 -0.01405972 -0.01461086 -0.01514913 -0.01567383 -0.01617674
 -0.01665733 -0.01710787 -0.01753113 -0.01792704 -0.01830615 -0.01868372 -0.01907639 -0.01951021 -0.01999632 -0.02055615
 -0.02118272 -0.0218821 -0.02263034 -0.02342089 -0.02423017 -0.02505101 -0.02586803 -0.02667971 -0.02746156 -0.02821211
 -0.02889713 -0.02951408 -0.03005566 -0.0305234 -0.03094558 -0.03132523 -0.03169723 -0.03206182 -0.03243962 -0.03282661
 -0.03322407 -0.03362513 -0.03401894 -0.03439857 -0.03475177 -0.03507248 -0.03535174 -0.03558551 -0.03576902 -0.03590057
 -0.03597865 -0.03600192 -0.03597031 -0.03588028 -0.03573159 -0.03551937 -0.03524341 -0.03489636 -0.03447777 -0.03397767
 -0.03339646 -0.03273894 -0.03201184 -0.03126319 -0.03050509 -0.02981466 -0.02919504 -0.02869783 -0.02831034 -0.02803653
 -0.02785455 -0.02773998 -0.02767182 -0.02762328 -0.02758274 -0.02753457 -0.02747895 -0.02741036 -0.02734013 -0.02726927
 -0.02721254 -0.02717383 -0.02715573 -0.02716003 -0.02717509 -0.02720037 -0.02722141 -0.02723773 -0.02724155 -0.02723342
 -0.02721384 -0.02718364 -0.0271466 -0.02710291 -0.02705517 -0.02700263 -0.02694541 -0.02688187 -0.02681076 -0.02672832
 -0.02663245 -0.026515 -0.02637216 -0.02619211 -0.02596933 -0.02569497 -0.025364 -0.02497899 -0.02453811 -0.02405507
 -0.02353078 -0.02298037 -0.02240485 -0.021817 -0.0212178 -0.02062548 -0.02004213 -0.01949275 -0.01897833 -0.01851724
 -0.01810747 -0.01775256 -0.01745066 -0.01719891 -0.01699897 -0.01685166 -0.01675924 -0.01672526 -0.01674726 -0.01682611
 -0.01695451 -0.01712987 -0.0173458 -0.01759966 -0.01788916 -0.01821363 -0.01857118 -0.01896218 -0.0193787 -0.01982052
 -0.02027223 -0.02073294 -0.02118541 -0.02162935 -0.02205432 -0.02246135 -0.0228491 -0.02321929 -0.02357603 -0.02392052
 -0.02425724 -0.02458624 -0.02490927 -0.0252265 -0.02553761 -0.02584612 -0.02615305 -0.02646522 -0.02678624 -0.02711918
 -0.02746792 -0.02782243 -0.02818315 -0.02853015 -0.02886092 -0.02916198 -0.02943172 -0.029673 -0.02988612 -0.03008055
 -0.03025585 -0.03041276 -0.03054924 -0.03065568 -0.0307318 -0.03077026 -0.03077555 -0.03075169 -0.03070643 -0.03065155
 -0.03059421 -0.03054558 -0.03050902 -0.03049078 -0.03048879 -0.03050439 -0.03053203 -0.03057059 -0.03061442 -0.0306622
 -0.0307104 -0.03075838 -0.03080456 -0.03084878 -0.03089014 -0.03092858 -0.03096293 -0.03099323 -0.031019 -0.03104071
 -0.03106025 -0.03107834 -0.03109835 -0.03112014 -0.03114559 -0.03117278 -0.0312003 -0.03122498 -0.0312434 -0.03125298
 -0.03125054 -0.03123638 -0.03120904 -0.03117247 -0.03112708 -0.03107862 -0.03102845 -0.03097975 -0.03093333 -0.03088874
 -0.030846 -0.03080427 -0.03076357 -0.03072617 -0.03069233 -0.03066574 -0.03064626 -0.03063534 -0.0306321 -0.03063481
 -0.03064216 -0.03065072 -0.03065944 -0.0306652 -0.03066802 -0.03066627 -0.03066182 -0.03065496 -0.03064891 -0.03064536
 -0.03064604 -0.03065225 -0.03066299 -0.03067863 -0.0306959 -0.0307146 -0.03073039 -0.03074296 -0.03074799 -0.03074526
 -0.0307323 -0.03070923 -0.03067632 -0.03063381 -0.03058316 -0.03052411 -0.03045649 -0.03038011 -0.03029418 -0.03019959
 -0.03009702 -0.02998806 -0.02987469 -0.02975752 -0.02963772 -0.02951488 -0.02938929 -0.02925982 -0.02912663 -0.02898665
 -0.02883947 -0.02868128 -0.02851108 -0.02832977 -0.02813695 -0.0279409 -0.02774205 -0.02754968 -0.02736383 -0.02718831
 -0.02702259 -0.02686582 -0.02671772 -0.02657711 -0.02644372 -0.02631666 -0.0261951 -0.02607729 -0.02596297 -0.02585072
 -0.02574225 -0.02563785 -0.0255407 -0.02545241 -0.02537524 -0.02531047 -0.02525848 -0.02521963 -0.02519374 -0.02518088
 -0.02518063 -0.02519303 -0.02521656 -0.02525111 -0.02529362 -0.02534387 -0.0253984 -0.02545718 -0.02551809 -0.02558139
 -0.02564673 -0.02571443 -0.02578517 -0.02585857 -0.02593477 -0.02601214 -0.02608925 -0.02616406 -0.02623445 -0.02629975
 -0.02635885 -0.02641257 -0.02646104 -0.0265047 -0.02654384 -0.02657773 -0.02660619 -0.02662969 -0.02664818 -0.02666333
 -0.0266752 -0.02668379 -0.02668883 -0.02668714 -0.02667843 -0.02665934 -0.02663016 -0.02659016 -0.02653984 -0.02648012
 -0.02641082 -0.02633244 -0.02624363 -0.02614348 -0.02602976 -0.02590091 -0.02575419 -0.02558794 -0.0253999 -0.02518873
 -0.02495401 -0.02469492 -0.02441412 -0.02411136 -0.02379297 -0.02345927 -0.02311831 -0.02277056 -0.02242273 -0.02207509
 -0.0217323 -0.02139493 -0.02106849 -0.02075407 -0.02045872 -0.02018245 -0.01992984 -0.01969766 -0.01948358 -0.01928238
 -0.01908727 -0.01889484 -0.01869945 -0.01850239 -0.01830238 -0.01810317 -0.01790619 -0.01771262 -0.01752338 -0.01733665
 -0.01715218 -0.01696905 -0.01678695 -0.01660856 -0.01643402 -0.01626722 -0.01610814 -0.01595757 -0.01581489 -0.01567703
 -0.01554292 -0.0154074 -0.01526927 -0.01512298 -0.01496814 -0.01480088 -0.01462325 -0.01443511 -0.01424134 -0.01404518
 -0.01385201 -0.0136658 -0.01348883 -0.01332329 -0.01316772 -0.01302242 -0.01288426 -0.01275276 -0.01262579 -0.01250311
 -0.0123834 -0.01226659 -0.01215069 -0.01203553 -0.01191843 -0.01179946 -0.01167738 -0.01155312 -0.01142897 -0.01130678
 -0.01119203 -0.01108631 -0.01099508 -0.01091826 -0.01085839 -0.0108132 -0.01078207 -0.01076183 -0.01075076 -0.0107461
 -0.01074677 -0.01074987 -0.0107551 -0.01075729 -0.01075601 -0.01074429 -0.01072138 -0.01068234 -0.01062679 -0.01055341
 -0.01046222 -0.01035361 -0.01022767 -0.01008463 -0.009925317 -0.009751964 -0.009567535 -0.009379424 -0.009192681 -0.009018722
 -0.008862449 -0.008734285 -0.008636528 -0.00857508 -0.00854844 -0.008558006 -0.008599449 -0.008671955 -0.008769981 -0.008892396
 -0.009033139 -0.009191372 -0.009360613 -0.00954027 -0.009723902 -0.009911099 -0.01009602 -0.01027844 -0.0104544 -0.01062407
 -0.01078639 -0.01094212 -0.01109338 -0.01124122 -0.01138955 -0.01153871 -0.01169149 -0.01184669 -0.01200427 -0.01216217
 -0.01231864 -0.01247223 -0.01262137 -0.01276631 -0.01290665 -0.01304348 -0.01317702 -0.01330801 -0.01343664 -0.01356311
 -0.01368739 -0.01381031 -0.01393188 -0.01405518 -0.01418052 -0.01431356 -0.01445462 -0.01460894 -0.01477581 -0.01495566
 -0.01514683 -0.01534506 -0.01554951 -0.01575633 -0.01596622 -0.01617865 -0.01639396 -0.01661261 -0.0168338 -0.01705681
 -0.01728234 -0.01750975 -0.01774307 -0.01798327 -0.01823349 -0.018495 -0.01876563 -0.01904563 -0.01932902 -0.01961548
 -0.01989875 -0.02017847 -0.02044848 -0.02070833 -0.02095154 -0.02117819 -0.02138446 -0.02157189 -0.02174222 -0.02189773
 -0.02204354 -0.02218072 -0.02231296 -0.02243979 -0.02256186 -0.02267907 -0.02279095 -0.02289964 -0.0230057 -0.02311157
 -0.02321862 -0.02332533 -0.02343222 -0.02353366 -0.02362901 -0.02371459 -0.02378998 -0.0238566 -0.02391453 -0.02396616
 -0.02401115 -0.02404812 -0.0240767 -0.02409404 -0.02410118 -0.02409914 -0.02409006 -0.02407868 -0.02406596 -0.02405532
 -0.02404635 -0.02403975 -0.02403528 -0.02403289 -0.02403285 -0.02403541 -0.02404007 -0.02404673 -0.02405486 -0.02406396
 -0.02407639 -0.02409213 -0.02411585 -0.02414792 -0.02418989 -0.02424156 -0.02429768 -0.02435748 -0.02441247 -0.02446258
 -0.02450279 -0.02453424 -0.02455748 -0.02457383 -0.02458636 -0.02459507 -0.02460147 -0.02460441 -0.0246032 -0.02459744
 -0.0245861 -0.02457101 -0.02455264 -0.02453275 -0.02451255 -0.02449011 -0.02446561 -0.02443474 -0.02439677 -0.0243507
 -0.02429628 -0.0242371 -0.02417335 -0.02410819 -0.02404145 -0.02397298 -0.02390282 -0.0238309 -0.02375797 -0.0236864
 -0.02361639 -0.02354988 -0.02348571 -0.02342315 -0.02336095 -0.02329753 -0.02323247 -0.02316471 -0.02309541 -0.0230242
 -0.02295473 -0.02288758 -0.02282772 -0.02277661 -0.02273528 -0.02270471 -0.02267838 -0.02265605 -0.02262875 -0.02259619
 -0.02255518 -0.02250603 -0.02245035 -0.02238797 -0.02231909 -0.02224298 -0.02215705 -0.02206196 -0.02195715 -0.0218452
 -0.02172939 -0.02161207 -0.02149688 -0.02138449 -0.0212765 -0.02117258 -0.02107313 -0.020977 -0.02088431 -0.02079239
 -0.02070096 -0.02060643 -0.0205082 -0.02040484 -0.02029604 -0.02018434 -0.02006995 -0.01995844 -0.01985024 -0.01975151
 -0.01966228 -0.01958647 -0.01952293 -0.01947095 -0.01942779 -0.01938807 -0.01934818 -0.01930062 -0.01924346 -0.01917105
 -0.01908613 -0.01898764 -0.01888273 -0.01877441 -0.018668 -0.0185671 -0.01846831 -0.01837241 -0.0182701 -0.01815998
 -0.01803752 -0.01790182 -0.01775916 -0.01760992 -0.01746408 -0.01732161 -0.01718607 -0.01705634 -0.01692831 -0.01680185
 -0.0166737 -0.01654604 -0.01642156 -0.01630285 -0.01619558 -0.01609918 -0.01601616 -0.01594216 -0.01587546 -0.01581083
 -0.01574524 -0.01567606 -0.01560145 -0.01552203 -0.01543725 -0.01535022 -0.01526109 -0.01517403 -0.01508936 -0.01501076
 -0.01493838 -0.01487297 -0.01481398 -0.01475645 -0.01469916 -0.01463288 -0.0145577 -0.01446769 -0.01436664 -0.01425928
 -0.01415042 -0.01405053 -0.01395878 -0.01388007 -0.01380642 -0.0137341 -0.0136554 -0.01356463 -0.01346123 -0.01334278
 -0.01321496 -0.01307765 -0.01294108 -0.01280597 -0.01268556 -0.01258107 -0.0125013 -0.01244659 -0.01241204 -0.01239629
 -0.0123831 -0.01237133 -0.01234618 -0.01230857 -0.01225325 -0.01218281 -0.0121 -0.01200795 -0.01191269 -0.01181594
 -0.01172247 -0.01163054 -0.01154086 -0.01144992 -0.01135566 -0.01125755 -0.01115446 -0.01104892 -0.01094155 -0.01083287
 -0.01072315 -0.01061142 -0.01049733 -0.01038464 -0.01027357 -0.01017209 -0.01008012 -0.009999675 -0.009929158 -0.009860596
 -0.009792883 -0.009717295 -0.009635556 -0.009547042 -0.009454265 -0.009361438 -0.009268635 -0.009177859 -0.009087592 -0.008997262
 -0.008905837 -0.008813057 -0.008716714 -0.008616445 -0.00850853 -0.008391449 -0.008266065 -0.008131341 -0.007996392 -0.007861698
 -0.007738222 -0.007626558 -0.007531806 -0.007453675 -0.007390268 -0.007340618 -0.007298642 -0.007263066 -0.007226228 -0.007187617
 -0.007142076 -0.007090234 -0.007031348 -0.006964709 -0.006890197 -0.006804282 -0.006704179 -0.006587625 -0.006451261 -0.006299695
 -0.00613247 -0.005959703 -0.005783307 -0.005612722 -0.005449957 -0.005298668 -0.005159752 -0.005029692 -0.004908336 -0.004788262
 -0.004669196 -0.00454567 -0.004417977 -0.004284979 -0.004147272 -0.004006007 -0.003862285 -0.003718575 -0.003577359 -0.00344348
 -0.003319436 -0.003210466 -0.003116138 -0.003038468 -0.002974191 -0.002922164 -0.00287964 -0.00284553 -0.002817548 -0.002795435
 -0.002775069 -0.00275603 -0.002733308 -0.002706288 -0.002672889 -0.002632957 -0.002587058 -0.002535116 -0.002476128 -0.002409907
 -0.002334252 -0.002250053 -0.002158816 -0.002062749 -0.001967945 -0.001875883 -0.001791785 -0.001716074 -0.001650281 -0.001597324
 -0.001558841 -0.001540812 -0.00154852 -0.00157991 -0.001641086 -0.001703882 -0.001766303 -0.001784059 -0.001745667 -0.001651993
 -0.001498824 -0.00133539 -0.00116441 -0.001017192 -0.000893487 -0.0007933204 -0.0007150907 -0.000649085 -0.00059459 -0.0005445382
 -0.0004977137 -0.0004481218 -0.0003936898 -0.0003273818 -0.000250318 -0.0001593208 -6.136831E-05 3.964506E-05 0.0001359238 0.0002208968
 0.0002943542 0.0003531046 0.0004056471 0.0004530759 0.0005047265 0.0005627529 0.00062992 0.0007070544 0.0007911909 0.0008822139
 0.0009766401 0.001074129 0.001169488 0.001261555 0.001340264 0.001404239 0.001442172 0.001454848 0.001437456 0.001394043
 0.001328452 0.001246739 0.001157162 0.001065483 0.0009795105 0.0009014148 0.0008358281 0.0007782422 0.0007285989 0.000680021
 0.000630051 0.000577545 0.0005213534 0.0004659188 0.0004116761 0.0003607095 0.0003131503 0.0002711375 0.0002351902 0.0002149338
 0.0002106787 0.0002308026 0.000272201 0.0003273404 0.0003923937 0.0004519079 0.0005081951 0.0005570798 0.0006051076 0.0006603731
 0.000722726 0.0007974302 0.0008743314 0.0009493719 0.001013252 0.001059534 0.001090612 0.001104593 0.001111731 0.001113375
 0.001118179 0.001127263 0.00114591 0.001174561 0.001215562 0.001268665 0.001329184 0.001396012 0.001458103 0.001516162
 0.001565986 0.001611572 0.001662067 0.00171895 0.001791618 0.001873189 0.001959577 0.002042289 0.00211025 0.002165693
 0.002205027 0.002238315 0.002269519 0.00230302 0.002341244 0.002383568 0.002429427 0.002483845 0.002547249 0.00262525
 0.002718663 0.002815445 0.002914306 0.002987902 0.003036361 0.003045227 0.00302104 0.002982205 0.002937585 0.002922734
 0.002937343 0.003001491 0.003100409 0.003225504 0.003357201 0.003474204 0.003566829 0.003620826 0.003641261 0.003625408
 0.003585659 0.003524264 0.00345385 0.003376639 0.003304021 0.003237684 0.00318405 0.003143918 0.003113221 0.003091404
 0.003065925 0.003036068 0.0029903 0.002929095 0.002847769 0.002748381 0.002633024 0.002506248 0.002376491 0.00225008
 0.002139305 0.002046534 0.001980301 0.00193393 0.001907167 0.001888816 0.001874114 0.00185528 0.001829311 0.001791059
 0.001739204 0.001669703 0.001581216 0.001478261 0.001360608 0.001247539 0.001139355</values></Ydata></AB><ScSm><Ydata ylabel="Single channel"><values byteorder="INTEL" format="FLOAT32" numvalues="1814"> 0.08800504 0.08811665 0.0882443 0.08839606 0.0885659 0.08873712 0.08889263 0.08902709 0.08914639 0.08925469
 0.08935206 0.08944967 0.08957177 0.08973175 0.08991359 0.09008276 0.09021351 0.0903112 0.09041215 0.09054931
 0.09070766 0.09082401 0.09084433 0.09078138 0.0907094 0.09069893 0.09076977 0.09092309 0.09118275 0.0915323
 0.09182586 0.09188212 0.09171167 0.09154572 0.09158085 0.09178311 0.09198493 0.09207001 0.09201662 0.09188133
 0.09182551 0.09206574 0.09267672 0.09343004 0.09386587 0.09355982 0.09240532 0.09076472 0.08938264 0.0889988
 0.08981633 0.09127599 0.092473 0.09288625 0.09266299 0.09223535 0.09186796 0.09164955 0.09169158 0.09210852
 0.09283103 0.09353339 0.0937611 0.09322768 0.09213753 0.09115165 0.09084982 0.09128063 0.09216057 0.09321997
 0.09394898 0.09333712 0.09076168 0.08734804 0.08562993 0.08721378 0.09109992 0.09472315 0.09629135 0.09574236
 0.09401082 0.09219696 0.09127113 0.09174184 0.09332532 0.09522855 0.09678071 0.09761477 0.09749979 0.09644623
 0.09492487 0.09366848 0.09326394 0.0939834 0.0956753 0.09759519 0.09870034 0.09847116 0.09730246 0.09599018
 0.09514271 0.09514913 0.09621218 0.0981093 0.1002108 0.1019437 0.1030905 0.1036665 0.1037814 0.1036164
 0.1033336 0.1030508 0.1029641 0.1032495 0.1037179 0.1038508 0.1033772 0.1026401 0.1022505 0.1024593
 0.1029419 0.1031916 0.1030208 0.1024742 0.101318 0.0991504 0.09622736 0.09359449 0.09206869 0.09166447
 0.09225734 0.09393173 0.096175 0.09762708 0.09744754 0.09644836 0.0962155 0.09739285 0.09927683 0.1008449
 0.1017504 0.1023776 0.1032411 0.1044034 0.1053278 0.1052719 0.1040424 0.10247 0.101861 0.1027369
 0.104328 0.1055207 0.1060287 0.1063676 0.1069409 0.1074554 0.1071763 0.1057148 0.1036948 0.102541
 0.1033044 0.1056212 0.1079001 0.108526 0.1070107 0.1042574 0.1018031 0.1007136 0.1011677 0.1028951
 0.1055553 0.108573 0.1110487 0.1122157 0.111969 0.1108432 0.1094293 0.1078243 0.1058405 0.1038659
 0.1030956 0.1044185 0.1072793 0.1101162 0.1118023 0.1122759 0.1119137 0.1107712 0.1086727 0.1059923
 0.104011 0.1039733 0.1056729 0.1074947 0.1081298 0.1077997 0.1075336 0.1077586 0.1080612 0.1080419
 0.1079133 0.1081961 0.1090526 0.1100796 0.110735 0.1108378 0.110611 0.1103629 0.1101944 0.1099402
 0.1094247 0.1088565 0.1088141 0.1096388 0.1109755 0.1121284 0.1127471 0.1129679 0.1129919 0.1127439
 0.1120033 0.110838 0.1098127 0.1095881 0.1102801 0.1113721 0.1122641 0.1127206 0.1128115 0.1126842
 0.1124633 0.1122192 0.1119863 0.1118498 0.1119318 0.1122284 0.1125602 0.1127506 0.1127715 0.1126803
 0.1125038 0.1122367 0.1119142 0.1116378 0.1115131 0.1115654 0.1117312 0.1119241 0.1120746 0.1121196
 0.1120237 0.1118247 0.1116093 0.1114335 0.1113014 0.1112144 0.1111943 0.1112456 0.1113253 0.1113736
 0.1113631 0.1113057 0.111219 0.1111083 0.1109808 0.1108602 0.1107772 0.1107504 0.1107687 0.1107985
 0.1108221 0.1108597 0.110926 0.11098 0.11096 0.1108627 0.1107492 0.1106782 0.1106614 0.1106766
 0.1106943 0.1106851 0.1106206 0.1104932 0.1103451 0.1102572 0.1102871 0.1104242 0.1106178 0.1108205
 0.1109936 0.1111067 0.1111621 0.1111942 0.1112284 0.1112586 0.1112723 0.1112796 0.1113128 0.1114025
 0.1115475 0.1117096 0.1118463 0.1119425 0.1120072 0.11206 0.1121302 0.1122339 0.112341 0.1123984
 0.1123992 0.1123996 0.1124526 0.1125482 0.1126316 0.1126676 0.1126736 0.1126941 0.1127525 0.1128332
 0.1129085 0.1129709 0.1130352 0.1131132 0.1131868 0.1132145 0.1131743 0.1130961 0.113034 0.1130112
 0.1130113 0.113019 0.1130414 0.1130833 0.1131245 0.1131354 0.1131086 0.1130671 0.1130366 0.1130145
 0.1129733 0.1128941 0.1127873 0.1126797 0.1125908 0.1125219 0.1124598 0.1123873 0.1122935 0.112178
 0.1120473 0.1119073 0.1117603 0.1116085 0.1114671 0.1113623 0.1113005 0.111242 0.1111249 0.1109262
 0.1106864 0.1104685 0.1103021 0.1101699 0.1100379 0.1098887 0.1097296 0.1095789 0.1094504 0.1093464
 0.1092603 0.1091837 0.1091195 0.1090855 0.1090977 0.109144 0.1091838 0.1091851 0.1091567 0.1091352
 0.1091447 0.1091804 0.1092264 0.1092752 0.1093313 0.1094042 0.1094962 0.1095932 0.1096735 0.1097326
 0.1097907 0.1098744 0.1099965 0.1101549 0.1103326 0.1104992 0.1106295 0.1107308 0.1108377 0.1109755
 0.1111393 0.1113118 0.1114879 0.1116737 0.1118735 0.1120875 0.112319 0.1125755 0.1128588 0.1131607
 0.1134659 0.113762 0.1140474 0.114334 0.1146411 0.1149807 0.1153479 0.1157231 0.116087 0.1164361
 0.1167826 0.1171399 0.1175101 0.1178904 0.1182841 0.1186977 0.1191265 0.1195536 0.1199662 0.1203674
 0.1207693 0.1211794 0.1215969 0.12202 0.1224542 0.1229077 0.1233754 0.1238309 0.124246 0.1246198
 0.1249817 0.1253648 0.1257793 0.1262081 0.1266213 0.1269985 0.1273468 0.1276946 0.1280607 0.1284343
 0.1287957 0.1291501 0.1295263 0.1299401 0.1303667 0.1307578 0.1310848 0.1313634 0.1316343 0.1319209
 0.1322107 0.1324793 0.1327239 0.1329628 0.1332096 0.1334624 0.1337208 0.1339954 0.1342896 0.1345838
 0.1348514 0.1350872 0.1353079 0.1355266 0.1357388 0.1359317 0.1360998 0.1362525 0.1364096 0.136585
 0.1367739 0.1369616 0.1371478 0.1373495 0.1375801 0.1378376 0.1381178 0.1384261 0.1387635 0.139112
 0.1394506 0.1397848 0.140143 0.1405322 0.1409148 0.1412457 0.1415229 0.1417809 0.1420453 0.1423204
 0.142613 0.1429417 0.143313 0.1437085 0.1440977 0.1444601 0.1447972 0.1451311 0.1454812 0.1458382
 0.1461671 0.1464438 0.1466794 0.1469067 0.1471516 0.1474183 0.1476921 0.1479511 0.148177 0.1483548
 0.1484648 0.1484874 0.1484223 0.1482933 0.1481212 0.1478942 0.1475749 0.1471319 0.1465559 0.145845
 0.1449911 0.1439906 0.1428723 0.1417142 0.1406331 0.1397537 0.1391744 0.1389476 0.1390751 0.1395088
 0.1401547 0.1408856 0.1415649 0.1420677 0.142293 0.142176 0.1417043 0.1409194 0.1398984 0.1387314
 0.1375079 0.136307 0.13519 0.1342152 0.1334753 0.1331165 0.1333053 0.1341652 0.1357206 0.1378689
 0.140385 0.1429761 0.1453815 0.1474608 0.1492079 0.1506951 0.1520065 0.1532067 0.1543391 0.1554258
 0.1564666 0.1574492 0.1583657 0.159216 0.1599981 0.1607002 0.1613033 0.1617869 0.1621342 0.1623419
 0.1624271 0.1624269 0.162392 0.1623752 0.1624061 0.1624604 0.1624565 0.1622925 0.1618984 0.1612722
 0.1604987 0.1597615 0.159335 0.1595213 0.1605243 0.1623295 0.1646868 0.1672295 0.1696351 0.1717133
 0.1734018 0.1747269 0.175768 0.1766197 0.1773566 0.178023 0.1786446 0.1792378 0.1798123 0.1803724
 0.1809205 0.1814576 0.1819834 0.1824965 0.1829954 0.1834791 0.1839493 0.1844123 0.1848785 0.1853556
 0.1858415 0.1863244 0.1867947 0.1872551 0.1877135 0.1881683 0.188611 0.1890398 0.189465 0.1898975
 0.1903403 0.190789 0.1912348 0.1916659 0.1920748 0.192464 0.1928422 0.1932161 0.1935874 0.1939559
 0.1943219 0.1946853 0.1950457 0.1954056 0.1957701 0.1961415 0.1965121 0.1968668 0.1971967 0.1975088
 0.1978188 0.1981363 0.1984593 0.1987822 0.1991047 0.1994328 0.1997733 0.2001253 0.2004793 0.2008228
 0.2011509 0.2014702 0.2017919 0.2021215 0.2024559 0.2027891 0.2031189 0.2034464 0.2037722 0.2040956
 0.2044166 0.2047356 0.2050528 0.2053685 0.2056841 0.2059995 0.2063132 0.2066242 0.206934 0.2072455
 0.2075591 0.207872 0.2081806 0.2084835 0.2087818 0.2090761 0.2093662 0.2096533 0.2099408 0.210231
 0.2105236 0.2108177 0.2111127 0.211408 0.2117041 0.2120028 0.2123047 0.2126071 0.2129077 0.2132068
 0.2135057 0.2138048 0.2141021 0.2143961 0.2146875 0.2149798 0.2152751 0.2155709 0.2158645 0.2161572
 0.216451 0.2167456 0.2170405 0.2173372 0.2176371 0.217939 0.2182409 0.2185417 0.2188424 0.219145
 0.2194489 0.2197519 0.2200526 0.2203515 0.2206496 0.2209471 0.2212453 0.2215453 0.2218455 0.2221448
 0.2224438 0.222744 0.2230466 0.2233522 0.2236588 0.2239622 0.2242608 0.2245564 0.2248509 0.2251453
 0.225443 0.2257454 0.2260479 0.2263453 0.2266383 0.2269321 0.2272312 0.2275367 0.2278448 0.2281496
 0.2284504 0.2287517 0.229055 0.2293582 0.2296614 0.2299671 0.2302754 0.2305859 0.2309006 0.2312187
 0.2315361 0.2318513 0.2321657 0.2324788 0.2327882 0.233092 0.2333876 0.2336737 0.2339541 0.2342346
 0.2345184 0.2348077 0.2351036 0.2354033 0.2357032 0.2360049 0.2363106 0.2366192 0.2369317 0.2372507
 0.2375739 0.237895 0.2382127 0.2385292 0.2388456 0.2391651 0.2394918 0.2398223 0.2401493 0.2404711
 0.2407902 0.2411086 0.2414301 0.2417585 0.2420899 0.2424177 0.2427421 0.2430664 0.2433913 0.2437189
 0.2440521 0.2443878 0.2447229 0.245061 0.245403 0.2457412 0.2460704 0.2463937 0.2467141 0.2470354
 0.2473638 0.2476979 0.2480277 0.248353 0.2486827 0.2490183 0.2493545 0.2496917 0.2500298 0.250364
 0.2506949 0.2510265 0.2513534 0.2516708 0.2519857 0.2523032 0.2526188 0.252932 0.2532455 0.2535472
 0.2538099 0.2539755 0.253886 0.2532021 0.2513583 0.247579 0.2410347 0.2311729 0.2180518 0.2024318
 0.1855643 0.1688024 0.1532354 0.1395431 0.128085 0.1190464 0.1125368 0.1086792 0.1076843 0.1099519
 0.1162043 0.1270602 0.1414617 0.1553081 0.1629812 0.1615955 0.1536136 0.1446127 0.1387385 0.136663
 0.1369877 0.1383258 0.1401244 0.1425138 0.1458336 0.1501383 0.1551391 0.1606838 0.1670422 0.1744933
 0.1827812 0.1912029 0.1991974 0.2067123 0.2140006 0.2211806 0.2280599 0.2343219 0.2397725 0.2444073
 0.2483472 0.2517597 0.2547924 0.25754 0.2600636 0.2623999 0.2645122 0.2662677 0.2675154 0.2682088
 0.2684627 0.2684991 0.2685245 0.26864 0.2688565 0.2691618 0.2695507 0.2700149 0.2705425 0.2711219
 0.271736 0.2723651 0.2729972 0.2736218 0.2742214 0.2747852 0.275317 0.2758224 0.2763007 0.2767558
 0.2771957 0.2776236 0.2780388 0.2784422 0.2788338 0.2792142 0.2795881 0.2799564 0.2803104 0.2806435
 0.2809591 0.2812623 0.2815541 0.2818367 0.2821134 0.2823844 0.2826513 0.2829164 0.2831779 0.2834333
 0.2836862 0.2839417 0.2841978 0.2844501 0.2846969 0.2849375 0.2851732 0.28541 0.2856528 0.2859015
 0.2861551 0.2864136 0.2866724 0.2869259 0.2871742 0.287421 0.2876688 0.2879224 0.2881872 0.2884608
 0.2887355 0.28901 0.2892889 0.2895732 0.2898596 0.2901453 0.2904286 0.2907093 0.2909922 0.2912801
 0.2915651 0.2918327 0.2920739 0.2922913 0.2924989 0.2927133 0.2929412 0.2931774 0.2934164 0.2936607
 0.2939126 0.2941682 0.2944214 0.29467 0.2949179 0.2951751 0.295451 0.2957424 0.2960371 0.2963302
 0.296626 0.2969265 0.2972291 0.2975342 0.297842 0.2981461 0.2984382 0.2987212 0.2990128 0.2993344
 0.29969 0.3000581 0.3004098 0.3007371 0.3010533 0.3013749 0.3017104 0.3020543 0.3023785 0.3026503
 0.3028802 0.3031335 0.3034715 0.3038912 0.3043362 0.3047531 0.3051266 0.3054698 0.3057984 0.3061153
 0.3064116 0.3066773 0.3069215 0.3071833 0.3075084 0.3079011 0.3083136 0.3086975 0.3090441 0.3093677
 0.3096772 0.3099772 0.3102585 0.3104783 0.3106021 0.3106871 0.3108761 0.311264 0.3117942 0.3123168
 0.3127384 0.3130804 0.3134024 0.3137235 0.314031 0.3142944 0.3144317 0.3143511 0.3141184 0.3140157
 0.314313 0.314996 0.3157994 0.3164767 0.3169619 0.3173128 0.3176031 0.3178739 0.3181094 0.3182334
 0.3181902 0.3180723 0.3181132 0.3184747 0.3190636 0.3196326 0.3200418 0.320338 0.3206174 0.3209156
 0.3211909 0.3213024 0.3210678 0.3205124 0.3200409 0.3201753 0.3210486 0.3222533 0.3232487 0.323839
 0.3241797 0.3244078 0.3244425 0.3241445 0.3234909 0.3225868 0.3217216 0.3214167 0.3220827 0.3234929
 0.3248765 0.3256902 0.3260856 0.326519 0.3271568 0.3278055 0.3282285 0.32836 0.3282636 0.3279929
 0.3275642 0.3271144 0.3269969 0.3275337 0.3286402 0.3298419 0.3307191 0.3312383 0.3315665 0.3315873
 0.3307711 0.3288035 0.3264151 0.3252026 0.326211 0.3288329 0.3314669 0.3331032 0.3338776 0.3343198
 0.3346598 0.3347672 0.334144 0.3320861 0.3286409 0.3254501 0.3247581 0.3272029 0.3311017 0.3340803
 0.3348865 0.3336502 0.3312843 0.3290612 0.3281614 0.3290335 0.3312047 0.3337641 0.3359103 0.3371727
 0.337447 0.3369509 0.3361307 0.3355402 0.3354948 0.3356045 0.3350161 0.3335199 0.3319505 0.3308997
 0.329628 0.3272725 0.3247719 0.3242858 0.3265231 0.3297176 0.3316765 0.3320248 0.3318104 0.3313897
 0.3295673 0.3251736 0.3192308 0.3149229 0.3148718 0.3185238 0.322698 0.3247084 0.3244861 0.3236806
 0.3233329 0.3227707 0.3206129 0.3167259 0.3129857 0.3116025 0.3126498 0.3139673 0.3135583 0.3110005
 0.3064049 0.2998994 0.2932582 0.2902545 0.2933322 0.3005618 0.3073449 0.3103979 0.3087977 0.3026022
 0.2931452 0.2844296 0.2813421 0.2851515 0.2920182 0.2966953 0.296653 0.2921981 0.2843422 0.2743342
 0.2647495 0.2591812 0.2599517 0.2662554 0.2743365 0.2791475 0.2769344 0.2682263 0.2585526 0.2542821
 0.2566593 0.2610015 0.2622127 0.2595709 0.2556812 0.2528967 0.2520046 0.2527013 0.2539588 0.2548248
 0.2551613 0.2543279 0.2498271 0.2400874 0.2286566 0.2223359 0.2241524 0.2308993 0.2383218 0.2453966
 0.2519831 0.2557515 0.2546999 0.2512043 0.2505205 0.2551812 0.262574 0.2682499 0.2704191 0.2706733
 0.2710248 0.271425 0.2708378 0.2699893 0.2714007 0.2762384 0.2824896 0.2871484 0.2892362 0.2898127
 0.2899649 0.2898946 0.2894711 0.2886758 0.287564 0.286286 0.2850719 0.2839862 0.2828829 0.2816899
 0.2803412 0.2781667 0.2739454 0.2674956 0.2610376 0.2576723 0.2581401 0.2603571 0.2624241 0.2640174
 0.263892 0.2588357 0.2478725 0.2360422 0.2309405 0.2353873 0.2451929 0.2538786 0.2578061 0.2566298
 0.2510976 0.2427013 0.2352431 0.2341892 0.2424471 0.2573032 0.2728485 0.2849729 0.2929265 0.2970234
 0.2970663 0.2935344 0.2889382 0.286852 0.2894865 0.2962566 0.3042462 0.3095344 0.3088865 0.3024169
 0.2954192 0.2951476 0.3035538 0.3146469 0.3211069 0.3219921 0.3216588 0.3228933 0.3245168 0.3252013
 0.3261756 0.3291019 0.3332981 0.33628 0.3359773 0.3316072 0.3236631 0.3145049 0.308007 0.3065646
 0.308566 0.3103495 0.3100106 0.3074532 0.3020954 0.2939606 0.2866573 0.2854227 0.291172 0.2991316
 0.3042805 0.3060283 0.3067057 0.307343 0.3064471 0.3025123 0.2966989 0.2923359 0.2916463 0.2936292
 0.2956642 0.2963279 0.2956364 0.2934327 0.2893708 0.2846147 0.2819876 0.2834972 0.2882236 0.2932402
 0.2963195 0.2973022 0.2972451 0.2970587 0.2970166 0.2969287 0.2965942 0.2964241 0.2974692 0.3002786
 0.3038963 0.3067111 0.3083019 0.3097833 0.3122419 0.315411 0.3180932 0.3195015 0.3199643 0.3205112
 0.3219296 0.324106 0.3261257 0.32707 0.3268998 0.3265938 0.3272676 0.3291206 0.3313717 0.3331712
 0.3343247 0.3351542 0.3359928 0.3369079 0.3376726 0.3379484 0.3377236 0.3375767 0.338244 0.3398535
 0.3417754 0.3432617 0.3440567 0.3443561 0.3443845 0.3441739 0.3436886 0.343017 0.3423758 0.3419499
 0.341767 0.3417289 0.3417256 0.341704 0.3416658 0.3416462 0.3416861 0.3417995 0.3419684 0.3421755
 0.3424131 0.3426532 0.3428479 0.3429816 0.3430865 0.3431795 0.3432092 0.343087 0.3427463 0.3421487
 0.3412592 0.3400446 0.3384811 0.3365391 0.3341867 0.3314908 0.3287911 0.3267395 0.3260349 0.3269806
 0.3292448 0.3320514 0.3346273 0.3365393 0.3377297 0.3383515 0.3385968 0.3386161 0.3385053 0.3383136
 0.3380628 0.3377684 0.3374486 0.3371197 0.3367965 0.3364979 0.3362411 0.3360283 0.3358422 0.3356503
 0.3354147 0.3351042 0.3347035 0.3342118 0.3336315 0.332958 0.3321758 0.3312688 0.3302423 0.3291372
 0.3280152 0.3269222 0.3258616 0.3247996 0.3236914 0.3224946 0.3211495 0.3195741 0.3177398 0.3157726
 0.3139215 0.3123668 0.311071 0.309844 0.3085283 0.3070872 0.3055543 0.3039635 0.302334 0.300678
 0.2989997 0.29729 0.2955258 0.2936783 0.2917324 0.2896985 0.2875994 0.2854506 0.2832613 0.2810395
 0.2787694 0.2763762 0.2737252 0.2706626 0.2670586 0.2628289 0.2579489 0.2524771 0.246567 0.2404412
 0.2343347 0.2284473 0.2229376 0.2179415 0.213588 0.2099912 0.2072326 0.2053518 0.2043572 0.2042425
 0.2049886 0.2065503 0.2088432 0.2117398 0.215075 0.2186573 0.2222843 0.225769 0.2289892 0.2319313
 0.2346744 0.2373043 0.2398373 0.2422261 0.2444208 0.2464017 0.248162 0.2496884 0.2509727 0.252035
 0.2529255 0.2537025 0.2544059 0.2550449 0.2556062 0.2560769 0.2564636 0.2567919 0.2570935 0.2573953
 0.2577182 0.2580802 0.2584983 0.2589914 0.2595792 0.2602722 0.2610666 0.2619476 0.2628954 0.2638922
 0.2649355 0.2660475 0.2672689 0.2686406 0.2701895 0.271921 0.273816 0.2758263 0.2778708 0.27984
 0.2816181 0.283114 0.2842835 0.2851291 0.2856816 0.2859766 0.2860422 0.2859022 0.2855824 0.2851079
 0.2845 0.2837802 0.2829714 0.2820911 0.2811444 0.2801308 0.2790587 0.2779567 0.2768649 0.2758112
 0.2748006 0.2738295 0.2728995 0.2720114 0.2711573 0.2703273 0.2695169 0.268728 0.2679673 0.2672405
 0.2665397 0.265837 0.265092 0.2642609 0.2633003 0.262178 0.2608799 0.259407 0.2577669 0.2559718
 0.254039 0.2519902 0.2498487 0.2476317 0.2453444 0.2429842 0.2405422 0.238007 0.2353907 0.2327616
 0.2302247 0.2278571 0.2256731 0.2236464 0.2217425 0.2199324 0.2181975 0.2165291 0.214921 0.2133699
 0.2118798 0.210456 0.2090999 0.2078163 0.2066173 0.2055161 0.2045265 0.203664 0.2029348 0.2023273
 0.2018187 0.2013852 0.2010148 0.2007269 0.2005633 0.2005331 0.2005734 0.2005834 0.2004926 0.2002988
 0.2000594 0.1998431 0.1996827 0.1995698 0.1994807 0.1993749 0.1991754 0.1987773 0.1980775 0.1969904
 0.1954683 0.1935332 0.1912823 0.1888645 0.1864576 0.1842352 0.1823164 0.1807475 0.1795233 0.1785974
 0.1778839 0.1773034 0.1768434 0.176563 0.1765389 0.1767798 0.1771613 0.177481 0.1776346 0.1777278
 0.1779799 0.1785387 0.1793914 0.1804002 0.1813952 0.1822583 0.1829426 0.1834397 0.1837652 0.1839636
 0.1840722 0.1840845 0.1839787 0.1837536 0.1834149 0.1829654 0.1824214 0.1817981 0.1810865 0.1802753
 0.1793692 0.1783669 0.1772611 0.1760527 0.174723 0.1732339 0.1716363 0.1701537 0.1690991 0.1687043
 0.1690019 0.169815 0.1708771 0.1720005 0.1730968 0.1740594 0.1747769 0.1753288 0.1760574 0.177341
 0.1792782 0.1815825 0.1837771 0.185499 0.1866221 0.1871531 0.187137 0.1866489 0.1857394 0.1843854
 0.1825891 0.1804658 0.1781652 0.1758102 0.1735445 0.1714982 0.1697174 0.1682159 0.1670077 0.166098
 0.1655532 0.1650974 0.1631429 0.1573462 0.1479298 0.1398298 0.1389663 0.145863 0.1549187 0.1604213
 0.1613986 0.160254 0.1589838 0.1580138 0.1572607 0.1567964 0.1566876 0.1568396 0.1570299 0.1570168
 0.1566959 0.1560869 0.155072 0.1531567 0.1494667 0.1430664 0.133651 0.1221789 0.1106656 0.1011185
 0.09454997 0.09076617 0.08879334 0.08755413 0.08648577 0.08573683 0.08580869 0.08703678 0.08940078 0.09268223
 0.09662396 0.1008958 0.1050356 0.108598 0.1113951 0.1135074 0.1150577 0.116077 0.1165788 0.1166315
 0.1163223 0.1157264 0.1149146 0.1139285 0.1127512 0.1113559 0.1098067 0.1083035 0.1070966 0.1063186
 0.1059043 0.1056944 0.1055828 0.1055381 0.1055477 0.1056031 0.1057087 0.1058681 0.1060812 0.1063525
 0.10667 0.1069863 0.1072491 0.1074393 0.1075629 0.1076164 0.1075601 0.1073416 0.1069779 0.1065799
 0.1062076 0.1057231 0.1049024 0.1037279 0.1025025 0.1016494 0.1014153 0.1017279 0.1022801 0.1027543
 0.103013 0.1031126 0.1031588 0.1031547</values></Ydata></ScSm><ScRf><Ydata ylabel="Single channel"><values byteorder="INTEL" format="FLOAT32" numvalues="1820"> 0.07049234 0.07062627 0.07074821 0.07085523 0.07095066 0.07104577 0.07115421 0.07128192 0.07142353 0.07156578
 0.071695 0.07180595 0.07190266 0.07198914 0.07206679 0.0721447 0.07224104 0.07236553 0.07250651 0.07263909
 0.07274428 0.07282484 0.07290664 0.07301468 0.07313922 0.07323363 0.07325642 0.07321553 0.07316585 0.07316065
 0.07321645 0.07333738 0.07354641 0.07383309 0.07407989 0.07413656 0.07400532 0.07386997 0.07389274 0.07405193
 0.0742141 0.07428287 0.07423816 0.07412555 0.07407665 0.07426745 0.07475945 0.07536961 0.0757267 0.07548529
 0.07455562 0.07322961 0.07211217 0.07180431 0.07246885 0.07364967 0.07461447 0.07494633 0.07476859 0.07442996
 0.07414006 0.07396677 0.07399977 0.07433368 0.07491537 0.07548234 0.075665 0.07523027 0.07434632 0.07355227
 0.07331698 0.07367431 0.0743902 0.07524615 0.07583101 0.07532921 0.07324252 0.07048911 0.06911969 0.07042342
 0.07357873 0.07650734 0.07776585 0.07731119 0.07590371 0.0744369 0.07369675 0.07409012 0.0753815 0.0769285
 0.07819082 0.07886988 0.07877429 0.0779127 0.07667263 0.07565276 0.07532932 0.07592147 0.07730446 0.07887138
 0.07977304 0.07958704 0.07863601 0.07756905 0.07688235 0.0768926 0.07776308 0.07931025 0.08102092 0.08243051
 0.08336435 0.08383579 0.08393273 0.08380005 0.08356893 0.08333772 0.08326897 0.08350642 0.08389436 0.08400992
 0.08363273 0.08304214 0.08273421 0.08291046 0.08330597 0.08351074 0.08337633 0.08293925 0.08200426 0.08024145
 0.07786433 0.0757319 0.07450886 0.07419848 0.07469249 0.07605995 0.07788709 0.07906891 0.07892297 0.07811268
 0.07793072 0.07889993 0.0804445 0.08172978 0.08247322 0.08298759 0.08369047 0.08463263 0.08538062 0.0853357
 0.08434384 0.08307974 0.08260195 0.08332971 0.08463377 0.08561011 0.08603088 0.08631976 0.08680408 0.08724026
 0.08702512 0.08584128 0.08420269 0.08327703 0.08392261 0.08583862 0.08772184 0.08825318 0.08703631 0.08481187
 0.08283535 0.0819739 0.08237089 0.08380727 0.08600932 0.08850963 0.09057238 0.09156708 0.0914029 0.09051395
 0.08938543 0.08810084 0.0865103 0.08493429 0.08435299 0.08549099 0.08788565 0.09025437 0.09168006 0.09212054
 0.09188396 0.091005 0.08933222 0.08717829 0.08560711 0.08564372 0.0871084 0.08866388 0.08923611 0.08901712
 0.08885802 0.08910647 0.08941675 0.08946073 0.08942066 0.08973143 0.09052427 0.09145637 0.09207242 0.09222421
 0.09210369 0.09197213 0.09191061 0.09177449 0.0914154 0.09101366 0.09105812 0.09183125 0.09302992 0.09407039
 0.09466242 0.09492277 0.09502107 0.09489398 0.09435405 0.09345601 0.09267569 0.09257328 0.0932477 0.09425963
 0.09509911 0.09556857 0.09573179 0.09571441 0.0956175 0.0954967 0.0953837 0.09535663 0.09552008 0.0958651
 0.09623462 0.09648023 0.09658272 0.0965921 0.09652828 0.09638649 0.09620085 0.09606081 0.09605306 0.09619122
 0.0964165 0.09665874 0.09686615 0.09698854 0.09699231 0.09690482 0.09680046 0.09673183 0.09670527 0.09672017
 0.09679077 0.09691714 0.09706149 0.09717359 0.09723283 0.09725291 0.09725151 0.09723244 0.09719931 0.09717146
 0.0971779 0.09723562 0.09733133 0.09743087 0.09751959 0.09762126 0.09775258 0.09787518 0.09792951 0.09790976
 0.09787267 0.09787571 0.09793172 0.09801725 0.09809871 0.09814549 0.09813602 0.09807234 0.09799789 0.09798329
 0.09807442 0.09826015 0.09849766 0.09874718 0.09897252 0.09914212 0.09925401 0.09933785 0.09941749 0.09948972
 0.09954631 0.09959978 0.09968141 0.09981786 0.1000054 0.1002069 0.1003819 0.1005148 0.1006144 0.1007055
 0.1008237 0.1009844 0.1011484 0.1012536 0.1012932 0.1013309 0.1014231 0.1015542 0.1016637 0.1017192
 0.1017464 0.1017926 0.1018777 0.1019846 0.1020887 0.1021871 0.1022967 0.102427 0.1025545 0.1026295
 0.1026233 0.1025654 0.1025176 0.1025127 0.1025395 0.1025819 0.1026447 0.1027305 0.1028157 0.1028657
 0.1028712 0.1028586 0.1028592 0.1028746 0.1028786 0.1028506 0.1027984 0.1027467 0.1027127 0.1026957
 0.1026835 0.1026625 0.102625 0.1025715 0.1025074 0.1024379 0.1023644 0.1022906 0.1022345 0.1022235
 0.102259 0.1022886 0.1022394 0.1020872 0.1018831 0.1017037 0.1015842 0.1015013 0.1014093 0.1012822
 0.1011271 0.1009679 0.1008239 0.1006994 0.1005879 0.1004818 0.1003836 0.10031 0.1002744 0.1002601
 0.1002209 0.1001234 0.09998331 0.09984759 0.09974824 0.0996836 0.09963644 0.09959425 0.09955617 0.09953229
 0.09953213 0.09954718 0.09955388 0.09954053 0.09952191 0.09952424 0.09956615 0.09965195 0.09976493 0.09986606
 0.09992169 0.09993982 0.09996434 0.1000287 0.1001282 0.1002409 0.1003576 0.1004839 0.1006246 0.1007786
 0.1009455 0.1011301 0.1013361 0.1015594 0.1017877 0.102008 0.1022184 0.1024321 0.1026684 0.1029364
 0.1032264 0.103519 0.1038006 0.1040722 0.1043435 0.1046214 0.1049036 0.1051871 0.1054774 0.1057843
 0.1061069 0.1064321 0.1067489 0.1070599 0.1073748 0.1076984 0.1080269 0.1083585 0.1087035 0.1090764
 0.1094715 0.1098535 0.1101843 0.1104614 0.1107213 0.1110063 0.1113321 0.1116817 0.1120203 0.1123213
 0.1125896 0.1128576 0.1131496 0.1134581 0.1137628 0.1140665 0.1143968 0.1147682 0.1151522 0.1154932
 0.1157592 0.115974 0.1161921 0.1164427 0.1167054 0.1169439 0.1171531 0.1173597 0.1175851 0.1178255
 0.118072 0.1183306 0.1186092 0.1188933 0.1191549 0.1193821 0.1195881 0.1197872 0.1199745 0.1201307
 0.1202445 0.1203293 0.1204203 0.1205456 0.1207002 0.1208553 0.1209957 0.1211353 0.1212946 0.121478
 0.1216817 0.1219091 0.1221616 0.1224236 0.1226763 0.1229278 0.1232065 0.123515 0.1238099 0.124047
 0.1242326 0.1244096 0.1246052 0.124817 0.1250448 0.1253032 0.1255989 0.1259125 0.1262141 0.1264899
 0.1267545 0.1270374 0.1273522 0.1276746 0.1279591 0.1281815 0.1283607 0.1285397 0.1287519 0.1290046
 0.1292843 0.1295716 0.1298516 0.1301114 0.1303307 0.1304887 0.1305855 0.1306477 0.1306994 0.1307304
 0.1307021 0.1305802 0.1303518 0.1300137 0.1295567 0.1289748 0.1282899 0.1275665 0.1268985 0.1263799
 0.1260801 0.1260352 0.1262475 0.1266831 0.1272723 0.1279201 0.1285266 0.1290025 0.1292761 0.1292993
 0.1290604 0.1285889 0.1279414 0.1271803 0.1263605 0.1255249 0.1247076 0.1239502 0.1233267 0.1229509
 0.1229487 0.1234152 0.1243796 0.1257826 0.1274696 0.129226 0.1308574 0.1322635 0.133447 0.1344628
 0.1353654 0.1361919 0.1369685 0.137711 0.1384219 0.1390961 0.139732 0.1403312 0.1408888 0.1413903
 0.141818 0.1421566 0.1424003 0.1425596 0.1426588 0.14272 0.1427531 0.1427645 0.1427598 0.1427252
 0.1426178 0.1423873 0.1420119 0.1415133 0.1409587 0.1404661 0.1402024 0.1403439 0.1409991 0.1421421
 0.1436135 0.1451949 0.1466984 0.1480078 0.149074 0.149903 0.1505443 0.1510649 0.1515191 0.1519373
 0.1523335 0.1527138 0.1530799 0.1534336 0.1537787 0.1541195 0.1544592 0.1548003 0.1551415 0.1554775
 0.155806 0.1561339 0.1564732 0.15683 0.1571976 0.1575608 0.1579097 0.1582501 0.1585933 0.158939
 0.1592742 0.1595918 0.1599002 0.1602153 0.1605469 0.1608937 0.1612437 0.1615808 0.1618965 0.1621959
 0.1624898 0.1627829 0.1630722 0.1633543 0.1636306 0.1639067 0.1641871 0.1644734 0.1647645 0.1650568
 0.1653431 0.1656142 0.1658677 0.1661122 0.1663594 0.1666137 0.166871 0.1671266 0.1673811 0.1676395
 0.1679061 0.1681797 0.1684529 0.1687185 0.1689739 0.169222 0.1694671 0.1697132 0.1699639 0.1702197
 0.1704774 0.1707325 0.1709835 0.1712332 0.1714858 0.1717427 0.1720012 0.172258 0.1725119 0.1727627
 0.173012 0.1732624 0.1735151 0.1737675 0.1740166 0.1742624 0.1745067 0.1747497 0.1749902 0.1752271
 0.1754604 0.1756919 0.1759257 0.1761642 0.1764065 0.1766504 0.1768954 0.1771418 0.1773877 0.1776312
 0.177873 0.1781168 0.1783648 0.1786136 0.1788576 0.1790959 0.1793328 0.1795723 0.1798142 0.1800568
 0.1802987 0.1805397 0.1807801 0.1810191 0.1812547 0.1814861 0.1817181 0.1819561 0.1821998 0.1824439
 0.1826855 0.1829254 0.1831659 0.1834073 0.1836471 0.1838822 0.1841131 0.1843433 0.1845744 0.1848052
 0.1850373 0.1852744 0.1855164 0.1857587 0.1859975 0.1862329 0.1864684 0.1867076 0.1869498 0.1871909
 0.1874289 0.1876654 0.1879011 0.1881358 0.1883726 0.1886164 0.1888671 0.1891195 0.1893681 0.1896108
 0.1898503 0.1900931 0.1903425 0.1905936 0.1908399 0.1910806 0.19132 0.1915634 0.1918138 0.1920706
 0.19233 0.1925905 0.1928535 0.19312 0.1933891 0.1936597 0.193927 0.1941827 0.1944226 0.1946507
 0.1948719 0.19509 0.1953092 0.1955324 0.1957576 0.1959838 0.1962139 0.196449 0.1966849 0.1969185
 0.1971498 0.1973807 0.197616 0.1978618 0.1981189 0.1983828 0.1986486 0.1989122 0.1991704 0.1994241
 0.1996774 0.199932 0.2001878 0.2004468 0.2007083 0.2009678 0.2012259 0.2014897 0.2017614 0.2020366
 0.2023121 0.202586 0.2028559 0.203123 0.2033908 0.203658 0.2039231 0.2041912 0.2044663 0.2047447
 0.2050223 0.2052993 0.2055738 0.2058433 0.2061112 0.20638 0.206648 0.2069175 0.2071932 0.2074732
 0.2077534 0.2080361 0.2083223 0.208607 0.2088882 0.2091673 0.2094405 0.2097051 0.2099659 0.2102251
 0.2104796 0.2107343 0.210996 0.2112547 0.2114829 0.2116269 0.2115534 0.2109822 0.2094445 0.2062919
 0.2008286 0.1925934 0.1816395 0.1686044 0.1545287 0.1405351 0.1275324 0.1160963 0.1065362 0.09900826
 0.09359821 0.09040116 0.08958858 0.09149499 0.09672846 0.1058088 0.1178482 0.1294133 0.1358105 0.1346394
 0.1279691 0.1204604 0.1155698 0.1138522 0.1141378 0.1152698 0.1167886 0.1188049 0.1216011 0.1252182
 0.129411 0.1340531 0.1393746 0.1456132 0.1525567 0.1596158 0.1663192 0.1726208 0.1787317 0.1847508
 0.1905183 0.19577 0.2003437 0.2042346 0.2075444 0.2104162 0.2129772 0.2153061 0.2174486 0.2194288
 0.2212147 0.222699 0.2237606 0.2243627 0.2245987 0.2246493 0.2246849 0.2247947 0.2249953 0.2252792
 0.2256364 0.2260532 0.2265182 0.2270246 0.2275601 0.2281078 0.228657 0.2292009 0.2297288 0.2302327
 0.2307136 0.2311727 0.2316073 0.2320183 0.2324103 0.2327877 0.2331561 0.2335217 0.2338834 0.2342363
 0.2345808 0.2349198 0.2352514 0.2355714 0.2358787 0.236173 0.2364542 0.2367249 0.2369872 0.2372412
 0.2374904 0.237741 0.2379938 0.2382458 0.2384965 0.2387453 0.2389883 0.2392252 0.2394618 0.2397026
 0.2399461 0.240188 0.2404244 0.2406542 0.2408826 0.2411177 0.2413626 0.2416139 0.2418658 0.2421125
 0.242353 0.2425964 0.2428519 0.2431159 0.2433793 0.2436425 0.2439127 0.2441901 0.2444697 0.2447497
 0.2450314 0.2453143 0.2455963 0.2458736 0.2461388 0.2463855 0.2466139 0.2468315 0.2470508 0.2472825
 0.2475268 0.2477745 0.2480197 0.2482646 0.2485112 0.2487577 0.2490039 0.2492505 0.2494978 0.2497502
 0.2500171 0.2503015 0.2505952 0.2508887 0.2511804 0.2514726 0.251767 0.2520645 0.2523623 0.2526522
 0.2529283 0.2531961 0.2534732 0.2537789 0.2541167 0.2544679 0.2548077 0.2551272 0.2554353 0.2557456
 0.2560691 0.2564041 0.2567249 0.256998 0.2572268 0.2574654 0.2577691 0.2581415 0.2585397 0.2589212
 0.2592721 0.2596011 0.259919 0.2602277 0.2605195 0.2607856 0.2610317 0.2612902 0.2616016 0.261972
 0.2623608 0.2627239 0.2630509 0.2633528 0.2636402 0.2639225 0.2641951 0.2644191 0.2645588 0.2646607
 0.2648512 0.2652178 0.2657136 0.2662079 0.2666163 0.2669522 0.2672645 0.2675723 0.2678702 0.268135
 0.2682928 0.2682586 0.2680871 0.2680265 0.2683166 0.2689469 0.2696838 0.2703083 0.2707625 0.2711025
 0.2713972 0.2716801 0.2719306 0.2720784 0.2720777 0.2720129 0.2720875 0.2724412 0.2729931 0.2735295
 0.2739289 0.2742321 0.2745222 0.2748275 0.2751084 0.275243 0.2750793 0.2746449 0.2742895 0.2744592
 0.2752635 0.2763481 0.2772471 0.2777978 0.2781432 0.2784041 0.2785033 0.2783105 0.277803 0.2770752
 0.2763799 0.2761669 0.2767894 0.2780527 0.279294 0.2800456 0.2804373 0.2808628 0.2814681 0.2820884
 0.2825182 0.2826979 0.2826811 0.2825131 0.2822064 0.2818798 0.2818407 0.2823663 0.28338 0.2844708
 0.2852791 0.2857802 0.2861198 0.2861972 0.2855551 0.2839224 0.2819313 0.2809611 0.2819141 0.284264
 0.2866226 0.2881109 0.2888436 0.2892841 0.2896414 0.2898091 0.2893531 0.2876555 0.2847533 0.282073
 0.2815655 0.2837808 0.2872517 0.2899168 0.2906965 0.289712 0.2877585 0.2859373 0.2852675 0.2861324
 0.2881179 0.2904336 0.2923898 0.2935857 0.2939327 0.2936143 0.2930144 0.2926191 0.2927053 0.2929242
 0.2925224 0.2913213 0.2900622 0.2892654 0.2882785 0.2863439 0.2842882 0.2840078 0.2861237 0.2890834
 0.2909636 0.2914396 0.2914327 0.2912499 0.2898328 0.2861511 0.2811097 0.2775204 0.2776978 0.2811508
 0.2850693 0.2870855 0.287149 0.286726 0.2867358 0.2865742 0.2850092 0.2819267 0.2790104 0.2782344
 0.2796479 0.2812999 0.2813975 0.2795615 0.2758834 0.2704782 0.2649681 0.2627826 0.266131 0.2732536
 0.2799803 0.2833302 0.2824379 0.2773096 0.2691373 0.2616033 0.2592265 0.263193 0.2699714 0.2747328
 0.2751614 0.2715558 0.2648604 0.2562517 0.2481586 0.243962 0.2458425 0.253028 0.2619314 0.2676963
 0.2666776 0.2593672 0.2511247 0.2481409 0.2516176 0.2569737 0.259234 0.2577093 0.2549658 0.2533256
 0.2535835 0.2554414 0.2578456 0.2598175 0.2612063 0.2613062 0.2574722 0.2480458 0.2367161 0.2305654
 0.2327667 0.2400304 0.247972 0.255527 0.2625006 0.2664008 0.2650899 0.2610133 0.2596366 0.2636065
 0.270229 0.2749108 0.2758226 0.2746406 0.2735013 0.2724588 0.2705422 0.2684996 0.268835 0.2726944
 0.278073 0.2819885 0.2834706 0.2835701 0.2833625 0.2830418 0.2824674 0.2816066 0.2804971 0.2792692
 0.2781385 0.2771679 0.2762177 0.2752212 0.2741179 0.272253 0.2684276 0.262457 0.2565075 0.2536033
 0.2544527 0.2570021 0.2593884 0.2612891 0.2614504 0.2566729 0.2459891 0.23441 0.2294782 0.2339783
 0.2437186 0.2522359 0.2559048 0.254389 0.2484569 0.2396202 0.2316542 0.2299431 0.2373381 0.2511735
 0.265658 0.2767691 0.2837871 0.2870536 0.2864256 0.2824116 0.277458 0.2749839 0.2770341 0.2829344
 0.2898056 0.2939052 0.2922559 0.2850961 0.2775058 0.2763397 0.283435 0.2931725 0.2986752 0.29901
 0.2981907 0.2988042 0.2997926 0.299976 0.3005284 0.3030036 0.306783 0.30959 0.3095301 0.3058883
 0.2991194 0.2913995 0.286284 0.2858947 0.2885756 0.2907914 0.2907571 0.2884736 0.2835027 0.2759309
 0.2691577 0.268078 0.2735206 0.2809928 0.2858004 0.2874224 0.2880672 0.2887015 0.2879134 0.2842808
 0.2788932 0.274886 0.274366 0.2764241 0.2786353 0.2796873 0.2795888 0.2781523 0.2750016 0.2711984
 0.2693901 0.2714579 0.2765024 0.2817144 0.284952 0.2860476 0.2860034 0.2856999 0.2854212 0.2850045
 0.2842667 0.2836089 0.2840536 0.2861539 0.2890313 0.2911775 0.2922008 0.2931507 0.2950417 0.2976131
 0.2997312 0.3006454 0.3006468 0.3006935 0.3015461 0.3031452 0.30467 0.3052599 0.3048607 0.3043867
 0.3049017 0.3066061 0.3087538 0.3105083 0.3116431 0.3124328 0.3131876 0.3139855 0.3146317 0.3148222
 0.3145513 0.3143609 0.3149394 0.3164063 0.3181693 0.3195228 0.3202251 0.3204666 0.3204725 0.3202867
 0.319878 0.3193179 0.3187914 0.3184602 0.3183503 0.3183719 0.3184166 0.3184255 0.3183973 0.3183709
 0.3183959 0.3184955 0.3186573 0.3188596 0.319084 0.3192973 0.3194565 0.3195557 0.319637 0.3197278
 0.3197868 0.3197309 0.3194944 0.3190416 0.3183413 0.3173578 0.3160602 0.3144159 0.3123941 0.3100601
 0.3077393 0.306052 0.3056522 0.3068075 0.3091873 0.3120548 0.3146855 0.3166742 0.3179689 0.3187183
 0.3191058 0.3192679 0.3192832 0.3191893 0.3190041 0.3187424 0.3184226 0.3180643 0.3176901 0.3173269
 0.3169963 0.3167015 0.3164243 0.3161355 0.315807 0.3154189 0.3149616 0.314433 0.3138341 0.3131617
 0.3124004 0.3115309 0.3105587 0.3095304 0.3085122 0.3075487 0.3066405 0.3057555 0.3048567 0.3039135
 0.3028796 0.3016854 0.3003048 0.2988489 0.2975367 0.2965192 0.2957445 0.29502 0.2941807 0.2931732
 0.2920204 0.2907668 0.2894569 0.2881222 0.2867683 0.2853768 0.2839213 0.2823775 0.2807327 0.2789909
 0.2771657 0.2752711 0.273324 0.2713459 0.2693356 0.2672289 0.2648904 0.2621535 0.258873 0.2549571
 0.2503834 0.2452148 0.2396052 0.233774 0.2279538 0.222344 0.2171007 0.212351 0.2082098 0.204779
 0.202136 0.2003248 0.1993624 0.1992494 0.1999735 0.2015002 0.2037595 0.2066368 0.2099755 0.2135901
 0.2172832 0.220867 0.2242035 0.2272494 0.2300524 0.2326784 0.23514 0.2373978 0.2394147 0.2411844
 0.2427143 0.2440054 0.2450623 0.2459134 0.24661 0.247204 0.2477255 0.2481777 0.2485496 0.2488357
 0.2490481 0.2492127 0.2493581 0.2495085 0.2496836 0.2498988 0.2501635 0.2504843 0.2508696 0.2513295
 0.2518702 0.2524861 0.2531591 0.2538711 0.2546213 0.2554298 0.256326 0.257341 0.2585036 0.2598307
 0.2613175 0.2629318 0.2646106 0.2662581 0.2677589 0.269013 0.269969 0.2706279 0.271019 0.2711711
 0.2711046 0.270845 0.2704291 0.2698894 0.2692438 0.2685081 0.2677072 0.2668626 0.2659748 0.2650303
 0.2640275 0.2629914 0.2619601 0.2609594 0.2599952 0.259065 0.2581657 0.2572883 0.256423 0.2555717
 0.2547483 0.2539646 0.2532247 0.2525264 0.251859 0.2511986 0.250509 0.2497444 0.2488596 0.2478274
 0.246643 0.2453094 0.2438267 0.2422003 0.240446 0.2385837 0.2366302 0.2345982 0.2324957 0.2303247
 0.2280793 0.2257461 0.2233292 0.2208832 0.2185057 0.2162815 0.2142398 0.2123611 0.2106105 0.2089603
 0.2073969 0.2059108 0.2044875 0.2031145 0.2017914 0.200523 0.1993129 0.1981706 0.1971138 0.1961578
 0.1953116 0.1945811 0.1939625 0.1934391 0.1929923 0.1926118 0.1923025 0.1920938 0.1920235 0.1920863
 0.1922107 0.1923039 0.1923124 0.1922419 0.192138 0.1920516 0.1920091 0.1920088 0.192032 0.1920334
 0.1919275 0.1916108 0.1909922 0.1900004 0.1885958 0.1867991 0.1846991 0.1824325 0.1801655 0.1780657
 0.1762567 0.1747968 0.1736882 0.1728755 0.1722578 0.1717538 0.1713651 0.1711656 0.1712341 0.1715715
 0.1720425 0.1724311 0.1726233 0.1727287 0.172984 0.1735542 0.174434 0.1754839 0.1765272 0.1774401
 0.1781777 0.1787377 0.1791373 0.1794164 0.1796101 0.1797126 0.179697 0.179551 0.1792779 0.178893
 0.1784244 0.1778868 0.1772635 0.1765404 0.1757239 0.1748151 0.1738104 0.1727165 0.1715138 0.1701522
 0.1686661 0.1672684 0.1662703 0.1659098 0.1662307 0.1670673 0.1681594 0.1693251 0.1704853 0.1715412
 0.1723771 0.1730556 0.1738989 0.1752748 0.1772859 0.1796602 0.1819343 0.1837505 0.1849803 0.1856237
 0.1857136 0.185313 0.1844689 0.1831638 0.1814056 0.1793137 0.1770434 0.1747249 0.1725037 0.1705088
 0.1687872 0.1673551 0.1662227 0.1653857 0.1649012 0.1644907 0.1625649 0.1567775 0.1473556 0.139256
 0.1384244 0.1453897 0.1545297 0.1601073 0.1611416 0.1600396 0.158805 0.1578731 0.1571712 0.1567732
 0.1567333 0.1569417 0.157172 0.1571931 0.1569135 0.1563573 0.155403 0.1535495 0.1499108 0.1435338
 0.1340992 0.12257 0.1109829 0.1013675 0.09474797 0.09093092 0.08893494 0.08767405 0.08658279 0.08581255
 0.08586656 0.08708192 0.08944491 0.09274304 0.09671389 0.1010154 0.1051827 0.1087785 0.1116178 0.1137701
 0.1153455 0.116374 0.1168787 0.116937 0.1166421 0.1160713 0.1152903 0.1143307 0.1131729 0.1117996
 0.1102824 0.1088137 0.1076309 0.1068667 0.1064654 0.1062729 0.1061831 0.1061689 0.1062217 0.1063224
 0.1064524 0.1066052 0.1068 0.1070755 0.1074357 0.1078161 0.108132 0.1083436 0.1084573 0.108481
 0.108388 0.1081368 0.1077511 0.1073387 0.1069493 0.1064336 0.1055631 0.1043243 0.1030333 0.1021297
 0.1018687 0.102172 0.1027191 0.103182 0.1034165 0.1034754 0.103469 0.1034151 0.1032114 0.102754
</values></Ydata></ScRf><Data_Parameters_AB><parameter name="DPF">1</parameter><parameter name="NPT">3497</parameter><parameter name="FXV">3996</parameter><parameter name="LXV">500</parameter><parameter name="CSF">1</parameter><parameter name="MXY">0.0177707448601723</parameter><parameter name="MNY">-0.0935410484671593</parameter><parameter name="DAT">18/01/2024</parameter><parameter name="TIM">11:21:03.408 (GMT+1)</parameter><parameter name="DXU">WN</parameter></Data_Parameters_AB><AB__Qtest><MainReport name="Quality Test Report"><Header><Line><Legend>Test result ok/not ok [1/0]: </Legend><Value>0</Value></Line><Line><Legend>Method file: </Legend><Value>C:\Users\Public\Documents\Bruker\OPUS_8.2.28\QT\IRBT_v3_default.QT</Value></Line></Header><Matrix><Line><Legend></Legend><Legend>min</Legend><Legend>max</Legend><Legend>measured</Legend></Line><Line><Value>Absorption (X-Range 1):</Value><Value>0.400000</Value><Value>2.000000</Value><Value>0.089777</Value></Line><Line><Value>Noise (X-Range 4):</Value><Value></Value><Value>0.000300</Value><Value>0.000024</Value></Line><Line><Value>Signal/Noise (X-Range 2):</Value><Value>200.000000</Value><Value></Value><Value>94.010099</Value></Line><Line><Value>Signal/Noise (X-Range 3):</Value><Value>40.000000</Value><Value></Value><Value>26.010439</Value></Line><Line><Value>Water vapour (X-Range 5):</Value><Value></Value><Value>0.000300</Value><Value>0.000008</Value></Line><Line><Value>Signal/Water (X-Range 2):</Value><Value>100.000000</Value><Value></Value><Value>298.214714</Value></Line><Line><Value>Signal/Water (X-Range 3):</Value><Value>20.000000</Value><Value></Value><Value>82.509174</Value></Line><Line><Value>Fringes (X-Range 6):</Value><Value></Value><Value>0.000100</Value><Value>0.000022</Value></Line></Matrix></MainReport></AB__Qtest><Data_Parameters_ScSm><parameter name="DPF">1</parameter><parameter name="NPT">1814</parameter><parameter name="FXV">3996.63438082617</parameter><parameter name="LXV">499.579297603271</parameter><parameter name="CSF">1</parameter><parameter name="MXY">0.344384491443634</parameter><parameter name="MNY">0.0856299251317978</parameter><parameter name="DAT">18/01/2024</parameter><parameter name="TIM">11:21:03.408 (GMT+1)</parameter><parameter name="DXU">WN</parameter></Data_Parameters_ScSm><Data_Parameters_ScRf><parameter name="DPF">1</parameter><parameter name="NPT">1820</parameter><parameter name="FXV">4004.34989121387</parameter><parameter name="LXV">495.721542409425</parameter><parameter name="CSF">1</parameter><parameter name="MXY">0.320472538471222</parameter><parameter name="MNY">0.0691196918487549</parameter><parameter name="DAT">18/01/2024</parameter><parameter name="TIM">11:20:37.617 (GMT+1)</parameter><parameter name="DXU">WN</parameter></Data_Parameters_ScRf><Optic_Parameters_Rf><parameter name="APR">0</parameter><parameter name="APT">Open</parameter><parameter name="BMS">KBr</parameter><parameter name="DTC">RT-DLaTGS_IR-Biotyper [Microplate reader]</parameter><parameter name="HPF">0</parameter><parameter name="LPF">10.0</parameter><parameter name="LPV">4000</parameter><parameter name="PGR">0</parameter><parameter name="RCH">Module port</parameter><parameter name="RDX">0</parameter><parameter name="SRC">MIR</parameter><parameter name="VEL">10.0</parameter><parameter name="SON">Off</parameter></Optic_Parameters_Rf><Acquisition_Parameters_Rf><parameter name="ADT">1</parameter><parameter name="AQM">DD</parameter><parameter name="CFE">0</parameter><parameter name="COR">0</parameter><parameter name="DEL">0</parameter><parameter name="DLY">0</parameter><parameter name="HFW">8000</parameter><parameter name="LFW">0</parameter><parameter name="NSR">32</parameter><parameter name="PLF">AB</parameter><parameter name="RES">6</parameter><parameter name="RGN">-1</parameter><parameter name="STR">0</parameter><parameter name="TCL">MakeCompatibleScalar (0, {WSV=1.000000, ARV=0});</parameter><parameter name="TDL">37</parameter><parameter name="RPO">0</parameter></Acquisition_Parameters_Rf><FT_-_Parameters_Rf><parameter name="APF">B3</parameter><parameter name="HFQ">500</parameter><parameter name="LFQ">4000</parameter><parameter name="NLI">0</parameter><parameter name="PHR">24</parameter><parameter name="PHZ">ML</parameter><parameter name="SPZ">NO</parameter><parameter name="ZFF">1</parameter></FT_-_Parameters_Rf><Optic_Parameters_><parameter name="APR">0</parameter><parameter name="APT">Open</parameter><parameter name="BMS">KBr</parameter><parameter name="CHN">Module port</parameter><parameter name="DTC">RT-DLaTGS_IR-Biotyper [Microplate reader]</parameter><parameter name="HPF">0</parameter><parameter name="LPF">10.0</parameter><parameter name="LPV">4000</parameter><parameter name="PGN">0</parameter><parameter name="RDX">0</parameter><parameter name="SRC">MIR</parameter><parameter name="VEL">10.0</parameter><parameter name="SON">Off</parameter></Optic_Parameters_><FT_-_Parameters_><parameter name="APF">B3</parameter><parameter name="HFQ">500</parameter><parameter name="LFQ">4000</parameter><parameter name="NLI">0</parameter><parameter name="PHR">24</parameter><parameter name="PHZ">ML</parameter><parameter name="SPZ">NO</parameter><parameter name="ZFF">1</parameter></FT_-_Parameters_><Acquisition_Parameters_><parameter name="ADT">1</parameter><parameter name="AQM">DD</parameter><parameter name="CFE">0</parameter><parameter name="COR">0</parameter><parameter name="DEL">0</parameter><parameter name="DLY">0</parameter><parameter name="HFW">8000</parameter><parameter name="LFW">0</parameter><parameter name="NSS">32</parameter><parameter name="PLF">AB</parameter><parameter name="RES">6</parameter><parameter name="SOT">0</parameter><parameter name="TCL">MakeCompatibleScalar (0, {WSV=1.000000, ARV=0});</parameter><parameter name="TDL">37</parameter><parameter name="SPO">0</parameter><parameter name="SGN">-1</parameter></Acquisition_Parameters_><Instrument_Parameters_Rf><parameter name="HFL">15801.365274</parameter><parameter name="LFL">0</parameter><parameter name="LWN">15801.365274</parameter><parameter name="ABP">32157</parameter><parameter name="SSP">1</parameter><parameter name="ARG">2</parameter><parameter name="ASG">2</parameter><parameter name="ASS">32</parameter><parameter name="GFW">16</parameter><parameter name="GBW">16</parameter><parameter name="BFW">0</parameter><parameter name="BBW">0</parameter><parameter name="PKA">9307</parameter><parameter name="PKL">4987</parameter><parameter name="PRA">9266</parameter><parameter name="PRL">5010</parameter><parameter name="P2A">1</parameter><parameter name="P2L">1</parameter><parameter name="P2R">1</parameter><parameter name="P2K">1</parameter><parameter name="DAQ">0</parameter><parameter name="AG2">1</parameter><parameter name="SSM">1</parameter><parameter name="RSN">46560</parameter><parameter name="CRR">0</parameter><parameter name="SRT">1705576837.617</parameter><parameter name="DUR">19.64599609375</parameter><parameter name="TSC">31.9</parameter><parameter name="MVD">1.79889500141144</parameter><parameter name="AN1">0.226020677408009</parameter><parameter name="AN2">0</parameter><parameter name="VSN">2.485 Apr  4 2017</parameter><parameter name="SRN">0085</parameter><parameter name="CAM">0</parameter><parameter name="INS">IR-Biotyper</parameter><parameter name="FOC">69</parameter><parameter name="RDY">1</parameter><parameter name="ARS">32</parameter></Instrument_Parameters_Rf><Sample_Parameters_><parameter name="BLD"></parameter><parameter name="CNM">Admin</parameter><parameter name="CPY"></parameter><parameter name="DPM"></parameter><parameter name="EXP">IRBT_v3_32Scans.XPM</parameter><parameter name="LCT"></parameter><parameter name="SFM">Microplate, HTS-XT</parameter><parameter name="SNM">240118-1045-Cdiff_SCFA_2_C23_232121132_E4_cc41eaf5-cdfc-4f8a-9f68-cb93c32f2459.0</parameter><parameter name="XPP">C:\Users\Public\Documents\Bruker\OPUS_8.2.28\XPM</parameter><parameter name="IST">OK</parameter><parameter name="CPG">1252</parameter><parameter name="UID">1140de43-2ba6-44b1-bdf9-7c975053c627</parameter></Sample_Parameters_><Instrument_Parameters_><parameter name="HFL">15801.365274</parameter><parameter name="LFL">0</parameter><parameter name="LWN">15801.365274</parameter><parameter name="ABP">32157</parameter><parameter name="SSP">1</parameter><parameter name="ASG">2</parameter><parameter name="ARG">2</parameter><parameter name="ASS">32</parameter><parameter name="GFW">16</parameter><parameter name="GBW">16</parameter><parameter name="BFW">0</parameter><parameter name="BBW">0</parameter><parameter name="PKA">10470</parameter><parameter name="PKL">4987</parameter><parameter name="PRA">10485</parameter><parameter name="PRL">5010</parameter><parameter name="P2A">1</parameter><parameter name="P2L">1</parameter><parameter name="P2R">1</parameter><parameter name="P2K">1</parameter><parameter name="DAQ">0</parameter><parameter name="AG2">1</parameter><parameter name="SSM">1</parameter><parameter name="RSN">23973</parameter><parameter name="CRR">0</parameter><parameter name="SRT">1705576863.409</parameter><parameter name="DUR">19.64599609375</parameter><parameter name="TSC">31.9</parameter><parameter name="MVD">6.1333589553833</parameter><parameter name="AN1">0.226002567658166</parameter><parameter name="AN2">0</parameter><parameter name="VSN">2.485 Apr  4 2017</parameter><parameter name="SRN">0085</parameter><parameter name="CAM">0</parameter><parameter name="INS">IR-Biotyper</parameter><parameter name="FOC">69</parameter><parameter name="RDY">1</parameter></Instrument_Parameters_><History/></OPUSDataFile>
