<?xml version="1.0" encoding="UTF-8" ?>
<OPUSDataFile><AB><Ydata ylabel="Absorbance Units"><values byteorder="INTEL" format="FLOAT32" numvalues="3497"> -0.0775461 -0.07752232 -0.07749884 -0.07747664 -0.07745913 -0.07744557 -0.07743582 -0.07742957 -0.07742628 -0.07742575
 -0.07742781 -0.07743159 -0.07743648 -0.0774417 -0.07744648 -0.07745131 -0.07745615 -0.0774618 -0.0774686 -0.07747604
 -0.07748412 -0.07749222 -0.0775003 -0.07750857 -0.07751702 -0.0775242 -0.07752986 -0.07753021 -0.07752562 -0.07751532
 -0.07750096 -0.07748767 -0.07747614 -0.07747123 -0.07747065 -0.07747302 -0.07747629 -0.07747662 -0.07747655 -0.07747638
 -0.07747959 -0.07748906 -0.07750271 -0.07752129 -0.07753868 -0.07755324 -0.07756323 -0.07756771 -0.07757027 -0.07757121
 -0.07757197 -0.07757255 -0.07756868 -0.07756028 -0.07754453 -0.0775227 -0.07750003 -0.07747827 -0.07746647 -0.07746407
 -0.07747531 -0.07749631 -0.0775233 -0.07755224 -0.07757697 -0.07759645 -0.07760739 -0.07761199 -0.07761023 -0.0776052
 -0.07759784 -0.07759069 -0.07758456 -0.07758056 -0.07757903 -0.07757999 -0.07758345 -0.07758963 -0.07759853 -0.07761116
 -0.07762749 -0.07764751 -0.07767099 -0.07769637 -0.0777237 -0.07775241 -0.07778256 -0.0778148 -0.07784701 -0.07787708
 -0.07790064 -0.07791156 -0.07790881 -0.07788748 -0.07785528 -0.07781357 -0.07777362 -0.07774036 -0.07771778 -0.07770867
 -0.07770848 -0.07771706 -0.0777293 -0.07774462 -0.07776137 -0.07777942 -0.07779682 -0.07781325 -0.0778239 -0.07782876
 -0.07782459 -0.07781278 -0.07779623 -0.07777659 -0.07775914 -0.07774459 -0.07773612 -0.07773454 -0.07774182 -0.0777586
 -0.07778729 -0.07782359 -0.07786769 -0.07790927 -0.07794464 -0.07796679 -0.07797194 -0.07796459 -0.07794432 -0.0779202
 -0.07789317 -0.07786759 -0.07784375 -0.07782483 -0.07781123 -0.07780983 -0.07782024 -0.0778455 -0.0778817 -0.07791749
 -0.0779473 -0.07794972 -0.07792839 -0.07787582 -0.07780793 -0.07774053 -0.07768378 -0.07765339 -0.07764506 -0.07766219
 -0.07769337 -0.07773572 -0.0777785 -0.07781874 -0.0778489 -0.07786713 -0.0778708 -0.07785901 -0.07783715 -0.07780547
 -0.07777332 -0.07774081 -0.07771154 -0.07768507 -0.07765973 -0.07763677 -0.07761949 -0.07761018 -0.07761734 -0.07763914
 -0.07767848 -0.0777271 -0.07777725 -0.07782049 -0.0778463 -0.07785402 -0.07783879 -0.07780815 -0.0777629 -0.07771327
 -0.07766154 -0.07761674 -0.07758081 -0.07755826 -0.07755016 -0.07755347 -0.07756811 -0.07758565 -0.07760559 -0.07761963
 -0.0776277 -0.07762509 -0.07761236 -0.07758863 -0.07755531 -0.07751498 -0.07746986 -0.07742497 -0.07738134 -0.07734238
 -0.07730774 -0.07727797 -0.07725346 -0.07723435 -0.07722169 -0.0772166 -0.07721668 -0.07722224 -0.07722741 -0.07723131
 -0.07722943 -0.07722099 -0.0772059 -0.07718407 -0.07715837 -0.07712919 -0.077103 -0.07708047 -0.07706983 -0.07707024
 -0.07708395 -0.07710725 -0.07713211 -0.07715499 -0.07716498 -0.07716332 -0.07714622 -0.07711868 -0.07708371 -0.07704499
 -0.07700571 -0.07696686 -0.07692917 -0.07689439 -0.07686243 -0.07683815 -0.07682221 -0.07681924 -0.07683024 -0.07685314
 -0.07688805 -0.07692328 -0.07695817 -0.07697985 -0.07698917 -0.07698578 -0.07697141 -0.07695407 -0.07693163 -0.07690268
 -0.07686462 -0.07680919 -0.0767429 -0.07666893 -0.07659778 -0.07654172 -0.07650011 -0.07647876 -0.07646471 -0.0764541
 -0.07643693 -0.07640778 -0.07637146 -0.07632712 -0.07628615 -0.07625014 -0.0762225 -0.07620371 -0.07618762 -0.07617377
 -0.07615335 -0.07612643 -0.07608882 -0.07604193 -0.07598895 -0.07593182 -0.07587746 -0.07582664 -0.07578493 -0.07574965
 -0.07572115 -0.07569242 -0.0756577 -0.07561117 -0.07554534 -0.07546616 -0.07537239 -0.07527789 -0.07518722 -0.07510512
 -0.07503461 -0.07496728 -0.07490268 -0.07483209 -0.07475473 -0.07467082 -0.07458062 -0.07448991 -0.07439898 -0.07431298
 -0.07423099 -0.07415281 -0.07407551 -0.07399135 -0.07389727 -0.07378229 -0.07364934 -0.07349571 -0.07333079 -0.07316219
 -0.07299636 -0.07284088 -0.07269343 -0.07255599 -0.07242041 -0.07228536 -0.07214177 -0.07198744 -0.07181847 -0.0716337
 -0.07143651 -0.07122708 -0.07100744 -0.07077743 -0.07053219 -0.0702718 -0.06999409 -0.06970087 -0.06939898 -0.06908975
 -0.06878073 -0.06847136 -0.06816388 -0.067858 -0.06755439 -0.06725246 -0.06695229 -0.0666521 -0.06635083 -0.06604733
 -0.06574149 -0.06543023 -0.06511468 -0.0647822 -0.06443114 -0.0640479 -0.06362895 -0.06318332 -0.06271075 -0.06223949
 -0.06177048 -0.06131754 -0.06087885 -0.06044518 -0.0600148 -0.05957444 -0.05912553 -0.05866462 -0.0581954 -0.057724
 -0.05725161 -0.05678496 -0.05631642 -0.05584341 -0.05535252 -0.05483162 -0.05428197 -0.05369579 -0.05309919 -0.05249811
 -0.05191355 -0.05135362 -0.0508108 -0.05028637 -0.04975937 -0.04922811 -0.0486834 -0.04812518 -0.04755979 -0.04698769
 -0.04641606 -0.04584332 -0.04526613 -0.04468242 -0.04408314 -0.04347033 -0.0428421 -0.04220528 -0.04156898 -0.04093697
 -0.04031819 -0.03970746 -0.03910497 -0.0385024 -0.0378955 -0.03728099 -0.03665606 -0.03602406 -0.03538428 -0.03474594
 -0.03410991 -0.03348539 -0.03287359 -0.03227068 -0.03167611 -0.0310711 -0.03045523 -0.02981552 -0.02915531 -0.02848367
 -0.02780404 -0.02713313 -0.02646837 -0.02581344 -0.02516224 -0.0245069 -0.02384524 -0.02317066 -0.02248789 -0.02179682
 -0.02110644 -0.02042155 -0.01974551 -0.01908262 -0.01842283 -0.01776583 -0.01709636 -0.01641139 -0.01570961 -0.01498996
 -0.01426863 -0.01354644 -0.01283878 -0.01214509 -0.01146635 -0.01080064 -0.01013922 -0.009480737 -0.008816235 -0.008146184
 -0.007467039 -0.006780363 -0.006086947 -0.00538801 -0.00468497 -0.003978874 -0.003270068 -0.002561957 -0.001855761 -0.001155673
 -0.0004637162 0.0002196051 0.0008932616 0.001561125 0.002223446 0.002884577 0.003544983 0.004205922 0.004867407 0.005526837
 0.006183998 0.006835163 0.007481226 0.008124189 0.008766327 0.009416576 0.01007488 0.01074707 0.01142794 0.012113
 0.01279589 0.01346761 0.01412692 0.01476896 0.01539858 0.01601616 0.01662876 0.01723903 0.01785042 0.01846481
 0.01907966 0.019695 0.02030713 0.02091555 0.02152149 0.022125 0.02272814 0.02333062 0.0239299 0.02452589
 0.02511636 0.0257023 0.02628648 0.02686811 0.02744766 0.028022 0.02858568 0.02913911 0.02967903 0.03021172
 0.03074048 0.03127069 0.03180684 0.03234788 0.03289495 0.03344397 0.03399413 0.03454279 0.03508912 0.0356346
 0.03617917 0.03672678 0.03727759 0.03783007 0.03838329 0.03892575 0.03945725 0.03996933 0.0404654 0.04095212
 0.04143319 0.04192185 0.04241563 0.04291787 0.04342137 0.04391918 0.04440747 0.04487964 0.04533961 0.04578644
 0.04622876 0.04666945 0.04711397 0.04756524 0.04801938 0.04847671 0.04892947 0.04937674 0.04981746 0.05025159
 0.05068474 0.05111692 0.0515501 0.05198358 0.0524141 0.05284165 0.05326424 0.05368278 0.05409848 0.05451189
 0.05492416 0.05533629 0.05574966 0.05616524 0.05658481 0.05700672 0.05743124 0.05785427 0.0582742 0.05868929
 0.05909858 0.05950298 0.05990276 0.0602966 0.06068458 0.06106211 0.06142893 0.06178287 0.06212442 0.06245912
 0.06278832 0.06312299 0.06346337 0.06381717 0.06418148 0.06455392 0.06493056 0.06530333 0.06567173 0.06603146
 0.06638499 0.06673322 0.06707712 0.0674179 0.06775416 0.06808498 0.06841207 0.06873488 0.06905975 0.06938804
 0.06972127 0.07006063 0.07039312 0.07071808 0.07101691 0.07128991 0.07153586 0.07175836 0.07197932 0.07220073
 0.07244381 0.07270271 0.07297483 0.07325198 0.07351739 0.07377176 0.07400718 0.07423296 0.07445385 0.0746773
 0.07490952 0.07515129 0.0754049 0.07566704 0.07593764 0.07621197 0.07648887 0.07676785 0.0770482 0.07733837
 0.07763881 0.07795758 0.07829385 0.07863787 0.07898653 0.07931445 0.0796212 0.07988957 0.08012579 0.08033539
 0.0805269 0.08071808 0.08091192 0.0811199 0.08133908 0.08157013 0.08181204 0.08206324 0.08232769 0.0826074
 0.08290176 0.08321329 0.0835282 0.08384527 0.08414836 0.08443484 0.08470527 0.08495936 0.08521432 0.08547094
 0.08574412 0.08603273 0.08633691 0.08665453 0.0869774 0.08730484 0.08763087 0.08795614 0.08827894 0.08860049
 0.08892091 0.08924328 0.08956889 0.08990417 0.09025284 0.09062008 0.09101044 0.09141918 0.09184805 0.09228093
 0.09271562 0.09313837 0.09354655 0.09394316 0.09432805 0.09471779 0.09511311 0.09552748 0.09596039 0.09641487
 0.09689011 0.09738496 0.09789845 0.09842991 0.09897288 0.09951946 0.1000541 0.100556 0.1010099 0.1013922
 0.1017073 0.1019446 0.102136 0.1022884 0.1024398 0.1026036 0.1027927 0.1030151 0.1032486 0.1034934
 0.1037107 0.1038981 0.1040276 0.104099 0.1041108 0.1040659 0.1039851 0.1038712 0.1037471 0.1036109
 0.1034697 0.1033177 0.103147 0.1029539 0.1027291 0.1024755 0.1021913 0.1018833 0.1015561 0.101212
 0.1008555 0.1004763 0.1000743 0.09963025 0.09914014 0.09859429 0.09798943 0.09734023 0.09664699 0.09594063
 0.09522251 0.09451777 0.09382576 0.09315431 0.09250066 0.09185802 0.09122347 0.09058475 0.0899427 0.08929093
 0.08863746 0.08798908 0.08735488 0.08674777 0.08616465 0.08561032 0.08506946 0.08453622 0.08400207 0.08346082
 0.08292232 0.08238615 0.08186983 0.08137554 0.08091345 0.08048461 0.08008802 0.07972306 0.07937672 0.07904688
 0.07871112 0.07836849 0.07800124 0.07761369 0.07720744 0.07678983 0.07637627 0.07596927 0.07557976 0.07520397
 0.07484205 0.07449086 0.07414751 0.07381358 0.07348935 0.07317521 0.07287243 0.07257551 0.07228422 0.07199012
 0.071692 0.07138576 0.07107083 0.0707508 0.07042598 0.07010313 0.06978226 0.06946676 0.06915545 0.06884504
 0.06853431 0.06821769 0.06789587 0.06756701 0.06723372 0.06689876 0.06656409 0.06623326 0.06590486 0.06558006
 0.06525361 0.06492383 0.06458572 0.06423683 0.06387743 0.06350646 0.06312941 0.06274671 0.06236378 0.06198115
 0.06159937 0.06121838 0.06083563 0.06045104 0.06006286 0.05967125 0.05927596 0.0588773 0.05847576 0.05807206
 0.05766764 0.05726358 0.05686221 0.05646361 0.05606875 0.05567716 0.05528866 0.0549035 0.05452187 0.05414355
 0.05376914 0.05339501 0.05302032 0.05264344 0.05226303 0.05188853 0.05152028 0.05117359 0.05084884 0.05054782
 0.05026822 0.04999019 0.04971135 0.04940837 0.04908434 0.04873458 0.04836738 0.04799714 0.0476303 0.04728338
 0.0469552 0.04665238 0.04636611 0.04609361 0.04582388 0.04555071 0.04526946 0.04497553 0.04467666 0.04437254
 0.04407711 0.04379252 0.04352491 0.04327529 0.04303784 0.04281233 0.04259381 0.04238344 0.04218994 0.04201533
 0.04187539 0.04176806 0.04169784 0.04165567 0.04162667 0.04159973 0.04155139 0.04147901 0.04136778 0.0412305
 0.04106857 0.04090304 0.04074456 0.04060488 0.04049207 0.04040099 0.04033235 0.0402776 0.04023484 0.04020634
 0.040192 0.04019759 0.04022314 0.04026196 0.04031275 0.04035908 0.04040156 0.04043342 0.04045863 0.04048607
 0.04051884 0.04056923 0.04063459 0.04071762 0.04081137 0.04091008 0.04100773 0.04109804 0.04117898 0.04124824
 0.04130469 0.04134884 0.04137379 0.0413793 0.0413528 0.04129201 0.04119247 0.04105262 0.04088955 0.04070437
 0.04052864 0.04036313 0.0402287 0.04012176 0.04003613 0.03996532 0.03988523 0.03979255 0.03966689 0.03951216
 0.03932374 0.03911108 0.03888186 0.03864449 0.03840823 0.03817455 0.03794771 0.03772228 0.03749778 0.0372676
 0.0370298 0.03678225 0.03652379 0.0362588 0.03598716 0.03571917 0.03545539 0.03520649 0.03497202 0.03475197
 0.03454354 0.03433191 0.0341149 0.03387566 0.03361816 0.03334115 0.03305349 0.03276893 0.03249153 0.03223301
 0.03198749 0.03175534 0.03152742 0.03129843 0.03106558 0.03082617 0.0305824 0.03033423 0.03008398 0.0298316
 0.0295815 0.02933363 0.02909827 0.02887599 0.02868085 0.02851305 0.0283805 0.02828094 0.02820778 0.02815561
 0.02810314 0.02804581 0.0279611 0.02785191 0.02771012 0.02754788 0.02737378 0.02720197 0.02704576 0.02691343
 0.02681258 0.02674683 0.02671845 0.02673135 0.02678645 0.02688847 0.02703846 0.02723766 0.02748652 0.02778181
 0.02812337 0.02850606 0.02892989 0.02939245 0.029895 0.03044274 0.03103827 0.03169373 0.03240983 0.03319587
 0.03404719 0.03496196 0.03593169 0.03694615 0.03799993 0.03908491 0.04020127 0.04134711 0.04252337 0.04373067
 0.0449666 0.04623092 0.04752051 0.04883501 0.05017162 0.0515308 0.05290093 0.0542814 0.05564066 0.05697551
 0.05823753 0.0594229 0.0604842 0.06142051 0.06220238 0.06283316 0.06330471 0.06362408 0.06379615 0.06383479
 0.06375128 0.06357502 0.0633234 0.06304684 0.06276946 0.06255117 0.06241704 0.06241218 0.0625539 0.06285677
 0.06332754 0.06395571 0.06474181 0.06566436 0.06672225 0.06788675 0.06915519 0.07048672 0.0718759 0.0732707
 0.07466418 0.07600478 0.07728617 0.07846954 0.07954724 0.08049353 0.08129275 0.0819237 0.08235543 0.08256339
 0.08250456 0.08215085 0.08146926 0.08043512 0.0790586 0.07732681 0.07531288 0.07301784 0.07056388 0.06795962
 0.06533907 0.06271038 0.06018445 0.05776473 0.05552008 0.05344798 0.0515704 0.04987852 0.04835432 0.0469848
 0.04573086 0.04457981 0.04349337 0.04246297 0.04146351 0.04049229 0.03953782 0.03860471 0.03769103 0.03680705
 0.03595571 0.0351467 0.0343839 0.03366848 0.03300205 0.032378 0.03179599 0.03124868 0.03073555 0.03025638
 0.02981191 0.02941279 0.0290616 0.02877995 0.02857066 0.02845826 0.02843918 0.02852263 0.02868978 0.02891891
 0.02917655 0.0294168 0.02960797 0.02970562 0.02970248 0.02957526 0.02935221 0.02903128 0.02866989 0.02827667
 0.02792382 0.02762192 0.02744102 0.02738973 0.02751476 0.02782018 0.02830247 0.02895663 0.02970282 0.03052156
 0.03124907 0.03185487 0.03213114 0.03206093 0.03148162 0.03042617 0.02885739 0.0268702 0.0245495 0.02202076
 0.01941156 0.01682572 0.01436051 0.01206197 0.009975875 0.008093001 0.006423435 0.004930037 0.003609539 0.002421787
 0.001362687 0.0003980169 -0.0004745937 -0.001282045 -0.002025427 -0.002723295 -0.003376002 -0.003994547 -0.004579847 -0.005140937
 -0.005679966 -0.006207316 -0.006724177 -0.00723826 -0.007747581 -0.008253508 -0.008751563 -0.009238455 -0.009710415 -0.01016397
 -0.01059819 -0.01101146 -0.01140566 -0.01178057 -0.01214014 -0.01248502 -0.01281832 -0.01314059 -0.01345219 -0.01375321
 -0.01404284 -0.01432116 -0.01458986 -0.01484958 -0.01510576 -0.01535916 -0.01561622 -0.01587639 -0.01614212 -0.01641089
 -0.01667951 -0.01694526 -0.01720249 -0.01745212 -0.01769188 -0.01792688 -0.01815942 -0.01839395 -0.01863369 -0.01887775
 -0.01912734 -0.01937674 -0.01962538 -0.01986683 -0.02010026 -0.02032161 -0.02053044 -0.02072757 -0.02091325 -0.02109338
 -0.02126847 -0.02144546 -0.02162404 -0.02180686 -0.02199277 -0.02217981 -0.02236747 -0.02255353 -0.02273885 -0.0229234
 -0.02310872 -0.02329623 -0.02348695 -0.02368225 -0.02388152 -0.02408547 -0.02429073 -0.0244972 -0.02469865 -0.02489414
 -0.02507749 -0.02524755 -0.02540331 -0.02554437 -0.02567789 -0.0258044 -0.02593544 -0.02607118 -0.02621858 -0.02637616
 -0.02654123 -0.02671169 -0.02687961 -0.02704512 -0.02720396 -0.02735901 -0.02751254 -0.02766651 -0.02782454 -0.02798433
 -0.02814599 -0.02830553 -0.02846059 -0.02861108 -0.02875564 -0.02889929 -0.02904269 -0.02919035 -0.02934313 -0.02950154
 -0.02966573 -0.02983399 -0.03000624 -0.03018069 -0.03035709 -0.03053278 -0.03070744 -0.0308779 -0.03104475 -0.03120781
 -0.03136842 -0.03152937 -0.03169105 -0.03185589 -0.03202178 -0.03218793 -0.03235132 -0.03250954 -0.03266144 -0.03280529
 -0.03294346 -0.0330759 -0.03320687 -0.03333728 -0.03346976 -0.03360511 -0.03374131 -0.03387837 -0.03401231 -0.03414303
 -0.03426979 -0.03439297 -0.03451592 -0.03463867 -0.03476358 -0.03488931 -0.0350132 -0.03513386 -0.03524652 -0.03535233
 -0.03545004 -0.03554365 -0.03563645 -0.03573189 -0.03583399 -0.03594194 -0.036057 -0.03617527 -0.03629574 -0.03641582
 -0.03653457 -0.03665222 -0.03676876 -0.03688391 -0.03699766 -0.0371087 -0.03721697 -0.03732229 -0.03742486 -0.03752649
 -0.03762724 -0.03772831 -0.03782945 -0.03793039 -0.03803125 -0.03813207 -0.0382333 -0.03833591 -0.03843923 -0.03854328
 -0.03864623 -0.03874648 -0.0388439 -0.03893739 -0.03902984 -0.03912187 -0.03921617 -0.03931389 -0.03941375 -0.03951595
 -0.03961678 -0.0397159 -0.03981147 -0.03990347 -0.03999361 -0.04008213 -0.04017201 -0.04026318 -0.04035695 -0.0404529
 -0.04055048 -0.04064919 -0.04074749 -0.04084573 -0.04094339 -0.04104204 -0.04114303 -0.04124773 -0.04135815 -0.0414727
 -0.04159195 -0.04171114 -0.04182877 -0.04194183 -0.04204886 -0.0421517 -0.04225013 -0.04234839 -0.04244695 -0.04254671
 -0.04264766 -0.04274633 -0.04284255 -0.04293306 -0.04301856 -0.04310072 -0.04318099 -0.04326501 -0.04335361 -0.04345178
 -0.04355837 -0.04367428 -0.04379684 -0.04392382 -0.04405249 -0.04418016 -0.04430535 -0.04442647 -0.04454361 -0.04465637
 -0.04476564 -0.04487146 -0.04497492 -0.04507609 -0.04517641 -0.04527595 -0.04537647 -0.04547807 -0.04558175 -0.04568736
 -0.04579354 -0.04589983 -0.04600291 -0.04610268 -0.04619667 -0.04628602 -0.04637177 -0.04645578 -0.04654155 -0.04662972
 -0.04672278 -0.04681924 -0.04691906 -0.04701993 -0.04712062 -0.04721988 -0.04731702 -0.04741143 -0.04750301 -0.04759047
 -0.04767361 -0.04775145 -0.04782373 -0.04789182 -0.0479558 -0.04801952 -0.04808323 -0.04815098 -0.0482227 -0.04830046
 -0.04838362 -0.04847147 -0.04856275 -0.0486543 -0.04874515 -0.0488321 -0.04891561 -0.04899485 -0.04907091 -0.0491448
 -0.04921571 -0.04928375 -0.04934715 -0.04940482 -0.04945785 -0.04950561 -0.04955329 -0.0496016 -0.04965426 -0.04971193
 -0.04977288 -0.04983705 -0.04990051 -0.04996328 -0.05002434 -0.05008412 -0.05014466 -0.05020598 -0.05026923 -0.0503339
 -0.05039909 -0.05046497 -0.05053092 -0.05059861 -0.05066955 -0.05074545 -0.05082862 -0.05091831 -0.05101547 -0.05111631
 -0.05121997 -0.05132223 -0.05142174 -0.05151681 -0.05160678 -0.05169262 -0.05177432 -0.05185321 -0.05192935 -0.0520038
 -0.05207668 -0.05214987 -0.05222365 -0.05230062 -0.05238092 -0.05246673 -0.05255747 -0.05265321 -0.05275254 -0.05285345
 -0.05295411 -0.05305142 -0.05314495 -0.05323273 -0.05331698 -0.053398 -0.05347912 -0.05356194 -0.05364731 -0.0537362
 -0.05382597 -0.05391643 -0.05400458 -0.05408996 -0.05417257 -0.05425238 -0.0543319 -0.05441125 -0.05449286 -0.05457649
 -0.05466199 -0.05474873 -0.05483438 -0.05491865 -0.05499949 -0.05507749 -0.05515257 -0.05522583 -0.05529868 -0.05537139
 -0.05544494 -0.05551822 -0.05559114 -0.05566183 -0.05572952 -0.05579327 -0.05585236 -0.05590818 -0.05596052 -0.056013
 -0.05606592 -0.05612281 -0.05618393 -0.05625007 -0.05632109 -0.05639483 -0.05647094 -0.05654626 -0.05662048 -0.05669076
 -0.05675706 -0.05681754 -0.05687296 -0.05692333 -0.05697056 -0.05701669 -0.0570639 -0.0571148 -0.05717028 -0.05723211
 -0.05729841 -0.05736941 -0.05744106 -0.05751242 -0.0575804 -0.05764408 -0.05770364 -0.05775886 -0.05781231 -0.05786415
 -0.05791617 -0.05796838 -0.05802086 -0.0580734 -0.05812481 -0.05817486 -0.05822187 -0.05826603 -0.0583066 -0.05834489
 -0.0583824 -0.05842132 -0.05846519 -0.05851467 -0.05857239 -0.05863557 -0.05870423 -0.05877265 -0.05883873 -0.05889785
 -0.05894781 -0.05898912 -0.05902093 -0.05904856 -0.05907234 -0.05909827 -0.05912678 -0.05916055 -0.05919953 -0.05924247
 -0.05928908 -0.05933676 -0.0593855 -0.05943383 -0.05948216 -0.05953075 -0.05958016 -0.05963161 -0.0596853 -0.05974194
 -0.05980177 -0.05986479 -0.05993268 -0.06000593 -0.06008761 -0.0601791 -0.06028217 -0.06039823 -0.06052461 -0.06066155
 -0.06080318 -0.06094897 -0.06109354 -0.06123647 -0.06137545 -0.0615104 -0.06164084 -0.06176671 -0.06188772 -0.06200331
 -0.06211159 -0.062211 -0.06229676 -0.06236693 -0.06241584 -0.06244211 -0.062442 -0.06241408 -0.06235464 -0.06226695
 -0.06214776 -0.06201553 -0.0618741 -0.06174988 -0.06165161 -0.06159304 -0.06157992 -0.06160596 -0.06167238 -0.06175873
 -0.06186395 -0.06196352 -0.06205662 -0.0621295 -0.0621834 -0.06222101 -0.06224382 -0.06225966 -0.06226835 -0.0622736
 -0.06227405 -0.06226899 -0.06225691 -0.06223497 -0.06220411 -0.062163 -0.06211662 -0.06206742 -0.06201994 -0.06197735
 -0.0619394 -0.0619072 -0.06187709 -0.06184857 -0.06181892 -0.06178771 -0.06175392 -0.06171741 -0.06167919 -0.06163937
 -0.06160045 -0.06156247 -0.06152679 -0.0614931 -0.06146047 -0.06142913 -0.06139906 -0.06137129 -0.06134808 -0.06132931
 -0.06131639 -0.06130707 -0.06129983 -0.06129276 -0.06128378 -0.06127347 -0.06126133 -0.06124927 -0.06123793 -0.06122794
 -0.06121967 -0.06121236 -0.06120597 -0.06119974 -0.06119359 -0.06118749 -0.06118148 -0.0611764 -0.06117244 -0.06117158
 -0.06117388 -0.06118092 -0.06119226 -0.06120786 -0.0612265 -0.06124587 -0.06126476 -0.06128047 -0.06129257 -0.06129953
 -0.06130196 -0.06129974 -0.06129387 -0.06128459 -0.06127328 -0.0612601 -0.0612473 -0.0612353 -0.06122589 -0.06121946
 -0.06121602 -0.06121564 -0.06121671 -0.06121914 -0.06122054 -0.06122074 -0.06121713 -0.06120969 -0.06119676 -0.06117889
 -0.06115665 -0.06113107 -0.0611043 -0.06107751 -0.06105314 -0.06103206 -0.06101609 -0.06100515 -0.06100028 -0.06099922
 -0.06100187 -0.06100378 -0.0610037 -0.06099781 -0.06098479 -0.06096445 -0.06093616 -0.06090446 -0.06086949 -0.06083819
 -0.06081087 -0.06079209 -0.06078139 -0.06077671 -0.06077686 -0.06077478 -0.06077023 -0.06075814 -0.06074037 -0.06071811
 -0.06069353 -0.06067065 -0.0606496 -0.06063258 -0.06061718 -0.0606025 -0.06058636 -0.06056714 -0.06054511 -0.06051961
 -0.0604933 -0.06046662 -0.06044165 -0.06041887 -0.06039819 -0.0603797 -0.06036246 -0.06034643 -0.06033083 -0.06031568
 -0.06030072 -0.06028605 -0.06027194 -0.06025855 -0.06024679 -0.06023618 -0.06022654 -0.06021653 -0.06020395 -0.06018825
 -0.06016734 -0.06014353 -0.06011735 -0.06009229 -0.06007047 -0.06005292 -0.06004104 -0.060032 -0.06002572 -0.06001819
 -0.06000882 -0.05999529 -0.05997725 -0.05995519 -0.05992917 -0.0599016 -0.05987266 -0.05984489 -0.05981819 -0.05979349
 -0.05977058 -0.0597492 -0.05972941 -0.05971125 -0.0596948 -0.05968053 -0.05966764 -0.05965584 -0.05964332 -0.05962856
 -0.05961099 -0.05958936 -0.05956602 -0.05954123 -0.05951814 -0.05949787 -0.0594801 -0.05946535 -0.05944914 -0.05943113
 -0.05940819 -0.05938023 -0.05934917 -0.05931535 -0.05928328 -0.05925288 -0.05922634 -0.05920311 -0.05918248 -0.05916408
 -0.05914672 -0.05913035 -0.05911448 -0.05909887 -0.0590832 -0.05906701 -0.05904983 -0.05903164 -0.0590123 -0.05899202
 -0.05897095 -0.05894873 -0.05892527 -0.05890038 -0.05887387 -0.05884697 -0.05881965 -0.05879488 -0.0587728 -0.05875561
 -0.0587432 -0.05873522 -0.0587312 -0.05872874 -0.05872719 -0.0587232 -0.05871636 -0.05870377 -0.0586862 -0.05866301
 -0.05863653 -0.0586087 -0.05858229 -0.05856026 -0.05854328 -0.058533 -0.05852708 -0.05852545 -0.05852433 -0.05852275
 -0.0585187 -0.05851155 -0.05850204 -0.05849006 -0.05847826 -0.0584668 -0.05845797 -0.05845179 -0.05844883 -0.05844876
 -0.05845013 -0.0584523 -0.05845226 -0.05844975 -0.05844228 -0.05843101 -0.05841625 -0.05840039 -0.05838622 -0.05837522
 -0.05836976 -0.05836917 -0.05837403 -0.05838234 -0.05839371 -0.05840592 -0.0584186 -0.05842919 -0.05843723 -0.05844095
 -0.05843996 -0.05843601 -0.0584292 -0.05842385 -0.05842009 -0.05842078 -0.05842553 -0.05843344 -0.05844412 -0.0584556
 -0.05846801 -0.05848072 -0.05849381 -0.05850738 -0.0585207 -0.05853302 -0.05854372 -0.05855184 -0.05855789 -0.05856164
 -0.05856449 -0.05856694 -0.0585698 -0.05857331 -0.05857823 -0.05858465 -0.05859384 -0.05860602 -0.05862119 -0.05863938
 -0.05865774 -0.05867608 -0.05869078 -0.05870211 -0.05870958 -0.05871398 -0.05871812 -0.05872216 -0.05872826 -0.05873555
 -0.05874356 -0.0587516 -0.05875833 -0.05876447 -0.05876984 -0.05877618 -0.0587845 -0.05879546 -0.05880989 -0.05882643
 -0.05884513 -0.05886341 -0.05888079 -0.05889592 -0.05890851 -0.05891925 -0.05892817 -0.05893692 -0.05894553 -0.05895497
 -0.05896523 -0.05897684 -0.0589896 -0.05900326 -0.0590172 -0.05902994 -0.05904062 -0.0590469 -0.0590488 -0.05904498
 -0.05903703 -0.05902531 -0.05901283 -0.05900127 -0.05899302 -0.05898966 -0.0589912 -0.05899844 -0.05900833 -0.05902074
 -0.0590312 -0.05903922 -0.05904179 -0.05903864 -0.05903047 -0.05901745 -0.05900285 -0.05898679 -0.05897169 -0.05895736
 -0.05894426 -0.05893238 -0.05892188 -0.058913 -0.05890642 -0.05890176 -0.05889928 -0.05889722 -0.05889431 -0.05888891
 -0.05887933 -0.05886623 -0.0588491 -0.05883042 -0.05881079 -0.05879166 -0.05877359 -0.05875582 -0.05873833 -0.05872026
 -0.05870153 -0.05868268 -0.05866372 -0.05864498 -0.05862626 -0.05860636 -0.05858522 -0.0585618 -0.05853678 -0.0585114
 -0.05848638 -0.0584638 -0.05844341 -0.05842576 -0.05841035 -0.05839688 -0.05838522 -0.05837552 -0.05836672 -0.05835884
 -0.05834946 -0.05833786 -0.05832277 -0.05830359 -0.05828154 -0.05825661 -0.05823093 -0.05820467 -0.05817868 -0.05815301
 -0.05812806 -0.05810389 -0.05808141 -0.05806054 -0.05804157 -0.05802401 -0.05800694 -0.05798934 -0.05796884 -0.05794499
 -0.05791575 -0.05788269 -0.05784596 -0.05780863 -0.05777273 -0.05773968 -0.05771115 -0.05768485 -0.0576607 -0.05763543
 -0.05760822 -0.0575783 -0.05754526 -0.05751133 -0.05747664 -0.05744353 -0.05741201 -0.05738229 -0.05735405 -0.05732485
 -0.05729454 -0.05726088 -0.05722445 -0.05718563 -0.05714507 -0.0571043 -0.05706327 -0.05702243 -0.05698192 -0.0569417
 -0.05690291 -0.05686637 -0.05683234 -0.05680166 -0.05677209 -0.05674335 -0.05671281 -0.05667963 -0.0566442 -0.05660629
 -0.05656872 -0.0565317 -0.05649749 -0.05646611 -0.05643723 -0.05641057 -0.0563838 -0.056357 -0.05632912 -0.05630083
 -0.0562737 -0.05624767 -0.05622388 -0.05620064 -0.05617618 -0.05614912 -0.0561169 -0.05608106 -0.05604133 -0.05600099
 -0.05596146 -0.05592454 -0.0558914 -0.05586081 -0.05583294 -0.05580504 -0.05577685 -0.05574583 -0.05571174 -0.05567375
 -0.05563188 -0.0555871 -0.05553963 -0.05549147 -0.05544294 -0.05539668 -0.05535248 -0.05531166 -0.0552726 -0.05523298
 -0.05519094 -0.05514228 -0.05508818 -0.05502753 -0.05496418 -0.05490035 -0.05483868 -0.05478118 -0.05472782 -0.05467917
 -0.05463393 -0.05459223 -0.0545512 -0.05451069 -0.05446646 -0.05441816 -0.05436362 -0.05430282 -0.05423721 -0.0541669
 -0.05409348 -0.05401696 -0.05393806 -0.05385692 -0.05377422 -0.05369013 -0.0536052 -0.05351976 -0.05343427 -0.05334973
 -0.05326746 -0.05318743 -0.05311083 -0.05303443 -0.05295725 -0.05287625 -0.05278964 -0.05269904 -0.05260428 -0.05250856
 -0.05241248 -0.05231596 -0.05221904 -0.05212082 -0.05202134 -0.05192299 -0.05182582 -0.05173174 -0.05163988 -0.05154739
 -0.05145271 -0.05134949 -0.05123741 -0.05111207 -0.05097582 -0.05082951 -0.05067703 -0.05052288 -0.05036823 -0.05021619
 -0.05006344 -0.04990936 -0.04975059 -0.04958541 -0.04941449 -0.04923755 -0.04905634 -0.04887141 -0.04868086 -0.04848477
 -0.04827728 -0.04805809 -0.04782127 -0.04756709 -0.04729516 -0.04700707 -0.04671051 -0.04640618 -0.04610149 -0.0457932
 -0.04547888 -0.04515356 -0.04480853 -0.04444201 -0.04404861 -0.04362949 -0.04318464 -0.04271267 -0.04221416 -0.04168319
 -0.04111901 -0.04051263 -0.03986203 -0.03916058 -0.03840559 -0.03760694 -0.03676412 -0.03590763 -0.03503897 -0.03418339
 -0.03334015 -0.03251076 -0.03169429 -0.03088593 -0.03008792 -0.02930661 -0.02854005 -0.02779121 -0.02704732 -0.02629156
 -0.02551247 -0.02468809 -0.02382556 -0.02292123 -0.02198999 -0.02104087 -0.02007281 -0.0190887 -0.01807896 -0.01704019
 -0.01597668 -0.0148876 -0.01378674 -0.01267579 -0.01155276 -0.01041735 -0.009250185 -0.008052238 -0.006823913 -0.005572271
 -0.004336898 -0.003118706 -0.001947746 -0.0008063001 0.0003259403 0.001473349 0.002680868 0.003964783 0.005355503 0.006869952
 0.008520215 0.01034711 0.01236663 0.01463331 0.01717565 0.01999528 0.0231132 0.02642786 0.02993621 0.03348564
 0.0370631 0.04055694 0.04396151 0.04723645 0.05038628 0.05344078 0.05641547 0.05940711 0.06243 0.0655964
 0.06887847 0.07228636 0.07574648 0.07913933 0.0824443 0.08557146 0.08859486 0.09153632 0.09447365 0.0974621
 0.1005069 0.1036275 0.1067877 0.1099804 0.1131909 0.116417 0.1196456 0.122877 0.1260739 0.1292343
 0.1323355 0.1353758 0.1383352 0.1412001 0.1438861 0.1463777 0.1485689 0.1504743 0.1520695 0.1533874
 0.1544729 0.1553379 0.1560126 0.1565003 0.1567997 0.1569559 0.1569825 0.1569467 0.1568788 0.156804
 0.1567414 0.156654 0.1565432 0.1563441 0.1560519 0.155607 0.1550058 0.1541939 0.1531705 0.1519051
 0.1504045 0.1486911 0.1467727 0.144693 0.1424455 0.140039 0.1374589 0.1346803 0.1317084 0.1285242
 0.1251815 0.1217013 0.1181717 0.1146431 0.1111765 0.107808 0.104552 0.1014155 0.09841614 0.09555404
 0.09287116 0.09037244 0.08807401 0.08597703 0.0840507 0.08229335 0.08067435 0.07919618 0.07785928 0.07666568
 0.07562504 0.07473253 0.07398268 0.07336755 0.07287267 0.0724902 0.07220742 0.07201467 0.07190123 0.07185866
 0.07187839 0.07196103 0.0721036 0.07231423 0.07259425 0.07295072 0.07338541 0.07389931 0.07449318 0.07516073
 0.07590169 0.07670248 0.07756267 0.07847256 0.07943445 0.08045774 0.08154503 0.08271537 0.08395968 0.08527017
 0.08662611 0.08798601 0.08934495 0.09067613 0.09199608 0.09331392 0.09462848 0.09594967 0.0972435 0.09849705
 0.0996955 0.1008233 0.1019273 0.1030091 0.1041377 0.1053242 0.1065625 0.1078537 0.1090811 0.110239
 0.1112194 0.1120271 0.1126416 0.1130677 0.1133151 0.1133794 0.1132541 0.112936 0.1124144 0.1116937
 0.1107741 0.1096625 0.1083589 0.1068869 0.1052468 0.1035043 0.1016807 0.09983848 0.09800421 0.09617823
 0.09436656 0.09254501 0.09070983 0.08886699 0.08701639 0.08518483 0.08337308 0.08159486 0.07985026 0.07814451
 0.07648123 0.07487862 0.07333711 0.07187477 0.07047091 0.06910749 0.06773968 0.06630868 0.06477521 0.06307882
 0.06122603 0.05919365 0.05703465 0.05476189 0.05242673 0.05004482 0.0476474 0.04523507 0.04287653 0.04057441
 0.03844052 0.03648291 0.03473484 0.03319222 0.0317782 0.03048524 0.02922249 0.02799292 0.0267581 0.02552939
 0.02431642 0.02312909 0.02198863 0.02090275 0.01988645 0.01895273 0.01811485 0.01739014 0.01679161 0.01633216
 0.01602009 0.01586102 0.01585747 0.01601416 0.01633095 0.01681965 0.01747975 0.01834047 0.01940327 0.02071217
 0.02226686 0.02406955 0.02610135 0.0282358 0.03043702 0.03248663 0.03437165 0.03593679 0.0372109 0.03816602
 0.03885799 0.03933925 0.03967311 0.03993009 0.04015759 0.04040799 0.04068796 0.04102285 0.04136243 0.04170323
 0.04197472 0.04215846 0.04224267 0.0422192 0.04214056 0.04200931 0.04188284 0.04176258 0.04166938 0.0416001
 0.04154085 0.0414887 0.04142318 0.04134578 0.04124922 0.04113824 0.04101723 0.04089268 0.04077322 0.04066778
 0.04058461 0.04053803 0.04053558 0.04059909 0.04073767 0.04097261 0.0413135 0.04176379 0.04232845 0.04298774
 0.04374092 0.04456235 0.04545034 0.0463849 0.04736445 0.04836067 0.04936889 0.05033998 0.0512689 0.05210622
 0.05285298 0.05348621 0.05401022 0.05442366 0.05472723 0.05492223 0.05500602 0.05497606 0.05483213 0.05457249
 0.05420056 0.05371731 0.05312557 0.05242587 0.05162196 0.05071296 0.04971212 0.04861891 0.04746317 0.04624624
 0.04501177 0.04376214 0.04254056 0.0413479 0.04021129 0.03912834 0.03810444 0.03713392 0.0362047 0.03530964
 0.03442958 0.03355936 0.03268399 0.03180157 0.03090583 0.02999442 0.02906488 0.02811316 0.02713565 0.02613502
 0.02510789 0.02407446 0.02303603 0.02202198 0.02103703 0.02009264 0.01919088 0.01831509 0.01746452 0.01662166
 0.01578926 0.01498197 0.01420675 0.01350495 0.0128779 0.01235464 0.011924 0.01158005 0.01130578 0.01107514
 0.01087682 0.01068921 0.01051217 0.01033806 0.01017401 0.0100219 0.009885745 0.009768846 0.009665009 0.00957458
 0.009485464 0.009396166 0.009298035 0.009190102 0.009071396 0.00894197 0.008805792 0.008663177 0.008518615 0.008372092
 0.008225778 0.008079703 0.007934558 0.007791608 0.007652945 0.007521749 0.007402551 0.007300055 0.007219743 0.00716696
 0.007146722 0.00716276 0.007219221 0.00731292 0.007445704 0.007604741 0.007789041 0.007980683 0.00817754 0.008364148
 0.008539053 0.008693457 0.008826983 0.008936885 0.009023404 0.009087547 0.009129789 0.009152555 0.009156878 0.009146857
 0.009124002 0.009093627 0.009056059 0.009014875 0.00896734 0.008912354 0.008846479 0.008766513 0.00867207 0.008561632
 0.008437702 0.008300586 0.008153128 0.007995635 0.007832002 0.007662239 0.007493966 0.007327553 0.007173403 0.007032066
 0.006912869 0.006815962 0.006746492 0.006703991 0.006688995 0.006700713 0.006736939 0.006797212 0.0068794 0.006983607
 0.007109087 0.007256025 0.00742426 0.007614227 0.00782595 0.008060579 0.008318478 0.008601207 0.008909171 0.009244232
 0.009606835 0.009998467 0.01041971 0.01086894 0.01134646 0.01184396 0.01236092 0.01288312 0.01340961 0.01392536
 0.01442999 0.01491335 0.01537646 0.01581699 0.01623683 0.01663926 0.01702465 0.01739596 0.01775018 0.01808601
 0.01839854 0.01868415 0.01893862 0.01915934 0.01934261 0.0194874 0.01958801 0.01964342 0.0196472 0.01959791
 0.01949439 0.01933591 0.01913089 0.01887983 0.0185985 0.01828764 0.017961 0.01761784 0.01726172 0.01689054
 0.01649902 0.01608606 0.01564576 0.01518019 0.01468892 0.01417705 0.01364879 0.01311141 0.01257045 0.01203437
 0.01150812 0.01099949 0.01051223 0.0100506 0.009616676 0.009209729 0.008830223 0.00847448 0.008142158 0.007831174
 0.007541434 0.007276631 0.007037466 0.006833077 0.006664535 0.00654264 0.006467745 0.006447194 0.006479764 0.006566702
 0.006705661 0.006893075 0.007128434 0.007408543 0.007737555 0.008116299 0.008552565 0.009050291 0.009615797 0.01025261
 0.01096209 0.01174546 0.01260125 0.01352961 0.01452794 0.01559649 0.01672718 0.01791957 0.01915235 0.02042302
 0.0216953 0.02296541 0.0241927 0.02537544 0.02648453 0.02752385 0.02848579 0.02938049 0.03021923 0.03101459
 0.03178464 0.03253836 0.03328929 0.03403855 0.03479134 0.03554217 0.03629055 0.03703026 0.0377595 0.03847537
 0.03917703 0.0398641 0.04053644 0.0411942 0.04183736 0.04246728 0.04308445 0.04369505 0.04430075 0.04491433
 0.04553798 0.04618688 0.04686113 0.04757001 0.04830904 0.04907672 0.04986402 0.0506615 0.05145799 0.05224243
 0.05300543 0.05373888 0.05443861 0.05510112 0.05572595 0.05631264 0.05685993 0.05736776 0.05783351 0.05825645
 0.05864066 0.05898623 0.05930978 0.05961255 0.05991622 0.060221 0.0605398 0.06087047 0.06121219 0.06156224
 0.06191344 0.06226475 0.06261122 0.0629527 0.06328783 0.06361448 0.06393122 0.06423409 0.06451998 0.06478843
 0.06503689 0.06527327 0.06549781 0.06572359 0.06595244 0.06619583 0.06645507 0.06673819 0.06704574 0.06738502
 0.06775627 0.06816503 0.06861039 0.0690906 0.06960224 0.07013292 0.07067618 0.07121157 0.07173007 0.07220854
 0.0726371 0.07299552 0.07327659 0.07346712 0.07356626 0.07356885 0.07348039 0.07330082 0.07303916 0.07269654
 0.07228547 0.07180694 0.07127855 0.0707017 0.07009494 0.06945948 0.06880788 0.06814045 0.06746272 0.06677471
 0.06607947 0.06537708 0.06466972 0.06395689 0.06323843 0.06251379 0.06178168 0.06104258 0.06029631 0.05954415
 0.05878657 0.05802631 0.05726402 0.05650534 0.05575182 0.05501089 0.05428492 0.0535781 0.05289214 0.05222468
 0.05157614 0.05093846 0.05031123 0.0496842 0.04905704 0.04842328 0.04778354 0.0471391 0.04649102 0.04584464
 0.04519957 0.04455771 0.04391757 0.04327685 0.04263573 0.0419933 0.04135061 0.04070944 0.04006671 0.03942319
 0.03876861 0.0381 0.03740567 0.0366808 0.0359235 0.03513042 0.03431756 0.03348475 0.03266225 0.03185182
 0.03108392 0.03035954 0.02969571 0.0290912 0.02854577 0.02805676 0.02761364 0.02721392 0.02684599 0.02650773
 0.02619121 0.02589186 0.02560285 0.02531466 0.02501836 0.02470181 0.02435549 0.02397116 0.02354228 0.02306884
 0.02254809 0.02198901 0.02139136 0.02077215 0.02013259 0.01949269 0.01885392 0.01822952 0.01761974 0.01702681
 0.01645006 0.01588571 0.01533334 0.01478977 0.01425411 0.013723 0.01319427 0.01266269 0.01212569 0.01157799
 0.01101749 0.0104412 0.009845752 0.009228818 0.008586255 0.007914892 0.007215906 0.006487013 0.005740025 0.004975465
 0.004211446 0.003450246 0.002703545 0.001972514 0.001258189 0.000560593 -0.0001212401 -0.0007867047 -0.001431111 -0.002053906
 -0.002649371 -0.00321907 -0.003763853 -0.004286849 -0.004794613 -0.005288896 -0.005775407 -0.006252728 -0.006722406 -0.007179954
 -0.007623611 -0.008047766 -0.00844955 -0.008825528 -0.009173688 -0.009494558 -0.009787716 -0.01005546 -0.01029817 -0.0105162
 -0.01070972 -0.01087584 -0.01101433 -0.01112051 -0.01119433 -0.01123263 -0.01123678 -0.0112102 -0.01115636 -0.01108646
 -0.01100439 -0.01092354 -0.01084463 -0.01077513 -0.01071162 -0.01065344 -0.01059763 -0.01054055 -0.01048575 -0.01043261
 -0.01038978 -0.01036034 -0.01034754 -0.01035419 -0.01037069 -0.01039713 -0.01041625 -0.01042678 -0.0104156 -0.01038226
 -0.01032334 -0.0102395 -0.01013485 -0.01001039 -0.009872952 -0.009723078 -0.009565981 -0.009401502 -0.009231446 -0.009056358
 -0.008876968 -0.008695972 -0.00851594 -0.008339725 -0.008170602 -0.008007933 -0.007852732 -0.007701857 -0.007554063 -0.007409336
 -0.007266627 -0.007131817 -0.007005438 -0.006893198 -0.006795888 -0.006710346 -0.006636251 -0.006563315 -0.00649114 -0.006411821
 -0.006325728 -0.00623113 -0.006127272 -0.006011823 -0.005881849 -0.005730097 -0.005554692 -0.005348985 -0.005114992 -0.004852129
 -0.00456313 -0.004250342 -0.003913256 -0.003551888 -0.003166691 -0.002755807 -0.002329326 -0.001887333 -0.001448275 -0.001014522
 -0.0005999717 -0.0002063286 0.0001660609 0.000517256 0.0008535608 0.001175045 0.001484682 0.001782105 0.002066813 0.002338949
 0.002599194 0.00284674 0.00308096 0.003299178 0.003496586 0.003673147 0.003825273 0.003959314 0.00407809 0.004188275
 0.004295093 0.004397027 0.004495331 0.004584493 0.004662614 0.004731327 0.004789744 0.004847805 0.004906302 0.004971936
 0.005044937 0.005122303 0.005203742 0.005284388 0.005365473 0.005450467 0.00554161 0.005648619 0.005771163 0.005914147
 0.00607405 0.006247763 0.006432252 0.006622798 0.006819022 0.007018873 0.007223902 0.007434181 0.0076518 0.007878015
 0.008111794 0.008354737 0.008596103 0.008835754 0.00905518 0.009252762 0.009415494 0.009542818 0.009637531 0.009701163
 0.009750497 0.009788184 0.009837004 0.009898382 0.009990239 0.01010956 0.01025977 0.01043414 0.010624 0.01082413
 0.011026 0.01122608 0.0114206 0.01160321 0.01176997 0.01191641 0.01203806 0.01214279 0.01223001 0.01231602
 0.01240341 0.01250111 0.01261061 0.01272925 0.01285695 0.01298836 0.01312348 0.01326053 0.0134001 0.01354397
 0.01369371 0.0138552 0.01403033 0.01422662 0.01444391 0.01468614 0.0149499 0.01523384 0.01553241 0.01584145
 0.01615591 0.01647171 0.01678781 0.01710251 0.0174183 0.01773622 0.01805398 0.0183725 0.01868044 0.01897717
 0.01924936 0.0194963 0.01971099 0.01989379 0.02004608 0.02016977 0.0202749 0.02036573 0.02046129 0.02056659
 0.02070249 0.02087156 0.02108725 0.02134924 0.02166265 0.02202488 0.02243715 0.02289155 0.02338744 0.02390705
 0.02444755 0.02498038 0.02549989 0.02597726 0.02640568 0.02677919 0.02709457 0.02738061 0.02763874 0.02791077
 0.02819761 0.02852164 0.02888075 0.0292737 0.02969846 0.03014761 0.03062 0.03111114 0.03161611 0.03212808
 0.03263459 0.03312212 0.03357222 0.03396702 0.03429241 0.03453324 0.03469403 0.0347686 0.03478372 0.03474205
 0.03467916 0.03460057 0.03453354 0.03448149 0.03445813 0.03446443 0.03450355 0.03457529 0.03467758 0.03481015
 0.03497096 0.0351592 0.03537196 0.03560633 0.03585451 0.03611279 0.03637193 0.03662867 0.03687726 0.0371111
 0.03732412 0.03750857 0.03765495 0.03777282 0.037856 0.03794761 0.0380553 0.0382232 0.03846681 0.03875745
 0.03909697 0.03941536 0.03970847 0.0399456 0.04012745 0.04026035 0.04034694 0.04040595 0.04043986 0.040468
 0.04049081 0.0405194 0.0405522 0.04059117 0.04063564 0.04068512 0.04074055 0.04080255 0.04087166 0.04094817
 0.04103309 0.04112614 0.04123124 0.04134906 0.0414839 0.04163697 0.04180791 0.04199717 0.04219973 0.04241539
 0.04263467 0.04285645 0.0430629 0.04325134 0.04339521 0.04349246 0.04351915 0.04347885 0.04336469 0.04319006
 0.04297172 0.0427294 0.04249423 0.04227689 0.04210075 0.04195561 0.04184454 0.0417475 0.04165663 0.04156101
 0.04145367 0.041343 0.04122669 0.04113249 0.04106262 0.04104471 0.04108103 0.04116734 0.04130184 0.04145055
 0.04161235 0.04176189 0.04190305 0.04203815 0.04217033 0.04230997 0.04245535 0.04260803 0.04276606 0.0429267
 0.04309135 0.04326066 0.04343475 0.0436156 0.04379658 0.04397645 0.04414604 0.04430174 0.04444237 0.04456563
 0.04468293 0.04479487 0.04491528 0.04504527 0.04518688 0.04533962 0.04549305 0.04564639 0.04578894 0.04592132
 0.0460403 0.04614732 0.04624418 0.04633298 0.04641757 0.04650149 0.04659049 0.04668771 0.04679862 0.04692226
 0.04706093 0.04720818 0.04736281 0.04751622 0.047666 0.04780566 0.04793342 0.04804697 0.04814544 0.04823216
 0.04830713 0.04838037 0.0484525 0.04853599 0.04863011 0.0487369 0.04885231 0.0489607 0.04905812 0.04912496
 0.04916173 0.04916046 0.04912276 0.0490486 0.04893626 0.04878296 0.04859148 0.04835916 0.04810163 0.04782353
 0.04754157 0.04726349 0.0469886 0.04672005 0.04644063 0.04614892 0.04582901 0.04547939 0.0450992 0.04468888
 0.04426112 0.04381632 0.04336429 0.04290294 0.04242785 0.04193787 0.04142439 0.0408948 0.04035625 0.03982297
 0.03931749 0.03884694 0.03842876 0.03805511 0.03772808 0.03743251 0.03716306 0.03690659 0.0366588 0.03640907
 0.036155 0.03588799 0.03560611 0.0353098 0.03499838 0.03469326 0.03439478</values></Ydata></AB><ScSm><Ydata ylabel="Single channel"><values byteorder="INTEL" format="FLOAT32" numvalues="1814"> 0.08482008 0.08492497 0.08504564 0.08519259 0.08535942 0.08552826 0.08568206 0.0858148 0.08593048 0.08603288
 0.08612543 0.08622235 0.0863459 0.08650458 0.08668073 0.08684326 0.08697037 0.08706729 0.08716671 0.08729869
 0.08744988 0.08756262 0.08758745 0.08753666 0.08747944 0.08748113 0.08755866 0.08771121 0.08796075 0.08829357
 0.08857423 0.08863164 0.08847421 0.08831973 0.08835463 0.0885462 0.0887337 0.08880609 0.08874518 0.08860911
 0.08855543 0.08879325 0.08939447 0.09013769 0.0905762 0.09029646 0.08919259 0.08761312 0.08627793 0.08590438
 0.0866915 0.08809976 0.08925422 0.0896513 0.08943509 0.08902536 0.08867753 0.08847315 0.08851541 0.08891473
 0.08960883 0.09028812 0.09051517 0.09001126 0.08896987 0.08802602 0.08773959 0.08815973 0.08901274 0.09003441
 0.09072936 0.09012623 0.08763443 0.08434781 0.08270822 0.0842542 0.08801295 0.09151101 0.09302497 0.09249659
 0.09082602 0.08907484 0.08818118 0.08863609 0.09016442 0.09200045 0.09349816 0.09430447 0.09419544 0.09317861
 0.09170724 0.09049092 0.09010061 0.09080214 0.0924487 0.09431763 0.09539659 0.09517945 0.09404676 0.09277007
 0.0919416 0.09194142 0.09296672 0.09479982 0.09682818 0.09849781 0.09960265 0.1001612 0.1002776 0.1001216
 0.09984727 0.09957042 0.09948327 0.09975684 0.1002083 0.1003367 0.09987914 0.09916611 0.09878898 0.09899098
 0.0994579 0.09969889 0.099534 0.0990079 0.09789342 0.09579994 0.09297432 0.0904282 0.08895174 0.08855911
 0.08912994 0.09074499 0.09290785 0.09430385 0.09412121 0.09314549 0.09291178 0.0940448 0.09586453 0.09737974
 0.09825183 0.09885031 0.09967197 0.1007792 0.1016575 0.1015936 0.1004019 0.09888077 0.09828565 0.09911629
 0.1006304 0.1017577 0.1022257 0.1025336 0.1030674 0.1035388 0.1032374 0.1017918 0.09980947 0.09866543
 0.09936967 0.1015675 0.1037237 0.1042847 0.1027819 0.1000832 0.09766464 0.09655108 0.0969153 0.09849519
 0.1009598 0.1037568 0.1060272 0.1070407 0.1067006 0.1055207 0.1040668 0.1024324 0.1004387 0.09845069
 0.09759703 0.09871636 0.1012809 0.1038135 0.1052521 0.1055433 0.1050468 0.1038191 0.1017 0.09903964
 0.0970282 0.09681818 0.09821537 0.09972106 0.1001247 0.09963715 0.09921462 0.09924996 0.09935486 0.09915558
 0.09884653 0.0989086 0.09949419 0.1002348 0.1006337 0.1005258 0.1001171 0.09969155 0.09934334 0.09892429
 0.09827253 0.09756808 0.09732529 0.09785189 0.09883602 0.09965916 0.1000069 0.09999669 0.09980725 0.09937753
 0.0985173 0.09728497 0.09617279 0.09576049 0.09615265 0.09689902 0.0974744 0.09767027 0.09754401 0.09722255
 0.09681706 0.09639289 0.09598237 0.095659 0.0955263 0.09557945 0.09566552 0.09563471 0.09546186 0.09519342
 0.09485199 0.09443529 0.09397392 0.09355338 0.09326369 0.09312631 0.09308602 0.09306864 0.09301569 0.09287615
 0.09262265 0.09228745 0.09194128 0.09163013 0.09135933 0.09113052 0.09095776 0.0908416 0.09074948 0.09063625
 0.0904797 0.09028731 0.09007248 0.08983979 0.08959566 0.08935788 0.08914915 0.0889848 0.08886014 0.08874968
 0.08863549 0.08853111 0.08845142 0.0883678 0.0882303 0.0880322 0.08782004 0.08764198 0.08751126 0.08741248
 0.08731876 0.08720036 0.08703303 0.08681479 0.08658329 0.08640435 0.08632337 0.08633079 0.08638377 0.08644302
 0.08647794 0.08646566 0.08640933 0.08633829 0.08627387 0.08620957 0.08613116 0.08604351 0.08597356 0.08595042
 0.08597691 0.08602142 0.08604578 0.08603512 0.08599694 0.08594997 0.08592014 0.08592169 0.08593217 0.0859109
 0.08585127 0.08579208 0.08576928 0.08577537 0.08577289 0.08573708 0.08567864 0.08562763 0.08559988 0.08558519
 0.08556647 0.08554035 0.08551592 0.08549841 0.08547598 0.08542356 0.08532753 0.08520641 0.08509567 0.08501206
 0.08494537 0.08488306 0.08482652 0.08477953 0.08473316 0.08466954 0.08457939 0.08447234 0.08436482 0.08425798
 0.08413546 0.08398606 0.08381999 0.08365799 0.08351077 0.08337176 0.08322521 0.08305965 0.08287547 0.0826804
 0.08247931 0.08227032 0.08204968 0.08181934 0.0815931 0.08139271 0.08122835 0.08108137 0.08091644 0.08071521
 0.08049335 0.08028334 0.08010544 0.0799564 0.07982139 0.07969286 0.07957709 0.07948491 0.07942046 0.07938078
 0.07936156 0.07936096 0.07938227 0.07943586 0.07953244 0.07966836 0.0798212 0.0799681 0.08010624 0.08025025
 0.08041252 0.08059248 0.08078302 0.08097941 0.08118136 0.08139066 0.08160587 0.08181797 0.08201564 0.08219741
 0.08237402 0.08255704 0.08275148 0.08295862 0.08317536 0.08338898 0.08358468 0.08376393 0.08394628 0.08414807
 0.08436622 0.08458768 0.08480714 0.08502991 0.08526191 0.08550459 0.08575916 0.08602997 0.0863214 0.08663192
 0.08695218 0.08727013 0.08758057 0.0878913 0.08821807 0.08857179 0.08894981 0.08933891 0.08972584 0.09010664
 0.09048718 0.09087519 0.09127283 0.0916792 0.09209792 0.09253479 0.09298734 0.09344352 0.0938932 0.09433617
 0.09477782 0.0952221 0.09567028 0.0961227 0.09658043 0.09704477 0.09751152 0.09796683 0.09839675 0.09880339
 0.09920563 0.09962156 0.1000545 0.1004934 0.1009197 0.101318 0.1016899 0.1020559 0.1024345 0.1028208
 0.1031955 0.1035523 0.1039063 0.1042717 0.1046396 0.1049834 0.1052866 0.1055596 0.1058279 0.1061022
 0.106368 0.1066045 0.1068086 0.1069965 0.1071846 0.1073777 0.1075761 0.1077849 0.1080048 0.1082223
 0.1084186 0.1085903 0.1087506 0.1089131 0.1090807 0.1092506 0.1094198 0.1095872 0.1097549 0.1099267
 0.1101035 0.110285 0.1104796 0.1107023 0.1109583 0.1112379 0.1115335 0.1118515 0.1121987 0.112565
 0.1129327 0.1133 0.1136813 0.1140784 0.1144668 0.1148206 0.1151417 0.115451 0.1157615 0.1160758
 0.1164044 0.1167645 0.1171607 0.1175763 0.1179848 0.1183651 0.1187122 0.1190402 0.1193695 0.1197045
 0.1200276 0.1203194 0.12058 0.120826 0.1210716 0.1213146 0.1215373 0.1217171 0.1218382 0.121891
 0.121863 0.121738 0.1215107 0.1211941 0.1208027 0.1203322 0.1197612 0.1190719 0.118259 0.1173214
 0.1162526 0.1150523 0.1137493 0.112418 0.1111721 0.110136 0.1094091 0.109044 0.1090447 0.1093713
 0.1099411 0.1106285 0.11128 0.1117422 0.1118942 0.111671 0.1110708 0.1101451 0.1089782 0.1076682
 0.1063152 0.1050072 0.1038117 0.1027901 0.1020333 0.1016809 0.1018941 0.1027976 0.1044249 0.1066848
 0.1093605 0.1121578 0.1148009 0.1171219 0.1190872 0.1207543 0.122211 0.123537 0.1247894 0.1259958
 0.1271544 0.1282468 0.1292582 0.1301852 0.1310303 0.1317906 0.1324511 0.1329821 0.1333474 0.1335268
 0.133539 0.133448 0.1333464 0.13332 0.1334065 0.1335666 0.1336907 0.1336428 0.1333147 0.1326709
 0.1317845 0.1308681 0.1302707 0.1303945 0.1315244 0.1336653 0.1365175 0.1396247 0.1425804 0.1451456
 0.1472464 0.1489181 0.1502538 0.15136 0.1523215 0.1531889 0.1539909 0.1547493 0.155482 0.1561995
 0.1569026 0.1575868 0.1582488 0.1588887 0.1595067 0.1601005 0.16067 0.1612214 0.1617669 0.1623168
 0.1628726 0.1634274 0.163977 0.1645255 0.1650761 0.1656224 0.1661537 0.1666688 0.1671759 0.1676834
 0.1681947 0.1687087 0.1692192 0.1697156 0.1701902 0.1706452 0.1710898 0.171532 0.1719749 0.1724199
 0.1728675 0.1733165 0.1737628 0.1742022 0.174632 0.1750521 0.1754634 0.1758672 0.1762653 0.1766599
 0.1770533 0.1774484 0.1778465 0.1782462 0.1786449 0.1790438 0.1794481 0.1798604 0.1802757 0.1806852
 0.1810853 0.1814804 0.1818772 0.1822797 0.182688 0.1830998 0.1835112 0.1839179 0.1843163 0.1847053
 0.1850875 0.1854684 0.1858525 0.1862386 0.1866216 0.1869981 0.1873701 0.187741 0.1881108 0.1884773
 0.1888407 0.1892029 0.1895635 0.1899206 0.1902744 0.190627 0.1909788 0.1913284 0.1916764 0.1920255
 0.1923775 0.1927315 0.1930856 0.1934385 0.1937904 0.1941422 0.1944932 0.1948423 0.1951905 0.1955397
 0.1958901 0.19624 0.1965897 0.196941 0.1972953 0.1976514 0.1980058 0.1983557 0.1987026 0.1990521
 0.199408 0.1997684 0.2001286 0.2004859 0.2008401 0.201193 0.2015454 0.2018938 0.2022347 0.2025724
 0.2029171 0.2032747 0.2036423 0.2040129 0.2043807 0.204744 0.2051052 0.2054664 0.2058266 0.2061847
 0.206543 0.2069033 0.2072634 0.2076201 0.2079736 0.2083267 0.2086836 0.2090454 0.2094077 0.2097647
 0.2101153 0.2104602 0.2107987 0.2111314 0.2114636 0.2118009 0.212146 0.2124993 0.2128583 0.2132159
 0.2135678 0.2139162 0.2142642 0.2146093 0.2149485 0.2152838 0.2156217 0.215968 0.2163237 0.2166821
 0.2170355 0.2173835 0.2177302 0.2180775 0.2184248 0.218771 0.2191145 0.2194557 0.2197978 0.2201414
 0.2204819 0.220818 0.2211538 0.2214917 0.2218322 0.2221801 0.2225403 0.2229103 0.2232837 0.2236562
 0.2240255 0.2243931 0.2247644 0.2251413 0.225519 0.2258941 0.2262688 0.2266441 0.2270194 0.2273959
 0.2277733 0.2281477 0.2285199 0.2288951 0.2292735 0.2296508 0.2300261 0.2303993 0.2307677 0.2311327
 0.231501 0.2318738 0.232248 0.2326234 0.2329985 0.2333688 0.2337359 0.2341057 0.234478 0.2348499
 0.2352236 0.2355988 0.2359697 0.2363371 0.2367098 0.2370895 0.2374721 0.2378552 0.2382331 0.2385982
 0.2389564 0.2393212 0.2396926 0.2400603 0.2404196 0.2407688 0.2411068 0.2414423 0.2417846 0.2421232
 0.2424292 0.2426417 0.2426046 0.2419937 0.2402739 0.2367086 0.2305045 0.221132 0.2086466 0.1937731
 0.1777016 0.1617194 0.1468667 0.133798 0.1228628 0.1142425 0.1080441 0.104385 0.1034639 0.10566
 0.1116643 0.1220714 0.1358709 0.1491385 0.1564968 0.155184 0.1475576 0.1389567 0.1333515 0.1313857
 0.1317181 0.1330189 0.1347597 0.137068 0.1402692 0.1444124 0.1492191 0.1545464 0.1606586 0.1678267
 0.1758026 0.1839084 0.1916059 0.1988461 0.2058705 0.2127894 0.219418 0.2254541 0.2307122 0.2351881
 0.2389977 0.2423016 0.245241 0.2479061 0.2503548 0.2526208 0.2546703 0.2563807 0.257611 0.2583155
 0.258599 0.2586691 0.2587211 0.258854 0.2590827 0.2593983 0.2597959 0.2602662 0.2607982 0.2613829
 0.2620023 0.2626306 0.2632503 0.263854 0.2644347 0.2649897 0.2655225 0.2660338 0.2665185 0.2669767
 0.2674128 0.2678281 0.2682274 0.268623 0.2690226 0.2694221 0.2698132 0.2701892 0.2705448 0.2708785
 0.2711933 0.2714918 0.2717775 0.2720584 0.2723411 0.2726237 0.2729016 0.2731748 0.2734435 0.2737072
 0.2739693 0.2742325 0.2744934 0.2747483 0.2750001 0.2752537 0.2755095 0.2757659 0.276021 0.2762737
 0.2765262 0.2767817 0.2770388 0.2772924 0.2775409 0.2777879 0.2780398 0.2783035 0.2785805 0.2788625
 0.2791413 0.2794197 0.279704 0.2799931 0.2802815 0.2805691 0.2808572 0.2811458 0.2814363 0.2817299
 0.2820201 0.282293 0.2825398 0.2827656 0.2829877 0.2832232 0.2834749 0.2837321 0.2839869 0.2842417
 0.284501 0.2847652 0.2850338 0.2853045 0.2855738 0.2858445 0.2861274 0.2864285 0.2867424 0.2870609
 0.2873806 0.2877006 0.2880225 0.2883508 0.2886856 0.2890175 0.2893361 0.2896433 0.2899573 0.2903016
 0.2906839 0.2910839 0.2914698 0.2918296 0.2921764 0.2925292 0.2928999 0.2932853 0.2936561 0.2939756
 0.2942495 0.2945414 0.2949141 0.2953665 0.2958412 0.296285 0.2966867 0.297065 0.2974372 0.2978035
 0.2981511 0.298469 0.2987646 0.2990748 0.2994445 0.2998796 0.3003335 0.3007571 0.3011414 0.3015022
 0.3018523 0.302198 0.3025286 0.3027983 0.3029712 0.3031051 0.3033425 0.3037775 0.3043538 0.3049244
 0.3053958 0.3057842 0.3061437 0.3064939 0.3068289 0.3071263 0.3073074 0.3072781 0.3070977 0.307041
 0.3073735 0.3080804 0.3088988 0.3095872 0.3100878 0.3104655 0.3107934 0.3111039 0.3113722 0.3115209
 0.3115001 0.3114058 0.311468 0.3118445 0.3124433 0.3130217 0.3134417 0.313751 0.3140491 0.3143728
 0.3146772 0.3148202 0.3146246 0.314118 0.3136939 0.3138575 0.3147365 0.3159332 0.3169222 0.317519
 0.3178836 0.3181502 0.3182297 0.3179734 0.3173557 0.3164862 0.3156567 0.3153794 0.316051 0.3174454
 0.3188099 0.3196193 0.3200251 0.3204715 0.3211169 0.3217707 0.3222047 0.3223558 0.322284 0.3220388
 0.3216366 0.3212138 0.3211189 0.3216683 0.3227791 0.3239855 0.3248762 0.3254197 0.3257782 0.3258344
 0.3250669 0.3231677 0.3208538 0.3196921 0.3207102 0.3233155 0.3259376 0.3275818 0.3283748 0.3288335
 0.3291874 0.3293138 0.3287237 0.3267242 0.3233645 0.3202611 0.3196179 0.3220568 0.3259196 0.3288721
 0.3296864 0.3284952 0.3261974 0.324041 0.3231832 0.3240631 0.3262123 0.328733 0.3308412 0.3320814
 0.3323555 0.3318784 0.3310865 0.3305179 0.3304763 0.3305756 0.3299781 0.3284829 0.3269203 0.3258796
 0.32463 0.3223122 0.3198406 0.3193353 0.3214943 0.3245864 0.3264631 0.3267585 0.3265014 0.3260406
 0.3241963 0.3198092 0.313877 0.3095282 0.3093415 0.3127759 0.3167096 0.3185017 0.3180751 0.3170397
 0.3164065 0.315503 0.3129676 0.3086691 0.3044464 0.3024704 0.3028429 0.3034942 0.3025019 0.2994688
 0.294525 0.2878017 0.2809733 0.2776088 0.2800072 0.2862971 0.2920727 0.2942069 0.2918553 0.2851262
 0.2753143 0.2661876 0.2623206 0.2649 0.270336 0.2737061 0.2726105 0.2673097 0.2587327 0.2479936
 0.2373812 0.2301181 0.2283139 0.231306 0.2358609 0.2376866 0.233646 0.2242068 0.2139779 0.208245
 0.208067 0.2096237 0.2087256 0.2047387 0.1997541 0.1956624 0.1930649 0.1917053 0.1908154 0.1897044
 0.1883156 0.1862929 0.1819458 0.174178 0.1655112 0.1607969 0.1621657 0.1672247 0.1728079 0.1781242
 0.183088 0.1860628 0.1856447 0.1836036 0.1838152 0.1881745 0.1947925 0.2003991 0.2036648 0.2057575
 0.2081201 0.2105854 0.2122306 0.2135583 0.216535 0.2220805 0.2285864 0.2336402 0.2364384 0.2378113
 0.2386263 0.23906 0.239032 0.2385548 0.2377013 0.2366144 0.2354833 0.2343476 0.2330769 0.2316158
 0.2299305 0.227503 0.2233588 0.2173488 0.2112643 0.2076285 0.2070731 0.2079305 0.2086483 0.2089618
 0.2079435 0.2031211 0.1937195 0.1836313 0.178763 0.1813493 0.1882064 0.1943755 0.1970916 0.1961308
 0.1920875 0.1860818 0.1809896 0.180996 0.1883519 0.2009774 0.2142975 0.2250898 0.2326998 0.2372845
 0.2386128 0.2370122 0.2344545 0.2338237 0.236994 0.2436409 0.251525 0.2574547 0.2586359 0.2549942
 0.2508696 0.2523566 0.2610902 0.2719439 0.2786721 0.2805183 0.2812739 0.2833438 0.2856759 0.2870865
 0.2886253 0.2917143 0.2957062 0.2983702 0.2978533 0.2934479 0.28557 0.2762848 0.2690417 0.2661071
 0.2663403 0.2667765 0.2658134 0.2632563 0.2584334 0.2512286 0.244692 0.2433654 0.2481272 0.2549338
 0.2594404 0.2610591 0.2617422 0.2623846 0.2617406 0.2585352 0.2537522 0.2502221 0.2498294 0.2516915
 0.2535244 0.2540687 0.2533253 0.2511789 0.2473628 0.2428953 0.2402115 0.2410618 0.2447092 0.2487016
 0.2511664 0.251978 0.252039 0.2521245 0.2524673 0.2529069 0.253269 0.2538881 0.2556345 0.2589417
 0.2629406 0.2661944 0.2683156 0.2702907 0.2731124 0.2765887 0.2796844 0.2817023 0.2829229 0.2842475
 0.2863563 0.2891265 0.2917414 0.2934054 0.2940977 0.2946591 0.2960181 0.2982996 0.3007981 0.3027835
 0.3041185 0.3051097 0.3060529 0.3070066 0.3077824 0.3081042 0.3079867 0.3079672 0.3087157 0.310343
 0.3122646 0.3137845 0.3146548 0.3150397 0.3151322 0.3149501 0.3144501 0.3137117 0.312949 0.3123624
 0.3120142 0.3118436 0.3117601 0.3117042 0.3116611 0.3116571 0.3117366 0.3119197 0.3121909 0.3125274
 0.312913 0.3133173 0.3136953 0.3140276 0.3143305 0.3146029 0.314785 0.3147897 0.3145544 0.3140443
 0.3132247 0.3120596 0.3105254 0.3085975 0.3062485 0.303539 0.3007792 0.298567 0.2975425 0.2979863
 0.2996092 0.301725 0.3036475 0.3049871 0.305691 0.3059077 0.3058321 0.3056184 0.3053581 0.3050951
 0.304855 0.3046672 0.3045591 0.3045383 0.3045925 0.3047122 0.3049061 0.3051886 0.3055551 0.3059714
 0.3063821 0.3067306 0.3069751 0.3070951 0.3070851 0.3069414 0.3066503 0.3061917 0.3055608 0.3047822
 0.3038963 0.3029321 0.3018902 0.3007473 0.2994695 0.2980132 0.2963091 0.2942708 0.2918705 0.2892274
 0.2865735 0.2840866 0.2817692 0.2795143 0.2772541 0.2750065 0.2728086 0.2706593 0.2685318 0.2664046
 0.2642681 0.262116 0.2599389 0.2577244 0.2554646 0.2531608 0.2508163 0.2484273 0.2459857 0.2434839
 0.2409046 0.2381986 0.2352782 0.2320387 0.2283885 0.2242707 0.2196791 0.2146725 0.2093783 0.2039656
 0.1986043 0.1934406 0.1886004 0.1842 0.1803457 0.1771242 0.1745965 0.1727997 0.1717528 0.1714581
 0.171896 0.1730199 0.1747516 0.1769759 0.1795399 0.18227 0.1849986 0.1875908 0.1899748 0.1921667
 0.194256 0.1963372 0.1984424 0.2005399 0.2025821 0.2045366 0.2063773 0.2080742 0.2096073 0.2109843
 0.212238 0.2134114 0.2145389 0.2156317 0.2166774 0.2176587 0.218572 0.2194317 0.2202591 0.2210738
 0.2218897 0.2227181 0.223574 0.2244796 0.2254545 0.2265073 0.2276389 0.2288457 0.2301162 0.2314343
 0.2328 0.2342472 0.2358314 0.2375967 0.2395458 0.2416367 0.2438026 0.2459755 0.2480915 0.2500803
 0.2518649 0.2533812 0.2546089 0.2555813 0.2563621 0.2570085 0.2575502 0.2579916 0.2583223 0.2585284
 0.2586079 0.2585765 0.2584571 0.2582639 0.2580028 0.2576856 0.2573418 0.257017 0.2567559 0.2565789
 0.2564737 0.2564099 0.2563585 0.256301 0.2562283 0.256135 0.2560148 0.255869 0.2557152 0.255576
 0.255452 0.2553123 0.2551051 0.2547704 0.2542545 0.2535278 0.2525864 0.2514336 0.2500682 0.2484907
 0.2467137 0.2447658 0.2426891 0.2405243 0.2382921 0.2359903 0.2336074 0.2311406 0.2286197 0.2261155
 0.2237116 0.2214555 0.2193451 0.2173536 0.2154554 0.2136338 0.2118821 0.210197 0.2085728 0.2070077
 0.2055096 0.2040855 0.2027334 0.2014542 0.2002611 0.1991742 0.1982111 0.1973814 0.1966763 0.1960691
 0.195526 0.1950161 0.194526 0.1940792 0.1937221 0.1934644 0.1932472 0.1929875 0.1926447 0.1922392
 0.1918272 0.1914633 0.1911721 0.1909468 0.1907629 0.1905744 0.1903031 0.1898507 0.1891231 0.1880437
 0.1865718 0.1847274 0.182594 0.1803013 0.1780093 0.1758794 0.1740284 0.1725083 0.1713175 0.1704029
 0.169673 0.1690534 0.1685399 0.1681902 0.1680711 0.1681888 0.1684363 0.1686389 0.1687135 0.1687682
 0.1690046 0.1695381 0.1703276 0.1712334 0.1721068 0.1728531 0.1734419 0.1738793 0.1741854 0.1743876
 0.1744974 0.1744965 0.1743652 0.1741046 0.173721 0.1732209 0.1726224 0.1719365 0.17115 0.1702535
 0.1692586 0.1681696 0.1669766 0.1656769 0.1642627 0.1627208 0.1611153 0.1596553 0.1586239 0.1582265
 0.1584764 0.1591814 0.1600658 0.1609441 0.1617459 0.1623964 0.1628138 0.1630915 0.1635677 0.1646013
 0.1662631 0.1682525 0.1701089 0.1714989 0.1723097 0.172545 0.172252 0.1715291 0.1704707 0.1690967
 0.1674165 0.1655064 0.1634584 0.1613474 0.1592825 0.1573777 0.1556844 0.1542287 0.1530305 0.1520956
 0.1514846 0.150951 0.1490557 0.143667 0.1349809 0.1274843 0.1265734 0.132741 0.1409011 0.1458583
 0.1467269 0.1456861 0.1445413 0.1436764 0.1430193 0.1426306 0.1425551 0.1426969 0.1428554 0.1428137
 0.1424732 0.1418501 0.1408461 0.1390312 0.1356332 0.1298184 0.1213116 0.1109674 0.1005886 0.09197278
 0.08603141 0.08259802 0.08080104 0.07966882 0.07869005 0.07799289 0.07802431 0.07909152 0.08119104 0.08413421
 0.08768086 0.09152057 0.09523279 0.09841655 0.1008993 0.1027504 0.1040873 0.1049526 0.105369 0.105394
 0.1050938 0.1045285 0.1037609 0.1028284 0.1017181 0.1004163 0.09899186 0.09762336 0.09652379 0.09580304
 0.09540229 0.09518301 0.09505596 0.09499846 0.09499763 0.09503405 0.09509967 0.0952028 0.09536754 0.09562078
 0.09595363 0.09630924 0.09662714 0.09688111 0.09706925 0.09718902 0.09722096 0.09713946 0.09696677 0.09678896
 0.09664048 0.09638736 0.09582823 0.09494503 0.09400018 0.09336713 0.09327257 0.0936612 0.09426062 0.09478358
 0.09510477 0.09527519 0.09539281 0.0954641</values></Ydata></ScSm><ScRf><Ydata ylabel="Single channel"><values byteorder="INTEL" format="FLOAT32" numvalues="1820"> 0.07050687 0.07063401 0.07074913 0.07085255 0.07094749 0.07104278 0.07115079 0.07127841 0.0714204 0.07156223
 0.07168999 0.07179946 0.07189471 0.07197876 0.07205398 0.0721325 0.07223327 0.07236338 0.07250899 0.07264619
 0.07275677 0.0728417 0.0729256 0.07303507 0.07316151 0.07325546 0.07327271 0.07322435 0.07317209 0.07317202
 0.07323651 0.07336412 0.07357554 0.07386062 0.07410246 0.07415218 0.07401477 0.07387628 0.07389817 0.07405565
 0.0742134 0.07427631 0.07422721 0.0741138 0.0740677 0.07426364 0.07476117 0.07537509 0.07573275 0.0754889
 0.07455537 0.07322648 0.07210915 0.0718052 0.07247632 0.07366353 0.07463133 0.0749605 0.0747747 0.0744263
 0.07413027 0.07395762 0.07399622 0.07433616 0.07492164 0.07549115 0.07567697 0.07524501 0.07436022 0.07356109
 0.0733208 0.07367841 0.07439998 0.07526169 0.07584704 0.0753399 0.07324616 0.07048948 0.06912322 0.07043453
 0.07359718 0.07652944 0.07778795 0.07733168 0.07592234 0.07445324 0.07371014 0.07410032 0.07538871 0.07693306
 0.07819354 0.07887185 0.07877484 0.07790898 0.07666273 0.07563986 0.07532051 0.07592251 0.07731628 0.07889105
 0.07979625 0.07960994 0.07865602 0.07758537 0.07689615 0.07690641 0.07777903 0.07932824 0.0810388 0.08244624
 0.08337726 0.08384617 0.08394173 0.0838102 0.08358386 0.08336002 0.08329742 0.08353473 0.0839134 0.08401336
 0.08362153 0.08302337 0.0827159 0.08289854 0.08330403 0.0835195 0.08339246 0.08295667 0.08201863 0.08025286
 0.07787432 0.07573807 0.07450533 0.0741834 0.07467318 0.07604717 0.0778849 0.07907264 0.07892606 0.0781123
 0.07792689 0.07889219 0.08043118 0.08170959 0.08244691 0.08295889 0.08366512 0.0846155 0.08537258 0.08533327
 0.08434294 0.08307984 0.08260578 0.08333856 0.08464491 0.08561998 0.08603905 0.0863279 0.08681162 0.08724373
 0.08702175 0.08583292 0.08419535 0.08327676 0.08393069 0.08585086 0.08773284 0.08826104 0.08704235 0.08481609
 0.08283473 0.08196647 0.08235981 0.08379865 0.08600615 0.08850943 0.09057048 0.0915608 0.09139272 0.09050261
 0.08937549 0.08809216 0.08650057 0.08492316 0.08434416 0.08548917 0.0878922 0.09026672 0.09169334 0.09212971
 0.09188651 0.09100319 0.08933093 0.08718017 0.08561161 0.08565003 0.08711636 0.08867116 0.08923868 0.08901466
 0.0888567 0.08911392 0.08943534 0.08948715 0.08944964 0.089758 0.09054408 0.0914676 0.09207763 0.09222822
 0.09210917 0.09197824 0.09191537 0.09177682 0.09141444 0.09100784 0.09104624 0.09181447 0.09301284 0.09405972
 0.09466441 0.09494042 0.09505177 0.09492962 0.09438525 0.09347839 0.09269211 0.09258929 0.09326619 0.0942807
 0.0951226 0.09559342 0.09575369 0.09572841 0.09562448 0.09550391 0.09539691 0.0953733 0.09553319 0.09587242
 0.09624159 0.0964933 0.09660212 0.09661198 0.09654254 0.09639321 0.09620214 0.09606028 0.09605421 0.09619682
 0.09642762 0.09667376 0.09688118 0.09700015 0.09699981 0.0969103 0.09680606 0.09673686 0.09670678 0.09671645
 0.09678312 0.09690725 0.09704921 0.09715928 0.09721975 0.09724502 0.0972498 0.09723566 0.09720703 0.09718409
 0.0971944 0.09725329 0.09734702 0.09744222 0.09752588 0.09762409 0.0977544 0.09787621 0.09792687 0.09790048
 0.09785642 0.09785408 0.09790622 0.09798993 0.09807418 0.09812951 0.09812983 0.09807006 0.09799106 0.09796864
 0.09805615 0.09824525 0.09848933 0.09874263 0.09896631 0.09913187 0.09924292 0.0993318 0.09941944 0.09949692
 0.09955269 0.09960151 0.0996803 0.09981962 0.1000148 0.1002252 0.1004079 0.1005468 0.1006496 0.1007393
 0.1008516 0.1010045 0.1011615 0.10126 0.1012922 0.1013225 0.10141 0.1015413 0.1016553 0.1017169
 0.1017478 0.1017937 0.1018764 0.1019816 0.1020849 0.1021817 0.1022895 0.1024202 0.1025506 0.102629
 0.1026255 0.10257 0.1025243 0.1025208 0.1025477 0.1025891 0.10265 0.1027352 0.1028221 0.1028752
 0.1028829 0.1028707 0.1028706 0.1028839 0.1028831 0.102849 0.1027925 0.1027404 0.1027099 0.1027009
 0.1027006 0.1026917 0.1026606 0.1026046 0.1025314 0.102452 0.1023729 0.1022993 0.1022469 0.1022402
 0.1022787 0.1023106 0.1022626 0.1021083 0.101897 0.101708 0.1015829 0.1015009 0.1014115 0.1012817
 0.1011187 0.1009542 0.1008129 0.1006962 0.1005897 0.1004819 0.1003774 0.1002964 0.1002563 0.1002437
 0.1002133 0.1001275 0.0999942 0.09985685 0.09975143 0.09968311 0.0996364 0.09959465 0.09955394 0.09952672
 0.09952589 0.09954143 0.09954569 0.09952729 0.099506 0.09951026 0.09955506 0.09964105 0.09975316 0.09985729
 0.09992188 0.0999524 0.09998788 0.1000582 0.1001586 0.1002701 0.100387 0.1005159 0.1006593 0.1008117
 0.1009707 0.101144 0.1013422 0.1015658 0.1018006 0.1020276 0.1022399 0.1024501 0.1026806 0.1029434
 0.1032302 0.10352 0.1037969 0.1040607 0.1043228 0.1045929 0.1048712 0.1051554 0.1054492 0.1057599
 0.1060865 0.1064178 0.1067433 0.1070626 0.1073821 0.1077062 0.108033 0.1083615 0.108701 0.1090658
 0.1094522 0.1098263 0.1101521 0.11043 0.1106984 0.1109963 0.1113327 0.1116863 0.1120228 0.1123178
 0.1125792 0.1128429 0.1131359 0.1134484 0.1137556 0.1140594 0.1143908 0.1147669 0.1151576 0.1155046
 0.1157745 0.1159906 0.1162068 0.1164524 0.1167097 0.1169479 0.1171651 0.1173837 0.117615 0.1178491
 0.1180812 0.1183268 0.1185996 0.1188855 0.1191533 0.1193878 0.1195986 0.1197979 0.1199815 0.1201333
 0.1202454 0.1203333 0.1204296 0.1205582 0.1207115 0.1208625 0.1209984 0.1211337 0.121288 0.1214666
 0.121667 0.1218913 0.1221395 0.1223976 0.1226502 0.1229059 0.1231904 0.1235046 0.1238058 0.1240496
 0.1242398 0.1244184 0.1246133 0.1248239 0.1250493 0.1253022 0.1255887 0.1258935 0.1261931 0.1264761
 0.1267517 0.1270424 0.1273608 0.1276862 0.1279739 0.1281976 0.1283764 0.1285547 0.1287652 0.129014
 0.129288 0.1295694 0.1298431 0.1300958 0.1303089 0.1304628 0.1305584 0.1306227 0.1306803 0.1307192
 0.1306978 0.1305809 0.1303573 0.1300235 0.1295674 0.1289819 0.1282927 0.1275677 0.1269015 0.1263862
 0.1260895 0.1260457 0.1262563 0.1266887 0.127275 0.1279214 0.1285286 0.1290076 0.1292846 0.1293088
 0.1290673 0.1285912 0.1279399 0.1271766 0.1263561 0.1255224 0.1247095 0.1239563 0.123335 0.1229605
 0.1229608 0.1234293 0.124392 0.1257895 0.1274713 0.1292257 0.1308585 0.1322684 0.133457 0.1344776
 0.1353837 0.1362135 0.1369937 0.1377387 0.138449 0.1391193 0.1397486 0.1403385 0.1408859 0.1413809
 0.1418089 0.1421527 0.1424023 0.1425655 0.1426658 0.1427246 0.1427531 0.1427591 0.1427491 0.1427105
 0.1426027 0.1423767 0.1420077 0.1415142 0.1409636 0.1404759 0.1402172 0.1403616 0.1410181 0.1421633
 0.1436375 0.1452193 0.1467188 0.148021 0.1490791 0.1499012 0.1505382 0.1510575 0.1515115 0.1519284
 0.1523224 0.1527021 0.1530708 0.1534283 0.1537758 0.1541172 0.1544581 0.1548023 0.1551481 0.1554885
 0.155819 0.156145 0.1564791 0.1568289 0.1571882 0.157542 0.1578839 0.1582243 0.1585754 0.1589323
 0.1592771 0.1595999 0.1599084 0.1602181 0.1605413 0.1608827 0.1612355 0.1615818 0.1619052 0.1622047
 0.1624921 0.1627777 0.1630641 0.1633489 0.1636299 0.1639061 0.1641787 0.1644529 0.1647353 0.1650275
 0.1653208 0.1656013 0.1658615 0.1661083 0.1663554 0.1666107 0.1668706 0.1671276 0.1673819 0.1676412
 0.1679119 0.1681897 0.1684632 0.1687229 0.1689675 0.169204 0.1694425 0.1696909 0.1699491 0.1702102
 0.1704673 0.17072 0.1709715 0.1712243 0.1714778 0.1717307 0.171983 0.1722359 0.1724899 0.1727428
 0.172992 0.173238 0.1734855 0.1737397 0.1740009 0.174262 0.1745132 0.1747519 0.174984 0.1752159
 0.1754486 0.1756812 0.1759161 0.1761559 0.1763996 0.1766449 0.1768901 0.1771339 0.177375 0.1776153
 0.1778581 0.1781035 0.1783483 0.1785897 0.1788289 0.1790698 0.1793154 0.1795648 0.1798151 0.1800633
 0.1803075 0.1805473 0.1807842 0.1810196 0.181253 0.1814845 0.1817179 0.1819563 0.1821977 0.1824379
 0.1826759 0.1829136 0.1831521 0.1833919 0.1836327 0.1838719 0.1841066 0.1843369 0.1845653 0.1847951
 0.1850291 0.1852682 0.1855095 0.1857499 0.1859887 0.186226 0.1864623 0.1867 0.1869425 0.1871895
 0.1874377 0.1876836 0.1879252 0.1881618 0.1883956 0.188629 0.1888633 0.1891007 0.1893438 0.1895917
 0.1898405 0.1900875 0.1903324 0.1905751 0.1908175 0.1910629 0.191312 0.1915636 0.1918182 0.1920764
 0.1923358 0.1925954 0.1928582 0.1931239 0.1933873 0.1936446 0.1938981 0.1941509 0.1944023 0.194647
 0.1948783 0.1950965 0.1953111 0.1955309 0.1957555 0.1959828 0.1962143 0.1964501 0.1966876 0.1969263
 0.1971673 0.1974091 0.1976514 0.1978971 0.198148 0.1984017 0.1986562 0.1989107 0.1991649 0.1994207
 0.1996804 0.1999408 0.2001978 0.200453 0.2007102 0.2009696 0.2012312 0.2014966 0.2017639 0.2020311
 0.2023015 0.2025771 0.2028535 0.203126 0.2033942 0.2036581 0.2039184 0.2041807 0.2044488 0.2047217
 0.2049995 0.2052814 0.2055596 0.2058276 0.2060901 0.2063543 0.2066212 0.2068921 0.2071703 0.2074546
 0.207741 0.2080297 0.2083187 0.2086017 0.2088793 0.2091548 0.2094235 0.2096809 0.2099352 0.2101952
 0.2104607 0.2107305 0.211002 0.2112614 0.2114853 0.2116251 0.2115473 0.2109686 0.2094202 0.2062593
 0.2007952 0.1925654 0.1816162 0.168581 0.1545048 0.1405184 0.1275321 0.1161142 0.1065644 0.0990364
 0.09362076 0.09041989 0.08960788 0.09151575 0.09674726 0.1058223 0.1178558 0.1294149 0.1358045 0.134626
 0.1279524 0.1204453 0.1155579 0.1138411 0.1141237 0.1152496 0.1167627 0.1187768 0.1215743 0.1251923
 0.1293829 0.134021 0.1393394 0.1455767 0.1525198 0.15958 0.1662873 0.172597 0.1787192 0.184749
 0.1905215 0.1957722 0.2003444 0.2042397 0.2075591 0.2104387 0.2129993 0.2153202 0.217453 0.2194269
 0.2212109 0.2226948 0.2237532 0.2243476 0.2245748 0.2246219 0.2246621 0.2247812 0.2249896 0.2252767
 0.2256334 0.226048 0.2265107 0.2270165 0.2275544 0.2281071 0.2286621 0.2292114 0.2297432 0.2302485
 0.2307255 0.2311732 0.231592 0.231992 0.2323858 0.2327757 0.2331578 0.2335294 0.2338891 0.2342377
 0.2345821 0.2349256 0.2352596 0.2355727 0.2358635 0.2361391 0.2364087 0.23668 0.2369535 0.2372231
 0.2374845 0.2377393 0.2379892 0.2382344 0.2384768 0.2387175 0.2389551 0.2391921 0.2394351 0.2396833
 0.2399278 0.2401631 0.2403925 0.2406234 0.2408628 0.2411128 0.2413673 0.2416169 0.2418585 0.2420956
 0.2423335 0.2425779 0.2428324 0.2430953 0.2433623 0.2436312 0.2439006 0.2441693 0.2444412 0.2447219
 0.2450092 0.2452942 0.2455738 0.2458509 0.2461224 0.2463778 0.2466106 0.2468269 0.2470424 0.2472715
 0.2475173 0.247771 0.2480229 0.2482695 0.2485102 0.2487464 0.2489832 0.2492264 0.249479 0.2497433
 0.2500207 0.250306 0.2505901 0.2508703 0.2511522 0.2514401 0.2517344 0.2520337 0.2523335 0.2526243
 0.2529008 0.2531714 0.253457 0.2537753 0.2541239 0.2544774 0.2548079 0.2551095 0.2553989 0.255699
 0.2560242 0.2563679 0.256696 0.2569707 0.2571988 0.2574401 0.257751 0.258131 0.2585326 0.2589121
 0.2592592 0.2595867 0.2599075 0.2602196 0.2605091 0.2607663 0.2610038 0.2612611 0.261578 0.2619532
 0.2623418 0.2627024 0.2630305 0.263339 0.2636339 0.2639183 0.2641853 0.264401 0.2645372 0.2646433
 0.2648403 0.2652081 0.2656965 0.2661783 0.2665763 0.2669109 0.2672317 0.2675517 0.2678565 0.2681184
 0.2682675 0.268228 0.2680619 0.2680161 0.2683209 0.2689567 0.2696884 0.2703041 0.2707525 0.2710889
 0.2713779 0.2716538 0.2719012 0.2720522 0.2720575 0.271997 0.2720726 0.272424 0.2729701 0.2734983
 0.2738907 0.2741909 0.274482 0.2747909 0.2750772 0.2752177 0.2750582 0.2746255 0.2742699 0.2744368
 0.2752355 0.2763141 0.2772106 0.2777625 0.2781076 0.278363 0.2784542 0.2782577 0.2777557 0.2770402
 0.2763569 0.2761483 0.2767667 0.2780219 0.2792577 0.2800094 0.2804042 0.2808311 0.2814345 0.2820522
 0.2824827 0.2826666 0.2826547 0.2824894 0.2821811 0.2818482 0.2818016 0.2823258 0.283348 0.2844533
 0.2852753 0.285787 0.286136 0.2862211 0.2855804 0.2839414 0.2819407 0.2809622 0.2819069 0.2842458
 0.2865926 0.2880742 0.2888085 0.289256 0.2896208 0.2897923 0.2893351 0.2876323 0.2847247 0.2820435
 0.2815415 0.283768 0.2872519 0.2899265 0.2907062 0.2897097 0.2877361 0.2858959 0.2852155 0.2860805
 0.2880749 0.2904047 0.2923757 0.2935828 0.2939361 0.2936201 0.2930191 0.2926178 0.2926947 0.2929058
 0.2925012 0.2913014 0.2900433 0.2892447 0.288254 0.286316 0.2842584 0.2839758 0.2860859 0.2890356
 0.2909036 0.2913682 0.2913544 0.2911728 0.2897648 0.2860944 0.2810616 0.2774783 0.2776618 0.2811214
 0.2850457 0.2870676 0.2871375 0.2867187 0.2867258 0.2865545 0.2849792 0.2818907 0.2789729 0.2781971
 0.2796111 0.2812648 0.2813666 0.2795373 0.2758658 0.2704627 0.2649481 0.2627568 0.2661065 0.2732412
 0.2799832 0.2833386 0.2824369 0.2772909 0.269105 0.2615685 0.2591974 0.2631691 0.269946 0.2747006
 0.2751229 0.2715155 0.2648213 0.256212 0.2481135 0.2439088 0.2457841 0.2529698 0.2618754 0.2676384
 0.2666132 0.259299 0.2510642 0.2481 0.2515984 0.2569673 0.2592281 0.2576961 0.2549419 0.2532885
 0.253531 0.2553767 0.2577801 0.259765 0.2611734 0.2612874 0.2574556 0.2480239 0.2366917 0.2305464
 0.2327565 0.2400239 0.2479619 0.2555106 0.2624801 0.2663776 0.2650614 0.2609738 0.2595826 0.2635407
 0.2701597 0.2748462 0.2757658 0.2745906 0.273457 0.2724208 0.2705111 0.2684737 0.2688115 0.2726713
 0.2780502 0.2819669 0.2834501 0.2835495 0.2833413 0.2830204 0.2824461 0.2815847 0.2804737 0.2792433
 0.2781086 0.2771322 0.2761759 0.2751746 0.27407 0.2722078 0.2683855 0.2624132 0.2564563 0.2535465
 0.2543998 0.2569613 0.2593603 0.261267 0.2614268 0.256644 0.2459579 0.2343836 0.2294628 0.2339729
 0.2437152 0.2522253 0.2558813 0.2543512 0.2484047 0.239554 0.2315782 0.2298682 0.2372772 0.2511304
 0.2656248 0.2767373 0.2837571 0.2870298 0.2864041 0.2823796 0.277406 0.2749149 0.276958 0.2828581
 0.2897317 0.2938372 0.292199 0.2850523 0.2774719 0.276311 0.2834083 0.2931452 0.2986444 0.2989726
 0.2981444 0.2987474 0.2997268 0.2999061 0.3004599 0.3029388 0.3067218 0.3095312 0.3094691 0.3058159
 0.2990277 0.2912903 0.2861699 0.2857921 0.288495 0.2907339 0.2907147 0.2884337 0.2834548 0.2758724
 0.2690945 0.2680173 0.2734637 0.2809373 0.2857484 0.2873814 0.2880394 0.2886759 0.2878719 0.2842125
 0.2788019 0.2747861 0.2742732 0.2763453 0.2785666 0.2796201 0.2795194 0.2780838 0.2749382 0.2711416
 0.2693407 0.2714164 0.2764658 0.2816761 0.2849075 0.2860016 0.2859668 0.2856795 0.2854117 0.2849902
 0.2842302 0.2835419 0.2839617 0.2860524 0.2889354 0.2910951 0.2921342 0.2931021 0.2950143 0.2976053
 0.2997319 0.3006392 0.3006243 0.3006565 0.3015022 0.3030975 0.3046145 0.3051924 0.3047845 0.3043132
 0.3048429 0.3065646 0.3087186 0.3104625 0.3115787 0.312358 0.3131192 0.313936 0.3146018 0.3148032
 0.3145315 0.3143321 0.3148983 0.316353 0.3181053 0.3194499 0.3201451 0.3203798 0.3203776 0.3201841
 0.319773 0.3192188 0.3187033 0.3183799 0.318269 0.3182838 0.3183244 0.3183327 0.3183014 0.318271
 0.318303 0.3184269 0.3186188 0.3188407 0.3190714 0.3192855 0.3194461 0.319545 0.3196199 0.3196979
 0.3197432 0.3196812 0.3194497 0.3190063 0.3183092 0.3173186 0.316009 0.3143555 0.3123318 0.3100021
 0.3076863 0.3059996 0.3055966 0.3067523 0.3091418 0.3120246 0.3146657 0.3166527 0.3179365 0.3186736
 0.3190548 0.3192185 0.3192413 0.3191544 0.3189668 0.3186908 0.3183517 0.3179799 0.3176038 0.317249
 0.3169325 0.3166537 0.3163923 0.3161166 0.3157926 0.3153958 0.314919 0.314371 0.313763 0.3130919
 0.3123349 0.3114673 0.3104942 0.309465 0.308449 0.3074934 0.3065988 0.305729 0.3048413 0.3039019
 0.3028646 0.30166 0.3002619 0.2987841 0.2974543 0.296433 0.2956684 0.2949567 0.2941229 0.2931146
 0.2919614 0.2907103 0.2894025 0.2880682 0.286714 0.2853225 0.2838668 0.2823243 0.2806845 0.2789494
 0.2771269 0.2752293 0.2732787 0.2713022 0.2692978 0.2671957 0.2648561 0.2621105 0.2588152 0.2548856
 0.2503091 0.2451501 0.2395516 0.2337203 0.2278875 0.2222642 0.2170189 0.2122828 0.2081653 0.2047592
 0.202134 0.2003301 0.1993639 0.1992387 0.1999479 0.2014628 0.2037164 0.2065926 0.2099302 0.2135394
 0.2172219 0.2207935 0.2241205 0.2271598 0.2299557 0.2325751 0.2350371 0.237307 0.2393439 0.241134
 0.2426816 0.2439896 0.2450619 0.2459211 0.2466137 0.2471949 0.2477047 0.2481537 0.2485287 0.2488143
 0.2490154 0.249164 0.2493034 0.2494673 0.2496677 0.2499007 0.2501624 0.250464 0.2508299 0.25128
 0.2518176 0.252433 0.253111 0.2538362 0.2546007 0.2554145 0.2563069 0.2573156 0.2584742 0.2598
 0.2612869 0.2629003 0.2645726 0.2662062 0.2676912 0.2689366 0.2698939 0.2705578 0.27095 0.2710999
 0.2710335 0.270776 0.270357 0.2698092 0.2691618 0.2684378 0.2676534 0.2668151 0.2659191 0.2649621
 0.2639579 0.2629409 0.2619436 0.2609739 0.2600195 0.2590756 0.2581527 0.257259 0.2563896 0.2555382
 0.2547086 0.2539126 0.2531631 0.2524644 0.2518026 0.2511466 0.2504572 0.2496917 0.2488083 0.247779
 0.2465957 0.2452608 0.2437783 0.2421576 0.2404144 0.2385653 0.236623 0.2345953 0.2324865 0.2302992
 0.2280305 0.2256725 0.2232361 0.2207835 0.2184133 0.2162032 0.2141744 0.2123059 0.2105643 0.2089199
 0.207356 0.2058651 0.2044381 0.2030648 0.2017445 0.2004834 0.1992852 0.1981517 0.1970869 0.1961019
 0.1952196 0.1944656 0.1938443 0.1933332 0.1929051 0.1925442 0.1922489 0.1920419 0.1919633 0.1920225
 0.1921602 0.1922773 0.1923026 0.1922327 0.1921214 0.1920326 0.1919957 0.192004 0.1920334 0.192035
 0.1919201 0.1915859 0.1909494 0.1899483 0.1885416 0.1867412 0.1846333 0.1823633 0.1801031 0.1780118
 0.1762019 0.1747329 0.1736176 0.1728085 0.1722057 0.1717242 0.1713562 0.1711624 0.1712145 0.1715185
 0.1719504 0.1723057 0.1724802 0.1725887 0.1728625 0.173454 0.1743477 0.1754036 0.1764517 0.1773751
 0.1781294 0.1787054 0.1791134 0.1793916 0.179576 0.1796626 0.1796286 0.1794674 0.1791827 0.178785
 0.1783029 0.1777598 0.1771466 0.1764467 0.1756585 0.1747733 0.1737764 0.1726672 0.1714337 0.170046
 0.1685523 0.1671627 0.1661781 0.165832 0.1661699 0.1670256 0.168134 0.16931 0.1704788 0.1715479
 0.1723997 0.1730844 0.1739142 0.1752601 0.177238 0.1795889 0.1818561 0.1836822 0.1849324 0.1855965
 0.1857008 0.1853076 0.1844635 0.1831496 0.1813772 0.1792731 0.1769965 0.1746735 0.1724433 0.1704335
 0.1686954 0.1672533 0.166122 0.1652939 0.1648185 0.1644141 0.1624947 0.1567152 0.1472971 0.1391926
 0.1383502 0.145304 0.1544335 0.1599991 0.1610198 0.1599064 0.1586674 0.15774 0.157048 0.1566576
 0.1566199 0.1568312 0.1570728 0.1571118 0.1568457 0.1562913 0.1553326 0.1534803 0.1498543 0.1434969
 0.1340806 0.1225641 0.110986 0.1013775 0.09476013 0.09093554 0.08892061 0.08763276 0.08651374 0.08572353
 0.08577184 0.08699413 0.08936591 0.09266417 0.0966276 0.1009234 0.1050897 0.1086815 0.111508 0.113645
 0.115214 0.1162504 0.1167755 0.1168625 0.1165973 0.1160478 0.1152735 0.1143056 0.1131268 0.1117244
 0.1101807 0.1087025 0.1075338 0.1067981 0.1064241 0.1062488 0.1061661 0.106148 0.1061831 0.1062587
 0.106376 0.1065446 0.1067761 0.1070819 0.1074437 0.1077969 0.1080708 0.1082386 0.1083145 0.1083146
 0.1082195 0.1079867 0.107627 0.1072355 0.1068612 0.1063638 0.1055187 0.1043031 0.1030197 0.1021046
 0.1018211 0.1021024 0.1026346 0.10309 0.1033213 0.1033764 0.1033624 0.1033025 0.1031078 0.1026812
</values></Ydata></ScRf><Data_Parameters_AB><parameter name="DPF">1</parameter><parameter name="NPT">3497</parameter><parameter name="FXV">3996</parameter><parameter name="LXV">500</parameter><parameter name="CSF">1</parameter><parameter name="MXY">0.156982466578484</parameter><parameter name="MNY">-0.0779719352722168</parameter><parameter name="DAT">18/01/2024</parameter><parameter name="TIM">11:13:51.407 (GMT+1)</parameter><parameter name="DXU">WN</parameter></Data_Parameters_AB><AB__Qtest><MainReport name="Quality Test Report"><Header><Line><Legend>Test result ok/not ok [1/0]: </Legend><Value>0</Value></Line><Line><Legend>Method file: </Legend><Value>C:\Users\Public\Documents\Bruker\OPUS_8.2.28\QT\IRBT_v3_default.QT</Value></Line></Header><Matrix><Line><Legend></Legend><Legend>min</Legend><Legend>max</Legend><Legend>measured</Legend></Line><Line><Value>Absorption (X-Range 1):</Value><Value>0.400000</Value><Value>2.000000</Value><Value>0.216031</Value></Line><Line><Value>Noise (X-Range 4):</Value><Value></Value><Value>0.000300</Value><Value>0.000028</Value></Line><Line><Value>Signal/Noise (X-Range 2):</Value><Value>200.000000</Value><Value></Value><Value>246.778882</Value></Line><Line><Value>Signal/Noise (X-Range 3):</Value><Value>40.000000</Value><Value></Value><Value>73.042371</Value></Line><Line><Value>Water vapour (X-Range 5):</Value><Value></Value><Value>0.000300</Value><Value>0.000015</Value></Line><Line><Value>Signal/Water (X-Range 2):</Value><Value>100.000000</Value><Value></Value><Value>473.320147</Value></Line><Line><Value>Signal/Water (X-Range 3):</Value><Value>20.000000</Value><Value></Value><Value>140.094750</Value></Line><Line><Value>Fringes (X-Range 6):</Value><Value></Value><Value>0.000100</Value><Value>0.000032</Value></Line></Matrix></MainReport></AB__Qtest><Data_Parameters_ScSm><parameter name="DPF">1</parameter><parameter name="NPT">1814</parameter><parameter name="FXV">3996.63438082617</parameter><parameter name="LXV">499.579297603271</parameter><parameter name="CSF">1</parameter><parameter name="MXY">0.332355469465256</parameter><parameter name="MNY">0.0779928863048553</parameter><parameter name="DAT">18/01/2024</parameter><parameter name="TIM">11:13:51.407 (GMT+1)</parameter><parameter name="DXU">WN</parameter></Data_Parameters_ScSm><Data_Parameters_ScRf><parameter name="DPF">1</parameter><parameter name="NPT">1820</parameter><parameter name="FXV">4004.34989121387</parameter><parameter name="LXV">495.721542409425</parameter><parameter name="CSF">1</parameter><parameter name="MXY">0.320379763841629</parameter><parameter name="MNY">0.0691232159733772</parameter><parameter name="DAT">18/01/2024</parameter><parameter name="TIM">11:13:25.736 (GMT+1)</parameter><parameter name="DXU">WN</parameter></Data_Parameters_ScRf><Optic_Parameters_Rf><parameter name="APR">0</parameter><parameter name="APT">Open</parameter><parameter name="BMS">KBr</parameter><parameter name="DTC">RT-DLaTGS_IR-Biotyper [Microplate reader]</parameter><parameter name="HPF">0</parameter><parameter name="LPF">10.0</parameter><parameter name="LPV">4000</parameter><parameter name="PGR">0</parameter><parameter name="RCH">Module port</parameter><parameter name="RDX">0</parameter><parameter name="SRC">MIR</parameter><parameter name="VEL">10.0</parameter><parameter name="SON">Off</parameter></Optic_Parameters_Rf><Acquisition_Parameters_Rf><parameter name="ADT">1</parameter><parameter name="AQM">DD</parameter><parameter name="CFE">0</parameter><parameter name="COR">0</parameter><parameter name="DEL">0</parameter><parameter name="DLY">0</parameter><parameter name="HFW">8000</parameter><parameter name="LFW">0</parameter><parameter name="NSR">32</parameter><parameter name="PLF">AB</parameter><parameter name="RES">6</parameter><parameter name="RGN">-1</parameter><parameter name="STR">0</parameter><parameter name="TCL">MakeCompatibleScalar (0, {WSV=1.000000, ARV=0});</parameter><parameter name="TDL">37</parameter><parameter name="RPO">0</parameter></Acquisition_Parameters_Rf><FT_-_Parameters_Rf><parameter name="APF">B3</parameter><parameter name="HFQ">500</parameter><parameter name="LFQ">4000</parameter><parameter name="NLI">0</parameter><parameter name="PHR">24</parameter><parameter name="PHZ">ML</parameter><parameter name="SPZ">NO</parameter><parameter name="ZFF">1</parameter></FT_-_Parameters_Rf><Optic_Parameters_><parameter name="APR">0</parameter><parameter name="APT">Open</parameter><parameter name="BMS">KBr</parameter><parameter name="CHN">Module port</parameter><parameter name="DTC">RT-DLaTGS_IR-Biotyper [Microplate reader]</parameter><parameter name="HPF">0</parameter><parameter name="LPF">10.0</parameter><parameter name="LPV">4000</parameter><parameter name="PGN">0</parameter><parameter name="RDX">0</parameter><parameter name="SRC">MIR</parameter><parameter name="VEL">10.0</parameter><parameter name="SON">Off</parameter></Optic_Parameters_><FT_-_Parameters_><parameter name="APF">B3</parameter><parameter name="HFQ">500</parameter><parameter name="LFQ">4000</parameter><parameter name="NLI">0</parameter><parameter name="PHR">24</parameter><parameter name="PHZ">ML</parameter><parameter name="SPZ">NO</parameter><parameter name="ZFF">1</parameter></FT_-_Parameters_><Acquisition_Parameters_><parameter name="ADT">1</parameter><parameter name="AQM">DD</parameter><parameter name="CFE">0</parameter><parameter name="COR">0</parameter><parameter name="DEL">0</parameter><parameter name="DLY">0</parameter><parameter name="HFW">8000</parameter><parameter name="LFW">0</parameter><parameter name="NSS">32</parameter><parameter name="PLF">AB</parameter><parameter name="RES">6</parameter><parameter name="SOT">0</parameter><parameter name="TCL">MakeCompatibleScalar (0, {WSV=1.000000, ARV=0});</parameter><parameter name="TDL">37</parameter><parameter name="SPO">0</parameter><parameter name="SGN">-1</parameter></Acquisition_Parameters_><Instrument_Parameters_Rf><parameter name="HFL">15801.365274</parameter><parameter name="LFL">0</parameter><parameter name="LWN">15801.365274</parameter><parameter name="ABP">32157</parameter><parameter name="SSP">1</parameter><parameter name="ARG">2</parameter><parameter name="ASG">2</parameter><parameter name="ASS">32</parameter><parameter name="GFW">16</parameter><parameter name="GBW">16</parameter><parameter name="BFW">0</parameter><parameter name="BBW">0</parameter><parameter name="PKA">9303</parameter><parameter name="PKL">4987</parameter><parameter name="PRA">9269</parameter><parameter name="PRL">5010</parameter><parameter name="P2A">1</parameter><parameter name="P2L">1</parameter><parameter name="P2R">1</parameter><parameter name="P2K">1</parameter><parameter name="DAQ">0</parameter><parameter name="AG2">1</parameter><parameter name="SSM">1</parameter><parameter name="RSN">46544</parameter><parameter name="CRR">0</parameter><parameter name="SRT">1705576405.737</parameter><parameter name="DUR">19.64599609375</parameter><parameter name="TSC">31.9</parameter><parameter name="MVD">1.27251768112183</parameter><parameter name="AN1">0.225998276276262</parameter><parameter name="AN2">0</parameter><parameter name="VSN">2.485 Apr  4 2017</parameter><parameter name="SRN">0085</parameter><parameter name="CAM">0</parameter><parameter name="INS">IR-Biotyper</parameter><parameter name="FOC">69</parameter><parameter name="RDY">1</parameter><parameter name="ARS">32</parameter></Instrument_Parameters_Rf><Sample_Parameters_><parameter name="BLD"></parameter><parameter name="CNM">Admin</parameter><parameter name="CPY"></parameter><parameter name="DPM"></parameter><parameter name="EXP">IRBT_v3_32Scans.XPM</parameter><parameter name="LCT"></parameter><parameter name="SFM">Microplate, HTS-XT</parameter><parameter name="SNM">240118-1045-Cdiff_SCFA_2_C23_232121132_E3_7abf7c27-6d35-469b-b472-2ef4dc6b4213.0</parameter><parameter name="XPP">C:\Users\Public\Documents\Bruker\OPUS_8.2.28\XPM</parameter><parameter name="IST">OK</parameter><parameter name="CPG">1252</parameter><parameter name="UID">2ac5ea0e-0dbb-430d-a3b4-85266cfdfeff</parameter></Sample_Parameters_><Instrument_Parameters_><parameter name="HFL">15801.365274</parameter><parameter name="LFL">0</parameter><parameter name="LWN">15801.365274</parameter><parameter name="ABP">32157</parameter><parameter name="SSP">1</parameter><parameter name="ASG">2</parameter><parameter name="ARG">2</parameter><parameter name="ASS">32</parameter><parameter name="GFW">16</parameter><parameter name="GBW">16</parameter><parameter name="BFW">0</parameter><parameter name="BBW">0</parameter><parameter name="PKA">9503</parameter><parameter name="PKL">4980</parameter><parameter name="PRA">9524</parameter><parameter name="PRL">5002</parameter><parameter name="P2A">1</parameter><parameter name="P2L">1</parameter><parameter name="P2R">1</parameter><parameter name="P2K">1</parameter><parameter name="DAQ">0</parameter><parameter name="AG2">1</parameter><parameter name="SSM">1</parameter><parameter name="RSN">23965</parameter><parameter name="CRR">0</parameter><parameter name="SRT">1705576431.408</parameter><parameter name="DUR">19.64599609375</parameter><parameter name="TSC">31.9</parameter><parameter name="MVD">0.268986076116562</parameter><parameter name="AN1">0.226014443456532</parameter><parameter name="AN2">0</parameter><parameter name="VSN">2.485 Apr  4 2017</parameter><parameter name="SRN">0085</parameter><parameter name="CAM">0</parameter><parameter name="INS">IR-Biotyper</parameter><parameter name="FOC">69</parameter><parameter name="RDY">1</parameter></Instrument_Parameters_><History/></OPUSDataFile>
