<?xml version="1.0" encoding="UTF-8" ?>
<OPUSDataFile><AB><Ydata ylabel="Absorbance Units"><values byteorder="INTEL" format="FLOAT32" numvalues="3497"> -0.09345707 -0.09342887 -0.09341632 -0.09341741 -0.09342758 -0.09344258 -0.09345017 -0.09345054 -0.09343701 -0.09341589
 -0.09339079 -0.09336799 -0.09335448 -0.09334879 -0.09335331 -0.09336033 -0.09336743 -0.0933709 -0.09336859 -0.09336476
 -0.09335975 -0.09335721 -0.09335782 -0.09335753 -0.09335613 -0.09334663 -0.09332936 -0.09330457 -0.09327366 -0.09324412
 -0.09321662 -0.09319783 -0.0931863 -0.09318251 -0.09318397 -0.09318734 -0.09319032 -0.09318907 -0.09318302 -0.09316996
 -0.09315226 -0.09312952 -0.09310757 -0.09308806 -0.09307606 -0.09307363 -0.09307986 -0.09309553 -0.09311356 -0.0931335
 -0.09314843 -0.09315799 -0.09316004 -0.0931548 -0.093144 -0.09312795 -0.09310922 -0.09308798 -0.09306616 -0.09304371
 -0.09302133 -0.09299912 -0.09297741 -0.09295669 -0.09293756 -0.09292043 -0.09290595 -0.09289374 -0.09288387 -0.09287553
 -0.09286851 -0.09286212 -0.09285631 -0.09284989 -0.09284274 -0.09283349 -0.0928219 -0.09280902 -0.09279489 -0.09278239
 -0.09277152 -0.09276327 -0.09275737 -0.09275249 -0.09274921 -0.09274835 -0.09275172 -0.09276421 -0.09278588 -0.09282066
 -0.09286311 -0.0929105 -0.09295314 -0.09298241 -0.09299384 -0.09298062 -0.09295029 -0.09290258 -0.09285093 -0.09279876
 -0.09275347 -0.0927173 -0.09268862 -0.09266765 -0.09264957 -0.09263415 -0.09261975 -0.09260646 -0.09259517 -0.09258577
 -0.092578 -0.09257151 -0.09256484 -0.09255815 -0.0925509 -0.09254386 -0.09253802 -0.092534 -0.09253302 -0.09253502
 -0.09254081 -0.09254847 -0.09255755 -0.09256537 -0.09257069 -0.09257281 -0.09257097 -0.09256713 -0.0925616 -0.09255517
 -0.09254812 -0.09253784 -0.09252419 -0.09250575 -0.09248288 -0.09245998 -0.09243809 -0.09242614 -0.09242392 -0.09243713
 -0.09246144 -0.0924907 -0.09251776 -0.0925265 -0.09251727 -0.09248165 -0.09242985 -0.09236631 -0.09230186 -0.09224378
 -0.09219749 -0.09216747 -0.09215196 -0.09215235 -0.09216067 -0.09217633 -0.0921898 -0.09219999 -0.09220183 -0.09219493
 -0.09218128 -0.09216116 -0.09213923 -0.09211571 -0.09209427 -0.09207504 -0.09206052 -0.09205056 -0.09204654 -0.09204696
 -0.09205037 -0.09205441 -0.09205557 -0.09205297 -0.09204441 -0.09203101 -0.09201296 -0.09199079 -0.09196477 -0.091935
 -0.09190097 -0.09186602 -0.09183024 -0.09179914 -0.09177343 -0.09175512 -0.09174442 -0.09173709 -0.09173286 -0.09172628
 -0.09171773 -0.09170679 -0.09169455 -0.09168533 -0.09167911 -0.09167878 -0.09168176 -0.09168527 -0.09168643 -0.09168028
 -0.09166659 -0.09164276 -0.09161195 -0.09157501 -0.09153534 -0.09149469 -0.09145395 -0.0914138 -0.09137376 -0.09133357
 -0.09129466 -0.09125698 -0.09122385 -0.09119546 -0.09117332 -0.09115727 -0.09114522 -0.09113702 -0.0911306 -0.09112633
 -0.0911249 -0.09112611 -0.09113052 -0.09113616 -0.09114006 -0.0911402 -0.09113208 -0.09111726 -0.0910945 -0.09106902
 -0.09104358 -0.09102146 -0.09100554 -0.09099303 -0.09098418 -0.09097386 -0.09096067 -0.09094492 -0.09092595 -0.09091139
 -0.0909017 -0.09090328 -0.09091592 -0.09093636 -0.09096326 -0.09098557 -0.09100286 -0.09100743 -0.0910001 -0.09097911
 -0.09094507 -0.09089755 -0.09083902 -0.09077074 -0.09069979 -0.09063169 -0.09057458 -0.09053587 -0.09051625 -0.09052017
 -0.09053596 -0.09056256 -0.09058417 -0.09059699 -0.09059653 -0.09058121 -0.09055726 -0.09052498 -0.09048948 -0.09045079
 -0.09040871 -0.09036335 -0.09031505 -0.09026507 -0.0902191 -0.09017771 -0.0901461 -0.09012233 -0.09010554 -0.09009308
 -0.09008101 -0.09006817 -0.09005228 -0.09003285 -0.09000914 -0.08998046 -0.08994612 -0.08990672 -0.08986196 -0.0898143
 -0.08976418 -0.08971323 -0.08966184 -0.08960919 -0.08955526 -0.08949956 -0.08944219 -0.08938552 -0.08932975 -0.0892776
 -0.08922863 -0.08918232 -0.08913822 -0.08909444 -0.08905177 -0.08901067 -0.08897238 -0.08893914 -0.08891039 -0.08888683
 -0.08886641 -0.0888478 -0.08883045 -0.08881393 -0.0887975 -0.08878165 -0.0887619 -0.08873811 -0.08870234 -0.08865348
 -0.08858775 -0.08850464 -0.08840857 -0.08829994 -0.08818725 -0.08807093 -0.08795828 -0.08784916 -0.08774719 -0.08765117
 -0.08755988 -0.08747157 -0.08738207 -0.08729105 -0.08719586 -0.08709831 -0.086999 -0.08689996 -0.0868027 -0.08670822
 -0.08661724 -0.08653049 -0.08644854 -0.08637071 -0.08629764 -0.08622431 -0.08615059 -0.08606859 -0.08597767 -0.08587468
 -0.08575969 -0.08563654 -0.08550565 -0.08537238 -0.08523668 -0.08510096 -0.08496504 -0.08482931 -0.08469441 -0.08456137
 -0.0844318 -0.08430878 -0.08419202 -0.08408374 -0.08397879 -0.08387555 -0.08376639 -0.08364686 -0.08351506 -0.08336809
 -0.083213 -0.0830502 -0.08288869 -0.08272985 -0.08257764 -0.08243263 -0.0822923 -0.08215645 -0.08201931 -0.08188085
 -0.08173835 -0.08159236 -0.08144409 -0.0812938 -0.08114292 -0.08099107 -0.08083815 -0.08068378 -0.08052734 -0.08036871
 -0.08020748 -0.08004381 -0.0798774 -0.07970935 -0.07953992 -0.07937058 -0.07920199 -0.07903425 -0.07886769 -0.07870091
 -0.07853368 -0.07836595 -0.07819766 -0.07803068 -0.0778651 -0.07770196 -0.07754102 -0.07738063 -0.07722034 -0.07705711
 -0.07689069 -0.07671867 -0.07654122 -0.07635726 -0.07616805 -0.07597437 -0.0757789 -0.07558415 -0.07539312 -0.07520867
 -0.07503211 -0.07486524 -0.0747064 -0.07455623 -0.07440921 -0.07426492 -0.07411536 -0.07395951 -0.07379075 -0.07360817
 -0.07341329 -0.07320636 -0.07299846 -0.07279029 -0.07259364 -0.07240757 -0.07223441 -0.07207111 -0.07190928 -0.07174696
 -0.07157531 -0.0713958 -0.07120685 -0.07101033 -0.0708082 -0.07059975 -0.0703847 -0.07016357 -0.06993485 -0.06970575
 -0.06947763 -0.06925893 -0.0690527 -0.06885787 -0.06867548 -0.06849635 -0.06831974 -0.06814027 -0.06795779 -0.06777601
 -0.06759513 -0.06741913 -0.06724679 -0.06707411 -0.06689954 -0.06671518 -0.0665224 -0.06631924 -0.06611028 -0.06590129
 -0.06569634 -0.06550234 -0.0653196 -0.06515164 -0.06499352 -0.06484482 -0.06469731 -0.06454828 -0.0643919 -0.06422544
 -0.06405155 -0.0638695 -0.06368858 -0.06350961 -0.06333749 -0.06317234 -0.06300892 -0.06284682 -0.0626794 -0.06250767
 -0.06233325 -0.06215777 -0.06198808 -0.0618234 -0.06166605 -0.06151289 -0.06135989 -0.06120554 -0.06104587 -0.06088312
 -0.06071751 -0.06055164 -0.0603875 -0.06022419 -0.06006218 -0.05989871 -0.05973306 -0.05956427 -0.05939196 -0.05921717
 -0.05903994 -0.05886116 -0.05868088 -0.05850099 -0.05832183 -0.05814817 -0.05798024 -0.05782237 -0.05767319 -0.05753073
 -0.05739279 -0.05725279 -0.05711129 -0.05696512 -0.05681878 -0.05667615 -0.05653994 -0.05641546 -0.05629665 -0.05618325
 -0.05606439 -0.05593498 -0.05579373 -0.05563737 -0.05547895 -0.05531975 -0.05517214 -0.05503806 -0.05491422 -0.05480048
 -0.05468355 -0.05456322 -0.05443269 -0.05429336 -0.05414955 -0.05400252 -0.0538592 -0.05371906 -0.05358465 -0.05345403
 -0.05332549 -0.05319684 -0.05306454 -0.05292878 -0.05278723 -0.05264515 -0.05250379 -0.05237057 -0.05224925 -0.05214058
 -0.052047 -0.05195888 -0.05187569 -0.05178497 -0.05168519 -0.05157274 -0.05144738 -0.05131618 -0.05117974 -0.05104785
 -0.05092031 -0.05080138 -0.05068957 -0.05058226 -0.05047739 -0.05036872 -0.0502554 -0.05013254 -0.05000215 -0.04986364
 -0.049722 -0.04958038 -0.04944402 -0.04931698 -0.04920045 -0.04909679 -0.04900132 -0.04891421 -0.04882658 -0.04873698
 -0.04863964 -0.04853332 -0.04842248 -0.04830729 -0.04819908 -0.04809792 -0.04800795 -0.04792731 -0.04784648 -0.04776439
 -0.04767038 -0.04756852 -0.04746228 -0.04735792 -0.04726881 -0.04719464 -0.04714282 -0.04710353 -0.04707253 -0.04703837
 -0.04699236 -0.04693296 -0.04685582 -0.04677017 -0.04667713 -0.04658642 -0.04650075 -0.04641882 -0.0463414 -0.04625759
 -0.04616676 -0.04606128 -0.04594167 -0.04581404 -0.04568029 -0.04555554 -0.04544068 -0.04534786 -0.04527476 -0.04522274
 -0.04518697 -0.04516038 -0.04513816 -0.04511187 -0.04507896 -0.04503448 -0.04497803 -0.04490798 -0.0448251 -0.04472877
 -0.04462229 -0.04450524 -0.04438633 -0.04426644 -0.04415572 -0.04405571 -0.04396789 -0.04389255 -0.04381914 -0.04374699
 -0.04366362 -0.04356986 -0.04346402 -0.04334895 -0.04323477 -0.04312334 -0.04302528 -0.04293877 -0.0428666 -0.04280358
 -0.0427451 -0.04268565 -0.0426192 -0.04254232 -0.04245066 -0.04234576 -0.04222596 -0.04209876 -0.04196522 -0.04183408
 -0.04170754 -0.04158713 -0.04147377 -0.04136093 -0.04124828 -0.04113014 -0.0410066 -0.04087917 -0.04074812 -0.04061663
 -0.04048353 -0.04034587 -0.04020224 -0.04004634 -0.03988027 -0.039703 -0.03952193 -0.03934457 -0.03917991 -0.03903882
 -0.03892409 -0.03884284 -0.03878576 -0.03875316 -0.03872694 -0.03870249 -0.03866642 -0.03861406 -0.03854927 -0.03847075
 -0.03839778 -0.03833144 -0.0382904 -0.03827485 -0.03828829 -0.03832884 -0.03838518 -0.03845568 -0.03852725 -0.03860098
 -0.0386725 -0.03874496 -0.03882238 -0.03890638 -0.03900174 -0.03910561 -0.03921795 -0.03933345 -0.03944797 -0.03956163
 -0.0396713 -0.03978755 -0.03991165 -0.04005708 -0.04022766 -0.04042393 -0.0406476 -0.04088324 -0.04113004 -0.04137179
 -0.04160817 -0.04183528 -0.04205381 -0.04226733 -0.04247559 -0.04267943 -0.04287817 -0.0430701 -0.04325572 -0.0434352
 -0.04360912 -0.04377845 -0.04394297 -0.04410216 -0.04425796 -0.04441063 -0.0445645 -0.04472192 -0.04488358 -0.04505125
 -0.04521901 -0.04538649 -0.04554595 -0.04569629 -0.04583403 -0.04595877 -0.04607162 -0.04617288 -0.04626866 -0.04636006
 -0.04645828 -0.04656385 -0.04668625 -0.04682251 -0.0469704 -0.04712422 -0.0472717 -0.04741052 -0.04753097 -0.04763766
 -0.04773077 -0.04781683 -0.04790065 -0.04798394 -0.04806923 -0.04815378 -0.048237 -0.04831795 -0.04839581 -0.04847387
 -0.04855239 -0.04863473 -0.04872128 -0.04881094 -0.04890358 -0.0489957 -0.04908729 -0.04917661 -0.04926422 -0.0493516
 -0.0494392 -0.04952902 -0.04962109 -0.04971639 -0.04981475 -0.04991649 -0.050021 -0.0501285 -0.05023631 -0.05034346
 -0.05044565 -0.05054049 -0.05062646 -0.05070162 -0.0507708 -0.05083398 -0.05089941 -0.05096824 -0.05104473 -0.05112946
 -0.05121975 -0.05131535 -0.0514103 -0.0515044 -0.05159348 -0.05167802 -0.05175767 -0.05183377 -0.05190974 -0.05198705
 -0.05207044 -0.05215983 -0.05225798 -0.05236172 -0.05246972 -0.05257721 -0.05268054 -0.0527772 -0.05286447 -0.05294435
 -0.05301638 -0.05308529 -0.05315207 -0.05321933 -0.05328792 -0.05335531 -0.05342147 -0.05348144 -0.05353512 -0.05358252
 -0.0536245 -0.05366872 -0.05371622 -0.05377671 -0.05384907 -0.05393602 -0.05403379 -0.0541365 -0.05424011 -0.05433591
 -0.05442343 -0.05449789 -0.05456388 -0.05462236 -0.05467955 -0.05473927 -0.05480231 -0.05487096 -0.05493837 -0.05500384
 -0.05505992 -0.05510502 -0.05513928 -0.05516229 -0.05518182 -0.05519822 -0.0552182 -0.05524126 -0.05526576 -0.05529017
 -0.05530606 -0.05531282 -0.05530312 -0.05527968 -0.05524338 -0.0552001 -0.05515836 -0.05512309 -0.05510352 -0.05509807
 -0.05511015 -0.05513127 -0.05515891 -0.05518434 -0.05520336 -0.05521516 -0.05521813 -0.05521777 -0.05521476 -0.05521209
 -0.05521031 -0.05520567 -0.055198 -0.05518349 -0.05516254 -0.05513752 -0.0551092 -0.05508297 -0.05505855 -0.05503813
 -0.05502035 -0.05500351 -0.05498629 -0.054966 -0.054942 -0.05491224 -0.05487792 -0.05483834 -0.05479799 -0.0547583
 -0.05472451 -0.054699 -0.054683 -0.0546774 -0.05468098 -0.05469346 -0.05471606 -0.05474885 -0.05479359 -0.05485024
 -0.05491397 -0.0549839 -0.05504899 -0.05510916 -0.05515731 -0.05519569 -0.05522748 -0.05525549 -0.05528786 -0.05532476
 -0.05537076 -0.05542288 -0.05547985 -0.05553863 -0.05559602 -0.05565226 -0.05570626 -0.05576044 -0.05581553 -0.05587253
 -0.05593209 -0.05599263 -0.056054 -0.05611498 -0.05617537 -0.05623599 -0.05629686 -0.05635848 -0.05642074 -0.05648252
 -0.05654389 -0.05660447 -0.05666472 -0.05672639 -0.05678909 -0.0568533 -0.05691736 -0.05697874 -0.05703673 -0.05708877
 -0.05713742 -0.05718326 -0.0572301 -0.0572807 -0.0573347 -0.05739343 -0.05745192 -0.05750939 -0.05756123 -0.05760633
 -0.05764472 -0.05767622 -0.0577029 -0.05772484 -0.05774168 -0.05775321 -0.05775642 -0.05775153 -0.05773737 -0.05771575
 -0.05769163 -0.05766765 -0.05765277 -0.05764705 -0.05765614 -0.05767455 -0.05769988 -0.05772308 -0.0577364 -0.05773485
 -0.05771264 -0.05767265 -0.05761413 -0.05754259 -0.05745975 -0.05736615 -0.0572626 -0.05714481 -0.05701244 -0.05686268
 -0.0566954 -0.05651281 -0.05631507 -0.05610532 -0.0558829 -0.0556461 -0.0553933 -0.05511771 -0.0548188 -0.05449107
 -0.05413703 -0.05375774 -0.05335695 -0.05293938 -0.05250709 -0.05206334 -0.05160826 -0.05114247 -0.0506667 -0.05018108
 -0.04968748 -0.04918666 -0.04867826 -0.04816254 -0.04763705 -0.04710127 -0.04655771 -0.04600652 -0.04546174 -0.04492499
 -0.04442041 -0.0439494 -0.04353321 -0.04317071 -0.04286981 -0.04262726 -0.04243947 -0.04230361 -0.04221427 -0.04216761
 -0.04215969 -0.04218039 -0.04222368 -0.04227224 -0.04231697 -0.04234035 -0.04233434 -0.0422874 -0.04219542 -0.0420515
 -0.04185391 -0.0415991 -0.04128608 -0.04091902 -0.04049804 -0.04003883 -0.03954279 -0.03903254 -0.03850972 -0.03799538
 -0.03749106 -0.03701278 -0.03656312 -0.03615502 -0.03579326 -0.03549 -0.03525243 -0.03509185 -0.03501773 -0.03503959
 -0.03516848 -0.03541284 -0.03577922 -0.03627426 -0.03689039 -0.03763076 -0.03846756 -0.03939988 -0.04038384 -0.04141631
 -0.04244905 -0.04347913 -0.04446347 -0.04540045 -0.04625913 -0.04704032 -0.04773178 -0.04833821 -0.0488688 -0.04933115
 -0.04974788 -0.05012525 -0.05048434 -0.05082709 -0.0511644 -0.05149456 -0.05181991 -0.05213766 -0.05244704 -0.05274519
 -0.05303105 -0.05330196 -0.05355692 -0.05379501 -0.05401555 -0.05422094 -0.05441124 -0.05459005 -0.0547576 -0.05491477
 -0.05506126 -0.05519278 -0.0553084 -0.05539976 -0.05546619 -0.05550001 -0.05550264 -0.05547219 -0.05541434 -0.05533624
 -0.05524732 -0.05516074 -0.05508584 -0.05503495 -0.0550125 -0.05502596 -0.0550706 -0.05514875 -0.05524495 -0.05535804
 -0.05546378 -0.05555923 -0.05561795 -0.05563693 -0.05559709 -0.05549683 -0.05533591 -0.05511606 -0.05486514 -0.05459011
 -0.0543493 -0.05415341 -0.05407584 -0.0541225 -0.05435058 -0.05474859 -0.05533009 -0.05606081 -0.0569107 -0.05783259
 -0.05877919 -0.05971097 -0.06059059 -0.06140279 -0.06213031 -0.06278124 -0.06335312 -0.06386264 -0.06431226 -0.06471466
 -0.06507159 -0.06538928 -0.06566817 -0.06591369 -0.06612631 -0.06631442 -0.06647906 -0.06663159 -0.06677298 -0.06691347
 -0.06705323 -0.06719828 -0.06734743 -0.06750159 -0.06765857 -0.06781634 -0.06797218 -0.06812318 -0.06826715 -0.06840176
 -0.06852671 -0.06864092 -0.06874637 -0.06884329 -0.06893376 -0.06901832 -0.06909748 -0.06917148 -0.0692393 -0.06930088
 -0.06935561 -0.06940358 -0.06944593 -0.069483 -0.06951784 -0.06955083 -0.06958529 -0.069621 -0.06965919 -0.06969913
 -0.06973987 -0.06978137 -0.06982287 -0.06986552 -0.06991007 -0.06995749 -0.07000912 -0.07006344 -0.07012077 -0.07017706
 -0.07023138 -0.07027994 -0.07032168 -0.07035563 -0.07038132 -0.07040115 -0.07041518 -0.07042748 -0.07043821 -0.07045076
 -0.07046514 -0.0704831 -0.07050455 -0.07053012 -0.07055944 -0.07059196 -0.07062691 -0.07066267 -0.07069839 -0.07073212
 -0.07076373 -0.07079249 -0.07081832 -0.07084124 -0.07086021 -0.07087474 -0.07088434 -0.07088827 -0.07088877 -0.07088587
 -0.07088344 -0.07088207 -0.07088309 -0.07088668 -0.07089161 -0.0708979 -0.07090582 -0.07091571 -0.07093074 -0.07095075
 -0.07097735 -0.07100893 -0.07104195 -0.07107437 -0.07110006 -0.07111922 -0.07112867 -0.07113194 -0.07113072 -0.07112945
 -0.0711319 -0.07113931 -0.07115402 -0.07117242 -0.07119421 -0.07121483 -0.07123304 -0.07124771 -0.07125827 -0.07126722
 -0.07127469 -0.07128356 -0.07129392 -0.07130738 -0.07132381 -0.07134304 -0.07136462 -0.07138652 -0.07140806 -0.071426
 -0.07144034 -0.07144911 -0.07145372 -0.07145509 -0.07145505 -0.07145607 -0.07145803 -0.07146211 -0.07146581 -0.07146822
 -0.07146779 -0.07146317 -0.07145698 -0.07144906 -0.07144468 -0.07144462 -0.07145143 -0.07146552 -0.07148401 -0.0715067
 -0.07152843 -0.07154918 -0.07156648 -0.07158076 -0.07159286 -0.07160278 -0.07161129 -0.0716175 -0.07161988 -0.0716181
 -0.07161032 -0.07159858 -0.07158355 -0.07156897 -0.0715578 -0.07155151 -0.07155241 -0.07155706 -0.07156525 -0.07157209
 -0.07157611 -0.07157689 -0.07157382 -0.07157083 -0.0715682 -0.07156827 -0.07157106 -0.07157398 -0.07157677 -0.07157563
 -0.07157091 -0.07156228 -0.07155055 -0.07153822 -0.07152545 -0.07151386 -0.07150281 -0.0714918 -0.07148108 -0.07147031
 -0.07146121 -0.07145495 -0.07145243 -0.07145504 -0.0714604 -0.07146845 -0.07147527 -0.07147983 -0.07148069 -0.07147722
 -0.07147188 -0.07146476 -0.07145895 -0.07145455 -0.07145224 -0.07145182 -0.07145161 -0.0714516 -0.07145064 -0.07144927
 -0.07144875 -0.07144937 -0.0714529 -0.07145803 -0.07146398 -0.07146848 -0.07146848 -0.07146397 -0.07145314 -0.0714395
 -0.07142408 -0.07141043 -0.07140028 -0.07139405 -0.07139228 -0.07139362 -0.07139786 -0.07140472 -0.07141417 -0.07142608
 -0.07144041 -0.07145499 -0.07146971 -0.07148209 -0.07149232 -0.07149998 -0.07150552 -0.07151031 -0.07151436 -0.07151851
 -0.07152231 -0.07152537 -0.07152749 -0.07152807 -0.0715279 -0.07152708 -0.07152718 -0.07152905 -0.07153346 -0.07154121
 -0.07155095 -0.0715628 -0.07157379 -0.07158347 -0.07159018 -0.07159363 -0.07159445 -0.07159264 -0.07159007 -0.07158678
 -0.07158386 -0.07158135 -0.07157996 -0.07157973 -0.07158138 -0.07158459 -0.07158917 -0.07159451 -0.0715996 -0.07160393
 -0.07160654 -0.07160737 -0.07160599 -0.07160283 -0.0715979 -0.0715919 -0.07158492 -0.07157813 -0.07157178 -0.07156688
 -0.0715637 -0.07156202 -0.0715619 -0.07156239 -0.07156345 -0.07156539 -0.07156819 -0.07157233 -0.07157742 -0.07158178
 -0.07158473 -0.07158276 -0.07157623 -0.07156368 -0.0715471 -0.07152893 -0.07151102 -0.07149691 -0.07148564 -0.0714782
 -0.07147127 -0.07146328 -0.07145224 -0.07143636 -0.0714182 -0.0713975 -0.07137965 -0.07136561 -0.07135776 -0.07135671
 -0.07135937 -0.07136558 -0.07137009 -0.0713728 -0.07137121 -0.07136577 -0.07135797 -0.07134826 -0.07133913 -0.07133051
 -0.07132366 -0.07131798 -0.07131305 -0.0713084 -0.07130323 -0.07129773 -0.0712915 -0.07128558 -0.07128038 -0.07127682
 -0.0712755 -0.07127617 -0.07127905 -0.07128284 -0.07128738 -0.07129164 -0.07129546 -0.07129869 -0.0713013 -0.07130376
 -0.07130615 -0.07130928 -0.07131327 -0.07131918 -0.07132691 -0.07133686 -0.07134858 -0.07136124 -0.07137448 -0.07138728
 -0.07139968 -0.07141134 -0.07142231 -0.07143271 -0.07144199 -0.07144997 -0.07145593 -0.07145945 -0.07146058 -0.07145914
 -0.07145607 -0.07145152 -0.07144635 -0.07144068 -0.0714346 -0.07142812 -0.07142137 -0.07141444 -0.07140846 -0.07140359
 -0.07140162 -0.07140229 -0.07140573 -0.07141113 -0.07141668 -0.07142171 -0.07142411 -0.07142427 -0.07142163 -0.07141712
 -0.07141126 -0.07140492 -0.07139865 -0.0713932 -0.07138902 -0.07138639 -0.07138573 -0.0713857 -0.07138634 -0.07138511
 -0.07138166 -0.07137523 -0.07136572 -0.07135563 -0.07134513 -0.07133744 -0.07133235 -0.07133015 -0.07133017 -0.07133017
 -0.07132945 -0.07132497 -0.07131679 -0.07130316 -0.0712856 -0.07126474 -0.07124339 -0.0712241 -0.07120868 -0.07119967
 -0.07119472 -0.07119405 -0.07119311 -0.07119055 -0.0711846 -0.0711743 -0.07116228 -0.07114868 -0.07113608 -0.07112469
 -0.0711138 -0.0711033 -0.07109095 -0.07107688 -0.0710607 -0.07104292 -0.0710253 -0.07100801 -0.07099248 -0.07097836
 -0.07096569 -0.07095397 -0.07094256 -0.07093115 -0.07091922 -0.0709069 -0.07089403 -0.07088118 -0.07086849 -0.07085656
 -0.07084572 -0.07083556 -0.07082621 -0.07081632 -0.07080574 -0.07079365 -0.07077998 -0.070765 -0.07074875 -0.07073132
 -0.07071269 -0.07069242 -0.07067081 -0.07064848 -0.07062634 -0.07060721 -0.07059152 -0.07058186 -0.07057685 -0.07057607
 -0.07057746 -0.0705787 -0.07057983 -0.07057948 -0.07058076 -0.07058436 -0.07059357 -0.0706098 -0.07063297 -0.07066362
 -0.07069889 -0.07073855 -0.07077995 -0.0708229 -0.07086515 -0.07090648 -0.07094321 -0.07097512 -0.07099844 -0.07101391
 -0.07102229 -0.07102493 -0.07102651 -0.07102647 -0.07102694 -0.07102436 -0.07101556 -0.0709964 -0.07096159 -0.07091034
 -0.07083917 -0.07075383 -0.07065441 -0.07055178 -0.07044845 -0.07035462 -0.07027254 -0.07020864 -0.07016405 -0.07014098
 -0.07013982 -0.07015554 -0.07018754 -0.07022309 -0.07026137 -0.07029003 -0.07030935 -0.07031392 -0.07030459 -0.0702807
 -0.07024346 -0.07019427 -0.07013565 -0.07007087 -0.07000355 -0.0699381 -0.06987669 -0.06982227 -0.06977443 -0.0697339
 -0.06969886 -0.06966913 -0.0696424 -0.06961852 -0.06959383 -0.06956797 -0.06953737 -0.06950169 -0.06946115 -0.0694159
 -0.06936976 -0.06932286 -0.06927822 -0.06923524 -0.06919297 -0.06915078 -0.06910611 -0.06905942 -0.06901012 -0.06895944
 -0.0689088 -0.06885904 -0.06881131 -0.06876627 -0.0687245 -0.06868686 -0.06865412 -0.06862576 -0.06860233 -0.06858037
 -0.0685595 -0.06853577 -0.06850845 -0.06847734 -0.06844229 -0.06840625 -0.06836935 -0.06833339 -0.06829829 -0.06826377
 -0.06822991 -0.06819669 -0.06816453 -0.06813488 -0.06810752 -0.06808289 -0.06806009 -0.06803803 -0.06801593 -0.06799261
 -0.06796766 -0.06794042 -0.06791109 -0.06787947 -0.0678463 -0.06781159 -0.06777672 -0.06774193 -0.06770834 -0.06767618
 -0.06764549 -0.06761631 -0.06758782 -0.06755996 -0.06753138 -0.06750207 -0.06747142 -0.06743965 -0.06740735 -0.06737489
 -0.0673437 -0.06731361 -0.06728513 -0.06725731 -0.06722914 -0.06719968 -0.06716754 -0.0671328 -0.06709478 -0.06705483
 -0.06701327 -0.06697166 -0.06693056 -0.06689087 -0.06685295 -0.06681651 -0.06678159 -0.06674744 -0.06671399 -0.06668114
 -0.0666489 -0.06661768 -0.06658748 -0.06655864 -0.06653097 -0.06650393 -0.0664771 -0.06644886 -0.06641883 -0.06638512
 -0.06634841 -0.06630832 -0.06626719 -0.06622715 -0.06619017 -0.06615892 -0.06613204 -0.06611028 -0.0660892 -0.0660675
 -0.06604216 -0.066012 -0.0659772 -0.06593744 -0.06589518 -0.06585058 -0.06580643 -0.06576287 -0.06572207 -0.06568399
 -0.06564926 -0.06561761 -0.06558812 -0.06556032 -0.06553224 -0.06550366 -0.06547307 -0.06544081 -0.06540658 -0.06537118
 -0.06533543 -0.06529962 -0.06526441 -0.06522899 -0.06519317 -0.06515617 -0.06511745 -0.06507771 -0.06503687 -0.06499639
 -0.06495653 -0.06491771 -0.06488004 -0.06484328 -0.06480744 -0.06477278 -0.06473921 -0.06470633 -0.06467386 -0.06463993
 -0.06460454 -0.06456629 -0.06452605 -0.06448485 -0.06444371 -0.06440488 -0.06436817 -0.06433451 -0.06430262 -0.06427187
 -0.06424117 -0.06420964 -0.06417747 -0.06414453 -0.06411111 -0.06407745 -0.06404263 -0.06400655 -0.06396825 -0.06392755
 -0.06388548 -0.06384213 -0.06380068 -0.06376123 -0.06372603 -0.06369466 -0.06366608 -0.06363967 -0.06361274 -0.06358489
 -0.06355396 -0.06351992 -0.06348169 -0.06343972 -0.06339367 -0.06334531 -0.06329532 -0.06324667 -0.06320104 -0.06316005
 -0.06312528 -0.06309426 -0.06306729 -0.06303879 -0.063008 -0.06297073 -0.06292633 -0.06287624 -0.06282056 -0.06276548
 -0.06271131 -0.06266379 -0.06262245 -0.06258808 -0.06255934 -0.06253229 -0.06250577 -0.06247504 -0.06244031 -0.06239951
 -0.06235434 -0.06230559 -0.06225565 -0.06220663 -0.06215973 -0.06211643 -0.06207589 -0.06203834 -0.06200195 -0.06196614
 -0.06193081 -0.06189567 -0.06186265 -0.06183193 -0.06180483 -0.06178143 -0.06175978 -0.0617396 -0.06171656 -0.06169058
 -0.06165873 -0.06162162 -0.06157962 -0.06153369 -0.06148625 -0.06143772 -0.06138977 -0.06134266 -0.06129711 -0.06125396
 -0.06121406 -0.06117801 -0.06114676 -0.0611191 -0.06109525 -0.06107223 -0.06104942 -0.06102437 -0.06099637 -0.0609658
 -0.06093249 -0.06089881 -0.06086489 -0.06083251 -0.06080157 -0.0607713 -0.06074134 -0.0607091 -0.06067452 -0.06063567
 -0.06059347 -0.06054877 -0.06050314 -0.06045946 -0.06041879 -0.06038387 -0.06035392 -0.06032983 -0.06030862 -0.06028929
 -0.0602683 -0.06024393 -0.06021505 -0.06018062 -0.06014277 -0.06010144 -0.0600605 -0.06002033 -0.05998338 -0.05994981
 -0.05991905 -0.05989094 -0.059863 -0.05983513 -0.05980544 -0.05977415 -0.05974111 -0.05970664 -0.05967148 -0.05963569
 -0.05959968 -0.05956338 -0.05952674 -0.05949015 -0.05945384 -0.05941833 -0.05938405 -0.05935097 -0.0593192 -0.05928859
 -0.05925908 -0.05923096 -0.0592043 -0.05917902 -0.05915525 -0.05913135 -0.05910724 -0.05908044 -0.05905085 -0.05901678
 -0.05897839 -0.05893575 -0.05888934 -0.05884086 -0.05879103 -0.05874257 -0.05869578 -0.05865267 -0.05861254 -0.05857557
 -0.05854037 -0.05850574 -0.05847114 -0.05843572 -0.05840014 -0.05836441 -0.05832944 -0.0582955 -0.05826306 -0.05823235
 -0.05820299 -0.0581751 -0.05814694 -0.05811843 -0.05808711 -0.05805295 -0.05801477 -0.05797293 -0.05792913 -0.05788388
 -0.05784022 -0.05779808 -0.05775906 -0.05772209 -0.05768608 -0.05765009 -0.05761218 -0.05757306 -0.05753236 -0.05749195
 -0.05745297 -0.05741604 -0.05738209 -0.05734929 -0.05731769 -0.057284 -0.0572477 -0.05720649 -0.05715992 -0.05710839
 -0.05705184 -0.05699445 -0.05693654 -0.05688417 -0.0568372 -0.05679829 -0.05676625 -0.05673789 -0.05671196 -0.05668316
 -0.05665189 -0.05661607 -0.05657735 -0.05653701 -0.05649609 -0.05645609 -0.05641698 -0.05637915 -0.05634253 -0.05630722
 -0.0562729 -0.05623977 -0.05620611 -0.05617183 -0.05613438 -0.0560934 -0.05604817 -0.05599858 -0.05594708 -0.05589384
 -0.05584214 -0.05579191 -0.05574436 -0.05569914 -0.05565545 -0.05561315 -0.05557136 -0.05553035 -0.05549025 -0.05545101
 -0.05541275 -0.05537495 -0.05533733 -0.05529916 -0.05525991 -0.05521917 -0.05517646 -0.05513234 -0.05508664 -0.05504103
 -0.05499573 -0.05495242 -0.05491141 -0.05487278 -0.05483659 -0.05480041 -0.05476407 -0.05472408 -0.05468054 -0.05463218
 -0.05457962 -0.05452463 -0.0544678 -0.05441177 -0.05435628 -0.05430212 -0.05424885 -0.05419597 -0.05414398 -0.05409301
 -0.05404398 -0.05399792 -0.05395379 -0.05391175 -0.05386946 -0.05382616 -0.05378095 -0.05373321 -0.05368495 -0.05363634
 -0.05358919 -0.05354368 -0.0534992 -0.05345562 -0.05341044 -0.05336368 -0.0533144 -0.05326318 -0.05321195 -0.0531612
 -0.05311361 -0.05306851 -0.05302631 -0.05298521 -0.05294312 -0.0528985 -0.05284889 -0.05279456 -0.05273446 -0.05267111
 -0.05260493 -0.05253946 -0.05247581 -0.05241622 -0.05236164 -0.0523109 -0.0522642 -0.05221798 -0.05217198 -0.05212353
 -0.05207255 -0.05201834 -0.05196096 -0.05190071 -0.05183771 -0.05177253 -0.05170566 -0.0516388 -0.0515722 -0.0515074
 -0.05144367 -0.05138075 -0.05131767 -0.05125316 -0.05118752 -0.05112032 -0.05105284 -0.0509856 -0.05091933 -0.05085452
 -0.05079069 -0.05072807 -0.05066477 -0.05060067 -0.05053367 -0.05046358 -0.05038976 -0.05031225 -0.05023282 -0.05015165
 -0.05007103 -0.04999091 -0.04991223 -0.04983469 -0.04975796 -0.0496818 -0.04960559 -0.04952934 -0.04945266 -0.04937611
 -0.04930009 -0.04922497 -0.04915154 -0.04907852 -0.04900571 -0.04893135 -0.04885466 -0.04877553 -0.04869359 -0.04861039
 -0.04852613 -0.04844161 -0.04835695 -0.04827169 -0.04818583 -0.04809945 -0.0480126 -0.04792595 -0.04783934 -0.04775242
 -0.0476647 -0.04757454 -0.04748153 -0.04738386 -0.04728194 -0.04717533 -0.04706512 -0.04695225 -0.04683733 -0.04672129
 -0.04660358 -0.04648419 -0.04636249 -0.0462381 -0.04611153 -0.04598265 -0.04585302 -0.04572278 -0.04559354 -0.0454655
 -0.04533859 -0.04521275 -0.04508508 -0.04495521 -0.04481824 -0.04467426 -0.04452077 -0.04435873 -0.04418988 -0.04401472
 -0.04383551 -0.04365136 -0.04346218 -0.04326642 -0.04306227 -0.04284934 -0.04262638 -0.04239494 -0.04215536 -0.0419092
 -0.0416576 -0.0413987 -0.04113277 -0.04085488 -0.0405641 -0.04025956 -0.03994078 -0.03961506 -0.03928278 -0.03895128
 -0.03862036 -0.03829032 -0.03796102 -0.03763166 -0.0373032 -0.03697903 -0.0366582 -0.03634171 -0.0360246 -0.03569987
 -0.03536431 -0.03501 -0.03464225 -0.03426143 -0.03387548 -0.03348941 -0.03310383 -0.03272035 -0.03233637 -0.03195082
 -0.03156632 -0.03118271 -0.0308058 -0.03043622 -0.03007497 -0.02972203 -0.0293733 -0.02902882 -0.02868723 -0.02834954
 -0.02802088 -0.02770088 -0.02739241 -0.02709128 -0.02679082 -0.02648496 -0.02616205 -0.02581742 -0.02544228 -0.02503321
 -0.02458664 -0.02409588 -0.02355835 -0.0229637 -0.02230717 -0.02158567 -0.02079486 -0.01995085 -0.01905326 -0.01813287
 -0.01719185 -0.01625991 -0.01533859 -0.01444606 -0.01358164 -0.01274534 -0.01193313 -0.01112403 -0.0103136 -0.009473001
 -0.008607503 -0.007710668 -0.006799314 -0.005898684 -0.005014679 -0.004168191 -0.003343857 -0.002537963 -0.001733668 -0.0009194383
 -9.328594E-05 0.0007489742 0.001601246 0.002462524 0.003330094 0.004203888 0.005078567 0.005954044 0.006819479 0.007674324
 0.008514592 0.009340059 0.01014896 0.01093807 0.01168895 0.01239739 0.01303727 0.0136114 0.0141118 0.0145465
 0.01492506 0.01525222 0.01553671 0.01578103 0.0159874 0.01616491 0.01631748 0.01645618 0.01658762 0.01670974
 0.01682607 0.0169169 0.01698111 0.01699329 0.01695127 0.01683377 0.01663957 0.01635304 0.01597457 0.0155034
 0.01494314 0.01431442 0.0136199 0.01288129 0.01209513 0.01126442 0.01038416 0.009445 0.008451212 0.00739837
 0.006308577 0.005192804 0.004082614 0.002998153 0.001956012 0.0009692156 3.21148E-05 -0.0008542474 -0.001697464 -0.002499967
 -0.003255383 -0.003963555 -0.004615501 -0.005210706 -0.00575166 -0.006238752 -0.006678089 -0.00706936 -0.00741322 -0.007709917
 -0.007959612 -0.008165172 -0.008332823 -0.008466521 -0.00857549 -0.008662103 -0.008732636 -0.008787801 -0.008830209 -0.008859497
 -0.008876565 -0.008879218 -0.008867159 -0.008837326 -0.008788887 -0.008720008 -0.008630123 -0.008519397 -0.008387666 -0.008236889
 -0.008067162 -0.007881845 -0.007681033 -0.007466857 -0.00723894 -0.006995778 -0.006737394 -0.006461914 -0.006172185 -0.005873593
 -0.005570012 -0.005271655 -0.004977064 -0.004689455 -0.004403742 -0.004115248 -0.00382573 -0.00353252 -0.003246809 -0.002972136
 -0.002716913 -0.00248537 -0.00227411 -0.002084106 -0.001904464 -0.001734017 -0.0015666 -0.001401663 -0.001248337 -0.001107729
 -0.0009983189 -0.0009207999 -0.0008886437 -0.0009016619 -0.0009664004 -0.001082218 -0.0012513 -0.001471876 -0.001742014 -0.002060047
 -0.00242295 -0.002830658 -0.003284346 -0.003776815 -0.004309227 -0.004857739 -0.005414556 -0.005958279 -0.006479067 -0.006980439
 -0.0074603 -0.007933527 -0.008401851 -0.008870872 -0.009341125 -0.009808605 -0.01027297 -0.01072856 -0.01117477 -0.01160526
 -0.01201907 -0.01240799 -0.01277398 -0.01311481 -0.01344014 -0.01376326 -0.01409883 -0.01447031 -0.01488585 -0.01536343
 -0.01589476 -0.01648332 -0.01710819 -0.01776229 -0.01842954 -0.01910401 -0.01977903 -0.02045466 -0.02111297 -0.02175371
 -0.02234199 -0.02287536 -0.02334168 -0.02374233 -0.02410267 -0.0244257 -0.02474524 -0.02506058 -0.0253883 -0.02572312
 -0.02606026 -0.02639393 -0.02671142 -0.02700999 -0.02728121 -0.02752418 -0.02773595 -0.02791461 -0.02805935 -0.02816513
 -0.02823076 -0.02824853 -0.02821625 -0.02812827 -0.02798286 -0.02777981 -0.02751891 -0.02720057 -0.02682493 -0.02638646
 -0.02588535 -0.02532233 -0.02470255 -0.0240606 -0.02340707 -0.02280497 -0.02225866 -0.02181512 -0.02146515 -0.0212169
 -0.02105144 -0.02094977 -0.0208925 -0.02085584 -0.0208297 -0.02080022 -0.02076835 -0.02073024 -0.02069343 -0.0206589
 -0.02063472 -0.02062318 -0.02062502 -0.02064128 -0.02066372 -0.02069199 -0.02071489 -0.02073211 -0.02073795 -0.02073313
 -0.02072027 -0.0207004 -0.02067934 -0.02065715 -0.02063729 -0.02061854 -0.02060097 -0.02058122 -0.02055607 -0.02051966
 -0.02046623 -0.0203901 -0.02028635 -0.02015124 -0.01998227 -0.01977683 -0.0195335 -0.01925201 -0.01893157 -0.01857586
 -0.01818482 -0.01776521 -0.01731728 -0.01685196 -0.01637023 -0.01589192 -0.01541908 -0.0149776 -0.01456789 -0.01420666
 -0.01389079 -0.01362032 -0.01339212 -0.01319952 -0.01304269 -0.01291856 -0.01282966 -0.01277733 -0.0127633 -0.0127895
 -0.01285524 -0.01296119 -0.01310448 -0.01328486 -0.01349798 -0.01374338 -0.01401549 -0.01431405 -0.01463089 -0.01496564
 -0.01530537 -0.01564934 -0.01598342 -0.01630739 -0.0166127 -0.01690037 -0.01717007 -0.01742365 -0.01766591 -0.01789888
 -0.01812857 -0.01835653 -0.01858733 -0.01882165 -0.01906149 -0.01930762 -0.01956096 -0.01982247 -0.02009344 -0.02037178
 -0.02065854 -0.02094488 -0.02123003 -0.02150213 -0.02175933 -0.02199647 -0.02221281 -0.02241148 -0.02259261 -0.02275925
 -0.02291078 -0.02304322 -0.02315556 -0.02324037 -0.02329859 -0.02332807 -0.02333255 -0.02331779 -0.02328839 -0.02325296
 -0.02321462 -0.02317957 -0.02314862 -0.02312406 -0.0231058 -0.02309419 -0.02308955 -0.02309215 -0.02310186 -0.02311902
 -0.02314144 -0.02316904 -0.02319857 -0.02322977 -0.02326057 -0.0232909 -0.02332043 -0.0233492 -0.0233774 -0.02340512
 -0.02343297 -0.02346084 -0.02348904 -0.02351683 -0.0235433 -0.02356675 -0.02358458 -0.02359501 -0.02359519 -0.02358459
 -0.0235614 -0.02352795 -0.02348414 -0.02343491 -0.02338145 -0.0233288 -0.02327845 -0.02323182 -0.02318949 -0.02315012
 -0.02311364 -0.02307912 -0.02304658 -0.02301735 -0.02299146 -0.0229698 -0.02295201 -0.02293675 -0.02292371 -0.02291102
 -0.02289913 -0.02288789 -0.02287838 -0.02287222 -0.02286979 -0.02287241 -0.02287917 -0.02289003 -0.02290351 -0.02291896
 -0.02293514 -0.02295178 -0.02296685 -0.02298018 -0.02298845 -0.02299116 -0.02298626 -0.02297343 -0.02295372 -0.02292719
 -0.02289615 -0.02286059 -0.02282123 -0.02277776 -0.02272894 -0.02267436 -0.02261207 -0.02254175 -0.02246166 -0.02237203
 -0.02227215 -0.02216328 -0.02204627 -0.02192269 -0.02179413 -0.02166076 -0.0215233 -0.02138051 -0.0212318 -0.02107761
 -0.02091729 -0.02075511 -0.02059126 -0.02043196 -0.02027779 -0.02013286 -0.01999737 -0.01987154 -0.01975517 -0.01964642
 -0.01954498 -0.01944846 -0.0193563 -0.01926554 -0.01917546 -0.01908263 -0.01898776 -0.01888978 -0.01879138 -0.01869484
 -0.01860257 -0.01851743 -0.01843924 -0.01836862 -0.01830495 -0.01824744 -0.01819883 -0.01815917 -0.01813337 -0.01812236
 -0.01812777 -0.01815011 -0.01818493 -0.01823198 -0.01828434 -0.01834177 -0.01839924 -0.01845701 -0.01851374 -0.01856998
 -0.01862685 -0.0186847 -0.01874498 -0.01880747 -0.0188727 -0.01893968 -0.01900765 -0.01907541 -0.01914185 -0.01920616
 -0.01926764 -0.01932595 -0.01938081 -0.0194322 -0.01948018 -0.01952421 -0.01956426 -0.01959961 -0.01963021 -0.0196554
 -0.01967516 -0.01968935 -0.01969803 -0.01970189 -0.01970073 -0.01969423 -0.01968158 -0.01965992 -0.01962836 -0.01958307
 -0.01952453 -0.01945137 -0.01936552 -0.01926892 -0.01916206 -0.01904695 -0.01892018 -0.01878105 -0.01862479 -0.01844909
 -0.01825311 -0.01803545 -0.01780071 -0.0175491 -0.01728663 -0.0170139 -0.01673432 -0.0164481 -0.0161576 -0.01586321
 -0.01557021 -0.01527956 -0.01499965 -0.01473094 -0.01448007 -0.01424563 -0.01402816 -0.01382485 -0.0136314 -0.01344578
 -0.01326385 -0.01308535 -0.01290873 -0.01273427 -0.01256176 -0.0123914 -0.01222313 -0.01205738 -0.01189414 -0.01173435
 -0.01157808 -0.01142658 -0.01127995 -0.01113937 -0.01100489 -0.01087727 -0.01075631 -0.01064003 -0.01052766 -0.01041369
 -0.01029723 -0.01017185 -0.01003788 -0.009892404 -0.009737407 -0.009574487 -0.009406367 -0.009236892 -0.009067491 -0.008900946
 -0.008736367 -0.008574402 -0.008412502 -0.008249821 -0.008084712 -0.007916274 -0.007745503 -0.007572165 -0.00739927 -0.00722704
 -0.007058463 -0.006893735 -0.006733411 -0.006577352 -0.006423575 -0.006271933 -0.006120287 -0.005969099 -0.005818508 -0.005669958
 -0.005526733 -0.005390686 -0.005266573 -0.005155016 -0.005059339 -0.004977195 -0.004908278 -0.004848832 -0.004796255 -0.004749754
 -0.004707739 -0.004673484 -0.004647866 -0.004631762 -0.004626431 -0.004624678 -0.004626345 -0.004619992 -0.004604917 -0.004573695
 -0.004526316 -0.004461899 -0.004380851 -0.004285165 -0.004175314 -0.004053485 -0.003921297 -0.003782878 -0.003641978 -0.003505981
 -0.003380035 -0.003272948 -0.0031886 -0.00313359 -0.003107967 -0.003114283 -0.0031488 -0.003211173 -0.00329611 -0.00340248
 -0.003525174 -0.003663487 -0.003811888 -0.003969973 -0.004130916 -0.004294286 -0.00445428 -0.004610852 -0.004762829 -0.004910802
 -0.005058178 -0.005205454 -0.005356646 -0.005511268 -0.005670317 -0.00583263 -0.005996816 -0.006161441 -0.00632443 -0.006484168
 -0.006638392 -0.006786892 -0.006928042 -0.007065383 -0.007199644 -0.007334938 -0.007473266 -0.007613137 -0.007755315 -0.007892666
 -0.008024295 -0.008147193 -0.008260946 -0.008372646 -0.008482815 -0.008601627 -0.008728803 -0.008867427 -0.009016248 -0.009171547
 -0.009333131 -0.009498226 -0.00966814 -0.009844531 -0.01002697 -0.01021659 -0.0104097 -0.01060351 -0.0107952 -0.0109806
 -0.01116474 -0.01134709 -0.01153886 -0.01174324 -0.01196687 -0.01221276 -0.01247497 -0.01275394 -0.01303556 -0.01331895
 -0.01359228 -0.01385525 -0.01410349 -0.01433733 -0.01455711 -0.01476301 -0.01495585 -0.01513563 -0.01530255 -0.01545725
 -0.01560069 -0.01573422 -0.01585984 -0.01597885 -0.01609307 -0.01620324 -0.01631019 -0.01641467 -0.01651718 -0.01661816
 -0.01671824 -0.01681547 -0.01690997 -0.01699742 -0.01707735 -0.01714654 -0.01720467 -0.01725304 -0.01729189 -0.01732643
 -0.01735697 -0.01738852 -0.01742066 -0.01745479 -0.0174894 -0.01752115 -0.01754858 -0.01756667 -0.01757674 -0.0175774
 -0.01757337 -0.01756812 -0.01756611 -0.01757197 -0.01758496 -0.01760661 -0.01763235 -0.01766104 -0.01768987 -0.01771771
 -0.01774611 -0.01777504 -0.017807 -0.01784222 -0.01788109 -0.01792363 -0.0179696 -0.01801894 -0.01807155 -0.01812689
 -0.01818287 -0.01823819 -0.018288 -0.01833154 -0.01836472 -0.01838836 -0.01840176 -0.0184061 -0.01840224 -0.01839098
 -0.01837248 -0.01834936 -0.01832214 -0.01829537 -0.0182707 -0.01825008 -0.01823482 -0.01822148 -0.01821005 -0.01819493
 -0.01817572 -0.01814868 -0.01811369 -0.01806934 -0.01801581 -0.01795377 -0.01788407 -0.01781066 -0.01773459 -0.01766127
 -0.01759056 -0.01752514 -0.01746357 -0.01740493 -0.01734827 -0.01729177 -0.0172369 -0.01718352 -0.01713493 -0.01709263
 -0.01705876 -0.01703507 -0.01701863 -0.01700987 -0.0170014 -0.01699246 -0.01697657 -0.01695307 -0.01692117 -0.01688093
 -0.01683478 -0.01678289 -0.01672752 -0.01666874 -0.01660802 -0.01654539 -0.01648195 -0.01641697 -0.01634968 -0.01627889
 -0.01620214 -0.0161201 -0.01603159 -0.01594043 -0.01584854 -0.01575967 -0.01567686 -0.01559884 -0.01552689 -0.01545431
 -0.01538009 -0.01529812 -0.01520693 -0.01510762 -0.01499986 -0.01489185 -0.01478403 -0.01468592 -0.01459761 -0.01452419
 -0.01446498 -0.01441989 -0.01438728 -0.01436292 -0.01434366 -0.01432153 -0.01429299 -0.01424898 -0.01418947 -0.01410954
 -0.01401551 -0.01390916 -0.01379918 -0.01369084 -0.01358647 -0.01348939 -0.01339256 -0.01329552 -0.01318945 -0.01307251
 -0.01294398 -0.01280319 -0.01266002 -0.01251503 -0.01238166 -0.01225996 -0.01215634 -0.01206882 -0.01199144 -0.01192143
 -0.01184632 -0.01176648 -0.01167525 -0.01157783 -0.01147848 -0.01138312 -0.01130025 -0.01123039 -0.01117784 -0.0111369
 -0.01110669 -0.01107965 -0.01105314 -0.01102236 -0.01098554 -0.01094165 -0.01089004 -0.01083294 -0.01077043 -0.0107055
 -0.0106383 -0.01057006 -0.01050055 -0.0104279 -0.01035167 -0.01026837 -0.01017839 -0.01008038 -0.009976618 -0.009870903
 -0.009766194 -0.009669211 -0.009579766 -0.00950151 -0.00942916 -0.009360872 -0.009289709 -0.00921146 -0.009123204 -0.009022024
 -0.008911837 -0.008791775 -0.008672677 -0.008555222 -0.008453947 -0.008370331 -0.008311617 -0.008278063 -0.008262001 -0.00826226
 -0.008263128 -0.00826439 -0.008256512 -0.008240784 -0.008216738 -0.008184871 -0.008146027 -0.008100286 -0.00804716 -0.007989452
 -0.007929385 -0.007870871 -0.00781857 -0.00777095 -0.007730198 -0.007687416 -0.007640374 -0.007580916 -0.007505469 -0.007416991
 -0.00731426 -0.007210654 -0.007107143 -0.007015562 -0.006936495 -0.006870122 -0.006815709 -0.006764624 -0.006716424 -0.006664218
 -0.00660838 -0.006546903 -0.006479512 -0.006404674 -0.006321886 -0.00622869 -0.006127723 -0.006019702 -0.005910678 -0.005805713
 -0.005707755 -0.005621245 -0.005540849 -0.005466565 -0.005389595 -0.005307354 -0.005216991 -0.005116854 -0.005013081 -0.004905772
 -0.004804671 -0.004710304 -0.004630212 -0.004564293 -0.004514023 -0.004477956 -0.00444926 -0.004425488 -0.004394311 -0.004354937
 -0.004298333 -0.004227761 -0.004143951 -0.0040514 -0.003956162 -0.003858755 -0.00376239 -0.003663529 -0.003560839 -0.003452672
 -0.003336987 -0.003218391 -0.003097062 -0.002979985 -0.002868605 -0.002764989 -0.002669908 -0.002577734 -0.002488194 -0.002392081
 -0.002289179 -0.002173963 -0.002047392 -0.001911894 -0.001769296 -0.00162746 -0.001487259 -0.001354917 -0.001229735 -0.001113005
 -0.001004704 -0.000904398 -0.0008148801 -0.0007380482 -0.0006763996 -0.0006329477 -0.0006044937 -0.0005917576 -0.0005863232 -0.0005863523
 -0.0005854618 -0.0005820952 -0.0005749445 -0.0005638684 -0.0005465741 -0.0005229406 -0.0004873646 -0.0004398149 -0.0003780742 -0.000303427
 -0.0002225582 -0.0001369336 -5.59727E-05 2.094829E-05 9.010885E-05 0.0001540173 0.0002160475 0.0002757531 0.0003362643 0.0003894561
 0.0004314536 0.0004507368 0.0004374787 0.0003938804 0.0003111794 0.0002263254 0.0001426212 0.0001137153 0.0001546295 0.0002561832
 0.0004228356 0.0005876634 0.0007468337 0.0008660936 0.0009464715 0.0009998106 0.001028511 0.001054116 0.001075427 0.001099002
 0.001122983 0.001144799 0.001166431 0.001190235 0.001217778 0.001252941 0.00129311 0.001337072 0.001383738 0.001430961
 0.001482896 0.001540683 0.00160741 0.001684745 0.001770741 0.001865503 0.001965915 0.002071799 0.002179668 0.002289383
 0.002392444 0.00248821 0.002565044 0.002623068 0.002656568 0.002667684 0.002661218 0.002639905 0.002613505 0.002582424
 0.002552908 0.002521283 0.002486084 0.002442482 0.00238488 0.002313786 0.002226393 0.002129843 0.002025202 0.001922537
 0.001823892 0.001740323 0.001674224 0.001631692 0.00161468 0.001613676 0.001628384 0.001639391 0.001646466 0.001644277
 0.001635189 0.001633954 0.001641008 0.001667355 0.001708568 0.001758198 0.001813553 0.001865162 0.001916833 0.001969791
 0.002026852 0.002093243 0.002162563 0.002233438 0.002297169 0.002348165 0.002388736 0.002416941 0.002444015 0.002472152
 0.002506047 0.002547262 0.002588362 0.002628998 0.00266119 0.002685035 0.002702727 0.002715484 0.002733138 0.002756404
 0.002794114 0.002844644 0.002909806 0.002983871 0.003058789 0.003126063 0.003170431 0.003190476 0.003175114 0.003140762
 0.003090306 0.003050959 0.003036093 0.003056877 0.003123549 0.00321624 0.003335338 0.00344682 0.003546213 0.003616898
 0.003656874 0.003679795 0.003687 0.003706536 0.003738653 0.003799817 0.003885807 0.003988921 0.004102594 0.004204798
 0.004292378 0.004347957 0.004374727 0.004368991 0.004336903 0.004282421 0.004211051 0.004126258 0.00403494 0.003939257
 0.003849902 0.003770083 0.003707997 0.003666725 0.003643819 0.003640198 0.003643795 0.003653941 0.003658377 0.003656633
 0.003641459 0.003612883 0.003567608 0.003506025 0.003427232 0.003333178 0.003227689 0.003115025 0.003004676 0.002900546
 0.002813111 0.002739957 0.002684701 0.002637227 0.002592496 0.002542121 0.002478952 0.002408299 0.002328343 0.002254631
 0.00219043 0.00214316 0.002115466 0.002096643 0.002086345 0.002068155 0.002041805</values></Ydata></AB><ScSm><Ydata ylabel="Single channel"><values byteorder="INTEL" format="FLOAT32" numvalues="1814"> 0.08795416 0.08806393 0.08819461 0.08834962 0.08851734 0.08868101 0.08882949 0.08896245 0.08908519 0.08919771
 0.0892977 0.08939689 0.08952013 0.08967933 0.08985644 0.09001751 0.09013997 0.09023166 0.09032865 0.0904623
 0.09061712 0.09073156 0.09075364 0.0906969 0.09063393 0.09063175 0.09070679 0.090859 0.09111394 0.09145851
 0.09174958 0.09180576 0.09163453 0.09146442 0.09149274 0.09168816 0.0918839 0.09196262 0.09190305 0.09176433
 0.09170935 0.09195309 0.09256715 0.0933211 0.09375504 0.09344624 0.09229098 0.0906543 0.08928115 0.08890736
 0.08972919 0.09118304 0.09236679 0.09276645 0.09253363 0.09210008 0.09172946 0.09151124 0.09155653 0.09197628
 0.09269823 0.09339729 0.09362194 0.09308857 0.09200285 0.09102472 0.09073006 0.0911631 0.09203881 0.09308787
 0.09380044 0.09316985 0.09058594 0.08718678 0.08550125 0.08711162 0.09099754 0.09459716 0.09613848 0.09557416
 0.09383944 0.09202917 0.09110975 0.09158637 0.09317225 0.09507376 0.09662165 0.09744997 0.09732822 0.09626804
 0.09474149 0.09348148 0.09307508 0.09379478 0.09548774 0.09740694 0.09850934 0.09827748 0.09710677 0.09579119
 0.09493922 0.09494376 0.09600939 0.09790958 0.1000091 0.1017339 0.1028703 0.1034374 0.1035458 0.1033748
 0.1030853 0.1027976 0.10271 0.1029967 0.1034646 0.1035958 0.1031235 0.1023934 0.1020124 0.1022234
 0.1026989 0.102937 0.1027598 0.1022146 0.1010618 0.09889586 0.09597725 0.09335678 0.09184752 0.09145616
 0.09205446 0.09372522 0.09595411 0.09738602 0.09719427 0.09620064 0.0959855 0.09717738 0.09906267 0.1006196
 0.1015077 0.1021166 0.1029624 0.1041077 0.1050178 0.1049552 0.1037322 0.1021787 0.1015898 0.1024721
 0.1040514 0.1052238 0.1057161 0.1060482 0.1066188 0.1071293 0.1068434 0.1053757 0.1033569 0.1022148
 0.1029945 0.1053223 0.1076021 0.1082244 0.1067096 0.1039639 0.1015201 0.1004373 0.1008909 0.1026116
 0.1052622 0.1082707 0.1107393 0.1119 0.1116465 0.1105146 0.1090982 0.107495 0.105518 0.1035586
 0.1028113 0.1041543 0.1070196 0.1098464 0.1115215 0.1119941 0.1116399 0.1105072 0.1084195 0.105756
 0.1037983 0.1037789 0.1054782 0.1072835 0.107905 0.1075799 0.1073329 0.1075748 0.1078825 0.1078604
 0.1077308 0.1080188 0.1088845 0.1099201 0.1105813 0.1106873 0.110462 0.110217 0.1100558 0.1098138
 0.1093139 0.1087638 0.1087401 0.1095794 0.1109232 0.1120768 0.1126937 0.1129135 0.1129398 0.1127
 0.1119736 0.1108266 0.1098202 0.1096114 0.110314 0.1114137 0.1123156 0.1127865 0.1128921 0.1127735
 0.1125534 0.1123051 0.1120682 0.1119324 0.1120225 0.1123327 0.112679 0.1128822 0.112915 0.1128361
 0.1126704 0.1124103 0.112092 0.1118213 0.1117074 0.111776 0.1119616 0.112174 0.1123384 0.1123893
 0.1122953 0.1121017 0.1118987 0.1117392 0.1116228 0.1115489 0.1115397 0.1115989 0.1116839 0.1117375
 0.1117355 0.11169 0.1116156 0.1115147 0.1113938 0.1112774 0.1111986 0.1111785 0.1112062 0.1112438
 0.1112689 0.111302 0.1113648 0.1114238 0.111418 0.1113368 0.1112338 0.111169 0.1111617 0.1111931
 0.1112276 0.111227 0.1111618 0.111031 0.110882 0.1107965 0.1108301 0.110973 0.1111755 0.1113913
 0.1115804 0.1117092 0.1117758 0.1118128 0.1118469 0.1118746 0.1118853 0.1118907 0.1119263 0.1120247
 0.1121821 0.1123539 0.1124929 0.1125836 0.1126384 0.1126832 0.1127527 0.1128639 0.1129815 0.1130459
 0.11305 0.1130549 0.1131152 0.1132178 0.1133051 0.1133428 0.1133506 0.1133726 0.1134301 0.113507
 0.1135769 0.1136347 0.1136981 0.1137802 0.1138614 0.1138954 0.1138564 0.1137753 0.11371 0.1136862
 0.1136864 0.1136941 0.1137165 0.1137595 0.1138023 0.1138129 0.113782 0.1137327 0.1136927 0.1136623
 0.1136171 0.1135394 0.1134388 0.11334 0.1132583 0.1131907 0.113122 0.1130374 0.1129312 0.1128072
 0.1126727 0.1125325 0.1123877 0.1122407 0.1121071 0.1120125 0.1119613 0.1119112 0.1117992 0.1116026
 0.1113628 0.1111449 0.110981 0.1108557 0.1107335 0.1105941 0.1104429 0.1102992 0.1101769 0.1100771
 0.1099934 0.1099199 0.1098599 0.1098277 0.1098377 0.1098809 0.1099215 0.1099262 0.1098983 0.1098711
 0.1098712 0.1098978 0.1099356 0.1099748 0.110019 0.1100803 0.1101644 0.1102581 0.1103379 0.1103966
 0.110452 0.1105288 0.1106414 0.1107919 0.1109657 0.1111309 0.11126 0.1113595 0.1114647 0.1115999
 0.1117589 0.1119252 0.1120957 0.1122783 0.1124774 0.1126922 0.1129239 0.1131769 0.1134529 0.1137472
 0.1140482 0.1143428 0.1146266 0.114912 0.1152195 0.1155589 0.1159202 0.1162848 0.1166414 0.1169925
 0.1173479 0.1177119 0.1180783 0.118442 0.1188108 0.1191995 0.1196108 0.1200311 0.1204457 0.1208529
 0.1212604 0.1216734 0.1220903 0.1225087 0.1229332 0.1233728 0.1238244 0.1242648 0.1246687 0.1250364
 0.1253963 0.1257796 0.126196 0.1266292 0.1270465 0.1274199 0.1277517 0.1280752 0.1284208 0.1287857
 0.1291484 0.1295067 0.1298851 0.130298 0.1307188 0.1310967 0.1314038 0.1316629 0.1319225 0.1322064
 0.1324958 0.1327607 0.1329996 0.1332352 0.1334823 0.1337351 0.1339897 0.1342594 0.1345538 0.1348552
 0.1351321 0.1353724 0.135591 0.1358041 0.1360094 0.1361931 0.1363487 0.1364881 0.1366357 0.1368083
 0.1369982 0.1371848 0.1373642 0.1375562 0.1377795 0.1380326 0.1383077 0.1386068 0.1389311 0.139265
 0.1395898 0.1399128 0.1402605 0.1406362 0.1410014 0.1413159 0.1415829 0.141836 0.142096 0.1423639
 0.1426482 0.142969 0.1433323 0.1437165 0.1440901 0.1444335 0.1447507 0.1450655 0.1453987 0.145742
 0.1460604 0.1463279 0.1465534 0.1467689 0.1470019 0.1472585 0.1475258 0.1477813 0.1480046 0.1481801
 0.1482898 0.1483153 0.1482544 0.1481282 0.1479577 0.1477352 0.1474266 0.1470002 0.1464438 0.1457537
 0.1449211 0.1439411 0.1428397 0.1416932 0.1406215 0.1397556 0.1391963 0.1389909 0.1391346 0.1395792
 0.1402354 0.1409777 0.1416659 0.1421728 0.1423995 0.1422836 0.1418124 0.1410287 0.140015 0.1388664
 0.1376689 0.13649 0.1353811 0.1344009 0.1336498 0.1332788 0.1334515 0.1342847 0.1358031 0.1379126
 0.1403975 0.1429678 0.1453584 0.1474225 0.1491512 0.1506166 0.1519031 0.1530746 0.1541749 0.1552292
 0.156242 0.1572028 0.1581002 0.1589303 0.159691 0.1603739 0.1609615 0.1614314 0.1617656 0.1619624
 0.1620412 0.162038 0.1619988 0.1619717 0.1619842 0.1620128 0.1619788 0.1617853 0.1613684 0.1607279
 0.1599447 0.1591967 0.1587562 0.1589263 0.1599135 0.1617028 0.1640408 0.1665553 0.1689204 0.1709495
 0.1725892 0.1738738 0.174883 0.1757036 0.176403 0.1770265 0.1776075 0.1781688 0.1787184 0.1792541
 0.1797733 0.1802779 0.1807724 0.1812603 0.1817392 0.182202 0.1826468 0.1830835 0.1835271 0.1839848
 0.1844491 0.1849063 0.1853505 0.1857896 0.1862331 0.1866768 0.1871074 0.1875202 0.187925 0.1883343
 0.1887533 0.1891795 0.1896033 0.1900103 0.1903915 0.1907524 0.1911077 0.1914664 0.1918271 0.1921848
 0.1925374 0.1928846 0.1932262 0.1935639 0.1939023 0.1942444 0.1945855 0.1949172 0.195237 0.1955513
 0.1958669 0.1961834 0.1964957 0.1968032 0.1971119 0.1974301 0.1977608 0.1980979 0.1984302 0.1987492
 0.1990554 0.1993562 0.1996589 0.1999664 0.2002773 0.2005893 0.2009017 0.2012142 0.2015247 0.2018302
 0.2021304 0.202429 0.2027302 0.2030341 0.203337 0.2036355 0.2039311 0.2042281 0.2045279 0.2048281
 0.2051268 0.2054253 0.2057224 0.2060122 0.2062899 0.2065581 0.2068255 0.2070987 0.2073773 0.2076567
 0.2079348 0.2082143 0.2084979 0.2087827 0.2090635 0.2093398 0.2096161 0.2098971 0.2101829 0.2104698
 0.2107549 0.2110389 0.2113245 0.2116108 0.2118948 0.2121762 0.2124586 0.2127444 0.2130313 0.2133159
 0.2135965 0.2138749 0.2141549 0.2144387 0.2147249 0.2150113 0.2152969 0.2155812 0.2158637 0.2161455
 0.2164278 0.2167103 0.2169922 0.2172735 0.2175537 0.2178332 0.2181141 0.2183987 0.2186855 0.2189718
 0.219256 0.2195371 0.2198144 0.2200905 0.2203692 0.2206517 0.2209367 0.2212236 0.2215113 0.2217988
 0.2220855 0.2223695 0.2226479 0.2229222 0.2231983 0.2234803 0.2237673 0.2240557 0.2243412 0.2246207
 0.2248981 0.2251815 0.2254723 0.2257643 0.2260531 0.2263408 0.2266315 0.2269284 0.2272328 0.2275405
 0.2278456 0.2281458 0.2284412 0.2287308 0.2290144 0.2292925 0.2295641 0.2298291 0.2300923 0.2303584
 0.2306273 0.2308985 0.2311737 0.231452 0.231731 0.2320137 0.2323039 0.2325999 0.2328993 0.2332015
 0.2335039 0.2338029 0.2340999 0.234397 0.2346933 0.2349894 0.2352892 0.2355931 0.2358991 0.236208
 0.2365194 0.2368292 0.237137 0.2374481 0.2377624 0.2380756 0.2383874 0.2386988 0.2390069 0.2393126
 0.2396211 0.2399329 0.2402457 0.2405601 0.2408753 0.2411852 0.2414897 0.2417961 0.2421069 0.2424205
 0.2427372 0.2430543 0.2433659 0.2436745 0.2439877 0.2443042 0.2446185 0.2449328 0.2452493 0.2455637
 0.2458753 0.2461872 0.2464951 0.2467954 0.2470948 0.2473968 0.2476952 0.2479883 0.2482791 0.2485576
 0.248798 0.2489414 0.2488319 0.2481411 0.246322 0.2426152 0.2361987 0.226522 0.2136427 0.1983147
 0.1817713 0.1653392 0.1500842 0.1366718 0.1254531 0.1166055 0.1102346 0.106463 0.1054992 0.1077344
 0.1138746 0.1245212 0.1386258 0.1521583 0.1596189 0.1582075 0.1503634 0.1415521 0.135816 0.1337975
 0.1341231 0.1354363 0.1371966 0.1395349 0.1427873 0.1470052 0.1519021 0.1573303 0.1635595 0.1708626
 0.1789825 0.1872271 0.1950505 0.2024042 0.2095328 0.2165477 0.2232617 0.2293701 0.2346864 0.2392059
 0.2430464 0.2463731 0.2493312 0.2520116 0.2544722 0.2567472 0.2588 0.2605017 0.2617086 0.2623791
 0.2626242 0.2626559 0.2626714 0.2627707 0.2629692 0.2632597 0.2636364 0.2640872 0.264598 0.2651586
 0.2657531 0.26636 0.2669655 0.2675616 0.2681361 0.2686794 0.2691922 0.2696769 0.2701349 0.2705717
 0.2709935 0.2714001 0.2717922 0.272177 0.2725592 0.2729373 0.2733106 0.2736757 0.274022 0.274342
 0.2746404 0.2749255 0.2752025 0.2754745 0.2757429 0.2760038 0.2762556 0.276504 0.2767547 0.2770076
 0.277261 0.2775111 0.2777542 0.2779915 0.2782273 0.2784604 0.2786877 0.2789144 0.2791476 0.2793867
 0.2796263 0.279865 0.2801034 0.2803394 0.2805712 0.2808004 0.2810326 0.2812762 0.281535 0.2818029
 0.2820718 0.2823415 0.2826144 0.2828855 0.2831495 0.2834097 0.2836744 0.2839485 0.2842312 0.2845147
 0.2847846 0.2850294 0.2852491 0.2854542 0.2856607 0.2858822 0.2861187 0.2863567 0.2865851 0.2868071
 0.287034 0.2872735 0.2875243 0.2877772 0.2880218 0.2882603 0.2885069 0.2887709 0.289048 0.2893314
 0.2896194 0.2899113 0.2902064 0.2905062 0.2908089 0.2911042 0.2913812 0.2916437 0.2919142 0.2922192
 0.2925643 0.2929237 0.2932627 0.2935717 0.29387 0.2941807 0.2945123 0.2948528 0.2951682 0.2954258
 0.2956383 0.2958717 0.2961871 0.2965826 0.2970042 0.2974016 0.2977617 0.2980976 0.2984219 0.2987327
 0.2990183 0.2992724 0.2995093 0.2997688 0.3000903 0.3004725 0.300869 0.3012353 0.3015637 0.3018671
 0.3021556 0.3024369 0.3027043 0.3029166 0.30304 0.3031296 0.3033212 0.303703 0.3042162 0.3047161
 0.3051164 0.3054419 0.3057513 0.3060607 0.3063548 0.3066031 0.3067266 0.3066382 0.3064053 0.3063048
 0.3065985 0.3072693 0.3080536 0.3087084 0.3091711 0.3095039 0.3097825 0.3100457 0.3102737 0.3103896
 0.3103411 0.3102205 0.310253 0.3105927 0.3111508 0.311695 0.3120941 0.3123904 0.3126715 0.312968
 0.3132368 0.3133391 0.3131012 0.312557 0.3121046 0.3122457 0.313099 0.3142626 0.3152137 0.3157719
 0.3160989 0.3163292 0.3163759 0.3160955 0.315466 0.3145925 0.3137557 0.3134607 0.3141085 0.3154812
 0.3168293 0.3176233 0.3180088 0.3184285 0.3190445 0.3196713 0.3200815 0.3202108 0.3201195 0.319859
 0.3194456 0.3190127 0.3189035 0.3194294 0.3205062 0.321672 0.3225218 0.3230279 0.3233544 0.3233843
 0.3225971 0.320686 0.3183657 0.317191 0.318176 0.3207284 0.3232933 0.3248904 0.3256501 0.3260853
 0.3264213 0.3265319 0.3259284 0.3239218 0.3205629 0.317459 0.316797 0.3191891 0.3229885 0.3258855
 0.3266693 0.3254726 0.3231836 0.3210373 0.320178 0.3210386 0.3231573 0.3256487 0.327736 0.3289655
 0.3292383 0.3287669 0.327986 0.3274342 0.3274136 0.3275346 0.3269618 0.3255004 0.3239776 0.3229735
 0.3217584 0.3194837 0.3170637 0.3166063 0.3188027 0.3219302 0.3238515 0.3242026 0.3240073 0.3236146
 0.3218592 0.3176011 0.31184 0.3076834 0.3076823 0.3112826 0.315374 0.317344 0.3171409 0.3163823
 0.3160792 0.3155659 0.3134908 0.3097301 0.306128 0.3048466 0.3059477 0.3073063 0.3069677 0.3045254
 0.3000948 0.2938048 0.2873957 0.2845621 0.28769 0.2948792 0.3016221 0.3047032 0.3032159 0.2972119
 0.2880011 0.2795215 0.2765757 0.2804042 0.2872284 0.2918941 0.2919196 0.2876075 0.2799534 0.2701947
 0.2608789 0.2555499 0.2564888 0.2628882 0.2710311 0.2759292 0.2738775 0.2654104 0.2560061 0.2519604
 0.2544874 0.2589405 0.2602812 0.2578088 0.254108 0.2515056 0.2507795 0.2516263 0.2530203 0.2540151
 0.2544801 0.2537778 0.2494111 0.2398098 0.2285196 0.2223289 0.2242524 0.231085 0.238583 0.2457267
 0.2523675 0.2561665 0.25512 0.2516063 0.2508834 0.2554857 0.262803 0.2683887 0.2704546 0.2705911
 0.2708061 0.2710529 0.2703094 0.2693204 0.2706133 0.2753472 0.2815021 0.2860725 0.2880816 0.2885876
 0.2886766 0.2885537 0.2880949 0.2872874 0.2861881 0.2849422 0.2837678 0.282718 0.2816417 0.2804706
 0.2791476 0.2770113 0.2728456 0.2664669 0.2600854 0.2567875 0.2573052 0.2595563 0.2616429 0.2632358
 0.2630911 0.2580171 0.2470585 0.2352444 0.2301284 0.2344971 0.2441678 0.2526971 0.2564773 0.2551754
 0.2495452 0.2410804 0.2335623 0.232409 0.2404906 0.2551071 0.2704008 0.2823005 0.2900639 0.294006
 0.2939399 0.2903477 0.2857143 0.28357 0.2860915 0.2926866 0.3004588 0.3055294 0.3047177 0.2981641
 0.2911117 0.2907141 0.2988807 0.3097004 0.315968 0.3167585 0.3163469 0.3174592 0.3189381 0.3194999
 0.3203747 0.3232009 0.3272972 0.3302113 0.3299103 0.3256384 0.3178965 0.3090101 0.3027743 0.3015115
 0.3036026 0.305432 0.3051355 0.3026353 0.2973744 0.2893898 0.2822398 0.2810687 0.2867591 0.294607
 0.2996789 0.3014029 0.3020751 0.3027114 0.3018472 0.2980054 0.2923298 0.2880926 0.2874749 0.2894914
 0.2915738 0.292335 0.2917941 0.2897836 0.2859433 0.2814086 0.2789622 0.2805873 0.2853726 0.2904203
 0.2935231 0.2945197 0.2944515 0.2942197 0.2941006 0.2939138 0.2934651 0.2931629 0.29405 0.2966737
 0.3000924 0.3027163 0.3041314 0.3054415 0.3077233 0.3107196 0.3132538 0.3145487 0.3149195 0.3153694
 0.3166699 0.3187183 0.3206291 0.3215041 0.3212998 0.3209727 0.3216208 0.3234433 0.3256692 0.3274536
 0.3285933 0.3293968 0.3301915 0.3310531 0.33177 0.3320162 0.3317803 0.3316277 0.3322776 0.3338501
 0.3357223 0.3371586 0.3379118 0.3381794 0.3381866 0.3379673 0.3374864 0.3368286 0.3362039 0.3357903
 0.3356131 0.3355767 0.3355772 0.3355635 0.3355322 0.3355123 0.3355473 0.3356613 0.3358433 0.3360699
 0.3363201 0.3365583 0.3367382 0.3368472 0.3369182 0.3369716 0.3369666 0.3368257 0.3364848 0.3359001
 0.33503 0.3338374 0.3322985 0.330385 0.3280645 0.3254039 0.3227467 0.3207504 0.3201111 0.3211208
 0.3234391 0.326292 0.3289121 0.3308645 0.3320853 0.3327266 0.3329869 0.3330222 0.3329275 0.3327492
 0.3325092 0.3322258 0.331919 0.3316035 0.3312921 0.3310021 0.3307512 0.3305423 0.3303578 0.3301647
 0.3299256 0.3296122 0.3292134 0.3287317 0.3281714 0.3275253 0.326772 0.3258904 0.3248858 0.3238043
 0.322711 0.3216508 0.3206255 0.3196015 0.3185369 0.3173922 0.3161084 0.3146024 0.3128451 0.3109629
 0.3092032 0.3077397 0.3065283 0.3053804 0.304145 0.3027876 0.3013338 0.2998083 0.2982312 0.2966246
 0.2950005 0.2933494 0.2916459 0.2898611 0.2879797 0.2860082 0.2839676 0.2818763 0.2797454 0.2775788
 0.2753557 0.2730036 0.2703962 0.2673838 0.2638321 0.2596497 0.2548088 0.2493698 0.2434907 0.237399
 0.2313316 0.2254881 0.2200239 0.2150706 0.2107502 0.2071715 0.2044163 0.2025287 0.2015203 0.2013852
 0.2021067 0.2036449 0.2059188 0.2087998 0.2121198 0.2156872 0.2193018 0.2227779 0.2259903 0.2289202
 0.2316437 0.2342497 0.2367597 0.2391275 0.2412966 0.2432407 0.2449538 0.2464311 0.2476732 0.2487041
 0.249573 0.2503347 0.2510263 0.251658 0.2522174 0.2526865 0.2530647 0.2533802 0.2536766 0.2539864
 0.2543211 0.2546833 0.2550843 0.2555458 0.2560894 0.2567269 0.2574614 0.2582899 0.2591984 0.2601622
 0.2611663 0.2622291 0.2633986 0.2647241 0.2662298 0.2679114 0.2697448 0.271688 0.273672 0.2755955
 0.277343 0.2788197 0.2799767 0.2808117 0.2813525 0.281636 0.2816927 0.281545 0.2812147 0.2807273
 0.2801104 0.279394 0.2786062 0.2777639 0.2768651 0.2758982 0.2748672 0.273804 0.2727507 0.2717309
 0.2707453 0.2697926 0.2688798 0.2680089 0.2671711 0.2663563 0.265561 0.2647863 0.2640373 0.2633216
 0.2626365 0.2619566 0.2612368 0.2604259 0.2594812 0.2583793 0.2571152 0.2556907 0.2541075 0.2523709
 0.250492 0.2484879 0.2463801 0.2441893 0.2419297 0.2396064 0.2372136 0.2347383 0.232188 0.2296211
 0.2271318 0.2247948 0.2226323 0.2206278 0.2187528 0.2169804 0.2152924 0.2136759 0.2121172 0.2106093
 0.2091599 0.2077788 0.206466 0.2052213 0.2040554 0.2029838 0.2020231 0.2011886 0.2004826 0.1998902
 0.1993895 0.1989598 0.1985907 0.1983024 0.1981416 0.1981232 0.1981827 0.1982094 0.1981281 0.1979437
 0.1977239 0.1975396 0.1974165 0.1973355 0.1972647 0.1971625 0.1969596 0.1965641 0.195884 0.1948377
 0.1933709 0.1914917 0.1892847 0.1868955 0.1845053 0.1822913 0.1803765 0.1788148 0.1776076 0.1767052
 0.1760125 0.1754444 0.1749893 0.1747112 0.1746914 0.1749411 0.175335 0.1756671 0.1758324 0.1759405
 0.1762153 0.1768027 0.1776816 0.1787079 0.1797144 0.1805958 0.1813166 0.1818641 0.1822339 0.1824516
 0.1825574 0.1825669 0.1824757 0.1822801 0.1819735 0.1815531 0.1810352 0.1804304 0.1797222 0.1789
 0.1779798 0.176973 0.1758767 0.1746908 0.1733936 0.1719438 0.1703869 0.1689411 0.1679168 0.1675449
 0.1678557 0.1686667 0.1697099 0.1708097 0.1718992 0.172885 0.1736479 0.174247 0.175008 0.1763031
 0.1782312 0.1805134 0.1826879 0.184406 0.1855419 0.1860912 0.1860891 0.1856117 0.1847159 0.1833833
 0.1816152 0.1795217 0.1772446 0.1749016 0.1726365 0.1705882 0.1688143 0.1673353 0.1661593 0.1652783
 0.164748 0.1642942 0.1623449 0.1565775 0.1472173 0.1391723 0.1383251 0.1451927 0.1542064 0.1596901
 0.1606774 0.1595528 0.1582972 0.1573378 0.1566017 0.1561657 0.1560887 0.1562621 0.1564569 0.1564402
 0.1561182 0.1555118 0.1545008 0.1525965 0.148934 0.1425773 0.1332085 0.1217744 0.1102908 0.1007719
 0.09423269 0.09047413 0.08851683 0.08728305 0.08621033 0.08544382 0.08548417 0.08667699 0.08901703 0.09229021
 0.09623082 0.1004998 0.1046343 0.1081897 0.1109761 0.1130732 0.1146087 0.1156181 0.1161139 0.1161635
 0.1158614 0.1152919 0.1145208 0.1135694 0.1124039 0.1110005 0.1094413 0.1079414 0.1067541 0.1060041
 0.1056124 0.1054087 0.1052906 0.1052452 0.1052713 0.1053473 0.1054522 0.105583 0.1057638 0.1060306
 0.1063792 0.1067418 0.1070387 0.1072376 0.1073488 0.1073822 0.1073136 0.1071031 0.1067669 0.1063987
 0.1060417 0.1055585 0.1047387 0.10357 0.1023451 0.1014773 0.1012188 0.1015123 0.1020582 0.1025328
 0.1027876 0.102875 0.102905 0.1028857</values></Ydata></ScSm><ScRf><Ydata ylabel="Single channel"><values byteorder="INTEL" format="FLOAT32" numvalues="1820"> 0.07047039 0.07059813 0.07071467 0.07082134 0.07092084 0.07101902 0.07112519 0.07124603 0.07138029 0.07151794
 0.07164537 0.07175592 0.07185325 0.07194209 0.07202348 0.07210489 0.07220429 0.07233346 0.07248162 0.07262099
 0.0727287 0.07280712 0.07288554 0.07299234 0.0731184 0.0732156 0.0732407 0.07320054 0.07314998 0.07314327
 0.07319775 0.07331757 0.07352471 0.07380768 0.07404932 0.07410198 0.07397109 0.07384071 0.07386954 0.07403176
 0.0741929 0.07425874 0.07421262 0.07410309 0.07406247 0.07426383 0.07476337 0.07537442 0.07572611 0.07547595
 0.0745368 0.07320223 0.07207891 0.07177015 0.07243969 0.07362918 0.07460168 0.07493621 0.07475525 0.0744102
 0.07411515 0.07394202 0.07398086 0.07432225 0.074908 0.07547452 0.07565589 0.07522267 0.07434249 0.07355068
 0.07331328 0.07366502 0.07437515 0.07522749 0.07581072 0.07530817 0.07322094 0.07046686 0.06909604 0.07039787
 0.07355253 0.07648384 0.07774863 0.07730117 0.0758976 0.0744287 0.07368219 0.07406981 0.07535876 0.07690454
 0.0781634 0.07883741 0.07873932 0.07788031 0.07664557 0.0756298 0.07530753 0.07589897 0.07728058 0.07884595
 0.07974711 0.07956342 0.07861744 0.07755521 0.07686943 0.07687549 0.0777377 0.07927549 0.08097896 0.08238545
 0.08331974 0.0837942 0.08389696 0.08377318 0.08355233 0.08332954 0.08326469 0.08350044 0.08388152 0.08398765
 0.08360288 0.08301029 0.08270562 0.08288559 0.08328004 0.08347875 0.0833385 0.0829013 0.08197281 0.08021903
 0.07784762 0.07571375 0.07448386 0.07416787 0.07466286 0.07603621 0.07786859 0.07905287 0.07890832 0.07809917
 0.07791601 0.07887992 0.08041573 0.08169101 0.08242615 0.08293712 0.08364233 0.08458868 0.08533816 0.08529267
 0.08430343 0.08304733 0.08257802 0.08330853 0.08460946 0.0855819 0.08600195 0.08629278 0.08677907 0.08721609
 0.08700255 0.08582444 0.08419629 0.08328048 0.08392732 0.08583257 0.08769755 0.08821126 0.08698312 0.08475496
 0.0827814 0.08192858 0.08233763 0.08378471 0.08599082 0.08848691 0.09054036 0.0915261 0.09135782 0.09047148
 0.08935018 0.08807217 0.08648354 0.08490533 0.0843209 0.08545719 0.08785256 0.09022495 0.09165575 0.09209968
 0.09186354 0.09098445 0.08931306 0.08716022 0.08558679 0.08561778 0.08707714 0.08863121 0.0892071 0.08899568
 0.0888453 0.08910044 0.08941294 0.08945413 0.08940676 0.08970702 0.0904893 0.09141585 0.09203402 0.09219153
 0.09207273 0.0919365 0.09187029 0.09173667 0.09138626 0.09099159 0.09103665 0.09180684 0.09300522 0.09405063
 0.09465018 0.09491614 0.09501478 0.09488218 0.09433337 0.0934276 0.09264413 0.0925431 0.09322114 0.09423691
 0.09507903 0.09554815 0.0957066 0.09568098 0.0955762 0.09545231 0.09534294 0.09532424 0.09549648 0.09584774
 0.09622144 0.09647095 0.09657696 0.09658691 0.09651934 0.09637119 0.09617957 0.09603544 0.09602578 0.0961653
 0.09639517 0.09664176 0.09684837 0.09696446 0.09696132 0.09687066 0.09676654 0.09669864 0.0966712 0.09668231
 0.09674568 0.09686356 0.09700353 0.09711956 0.09718938 0.0972205 0.0972259 0.0972098 0.09717885 0.09715369
 0.09716256 0.09722211 0.0973191 0.09741747 0.0974998 0.09758992 0.09770845 0.09782082 0.09786884 0.09784761
 0.09781471 0.09782542 0.097887 0.09797291 0.09805377 0.09810588 0.09810835 0.09805641 0.09798622 0.09796801
 0.09805377 0.09823857 0.09847987 0.09873173 0.09895109 0.09910626 0.09920302 0.09928041 0.09936546 0.09944964
 0.09951557 0.09957056 0.09964906 0.09978617 0.0999828 0.1001983 0.1003844 0.1005204 0.1006147 0.100694
 0.1007969 0.1009439 0.1010999 0.101203 0.101244 0.1012854 0.1013843 0.1015235 0.1016382 0.1016925
 0.101714 0.1017567 0.1018441 0.1019548 0.1020563 0.1021441 0.1022429 0.1023702 0.1025031 0.1025866
 0.1025874 0.1025332 0.1024853 0.1024772 0.1025001 0.102541 0.1026063 0.1026984 0.1027907 0.1028454
 0.1028527 0.1028419 0.1028479 0.1028718 0.102882 0.1028529 0.1027924 0.1027296 0.1026879 0.1026706
 0.1026637 0.1026473 0.1026081 0.1025474 0.1024768 0.1024052 0.1023326 0.1022591 0.102202 0.1021895
 0.1022243 0.1022562 0.1022128 0.1020658 0.1018607 0.1016739 0.1015484 0.1014677 0.1013844 0.1012641
 0.1011096 0.100948 0.1008034 0.1006799 0.100567 0.1004553 0.1003497 0.1002695 0.1002287 0.1002104
 0.1001696 0.1000748 0.09994096 0.0998116 0.09971423 0.09964564 0.09959139 0.0995439 0.09950602 0.09948764
 0.099494 0.09951091 0.09951279 0.09949176 0.09946857 0.09947197 0.09951821 0.09960803 0.09972307 0.09982507
 0.09988219 0.09990425 0.09993536 0.1000063 0.1001089 0.1002206 0.1003354 0.1004619 0.1006052 0.1007618
 0.1009302 0.101115 0.1013204 0.1015435 0.1017726 0.1019941 0.1022032 0.1024107 0.1026356 0.1028898
 0.1031694 0.1034599 0.1037475 0.1040274 0.1043043 0.1045839 0.1048658 0.1051489 0.1054402 0.105749
 0.1060729 0.1063977 0.1067141 0.107027 0.1073474 0.1076788 0.1080155 0.1083529 0.1086969 0.1090593
 0.1094374 0.1098035 0.1101264 0.110405 0.110672 0.1109652 0.1112977 0.1116511 0.1119887 0.112284
 0.1125447 0.1128077 0.1131001 0.1134127 0.1137206 0.1140242 0.1143529 0.1147261 0.1151174 0.1154699
 0.115747 0.1159672 0.116182 0.1164232 0.1166766 0.1169114 0.1171229 0.1173347 0.1175627 0.1177997
 0.1180369 0.1182843 0.1185526 0.11883 0.1190908 0.1193238 0.1195364 0.1197365 0.1199196 0.1200742
 0.1201935 0.1202867 0.1203804 0.1205001 0.1206455 0.1207941 0.1209331 0.1210756 0.1212409 0.1214329
 0.1216457 0.1218786 0.1221315 0.1223917 0.1226443 0.1228947 0.1231662 0.1234625 0.1237498 0.1239915
 0.1241904 0.1243795 0.1245796 0.1247889 0.1250094 0.125258 0.125545 0.1258568 0.1261663 0.1264547
 0.1267259 0.1270035 0.1273063 0.1276203 0.1279044 0.1281304 0.1283139 0.1284984 0.1287186 0.1289787
 0.1292616 0.1295464 0.1298192 0.1300694 0.1302792 0.1304293 0.1305204 0.1305786 0.130628 0.1306586
 0.1306319 0.1305138 0.130291 0.1299583 0.1295046 0.1289247 0.128243 0.127524 0.1268602 0.1263446
 0.1260481 0.1260073 0.1262243 0.1266642 0.127256 0.1279036 0.1285069 0.1289771 0.1292421 0.1292551
 0.129008 0.1285335 0.1278878 0.1271312 0.1263181 0.125491 0.1246808 0.1239243 0.1232962 0.1229171
 0.1229191 0.1233961 0.1243714 0.1257798 0.1274641 0.1292095 0.1308251 0.1322176 0.1333972 0.1344195
 0.135332 0.1361641 0.1369397 0.1376791 0.1383896 0.1390667 0.1397047 0.1403019 0.1408547 0.1413517
 0.1417773 0.1421174 0.1423666 0.1425327 0.1426325 0.1426833 0.1427001 0.1427007 0.142696 0.1426687
 0.1425692 0.1423438 0.1419695 0.1414693 0.1409126 0.140419 0.1401546 0.1402955 0.1409541 0.1421083
 0.1435955 0.1451885 0.1466923 0.1479904 0.1490397 0.1498536 0.1504861 0.1510048 0.1514607 0.151882
 0.1522828 0.1526689 0.1530394 0.1533919 0.1537291 0.1540593 0.154392 0.154732 0.155075 0.1554121
 0.1557408 0.1560705 0.156415 0.1567786 0.1571508 0.1575155 0.1578663 0.1582114 0.1585594 0.1589048
 0.1592341 0.1595452 0.1598521 0.1601715 0.1605097 0.1608617 0.161214 0.1615497 0.1618588 0.1621453
 0.1624227 0.1627017 0.1629846 0.1632686 0.1635526 0.1638381 0.1641259 0.1644145 0.1647027 0.1649907
 0.1652758 0.1655502 0.1658077 0.1660524 0.1662965 0.166549 0.1668097 0.1670717 0.1673305 0.1675889
 0.1678537 0.1681268 0.1684008 0.1686656 0.1689176 0.1691607 0.1694018 0.1696465 0.1698986 0.1701586
 0.1704232 0.1706871 0.1709476 0.1712056 0.1714639 0.1717225 0.1719772 0.1722245 0.1724647 0.1727021
 0.1729414 0.1731852 0.1734342 0.1736888 0.1739498 0.1742145 0.1744736 0.1747178 0.1749473 0.1751722
 0.175401 0.1756344 0.1758688 0.1761039 0.176343 0.1765886 0.176839 0.1770894 0.1773362 0.1775784
 0.1778166 0.1780522 0.1782886 0.1785291 0.1787736 0.1790198 0.1792654 0.179509 0.17975 0.1799896
 0.180229 0.1804678 0.180707 0.1809501 0.1811978 0.1814459 0.1816907 0.1819325 0.1821716 0.1824069
 0.182638 0.1828674 0.1830985 0.1833325 0.1835684 0.1838049 0.1840419 0.1842803 0.1845183 0.1847531
 0.1849846 0.1852165 0.1854522 0.1856923 0.1859345 0.1861754 0.1864127 0.1866471 0.1868812 0.1871166
 0.1873544 0.1875962 0.1878419 0.1880902 0.1883391 0.1885849 0.1888235 0.1890563 0.1892895 0.1895264
 0.1897658 0.1900078 0.1902542 0.190504 0.1907546 0.1910058 0.1912586 0.191514 0.1917729 0.1920339
 0.1922916 0.1925446 0.1927982 0.1930571 0.1933201 0.1935826 0.1938408 0.1940918 0.1943365 0.1945771
 0.1948129 0.1950418 0.1952658 0.1954891 0.1957135 0.1959403 0.1961716 0.1964055 0.1966388 0.1968722
 0.1971087 0.1973485 0.1975914 0.1978379 0.1980857 0.198333 0.1985823 0.1988359 0.1990913 0.1993475
 0.1996075 0.1998713 0.2001353 0.2003973 0.2006572 0.2009154 0.2011756 0.2014426 0.2017147 0.2019858
 0.2022537 0.2025184 0.2027797 0.2030425 0.2033124 0.2035861 0.2038564 0.2041238 0.2043917 0.204661
 0.2049339 0.2052132 0.2054931 0.2057662 0.2060358 0.2063081 0.2065821 0.2068561 0.2071326 0.2074113
 0.2076909 0.2079737 0.2082586 0.2085391 0.2088149 0.2090904 0.2093631 0.2096301 0.209896 0.2101626
 0.210425 0.2106841 0.210944 0.2111958 0.2114174 0.2115592 0.2114869 0.2109156 0.2093758 0.2062246
 0.2007695 0.1925441 0.1815923 0.1685504 0.1544686 0.1404801 0.1274946 0.1160799 0.1065362 0.09901528
 0.09360363 0.09040077 0.08958292 0.09148663 0.09671889 0.1057974 0.1178335 0.129394 0.1357858 0.1346104
 0.1279372 0.1204244 0.1155257 0.1137983 0.1140782 0.1152118 0.1167377 0.1187622 0.1215648 0.1251847
 0.1293771 0.1340178 0.139339 0.1455779 0.1525204 0.1595777 0.16628 0.1725822 0.1786941 0.1847143
 0.1904837 0.195739 0.2003172 0.2042113 0.2075188 0.210381 0.2129274 0.215243 0.2173781 0.2193571
 0.2211455 0.2226333 0.2236969 0.2242979 0.224531 0.22458 0.2246173 0.2247301 0.224932 0.2252152
 0.225572 0.2259898 0.2264563 0.2269644 0.2275029 0.2280544 0.2286057 0.2291471 0.2296678 0.2301626
 0.230636 0.2310911 0.2315262 0.2319425 0.232343 0.2327277 0.2330985 0.233462 0.2338212 0.2341747
 0.234523 0.2348671 0.2352014 0.2355187 0.2358153 0.2360911 0.2363516 0.2366092 0.2368723 0.2371383
 0.2374012 0.2376603 0.2379162 0.2381678 0.2384156 0.2386609 0.2389035 0.2391447 0.2393855 0.2396236
 0.2398579 0.2400945 0.2403387 0.2405869 0.2408335 0.2410775 0.241319 0.2415574 0.2417948 0.2420348
 0.2422793 0.2425299 0.2427884 0.2430526 0.2433188 0.2435873 0.2438594 0.2441328 0.2444047 0.2446759
 0.2449472 0.2452189 0.2454926 0.2457675 0.2460366 0.2462923 0.2465338 0.2467652 0.2469921 0.2472208
 0.2474557 0.2476967 0.2479433 0.2481956 0.2484511 0.248705 0.2489556 0.2492042 0.2494529 0.2497075
 0.2499759 0.2502581 0.2505454 0.2508327 0.2511221 0.2514139 0.2517038 0.2519904 0.2522764 0.2525615
 0.2528422 0.2531202 0.2534091 0.2537273 0.2540771 0.2544325 0.2547609 0.2550562 0.255342 0.2556441
 0.2559698 0.256304 0.2566137 0.2568721 0.2570959 0.257346 0.2576721 0.2580643 0.2584684 0.2588406
 0.2591769 0.2594988 0.2598216 0.2601394 0.260434 0.2606942 0.2609338 0.2611924 0.2615085 0.2618811
 0.2622681 0.2626296 0.2629587 0.2632654 0.2635566 0.2638388 0.2641063 0.2643226 0.2644585 0.2645655
 0.2647676 0.2651453 0.265647 0.2661419 0.2665475 0.2668809 0.267194 0.2675055 0.2678048 0.2680641
 0.268212 0.2681711 0.268001 0.2679474 0.2682451 0.2688811 0.269621 0.2702451 0.2706954 0.2710301
 0.2713206 0.2716001 0.2718459 0.2719882 0.2719847 0.271924 0.2720091 0.2723745 0.2729331 0.273468
 0.2738591 0.2741518 0.2744356 0.2747416 0.2750273 0.2751655 0.2750022 0.2745669 0.2742102 0.2743767
 0.2751772 0.2762603 0.2771612 0.2777141 0.2780581 0.2783135 0.2784056 0.2782078 0.2777007 0.2769783
 0.2762903 0.2760835 0.27671 0.2779746 0.279213 0.2799582 0.2803439 0.2807678 0.2813754 0.2819986
 0.2824302 0.2826116 0.2825969 0.2824298 0.2821216 0.281792 0.2817504 0.2822747 0.283287 0.284375
 0.2851819 0.2856886 0.2860418 0.2861328 0.2854944 0.2838556 0.2818559 0.2808805 0.2818295 0.2841735
 0.2865256 0.2880102 0.288744 0.2891896 0.2895531 0.2897246 0.2892693 0.2875731 0.2846754 0.2819993
 0.28149 0.2836974 0.2871602 0.2898219 0.2906024 0.2896187 0.2876644 0.2858433 0.2851758 0.2860448
 0.2880351 0.2903561 0.2923163 0.2935123 0.2938557 0.2935334 0.2929316 0.292534 0.2926161 0.2928309
 0.2924281 0.2912306 0.2899787 0.2891913 0.2882143 0.286288 0.2842358 0.2839522 0.28606 0.2890124
 0.2908879 0.2913587 0.2913448 0.2911583 0.2897461 0.2860755 0.2810439 0.2774582 0.2776334 0.2810817
 0.2849951 0.2870076 0.2870695 0.2866478 0.2866612 0.2865031 0.2849399 0.2818576 0.2789417 0.2781668
 0.2795821 0.2812366 0.2813382 0.2795073 0.2758347 0.2704335 0.2649229 0.2627315 0.2660716 0.2731884
 0.2799118 0.2832553 0.2823516 0.2772147 0.2690459 0.2615248 0.2591574 0.2631207 0.269888 0.2746424
 0.275075 0.2714831 0.2648039 0.2562062 0.2481141 0.2439108 0.2457842 0.2529661 0.2618679 0.267629
 0.2666058 0.2592966 0.251064 0.2480927 0.2515752 0.256929 0.2591844 0.2576572 0.2549132 0.2532707
 0.2535208 0.2553656 0.2577564 0.2597211 0.2611116 0.2612211 0.2574039 0.248 0.2366916 0.2305504
 0.2327458 0.2399948 0.2479236 0.2554715 0.2624392 0.266331 0.2650123 0.260932 0.2595535 0.2635196
 0.2701392 0.2748264 0.2757514 0.2745807 0.2734428 0.272395 0.2704765 0.2684382 0.2687755 0.2726243
 0.2779816 0.2818783 0.2833559 0.2834667 0.2832789 0.2829747 0.2824041 0.2815339 0.2804108 0.2791752
 0.2780459 0.2770823 0.2761413 0.2751552 0.2740631 0.2722067 0.2683825 0.2624054 0.2564461 0.2535338
 0.2543795 0.2569317 0.2593297 0.2612454 0.2614137 0.256631 0.2459382 0.2343555 0.2294253 0.233925
 0.2436593 0.2521663 0.2558231 0.2542959 0.2483565 0.2395215 0.2315675 0.2298741 0.2372848 0.2511295
 0.2656177 0.2767298 0.2837475 0.2870119 0.2863786 0.2823557 0.2773908 0.2749046 0.2769428 0.2828322
 0.2896973 0.2938001 0.2921652 0.2850272 0.2774574 0.2763014 0.2833944 0.2931219 0.2986141 0.2989394
 0.2981101 0.2987138 0.2996972 0.2998828 0.3004407 0.3029158 0.3066854 0.3094785 0.3094086 0.3057631
 0.2989944 0.2912787 0.2861732 0.2857992 0.288497 0.2907276 0.2907024 0.2884205 0.2834465 0.2758731
 0.2691019 0.268023 0.2734606 0.2809247 0.2857276 0.28735 0.2879951 0.2886249 0.2878287 0.2841895
 0.2788004 0.2747968 0.274285 0.2763509 0.2785618 0.2796023 0.2794893 0.2780483 0.2749081 0.2711232
 0.2693286 0.2713965 0.276427 0.2816194 0.2848448 0.285946 0.2859242 0.2856466 0.2853819 0.2849627
 0.2842126 0.2835428 0.2839807 0.28608 0.2889605 0.2911106 0.2921367 0.2930875 0.2949773 0.297542
 0.2996455 0.3005416 0.300531 0.300578 0.30144 0.3030471 0.3045714 0.3051556 0.3047549 0.3042886
 0.3048153 0.3065252 0.3086672 0.3104095 0.3115359 0.3123283 0.3130949 0.3139058 0.3145605 0.3147556
 0.3144888 0.314302 0.3148775 0.3163286 0.3180631 0.3193843 0.3200628 0.3202964 0.3203101 0.3201412
 0.3197502 0.3192021 0.3186802 0.3183477 0.3182313 0.3182426 0.3182801 0.3182933 0.3182829 0.3182812
 0.3183288 0.3184428 0.318609 0.3188071 0.3190223 0.3192253 0.3193788 0.31948 0.3195657 0.3196533
 0.3196983 0.3196255 0.3193777 0.3189188 0.3182141 0.3172291 0.3159354 0.3142983 0.3122838 0.3099577
 0.3076457 0.3059637 0.3055616 0.3067101 0.3090856 0.3119544 0.3145898 0.3165842 0.3178852 0.3186381
 0.3190213 0.3191718 0.3191777 0.3190848 0.3189064 0.3186471 0.3183212 0.317954 0.317576 0.3172169
 0.316897 0.3166159 0.3163525 0.3160746 0.3157505 0.3153587 0.3148926 0.3143566 0.3137552 0.3130826
 0.3123207 0.3114507 0.3104779 0.309445 0.3084158 0.3074418 0.3065349 0.3056649 0.3047842 0.3038508
 0.3028169 0.3016171 0.3002266 0.2987551 0.2974244 0.2963925 0.2956107 0.2948834 0.294044 0.2930427
 0.2919059 0.2906721 0.2893745 0.2880403 0.2866818 0.2852895 0.2838374 0.2822954 0.280645 0.2788902
 0.2770502 0.2751485 0.2732096 0.2712521 0.2692608 0.2671577 0.2648054 0.262048 0.2587533 0.2548363
 0.2502728 0.2451188 0.2395225 0.2337008 0.2278864 0.22228 0.2170394 0.2122937 0.2081571 0.2047288
 0.2020858 0.2002773 0.1993247 0.1992262 0.1999609 0.2014877 0.2037379 0.2066035 0.2099319 0.213537
 0.2172184 0.220788 0.224111 0.227148 0.2299482 0.2325787 0.2350535 0.2373317 0.239368 0.2411474
 0.2426761 0.2439636 0.2450227 0.24588 0.2465774 0.2471611 0.2476667 0.2481086 0.2484819 0.2487764
 0.2489941 0.2491555 0.2492934 0.2494418 0.2496257 0.2498538 0.2501231 0.2504349 0.2508043 0.2512503
 0.2517809 0.2523894 0.2530618 0.2537852 0.2545555 0.2553809 0.2562817 0.2572878 0.2584325 0.2597402
 0.2612125 0.2628191 0.2644931 0.2661353 0.267634 0.2688947 0.269864 0.2705337 0.2709272 0.2710773
 0.2710123 0.2707584 0.2703465 0.2698082 0.2691674 0.2684413 0.2676462 0.2667964 0.265899 0.2649547
 0.2639669 0.2629504 0.261929 0.2609231 0.2599437 0.2589968 0.2580867 0.2572104 0.2563581 0.2555208
 0.254696 0.2538907 0.2531213 0.2524045 0.2517382 0.2510945 0.2504271 0.2496796 0.2488 0.2477603
 0.2465618 0.2452175 0.243737 0.2421276 0.2403975 0.2385538 0.2366053 0.2345671 0.232456 0.2302807
 0.2280332 0.2256934 0.2232632 0.2208041 0.2184206 0.2161962 0.214154 0.212274 0.2105242 0.208876
 0.2073105 0.2058173 0.2043882 0.2030162 0.2017004 0.2004409 0.1992385 0.1981044 0.1970593 0.1961172
 0.1952813 0.1945513 0.1939217 0.1933796 0.1929132 0.1925198 0.1922073 0.1920021 0.1919384 0.1920118
 0.1921524 0.1922632 0.1922853 0.1922254 0.1921338 0.1920589 0.1920165 0.1919996 0.1919976 0.1919792
 0.1918646 0.1915446 0.1909225 0.1899274 0.1885209 0.1867205 0.1846112 0.1823313 0.1800531 0.1779475
 0.1761377 0.1746814 0.1735806 0.1727792 0.1721729 0.1716746 0.1712821 0.1710719 0.1711311 0.1714663
 0.1719393 0.1723273 0.1725165 0.1726249 0.1728942 0.1734814 0.1743666 0.1754074 0.176439 0.1773511
 0.1780988 0.1786696 0.1790732 0.1793491 0.179534 0.1796241 0.1795974 0.17945 0.1791874 0.1788172
 0.1783591 0.1778263 0.1772052 0.1764796 0.1756515 0.1747234 0.1736991 0.1725923 0.1713869 0.1700336
 0.1685638 0.1671831 0.1661981 0.1658489 0.1661841 0.1670356 0.1681351 0.1692971 0.1704507 0.1715078
 0.1723537 0.1730405 0.1738812 0.1752424 0.1772306 0.1795822 0.1818461 0.1836708 0.1849175 0.1855702
 0.1856605 0.1852623 0.1844259 0.1831265 0.1813697 0.1792795 0.1770087 0.1746781 0.1724347 0.1704242
 0.1687061 0.1672904 0.1661723 0.1653395 0.1648535 0.164441 0.1625134 0.1567233 0.1473008 0.1392087
 0.1383913 0.1453643 0.1544938 0.1600476 0.1610616 0.1599505 0.1587086 0.1577619 0.1570418 0.1566309
 0.1565851 0.1567931 0.1570307 0.1570691 0.1568122 0.1562763 0.155335 0.1534849 0.1498411 0.1434558
 0.1340193 0.1224997 0.1109326 0.1013406 0.09473775 0.09092242 0.08891447 0.08763833 0.08653741 0.08576155
 0.0858065 0.08700638 0.0893526 0.09264062 0.09661205 0.1009219 0.1050977 0.1086954 0.1115284 0.1136704
 0.1152385 0.1162682 0.1167821 0.1168529 0.1165694 0.1160091 0.1152406 0.1142948 0.1131455 0.111768
 0.1102326 0.1087373 0.1075298 0.1067524 0.1063562 0.1061848 0.10612 0.1061188 0.1061648 0.106247
 0.1063681 0.1065382 0.1067728 0.1070859 0.1074563 0.1078132 0.1080833 0.1082421 0.1083095 0.1083069
 0.1082193 0.1080049 0.1076697 0.1072972 0.1069241 0.1064093 0.1055407 0.1043121 0.1030296 0.1021197
 0.1018362 0.1021103 0.1026296 0.1030713 0.1032995 0.1033746 0.1033988 0.1033674 0.1031642 0.1026957
</values></Ydata></ScRf><Data_Parameters_AB><parameter name="DPF">1</parameter><parameter name="NPT">3497</parameter><parameter name="FXV">3996</parameter><parameter name="LXV">500</parameter><parameter name="CSF">1</parameter><parameter name="MXY">0.0169932879507542</parameter><parameter name="MNY">-0.0934570655226707</parameter><parameter name="DAT">18/01/2024</parameter><parameter name="TIM">11:28:18.645 (GMT+1)</parameter><parameter name="DXU">WN</parameter></Data_Parameters_AB><AB__Qtest><MainReport name="Quality Test Report"><Header><Line><Legend>Test result ok/not ok [1/0]: </Legend><Value>0</Value></Line><Line><Legend>Method file: </Legend><Value>C:\Users\Public\Documents\Bruker\OPUS_8.2.28\QT\IRBT_v3_default.QT</Value></Line></Header><Matrix><Line><Legend></Legend><Legend>min</Legend><Legend>max</Legend><Legend>measured</Legend></Line><Line><Value>Absorption (X-Range 1):</Value><Value>0.400000</Value><Value>2.000000</Value><Value>0.078753</Value></Line><Line><Value>Noise (X-Range 4):</Value><Value></Value><Value>0.000300</Value><Value>0.000023</Value></Line><Line><Value>Signal/Noise (X-Range 2):</Value><Value>200.000000</Value><Value></Value><Value>87.800650</Value></Line><Line><Value>Signal/Noise (X-Range 3):</Value><Value>40.000000</Value><Value></Value><Value>24.727126</Value></Line><Line><Value>Water vapour (X-Range 5):</Value><Value></Value><Value>0.000300</Value><Value>0.000002</Value></Line><Line><Value>Signal/Water (X-Range 2):</Value><Value>100.000000</Value><Value></Value><Value>1058.526545</Value></Line><Line><Value>Signal/Water (X-Range 3):</Value><Value>20.000000</Value><Value></Value><Value>298.110773</Value></Line><Line><Value>Fringes (X-Range 6):</Value><Value></Value><Value>0.000100</Value><Value>0.000024</Value></Line></Matrix></MainReport></AB__Qtest><Data_Parameters_ScSm><parameter name="DPF">1</parameter><parameter name="NPT">1814</parameter><parameter name="FXV">3996.63438082617</parameter><parameter name="LXV">499.579297603271</parameter><parameter name="CSF">1</parameter><parameter name="MXY">0.338186621665955</parameter><parameter name="MNY">0.0854438245296478</parameter><parameter name="DAT">18/01/2024</parameter><parameter name="TIM">11:28:18.645 (GMT+1)</parameter><parameter name="DXU">WN</parameter></Data_Parameters_ScSm><Data_Parameters_ScRf><parameter name="DPF">1</parameter><parameter name="NPT">1820</parameter><parameter name="FXV">4004.34989121387</parameter><parameter name="LXV">495.721542409425</parameter><parameter name="CSF">1</parameter><parameter name="MXY">0.320310145616531</parameter><parameter name="MNY">0.0690960437059402</parameter><parameter name="DAT">18/01/2024</parameter><parameter name="TIM">11:27:52.783 (GMT+1)</parameter><parameter name="DXU">WN</parameter></Data_Parameters_ScRf><Optic_Parameters_Rf><parameter name="APR">0</parameter><parameter name="APT">Open</parameter><parameter name="BMS">KBr</parameter><parameter name="DTC">RT-DLaTGS_IR-Biotyper [Microplate reader]</parameter><parameter name="HPF">0</parameter><parameter name="LPF">10.0</parameter><parameter name="LPV">4000</parameter><parameter name="PGR">0</parameter><parameter name="RCH">Module port</parameter><parameter name="RDX">0</parameter><parameter name="SRC">MIR</parameter><parameter name="VEL">10.0</parameter><parameter name="SON">Off</parameter></Optic_Parameters_Rf><Acquisition_Parameters_Rf><parameter name="ADT">1</parameter><parameter name="AQM">DD</parameter><parameter name="CFE">0</parameter><parameter name="COR">0</parameter><parameter name="DEL">0</parameter><parameter name="DLY">0</parameter><parameter name="HFW">8000</parameter><parameter name="LFW">0</parameter><parameter name="NSR">32</parameter><parameter name="PLF">AB</parameter><parameter name="RES">6</parameter><parameter name="RGN">-1</parameter><parameter name="STR">0</parameter><parameter name="TCL">MakeCompatibleScalar (0, {WSV=1.000000, ARV=0});</parameter><parameter name="TDL">37</parameter><parameter name="RPO">0</parameter></Acquisition_Parameters_Rf><FT_-_Parameters_Rf><parameter name="APF">B3</parameter><parameter name="HFQ">500</parameter><parameter name="LFQ">4000</parameter><parameter name="NLI">0</parameter><parameter name="PHR">24</parameter><parameter name="PHZ">ML</parameter><parameter name="SPZ">NO</parameter><parameter name="ZFF">1</parameter></FT_-_Parameters_Rf><Optic_Parameters_><parameter name="APR">0</parameter><parameter name="APT">Open</parameter><parameter name="BMS">KBr</parameter><parameter name="CHN">Module port</parameter><parameter name="DTC">RT-DLaTGS_IR-Biotyper [Microplate reader]</parameter><parameter name="HPF">0</parameter><parameter name="LPF">10.0</parameter><parameter name="LPV">4000</parameter><parameter name="PGN">0</parameter><parameter name="RDX">0</parameter><parameter name="SRC">MIR</parameter><parameter name="VEL">10.0</parameter><parameter name="SON">Off</parameter></Optic_Parameters_><FT_-_Parameters_><parameter name="APF">B3</parameter><parameter name="HFQ">500</parameter><parameter name="LFQ">4000</parameter><parameter name="NLI">0</parameter><parameter name="PHR">24</parameter><parameter name="PHZ">ML</parameter><parameter name="SPZ">NO</parameter><parameter name="ZFF">1</parameter></FT_-_Parameters_><Acquisition_Parameters_><parameter name="ADT">1</parameter><parameter name="AQM">DD</parameter><parameter name="CFE">0</parameter><parameter name="COR">0</parameter><parameter name="DEL">0</parameter><parameter name="DLY">0</parameter><parameter name="HFW">8000</parameter><parameter name="LFW">0</parameter><parameter name="NSS">32</parameter><parameter name="PLF">AB</parameter><parameter name="RES">6</parameter><parameter name="SOT">0</parameter><parameter name="TCL">MakeCompatibleScalar (0, {WSV=1.000000, ARV=0});</parameter><parameter name="TDL">37</parameter><parameter name="SPO">0</parameter><parameter name="SGN">-1</parameter></Acquisition_Parameters_><Instrument_Parameters_Rf><parameter name="HFL">15801.365274</parameter><parameter name="LFL">0</parameter><parameter name="LWN">15801.365274</parameter><parameter name="ABP">32157</parameter><parameter name="SSP">1</parameter><parameter name="ARG">2</parameter><parameter name="ASG">2</parameter><parameter name="ASS">32</parameter><parameter name="GFW">16</parameter><parameter name="GBW">16</parameter><parameter name="BFW">0</parameter><parameter name="BBW">0</parameter><parameter name="PKA">9302</parameter><parameter name="PKL">4987</parameter><parameter name="PRA">9266</parameter><parameter name="PRL">5010</parameter><parameter name="P2A">1</parameter><parameter name="P2L">1</parameter><parameter name="P2R">1</parameter><parameter name="P2K">1</parameter><parameter name="DAQ">0</parameter><parameter name="AG2">1</parameter><parameter name="SSM">1</parameter><parameter name="RSN">46576</parameter><parameter name="CRR">0</parameter><parameter name="SRT">1705577272.784</parameter><parameter name="DUR">19.6449890136719</parameter><parameter name="TSC">31.9</parameter><parameter name="MVD">0.301930636167526</parameter><parameter name="AN1">0.225994446531822</parameter><parameter name="AN2">0</parameter><parameter name="VSN">2.485 Apr  4 2017</parameter><parameter name="SRN">0085</parameter><parameter name="CAM">0</parameter><parameter name="INS">IR-Biotyper</parameter><parameter name="FOC">69</parameter><parameter name="RDY">1</parameter><parameter name="ARS">32</parameter></Instrument_Parameters_Rf><Sample_Parameters_><parameter name="BLD"></parameter><parameter name="CNM">Admin</parameter><parameter name="CPY"></parameter><parameter name="DPM"></parameter><parameter name="EXP">IRBT_v3_32Scans.XPM</parameter><parameter name="LCT"></parameter><parameter name="SFM">Microplate, HTS-XT</parameter><parameter name="SNM">240118-1045-Cdiff_SCFA_2_C23_232121132_E5_e69d070e-3e35-4567-b604-2a44c6f2fc48.0</parameter><parameter name="XPP">C:\Users\Public\Documents\Bruker\OPUS_8.2.28\XPM</parameter><parameter name="IST">OK</parameter><parameter name="CPG">1252</parameter><parameter name="UID">db2169d9-38cf-44ec-8fbe-28d783443955</parameter></Sample_Parameters_><Instrument_Parameters_><parameter name="HFL">15801.365274</parameter><parameter name="LFL">0</parameter><parameter name="LWN">15801.365274</parameter><parameter name="ABP">32157</parameter><parameter name="SSP">1</parameter><parameter name="ASG">2</parameter><parameter name="ARG">2</parameter><parameter name="ASS">32</parameter><parameter name="GFW">16</parameter><parameter name="GBW">16</parameter><parameter name="BFW">0</parameter><parameter name="BBW">0</parameter><parameter name="PKA">10335</parameter><parameter name="PKL">4987</parameter><parameter name="PRA">10363</parameter><parameter name="PRL">5010</parameter><parameter name="P2A">1</parameter><parameter name="P2L">1</parameter><parameter name="P2R">1</parameter><parameter name="P2K">1</parameter><parameter name="DAQ">0</parameter><parameter name="AG2">1</parameter><parameter name="SSM">1</parameter><parameter name="RSN">23981</parameter><parameter name="CRR">0</parameter><parameter name="SRT">1705577298.646</parameter><parameter name="DUR">19.64599609375</parameter><parameter name="TSC">31.9</parameter><parameter name="MVD">0.268524289131165</parameter><parameter name="AN1">0.226015626817908</parameter><parameter name="AN2">0</parameter><parameter name="VSN">2.485 Apr  4 2017</parameter><parameter name="SRN">0085</parameter><parameter name="CAM">0</parameter><parameter name="INS">IR-Biotyper</parameter><parameter name="FOC">69</parameter><parameter name="RDY">1</parameter></Instrument_Parameters_><History/></OPUSDataFile>
