<?xml version="1.0" encoding="UTF-8" ?>
<OPUSDataFile><AB><Ydata ylabel="Absorbance Units"><values byteorder="INTEL" format="FLOAT32" numvalues="3497"> -0.06652677 -0.06653475 -0.06654518 -0.06655764 -0.06657121 -0.06658474 -0.06659498 -0.06660223 -0.06660481 -0.06660537
 -0.06660561 -0.06660883 -0.06661835 -0.06663459 -0.06665958 -0.06668898 -0.06672245 -0.06675333 -0.06677982 -0.06679912
 -0.0668102 -0.06681521 -0.06681413 -0.06681111 -0.06680631 -0.06680154 -0.06679679 -0.06679238 -0.06678857 -0.06678676
 -0.06678732 -0.06679244 -0.06680178 -0.06681613 -0.06683385 -0.06685305 -0.06687181 -0.06688721 -0.06689887 -0.06690517
 -0.06690771 -0.06690659 -0.06690431 -0.06690188 -0.06690022 -0.06689996 -0.0668997 -0.06689934 -0.06689755 -0.06689402
 -0.06689056 -0.06688727 -0.066888 -0.06689265 -0.06690165 -0.06691428 -0.06692667 -0.06693885 -0.06694824 -0.06695665
 -0.06696711 -0.06698043 -0.06700014 -0.06702337 -0.0670488 -0.06707261 -0.06709059 -0.06710384 -0.06711078 -0.06711724
 -0.06712511 -0.06713753 -0.0671565 -0.06717797 -0.06720209 -0.06722105 -0.06723411 -0.06723677 -0.06722886 -0.06721334
 -0.06719095 -0.06717094 -0.06715403 -0.06714934 -0.06715614 -0.06717763 -0.06721086 -0.06725154 -0.06729529 -0.06733353
 -0.06736308 -0.06737626 -0.0673746 -0.06735519 -0.06732577 -0.06728864 -0.06725331 -0.06722405 -0.06720471 -0.06719767
 -0.06720036 -0.06721301 -0.06723075 -0.06725319 -0.06727663 -0.06730083 -0.06732231 -0.06734087 -0.06735296 -0.06735887
 -0.06735818 -0.06735212 -0.06734476 -0.06733689 -0.06733273 -0.0673314 -0.06733355 -0.06733762 -0.06734209 -0.06734601
 -0.06734802 -0.06734823 -0.06734598 -0.06734291 -0.06733907 -0.06733754 -0.06733958 -0.06734432 -0.06735253 -0.06735717
 -0.06735747 -0.06735035 -0.0673356 -0.06732515 -0.06732006 -0.0673388 -0.06737982 -0.06744582 -0.06752918 -0.06760551
 -0.06766573 -0.06767168 -0.06763025 -0.06752931 -0.06739569 -0.0672556 -0.06712805 -0.06704012 -0.06698858 -0.06698151
 -0.06700215 -0.0670478 -0.06709826 -0.06714843 -0.06718334 -0.06719883 -0.06719408 -0.06716765 -0.06713398 -0.06709377
 -0.06706256 -0.06704027 -0.06702884 -0.06702715 -0.067029 -0.06703473 -0.06704237 -0.06705286 -0.06706858 -0.06708758
 -0.06710833 -0.06712704 -0.06713817 -0.06714076 -0.06713155 -0.0671129 -0.0670848 -0.06705087 -0.06701145 -0.0669736
 -0.06693856 -0.06691469 -0.06690426 -0.0669072 -0.06692448 -0.06694482 -0.06696764 -0.06698333 -0.06699213 -0.06699639
 -0.06699662 -0.06699838 -0.0669998 -0.06699665 -0.06698706 -0.06696249 -0.0669266 -0.06688084 -0.0668314 -0.06678731
 -0.06674931 -0.06672223 -0.06670118 -0.0666846 -0.06666897 -0.06665197 -0.0666344 -0.0666159 -0.0665983 -0.06658199
 -0.06656714 -0.0665539 -0.06654083 -0.06652786 -0.06651358 -0.06649802 -0.06648125 -0.06646387 -0.06645002 -0.06644021
 -0.06643938 -0.06644602 -0.06645956 -0.06647652 -0.06649037 -0.06649925 -0.06649712 -0.06648698 -0.0664688 -0.06644717
 -0.06642557 -0.06640375 -0.06638295 -0.06635965 -0.06633204 -0.06630331 -0.06627241 -0.0662524 -0.06624474 -0.06625763
 -0.06629197 -0.0663363 -0.06638944 -0.06642859 -0.06645402 -0.06645567 -0.06643647 -0.06640369 -0.06635758 -0.06630261
 -0.06623734 -0.06615887 -0.06607252 -0.0659823 -0.06589693 -0.06582691 -0.06577202 -0.0657372 -0.06571262 -0.06569582
 -0.06567775 -0.06565464 -0.06562574 -0.0655899 -0.06555087 -0.06550898 -0.06546667 -0.0654242 -0.06538078 -0.06533626
 -0.06528682 -0.06523245 -0.06517052 -0.06510265 -0.06503363 -0.0649661 -0.06491023 -0.06486584 -0.06483895 -0.06482384
 -0.0648172 -0.06480959 -0.06479146 -0.06475711 -0.06469814 -0.06462069 -0.06452361 -0.06442008 -0.06431404 -0.06421207
 -0.06411692 -0.06402522 -0.0639371 -0.06384684 -0.06375402 -0.06365637 -0.06355396 -0.06344949 -0.06334299 -0.06323677
 -0.06312915 -0.06301516 -0.06289148 -0.06274555 -0.06257742 -0.06237837 -0.0621578 -0.06192295 -0.06168584 -0.06146114
 -0.06125176 -0.06106549 -0.06089547 -0.06074208 -0.06059341 -0.06044757 -0.06028888 -0.06011437 -0.05991148 -0.05967751
 -0.05941436 -0.05912169 -0.05881159 -0.05848453 -0.05814908 -0.05780518 -0.05745593 -0.05710167 -0.05674545 -0.0563879
 -0.05603202 -0.05567879 -0.05533164 -0.05499076 -0.05465906 -0.05433253 -0.05400943 -0.05368344 -0.053349 -0.0530061
 -0.0526529 -0.05229276 -0.0519284 -0.05155163 -0.05116246 -0.05074601 -0.05029908 -0.04982601 -0.04932624 -0.04882408
 -0.04832043 -0.04782985 -0.04735101 -0.04687938 -0.04641325 -0.04594233 -0.04546668 -0.04498059 -0.04448649 -0.04398647
 -0.04348255 -0.04298056 -0.0424749 -0.04196432 -0.04143773 -0.04088434 -0.04030869 -0.03970516 -0.03910015 -0.0385014
 -0.03792321 -0.03737302 -0.0368353 -0.03630964 -0.0357759 -0.03523204 -0.03467749 -0.03411251 -0.03354876 -0.03298582
 -0.03242555 -0.03186513 -0.03129233 -0.03070531 -0.03009043 -0.02945202 -0.02879006 -0.02811471 -0.02744038 -0.02677325
 -0.02612661 -0.02549582 -0.02488277 -0.02427867 -0.02367984 -0.02308094 -0.02247956 -0.02187298 -0.02125976 -0.02064157
 -0.0200178 -0.01939683 -0.0187794 -0.01816932 -0.01756638 -0.01695816 -0.01634377 -0.01570806 -0.0150539 -0.01438609
 -0.0137098 -0.01304447 -0.01238974 -0.01175606 -0.01113629 -0.01052488 -0.009915444 -0.009297877 -0.008674326 -0.008041387
 -0.007408599 -0.00678025 -0.006160445 -0.005553862 -0.004949761 -0.004347733 -0.003732136 -0.003099844 -0.002449709 -0.001780764
 -0.001107528 -0.0004307011 0.0002369678 0.0008957041 0.001542769 0.002178873 0.002805811 0.003424257 0.004036834 0.004644667
 0.005250919 0.005857427 0.006467956 0.007084306 0.007710038 0.008344788 0.008990757 0.009642293 0.01029811 0.01095057
 0.01159635 0.01223342 0.01285996 0.01348085 0.01409646 0.01471149 0.01532655 0.01594087 0.01655437 0.01716244
 0.0177649 0.01835762 0.01894146 0.01951815 0.02008961 0.02066302 0.02123919 0.02182416 0.02241553 0.02301283
 0.0236124 0.02421037 0.02480413 0.02539054 0.02596875 0.02653732 0.02709726 0.02764807 0.02819328 0.02873348
 0.02927172 0.02980858 0.0303455 0.03088265 0.03142082 0.03196004 0.0324995 0.0330389 0.03357451 0.03410621
 0.03463087 0.03514937 0.03566309 0.03617235 0.03667907 0.03718159 0.03767823 0.03816764 0.03864701 0.0391181
 0.0395807 0.04003848 0.04049321 0.04094742 0.04140278 0.04185853 0.04231519 0.04276941 0.04322068 0.04366751
 0.04410959 0.04454887 0.04498542 0.0454196 0.04585113 0.04627662 0.04669644 0.04711036 0.04752 0.04793096
 0.04834364 0.04876242 0.04918511 0.04961053 0.05003579 0.05045783 0.05087321 0.0512791 0.05167109 0.05204552
 0.05240264 0.05273997 0.05306697 0.05338471 0.05370439 0.05402828 0.05435967 0.05469944 0.05504307 0.05539034
 0.05573487 0.05607643 0.05641054 0.05673767 0.05705785 0.05737232 0.05768533 0.05799759 0.05831316 0.0586314
 0.05895334 0.05927742 0.05960286 0.05992674 0.0602473 0.06056026 0.06086265 0.06115305 0.0614293 0.06169579
 0.06195287 0.06220603 0.06245651 0.062705 0.06295188 0.06319459 0.06343302 0.06366572 0.06389283 0.06411581
 0.06433505 0.06455366 0.06477188 0.06499251 0.06521468 0.06543799 0.06566101 0.06588123 0.0660978 0.06630909
 0.06651379 0.06671102 0.06689772 0.06707162 0.06723236 0.06737735 0.06751582 0.06764834 0.06778902 0.06794102
 0.06810723 0.06828947 0.0684705 0.06864946 0.06880468 0.06893642 0.06904291 0.06912725 0.06920823 0.06928634
 0.06937534 0.06946938 0.0695613 0.06964594 0.06970925 0.06975512 0.069781 0.06979637 0.0698082 0.06982234
 0.0698447 0.06987467 0.06991423 0.06995796 0.07000557 0.07004897 0.07008645 0.07011497 0.07013333 0.07015039
 0.07016659 0.07019357 0.07023092 0.07027534 0.07032434 0.07035992 0.07038133 0.07037463 0.07034418 0.07029264
 0.07022659 0.07015881 0.07009207 0.07003538 0.06998689 0.06994787 0.0699166 0.06989175 0.06987486 0.06986693
 0.06986623 0.0698742 0.06987967 0.06988153 0.06986708 0.06983418 0.0697842 0.06971696 0.06964972 0.06958336
 0.069535 0.06950331 0.0694893 0.06948875 0.06948621 0.06947856 0.06944858 0.06939939 0.06932636 0.06923945
 0.06914797 0.06906197 0.06899419 0.06894595 0.06892382 0.06891782 0.06892692 0.06893717 0.06894445 0.06894115
 0.06892432 0.06889772 0.06886097 0.06882425 0.06878819 0.06875955 0.0687383 0.06872319 0.06871404 0.0687082
 0.06870712 0.06871451 0.0687331 0.06877288 0.06883252 0.06891745 0.06901674 0.06912168 0.06921598 0.06928141
 0.06931281 0.06929722 0.06925264 0.06917994 0.06910858 0.06904768 0.06901138 0.06900632 0.06901909 0.06905024
 0.06907262 0.06908447 0.06906851 0.06902488 0.06895725 0.06886785 0.0687746 0.0686783 0.06859273 0.06851507
 0.06844546 0.06837979 0.06830996 0.06823555 0.0681517 0.0680624 0.06796903 0.06787627 0.06778824 0.06770431
 0.06762737 0.06754681 0.06746195 0.06735598 0.0672254 0.06706107 0.06686026 0.06663285 0.06637902 0.06612056
 0.06585835 0.06560802 0.06536869 0.06514153 0.06492471 0.06471132 0.0645004 0.06428546 0.0640675 0.06384476
 0.06362014 0.06339689 0.06317648 0.06296274 0.06275155 0.06254279 0.06232815 0.06210375 0.06186567 0.06161059
 0.06134451 0.06106699 0.06079019 0.0605152 0.06025362 0.06000642 0.05977849 0.05956959 0.05937387 0.0591896
 0.05900107 0.05880703 0.05859277 0.05836043 0.05810728 0.05783856 0.05756286 0.05728401 0.05701151 0.05674423
 0.05648523 0.05623008 0.05597704 0.0557221 0.0554629 0.05519808 0.05492661 0.05464897 0.05436497 0.05407604
 0.05378222 0.05348559 0.05318624 0.05288748 0.05258945 0.0522951 0.05200411 0.05171562 0.0514285 0.05113713
 0.05084075 0.05053329 0.05021702 0.04989242 0.04956455 0.04924065 0.04892351 0.0486199 0.04832541 0.04804084
 0.04775613 0.04746718 0.04716669 0.04685059 0.04652055 0.0461751 0.045824 0.04546793 0.04511765 0.04477411
 0.04444137 0.04411936 0.04380281 0.04349091 0.04317425 0.04285278 0.04252096 0.04218009 0.04183074 0.04147493
 0.04111682 0.0407581 0.04040286 0.04005181 0.03970752 0.03936858 0.03903562 0.03870453 0.03837405 0.03803959
 0.03769897 0.03735205 0.03699734 0.03664249 0.03628758 0.03594556 0.03561748 0.03531126 0.03502681 0.03475591
 0.03449643 0.0342258 0.0339429 0.03362876 0.03328761 0.03292009 0.03253525 0.03215129 0.03177521 0.03142636
 0.03110215 0.03081018 0.03053617 0.03027489 0.03000828 0.02972561 0.02942064 0.029086 0.02873608 0.0283709
 0.02801369 0.02766823 0.02734332 0.02704061 0.02674877 0.02646727 0.02618396 0.02590013 0.02562231 0.02535336
 0.02511187 0.02489645 0.02471526 0.0245591 0.02441484 0.02427014 0.0241007 0.02390214 0.02365791 0.02337867
 0.02306371 0.02273337 0.02239716 0.02206797 0.0217539 0.02145124 0.02116123 0.02087469 0.02058971 0.02030763
 0.02002803 0.01976096 0.01950679 0.01926881 0.01904621 0.01883198 0.01862575 0.01842157 0.01822083 0.01802524
 0.01783509 0.01765296 0.01747561 0.01729959 0.0171216 0.01693599 0.01674427 0.01654503 0.01634275 0.01614005
 0.01593682 0.0157354 0.01552622 0.01530865 0.01506892 0.0148046 0.01450989 0.01418333 0.01383667 0.01347072
 0.01311137 0.01275971 0.01243779 0.01214327 0.01187717 0.01163352 0.0113938 0.01115398 0.01089477 0.01061943
 0.01032303 0.0100141 0.009699636 0.00938618 0.00908131 0.008785777 0.008502282 0.008228366 0.00796383 0.007706286
 0.007455337 0.007208419 0.006965171 0.006723367 0.006482655 0.006243959 0.006007347 0.005776738 0.005552021 0.005333965
 0.005121196 0.004906529 0.004689188 0.0044615 0.004226639 0.003986722 0.003747683 0.003520552 0.00330624 0.00311208
 0.002930235 0.002757932 0.002586524 0.002409655 0.002227376 0.002037331 0.001845801 0.001653949 0.001465636 0.0012817
 0.001103076 0.0009296637 0.0007660888 0.0006126334 0.0004783278 0.0003634202 0.0002743604 0.0002097491 0.0001662719 0.0001404048
 0.0001189489 9.860007E-05 6.431088E-05 1.7645E-05 -4.762335E-05 -0.0001230101 -0.0002030357 -0.000276696 -0.0003337263 -0.0003685242
 -0.0003743787 -0.0003540093 -0.0003063686 -0.0002372618 -0.0001481405 -4.15224E-05 8.153533E-05 0.0002238539 0.0003854851 0.0005705741
 0.0007793371 0.001012773 0.001270891 0.001553241 0.001860981 0.002199696 0.002572167 0.002991435 0.00345832 0.003982925
 0.004560223 0.00518843 0.005857943 0.006557959 0.007280238 0.008014745 0.008758327 0.009506171 0.01025992 0.01101888
 0.01178626 0.01256295 0.01335005 0.0141485 0.01495385 0.01576624 0.01657533 0.01738057 0.01816803 0.01893671
 0.0196708 0.02036859 0.02101259 0.0216005 0.02211499 0.0225544 0.02290574 0.02316975 0.02334021 0.02342339
 0.02341992 0.02334772 0.02321467 0.02305473 0.02288258 0.02274137 0.02264851 0.02263723 0.02272055 0.02290698
 0.02320194 0.02358995 0.02407108 0.02461833 0.0252302 0.0258803 0.02656764 0.0272736 0.027998 0.02873092
 0.02947119 0.03021073 0.03094508 0.03166042 0.03235099 0.03300038 0.03360726 0.03416236 0.03467079 0.03513332
 0.0355556 0.03594375 0.03629081 0.03660291 0.03684155 0.03700775 0.03702053 0.03687131 0.03646783 0.03579722
 0.03483187 0.03356861 0.03209465 0.03041994 0.02870689 0.02696448 0.02533352 0.02380863 0.02244788 0.02123451
 0.02015763 0.01920099 0.01833261 0.0175417 0.016804 0.01611183 0.01545168 0.01481851 0.01420528 0.01361286
 0.01303881 0.01249039 0.0119683 0.01148206 0.01103309 0.01062967 0.01027275 0.009968302 0.009716759 0.009520566
 0.009379582 0.009291831 0.009256693 0.00926978 0.009329463 0.009429389 0.009563565 0.009717589 0.009877261 0.01001483
 0.01011108 0.01013184 0.01006568 0.009887979 0.009607548 0.009217577 0.008747106 0.008201892 0.007620438 0.007011688
 0.006412562 0.005830027 0.005291978 0.004802228 0.004376565 0.004016254 0.003728619 0.003513291 0.003367666 0.003285749
 0.003233258 0.003189825 0.003063823 0.002824131 0.002340649 0.001603559 0.0005194304 -0.0008625283 -0.002538169 -0.004403214
 -0.006377121 -0.00835517 -0.01025107 -0.01201694 -0.01360679 -0.01503551 -0.01629484 -0.0174243 -0.0184292 -0.01934098
 -0.02016366 -0.0209168 -0.02160184 -0.02223431 -0.02281491 -0.02335619 -0.02385842 -0.02432934 -0.02476941 -0.02518417
 -0.02557507 -0.0259486 -0.02630638 -0.02665434 -0.02699324 -0.02732659 -0.02765395 -0.02797657 -0.02829241 -0.02860094
 -0.02889938 -0.02918596 -0.02946108 -0.02972352 -0.02997931 -0.03022903 -0.03047984 -0.03073299 -0.03098913 -0.03124857
 -0.03150357 -0.03175373 -0.03199133 -0.03221687 -0.0324302 -0.03263288 -0.03283169 -0.03302723 -0.03322516 -0.0334238
 -0.03362272 -0.03382017 -0.0340131 -0.03420223 -0.03438652 -0.03456883 -0.0347508 -0.03493377 -0.0351193 -0.03530529
 -0.03549194 -0.03567492 -0.03585364 -0.03602369 -0.03618449 -0.03633295 -0.0364687 -0.03659315 -0.03670667 -0.03681722
 -0.03692551 -0.03704145 -0.03716451 -0.03729849 -0.03744063 -0.03758558 -0.0377301 -0.03786517 -0.03799013 -0.03809945
 -0.03819649 -0.03828155 -0.03836046 -0.03843674 -0.03851504 -0.03859866 -0.03868804 -0.03878481 -0.03888413 -0.03898585
 -0.03908274 -0.03917381 -0.03925482 -0.03932519 -0.03938838 -0.03944477 -0.03950359 -0.03956526 -0.03963768 -0.03972005
 -0.0398134 -0.03991597 -0.04002346 -0.0401344 -0.04024376 -0.04035132 -0.04045444 -0.04055416 -0.04065035 -0.04074467
 -0.04083814 -0.0409319 -0.04102675 -0.04112295 -0.04122059 -0.04132025 -0.04142186 -0.04152704 -0.04163601 -0.04174963
 -0.04186805 -0.04198981 -0.04211481 -0.04223985 -0.04236486 -0.04248755 -0.04260812 -0.04272618 -0.04284203 -0.04295639
 -0.0430692 -0.04318072 -0.04329069 -0.04339876 -0.04350499 -0.04360909 -0.04371179 -0.04381358 -0.04391459 -0.04401512
 -0.04411469 -0.04421314 -0.04431051 -0.04440666 -0.04450268 -0.04459871 -0.04469553 -0.04479327 -0.04489106 -0.04498884
 -0.0450852 -0.04518021 -0.04527386 -0.04536659 -0.04546061 -0.04555633 -0.04565654 -0.04576052 -0.04586865 -0.04597871
 -0.04608781 -0.0461941 -0.04629404 -0.04638902 -0.04647822 -0.04656551 -0.04665259 -0.04674165 -0.04683433 -0.04692875
 -0.04702506 -0.04711972 -0.04721213 -0.04730137 -0.04738722 -0.04747207 -0.04755607 -0.04764199 -0.04772973 -0.0478194
 -0.04791046 -0.04800026 -0.04808852 -0.04817275 -0.04825341 -0.04833007 -0.04840387 -0.04847615 -0.0485481 -0.04862145
 -0.04869666 -0.04877483 -0.04885494 -0.04893708 -0.0490192 -0.04910081 -0.04917992 -0.04925605 -0.04932769 -0.04939443
 -0.04945628 -0.0495131 -0.04956733 -0.04961915 -0.04967302 -0.04972899 -0.04978944 -0.04985379 -0.04992032 -0.04998847
 -0.05005533 -0.05012125 -0.05018542 -0.0502486 -0.05031173 -0.05037483 -0.05043859 -0.0505019 -0.05056426 -0.05062452
 -0.05068173 -0.0507363 -0.05078794 -0.05083811 -0.0508871 -0.05093588 -0.05098483 -0.05103255 -0.05107899 -0.0511227
 -0.05116361 -0.05120306 -0.05124125 -0.05128103 -0.05132212 -0.05136472 -0.05140823 -0.05145076 -0.05149237 -0.05153208
 -0.05157084 -0.05160977 -0.05164932 -0.0516907 -0.05173318 -0.05177687 -0.05182025 -0.0518626 -0.0519028 -0.05194002
 -0.05197503 -0.05200753 -0.05204019 -0.05207339 -0.05210902 -0.05214741 -0.05218742 -0.05222898 -0.05226901 -0.05230746
 -0.05234243 -0.05237421 -0.05240329 -0.05243025 -0.05245723 -0.05248468 -0.05251482 -0.05254729 -0.05258285 -0.05262014
 -0.05265806 -0.05269542 -0.05273075 -0.0527642 -0.05279524 -0.05282513 -0.05285422 -0.05288343 -0.05291313 -0.05294329
 -0.05297399 -0.05300486 -0.05303583 -0.05306737 -0.05309951 -0.05313374 -0.05317003 -0.05320868 -0.05324912 -0.05328841
 -0.05332584 -0.05335717 -0.05338286 -0.05340133 -0.05341468 -0.05342535 -0.05343546 -0.05344843 -0.05346491 -0.05348688
 -0.05351284 -0.05354298 -0.05357413 -0.05360547 -0.0536336 -0.05365742 -0.05367569 -0.05368773 -0.05369571 -0.05369964
 -0.05370346 -0.05370739 -0.05371413 -0.05372361 -0.0537355 -0.05374942 -0.05376292 -0.05377594 -0.05378662 -0.05379581
 -0.05380448 -0.05381367 -0.05382575 -0.05384047 -0.05385872 -0.05387923 -0.05390101 -0.05392409 -0.05394805 -0.05397398
 -0.0540025 -0.05403301 -0.05406594 -0.05409814 -0.05412922 -0.05415653 -0.05417966 -0.05419867 -0.05421355 -0.05422565
 -0.05423501 -0.05424258 -0.0542485 -0.054254 -0.05425938 -0.05426643 -0.05427523 -0.05428706 -0.05430131 -0.05431774
 -0.05433536 -0.05435286 -0.05436989 -0.05438551 -0.05440055 -0.05441498 -0.05443043 -0.05444761 -0.0544671 -0.05448944
 -0.05451336 -0.05453894 -0.05456357 -0.054587 -0.05460741 -0.05462466 -0.05463908 -0.05465081 -0.05466186 -0.05467241
 -0.05468465 -0.05469848 -0.05471488 -0.05473345 -0.05475367 -0.05477517 -0.05479702 -0.05481922 -0.05484144 -0.05486373
 -0.05488613 -0.05490837 -0.05493048 -0.05495169 -0.05497184 -0.05498983 -0.05500535 -0.05501784 -0.05502702 -0.05503356
 -0.0550374 -0.05504032 -0.05504243 -0.05504499 -0.05504796 -0.055051 -0.05505401 -0.05505601 -0.05505715 -0.05505745
 -0.05505734 -0.05505801 -0.05505963 -0.05506313 -0.05506827 -0.05507513 -0.05508342 -0.05509298 -0.05510343 -0.0551147
 -0.05512596 -0.05513698 -0.0551468 -0.05515509 -0.05516131 -0.05516519 -0.05516738 -0.05516787 -0.05516768 -0.05516687
 -0.05516618 -0.05516564 -0.05516556 -0.05516597 -0.05516714 -0.05516912 -0.05517239 -0.05517686 -0.05518273 -0.05518929
 -0.05519544 -0.05520054 -0.05520291 -0.05520363 -0.05520255 -0.05520241 -0.05520489 -0.05521133 -0.05522339 -0.05523843
 -0.0552564 -0.05527319 -0.05528789 -0.05529897 -0.05530598 -0.05531026 -0.05531189 -0.05531234 -0.05531164 -0.05530988
 -0.05530716 -0.05530419 -0.05530123 -0.05529983 -0.0553 -0.05530262 -0.05530747 -0.05531426 -0.05532372 -0.05533613
 -0.05535356 -0.05537799 -0.05541056 -0.05545319 -0.05550378 -0.05556251 -0.05562505 -0.0556901 -0.0557555 -0.05582035
 -0.05588597 -0.0559524 -0.05602125 -0.05609268 -0.05616526 -0.05623879 -0.05630965 -0.05637759 -0.05643927 -0.05649438
 -0.05654013 -0.05657589 -0.05659879 -0.05660786 -0.0566004 -0.05657473 -0.05652757 -0.05645815 -0.05636245 -0.0562476
 -0.05611321 -0.05597785 -0.05584792 -0.05574111 -0.055665 -0.05562269 -0.05561753 -0.05563822 -0.05568477 -0.05573801
 -0.05579681 -0.05584203 -0.05587325 -0.05588404 -0.05587587 -0.05585681 -0.05582794 -0.05579826 -0.05576741 -0.05573879
 -0.05571212 -0.05568871 -0.05566764 -0.05564883 -0.05562993 -0.05560869 -0.05558383 -0.0555532 -0.05551894 -0.05548131
 -0.05544268 -0.05540421 -0.05536528 -0.05532604 -0.05528488 -0.05524135 -0.05519723 -0.05515253 -0.05511164 -0.05507471
 -0.05504433 -0.05502024 -0.05500153 -0.05498794 -0.05497769 -0.05497094 -0.05496749 -0.05496709 -0.05496958 -0.05497366
 -0.05497763 -0.05498013 -0.05497886 -0.05497444 -0.05496608 -0.05495633 -0.05494602 -0.05493743 -0.05493166 -0.05492869
 -0.05492888 -0.05493041 -0.05493307 -0.0549357 -0.05493813 -0.05494119 -0.05494493 -0.05495059 -0.05495806 -0.05496692
 -0.0549769 -0.05498634 -0.05499526 -0.05500274 -0.05500922 -0.05501524 -0.05502088 -0.05502654 -0.0550321 -0.0550376
 -0.05504296 -0.05504813 -0.05505314 -0.05505811 -0.05506251 -0.0550662 -0.05506887 -0.05507033 -0.05507116 -0.05507132
 -0.05507202 -0.05507337 -0.05507582 -0.05507934 -0.05508272 -0.05508584 -0.05508709 -0.05508671 -0.05508487 -0.05508215
 -0.0550805 -0.05507995 -0.05508178 -0.05508498 -0.05508869 -0.05509219 -0.05509409 -0.05509527 -0.05509571 -0.05509691
 -0.05509968 -0.05510441 -0.0551117 -0.05511994 -0.05512902 -0.05513696 -0.0551434 -0.05514785 -0.05515019 -0.05515199
 -0.05515334 -0.05515544 -0.05515822 -0.05516152 -0.05516511 -0.05516776 -0.05516954 -0.05517003 -0.05516928 -0.05516721
 -0.05516389 -0.05515908 -0.05515376 -0.05514863 -0.05514494 -0.05514424 -0.05514562 -0.05514956 -0.05515296 -0.05515474
 -0.05515368 -0.0551487 -0.05514354 -0.05513833 -0.05513822 -0.05514377 -0.05515556 -0.05517351 -0.05519278 -0.05521306
 -0.05522946 -0.05524245 -0.05525151 -0.05525773 -0.05526443 -0.05527194 -0.05528297 -0.05529637 -0.05531185 -0.05532772
 -0.05534206 -0.0553541 -0.0553624 -0.05536796 -0.05537041 -0.0553725 -0.05537479 -0.05538043 -0.05539037 -0.05540555
 -0.05542663 -0.05545041 -0.05547678 -0.055501 -0.05552287 -0.05554058 -0.05555438 -0.05556591 -0.05557533 -0.05558435
 -0.0555927 -0.05560035 -0.05560738 -0.05561365 -0.05561998 -0.05562752 -0.05563694 -0.05564968 -0.05566506 -0.05568331
 -0.05570275 -0.0557226 -0.05574181 -0.05575971 -0.05577658 -0.05579231 -0.05580759 -0.05582247 -0.05583791 -0.05585398
 -0.05587173 -0.0558912 -0.05591312 -0.05593741 -0.05596353 -0.05599117 -0.05601837 -0.05604509 -0.05606999 -0.0560936
 -0.05611645 -0.05613889 -0.05616212 -0.05618519 -0.05620787 -0.05622847 -0.05624533 -0.05625865 -0.0562674 -0.05627475
 -0.05628146 -0.05629042 -0.05630283 -0.05631802 -0.05633625 -0.05635503 -0.05637412 -0.05639252 -0.05641018 -0.05642764
 -0.05644486 -0.05646148 -0.05647752 -0.05649269 -0.05650739 -0.05652277 -0.05653908 -0.05655779 -0.05657818 -0.05659986
 -0.05662187 -0.05664288 -0.05666281 -0.05668094 -0.05669837 -0.05671534 -0.05673333 -0.05675303 -0.05677481 -0.0567992
 -0.05682432 -0.05685012 -0.05687371 -0.05689477 -0.0569118 -0.0569247 -0.05693509 -0.05694321 -0.05695239 -0.05696281
 -0.05697735 -0.05699578 -0.05701908 -0.05704626 -0.05707576 -0.05710606 -0.05713389 -0.05715871 -0.05717824 -0.05719382
 -0.05720538 -0.05721546 -0.05722541 -0.05723674 -0.0572504 -0.05726651 -0.05728538 -0.05730616 -0.05732888 -0.05735197
 -0.05737532 -0.05739699 -0.05741688 -0.05743396 -0.05744829 -0.05746034 -0.05747024 -0.05747902 -0.05748684 -0.05749475
 -0.05750308 -0.05751315 -0.05752501 -0.05753955 -0.05755604 -0.05757419 -0.05759274 -0.05761046 -0.057627 -0.05764161
 -0.05765521 -0.05766791 -0.05768087 -0.05769457 -0.05770879 -0.05772366 -0.05773813 -0.05775214 -0.05776453 -0.05777524
 -0.05778366 -0.05778989 -0.05779475 -0.05779855 -0.05780366 -0.05781021 -0.05782028 -0.05783324 -0.05784881 -0.05786591
 -0.05788258 -0.0578982 -0.05791116 -0.05792177 -0.05792956 -0.05793576 -0.05794089 -0.05794604 -0.05795188 -0.05795841
 -0.05796589 -0.05797319 -0.0579802 -0.05798587 -0.05799005 -0.05799259 -0.05799346 -0.05799355 -0.0579929 -0.05799225
 -0.05799162 -0.05799145 -0.05799171 -0.05799264 -0.05799409 -0.05799592 -0.05799769 -0.05799857 -0.05799823 -0.05799582
 -0.05799162 -0.05798535 -0.05797813 -0.05797043 -0.05796322 -0.05795707 -0.05795204 -0.05794836 -0.05794523 -0.05794274
 -0.05793889 -0.05793353 -0.05792445 -0.05791148 -0.05789454 -0.0578738 -0.05785235 -0.05783037 -0.05781093 -0.05779352
 -0.05777785 -0.05776328 -0.05774772 -0.05773167 -0.05771492 -0.05769848 -0.05768386 -0.05767058 -0.05765911 -0.05764775
 -0.05763547 -0.05762179 -0.05760601 -0.05758929 -0.05757188 -0.05755438 -0.05753708 -0.05751902 -0.05750011 -0.05747993
 -0.0574584 -0.05743723 -0.05741652 -0.05739814 -0.05738208 -0.05736925 -0.05735933 -0.05735162 -0.05734567 -0.05734016
 -0.05733462 -0.05732746 -0.0573189 -0.05730832 -0.05729696 -0.05728568 -0.0572755 -0.05726758 -0.0572612 -0.05725664
 -0.05725171 -0.05724583 -0.05723771 -0.05722692 -0.05721379 -0.0571982 -0.05718176 -0.05716456 -0.05714858 -0.05713393
 -0.05712286 -0.05711541 -0.05711308 -0.0571155 -0.05712219 -0.05713241 -0.05714418 -0.05715664 -0.05716733 -0.05717595
 -0.05718101 -0.05718293 -0.05718132 -0.05717755 -0.05717224 -0.05716672 -0.05716187 -0.05715767 -0.05715457 -0.05715071
 -0.05714604 -0.05713758 -0.05712487 -0.05710741 -0.05708504 -0.0570612 -0.05703611 -0.05701414 -0.05699512 -0.05698003
 -0.05696809 -0.05695654 -0.05694498 -0.05693075 -0.05691426 -0.05689497 -0.05687347 -0.05685027 -0.05682594 -0.05680105
 -0.05677635 -0.05675234 -0.05672992 -0.05670967 -0.0566917 -0.05667639 -0.05666242 -0.05664978 -0.05663612 -0.05662107
 -0.05660375 -0.05658402 -0.05656326 -0.05654157 -0.05652096 -0.05650134 -0.05648282 -0.05646511 -0.05644684 -0.05642801
 -0.05640801 -0.05638687 -0.05636461 -0.05634065 -0.05631423 -0.05628483 -0.05625136 -0.05621476 -0.05617502 -0.05613405
 -0.05609278 -0.05605202 -0.05601232 -0.0559733 -0.05593489 -0.0558973 -0.05586047 -0.05582536 -0.05579204 -0.05576067
 -0.05573117 -0.05570186 -0.05567262 -0.05564182 -0.05560969 -0.05557656 -0.05554246 -0.05550797 -0.05547205 -0.05543286
 -0.05538971 -0.0553402 -0.05528621 -0.05522822 -0.05516921 -0.05511159 -0.0550559 -0.05500324 -0.05495224 -0.05490269
 -0.05485364 -0.0548049 -0.05475584 -0.05470651 -0.05465516 -0.05460166 -0.05454469 -0.05448424 -0.05442088 -0.05435478
 -0.05428777 -0.05421991 -0.05415235 -0.0540851 -0.0540188 -0.05395331 -0.05388865 -0.05382466 -0.05376119 -0.05369808
 -0.05363542 -0.05357218 -0.05350785 -0.05344112 -0.05337089 -0.05329796 -0.05322186 -0.053146 -0.05307117 -0.05299882
 -0.05292965 -0.05286003 -0.05278981 -0.05271448 -0.05263396 -0.05254836 -0.05245808 -0.05236669 -0.05227419 -0.05218285
 -0.05209171 -0.05199913 -0.05190418 -0.05180382 -0.05169853 -0.05158734 -0.05147197 -0.05135422 -0.05123381 -0.05111166
 -0.05098522 -0.05085325 -0.05071498 -0.05056909 -0.05041957 -0.05026686 -0.05011526 -0.04996581 -0.0498172 -0.0496697
 -0.04951593 -0.04935551 -0.04918017 -0.04899006 -0.04878277 -0.04855968 -0.04832637 -0.0480835 -0.04783715 -0.04758465
 -0.04732442 -0.04705117 -0.0467569 -0.04643725 -0.04608436 -0.04569805 -0.04527469 -0.04481931 -0.04433259 -0.04382181
 -0.04328948 -0.04273987 -0.04217393 -0.04159571 -0.04100432 -0.04041639 -0.03983237 -0.03928239 -0.03876783 -0.038309
 -0.03790461 -0.03755024 -0.037243 -0.03696633 -0.03671837 -0.03648563 -0.03626575 -0.03604869 -0.0358295 -0.03559671
 -0.03534711 -0.03507167 -0.03477443 -0.03445513 -0.03411896 -0.03377022 -0.03340475 -0.03302307 -0.03261644 -0.03218243
 -0.03171887 -0.03122492 -0.03070258 -0.03015252 -0.02956534 -0.02894038 -0.02825511 -0.02750979 -0.02669661 -0.02582142
 -0.02491128 -0.02396992 -0.023027 -0.02207488 -0.02111224 -0.02012902 -0.01910754 -0.01804715 -0.01694019 -0.01578957
 -0.01459865 -0.01335747 -0.01206547 -0.01070098 -0.00925394 -0.007722257 -0.006097203 -0.00441969 -0.002690851 -0.0009728322
 0.0007290099 0.002370017 0.003947932 0.005447447 0.006870598 0.00823164 0.009537605 0.01083281 0.01212367 0.01346141
 0.01483258 0.01624045 0.01765008 0.01900456 0.02029286 0.0214721 0.02257264 0.02360199 0.0245913 0.02556224
 0.02651765 0.02746478 0.02839287 0.02929924 0.03018431 0.03104752 0.03189265 0.03272035 0.03352619 0.03430996
 0.03506939 0.03580404 0.0365104 0.03718473 0.03780492 0.03836653 0.03884067 0.03923033 0.03952667 0.03973783
 0.03987282 0.03993754 0.03994103 0.03988894 0.03978581 0.03964315 0.03946574 0.03926961 0.03906033 0.03885262
 0.03865117 0.03846306 0.03829042 0.03813256 0.0379892 0.03786481 0.03775965 0.03769035 0.0376578 0.03767899
 0.03775205 0.0378758 0.03804587 0.03824616 0.0384746 0.03871808 0.0389776 0.03924892 0.03953399 0.0398331
 0.04014883 0.04048094 0.04083905 0.04122243 0.04165984 0.04215583 0.04275594 0.04347225 0.04433319 0.04534874
 0.0465023 0.04779397 0.04919613 0.05070722 0.05233591 0.054084 0.0559797 0.0580217 0.06021735 0.06256136
 0.06503849 0.06764548 0.07036723 0.07320267 0.07614415 0.07918964 0.08233463 0.0855759 0.08891186 0.09233272
 0.09583682 0.09940229 0.103024 0.1066729 0.1103425 0.1140062 0.1176595 0.1212824 0.124873 0.1284136
 0.1319031 0.135313 0.1386415 0.1418548 0.144954 0.1479304 0.1507847 0.1535242 0.1561284 0.158558
 0.1607783 0.1627059 0.164341 0.1656437 0.1666466 0.1673659 0.1678177 0.1680173 0.167964 0.1676629
 0.1671047 0.1663006 0.1651751 0.1637306 0.1618066 0.159384 0.156384 0.1527991 0.148803 0.1444091
 0.1398555 0.1351379 0.1303408 0.1254582 0.1205034 0.1154949 0.1104827 0.1054897 0.1005849 0.095759
 0.0910357 0.08637747 0.08174919 0.07716344 0.07259093 0.06814921 0.0638755 0.05986148 0.0561568 0.05270723
 0.04951761 0.04648502 0.04359667 0.04081489 0.03813621 0.0355762 0.03313491 0.03081588 0.02861594 0.02651419
 0.02450961 0.02258649 0.02074755 0.01899302 0.0173226 0.01573898 0.01423277 0.01279644 0.01141413 0.01007027
 0.008754048 0.007453736 0.00616934 0.004898429 0.003642071 0.002399984 0.001173011 -4.235408E-05 -0.001219266 -0.002357505
 -0.003406877 -0.004363823 -0.005213108 -0.005956451 -0.006626451 -0.007225998 -0.007791121 -0.008320747 -0.008830213 -0.009315831
 -0.009776847 -0.01020779 -0.01060069 -0.01094604 -0.01123076 -0.01144282 -0.01156757 -0.01159792 -0.01152495 -0.01134869
 -0.01106812 -0.01068059 -0.01018676 -0.009576421 -0.008848358 -0.007991737 -0.00700484 -0.005884391 -0.004629713 -0.003252032
 -0.001754225 -0.0001867327 0.001439196 0.003019122 0.004542223 0.005904512 0.007111408 0.008122659 0.008952335 0.009606422
 0.01009944 0.01044582 0.01067458 0.01080611 0.01089242 0.01096541 0.01107648 0.01125973 0.01152014 0.01187433
 0.01227102 0.01270366 0.01313013 0.01354151 0.01395001 0.0143552 0.01479609 0.01527418 0.01581551 0.01641842
 0.0170825 0.01780537 0.01857508 0.01939447 0.02026275 0.02118941 0.02219141 0.02327684 0.02446516 0.02575419
 0.02714771 0.02864515 0.03024172 0.03195719 0.03379652 0.03578398 0.03793202 0.04023225 0.04268899 0.04526457
 0.04795404 0.05074076 0.05362236 0.05662198 0.05973959 0.06297729 0.06632334 0.06969107 0.07305831 0.07628313
 0.07935151 0.08215582 0.08468372 0.0868724 0.08868815 0.09006845 0.09096868 0.09132312 0.09111701 0.09031114
 0.08894518 0.08701439 0.08460477 0.08172992 0.07850206 0.07493771 0.0711567 0.06717073 0.06310501 0.05896771
 0.0548912 0.05088177 0.04704586 0.04338268 0.03993404 0.03669337 0.03365277 0.0308099 0.02815357 0.02568615
 0.02340978 0.02131964 0.01941447 0.01767706 0.01609354 0.01464306 0.01330961 0.01207581 0.01093254 0.009861145
 0.008857283 0.007894867 0.006969979 0.00605306 0.005140102 0.004209913 0.003260117 0.002289195 0.001297947 0.0003123297
 -0.0006631765 -0.001579694 -0.002432487 -0.003171789 -0.003800121 -0.004295164 -0.004670772 -0.00494022 -0.005124804 -0.005257191
 -0.005358443 -0.005459558 -0.00557456 -0.005721483 -0.005906749 -0.006136531 -0.00641661 -0.006749221 -0.007141234 -0.007595706
 -0.008108767 -0.008682163 -0.00929396 -0.009943087 -0.01060176 -0.01126882 -0.01192927 -0.0125838 -0.01323306 -0.01387706
 -0.0145175 -0.01515083 -0.0157683 -0.0163642 -0.01692254 -0.01744038 -0.01790595 -0.01832112 -0.01868366 -0.0189956
 -0.01925894 -0.01947063 -0.01963056 -0.01973308 -0.01977578 -0.01975783 -0.01967752 -0.01954197 -0.01935111 -0.01911768
 -0.0188424 -0.01853966 -0.01821021 -0.01786637 -0.01750859 -0.01714556 -0.01677793 -0.01641278 -0.01605187 -0.01570346
 -0.0153708 -0.01506353 -0.01478658 -0.01454985 -0.0143601 -0.01422703 -0.01415676 -0.01415704 -0.0142286 -0.01437539
 -0.01458967 -0.01487173 -0.01520606 -0.01559116 -0.01600565 -0.01644743 -0.01689311 -0.01734067 -0.01777231 -0.0181872
 -0.01857835 -0.01894613 -0.01929175 -0.01961558 -0.01992027 -0.02020525 -0.02047043 -0.02071428 -0.02093405 -0.02112718
 -0.02128948 -0.02141704 -0.02150512 -0.02154859 -0.02154268 -0.02148355 -0.02136794 -0.02119497 -0.02096312 -0.02067502
 -0.0203303 -0.01993502 -0.01948906 -0.01900445 -0.0184816 -0.01793974 -0.01737999 -0.0168257 -0.01627862 -0.01576418
 -0.01528533 -0.01487001 -0.01452192 -0.01426813 -0.01410957 -0.01406356 -0.01412375 -0.01429099 -0.0145507 -0.01489041
 -0.01529151 -0.01573793 -0.0162142 -0.01670841 -0.01721354 -0.01772396 -0.01824089 -0.01876331 -0.01929546 -0.01983812
 -0.02039205 -0.0209578 -0.02152854 -0.02210388 -0.02267025 -0.02322674 -0.02375835 -0.02426475 -0.0247357 -0.02517238
 -0.02557263 -0.02593923 -0.02627665 -0.02658859 -0.02688259 -0.02716127 -0.02743066 -0.0276908 -0.02794391 -0.02818817
 -0.02842323 -0.02864755 -0.02886043 -0.02906135 -0.02924993 -0.0294266 -0.02959115 -0.02974559 -0.02988993 -0.03002774
 -0.03015919 -0.03028588 -0.03040747 -0.0305205 -0.03062414 -0.0307119 -0.03078338 -0.0308337 -0.03086334 -0.03087112
 -0.03085725 -0.03082214 -0.03076432 -0.03068286 -0.03057491 -0.03043798 -0.03027034 -0.03007048 -0.02983768 -0.029572
 -0.02927019 -0.02893212 -0.02855159 -0.02812751 -0.02765652 -0.02713778 -0.02657596 -0.02597128 -0.02533417 -0.02466524
 -0.02397489 -0.02326362 -0.02253968 -0.02180312 -0.02105909 -0.02030615 -0.0195446 -0.01877028 -0.01797772 -0.01716072
 -0.01631069 -0.01542233 -0.01448831 -0.01350775 -0.0124771 -0.01140137 -0.01028053 -0.009123318 -0.007930928 -0.006714307
 -0.005474536 -0.004225056 -0.002966898 -0.001714462 -0.0004686058 0.0007610233 0.001974504 0.003170736 0.004350534 0.005518216
 0.006674239 0.007822293 0.008962828 0.01009798 0.01122989 0.01236222 0.01349887 0.01464562 0.01580533 0.01698276
 0.01817703 0.01938934 0.02061677 0.02185798 0.02311315 0.0243814 0.02566719 0.026971 0.0282971 0.02964626
 0.03101736 0.03241044 0.03381665 0.0352347 0.03664582 0.03804666 0.03940782 0.04072478 0.04196507 0.04312668
 0.04418747 0.04515029 0.04600951 0.04677004 0.04743546 0.04800954 0.04849595 0.04889876 0.04922021 0.04946633
 0.04963962 0.04974516 0.04978487 0.04976042 0.04967167 0.04952399 0.04931701 0.04906625 0.04877255 0.04845501
 0.04811411 0.0477597 0.04739086 0.04700644 0.04660594 0.0461866 0.04574928 0.04529525 0.04482441 0.04433807
 0.04383347 0.04330816 0.04275897 0.0421824 0.04157672 0.04094073 0.04027094 0.03956713 0.03882087 0.03803007
 0.03718792 0.03629127 0.035348 0.03435707 0.03334416 0.03231062 0.03128709 0.03027471 0.02929424 0.0283452
 0.02743461 0.02656158 0.02572596 0.02492854 0.0241701 0.02345438 0.02278751 0.02217464 0.02162511 0.02114027
 0.02072663 0.0203764 0.02008939 0.01984989 0.01965326 0.01948193 0.01933116 0.01918571 0.01904262 0.01888984
 0.0187257 0.01854324 0.01834181 0.01812201 0.01788429 0.01763644 0.01737947 0.01712393 0.01687045 0.01662732
 0.01639423 0.01617445 0.01596791 0.01577531 0.0155984 0.01543924 0.01530054 0.01518651 0.01509498 0.01502921
 0.01497452 0.01492979 0.01486698 0.01478078 0.01463855 0.01443393 0.01414374 0.0137639 0.01328925 0.01271883
 0.01206512 0.01132933 0.01053449 0.009682773 0.008800124 0.007889078 0.006973499 0.006055607 0.005153856 0.004268226
 0.003408208 0.002569948 0.001753004 0.0009518393 0.0001608188 -0.0006218655 -0.001399885 -0.002169937 -0.002931709 -0.003681438
 -0.004417731 -0.005139631 -0.005846646 -0.006539143 -0.00721699 -0.00788173 -0.008533367 -0.009176363 -0.009810979 -0.01044239
 -0.0110704 -0.01169609 -0.01231868 -0.0129357 -0.013546 -0.01414582 -0.01473269 -0.01530126 -0.01584689 -0.01636207
 -0.0168416 -0.01727883 -0.01766871 -0.01800779 -0.01828786 -0.01850638 -0.01865093 -0.01871779 -0.01869697 -0.01858463
 -0.01838377 -0.01809243 -0.01773321 -0.01730671 -0.01685497 -0.01638076 -0.01593793 -0.01552984 -0.01520812 -0.01497349
 -0.01485868 -0.01485846 -0.01497771 -0.01520502 -0.01552323 -0.01591757 -0.01636339 -0.01684517 -0.01734213 -0.01783868
 -0.0183206 -0.01877417 -0.01919012 -0.01956146 -0.01988341 -0.02015774 -0.02038347 -0.02056677 -0.02070836 -0.02081189
 -0.02087776 -0.02090565 -0.02089567 -0.02084985 -0.02076986 -0.02066901 -0.02055188 -0.02044484 -0.02035411 -0.02031079
 -0.0203193 -0.02040381 -0.02056346 -0.02080944 -0.02113224 -0.02153055 -0.02198432 -0.02248358 -0.02300241 -0.02352849
 -0.02403939 -0.02452629 -0.02497463 -0.0253804 -0.02573376 -0.02603304 -0.02627189 -0.0264495 -0.02656658 -0.02662338
 -0.02662845 -0.02658268 -0.02649729 -0.02637308 -0.02621925 -0.02603705 -0.0258343 -0.02561314 -0.02538143 -0.02514092
 -0.02489785 -0.02465122 -0.02440285 -0.02414942 -0.02388904 -0.02361985 -0.02333987 -0.02305095 -0.0227528 -0.02244929
 -0.02214065 -0.02183278 -0.02152588 -0.02122965 -0.02094469 -0.02068203 -0.02044211 -0.02022992 -0.02004472 -0.01988224
 -0.01974069 -0.01961007 -0.01948779 -0.01936138 -0.01922821 -0.01907658 -0.01890608 -0.01871035 -0.0184926 -0.01825336
 -0.01799661 -0.01772546 -0.01744158 -0.01714639 -0.016841 -0.01652574 -0.01620267 -0.01587242 -0.01553556 -0.01519248
 -0.01484112 -0.01448122 -0.01411366 -0.01373869 -0.01336625 -0.01299765 -0.01264996 -0.01232376 -0.01203187 -0.01177188
 -0.01154397 -0.01134356 -0.01116103 -0.0109934 -0.01083128 -0.01067623 -0.01052514 -0.01038427 -0.01025609 -0.01014869
 -0.01006666 -0.01001466 -0.009996524 -0.01000796 -0.01005038 -0.01010958 -0.01018489 -0.01025628 -0.01032232 -0.01036319
 -0.01037793 -0.01035533 -0.01029625 -0.01020436 -0.01008259 -0.009947427 -0.009801782 -0.009663703 -0.009533954 -0.009423601
 -0.00933026 -0.009256444 -0.009195788 -0.009143698 -0.009091961 -0.009032793 -0.008963057 -0.008878115 -0.008781888 -0.008675249
 -0.00855926 -0.008435591 -0.008296549 -0.008141161 -0.007964037 -0.00776394 -0.007550166 -0.007323258 -0.007100019 -0.00688059
 -0.006672591 -0.006474403 -0.0062811 -0.006091774 -0.005900356 -0.005708136 -0.0055152 -0.005322464 -0.005132132 -0.004942481
 -0.00475282 -0.004560659 -0.00436354 -0.004161382 -0.003953189 -0.003740633 -0.003523943 -0.003305005 -0.003084019 -0.002863826
 -0.002644772 -0.00242979 -0.002219386 -0.002011983 -0.001807475 -0.001598998 -0.001386218 -0.001162675 -0.0009291626 -0.000685996
 -0.0004355898 -0.0001857187 6.071932E-05 0.0002929562 0.0005106025 0.0007071921 0.0008867183 0.001050392 0.001203871 0.001352077
 0.001497561 0.001643195 0.001788674 0.001934339 0.002080256 0.00222659 0.002372876 0.00251941 0.002662774 0.002802638
 0.002936825 0.003065236 0.003193556 0.003322652 0.003464835 0.003620763 0.003801185 0.00400471 0.004232971 0.004482663
 0.00474711 0.005023659 0.005304822 0.005590289 0.005876851 0.006165082 0.006454552 0.006745496 0.007037906 0.007332128
 0.007628947 0.007925658 0.008223163 0.008511164 0.008788655 0.009044088 0.009275644 0.009484882 0.009671801 0.009853139
 0.01002979 0.01021832 0.01041764 0.01063055 0.01085398 0.01107857 0.01130234 0.01151528 0.01171877 0.01191073
 0.01209264 0.01226739 0.0124298 0.0125785 0.01270337 0.0127974 0.01285875 0.0128822 0.01288167 0.01285785
 0.01283154 0.01280614 0.01279556 0.01280186 0.01282841 0.01287551 0.01293895 0.01301835 0.01310747 0.01320635
 0.01331212 0.01342505 0.01354467 0.01367098 0.01380281 0.01394249 0.01409264 0.01425721 0.01444401 0.01464859
 0.01487232 0.01510298 0.01533061 0.01556056 0.01578458 0.0160452 0.01635063 0.01673907 0.0172257 0.01777257
 0.01837955 0.01898393 0.01958172 0.02016322 0.02072944 0.02129678 0.0218638 0.02243074 0.02299141 0.0235239
 0.02402093 0.0244545 0.02481838 0.02508978 0.02526509 0.02533033 0.02528746 0.02513095 0.02487223 0.02451197
 0.02407465 0.02356508 0.0230205 0.02244812 0.02188991 0.02135286 0.02087214 0.02045267 0.02011001 0.01984567
 0.01964705 0.01951219 0.01940843 0.01933321 0.01925339 0.01916854 0.0190585 0.01892625 0.01876704 0.01858913
 0.0184031 0.01821964 0.01805882 0.01791804 0.01780887 0.017703 0.01759078 0.01743827 0.01722639 0.01695001
 0.01659773 0.01620551 0.01577348 0.01536164 0.01497584 0.01466503 0.01443297 0.01429076 0.01423774 0.01426116
 0.01436061 0.01452864 0.01476398 0.01506102 0.01541146 0.01579269 0.01619401 0.0165845 0.01696256 0.01731129
 0.01764064 0.01795211 0.01825901 0.01857002 0.01889221 0.01923197 0.01958561 0.01995485 0.0203276 0.02070231
 0.02106794 0.02142273 0.02176424 0.02209208 0.02241119 0.02272164 0.02302565 0.02332154 0.0235993 0.02385544
 0.02406971 0.02424154 0.02435667 0.02442209 0.0244427 0.02442805 0.02439358 0.02434137 0.02427965 0.02420416
 0.0241128 0.02400842 0.02388845 0.02376943 0.02365401 0.02356193 0.0234986 0.02346732 0.0234712 0.02348652
 0.02351227 0.02351472 0.02349318 0.02343755 0.0233511 0.02325429 0.02314897 0.02305556 0.02296939 0.02288858
 0.02280721 0.02271227 0.02260313 0.02247226 0.0223249 0.02216164 0.02199206 0.02182278 0.0216582 0.02150565
 0.02134986 0.02119019 0.02100227 0.02077915 0.02052028 0.02022261 0.01991286 0.01959266 0.01928203 0.01898116
 0.01868769 0.01840081 0.01811342 0.01782541 0.01753351 0.01723643 0.01692781 0.01660917 0.01627755 0.01594259
 0.01561539 0.01530463 0.01502445 0.01477164 0.01454895 0.01434947 0.01416975 0.01400981 0.01386958 0.01374711
 0.01364362 0.01354665 0.013455 0.01335755 0.01325308 0.01314502 0.01303339</values></Ydata></AB><ScSm><Ydata ylabel="Single channel"><values byteorder="INTEL" format="FLOAT32" numvalues="1814"> 0.08272871 0.08283709 0.08296278 0.0831109 0.08327501 0.08344083 0.08359323 0.08372595 0.08384277 0.08394758
 0.08404198 0.08413732 0.08425522 0.08440681 0.08457767 0.0847372 0.08486169 0.08495549 0.0850537 0.08518925
 0.08534797 0.08546802 0.08549689 0.085446 0.0853837 0.08537448 0.08543836 0.08558124 0.08582997 0.08616917
 0.08645811 0.0865221 0.08636896 0.08621655 0.08625127 0.08644172 0.08663028 0.0867089 0.08665966 0.08653672
 0.08649011 0.08672144 0.087301 0.08801578 0.08843394 0.08815426 0.08707282 0.08552882 0.08422571 0.08386448
 0.0846374 0.08601418 0.08713931 0.08752349 0.08731032 0.08690996 0.0865701 0.08636996 0.08641244 0.08680744
 0.08749297 0.08816198 0.08838264 0.08788255 0.08685596 0.08592948 0.08565111 0.0860638 0.08689571 0.08789121
 0.08857374 0.08799738 0.08557826 0.08237371 0.08076403 0.08225743 0.08591291 0.08931991 0.09079542 0.09028038
 0.08865082 0.08694033 0.08606467 0.08650677 0.08800161 0.08980094 0.09127018 0.09206124 0.09195434 0.09095733
 0.08951479 0.0883221 0.08793709 0.08861749 0.09022043 0.09204368 0.09310028 0.09289297 0.09179059 0.09054808
 0.08974521 0.08974987 0.09075032 0.09253518 0.09451142 0.09613997 0.09721661 0.09775691 0.09786449 0.09770839
 0.09743974 0.09716961 0.09708427 0.09735118 0.09779324 0.09792234 0.09748179 0.09679316 0.09643159 0.0966325
 0.09708862 0.09732141 0.09715652 0.09663984 0.09555153 0.09350908 0.0907509 0.08826487 0.08682445 0.08644167
 0.08699401 0.08855969 0.09066005 0.09201752 0.09184034 0.09089367 0.09067366 0.09178582 0.09356146 0.0950323
 0.09587224 0.09644625 0.09724028 0.09831432 0.0991662 0.09910099 0.09793809 0.09645566 0.0958764 0.09668553
 0.09815784 0.09924962 0.0996967 0.09998693 0.100497 0.1009464 0.1006421 0.09921883 0.09726438 0.09611867
 0.09677215 0.09888612 0.1009668 0.101498 0.1000203 0.09737708 0.09500417 0.09389728 0.0942229 0.09572767
 0.09809513 0.1007928 0.1029854 0.1039591 0.103616 0.1024534 0.1010212 0.09941211 0.09745497 0.09550423
 0.09465455 0.09572016 0.09819026 0.1006327 0.1020173 0.1022913 0.1018009 0.100598 0.09852697 0.09593014
 0.09396483 0.09375164 0.0951046 0.0965701 0.09696962 0.09650204 0.09609215 0.09612204 0.09621618 0.09601162
 0.09569764 0.09574467 0.09630512 0.09702222 0.09741115 0.09731027 0.09691995 0.09651473 0.09618287 0.09577991
 0.09515224 0.09447669 0.09425019 0.09476911 0.09573231 0.09654154 0.09688967 0.0968877 0.09671071 0.09630546
 0.09549143 0.09432353 0.09327412 0.09290133 0.09330514 0.0940491 0.09462541 0.09483494 0.0947368 0.09445503
 0.09409438 0.09371347 0.09334143 0.09305142 0.09294639 0.093021 0.0931239 0.09310993 0.0929601 0.09272448
 0.09242354 0.09204893 0.09162678 0.09124102 0.09098046 0.09086592 0.09084557 0.09085207 0.09083197 0.09073275
 0.09052102 0.09022343 0.08990955 0.0896282 0.08938856 0.089194 0.08905736 0.08897617 0.08891629 0.08883404
 0.08870962 0.08855022 0.08836702 0.08816424 0.08795112 0.08774914 0.08758305 0.08746696 0.08739147 0.08732604
 0.08725169 0.0871848 0.08714233 0.08709484 0.08699192 0.08682938 0.08665666 0.08652131 0.08643273 0.08637274
 0.08631584 0.08623596 0.08611093 0.08593813 0.08575308 0.08561845 0.08557664 0.0856185 0.08570676 0.08580887
 0.08589563 0.08593971 0.08593896 0.08592033 0.08590513 0.08588789 0.08585633 0.08581753 0.08579929 0.08582981
 0.08591094 0.086012 0.08609735 0.0861534 0.08618564 0.08620818 0.08624341 0.08630525 0.08637314 0.08640817
 0.08640562 0.08640739 0.08645242 0.08653234 0.0866048 0.08664162 0.08665594 0.08668333 0.08674221 0.08682011
 0.08689678 0.08696894 0.08704824 0.08714063 0.08723027 0.0872856 0.08729022 0.08726596 0.08725328 0.08727016
 0.08730497 0.08734679 0.08740158 0.08747483 0.08755378 0.08761568 0.08764987 0.08766702 0.08768447 0.08770483
 0.08771511 0.0877062 0.08768535 0.08766663 0.08765646 0.08765119 0.08764353 0.08762832 0.0876039 0.08757018
 0.08752684 0.08747378 0.08741218 0.08734669 0.08728977 0.08725758 0.08725055 0.08723913 0.08718236 0.0870658
 0.08691622 0.08677649 0.08667003 0.08658919 0.08651139 0.0864215 0.08632074 0.08621921 0.08612636 0.0860465
 0.0859786 0.08591867 0.0858677 0.0858371 0.08583905 0.08586706 0.08589366 0.08589525 0.08587541 0.08585782
 0.08586037 0.0858836 0.08591993 0.0859641 0.08601648 0.08608253 0.08616666 0.08626217 0.086354 0.08643599
 0.08651888 0.08661818 0.08674206 0.08689213 0.08706184 0.08723179 0.08738121 0.0875117 0.08764848 0.08781259
 0.08800113 0.08819966 0.08840354 0.08861932 0.08885244 0.08910245 0.08936859 0.0896525 0.0899547 0.09027129
 0.0905944 0.09091543 0.09123009 0.09154409 0.09187216 0.09222698 0.09260802 0.09300149 0.09339222 0.09377508
 0.09415573 0.09454171 0.09493545 0.09533721 0.09575124 0.09618275 0.09662843 0.09707654 0.09751843 0.09795615
 0.09839702 0.09884453 0.0992963 0.09974948 0.1002057 0.1006695 0.1011398 0.1016053 0.1020535 0.1024841
 0.1029099 0.1033444 0.1037923 0.1042487 0.1047011 0.1051357 0.1055499 0.1059573 0.1063738 0.1068002
 0.1072247 0.1076417 0.1080595 0.1084867 0.1089157 0.1093267 0.1097091 0.1100748 0.1104458 0.1108297
 0.1112118 0.1115733 0.111912 0.1122414 0.1125727 0.1129062 0.1132413 0.1135863 0.1139471 0.114313
 0.1146624 0.1149847 0.1152876 0.1155832 0.1158762 0.1161649 0.1164475 0.1167257 0.1170041 0.1172841
 0.1175602 0.1178287 0.1181 0.1183923 0.118712 0.1190497 0.1193976 0.1197602 0.1201403 0.1205255
 0.1209018 0.1212773 0.1216748 0.122096 0.1225076 0.1228753 0.1231993 0.1235048 0.1238098 0.1241202
 0.1244469 0.1248061 0.1252007 0.1256113 0.1260094 0.1263759 0.126711 0.1270328 0.1273584 0.1276832
 0.1279835 0.1282414 0.1284628 0.1286697 0.1288831 0.1291109 0.1293449 0.1295649 0.1297488 0.1298791
 0.129939 0.1299123 0.1297937 0.1295948 0.1293291 0.1289915 0.1285613 0.1280229 0.1273741 0.1266138
 0.1257333 0.1247303 0.1236323 0.1225077 0.1214558 0.1205822 0.1199739 0.1196839 0.1197264 0.1200743
 0.1206537 0.1213457 0.1220048 0.1224882 0.1226848 0.1225354 0.1220435 0.1212658 0.1202856 0.119185
 0.1180319 0.1168791 0.1157683 0.1147458 0.113886 0.1132996 0.1131067 0.1134003 0.1142359 0.1156328
 0.1175465 0.1198246 0.1222187 0.124478 0.126455 0.1281319 0.1295695 0.1308439 0.1320153 0.1331198
 0.1341687 0.1351575 0.1360787 0.1369245 0.1376803 0.138324 0.1388342 0.139198 0.1394148 0.1395033
 0.1395069 0.1394888 0.1395184 0.1396493 0.1398937 0.140203 0.1404802 0.1406218 0.1405634 0.1403004
 0.1398902 0.1394617 0.1392353 0.1395117 0.1405717 0.1425091 0.1451277 0.1480196 0.1507756 0.1531509
 0.1550849 0.1566283 0.1578706 0.158902 0.1597936 0.1605916 0.1613244 0.1620114 0.1626653 0.1632934
 0.1639011 0.1644945 0.1650799 0.1656595 0.1662302 0.1667888 0.1673375 0.1678831 0.1684292 0.1689738
 0.1695125 0.1700419 0.1705641 0.1710846 0.1716069 0.1721254 0.1726303 0.1731182 0.173596 0.1740723
 0.174551 0.1750303 0.1755043 0.1759662 0.1764126 0.1768448 0.1772657 0.1776756 0.1780731 0.1784596
 0.1788401 0.1792202 0.1796018 0.1799829 0.1803603 0.1807313 0.1810949 0.1814515 0.1818042 0.1821582
 0.1825168 0.1828787 0.18324 0.183599 0.1839586 0.1843243 0.1847003 0.1850856 0.1854743 0.1858595
 0.1862376 0.1866097 0.1869791 0.1873493 0.1877217 0.1880955 0.1884678 0.1888369 0.1892032 0.1895683
 0.1899332 0.1902981 0.1906623 0.1910246 0.1913843 0.191742 0.1920995 0.1924586 0.1928205 0.1931852
 0.1935523 0.1939203 0.1942855 0.1946433 0.1949922 0.195334 0.1956707 0.1960046 0.1963391 0.1966782
 0.1970227 0.1973694 0.1977142 0.1980558 0.1983959 0.1987367 0.1990785 0.1994209 0.1997643 0.2001073
 0.2004447 0.2007733 0.2010958 0.2014186 0.2017446 0.2020724 0.2023996 0.2027256 0.2030505 0.2033745
 0.2036967 0.2040153 0.2043304 0.2046433 0.2049539 0.2052614 0.2055668 0.2058728 0.2061808 0.2064893
 0.206795 0.2070958 0.2073943 0.2076962 0.2080027 0.2083078 0.2086065 0.2089012 0.2091987 0.2095024
 0.2098088 0.2101115 0.2104086 0.2107047 0.2110054 0.211311 0.2116174 0.2119209 0.2122211 0.212521
 0.212824 0.2131291 0.2134315 0.2137295 0.2140274 0.2143289 0.2146339 0.2149405 0.2152457 0.2155474
 0.2158475 0.2161505 0.2164569 0.216763 0.2170675 0.2173716 0.2176752 0.2179793 0.2182871 0.2185982
 0.2189069 0.2192087 0.219504 0.2197949 0.2200836 0.2203696 0.2206497 0.2209232 0.2211962 0.2214738
 0.221754 0.2220327 0.2223099 0.2225868 0.2228658 0.2231517 0.2234469 0.2237459 0.2240424 0.224336
 0.2246301 0.2249288 0.2252352 0.2255462 0.2258545 0.2261598 0.226468 0.2267805 0.2270941 0.2274094
 0.2277288 0.2280497 0.2283694 0.2286894 0.2290099 0.2293293 0.2296481 0.2299641 0.2302728 0.2305774
 0.230887 0.2312028 0.2315178 0.23183 0.2321419 0.2324539 0.2327673 0.2330842 0.2334021 0.2337184
 0.2340356 0.2343535 0.2346671 0.234977 0.2352892 0.2356045 0.2359224 0.2362468 0.2365758 0.2368992
 0.2372154 0.2375311 0.2378466 0.2381597 0.2384746 0.2387896 0.2390959 0.2393941 0.2396913 0.2399798
 0.2402327 0.2403904 0.2403005 0.2396437 0.2378905 0.2343129 0.2281296 0.2188167 0.2064241 0.1916652
 0.1757215 0.1598743 0.1451559 0.1322104 0.1213786 0.1128363 0.1066867 0.1030449 0.1021078 0.1042509
 0.1101573 0.1204151 0.1340276 0.147119 0.1543776 0.1530746 0.1455365 0.137033 0.1314814 0.1295168
 0.1298181 0.1310778 0.1327799 0.1350523 0.1382132 0.1423042 0.1470451 0.1522937 0.1583126 0.165371
 0.1732256 0.1812075 0.1887844 0.1959093 0.2028267 0.2096522 0.2162033 0.2221754 0.2273787 0.2318057
 0.2355707 0.2388326 0.2417319 0.2443608 0.2467815 0.2490306 0.2510712 0.2527729 0.2539898 0.2546795
 0.2549538 0.255023 0.2550791 0.2552165 0.2554491 0.2557692 0.2561708 0.2566421 0.2571715 0.2577527
 0.2583707 0.2590013 0.2596282 0.2602454 0.2608454 0.2614205 0.2619681 0.2624867 0.2629766 0.2634457
 0.263902 0.2643433 0.2647664 0.2651768 0.2655822 0.2659863 0.2663903 0.2667899 0.2671731 0.2675309
 0.2678658 0.2681847 0.2684911 0.2687891 0.2690839 0.269379 0.2696773 0.2699791 0.270279 0.2705721
 0.2708622 0.2711551 0.2714502 0.2717442 0.272036 0.2723235 0.2726051 0.2728851 0.2731701 0.2734614
 0.2737564 0.2740536 0.2743511 0.2746441 0.2749286 0.2752051 0.2754816 0.2757728 0.2760881 0.2764203
 0.2767543 0.2770842 0.2774138 0.2777457 0.2780807 0.2784204 0.2787642 0.2791092 0.2794535 0.2797947
 0.280125 0.2804344 0.2807196 0.2809879 0.2812549 0.2815363 0.281835 0.2821398 0.2824408 0.2827398
 0.283042 0.2833473 0.2836527 0.2839567 0.2842617 0.2845762 0.2849108 0.2852636 0.2856212 0.2859753
 0.2863284 0.2866826 0.2870372 0.2873938 0.2877535 0.2881086 0.2884497 0.2887818 0.2891256 0.289501
 0.2899091 0.290327 0.2907282 0.2911061 0.2914748 0.2918515 0.2922444 0.2926455 0.2930236 0.2933452
 0.29362 0.293913 0.2942873 0.2947435 0.2952274 0.2956861 0.2961051 0.2964988 0.2968824 0.2972545
 0.2976004 0.2979082 0.2981896 0.2984906 0.2988623 0.2993082 0.2997746 0.3002066 0.3005937 0.3009526
 0.3012968 0.3016341 0.301955 0.3022151 0.3023799 0.3025084 0.3027424 0.3031738 0.3037432 0.3043017
 0.304757 0.3051299 0.3054789 0.3058242 0.3061556 0.3064456 0.3066157 0.3065753 0.3063841 0.3063129
 0.3066245 0.3073095 0.3081127 0.308792 0.3092816 0.3096426 0.3099535 0.3102533 0.310518 0.3106674
 0.3106492 0.3105578 0.3106224 0.311002 0.3116077 0.3121983 0.3126343 0.3129592 0.3132686 0.3135985
 0.3139066 0.3140534 0.3138616 0.3133588 0.3129406 0.3131156 0.3140132 0.3152359 0.3162569 0.316889
 0.3172895 0.3175914 0.3177063 0.3174863 0.316905 0.3160693 0.3152685 0.3150171 0.3157175 0.3171454
 0.3185429 0.3193793 0.3198071 0.3202771 0.3209526 0.3216414 0.3221098 0.3222911 0.3222449 0.3220205
 0.3216339 0.3212261 0.3211514 0.3217249 0.3228544 0.324069 0.3249621 0.3255104 0.3258806 0.3259531
 0.3251999 0.3233074 0.320993 0.3198279 0.320843 0.3234467 0.3260688 0.3277152 0.3285139 0.3289812
 0.3293456 0.3294829 0.3289025 0.3269082 0.3235443 0.3204285 0.3197738 0.3222113 0.3260841 0.329052
 0.3298801 0.3286969 0.3264016 0.3242446 0.3233866 0.3242699 0.3264306 0.3289724 0.3311068 0.3323732
 0.3326727 0.33222 0.3314492 0.3308977 0.3308732 0.3309946 0.3304264 0.3289649 0.3274329 0.3264117
 0.3251701 0.3228574 0.3203992 0.3199244 0.3221319 0.3252814 0.327211 0.3275495 0.3273304 0.3269084
 0.3251056 0.3207639 0.314885 0.3106051 0.3105094 0.3140491 0.318082 0.3199509 0.3195772 0.3185764
 0.317966 0.3170871 0.3146011 0.3104091 0.3063917 0.3047583 0.3056175 0.3068697 0.3065478 0.3042044
 0.2999068 0.293745 0.2874394 0.2846858 0.287881 0.2951248 0.3018874 0.3049206 0.3032945 0.2970513
 0.2874891 0.2785224 0.2749367 0.2779889 0.283947 0.2877056 0.2868236 0.2816495 0.273227 0.2627989
 0.2528372 0.2467615 0.2467707 0.2520886 0.2591471 0.2631745 0.2606348 0.2520255 0.2425403 0.2381689
 0.2401065 0.243986 0.2450308 0.2425489 0.2389671 0.23648 0.2358126 0.236665 0.2380613 0.239105
 0.2396717 0.2391628 0.2352223 0.2263618 0.2159249 0.210335 0.2124591 0.219271 0.2267354 0.2338467
 0.2404073 0.2441275 0.2430277 0.239312 0.2379672 0.2414309 0.2472628 0.2512762 0.2518041 0.2503802
 0.2489547 0.2475571 0.245241 0.2425881 0.241791 0.243867 0.2470185 0.2485637 0.2476332 0.2451908
 0.2422368 0.2389847 0.2353477 0.231331 0.2269979 0.2224933 0.2180442 0.2137624 0.2095961 0.2055365
 0.2015697 0.1972619 0.1918173 0.1851601 0.178844 0.175023 0.1742457 0.1751016 0.1762606 0.1774687
 0.1778736 0.1753026 0.169145 0.1629589 0.1620711 0.1684679 0.1791792 0.1894962 0.1965643 0.1997849
 0.1993778 0.1963255 0.1937158 0.1961837 0.2063054 0.2219096 0.2380474 0.2512084 0.2606635 0.2665494
 0.2685941 0.2672105 0.264689 0.264307 0.2681029 0.2755378 0.2839114 0.2895915 0.2895881 0.2840458
 0.277968 0.2781956 0.2865656 0.2974156 0.3038196 0.3048715 0.3046827 0.305895 0.307398 0.3079224
 0.3086075 0.3110051 0.3144546 0.3165974 0.3154785 0.3103833 0.3018295 0.2921106 0.2849434 0.2826396
 0.2837265 0.2847864 0.2840488 0.2814524 0.2764499 0.268946 0.2620966 0.2606314 0.2654288 0.272191
 0.2763492 0.2773324 0.2772273 0.2769658 0.2752184 0.2706403 0.2642584 0.25902 0.256883 0.2569392
 0.2568452 0.2553341 0.252459 0.2481707 0.2422287 0.2355969 0.2305991 0.2289378 0.2300036 0.2316264
 0.2322454 0.2319748 0.2318505 0.2326746 0.2346121 0.2373583 0.2405351 0.2442417 0.2491288 0.2554671
 0.2622925 0.2681219 0.2725428 0.2765112 0.2809801 0.2857288 0.289722 0.2922858 0.2937462 0.2950946
 0.2971565 0.2999574 0.3027421 0.304655 0.3055644 0.3062528 0.3076653 0.3099585 0.312432 0.3143612
 0.3156497 0.3166717 0.3177886 0.3191032 0.3204333 0.3214536 0.322098 0.3228503 0.3243837 0.3268266
 0.3295695 0.331848 0.3333549 0.3342463 0.334745 0.334897 0.3346649 0.3341162 0.3334481 0.3328428
 0.3323483 0.3319023 0.3314292 0.3308979 0.3303309 0.3298001 0.3294002 0.3292024 0.3292338 0.329499
 0.329986 0.3306407 0.3313732 0.3321134 0.3328394 0.3335329 0.3341336 0.3345582 0.3347438 0.3346469
 0.3342153 0.3333873 0.3321089 0.33033 0.3280093 0.3252137 0.3222883 0.3198928 0.3187366 0.3191459
 0.3208386 0.3231205 0.3253232 0.3271114 0.3284819 0.329575 0.3305115 0.3313468 0.3320968 0.3327649
 0.3333575 0.333891 0.3343864 0.3348511 0.3352745 0.3356434 0.3359553 0.3362144 0.3364192 0.3365565
 0.3366061 0.3365508 0.3363852 0.3361158 0.3357515 0.3352908 0.3347153 0.3340012 0.3331462 0.3321881
 0.3311904 0.3302031 0.3292292 0.3282257 0.3271334 0.3259018 0.3244758 0.3227817 0.3207888 0.3186083
 0.3164729 0.3145556 0.3128214 0.3110863 0.3091971 0.3071161 0.3048693 0.3024793 0.2999547 0.2973034
 0.2945326 0.2916428 0.2886282 0.2854881 0.2822429 0.2789335 0.2756017 0.2722728 0.2689609 0.2656744
 0.2623928 0.2590342 0.2554559 0.2514949 0.247017 0.2419436 0.2362603 0.2300306 0.2234072 0.2166132
 0.2098923 0.2034654 0.1975175 0.1922002 0.1876312 0.18389 0.1810207 0.1790402 0.177946 0.1777245
 0.1783534 0.1797939 0.181973 0.1847715 0.1880315 0.1915761 0.1952257 0.1988128 0.2022167 0.2054055
 0.2084314 0.2113637 0.2142231 0.2169845 0.2196259 0.2221481 0.2245439 0.2267735 0.2287868 0.2305641
 0.2321277 0.2335163 0.2347539 0.2358351 0.2367333 0.2374277 0.2379308 0.2382933 0.2385863 0.2388794
 0.2392255 0.2396504 0.2401521 0.2407175 0.241341 0.2420273 0.242778 0.2435783 0.2443969 0.2452054
 0.2460063 0.2468507 0.2478291 0.2490463 0.2505901 0.252504 0.2547696 0.2573071 0.2599882 0.2626564
 0.2651602 0.2673927 0.2693112 0.2709239 0.2722571 0.2733316 0.2741627 0.2747709 0.2751858 0.2754394
 0.2755625 0.2755846 0.2755302 0.2754088 0.2752079 0.2749007 0.2744654 0.2738997 0.273213 0.2724009
 0.2714387 0.2703053 0.2690089 0.2675971 0.2661566 0.2648046 0.2636592 0.2627981 0.2622349 0.2619226
 0.2617704 0.2616664 0.2614984 0.2611689 0.2606097 0.2597913 0.2587136 0.2573848 0.2558146 0.2540276
 0.2520738 0.2500268 0.2479713 0.2459797 0.2440854 0.2422682 0.2404554 0.2385491 0.2364851 0.234284
 0.2320357 0.2298318 0.2277181 0.2256971 0.2237496 0.2218533 0.2199984 0.2181888 0.2164301 0.2147242
 0.2130719 0.2114719 0.2099237 0.2084392 0.2070449 0.2057725 0.2046515 0.2037009 0.2029148 0.2022587
 0.2016881 0.2011651 0.2006749 0.2002434 0.1999195 0.1997134 0.1995615 0.199367 0.1990679 0.1986693
 0.198232 0.1978316 0.1975141 0.1972817 0.1971073 0.1969355 0.1966753 0.1962215 0.1954874 0.1944126
 0.1929649 0.1911566 0.1890531 0.1867673 0.1844499 0.1822635 0.1803368 0.1787446 0.1775126 0.176608
 0.1759393 0.1754096 0.1749875 0.1747204 0.1746835 0.1748869 0.1752039 0.1754271 0.1754569 0.175415
 0.1755373 0.1759757 0.176713 0.1776092 0.1784976 0.1792634 0.1798594 0.1802731 0.1805123 0.1806159
 0.1806258 0.1805445 0.1803478 0.1800209 0.1795637 0.1789918 0.1783397 0.1776316 0.1768578 0.1760055
 0.1750802 0.1740817 0.1729979 0.1718205 0.1705231 0.1690634 0.1674834 0.1659907 0.1648826 0.1643842
 0.1645337 0.1651684 0.1660406 0.1669801 0.1679124 0.1687369 0.1693362 0.1697732 0.1703771 0.1715236
 0.1733152 0.175474 0.1775367 0.1791518 0.1801942 0.1806629 0.180594 0.1800609 0.179127 0.1777926
 0.1760716 0.1740647 0.1718904 0.1696448 0.1674584 0.1654634 0.1637149 0.1622302 0.1610199 0.1600848
 0.1594816 0.1589364 0.1569214 0.1511947 0.1419782 0.1340054 0.1329424 0.139278 0.1476396 0.1525644
 0.1531428 0.1516999 0.150179 0.1490342 0.1482323 0.1478601 0.1479662 0.1484286 0.1489982 0.1494014
 0.1494884 0.1492318 0.1484929 0.1468047 0.1433602 0.1372942 0.1283308 0.1173901 0.1063972 0.0972697
 0.09098569 0.08738486 0.08555826 0.0844738 0.08356519 0.08293917 0.08305553 0.08423837 0.08648029 0.08957443
 0.09326984 0.09725592 0.1011085 0.1044141 0.1069873 0.1088883 0.110225 0.111035 0.1113523 0.1112597
 0.1108438 0.1101672 0.1092866 0.108243 0.107039 0.1056702 0.1042005 0.1028056 0.1017132 0.1010502
 0.1007504 0.1006415 0.1005993 0.1005906 0.1006224 0.1007088 0.1008585 0.1010647 0.1013252 0.1016563
 0.1020536 0.1024592 0.1028012 0.1030484 0.1032132 0.103316 0.1033428 0.1032472 0.10303 0.1027813
 0.1025519 0.1022058 0.101527 0.1004985 0.09940612 0.0986494 0.09847283 0.09882733 0.09942557 0.09994625
 0.1002384 0.1003569 0.1004179 0.100435</values></Ydata></ScSm><ScRf><Ydata ylabel="Single channel"><values byteorder="INTEL" format="FLOAT32" numvalues="1820"> 0.07054873 0.07068075 0.07079436 0.07089142 0.07097958 0.07107016 0.07117423 0.07129704 0.07143517 0.07157695
 0.07170719 0.07181714 0.07190893 0.07198843 0.0720614 0.07213978 0.07224105 0.07237245 0.07252046 0.07265847
 0.07276517 0.072843 0.07292187 0.07303193 0.07316355 0.07326493 0.07329015 0.07324724 0.07319394 0.07318625
 0.07324207 0.07336545 0.07357726 0.07386418 0.07410788 0.07415985 0.07402454 0.0738868 0.07390843 0.07406634
 0.07422565 0.07428998 0.07424147 0.07412867 0.07408484 0.07428539 0.0747887 0.07540658 0.07576337 0.07551383
 0.07457335 0.0732401 0.07212231 0.07182053 0.07249416 0.07368204 0.07464758 0.07497242 0.07478254 0.07443182
 0.07413471 0.07396108 0.07399897 0.07433973 0.07492758 0.07549942 0.07568696 0.07525828 0.07438 0.07358761
 0.0733484 0.0736995 0.07441205 0.07526879 0.07585441 0.07534815 0.07325141 0.0704885 0.06911859 0.07043418
 0.07360822 0.07655194 0.07781564 0.07735836 0.07594655 0.07447704 0.07373512 0.07412629 0.07541475 0.07695796
 0.07821543 0.07888994 0.07879209 0.07793099 0.07669269 0.07567529 0.07535549 0.07595159 0.07733646 0.07890233
 0.07980237 0.07961716 0.07866901 0.0776037 0.07691517 0.07692192 0.07779039 0.07933728 0.08104645 0.08245192
 0.0833813 0.08385108 0.08395015 0.08382223 0.08359673 0.08336987 0.08330236 0.08353764 0.08392082 0.08402992
 0.08364604 0.08305109 0.08274314 0.0829228 0.08332224 0.08353003 0.08339874 0.08296557 0.0820331 0.08026798
 0.07788321 0.07574088 0.07450968 0.07419513 0.07468969 0.07606199 0.07789639 0.07908501 0.07894363 0.07813595
 0.07795531 0.0789241 0.08046581 0.08174626 0.08248523 0.08299897 0.08370695 0.08465689 0.08540872 0.08536009
 0.08436101 0.08309339 0.08261852 0.0833523 0.08466092 0.08563864 0.08605841 0.0863447 0.08682442 0.08725378
 0.08703239 0.08584799 0.08421706 0.08330341 0.08395787 0.08587499 0.08775212 0.08827348 0.08704621 0.08481374
 0.08283396 0.08197485 0.08237794 0.08382092 0.08602871 0.08853483 0.09060313 0.09159932 0.09143053 0.09053497
 0.08940329 0.08811826 0.08652469 0.0849416 0.08435392 0.08549181 0.0878935 0.09027227 0.09170467 0.09214505
 0.09190375 0.09102064 0.08934648 0.08719186 0.085619 0.08565399 0.08711925 0.08867772 0.08925392 0.08903857
 0.08888239 0.08913259 0.08944259 0.08948426 0.08944187 0.08975257 0.09054728 0.09148088 0.09209658 0.09224629
 0.0921226 0.09198792 0.09192546 0.09179143 0.09143525 0.09103453 0.09107904 0.09185477 0.09305985 0.0941074
 0.09470306 0.0949624 0.09505576 0.0949208 0.09437233 0.09346921 0.09269011 0.0925936 0.09327519 0.09429458
 0.09514166 0.09561555 0.09577549 0.09574816 0.09564288 0.09552259 0.09541767 0.09539816 0.09556319 0.09590609
 0.09627524 0.09652406 0.0966314 0.09664476 0.09658193 0.09643561 0.096239 0.09608483 0.09606553 0.09619892
 0.09642677 0.09667627 0.09689106 0.09701766 0.09702241 0.0969345 0.0968288 0.09675714 0.09672676 0.09673938
 0.0968105 0.09693906 0.09708603 0.09720123 0.09726387 0.09728532 0.09728061 0.09725413 0.09721337 0.09718078
 0.09718512 0.09724244 0.09734025 0.09744506 0.09754054 0.09764829 0.09778529 0.09791401 0.09797229 0.09794943
 0.09790011 0.09788576 0.09792689 0.09800656 0.09809271 0.09815057 0.09815124 0.09809186 0.09801663 0.09800075
 0.09809358 0.09828323 0.09852336 0.09877148 0.09899161 0.09915537 0.0992648 0.09935191 0.09943951 0.09952017
 0.09958088 0.09963252 0.09970948 0.09984384 0.1000351 0.1002454 0.1004308 0.1005718 0.1006736 0.1007604
 0.1008706 0.1010236 0.101182 0.1012829 0.1013201 0.101358 0.1014524 0.1015855 0.1016947 0.1017472
 0.1017697 0.1018132 0.1019007 0.1020132 0.1021196 0.1022132 0.1023145 0.1024396 0.1025662 0.102642
 0.1026366 0.1025804 0.1025349 0.1025307 0.1025554 0.1025945 0.1026561 0.1027452 0.1028372 0.1028944
 0.1029051 0.1028959 0.1029008 0.1029227 0.1029317 0.1029018 0.1028402 0.1027776 0.1027386 0.1027249
 0.1027201 0.1027043 0.1026674 0.1026117 0.1025451 0.102473 0.1023962 0.1023187 0.1022592 0.1022455
 0.1022797 0.1023117 0.1022682 0.1021196 0.1019118 0.1017234 0.101597 0.1015145 0.1014272 0.1013031
 0.1011469 0.1009854 0.1008409 0.1007174 0.1006055 0.1004967 0.1003955 0.1003212 0.1002885 0.1002809
 0.100251 0.100163 0.1000285 0.09989271 0.09978903 0.09971885 0.09966721 0.09962238 0.09958401 0.09956233
 0.0995656 0.0995826 0.09958743 0.09956812 0.09954138 0.09953517 0.09956866 0.09964761 0.09975918 0.09986779
 0.09993774 0.09996995 0.1000028 0.1000701 0.1001704 0.1002833 0.1003987 0.1005218 0.1006589 0.1008105
 0.1009775 0.1011645 0.1013741 0.101601 0.101831 0.1020497 0.1022545 0.1024605 0.102691 0.1029574
 0.1032484 0.1035401 0.1038156 0.1040774 0.1043409 0.1046184 0.1049079 0.1052018 0.1054999 0.105809
 0.1061302 0.1064553 0.1067777 0.1070988 0.1074224 0.1077471 0.1080695 0.108393 0.1087312 0.1090955
 0.1094771 0.1098432 0.110164 0.1104428 0.110715 0.1110168 0.1113578 0.1117167 0.1120571 0.1123536
 0.1126151 0.112878 0.1131689 0.1134796 0.1137875 0.1140935 0.1144238 0.1147924 0.1151724 0.1155121
 0.1157819 0.1160023 0.1162209 0.1164637 0.1167148 0.1169464 0.1171568 0.1173691 0.117598 0.1178375
 0.1180815 0.1183403 0.1186218 0.1189092 0.1191728 0.1194015 0.1196081 0.1198062 0.1199912 0.1201468
 0.120265 0.1203589 0.1204587 0.1205867 0.1207365 0.1208832 0.1210167 0.1211527 0.1213105 0.1214931
 0.1216965 0.1219236 0.1221747 0.122434 0.1226852 0.1229372 0.1232169 0.1235258 0.1238228 0.1240662
 0.1242612 0.1244476 0.1246508 0.1248679 0.1250972 0.1253524 0.1256422 0.1259517 0.1262544 0.126536
 0.1268063 0.1270895 0.1273978 0.1277108 0.1279872 0.1282046 0.1283819 0.1285613 0.1287763 0.1290345
 0.1293215 0.1296138 0.1298921 0.1301432 0.1303514 0.1305009 0.1305937 0.1306563 0.1307119 0.1307485
 0.1307248 0.130605 0.1303766 0.1300374 0.1295806 0.1290038 0.1283294 0.1276163 0.1269528 0.1264329
 0.1261303 0.1260831 0.1262936 0.1267286 0.1273187 0.1279666 0.1285698 0.12904 0.1293078 0.1293262
 0.129083 0.1286069 0.1279543 0.1271898 0.1263728 0.1255479 0.1247416 0.1239836 0.1233455 0.1229533
 0.1229476 0.1234253 0.1244052 0.1258176 0.1275056 0.1292578 0.1308842 0.1322871 0.1334704 0.1344886
 0.1353951 0.1362275 0.1370118 0.1377608 0.1384732 0.1391433 0.1397726 0.1403659 0.1409201 0.1414213
 0.1418517 0.1421963 0.1424491 0.142618 0.1427213 0.1427751 0.1427909 0.1427837 0.1427675 0.1427313
 0.1426303 0.1424113 0.1420476 0.1415563 0.1410042 0.1405131 0.1402524 0.1403974 0.1410557 0.1422027
 0.1436782 0.1452596 0.1467549 0.1480494 0.149101 0.1499219 0.1505619 0.1510839 0.1515372 0.1519506
 0.1523414 0.1527201 0.1530893 0.1534468 0.1537921 0.15413 0.1544693 0.1548168 0.15517 0.1555183
 0.1558544 0.1561833 0.1565179 0.1568658 0.1572224 0.1575759 0.1579205 0.1582631 0.1586117 0.1589615
 0.1592986 0.1596173 0.159926 0.1602388 0.1605659 0.1609097 0.1612629 0.1616087 0.1619308 0.1622268
 0.1625086 0.162791 0.1630808 0.1633751 0.1636675 0.1639531 0.1642313 0.1645066 0.1647859 0.165073
 0.1653625 0.1656423 0.1659048 0.1661541 0.1664001 0.1666499 0.166904 0.1671602 0.167418 0.1676799
 0.1679487 0.1682225 0.1684939 0.168755 0.1690049 0.1692488 0.1694929 0.1697406 0.1699924 0.1702472
 0.1705032 0.1707586 0.1710128 0.1712664 0.1715213 0.1717775 0.1720327 0.1722849 0.1725345 0.1727839
 0.1730345 0.1732845 0.1735311 0.1737749 0.1740219 0.1742772 0.1745369 0.1747902 0.1750312 0.1752633
 0.1754938 0.175726 0.1759599 0.1761953 0.1764329 0.1766739 0.1769183 0.177165 0.1774125 0.1776586
 0.1779018 0.1781428 0.1783855 0.1786321 0.1788808 0.1791286 0.1793745 0.1796177 0.1798576 0.1800957
 0.1803344 0.1805738 0.1808125 0.1810499 0.1812872 0.1815253 0.1817643 0.182003 0.1822399 0.1824758
 0.1827139 0.1829545 0.183195 0.1834339 0.1836713 0.1839065 0.1841395 0.1843732 0.1846095 0.1848462
 0.1850811 0.1853155 0.1855517 0.1857895 0.1860273 0.1862639 0.1865005 0.1867401 0.1869839 0.1872284
 0.1874694 0.1877069 0.187944 0.1881839 0.1884278 0.1886729 0.1889149 0.1891526 0.189389 0.1896254
 0.1898616 0.190101 0.1903479 0.1906018 0.1908584 0.1911139 0.1913647 0.1916094 0.1918527 0.1921022
 0.1923605 0.1926254 0.1928937 0.1931607 0.1934219 0.1936775 0.19393 0.1941793 0.1944226 0.1946585
 0.1948866 0.1951068 0.1953227 0.1955396 0.1957606 0.1959867 0.1962182 0.1964542 0.1966949 0.1969424
 0.1971956 0.1974478 0.1976944 0.1979383 0.1981842 0.1984347 0.1986893 0.1989436 0.1991933 0.1994421
 0.1996986 0.1999634 0.2002302 0.2004962 0.2007618 0.2010259 0.201288 0.2015501 0.2018126 0.2020745
 0.2023379 0.202603 0.202867 0.2031317 0.2034024 0.2036779 0.2039528 0.2042266 0.2045013 0.204775
 0.205047 0.2053193 0.2055902 0.2058585 0.2061281 0.2064011 0.2066738 0.2069462 0.2072218 0.2075
 0.2077796 0.2080636 0.2083495 0.2086285 0.2089018 0.2091784 0.2094569 0.209729 0.2099943 0.2102554
 0.210512 0.210768 0.211028 0.2112826 0.2115076 0.2116491 0.2115702 0.210988 0.2094367 0.2062734
 0.200805 0.1925686 0.1816144 0.1685806 0.1545126 0.1405364 0.1275579 0.1161442 0.1065966 0.09906983
 0.09365454 0.0904521 0.08963677 0.09154198 0.09677318 0.1058479 0.1178778 0.1294308 0.1358178 0.1346447
 0.1279826 0.1204882 0.1156095 0.1138954 0.1141757 0.1152976 0.1168062 0.1188152 0.1216084 0.1252256
 0.1294194 0.1340618 0.1393847 0.1456272 0.1525739 0.1596302 0.1663232 0.1726118 0.1787126 0.1847278
 0.1904971 0.1957563 0.2003433 0.204252 0.2075784 0.2104575 0.2130121 0.2153262 0.2174568 0.2194349
 0.2212259 0.2227157 0.223779 0.2243798 0.2246158 0.2246711 0.2247151 0.224831 0.2250312 0.2253098
 0.2256622 0.2260769 0.2265418 0.2270505 0.2275919 0.2281474 0.2287021 0.2292466 0.2297724 0.2302753
 0.2307561 0.2312122 0.2316402 0.2320458 0.2324387 0.232821 0.233191 0.2335509 0.2339051 0.2342574
 0.2346111 0.2349634 0.2353039 0.2356243 0.2359241 0.2362048 0.2364708 0.2367322 0.2369967 0.237261
 0.2375175 0.2377653 0.2380086 0.2382525 0.2385004 0.2387505 0.2389971 0.2392392 0.239482 0.2397275
 0.2399728 0.2402157 0.2404549 0.2406888 0.2409211 0.2411595 0.2414058 0.241653 0.2418942 0.2421297
 0.2423662 0.2426131 0.2428754 0.2431475 0.24342 0.2436911 0.243964 0.2442395 0.2445164 0.2447938
 0.24507 0.2453437 0.245617 0.2458907 0.2461563 0.2464029 0.2466297 0.2468485 0.2470739 0.2473129
 0.2475611 0.2478089 0.2480525 0.2482955 0.248542 0.2487922 0.2490439 0.249293 0.2495389 0.2497907
 0.2500616 0.2503514 0.250646 0.2509342 0.2512167 0.2514994 0.2517873 0.2520854 0.2523911 0.2526907
 0.2529701 0.2532322 0.2534999 0.2537996 0.2541375 0.2544914 0.2548313 0.2551463 0.2554476 0.2557521
 0.2560703 0.2563993 0.2567139 0.2569838 0.2572153 0.2574626 0.2577776 0.2581593 0.258562 0.2589439
 0.2592944 0.2596244 0.2599443 0.2602531 0.2605401 0.2607972 0.261036 0.2612947 0.2616127 0.2619889
 0.2623779 0.2627372 0.2630622 0.263368 0.2636631 0.2639513 0.2642235 0.2644432 0.2645826 0.2646938
 0.2648992 0.2652774 0.2657754 0.2662625 0.2666588 0.2669848 0.2672942 0.2676043 0.2679031 0.2681639
 0.268317 0.2682851 0.2681249 0.268078 0.2683746 0.269 0.2697245 0.2703371 0.2707848 0.2711208
 0.2714099 0.2716861 0.2719333 0.2720836 0.2720886 0.2720297 0.2721093 0.2724676 0.273023 0.2735603
 0.2739552 0.2742478 0.2745257 0.2748245 0.275108 0.2752498 0.2750908 0.2746559 0.2742972 0.2744642
 0.2752698 0.2763624 0.2772751 0.2778389 0.2781883 0.2784417 0.2785274 0.2783227 0.2778089 0.2770795
 0.2763841 0.2761694 0.2767876 0.2780463 0.2792878 0.2800483 0.2804539 0.2808901 0.2814984 0.2821172
 0.2825478 0.2827327 0.2827221 0.2825563 0.2822465 0.2819131 0.2818664 0.2823861 0.2833968 0.2844877
 0.2852987 0.2858051 0.286153 0.2862405 0.2856054 0.2839726 0.2819749 0.280995 0.2819371 0.284277
 0.2866319 0.2881281 0.2888772 0.2893308 0.2896897 0.2898483 0.2893788 0.2876673 0.2847521 0.2820619
 0.2815505 0.2837704 0.2872537 0.2899354 0.2907288 0.289749 0.2877892 0.2859558 0.2852753 0.2861379
 0.288131 0.2904614 0.2924313 0.2936336 0.2939807 0.2936627 0.2930663 0.2926711 0.292748 0.2929521
 0.2925397 0.2913376 0.2900843 0.2892945 0.288312 0.2863775 0.284316 0.2840251 0.286129 0.2890793
 0.2909541 0.2914284 0.2914233 0.2912444 0.2898307 0.2861492 0.2811061 0.2775181 0.2777036 0.2811693
 0.2850971 0.2871139 0.287171 0.2867406 0.2867461 0.2865822 0.2850137 0.2819259 0.279006 0.2782321
 0.2796523 0.2813101 0.2814105 0.2795766 0.2759016 0.2704952 0.2649732 0.2627681 0.2661026 0.2732281
 0.2799716 0.2833376 0.2824497 0.2773163 0.2691383 0.2616028 0.2592263 0.2631918 0.2699685 0.2747296
 0.2751588 0.2715521 0.2648526 0.2562383 0.2481394 0.2439384 0.2458191 0.2530107 0.2619226 0.2676902
 0.2666644 0.2593428 0.2510957 0.2481179 0.2516053 0.2569693 0.2592329 0.2577101 0.2549686 0.2533279
 0.253581 0.255433 0.2578358 0.2598141 0.2612145 0.2613243 0.2574924 0.2480602 0.2367234 0.2305706
 0.2327754 0.2400428 0.2479849 0.2555376 0.2625079 0.2664026 0.2650816 0.2609898 0.2595983 0.2635626
 0.2701926 0.2748876 0.2758066 0.2746215 0.2734742 0.2724259 0.2705093 0.2684737 0.2688221 0.2726948
 0.2780796 0.2819928 0.2834702 0.2835695 0.2833676 0.2830544 0.2824863 0.2816306 0.2805255 0.2792979
 0.2781593 0.2771738 0.2762093 0.275206 0.2741041 0.272243 0.2684161 0.2624365 0.2564755 0.2535668
 0.2544225 0.2569839 0.25938 0.2612843 0.2614437 0.2566605 0.2459693 0.2343842 0.2294524 0.2339601
 0.2437119 0.2522383 0.2559101 0.2543917 0.2484528 0.2396062 0.2316302 0.2299144 0.2373129 0.2511561
 0.2656478 0.276765 0.2837887 0.2870579 0.2864243 0.2823966 0.2774275 0.2749436 0.276993 0.2828993
 0.2897779 0.2938808 0.2922288 0.2850638 0.2774731 0.2763163 0.2834272 0.293175 0.2986741 0.2989928
 0.2981551 0.2987555 0.2997367 0.2999177 0.300474 0.302958 0.3067442 0.30955 0.3094843 0.3058395
 0.2990723 0.2913552 0.2862424 0.2858596 0.2885521 0.2907789 0.2907468 0.2884536 0.2834656 0.2758783
 0.2690993 0.2680248 0.2734778 0.2809592 0.2857735 0.2874022 0.2880542 0.2886924 0.2879001 0.2842542
 0.2788503 0.2748331 0.2743149 0.2763829 0.2786052 0.2796652 0.2795707 0.2781333 0.2749776 0.2711704
 0.2693645 0.2714399 0.2764882 0.2816953 0.2849258 0.2860248 0.2859988 0.2857174 0.2854499 0.2850279
 0.284274 0.2836001 0.2840368 0.2861393 0.2890248 0.2911764 0.2921974 0.2931404 0.2950283 0.2976047
 0.299731 0.3006495 0.3006509 0.3006989 0.301557 0.3031618 0.3046871 0.305272 0.3048658 0.3043875
 0.304903 0.3066107 0.3087586 0.3105064 0.3116309 0.3124152 0.3131745 0.3139847 0.3146436 0.3148404
 0.3145686 0.3143744 0.3149499 0.3164142 0.3181716 0.3195153 0.3202065 0.3204382 0.3204336 0.3202336
 0.319811 0.3192481 0.3187369 0.3184327 0.3183471 0.3183814 0.3184295 0.3184364 0.3184015 0.3183664
 0.3183883 0.318496 0.3186731 0.318889 0.3191209 0.3193358 0.319491 0.3195803 0.3196477 0.3197251
 0.3197749 0.3197156 0.3194816 0.3190342 0.3183352 0.3173443 0.3160335 0.3143789 0.3123572 0.3100343
 0.3077287 0.3060514 0.3056514 0.3067999 0.3091736 0.3120398 0.3146728 0.3166656 0.3179637 0.3187123
 0.3190935 0.3192487 0.3192647 0.3191801 0.3190044 0.3187437 0.3184167 0.3180487 0.3176662 0.317297
 0.3169655 0.3166795 0.3164203 0.3161485 0.3158234 0.3154218 0.3149428 0.3143977 0.3137973 0.3131393
 0.3124014 0.3115525 0.3105872 0.3095503 0.308518 0.3075495 0.3066505 0.3057807 0.3048908 0.303945
 0.3028992 0.3016871 0.3002871 0.298817 0.2975015 0.2964917 0.2957292 0.2950141 0.2941793 0.2931747
 0.2920265 0.2907765 0.2894643 0.2881234 0.2867679 0.2853838 0.2839389 0.2824004 0.2807517 0.2789974
 0.2771558 0.27525 0.2733049 0.2713391 0.2693396 0.2672355 0.264897 0.2621653 0.2588938 0.2549828
 0.2504041 0.2452213 0.2395933 0.2337471 0.227922 0.2223203 0.2170942 0.2123629 0.2082351 0.2048118
 0.2021715 0.2003599 0.199396 0.1992839 0.2000122 0.2015411 0.2037952 0.2066624 0.2099932 0.2136035
 0.217289 0.220857 0.224175 0.2272081 0.2300057 0.2326319 0.2351011 0.2373749 0.2394097 0.24119
 0.2427224 0.2440154 0.2450798 0.2459413 0.2466426 0.2472294 0.2477346 0.248174 0.2485483 0.2488507
 0.2490796 0.249249 0.2493885 0.2495331 0.2497098 0.2499295 0.2501909 0.2504964 0.250863 0.2513132
 0.2518565 0.2524809 0.2531622 0.2538823 0.2546417 0.2554577 0.256355 0.2573619 0.2585104 0.2598263
 0.2613113 0.2629294 0.2646051 0.2662349 0.2677115 0.2689516 0.2699102 0.2705788 0.2709759 0.2711311
 0.2710717 0.2708242 0.2704189 0.2698853 0.2692446 0.2685155 0.2677208 0.2668766 0.2659827 0.2650317
 0.2640289 0.2629985 0.2619705 0.2609654 0.2599913 0.2590515 0.2581471 0.2572721 0.2564161 0.2555742
 0.2547494 0.2539508 0.2531913 0.2524813 0.2518135 0.2511583 0.2504725 0.249711 0.248833 0.2478105
 0.2466311 0.2452937 0.243806 0.2421829 0.2404396 0.2385858 0.2366326 0.2345967 0.2324935 0.2303282
 0.2280906 0.2257597 0.2233333 0.2208661 0.218463 0.2162193 0.2141733 0.2123093 0.2105862 0.2089635
 0.2074143 0.2059249 0.2044874 0.2031017 0.2017751 0.2005116 0.1993085 0.1981698 0.1971107 0.1961453
 0.1952846 0.1945404 0.1939154 0.1933958 0.1929628 0.1926019 0.1923099 0.1921075 0.1920322 0.1920887
 0.1922132 0.1923087 0.192314 0.192236 0.192131 0.1920557 0.1920276 0.1920298 0.1920385 0.1920189
 0.1919 0.1915817 0.1909666 0.1899774 0.1885717 0.1867677 0.184653 0.1823702 0.1800965 0.1780053
 0.1762139 0.1747684 0.1736655 0.1728571 0.1722534 0.1717743 0.1714091 0.171215 0.1712618 0.1715581
 0.1719901 0.1723618 0.1725627 0.1726893 0.1729634 0.1735422 0.1744179 0.1754527 0.1764791 0.1773865
 0.1781338 0.1787098 0.1791196 0.1793982 0.179582 0.179669 0.1796373 0.1794816 0.1792102 0.1788365
 0.1783807 0.1778485 0.1772209 0.176491 0.1756778 0.1747889 0.1738132 0.1727424 0.1715491 0.1701859
 0.1686924 0.1672859 0.1662834 0.1659271 0.1662573 0.1671005 0.1681946 0.1693624 0.1705275 0.1715881
 0.1724244 0.1730959 0.1739228 0.1752723 0.1772524 0.1796031 0.1818742 0.1837086 0.1849612 0.1856127
 0.1856955 0.1852861 0.1844388 0.183132 0.1813731 0.1792876 0.1770309 0.1747245 0.1725081 0.1705116
 0.1687825 0.1673346 0.166178 0.1653134 0.1648063 0.1643858 0.1624654 0.1566954 0.1472979 0.1392274
 0.138425 0.1454083 0.1545463 0.1601055 0.1611176 0.1599975 0.1587496 0.1578114 0.1571131 0.1567262
 0.1566988 0.1569179 0.157158 0.1571874 0.1569125 0.1563572 0.1553993 0.1535347 0.1498772 0.1434811
 0.1340386 0.1225181 0.1109539 0.1013676 0.09477362 0.09097153 0.08897863 0.0877109 0.08660453 0.08581334
 0.08584638 0.08704581 0.08939758 0.09268703 0.09665446 0.1009617 0.1051399 0.1087407 0.1115737 0.1137153
 0.1152871 0.116325 0.1168504 0.1169366 0.1166695 0.1161177 0.1153409 0.114371 0.1131906 0.1117841
 0.1102292 0.1087325 0.1075447 0.106798 0.1064249 0.1062584 0.1061865 0.1061783 0.1062213 0.1063023
 0.1064222 0.1065914 0.1068243 0.1071347 0.107504 0.1078644 0.1081446 0.1083239 0.108423 0.1084503
 0.1083681 0.1081256 0.1077464 0.1073426 0.1069659 0.1064685 0.1056224 0.1044062 0.1031183 0.1021885
 0.1018844 0.1021541 0.1026933 0.1031687 0.1034227 0.103502 0.103517 0.1034834 0.103292 0.1028328
</values></Ydata></ScRf><Data_Parameters_AB><parameter name="DPF">1</parameter><parameter name="NPT">3497</parameter><parameter name="FXV">3996</parameter><parameter name="LXV">500</parameter><parameter name="CSF">1</parameter><parameter name="MXY">0.168017253279686</parameter><parameter name="MNY">-0.0676716789603233</parameter><parameter name="DAT">18/01/2024</parameter><parameter name="TIM">11:07:34.661 (GMT+1)</parameter><parameter name="DXU">WN</parameter></Data_Parameters_AB><AB__Qtest><MainReport name="Quality Test Report"><Header><Line><Legend>Test result ok/not ok [1/0]: </Legend><Value>0</Value></Line><Line><Legend>Method file: </Legend><Value>C:\Users\Public\Documents\Bruker\OPUS_8.2.28\QT\IRBT_v3_default.QT</Value></Line></Header><Matrix><Line><Legend></Legend><Legend>min</Legend><Legend>max</Legend><Legend>measured</Legend></Line><Line><Value>Absorption (X-Range 1):</Value><Value>0.400000</Value><Value>2.000000</Value><Value>0.140333</Value></Line><Line><Value>Noise (X-Range 4):</Value><Value></Value><Value>0.000300</Value><Value>0.000033</Value></Line><Line><Value>Signal/Noise (X-Range 2):</Value><Value>200.000000</Value><Value></Value><Value>103.363995</Value></Line><Line><Value>Signal/Noise (X-Range 3):</Value><Value>40.000000</Value><Value></Value><Value>73.346771</Value></Line><Line><Value>Water vapour (X-Range 5):</Value><Value></Value><Value>0.000300</Value><Value>0.000013</Value></Line><Line><Value>Signal/Water (X-Range 2):</Value><Value>100.000000</Value><Value></Value><Value>267.502489</Value></Line><Line><Value>Signal/Water (X-Range 3):</Value><Value>20.000000</Value><Value></Value><Value>189.818938</Value></Line><Line><Value>Fringes (X-Range 6):</Value><Value></Value><Value>0.000100</Value><Value>0.000017</Value></Line></Matrix></MainReport></AB__Qtest><Data_Parameters_ScSm><parameter name="DPF">1</parameter><parameter name="NPT">1814</parameter><parameter name="FXV">3996.63438082617</parameter><parameter name="LXV">499.579297603271</parameter><parameter name="CSF">1</parameter><parameter name="MXY">0.33660614490509</parameter><parameter name="MNY">0.0807640254497528</parameter><parameter name="DAT">18/01/2024</parameter><parameter name="TIM">11:07:34.661 (GMT+1)</parameter><parameter name="DXU">WN</parameter></Data_Parameters_ScSm><Data_Parameters_ScRf><parameter name="DPF">1</parameter><parameter name="NPT">1820</parameter><parameter name="FXV">4004.34989121387</parameter><parameter name="LXV">495.721542409425</parameter><parameter name="CSF">1</parameter><parameter name="MXY">0.320438176393509</parameter><parameter name="MNY">0.0691185891628265</parameter><parameter name="DAT">18/01/2024</parameter><parameter name="TIM">11:07:09.273 (GMT+1)</parameter><parameter name="DXU">WN</parameter></Data_Parameters_ScRf><Optic_Parameters_Rf><parameter name="APR">0</parameter><parameter name="APT">Open</parameter><parameter name="BMS">KBr</parameter><parameter name="DTC">RT-DLaTGS_IR-Biotyper [Microplate reader]</parameter><parameter name="HPF">0</parameter><parameter name="LPF">10.0</parameter><parameter name="LPV">4000</parameter><parameter name="PGR">0</parameter><parameter name="RCH">Module port</parameter><parameter name="RDX">0</parameter><parameter name="SRC">MIR</parameter><parameter name="VEL">10.0</parameter><parameter name="SON">Off</parameter></Optic_Parameters_Rf><Acquisition_Parameters_Rf><parameter name="ADT">1</parameter><parameter name="AQM">DD</parameter><parameter name="CFE">0</parameter><parameter name="COR">0</parameter><parameter name="DEL">0</parameter><parameter name="DLY">0</parameter><parameter name="HFW">8000</parameter><parameter name="LFW">0</parameter><parameter name="NSR">32</parameter><parameter name="PLF">AB</parameter><parameter name="RES">6</parameter><parameter name="RGN">-1</parameter><parameter name="STR">0</parameter><parameter name="TCL">MakeCompatibleScalar (0, {WSV=1.000000, ARV=0});</parameter><parameter name="TDL">37</parameter><parameter name="RPO">0</parameter></Acquisition_Parameters_Rf><FT_-_Parameters_Rf><parameter name="APF">B3</parameter><parameter name="HFQ">500</parameter><parameter name="LFQ">4000</parameter><parameter name="NLI">0</parameter><parameter name="PHR">24</parameter><parameter name="PHZ">ML</parameter><parameter name="SPZ">NO</parameter><parameter name="ZFF">1</parameter></FT_-_Parameters_Rf><Optic_Parameters_><parameter name="APR">0</parameter><parameter name="APT">Open</parameter><parameter name="BMS">KBr</parameter><parameter name="CHN">Module port</parameter><parameter name="DTC">RT-DLaTGS_IR-Biotyper [Microplate reader]</parameter><parameter name="HPF">0</parameter><parameter name="LPF">10.0</parameter><parameter name="LPV">4000</parameter><parameter name="PGN">0</parameter><parameter name="RDX">0</parameter><parameter name="SRC">MIR</parameter><parameter name="VEL">10.0</parameter><parameter name="SON">Off</parameter></Optic_Parameters_><FT_-_Parameters_><parameter name="APF">B3</parameter><parameter name="HFQ">500</parameter><parameter name="LFQ">4000</parameter><parameter name="NLI">0</parameter><parameter name="PHR">24</parameter><parameter name="PHZ">ML</parameter><parameter name="SPZ">NO</parameter><parameter name="ZFF">1</parameter></FT_-_Parameters_><Acquisition_Parameters_><parameter name="ADT">1</parameter><parameter name="AQM">DD</parameter><parameter name="CFE">0</parameter><parameter name="COR">0</parameter><parameter name="DEL">0</parameter><parameter name="DLY">0</parameter><parameter name="HFW">8000</parameter><parameter name="LFW">0</parameter><parameter name="NSS">32</parameter><parameter name="PLF">AB</parameter><parameter name="RES">6</parameter><parameter name="SOT">0</parameter><parameter name="TCL">MakeCompatibleScalar (0, {WSV=1.000000, ARV=0});</parameter><parameter name="TDL">37</parameter><parameter name="SPO">0</parameter><parameter name="SGN">-1</parameter></Acquisition_Parameters_><Instrument_Parameters_Rf><parameter name="HFL">15801.365274</parameter><parameter name="LFL">0</parameter><parameter name="LWN">15801.365274</parameter><parameter name="ABP">32157</parameter><parameter name="SSP">1</parameter><parameter name="ARG">2</parameter><parameter name="ASG">2</parameter><parameter name="ASS">32</parameter><parameter name="GFW">16</parameter><parameter name="GBW">16</parameter><parameter name="BFW">0</parameter><parameter name="BBW">0</parameter><parameter name="PKA">9303</parameter><parameter name="PKL">4987</parameter><parameter name="PRA">9272</parameter><parameter name="PRL">5010</parameter><parameter name="P2A">1</parameter><parameter name="P2L">1</parameter><parameter name="P2R">1</parameter><parameter name="P2K">1</parameter><parameter name="DAQ">0</parameter><parameter name="AG2">1</parameter><parameter name="SSM">1</parameter><parameter name="RSN">46530</parameter><parameter name="CRR">0</parameter><parameter name="SRT">1705576029.273</parameter><parameter name="DUR">19.6469879150391</parameter><parameter name="TSC">32</parameter><parameter name="MVD">0.415456742048264</parameter><parameter name="AN1">0.226033417861926</parameter><parameter name="AN2">0</parameter><parameter name="VSN">2.485 Apr  4 2017</parameter><parameter name="SRN">0085</parameter><parameter name="CAM">0</parameter><parameter name="INS">IR-Biotyper</parameter><parameter name="FOC">69</parameter><parameter name="RDY">1</parameter><parameter name="ARS">32</parameter></Instrument_Parameters_Rf><Sample_Parameters_><parameter name="BLD"></parameter><parameter name="CNM">Admin</parameter><parameter name="CPY"></parameter><parameter name="DPM"></parameter><parameter name="EXP">IRBT_v3_32Scans.XPM</parameter><parameter name="LCT"></parameter><parameter name="SFM">Microplate, HTS-XT</parameter><parameter name="SNM">240118-1045-Cdiff_SCFA_2_C24_232121162_F2_7a681947-3e22-41ca-9fe4-f4918501ae1f.0</parameter><parameter name="XPP">C:\Users\Public\Documents\Bruker\OPUS_8.2.28\XPM</parameter><parameter name="IST">OK</parameter><parameter name="CPG">1252</parameter><parameter name="UID">2ed8047b-aa3c-455c-b036-9f49814da54e</parameter></Sample_Parameters_><Instrument_Parameters_><parameter name="HFL">15801.365274</parameter><parameter name="LFL">0</parameter><parameter name="LWN">15801.365274</parameter><parameter name="ABP">32157</parameter><parameter name="SSP">1</parameter><parameter name="ASG">2</parameter><parameter name="ARG">2</parameter><parameter name="ASS">32</parameter><parameter name="GFW">16</parameter><parameter name="GBW">16</parameter><parameter name="BFW">0</parameter><parameter name="BBW">0</parameter><parameter name="PKA">9728</parameter><parameter name="PKL">4980</parameter><parameter name="PRA">9727</parameter><parameter name="PRL">5002</parameter><parameter name="P2A">1</parameter><parameter name="P2L">1</parameter><parameter name="P2R">1</parameter><parameter name="P2K">1</parameter><parameter name="DAQ">0</parameter><parameter name="AG2">1</parameter><parameter name="SSM">1</parameter><parameter name="RSN">23958</parameter><parameter name="CRR">0</parameter><parameter name="SRT">1705576054.661</parameter><parameter name="DUR">19.64599609375</parameter><parameter name="TSC">32</parameter><parameter name="MVD">0.816661655902863</parameter><parameter name="AN1">0.226021349392924</parameter><parameter name="AN2">0</parameter><parameter name="VSN">2.485 Apr  4 2017</parameter><parameter name="SRN">0085</parameter><parameter name="CAM">0</parameter><parameter name="INS">IR-Biotyper</parameter><parameter name="FOC">69</parameter><parameter name="RDY">1</parameter></Instrument_Parameters_><History/></OPUSDataFile>
