<?xml version="1.0" encoding="UTF-8" ?>
<OPUSDataFile><AB><Ydata ylabel="Absorbance Units"><values byteorder="INTEL" format="FLOAT32" numvalues="3497"> -0.06608155 -0.06608208 -0.06608562 -0.06608995 -0.06608761 -0.06607903 -0.0660604 -0.0660358 -0.06600925 -0.06598498
 -0.06596939 -0.06596287 -0.06596842 -0.0659826 -0.06600495 -0.06603102 -0.06605951 -0.06608655 -0.06611106 -0.06613094
 -0.06614543 -0.06615636 -0.06616369 -0.06617204 -0.06618164 -0.06619419 -0.06620935 -0.06622379 -0.0662372 -0.06624585
 -0.06625074 -0.06625294 -0.0662541 -0.06625865 -0.06626672 -0.06628088 -0.06629932 -0.06632127 -0.06634471 -0.06636775
 -0.06638985 -0.06640995 -0.06642926 -0.06644788 -0.06646708 -0.06648736 -0.0665082 -0.06652991 -0.0665491 -0.06656562
 -0.06657492 -0.06657679 -0.06656992 -0.06655484 -0.06653656 -0.06651601 -0.06650096 -0.06649113 -0.06649013 -0.06649611
 -0.06650666 -0.06652062 -0.06653466 -0.06654967 -0.0665656 -0.06658266 -0.06660208 -0.06662007 -0.06663514 -0.06664401
 -0.06664394 -0.06663914 -0.06662924 -0.06662315 -0.06662275 -0.06662902 -0.06664275 -0.06665441 -0.06666359 -0.06666476
 -0.06665886 -0.06665529 -0.06665532 -0.06667207 -0.06670355 -0.06675101 -0.06680937 -0.06686787 -0.06692266 -0.06696228
 -0.06698734 -0.06699315 -0.06698456 -0.06696248 -0.06693508 -0.06690616 -0.0668835 -0.06687132 -0.066871 -0.06688463
 -0.0669063 -0.06693571 -0.06696553 -0.06699487 -0.06702175 -0.06704603 -0.06706787 -0.06708699 -0.06710026 -0.06710732
 -0.06710388 -0.06709115 -0.06707036 -0.06704442 -0.06702043 -0.06700085 -0.06699312 -0.06699721 -0.06701706 -0.06704831
 -0.06709049 -0.06713447 -0.06717573 -0.06720661 -0.06722185 -0.06722437 -0.06721269 -0.06719749 -0.06718058 -0.06716642
 -0.06715589 -0.06714635 -0.0671377 -0.06713342 -0.06713409 -0.0671496 -0.06717873 -0.06722122 -0.06727138 -0.06730879
 -0.06732864 -0.06730519 -0.06724732 -0.06715444 -0.06704585 -0.0669451 -0.0668599 -0.0668063 -0.06677826 -0.06677726
 -0.06679492 -0.06682929 -0.06687108 -0.06691889 -0.06695973 -0.06699145 -0.06700427 -0.06699617 -0.06697325 -0.06693571
 -0.06690083 -0.06686907 -0.06685055 -0.06684426 -0.0668488 -0.06686335 -0.06688445 -0.06691162 -0.06694254 -0.06697566
 -0.06700743 -0.06703668 -0.0670605 -0.06707892 -0.06709205 -0.06709669 -0.06709206 -0.06707218 -0.06703271 -0.06697826
 -0.06690641 -0.06683716 -0.06677315 -0.06673145 -0.06671511 -0.06672093 -0.06674899 -0.0667816 -0.06681786 -0.06684167
 -0.0668534 -0.06684717 -0.06682479 -0.06678949 -0.0667438 -0.06669556 -0.06664638 -0.06660338 -0.06656486 -0.0665318
 -0.0665018 -0.0664722 -0.06644475 -0.06641872 -0.06639974 -0.06639023 -0.06639229 -0.06640814 -0.06643175 -0.0664632
 -0.06649165 -0.06651592 -0.0665289 -0.06653 -0.06652075 -0.06650167 -0.06648158 -0.06646086 -0.0664469 -0.06643854
 -0.0664353 -0.06643564 -0.06643512 -0.06643365 -0.06642896 -0.06642178 -0.06641231 -0.06640062 -0.06638665 -0.06637099
 -0.06635347 -0.06633623 -0.06631977 -0.06630672 -0.0662974 -0.06629591 -0.06630275 -0.0663228 -0.06635724 -0.06640233
 -0.06645817 -0.06650646 -0.06654631 -0.06656007 -0.06654957 -0.06651884 -0.06647094 -0.06642196 -0.06636954 -0.06631538
 -0.06625686 -0.06618685 -0.0661128 -0.06604034 -0.06597831 -0.06593962 -0.06591819 -0.06591723 -0.06591857 -0.06591532
 -0.06589606 -0.06585385 -0.06579608 -0.06572173 -0.06564724 -0.06557453 -0.06551264 -0.06546245 -0.06542175 -0.06539009
 -0.06535853 -0.0653268 -0.065288 -0.06524368 -0.0651961 -0.06514789 -0.0651079 -0.06507614 -0.06505861 -0.065049
 -0.06504358 -0.06503136 -0.06500047 -0.06494699 -0.06486122 -0.06475736 -0.06463731 -0.06451982 -0.06441263 -0.0643165
 -0.0642345 -0.06415247 -0.06406897 -0.06397523 -0.06387033 -0.06375827 -0.06363942 -0.06352183 -0.06340516 -0.06329118
 -0.06317792 -0.06305875 -0.06293051 -0.06278041 -0.0626085 -0.06240628 -0.06218228 -0.0619428 -0.06169892 -0.06146425
 -0.06124066 -0.06103471 -0.06083995 -0.06065615 -0.06047392 -0.06029157 -0.06009756 -0.05988986 -0.05965809 -0.05940033
 -0.0591152 -0.05880227 -0.05846823 -0.05811357 -0.05774757 -0.0573713 -0.05699752 -0.05662702 -0.05627159 -0.05592847
 -0.05559713 -0.05527209 -0.05494244 -0.05460509 -0.05425069 -0.05388038 -0.05349077 -0.05308755 -0.05267228 -0.05225334
 -0.05183603 -0.05142036 -0.05101062 -0.0505887 -0.05015228 -0.04968385 -0.04917867 -0.04865049 -0.0480993 -0.04755708
 -0.04702467 -0.04651157 -0.04601549 -0.04552118 -0.04502757 -0.04452088 -0.04400384 -0.04347678 -0.04294362 -0.04241349
 -0.04188526 -0.0413647 -0.04083935 -0.04030143 -0.03973532 -0.03912331 -0.03847554 -0.0377849 -0.03709253 -0.03641042
 -0.03576247 -0.03516053 -0.03458274 -0.03402955 -0.03346377 -0.03288218 -0.03227133 -0.03163133 -0.03097809 -0.03031295
 -0.02965513 -0.02900263 -0.02835691 -0.02771388 -0.02706134 -0.02639899 -0.02571883 -0.02502636 -0.02432589 -0.02362205
 -0.02292172 -0.02222468 -0.02153266 -0.02084508 -0.02016216 -0.01948309 -0.01880861 -0.01813328 -0.01745605 -0.01677343
 -0.01608406 -0.0153939 -0.0147034 -0.01401564 -0.01333039 -0.01263539 -0.01193026 -0.01120469 -0.01046213 -0.009713573
 -0.008962737 -0.008228387 -0.007507661 -0.006804963 -0.006113111 -0.005423679 -0.004731632 -0.004027853 -0.003313533 -0.002585171
 -0.001850538 -0.001111952 -0.0003769783 0.0003501818 0.0010717 0.001786435 0.002503033 0.003223061 0.003947355 0.004676427
 0.005402639 0.006125746 0.006844123 0.007558514 0.008275838 0.008996243 0.009724599 0.01045929 0.01119824 0.01193907
 0.01267567 0.01340697 0.01412759 0.01484097 0.0155473 0.01625386 0.01696645 0.01768745 0.01842169 0.01916031
 0.01990234 0.02063622 0.02135831 0.02206725 0.02276143 0.02345008 0.02413377 0.02482085 0.02551161 0.02620585
 0.02690301 0.02759718 0.0282886 0.02897489 0.02965781 0.03034187 0.03102803 0.03172134 0.03241974 0.03312266
 0.03382703 0.03452958 0.0352281 0.03592018 0.03660426 0.03727869 0.03794399 0.03859944 0.03924856 0.03989189
 0.04053266 0.04117166 0.04180828 0.04244264 0.0430722 0.04369684 0.04431478 0.04492615 0.04553144 0.04613111
 0.04672791 0.04732218 0.04791687 0.04851098 0.04910378 0.04969421 0.05027977 0.05086144 0.05143952 0.05201426
 0.05258691 0.0531542 0.05371455 0.05426674 0.05480888 0.05534604 0.05587891 0.0564122 0.0569472 0.0574823
 0.05801761 0.05854914 0.05907668 0.05959744 0.06011134 0.06061606 0.06111215 0.06160072 0.06208351 0.06256719
 0.06305224 0.06354407 0.06403954 0.06453665 0.06503123 0.06551778 0.06599446 0.06645762 0.06690864 0.0673463
 0.06777601 0.06819874 0.06862154 0.06904668 0.06947588 0.06991035 0.070345 0.07077952 0.07120916 0.07163368
 0.07205161 0.07246292 0.07286642 0.07326231 0.07365073 0.07403257 0.07441122 0.07478672 0.07516117 0.07553332
 0.07590154 0.0762663 0.07662693 0.07698587 0.07734507 0.07770518 0.07806765 0.07843029 0.07879303 0.07915255
 0.07950838 0.07985648 0.0801961 0.08052494 0.08084232 0.08115325 0.08145795 0.08176391 0.08207083 0.08237735
 0.08268205 0.0829754 0.08325768 0.0835239 0.08377726 0.08402275 0.08426295 0.08450514 0.08474793 0.08499344
 0.08523697 0.08547557 0.08570576 0.08592362 0.08613227 0.08633076 0.08652772 0.08672526 0.08692846 0.08713961
 0.08735219 0.08756648 0.08776714 0.08795333 0.0881145 0.08825125 0.0883688 0.08846949 0.0885706 0.08867243
 0.08878694 0.08890899 0.08903273 0.08915203 0.08925211 0.08933508 0.08939534 0.0894433 0.0894851 0.08952955
 0.08958422 0.08964951 0.0897282 0.08981466 0.08990835 0.09000274 0.09009654 0.09018627 0.09027111 0.09035407
 0.09043527 0.09052082 0.09061048 0.09070222 0.09079398 0.09087158 0.09093343 0.09096461 0.09096827 0.09094302
 0.09089641 0.09084014 0.09078054 0.09073046 0.09069055 0.09066615 0.09065427 0.09065504 0.09066451 0.09068225
 0.09070097 0.09071967 0.09072822 0.09072452 0.09070386 0.09066467 0.09061592 0.09055798 0.09050634 0.09046142
 0.09043202 0.09041693 0.09041296 0.09041795 0.09042212 0.09042422 0.09041566 0.0903977 0.09036757 0.0903298
 0.09028774 0.09024798 0.09021709 0.09019912 0.09019962 0.0902148 0.09024605 0.09028266 0.09032251 0.09035561
 0.09037901 0.09039339 0.09039774 0.09040346 0.09041119 0.09043255 0.09046762 0.0905178 0.09058239 0.09065645
 0.09074088 0.09083611 0.09094448 0.09107418 0.09122205 0.0913903 0.09156443 0.09172953 0.09186874 0.09195915
 0.09200324 0.0919895 0.09194829 0.09188635 0.09183819 0.0918171 0.09182981 0.09188284 0.09195223 0.09203698
 0.09210729 0.09216106 0.09218423 0.09217697 0.09214298 0.09208376 0.09201158 0.09192723 0.0918412 0.09175162
 0.09165949 0.0915614 0.09145087 0.0913277 0.09118715 0.09103563 0.0908763 0.09071675 0.09056426 0.09041626
 0.09027663 0.09012814 0.08996809 0.089777 0.08954972 0.0892824 0.0889727 0.08863519 0.0882705 0.08789803
 0.08751845 0.08714299 0.08677137 0.08640699 0.0860491 0.08569694 0.08534897 0.08500051 0.08465091 0.08429541
 0.08393768 0.08357956 0.08322696 0.08288732 0.08255944 0.08224725 0.08193912 0.08163134 0.08131432 0.08098272
 0.08064107 0.08028791 0.07993808 0.07959308 0.07926412 0.07895225 0.07865711 0.07837817 0.07810426 0.07783394
 0.07755089 0.07725467 0.07693341 0.07659017 0.07622605 0.07584716 0.07546549 0.07508539 0.07471839 0.07436343
 0.07402422 0.0736964 0.07337846 0.07306668 0.07275961 0.07245304 0.07214633 0.07183266 0.07151074 0.07117519
 0.07082462 0.07046208 0.07008749 0.06971005 0.06933013 0.06895426 0.06858198 0.06821263 0.06784531 0.06747562
 0.06710341 0.06672588 0.06634367 0.06595645 0.06556553 0.06517216 0.06477844 0.06438684 0.06399836 0.06361539
 0.06323431 0.06285503 0.06247096 0.0620797 0.06167912 0.06126734 0.06085104 0.06043055 0.06001423 0.05960293
 0.05919689 0.0587959 0.05839376 0.05799036 0.05758193 0.05716921 0.05675389 0.05633616 0.05591776 0.05549796
 0.05507587 0.05465163 0.05422499 0.05379649 0.05336675 0.05293549 0.05250226 0.05206848 0.0516337 0.05120309
 0.05077821 0.05036224 0.0499567 0.04955889 0.04916846 0.04878503 0.0484083 0.04804519 0.04769577 0.0473595
 0.0470341 0.0466994 0.0463531 0.04597156 0.04555896 0.04511309 0.0446443 0.04417239 0.04370468 0.04326146
 0.04284074 0.04244992 0.04207863 0.04172377 0.04137151 0.04101453 0.04064509 0.04025707 0.03985795 0.03944664
 0.03904061 0.03864242 0.03826046 0.03789617 0.03754037 0.03719265 0.03684329 0.03649379 0.03615358 0.03582593
 0.03553338 0.0352744 0.03505971 0.03487753 0.03471174 0.03454513 0.03434519 0.03410441 0.03379817 0.03344249
 0.03303542 0.03261103 0.03218424 0.03178027 0.03141388 0.03108045 0.03078381 0.0305017 0.03023116 0.02996023
 0.02968722 0.02941596 0.02914653 0.02888095 0.02861859 0.02835296 0.02808472 0.02781267 0.0275403 0.02727862
 0.02702866 0.02680005 0.02658674 0.02638483 0.02618661 0.02598158 0.02576887 0.02554336 0.02531055 0.02507232
 0.02483099 0.02458957 0.02434022 0.02408303 0.0238037 0.02350003 0.023164 0.02279395 0.02240016 0.0219834
 0.02157029 0.02116219 0.02078417 0.02043443 0.02011845 0.01983065 0.01955675 0.01929121 0.01901455 0.018726
 0.01841456 0.0180859 0.01774058 0.01738776 0.01703398 0.01668576 0.01634875 0.01602297 0.01571046 0.01540597
 0.01510908 0.01481336 0.0145177 0.01421899 0.01391654 0.01361415 0.01331204 0.0130181 0.01273215 0.01245566
 0.01218663 0.01191472 0.01163909 0.01134961 0.01105112 0.01074827 0.01044818 0.01016555 0.00989949 0.009657167
 0.009427854 0.009206007 0.008983191 0.008751594 0.008515304 0.008272937 0.008034245 0.007801862 0.00757864 0.007365834
 0.007160011 0.006960733 0.006769121 0.006585287 0.00641915 0.006271173 0.006150799 0.006056416 0.005985115 0.005932862
 0.005884528 0.005837468 0.005776913 0.005705864 0.005621206 0.005530245 0.00543937 0.005355125 0.005284354 0.00523081
 0.005197765 0.005188215 0.005203508 0.005246923 0.005319618 0.005422582 0.005556352 0.005719199 0.005910949 0.006131148
 0.006379783 0.006660474 0.006973623 0.007324938 0.007714985 0.008149669 0.008629746 0.009161047 0.009743779 0.01038226
 0.01107384 0.01181762 0.01260722 0.0134361 0.01429706 0.01518251 0.01608847 0.01701059 0.01794861 0.01890181
 0.01986927 0.02085118 0.02184384 0.02284684 0.02385652 0.02487259 0.02589165 0.02691352 0.0279281 0.02893372
 0.02990707 0.03084481 0.03171591 0.03251719 0.0332214 0.03382641 0.03431368 0.03468289 0.03492288 0.03504152
 0.03503697 0.0349365 0.03475178 0.03453282 0.03430272 0.0341193 0.03400725 0.03400765 0.03413704 0.03440589
 0.03482061 0.03536511 0.03603972 0.03681352 0.03768481 0.03861708 0.03960847 0.04062552 0.04166758 0.04271326
 0.04376349 0.04481051 0.0458548 0.04689477 0.04792766 0.04894916 0.0499542 0.05093496 0.05188923 0.05281164
 0.05370548 0.05457519 0.05540892 0.05621914 0.0569265 0.05753486 0.05786668 0.05790261 0.05744534 0.05646647
 0.05491852 0.05279535 0.0502895 0.04742067 0.04451559 0.04158882 0.03890169 0.03643989 0.03429495 0.03243327
 0.03082011 0.02942577 0.02818454 0.02707935 0.026066 0.02513342 0.02426025 0.02343641 0.02265104 0.02189852
 0.02117314 0.02047813 0.01981181 0.01918572 0.01860078 0.01807099 0.01759789 0.01719107 0.01685126 0.01658035
 0.01637806 0.01624022 0.01616597 0.01614832 0.01618563 0.01626991 0.01639556 0.01654881 0.01671455 0.01686512
 0.01697661 0.01701044 0.01694803 0.01675656 0.01644281 0.01599439 0.01544849 0.01481118 0.01413449 0.01343047
 0.01274763 0.01209488 0.0115104 0.01099853 0.01059094 0.01028975 0.01012407 0.01009391 0.01020779 0.01045371
 0.01076794 0.01111239 0.01131294 0.01131862 0.01090059 0.01005351 0.008634515 0.006738074 0.00439528 0.001776154
 -0.0009750098 -0.003706582 -0.006283324 -0.008650031 -0.01074295 -0.01259707 -0.01420499 -0.01563011 -0.0168823 -0.01800727
 -0.01901131 -0.01991945 -0.02073356 -0.0214734 -0.02214012 -0.02275399 -0.02331617 -0.0238444 -0.02433948 -0.02481411
 -0.02526844 -0.02570946 -0.02613654 -0.02655176 -0.02695431 -0.02734379 -0.02772024 -0.02808322 -0.02843391 -0.02877253
 -0.02910133 -0.02942084 -0.02973431 -0.03004243 -0.0303489 -0.03065468 -0.030961 -0.03126847 -0.03157369 -0.03187655
 -0.03217085 -0.03245638 -0.03272913 -0.03298972 -0.03324065 -0.03348314 -0.03372396 -0.03396299 -0.03420413 -0.03444503
 -0.03468309 -0.03491649 -0.03514082 -0.035358 -0.03556766 -0.03577352 -0.0359783 -0.03618246 -0.03638743 -0.03659027
 -0.03679046 -0.03698551 -0.03717469 -0.03735789 -0.0375349 -0.0377068 -0.0378736 -0.03803743 -0.03819842 -0.03835942
 -0.0385204 -0.03868247 -0.03884506 -0.03900616 -0.03916533 -0.03932007 -0.0394708 -0.03961718 -0.03975955 -0.03989851
 -0.04003336 -0.04016373 -0.04028879 -0.04040739 -0.04052107 -0.04062967 -0.04073692 -0.04084402 -0.04095305 -0.04106528
 -0.04117713 -0.04128858 -0.04139373 -0.04149203 -0.04158298 -0.04166682 -0.04175073 -0.04183521 -0.04192788 -0.04202814
 -0.04213764 -0.04225511 -0.04237784 -0.04250492 -0.04263344 -0.04276267 -0.0428905 -0.04301644 -0.04313896 -0.0432591
 -0.0433768 -0.04349396 -0.04361154 -0.04373022 -0.04385064 -0.04397172 -0.04409323 -0.04421506 -0.044337 -0.04446096
 -0.04458708 -0.04471691 -0.04485044 -0.04498676 -0.04512567 -0.04526496 -0.04540457 -0.04554293 -0.04568043 -0.04581745
 -0.04595433 -0.046092 -0.04623032 -0.04636971 -0.04650917 -0.0466482 -0.04678499 -0.04691822 -0.04704657 -0.04716884
 -0.04728544 -0.04739596 -0.04750247 -0.04760524 -0.04770642 -0.04780634 -0.04790624 -0.0480062 -0.04810845 -0.04821315
 -0.04832303 -0.04843798 -0.04855838 -0.04868355 -0.04881041 -0.04893824 -0.04906315 -0.04918512 -0.04930225 -0.04941508
 -0.04952342 -0.04962829 -0.04973029 -0.04983135 -0.04993287 -0.05003641 -0.05014326 -0.05025322 -0.0503667 -0.05048228
 -0.05059983 -0.05071773 -0.05083583 -0.05095249 -0.05106757 -0.05118002 -0.05128981 -0.0513973 -0.05150257 -0.05160663
 -0.05170933 -0.05181052 -0.05190994 -0.05200642 -0.05210052 -0.0521926 -0.052284 -0.05237696 -0.05247192 -0.05257066
 -0.05267135 -0.05277361 -0.05287463 -0.05297276 -0.05306729 -0.05315718 -0.05324467 -0.05332994 -0.05341563 -0.05350235
 -0.05358986 -0.0536783 -0.05376508 -0.05385006 -0.0539308 -0.05400738 -0.05407942 -0.05414738 -0.05421314 -0.05427734
 -0.05434305 -0.05441051 -0.05448213 -0.05455668 -0.05463368 -0.05471094 -0.05478588 -0.05485759 -0.054924 -0.05498714
 -0.05504714 -0.05510711 -0.05516827 -0.0552318 -0.05529841 -0.05536688 -0.05543728 -0.05550718 -0.0555764 -0.05564298
 -0.05570685 -0.05576693 -0.0558233 -0.05587597 -0.05592528 -0.05597277 -0.05601893 -0.0560662 -0.05611485 -0.05616695
 -0.05622195 -0.05628001 -0.05634029 -0.05640187 -0.05646443 -0.0565275 -0.05659083 -0.05665435 -0.05671725 -0.05677927
 -0.0568397 -0.05689823 -0.05695514 -0.05701043 -0.05706466 -0.05711793 -0.05716943 -0.05721911 -0.05726565 -0.05730915
 -0.05735035 -0.05738963 -0.05742963 -0.05747043 -0.05751402 -0.05755967 -0.05760683 -0.0576547 -0.05770166 -0.05774767
 -0.05779187 -0.05783506 -0.05787753 -0.05792003 -0.0579631 -0.05800695 -0.05805183 -0.0580975 -0.05814404 -0.05819081
 -0.0582378 -0.05828383 -0.05832882 -0.05837138 -0.05841143 -0.05844843 -0.05848249 -0.05851458 -0.05854502 -0.05857619
 -0.05860831 -0.05864364 -0.05868158 -0.0587222 -0.05876419 -0.05880547 -0.05884514 -0.05888112 -0.05891402 -0.05894352
 -0.05897087 -0.05899674 -0.05902157 -0.05904568 -0.05906897 -0.0590913 -0.05911373 -0.05913637 -0.05916043 -0.05918615
 -0.05921227 -0.05923876 -0.05926304 -0.05928515 -0.05930442 -0.05932122 -0.05933737 -0.05935303 -0.05936969 -0.05938732
 -0.05940629 -0.05942726 -0.05945128 -0.05947937 -0.05951347 -0.05955298 -0.05959881 -0.05964765 -0.05969832 -0.05974709
 -0.05979211 -0.0598322 -0.05986628 -0.05989674 -0.05992355 -0.05995066 -0.05997851 -0.06000922 -0.06004296 -0.06007791
 -0.06011378 -0.06014622 -0.06017509 -0.06019706 -0.06021294 -0.06022353 -0.06023052 -0.06023826 -0.06024815 -0.06026494
 -0.06028775 -0.06031813 -0.06035265 -0.06038927 -0.06042496 -0.06045708 -0.0604858 -0.06051034 -0.06053261 -0.06055303
 -0.06057251 -0.06059124 -0.06060996 -0.06062859 -0.06064983 -0.06067385 -0.06070281 -0.06073656 -0.06077328 -0.06081242
 -0.06084952 -0.06088471 -0.06091579 -0.06094418 -0.06097225 -0.06100127 -0.06103499 -0.06107249 -0.06111493 -0.06115883
 -0.0612021 -0.06124099 -0.06127246 -0.06129597 -0.0613099 -0.06131791 -0.06132028 -0.06132194 -0.06132374 -0.06132892
 -0.06133798 -0.06135162 -0.0613699 -0.06139159 -0.06141648 -0.06144154 -0.06146649 -0.06148796 -0.06150612 -0.06151955
 -0.06152909 -0.06153585 -0.06154098 -0.06154694 -0.06155431 -0.06156496 -0.06157841 -0.06159521 -0.06161378 -0.0616335
 -0.06165275 -0.06167063 -0.06168673 -0.06170062 -0.06171307 -0.06172425 -0.0617341 -0.06174272 -0.06174868 -0.06175189
 -0.06175151 -0.06174765 -0.06174201 -0.06173504 -0.0617305 -0.06172863 -0.06173262 -0.06174208 -0.06175788 -0.06177903
 -0.06180447 -0.06183263 -0.06186138 -0.06188915 -0.06191383 -0.06193472 -0.0619506 -0.06196224 -0.06196942 -0.06197406
 -0.06197644 -0.06197903 -0.06198227 -0.06198806 -0.06199673 -0.06200854 -0.06202356 -0.06203976 -0.06205697 -0.06207212
 -0.06208518 -0.0620943 -0.06209995 -0.06210281 -0.0621038 -0.06210554 -0.06210878 -0.06211611 -0.0621277 -0.06214481
 -0.06216739 -0.06219549 -0.06223002 -0.06227117 -0.06232071 -0.06237945 -0.06244825 -0.06252809 -0.06261623 -0.06271286
 -0.06281195 -0.06291296 -0.06301016 -0.06310306 -0.06318962 -0.06326982 -0.06334408 -0.06341242 -0.06347511 -0.06353187
 -0.06358173 -0.06362442 -0.06365919 -0.06368489 -0.06370032 -0.06370123 -0.06368263 -0.06363858 -0.06355947 -0.06345047
 -0.06330652 -0.06315313 -0.06299754 -0.06286725 -0.0627735 -0.06272181 -0.06271727 -0.06274445 -0.06280322 -0.06286937
 -0.06294131 -0.06299869 -0.06304108 -0.06306282 -0.06306527 -0.06305586 -0.06303564 -0.06301292 -0.06298786 -0.06296535
 -0.06294465 -0.0629272 -0.06291078 -0.06289288 -0.0628723 -0.06284612 -0.06281698 -0.06278557 -0.06275453 -0.06272626
 -0.06269746 -0.06266814 -0.06263269 -0.06258934 -0.06253903 -0.062481 -0.06242365 -0.06236747 -0.06231988 -0.06228095
 -0.06225032 -0.06222732 -0.06220653 -0.06218788 -0.06216772 -0.0621474 -0.06212877 -0.06211304 -0.06210395 -0.06210054
 -0.06210358 -0.06211054 -0.06211922 -0.06212826 -0.06213582 -0.06214265 -0.06214853 -0.06215473 -0.06216186 -0.06216928
 -0.06217717 -0.06218341 -0.06218769 -0.06218912 -0.06218753 -0.06218503 -0.06218176 -0.06218089 -0.06218236 -0.06218717
 -0.06219494 -0.06220445 -0.06221548 -0.06222669 -0.06223826 -0.06224998 -0.06226202 -0.06227461 -0.06228766 -0.06230121
 -0.06231508 -0.06232924 -0.06234327 -0.06235695 -0.06236997 -0.06238211 -0.0623937 -0.0624048 -0.06241558 -0.06242621
 -0.06243534 -0.06244291 -0.06244764 -0.06244954 -0.06244922 -0.06244688 -0.06244453 -0.06244211 -0.06244028 -0.06243888
 -0.06243759 -0.06243668 -0.06243639 -0.06243736 -0.06244073 -0.0624464 -0.06245508 -0.06246529 -0.06247632 -0.06248682
 -0.06249578 -0.06250332 -0.06250909 -0.06251437 -0.0625195 -0.06252462 -0.06252991 -0.06253411 -0.06253711 -0.0625383
 -0.06253769 -0.06253666 -0.06253532 -0.06253555 -0.06253727 -0.06254109 -0.0625467 -0.06255346 -0.06256107 -0.06256859
 -0.06257597 -0.06258267 -0.06258907 -0.06259547 -0.06260186 -0.06260855 -0.06261465 -0.06261968 -0.06262338 -0.06262527
 -0.06262678 -0.06262804 -0.06263091 -0.0626358 -0.06264276 -0.06265189 -0.06266216 -0.06267355 -0.06268571 -0.06269861
 -0.06271169 -0.06272492 -0.06273775 -0.06275052 -0.06276391 -0.06277852 -0.06279624 -0.06281643 -0.06283952 -0.06286337
 -0.06288601 -0.062906 -0.06292118 -0.06293271 -0.06294023 -0.06294637 -0.06295206 -0.06295844 -0.06296618 -0.06297411
 -0.0629821 -0.06298935 -0.06299564 -0.06300312 -0.06301192 -0.06302578 -0.06304462 -0.06306924 -0.06309877 -0.06312919
 -0.06315963 -0.06318489 -0.06320523 -0.06321823 -0.0632257 -0.06322891 -0.06323054 -0.06323369 -0.06324071 -0.06325445
 -0.06327538 -0.06330514 -0.06334093 -0.06338284 -0.06342546 -0.0634678 -0.06350491 -0.06353568 -0.06355923 -0.06357516
 -0.06358732 -0.06359596 -0.06360652 -0.06361906 -0.06363629 -0.06365771 -0.06368227 -0.0637093 -0.06373599 -0.06376234
 -0.06378677 -0.06381012 -0.06383292 -0.06385606 -0.06388098 -0.06390712 -0.06393488 -0.0639623 -0.06398843 -0.06401206
 -0.06403213 -0.06405002 -0.06406558 -0.06408156 -0.06409834 -0.06411786 -0.06414036 -0.06416654 -0.06419642 -0.06422941
 -0.06426525 -0.06430134 -0.06433725 -0.06436906 -0.06439706 -0.06441978 -0.06443864 -0.06445611 -0.06447344 -0.06449427
 -0.06451749 -0.06454381 -0.06457034 -0.06459492 -0.06461637 -0.06463269 -0.06464668 -0.06465838 -0.06467241 -0.06469007
 -0.06471311 -0.06474231 -0.06477558 -0.06481289 -0.06485072 -0.06488888 -0.06492451 -0.06495758 -0.06498686 -0.06501259
 -0.06503533 -0.06505551 -0.065075 -0.06509379 -0.06511296 -0.06513202 -0.06515059 -0.06516863 -0.06518561 -0.06520273
 -0.06522073 -0.06524052 -0.06526317 -0.06528755 -0.06531376 -0.06533945 -0.06536391 -0.06538633 -0.06540626 -0.06542534
 -0.06544362 -0.06546344 -0.06548492 -0.06550812 -0.06553293 -0.06555792 -0.06558309 -0.06560761 -0.06563171 -0.0656559
 -0.06567996 -0.06570382 -0.06572667 -0.06574693 -0.06576473 -0.06577915 -0.06579191 -0.06580395 -0.06581687 -0.06583215
 -0.06584926 -0.06586855 -0.06588826 -0.06590789 -0.06592688 -0.06594486 -0.06596337 -0.06598251 -0.06600375 -0.06602716
 -0.06605208 -0.06607831 -0.06610298 -0.06612596 -0.06614496 -0.06616036 -0.06617212 -0.06618115 -0.06618965 -0.06619823
 -0.06620906 -0.06622179 -0.06623717 -0.06625371 -0.0662706 -0.06628641 -0.06629992 -0.06631113 -0.0663194 -0.06632663
 -0.06633303 -0.06634083 -0.06635062 -0.06636229 -0.06637606 -0.0663897 -0.06640312 -0.06641425 -0.06642312 -0.06642985
 -0.06643464 -0.06643885 -0.06644267 -0.06644777 -0.06645389 -0.06646144 -0.06646962 -0.06647748 -0.06648375 -0.06648643
 -0.06648526 -0.06647889 -0.06646905 -0.06645591 -0.06644242 -0.06642979 -0.06641992 -0.06641385 -0.06641097 -0.06641161
 -0.0664131 -0.0664153 -0.0664153 -0.06641291 -0.06640726 -0.06639843 -0.06638766 -0.06637506 -0.06636205 -0.06634842
 -0.06633418 -0.06631894 -0.0663015 -0.06628201 -0.0662599 -0.06623617 -0.06621163 -0.06618766 -0.0661658 -0.06614639
 -0.06613036 -0.0661166 -0.06610507 -0.06609391 -0.06608261 -0.0660701 -0.06605602 -0.06604056 -0.06602359 -0.06600659
 -0.06598963 -0.06597475 -0.06596196 -0.06595154 -0.06594314 -0.06593448 -0.06592518 -0.06591225 -0.06589628 -0.06587688
 -0.06585555 -0.06583468 -0.06581551 -0.06580072 -0.06579016 -0.06578519 -0.06578338 -0.06578419 -0.0657839 -0.06578074
 -0.06577308 -0.06575955 -0.06574273 -0.06572245 -0.06570393 -0.06568779 -0.06567708 -0.06567209 -0.06567175 -0.06567589
 -0.06568128 -0.06568772 -0.06569225 -0.06569511 -0.06569551 -0.06569432 -0.06569337 -0.06569356 -0.06569751 -0.06570519
 -0.06571808 -0.06573454 -0.06575427 -0.06577387 -0.06579167 -0.06580375 -0.0658077 -0.06580286 -0.06578774 -0.06576703
 -0.06574102 -0.06571577 -0.06569219 -0.06567237 -0.06565661 -0.06564239 -0.06562958 -0.06561553 -0.06560039 -0.06558388
 -0.0655664 -0.06554949 -0.06553317 -0.06551853 -0.06550475 -0.06549094 -0.06547606 -0.0654581 -0.06543738 -0.06541308
 -0.06538712 -0.0653604 -0.06533449 -0.06531044 -0.0652883 -0.0652684 -0.06524994 -0.06523295 -0.06521585 -0.06519856
 -0.06517854 -0.06515563 -0.06512823 -0.06509642 -0.06506205 -0.06502551 -0.06499086 -0.06495824 -0.06493071 -0.06490763
 -0.06488913 -0.06487368 -0.0648587 -0.06484252 -0.06482159 -0.06479582 -0.0647633 -0.06472655 -0.06468633 -0.06464551
 -0.06460584 -0.06456756 -0.06453133 -0.0644956 -0.06446017 -0.06442406 -0.06438707 -0.06434961 -0.0643117 -0.06427381
 -0.06423596 -0.06419793 -0.06415976 -0.06412162 -0.0640836 -0.06404649 -0.06400985 -0.06397323 -0.06393509 -0.06389213
 -0.06384357 -0.06378612 -0.06372227 -0.06365264 -0.06358125 -0.06351104 -0.06344391 -0.06338183 -0.06332382 -0.06327012
 -0.06321903 -0.06317034 -0.06312225 -0.06307459 -0.06302556 -0.06297505 -0.06292185 -0.06286593 -0.06280664 -0.06274397
 -0.0626775 -0.06260759 -0.06253558 -0.06246199 -0.06238936 -0.06231722 -0.06224596 -0.0621748 -0.0621024 -0.0620296
 -0.06195646 -0.0618846 -0.0618157 -0.06174865 -0.06168393 -0.06161809 -0.06155015 -0.06147797 -0.06140078 -0.06131856
 -0.06123117 -0.06113923 -0.06104267 -0.06094389 -0.06084306 -0.06074378 -0.06064599 -0.06055089 -0.06045754 -0.06036221
 -0.06026401 -0.0601579 -0.06004445 -0.0599218 -0.0597924 -0.05965875 -0.05952317 -0.0593895 -0.05925675 -0.0591262
 -0.05899376 -0.0588578 -0.05871565 -0.05856533 -0.05840948 -0.05824796 -0.05808556 -0.05792309 -0.05776186 -0.05760229
 -0.05743921 -0.05727224 -0.05709159 -0.05689699 -0.05668156 -0.05644673 -0.05619578 -0.0559304 -0.05565853 -0.05537837
 -0.05509116 -0.05479169 -0.05447328 -0.05413131 -0.05375825 -0.05335324 -0.05291263 -0.0524397 -0.05193463 -0.05140217
 -0.05084382 -0.05026281 -0.04965938 -0.04903909 -0.04840095 -0.047765 -0.04713194 -0.0465344 -0.04597388 -0.04547023
 -0.04502196 -0.04462226 -0.04426827 -0.0439424 -0.0436432 -0.04335821 -0.04308492 -0.04281384 -0.04253868 -0.04224603
 -0.04193204 -0.04158564 -0.04121283 -0.04081378 -0.04039643 -0.03996699 -0.03952104 -0.03905994 -0.03857198 -0.03805421
 -0.03750247 -0.03691537 -0.03629554 -0.03564364 -0.03495135 -0.03421798 -0.03341863 -0.03255322 -0.03160929 -0.0305928
 -0.02952896 -0.02842212 -0.0273033 -0.02616427 -0.02500349 -0.02380932 -0.02256176 -0.02125866 -0.01989057 -0.01845764
 -0.01696204 -0.01538753 -0.01373042 -0.01196392 -0.01007358 -0.008063999 -0.005924191 -0.003719034 -0.00145173 0.0007889821
 0.002994935 0.005109563 0.007130053 0.009045698 0.01085969 0.01259981 0.01427485 0.01594567 0.01761931 0.01935964
 0.0211488 0.02298825 0.0248344 0.02661479 0.02831656 0.0298865 0.03136374 0.03275831 0.03411102 0.03544994
 0.03678027 0.03811191 0.03943207 0.04073805 0.04202835 0.0433024 0.04456013 0.045802 0.04701877 0.04820999
 0.04937381 0.05050959 0.05161332 0.05267839 0.05366699 0.05457038 0.05533575 0.05596607 0.05643995 0.05676911
 0.05696241 0.05702987 0.05698369 0.05683636 0.05659676 0.05628696 0.05591702 0.05551431 0.05508833 0.05466582
 0.05425481 0.05387058 0.05351759 0.05319462 0.0529016 0.05264132 0.05241399 0.05224326 0.05213059 0.05210304
 0.05215716 0.05228915 0.05249025 0.05272817 0.05299654 0.05326571 0.05353124 0.05377452 0.05399003 0.05416321
 0.05429597 0.05437846 0.05443672 0.05447194 0.05454168 0.05465911 0.05489852 0.05527959 0.05585308 0.05663386
 0.05761575 0.05880091 0.06015857 0.06168707 0.06338768 0.06526212 0.067336 0.06960818 0.07208589 0.0747636
 0.07762496 0.08066668 0.08387331 0.08724315 0.09076849 0.09444356 0.09826092 0.1022104 0.1062843 0.1104678
 0.1147542 0.1191223 0.1235659 0.1280589 0.1325961 0.1371489 0.1417135 0.1462617 0.1507915 0.1552733
 0.1597057 0.1640454 0.1682898 0.1723912 0.1763512 0.1801581 0.183814 0.1873322 0.1906892 0.1938424
 0.1967504 0.1993142 0.2015378 0.2033768 0.2048785 0.2060714 0.2069772 0.2076211 0.2079911 0.2080915
 0.2078966 0.2074165 0.2065477 0.2052944 0.2034265 0.2009213 0.1976052 0.1934642 0.1886517 0.1831865
 0.1773921 0.1712739 0.1650182 0.1586235 0.1521726 0.1456859 0.1392549 0.1328996 0.1267056 0.1206528
 0.1147598 0.1089765 0.1032529 0.09760404 0.09199341 0.08656145 0.08135406 0.07647331 0.07197791 0.06779181
 0.06391878 0.06022833 0.0567039 0.05329965 0.05001123 0.04686025 0.04384692 0.04097835 0.03825091 0.03564188
 0.03315058 0.0307615 0.02847833 0.02630497 0.02423933 0.02228408 0.0204239 0.01864456 0.01692409 0.01523869
 0.01357699 0.01192369 0.01028342 0.008655067 0.007042042 0.005445207 0.003864813 0.002296145 0.0007745925 -0.0006997723
 -0.002058013 -0.003295264 -0.004389954 -0.005344511 -0.006204883 -0.006975263 -0.007707523 -0.008399834 -0.009073312 -0.009721977
 -0.01034212 -0.0109264 -0.01146222 -0.01193903 -0.01234092 -0.01265454 -0.01286322 -0.01295899 -0.01293198 -0.01278154
 -0.01250672 -0.01210229 -0.01156923 -0.01089036 -0.01006402 -0.009068948 -0.007902192 -0.006552939 -0.00501963 -0.003321409
 -0.001462981 0.0004709568 0.002464614 0.004362817 0.006154872 0.007707248 0.009034847 0.01010611 0.01094712 0.01158986
 0.01205609 0.01238025 0.01259299 0.01272251 0.01282142 0.01292325 0.01308229 0.013335 0.0136848 0.01415051
 0.01466773 0.01522828 0.01577736 0.01630358 0.01682083 0.01732842 0.01787602 0.01846543 0.01912868 0.01986322
 0.02066451 0.02152902 0.0224372 0.02339242 0.02439109 0.0254446 0.02657161 0.02778308 0.02910191 0.03053069
 0.03207734 0.03374856 0.03554428 0.03749193 0.03960112 0.041899 0.04440103 0.04709293 0.04997947 0.05301072
 0.05618036 0.05946286 0.06285496 0.06638052 0.07003968 0.07383911 0.07776595 0.08172802 0.08569926 0.08951896
 0.09316808 0.09651675 0.09954668 0.1021754 0.1043606 0.1060211 0.107104 0.1075281 0.107278 0.1063075
 0.1046664 0.1023502 0.09946327 0.09602259 0.09216364 0.08790631 0.08339605 0.07864708 0.0738112 0.0688984
 0.06406581 0.0593208 0.05478721 0.05046397 0.04639886 0.04258419 0.0390105 0.03567426 0.03256036 0.0296698
 0.0270007 0.02454626 0.02230121 0.020246 0.0183637 0.01663029 0.01502733 0.01353387 0.01213856 0.01082091
 0.009575154 0.008376675 0.007221546 0.006082193 0.004955172 0.003817339 0.002666293 0.001496622 0.0003090636 -0.0008704012
 -0.002036397 -0.003132392 -0.004152521 -0.005037363 -0.005789835 -0.00638307 -0.006833529 -0.007156984 -0.007378341 -0.007535871
 -0.007654266 -0.007769678 -0.007899142 -0.008064389 -0.008272484 -0.008531231 -0.008844351 -0.009213924 -0.009644262 -0.01013747
 -0.01069056 -0.01130485 -0.01196361 -0.01266607 -0.01338991 -0.01413416 -0.01488469 -0.01564163 -0.01640112 -0.01716238
 -0.0179211 -0.01867311 -0.01940498 -0.0201102 -0.02076931 -0.0213779 -0.0219206 -0.02239871 -0.02280729 -0.02315096
 -0.02343153 -0.02365217 -0.02381503 -0.0239209 -0.02397039 -0.02396395 -0.02390159 -0.02378451 -0.02361246 -0.02339001
 -0.0231171 -0.02280533 -0.02245545 -0.02208424 -0.02169259 -0.02129552 -0.02089348 -0.02049594 -0.02010418 -0.01972583
 -0.01936464 -0.01903053 -0.01873022 -0.01847619 -0.01827694 -0.01814504 -0.01808695 -0.01811198 -0.01821911 -0.01841241
 -0.01868052 -0.01902312 -0.01941982 -0.01986809 -0.02034269 -0.02084075 -0.02133763 -0.02183114 -0.02230388 -0.02275505
 -0.0231783 -0.02357409 -0.02394464 -0.02429064 -0.02461711 -0.02492352 -0.02521169 -0.0254788 -0.02572086 -0.02593253
 -0.02610511 -0.02623232 -0.02630464 -0.02631821 -0.02626668 -0.02615114 -0.0259698 -0.02572745 -0.02542538 -0.02506684
 -0.02465301 -0.02418402 -0.02365947 -0.02308371 -0.02245625 -0.02179495 -0.02110099 -0.02040657 -0.01971443 -0.01906365
 -0.01845767 -0.01793448 -0.01749707 -0.01717575 -0.01697008 -0.01689609 -0.01694608 -0.01711846 -0.01739743 -0.01776838
 -0.01821194 -0.0187106 -0.01924955 -0.01981674 -0.02040624 -0.02101319 -0.02163765 -0.02227902 -0.02293724 -0.02361275
 -0.02430143 -0.02500338 -0.02570838 -0.02641583 -0.02710968 -0.02778899 -0.02843783 -0.0290564 -0.0296369 -0.03018129
 -0.03069168 -0.03117044 -0.03162381 -0.03205329 -0.03246392 -0.03285625 -0.03323269 -0.03359344 -0.03393927 -0.03427053
 -0.0345873 -0.03489086 -0.03518138 -0.03546102 -0.03573024 -0.03599094 -0.03624354 -0.03648855 -0.03672621 -0.03695456
 -0.03717346 -0.03737735 -0.03756583 -0.03773231 -0.03787707 -0.03799793 -0.03809612 -0.03817493 -0.03823472 -0.038279
 -0.03830483 -0.03831013 -0.03828933 -0.03823561 -0.0381451 -0.03801187 -0.03783711 -0.03761935 -0.03736245 -0.03706808
 -0.03673631 -0.03636848 -0.03595823 -0.03550502 -0.0350019 -0.03444787 -0.03384292 -0.03318703 -0.03248955 -0.03175142
 -0.03098676 -0.03019645 -0.0293931 -0.0285764 -0.02775273 -0.02691979 -0.02607623 -0.02521774 -0.02433756 -0.02343027
 -0.02248765 -0.02150505 -0.02047613 -0.01939926 -0.01827111 -0.01709472 -0.01586931 -0.01460271 -0.01329557 -0.01195955
 -0.01059574 -0.009218395 -0.007828627 -0.006441212 -0.00505703 -0.003687565 -0.002332968 -0.0009980786 0.0003179573 0.00161737
 0.002901722 0.004177473 0.005446279 0.006714887 0.00798514 0.009262335 0.01054952 0.01185135 0.01317236 0.01451739
 0.01588988 0.01729382 0.01872738 0.02019184 0.0216801 0.02319069 0.02471808 0.02626063 0.0278194 0.02939428
 0.03098838 0.03260195 0.03422745 0.03586319 0.03748442 0.03908754 0.04063822 0.04213317 0.04354199 0.04486346
 0.04607906 0.04718996 0.04818941 0.04908055 0.04986437 0.05054375 0.05112174 0.05159875 0.05197548 0.05225291
 0.05242958 0.05251487 0.05250867 0.05243007 0.05228144 0.05208186 0.05183378 0.05154651 0.05122079 0.05085884
 0.05046099 0.05003237 0.04957393 0.0490949 0.04859532 0.04808076 0.04754963 0.04700051 0.04643271 0.04584394
 0.04523512 0.04460722 0.04395863 0.04329037 0.04259435 0.04186801 0.04109924 0.04028319 0.03941017 0.03847583
 0.03747951 0.03641864 0.03530713 0.03414478 0.03295932 0.03175227 0.03055539 0.02937001 0.02821998 0.0271054
 0.02603867 0.02501913 0.02405076 0.02313325 0.02226716 0.02145404 0.02069597 0.01999676 0.01936213 0.01879404
 0.01829796 0.01786811 0.01750504 0.01719492 0.01693417 0.01670563 0.01650524 0.01631593 0.01613481 0.01594626
 0.01574832 0.0155304 0.01529162 0.01502938 0.01474395 0.01443993 0.0141184 0.01378849 0.01345201 0.01312069
 0.01279664 0.01249121 0.01220579 0.01194832 0.01171853 0.01151991 0.01134949 0.01120764 0.01108602 0.01098294
 0.01088097 0.01077636 0.01064167 0.01047126 0.01023354 0.009922745 0.00951297 0.009000055 0.008374433 0.007634766
 0.006793559 0.005852513 0.004844268 0.003772396 0.002678026 0.00156388 0.0004636442 -0.0006232575 -0.001680343 -0.002711505
 -0.003715625 -0.004698056 -0.005665269 -0.00662081 -0.007570919 -0.008514329 -0.009452989 -0.01038156 -0.01129866 -0.01219872
 -0.01307981 -0.01393903 -0.01477556 -0.01558763 -0.01637467 -0.01713842 -0.01787876 -0.01860442 -0.01931595 -0.02002451
 -0.02072977 -0.02143515 -0.02213841 -0.02283218 -0.02351365 -0.0241717 -0.02480398 -0.02540132 -0.0259615 -0.02647846
 -0.02694938 -0.02737074 -0.02773742 -0.02804688 -0.02829002 -0.0284637 -0.02855652 -0.02856453 -0.02848084 -0.02830233
 -0.02803312 -0.02767165 -0.02723872 -0.02673482 -0.02620163 -0.02564212 -0.02511438 -0.02462236 -0.024224 -0.02392074
 -0.0237515 -0.023712 -0.0238134 -0.02404362 -0.02438861 -0.02482853 -0.0253344 -0.025883 -0.02644447 -0.02699986
 -0.02752881 -0.02802163 -0.02846903 -0.02886902 -0.02921905 -0.02952027 -0.02977246 -0.02997729 -0.03013502 -0.03024611
 -0.03031066 -0.03032808 -0.03029853 -0.03022519 -0.03011003 -0.02996921 -0.02980815 -0.02965831 -0.02952727 -0.02945247
 -0.02943949 -0.02951778 -0.0296866 -0.02995981 -0.03032645 -0.03078526 -0.03131315 -0.03189911 -0.03251198 -0.03313774
 -0.03374705 -0.03432896 -0.03486321 -0.0353438 -0.03576102 -0.03611252 -0.03639742 -0.03661526 -0.0367716 -0.0368668
 -0.03690794 -0.0368954 -0.03683456 -0.03672638 -0.03657725 -0.03638981 -0.03617441 -0.0359346 -0.03568263 -0.03541997
 -0.03515448 -0.03488409 -0.03461016 -0.03432853 -0.03403656 -0.03373221 -0.03341299 -0.03308182 -0.03273819 -0.03238903
 -0.03203521 -0.03168458 -0.03133798 -0.03100311 -0.03068045 -0.03037925 -0.03010003 -0.02985325 -0.02963882 -0.02946161
 -0.02931893 -0.02920194 -0.02910501 -0.02900694 -0.02890275 -0.02877155 -0.02861265 -0.02841549 -0.02818365 -0.02791616
 -0.02761887 -0.02729454 -0.0269505 -0.0265905 -0.02622047 -0.02584368 -0.02546023 -0.02507111 -0.02467263 -0.024264
 -0.02384632 -0.02341923 -0.02299212 -0.02256557 -0.02215272 -0.02175415 -0.02138067 -0.02103207 -0.02071375 -0.02042395
 -0.02016092 -0.01992134 -0.01969761 -0.01948693 -0.01928132 -0.01908147 -0.01888381 -0.01869398 -0.01851302 -0.01835167
 -0.01821436 -0.01811215 -0.01805064 -0.01803135 -0.01805818 -0.01811466 -0.01820105 -0.01828638 -0.01836846 -0.01841833
 -0.0184347 -0.01840807 -0.01833993 -0.01824169 -0.01811564 -0.01797942 -0.01783382 -0.01769019 -0.01754908 -0.01741676
 -0.01729419 -0.01718639 -0.01709091 -0.01700826 -0.01693218 -0.01685834 -0.01678255 -0.0167015 -0.01661403 -0.01652011
 -0.01641452 -0.01629673 -0.01615894 -0.01599931 -0.01581834 -0.01561548 -0.01539989 -0.01517202 -0.01493858 -0.0146995
 -0.01445586 -0.01420789 -0.01395748 -0.01370518 -0.01345419 -0.01320392 -0.01295461 -0.01270572 -0.01245575 -0.01220675
 -0.0119597 -0.01171829 -0.01148626 -0.01126346 -0.01105234 -0.01084589 -0.01064305 -0.01043474 -0.01021815 -0.009990835
 -0.009751351 -0.009505108 -0.009252371 -0.008998943 -0.00874511 -0.008491629 -0.008238455 -0.007985072 -0.007731835 -0.00748042
 -0.007231339 -0.006987124 -0.00674821 -0.006516573 -0.006292994 -0.006079621 -0.005876694 -0.005685729 -0.005505261 -0.005335431
 -0.005172417 -0.005014943 -0.004857866 -0.004699014 -0.004535577 -0.004365614 -0.004193134 -0.004018079 -0.003847397 -0.00368206
 -0.003521655 -0.003366163 -0.003205776 -0.003039865 -0.00285797 -0.002660037 -0.002440384 -0.002199385 -0.001934592 -0.001647937
 -0.001341697 -0.001019881 -0.0006901177 -0.0003544246 -1.909408E-05 0.0003189156 0.000659577 0.001006988 0.001364266 0.001730291
 0.00210637 0.002486392 0.002869814 0.003248333 0.003621028 0.003978877 0.004321051 0.004639744 0.004934488 0.005202582
 0.005444564 0.005666022 0.005868945 0.006067561 0.006264045 0.006474525 0.006697942 0.006941594 0.007199021 0.007464466
 0.007728374 0.007978579 0.008206122 0.008400239 0.00855577 0.008666188 0.008733244 0.008754108 0.008740409 0.008692435
 0.008630276 0.008555984 0.008492541 0.008442303 0.008422023 0.008432807 0.008476434 0.008552134 0.008649036 0.008766576
 0.008895327 0.009036714 0.009191025 0.009359648 0.009546644 0.009751247 0.009974942 0.01021406 0.01046675 0.01072449
 0.01098022 0.01122688 0.01145351 0.01167622 0.01188952 0.01214808 0.0124635 0.01288267 0.01342405 0.01404394
 0.01474262 0.01544246 0.01613859 0.01681415 0.01747036 0.01812576 0.01877931 0.01943544 0.02008678 0.02071023
 0.0212947 0.02180292 0.02222431 0.02252403 0.0226975 0.02272307 0.0226088 0.02234942 0.02196913 0.02147454
 0.02090366 0.02026848 0.01961113 0.01894267 0.01829954 0.01768847 0.01713887 0.01665454 0.01625399 0.01593876
 0.01570392 0.01554745 0.01543684 0.01536816 0.01529917 0.01522856 0.01512767 0.01500031 0.01483988 0.01465474
 0.01445618 0.01425108 0.01405591 0.01386283 0.01367628 0.01347011 0.01323122 0.01293873 0.01257601 0.01215554
 0.0116708 0.01117038 0.01065786 0.01019661 0.009793784 0.009492712 0.009296983 0.009207784 0.00922384 0.009321479
 0.009499254 0.009737219 0.01003365 0.01037285 0.01075015 0.01114532 0.01155582 0.01196636 0.01238102 0.01279927
 0.01322377 0.01365986 0.01409844 0.01453802 0.0149627 0.01536524 0.01573742 0.01607366 0.01638074 0.0166575
 0.01692092 0.01717234 0.01742887 0.01769179 0.01796872 0.0182594 0.01855842 0.01886392 0.01916069 0.0194462
 0.01970222 0.01992722 0.02010738 0.0202438 0.02033154 0.02037395 0.02037252 0.02033241 0.02025678 0.02015513
 0.02003227 0.0199008 0.01976716 0.01963824 0.01951835 0.01940441 0.01929657 0.01919114 0.01908735 0.01898717
 0.0188907 0.01880023 0.01871574 0.01863581 0.01856019 0.01848648 0.0184143 0.01834099 0.0182659 0.01818542
 0.01810027 0.01800992 0.01791573 0.01782039 0.01772152 0.01761938 0.01750707 0.01738057 0.01723465 0.01706546
 0.01687326 0.01665694 0.01641972 0.01616177 0.01588712 0.01559599 0.01529391 0.01498119 0.0146656 0.01434739
 0.01403067 0.01371407 0.01338937 0.01305399 0.01269039 0.01230142 0.0118816 0.01144519 0.01101468 0.01060656
 0.01025597 0.009959933 0.009734537 0.009551815 0.009400968 0.009252927 0.009089134 0.008907054 0.008698186 0.00848637
 0.008273887 0.008085889 0.007926811 0.007801054 0.007709706 0.007638916 0.007588483</values></Ydata></AB><ScSm><Ydata ylabel="Single channel"><values byteorder="INTEL" format="FLOAT32" numvalues="1814"> 0.08263418 0.08274493 0.08287093 0.08301777 0.08317891 0.08334082 0.08349013 0.08362147 0.08373812 0.08384372
 0.08394063 0.0840402 0.08416244 0.08431657 0.08448774 0.08464694 0.08477262 0.08486956 0.08496995 0.08510308
 0.08525485 0.0853681 0.08539521 0.0853498 0.08529946 0.08530537 0.08538112 0.08552592 0.08576529 0.08609053
 0.08636993 0.08643249 0.0862824 0.08613245 0.08616813 0.08636022 0.08655137 0.0866311 0.08658045 0.08645575
 0.08640866 0.08663967 0.08721808 0.08793266 0.08835427 0.08808191 0.08700915 0.08547175 0.08417091 0.08380862
 0.08458155 0.0859631 0.08709638 0.0874873 0.087276 0.08687292 0.08652771 0.08632149 0.08635888 0.08675106
 0.08743668 0.08810946 0.0883382 0.08784862 0.08682993 0.08590485 0.085623 0.08603232 0.08686295 0.08785746
 0.0885382 0.08796078 0.08554173 0.08233603 0.08072308 0.08221355 0.08586863 0.08927688 0.09075397 0.09024207
 0.0886182 0.08691378 0.0860412 0.0864825 0.08797437 0.08977108 0.0912397 0.09203258 0.09192921 0.09093681
 0.08950047 0.08831593 0.08793908 0.08862327 0.09022116 0.0920312 0.09307387 0.09286053 0.09176102 0.09052214
 0.08971593 0.08971219 0.0907076 0.09249521 0.09447809 0.09611149 0.09719069 0.09773472 0.09784935 0.09770235
 0.09744216 0.09717859 0.09709801 0.09736812 0.09781044 0.09793534 0.09748774 0.09679341 0.09642911 0.09662819
 0.09708212 0.09731454 0.09715346 0.09664397 0.09556364 0.09352723 0.09077048 0.08828092 0.0868357 0.0864512
 0.0870052 0.08857432 0.09068075 0.09204798 0.09187993 0.09093411 0.09070462 0.09180427 0.09357432 0.09504943
 0.09589799 0.09647857 0.09727621 0.09835486 0.09921532 0.09916081 0.09800431 0.09651773 0.09592426 0.09671838
 0.09818454 0.09927989 0.09973289 0.1000247 0.1005308 0.1009734 0.1006627 0.09923598 0.09728108 0.09613594
 0.09678908 0.09890158 0.1009794 0.1015045 0.1000153 0.09735552 0.09496398 0.09384016 0.09415227 0.09564675
 0.09800755 0.1007031 0.1028962 0.1038667 0.1035111 0.1023269 0.1008707 0.09924287 0.09727338 0.09531116
 0.09444471 0.09548801 0.09793475 0.1003562 0.1017222 0.1019793 0.1014752 0.1002636 0.09818701 0.09558096
 0.09359457 0.09334682 0.09465945 0.09608939 0.09646168 0.09597002 0.095533 0.09553318 0.09560122 0.09537823
 0.09504932 0.09507591 0.09560551 0.09628527 0.09663869 0.09650873 0.09609342 0.09566294 0.09530455 0.09487617
 0.09422457 0.09352198 0.09325957 0.09373292 0.09464622 0.09540927 0.09572078 0.09569119 0.0954897 0.09505776
 0.09421511 0.09301952 0.09194273 0.09153885 0.09190502 0.09260505 0.09313346 0.09329453 0.09315127 0.09283026
 0.09243684 0.09202883 0.09163216 0.09131427 0.09117474 0.09121162 0.09128001 0.0912356 0.0910534 0.09077924
 0.090437 0.09002522 0.08957224 0.08915824 0.0888675 0.08871938 0.08866204 0.08862821 0.08856529 0.08842409
 0.08817542 0.08784886 0.08751389 0.08721589 0.08695763 0.08673714 0.08656687 0.08644833 0.08635096 0.08623227
 0.08607404 0.08588671 0.0856819 0.08545911 0.08522232 0.08499308 0.08479954 0.08465677 0.08455318 0.08445693
 0.0843498 0.08424947 0.08417499 0.08410116 0.08398071 0.08380627 0.08361873 0.08345969 0.08333981 0.08324621
 0.0831577 0.08305136 0.0829074 0.08272186 0.08252412 0.08237191 0.08230858 0.08232843 0.08239362 0.08246732
 0.08251897 0.08252577 0.08249202 0.08244725 0.08240969 0.08236955 0.08231431 0.08225462 0.08222073 0.08223873
 0.08230627 0.0823901 0.08245459 0.08248766 0.08249629 0.08249578 0.08250991 0.08255491 0.08261194 0.08264116
 0.08263436 0.08262977 0.08266401 0.08272864 0.08278442 0.08280684 0.08280911 0.08282372 0.08286756 0.08292954
 0.08298948 0.08304135 0.08309504 0.08315935 0.08322418 0.08326297 0.08326042 0.08323492 0.08322135 0.08323412
 0.08326194 0.08329529 0.08334062 0.08340362 0.08347137 0.08352037 0.08353999 0.08354409 0.08355402 0.08357231
 0.08358081 0.08356552 0.08353319 0.08350081 0.08347756 0.08346055 0.08344187 0.0834152 0.08337795 0.08332871
 0.08326548 0.08318838 0.08310191 0.08301362 0.08293447 0.08287741 0.08284475 0.08281471 0.08275191 0.08263896
 0.08249316 0.08234996 0.08223298 0.08213975 0.08205181 0.08195513 0.08185174 0.08175403 0.08167137 0.08160499
 0.08155143 0.08150756 0.08147529 0.08146482 0.08148782 0.08154061 0.08159871 0.08163773 0.08165888 0.08168544
 0.08173633 0.08181091 0.08189805 0.08199012 0.08208728 0.08219463 0.08231489 0.082441 0.08256032 0.08266939
 0.08277965 0.08290599 0.08305621 0.08323092 0.08342248 0.08361301 0.08378623 0.08394636 0.08411572 0.08431001
 0.08452327 0.08474039 0.08495654 0.08518006 0.08542134 0.08568437 0.08596694 0.08626603 0.08658096 0.08691099
 0.08725044 0.08758962 0.08792388 0.08826101 0.08861572 0.08899595 0.08939587 0.08980168 0.09020295 0.09059928
 0.0909984 0.09140737 0.09182572 0.09224968 0.09268144 0.09312814 0.09359039 0.09405816 0.09452182 0.09498187
 0.09544428 0.09591118 0.09637992 0.09684916 0.0973217 0.09780133 0.09828684 0.09876934 0.09923831 0.0996923
 0.1001412 0.1005973 0.1010661 0.1015432 0.1020167 0.1024739 0.1029121 0.1033432 0.1037817 0.1042272
 0.1046658 0.1050905 0.1055109 0.1059404 0.1063775 0.1068065 0.1072169 0.107614 0.1080098 0.1084044
 0.1087851 0.109142 0.1094808 0.1098176 0.1101623 0.1105127 0.1108645 0.1112209 0.1115864 0.1119543
 0.1123093 0.1126435 0.1129623 0.1132746 0.1135827 0.1138853 0.1141823 0.1144765 0.1147715 0.1150668
 0.1153562 0.1156365 0.1159196 0.1162259 0.1165633 0.1169211 0.1172892 0.1176718 0.1180733 0.1184824
 0.1188841 0.119283 0.1196982 0.1201328 0.1205609 0.1209543 0.12131 0.1216449 0.1219734 0.122304
 0.1226494 0.1230242 0.1234293 0.1238483 0.1242583 0.124642 0.1249963 0.1253352 0.1256757 0.126015
 0.1263282 0.1265946 0.126821 0.1270353 0.12726 0.1274955 0.1277246 0.127926 0.1280847 0.1281871
 0.1282137 0.1281445 0.1279757 0.1277227 0.1273993 0.1269972 0.1264943 0.1258773 0.1251462 0.1242999
 0.1233296 0.1222331 0.1210384 0.1198136 0.1186597 0.1176871 0.1169886 0.1166213 0.116603 0.1169109
 0.1174741 0.11817 0.1188398 0.1193221 0.1194907 0.1192815 0.1187015 0.1178155 0.1167166 0.1154947
 0.1142204 0.1129421 0.1116942 0.1105183 0.109489 0.1087149 0.1083062 0.1083521 0.1089443 0.1101953
 0.1121703 0.1147618 0.1176527 0.1204514 0.1228884 0.1249018 0.1265723 0.1280135 0.1293111 0.1305133
 0.1316395 0.1326939 0.1336754 0.1345777 0.1353849 0.1360734 0.1366196 0.1370068 0.1372334 0.1373221
 0.1373218 0.1373013 0.137336 0.1374879 0.137772 0.1381332 0.1384595 0.1386327 0.1385759 0.1382695
 0.1377505 0.1371372 0.136685 0.1367931 0.1378616 0.1400395 0.1430755 0.1464364 0.1496025 0.1522844
 0.1544335 0.156131 0.1574916 0.1586169 0.1595819 0.1604364 0.161215 0.1619429 0.1626357 0.1633007
 0.1639424 0.1645652 0.1651755 0.1657798 0.1663799 0.1669731 0.1675573 0.1681353 0.1687131 0.1692932
 0.1698718 0.1704413 0.1709965 0.1715406 0.1720802 0.1726159 0.1731404 0.1736479 0.174142 0.1746332
 0.1751307 0.1756368 0.1761439 0.1766379 0.1771077 0.1775534 0.1779844 0.1784098 0.1788317 0.1792476
 0.179656 0.1800583 0.1804572 0.1808546 0.1812509 0.181644 0.1820301 0.182406 0.1827728 0.1831384
 0.1835125 0.1838982 0.1842889 0.1846751 0.1850548 0.1854367 0.1858314 0.1862405 0.1866533 0.1870575
 0.1874492 0.1878329 0.1882156 0.1886014 0.188992 0.1893877 0.189787 0.1901856 0.1905783 0.1909621
 0.1913392 0.1917144 0.1920899 0.1924645 0.1928383 0.1932133 0.1935907 0.1939703 0.194352 0.1947357
 0.1951205 0.1955037 0.1958823 0.1962542 0.1966186 0.1969769 0.1973314 0.1976849 0.19804 0.1983987
 0.1987614 0.199127 0.1994933 0.1998583 0.2002221 0.2005854 0.2009472 0.2013044 0.2016565 0.2020071
 0.2023598 0.2027136 0.203065 0.203411 0.203751 0.204087 0.2044219 0.2047575 0.2050938 0.2054301
 0.2057647 0.2060957 0.206423 0.206749 0.2070762 0.2074051 0.2077341 0.2080599 0.2083813 0.208701
 0.2090227 0.2093469 0.2096716 0.209995 0.2103162 0.2106354 0.2109538 0.2112724 0.2115906 0.211908
 0.2122257 0.2125435 0.2128604 0.2131779 0.2134986 0.2138207 0.2141395 0.2144528 0.2147622 0.2150715
 0.215384 0.2156999 0.2160172 0.2163342 0.2166509 0.2169666 0.2172804 0.217595 0.2179126 0.2182316
 0.2185498 0.218868 0.2191867 0.2195044 0.2198211 0.2201393 0.2204603 0.220784 0.2211091 0.2214325
 0.2217529 0.2220714 0.2223873 0.222696 0.2229973 0.2232968 0.2235976 0.2238975 0.2241943 0.2244874
 0.2247765 0.2250652 0.2253584 0.2256555 0.2259516 0.2262453 0.2265386 0.2268342 0.2271366 0.2274496
 0.2277684 0.2280851 0.2283989 0.2287132 0.2290288 0.2293479 0.2296754 0.2300104 0.2303464 0.2306804
 0.231013 0.2313452 0.2316807 0.2320225 0.2323655 0.2327021 0.2330327 0.2333607 0.2336851 0.2340067
 0.2343303 0.2346558 0.2349795 0.2353025 0.2356262 0.2359484 0.2362708 0.2365979 0.2369278 0.2372561
 0.2375841 0.2379127 0.2382379 0.2385605 0.238887 0.2392173 0.2395485 0.2398831 0.2402213 0.2405567
 0.2408892 0.2412237 0.2415565 0.2418814 0.2422006 0.2425162 0.2428263 0.2431367 0.2434521 0.243758
 0.2440237 0.2441899 0.2441034 0.2434424 0.2416724 0.2380557 0.231793 0.2223446 0.2097596 0.1947687
 0.1785768 0.1624826 0.14753 0.1343732 0.1233627 0.1146803 0.1084323 0.1047366 0.1037938 0.1059836
 0.111995 0.1224232 0.1362592 0.1495701 0.1569569 0.1556382 0.1479723 0.1393194 0.1336703 0.1316757
 0.1319905 0.1332825 0.1350241 0.1373428 0.14056 0.1447187 0.1495369 0.1548708 0.1609855 0.1681541
 0.1761326 0.1842469 0.1919589 0.1992179 0.2062646 0.2132111 0.2198712 0.2259375 0.2312193 0.2357128
 0.2395395 0.2428646 0.2458283 0.2485163 0.250984 0.2532664 0.2553308 0.2570527 0.258289 0.2589957
 0.2592808 0.2593544 0.2594125 0.2595545 0.2597963 0.2601303 0.2605492 0.2610391 0.2615839 0.262174
 0.2627965 0.263433 0.2640702 0.2647004 0.2653137 0.2659025 0.2664652 0.2669998 0.267504 0.2679822
 0.2684398 0.2688781 0.2693021 0.2697233 0.2701472 0.2705694 0.2709856 0.2713924 0.271782 0.2721494
 0.2724983 0.2728326 0.2731522 0.2734615 0.2737677 0.2740744 0.2743821 0.2746921 0.2750024 0.275308
 0.2756091 0.2759095 0.2762106 0.2765109 0.2768096 0.2771051 0.2773954 0.2776832 0.2779719 0.2782611
 0.2785515 0.2788486 0.2791559 0.2794686 0.2797769 0.2800748 0.2803661 0.2806646 0.2809827 0.2813188
 0.281664 0.2820143 0.2823695 0.282724 0.2830707 0.2834097 0.2837461 0.2840858 0.2844333 0.2847864
 0.2851319 0.2854556 0.2857564 0.2860454 0.2863366 0.2866381 0.2869487 0.2872606 0.2875703 0.2878817
 0.2881992 0.2885218 0.2888466 0.2891712 0.2894955 0.2898244 0.2901647 0.2905155 0.2908695 0.2912261
 0.2915908 0.2919643 0.2923423 0.2927236 0.2931061 0.2934793 0.2938334 0.2941747 0.2945268 0.2949126
 0.2953341 0.2957676 0.296185 0.296578 0.2969606 0.2973503 0.2977577 0.2981763 0.2985741 0.2989157
 0.2992114 0.2995264 0.2999201 0.3003883 0.3008777 0.3013427 0.3017736 0.3021837 0.3025829 0.3029674
 0.3033252 0.3036497 0.303955 0.3042817 0.3046733 0.3051311 0.3056067 0.30605 0.3064506 0.3068216
 0.3071751 0.3075219 0.3078573 0.3081384 0.308325 0.3084682 0.3087088 0.309145 0.3097236 0.310297
 0.310772 0.3111665 0.3115334 0.3118877 0.3122202 0.3125102 0.3126817 0.3126407 0.3124464 0.3123775
 0.3127056 0.3134198 0.3142538 0.3149561 0.3154576 0.3158208 0.3161269 0.3164207 0.3166828 0.316834
 0.3168209 0.3167375 0.3168128 0.3172037 0.3178186 0.3184155 0.3188551 0.319182 0.3194943 0.3198315
 0.3201525 0.3203135 0.3201303 0.319626 0.3192007 0.3193731 0.3202794 0.3215198 0.3225601 0.3232076
 0.3236173 0.3239219 0.3240342 0.323811 0.3232309 0.3224006 0.3216058 0.3213602 0.3220707 0.323516
 0.3249349 0.3257899 0.3262316 0.3267134 0.3274 0.3280977 0.32857 0.3287486 0.3286943 0.3284605
 0.3280665 0.327653 0.3275749 0.3281533 0.3293008 0.3305399 0.3314503 0.3320022 0.3323673 0.3324305
 0.3316586 0.3297313 0.3273771 0.326196 0.3272384 0.3298989 0.3325715 0.3342404 0.3350408 0.3355071
 0.3358752 0.3360157 0.335426 0.3333947 0.329965 0.3267815 0.3260991 0.3285658 0.3324972 0.3355086
 0.3363401 0.3351239 0.3327793 0.3305823 0.3297121 0.3306134 0.332809 0.3353873 0.3375499 0.3388279
 0.3391176 0.3386384 0.3378411 0.3372802 0.3372645 0.3373914 0.3367992 0.3352842 0.3336997 0.3326479
 0.3313805 0.3290191 0.3264999 0.3259943 0.3282213 0.3314129 0.3333666 0.3336989 0.3334569 0.3330028
 0.3311446 0.3267097 0.3207161 0.3163483 0.3162306 0.3198061 0.3238832 0.3257614 0.3253591 0.3243157
 0.3236635 0.3227302 0.3201538 0.3158352 0.3116898 0.3099661 0.310775 0.3119806 0.3115813 0.3091235
 0.3046808 0.2983487 0.2918717 0.2889948 0.2921435 0.2993848 0.3061245 0.3090751 0.3073019 0.3008522
 0.291038 0.2818116 0.2780021 0.2808714 0.2866449 0.2901668 0.2889763 0.283429 0.2745773 0.2636638
 0.2531648 0.2465152 0.245934 0.2506652 0.2571681 0.2607074 0.2577745 0.2488492 0.2390508 0.2342901
 0.2357572 0.2391621 0.239802 0.2369823 0.2330753 0.230229 0.2291516 0.2295523 0.2304856 0.2310814
 0.2312273 0.2303852 0.2263389 0.2176829 0.2076229 0.202313 0.2044937 0.2112382 0.2186391 0.2256994
 0.2322104 0.2359598 0.2350324 0.2315373 0.2302735 0.2336012 0.2391945 0.2430545 0.2436203 0.2424154
 0.2413319 0.2403566 0.2385005 0.2362592 0.2357163 0.2378404 0.2408822 0.2422422 0.2410879 0.2383694
 0.2350655 0.2313838 0.2272452 0.2226774 0.2177758 0.2127053 0.2076896 0.2028316 0.1980854 0.1934538
 0.1889393 0.1841563 0.1783873 0.1715754 0.1651566 0.1611159 0.1599575 0.1603685 0.1610966 0.1618908
 0.1619856 0.1594319 0.1537226 0.1481754 0.1477345 0.1542755 0.165078 0.1757374 0.1834855 0.1876316
 0.1882904 0.1863562 0.1847704 0.1879829 0.1984951 0.2142591 0.230545 0.2439804 0.2538426 0.2602258
 0.2628318 0.2620422 0.2600847 0.2601742 0.2643371 0.2720826 0.2807826 0.2868556 0.2873169 0.282274
 0.2766719 0.2773025 0.2859902 0.2970983 0.303737 0.3050188 0.3050547 0.3064783 0.308166 0.3088345
 0.3096169 0.3120679 0.3155253 0.3176136 0.3163486 0.310987 0.3020434 0.2918584 0.284242 0.2816026
 0.2825143 0.2835367 0.2828321 0.2802777 0.275299 0.2677899 0.2608846 0.2592939 0.2639141 0.2704943
 0.2744934 0.2753258 0.2750534 0.2746127 0.2727071 0.2680168 0.2615552 0.2562224 0.2539294 0.2537482
 0.2533375 0.2514395 0.2481283 0.2433948 0.2370335 0.2299928 0.2245342 0.222319 0.2227779 0.2238438
 0.2240509 0.223559 0.2234107 0.224399 0.2266751 0.2299165 0.233717 0.2381272 0.2437335 0.2507566
 0.258218 0.2646423 0.2696174 0.2740855 0.2789889 0.2841151 0.2884496 0.291337 0.2931116 0.2947645
 0.2971176 0.3001946 0.3032427 0.3054117 0.3065714 0.3074923 0.3090986 0.3115313 0.3140929 0.3160772
 0.3174083 0.3184724 0.3196328 0.3209918 0.3223703 0.3234524 0.324182 0.3250507 0.3267337 0.329355
 0.3322929 0.3347636 0.3364395 0.3374606 0.3380441 0.3382397 0.3380195 0.3374647 0.336786 0.3361705
 0.335658 0.3351751 0.3346467 0.3340558 0.3334388 0.3328725 0.3324506 0.3322451 0.3322883 0.3325911
 0.3331433 0.3338848 0.3347145 0.3355513 0.3363648 0.3371307 0.3377874 0.3382564 0.3384799 0.338412
 0.3379914 0.3371479 0.3358232 0.3339662 0.3315382 0.3286131 0.3255429 0.3229891 0.3216597 0.321885
 0.3233983 0.3255268 0.3276177 0.3293399 0.330688 0.3317996 0.3327934 0.3337212 0.3345943 0.335412
 0.3361765 0.336899 0.3375947 0.3382648 0.338891 0.3394536 0.3399502 0.3403906 0.3407758 0.3410875
 0.3412975 0.3413863 0.3413526 0.3412084 0.3409641 0.3406166 0.3401457 0.3395261 0.3387523 0.3378576
 0.3369043 0.335948 0.3350003 0.3340192 0.3329368 0.3316914 0.330225 0.3284692 0.3264008 0.3241325
 0.3218943 0.3198573 0.3179895 0.3161132 0.3140786 0.3118483 0.3094488 0.3069059 0.304229 0.301421
 0.2984807 0.2954043 0.2921891 0.2888423 0.2853893 0.2818739 0.2783406 0.2748192 0.2713262 0.267864
 0.2644005 0.260843 0.2570459 0.2528488 0.2481208 0.2427872 0.2368446 0.2303714 0.2235269 0.2165287
 0.2096149 0.2030097 0.1969064 0.1914614 0.1867913 0.1829702 0.1800333 0.1779916 0.1768494 0.1766081
 0.1772504 0.1787231 0.1809336 0.1837579 0.1870487 0.1906395 0.1943509 0.1980108 0.2014951 0.2047672
 0.2078751 0.2108889 0.213838 0.2167079 0.2194829 0.2221636 0.2247368 0.2271507 0.2293411 0.2312793
 0.2329862 0.2345048 0.2358638 0.2370584 0.2380583 0.2388377 0.2394076 0.2398234 0.2401648 0.2405096
 0.2409135 0.2414002 0.2419683 0.2426111 0.2433271 0.2441139 0.2449574 0.2458314 0.2467064 0.247565
 0.2484202 0.2493302 0.2503945 0.2517296 0.2534334 0.2555527 0.2580644 0.2608759 0.2638401 0.2667848
 0.2695511 0.2720283 0.2741727 0.2759965 0.277534 0.2788087 0.2798279 0.2806016 0.2811528 0.2815152
 0.2817296 0.2818398 0.2818778 0.2818437 0.2817061 0.2814252 0.2809817 0.2803854 0.2796513 0.2787696
 0.2777096 0.2764541 0.2750216 0.2734681 0.2718901 0.2704201 0.269192 0.2682921 0.2677358 0.2674686
 0.2673811 0.2673384 0.2672156 0.2669174 0.2663803 0.2655717 0.264484 0.2631203 0.2614911 0.2596255
 0.2575818 0.2554453 0.2533153 0.2512769 0.2493689 0.2475688 0.2457978 0.2439493 0.2419453 0.2397912
 0.2375688 0.2353692 0.2332408 0.2311879 0.2291933 0.2272393 0.2253206 0.2234436 0.2216142 0.2198357
 0.2181128 0.2164476 0.2148404 0.2133015 0.2118551 0.2105309 0.2093613 0.2083746 0.2075701 0.2069064
 0.2063231 0.2057723 0.2052399 0.2047562 0.2043743 0.2041103 0.2039054 0.2036613 0.2033106 0.2028557
 0.2023594 0.2019024 0.201537 0.2012706 0.201075 0.2008829 0.2005887 0.2000814 0.1992798 0.1981359
 0.1966313 0.1947863 0.1926621 0.1903566 0.188008 0.1857776 0.1837999 0.182153 0.1808638 0.1799041
 0.1791902 0.1786309 0.1781955 0.1779286 0.1778995 0.1781126 0.1784366 0.1786617 0.178684 0.1786224
 0.178716 0.1791262 0.1798406 0.1807174 0.1815872 0.1823376 0.1829266 0.1833438 0.1835944 0.1837065
 0.183706 0.1835876 0.1833379 0.1829626 0.1824736 0.1818833 0.1812164 0.1804917 0.1796989 0.1788237
 0.1778689 0.1768307 0.175694 0.1744519 0.1730873 0.1715708 0.1699511 0.1684316 0.1672998 0.1667737
 0.1668887 0.1674856 0.1683238 0.1692376 0.1701482 0.1709454 0.1715048 0.1718882 0.172428 0.1735089
 0.1752483 0.1773828 0.1794512 0.1810866 0.1821379 0.1825861 0.1824728 0.1818945 0.1809338 0.1795912
 0.1778696 0.1758617 0.1736846 0.1714328 0.1692313 0.1672094 0.1654264 0.1639066 0.1626635 0.1616975
 0.1610691 0.1605067 0.1584677 0.1526809 0.1433581 0.1352683 0.1341339 0.1404643 0.1488518 0.1537811
 0.1543202 0.1528099 0.1512208 0.1500274 0.1492061 0.1488471 0.1489983 0.1495343 0.1501946 0.1506867
 0.1508419 0.1506247 0.1498991 0.1482034 0.1447328 0.1386191 0.129581 0.1185411 0.1074447 0.09824099
 0.09192732 0.08833559 0.08653258 0.08546773 0.08457151 0.08395462 0.0840783 0.08526574 0.0875124 0.09061994
 0.09434418 0.09836924 0.1022521 0.1055604 0.108109 0.1099828 0.1113188 0.1121617 0.1125234 0.1124553
 0.1120314 0.1113286 0.1104268 0.109372 0.1081529 0.1067556 0.1052556 0.1038469 0.1027575 0.1020977
 0.1017893 0.1016681 0.1016291 0.1016473 0.1017178 0.101833 0.1019931 0.1022023 0.1024708 0.1028116
 0.1032062 0.1035914 0.1039075 0.1041418 0.104314 0.1044343 0.1044754 0.1043899 0.1041867 0.1039564
 0.1037421 0.1034035 0.1027253 0.101692 0.1005924 0.0998328 0.09965875 0.1000133 0.1006073 0.1011317
 0.1014444 0.1015886 0.1016596 0.1016629</values></Ydata></ScSm><ScRf><Ydata ylabel="Single channel"><values byteorder="INTEL" format="FLOAT32" numvalues="1820"> 0.0705105 0.07064267 0.07076417 0.07087296 0.07097045 0.07106549 0.07117251 0.07130075 0.07144624 0.0715934
 0.07172528 0.07183523 0.07192793 0.07200971 0.07208543 0.07216636 0.07226875 0.07239795 0.07254024 0.07267264
 0.07277866 0.07286136 0.07294536 0.07305428 0.07317718 0.07326701 0.07328381 0.07323872 0.07318892 0.07318715
 0.07324709 0.07337071 0.07358055 0.07386599 0.07410927 0.07416169 0.07402875 0.07389531 0.0739205 0.0740791
 0.07423879 0.07430756 0.07426694 0.0741598 0.07411532 0.07431068 0.07480817 0.07542089 0.07577302 0.07552105
 0.07458269 0.0732546 0.07214011 0.07183737 0.07250849 0.07369575 0.07466237 0.07498792 0.07479721 0.07444376
 0.07414169 0.07396248 0.07399798 0.07434202 0.0749366 0.07551357 0.07570102 0.07526709 0.07438189 0.07358557
 0.07334796 0.07370385 0.07441898 0.07527369 0.07585646 0.07535274 0.07326507 0.07051188 0.06914453 0.07045319
 0.07361596 0.07655241 0.07781707 0.07736576 0.07595827 0.07448803 0.07374293 0.07413259 0.07542167 0.07696478
 0.07821966 0.07889053 0.07879062 0.07792954 0.07669145 0.07567323 0.07535371 0.07595466 0.07734819 0.07892071
 0.07982019 0.07962832 0.07867366 0.07760707 0.0769223 0.0769336 0.07780407 0.07935163 0.08106406 0.08247606
 0.08341083 0.08388001 0.08397198 0.08383467 0.08360305 0.08337645 0.08331372 0.08355287 0.08393598 0.08404346
 0.08365978 0.08306621 0.08275747 0.08293375 0.08332978 0.08353497 0.08339939 0.08295863 0.08201863 0.08025202
 0.0778734 0.07573991 0.07451437 0.07420135 0.07469577 0.07606737 0.07789968 0.07908512 0.07894079 0.07813106
 0.0779496 0.07892018 0.08046705 0.08175381 0.0824959 0.08300728 0.08370956 0.08465571 0.0854094 0.08536731
 0.08437492 0.08311014 0.08263303 0.0833611 0.08466408 0.08564021 0.08606364 0.08635549 0.08683771 0.08726524
 0.08704074 0.08585529 0.08422558 0.08331373 0.08397 0.08589034 0.08777343 0.08830184 0.08707818 0.0848425
 0.08285417 0.08198734 0.08238882 0.08383557 0.08604622 0.08854888 0.0906089 0.09159943 0.09143301 0.090546
 0.08942281 0.08814277 0.08655243 0.08497356 0.08439048 0.08553 0.08792885 0.09030305 0.09173352 0.09217573
 0.09193669 0.09105261 0.08937413 0.08721495 0.0856401 0.08567567 0.08714035 0.0886925 0.08925731 0.08903325
 0.08887881 0.08914059 0.08946328 0.08951036 0.08946329 0.08976205 0.09054408 0.09147134 0.09208898 0.09224401
 0.0921228 0.09198686 0.09192307 0.0917908 0.09143899 0.09104182 0.09108472 0.09185223 0.09304629 0.09408686
 0.09468405 0.09495317 0.0950613 0.09494169 0.09440391 0.09350266 0.09271653 0.0926082 0.09327768 0.09428734
 0.09512916 0.09560445 0.09577194 0.09575325 0.0956514 0.09552839 0.09541956 0.09539966 0.09556723 0.09591189
 0.09628033 0.09652671 0.09662991 0.09663734 0.09656923 0.09642197 0.09622939 0.09608138 0.09606789 0.09620671
 0.09643914 0.09669024 0.09690262 0.09702485 0.09702684 0.09693998 0.09683856 0.09677151 0.09674278 0.09675282
 0.0968181 0.09693979 0.09708183 0.09719692 0.0972647 0.09729366 0.09729516 0.09727228 0.09723347 0.09720244
 0.09720841 0.09726665 0.09736257 0.09746122 0.0975474 0.09764545 0.09777419 0.09789772 0.09795664 0.09794222
 0.09790683 0.09790571 0.09795372 0.0980323 0.09811279 0.09816667 0.0981695 0.09811679 0.09804606 0.09802748
 0.09811159 0.09829219 0.09852722 0.09877425 0.09899503 0.09915894 0.0992673 0.09935349 0.09944323 0.09953026
 0.09959798 0.09965156 0.09972438 0.09985355 0.1000433 0.100254 0.1004373 0.1005735 0.1006726 0.1007611
 0.1008727 0.1010225 0.1011752 0.1012736 0.1013124 0.1013528 0.1014487 0.1015825 0.1016918 0.1017437
 0.1017659 0.1018102 0.1019007 0.1020192 0.102135 0.1022375 0.1023409 0.1024606 0.1025817 0.1026588
 0.1026608 0.1026116 0.1025683 0.1025636 0.1025892 0.102632 0.1026959 0.1027808 0.1028613 0.102904
 0.1029028 0.1028877 0.102892 0.1029156 0.1029271 0.1029016 0.102846 0.1027873 0.1027471 0.1027289
 0.1027207 0.102705 0.1026693 0.1026113 0.1025379 0.1024586 0.1023804 0.1023091 0.1022592 0.1022531
 0.1022909 0.102323 0.1022773 0.102127 0.1019211 0.1017383 0.1016179 0.1015387 0.1014529 0.1013311
 0.1011787 0.1010215 0.1008797 0.1007547 0.1006358 0.1005164 0.1004054 0.1003252 0.1002899 0.1002799
 0.1002471 0.1001568 0.100022 0.09988688 0.09978426 0.09971609 0.09966756 0.09962495 0.09958503 0.09955798
 0.09955568 0.09957071 0.09957725 0.09956114 0.09953848 0.09953901 0.09958148 0.09966632 0.09977486 0.09987198
 0.09992902 0.09995393 0.09998634 0.1000568 0.1001612 0.1002779 0.1003966 0.1005228 0.1006623 0.1008148
 0.1009798 0.1011607 0.1013621 0.1015823 0.1018108 0.1020339 0.1022463 0.1024591 0.1026927 0.1029584
 0.1032462 0.1035338 0.1038063 0.1040684 0.1043362 0.1046182 0.1049087 0.1052005 0.1054973 0.1058085
 0.1061339 0.106462 0.1067825 0.1070958 0.1074103 0.1077333 0.1080656 0.108404 0.1087514 0.1091175
 0.1094992 0.1098677 0.110191 0.1104687 0.110735 0.1110266 0.1113551 0.111705 0.1120461 0.1123533
 0.1126289 0.1129022 0.1131976 0.1135072 0.1138087 0.1141041 0.1144249 0.1147924 0.1151809 0.1155316
 0.1158058 0.1160212 0.1162315 0.1164707 0.1167264 0.116968 0.1171892 0.1174092 0.11764 0.1178739
 0.1181065 0.1183529 0.1186264 0.118912 0.1191786 0.1194119 0.1196228 0.1198236 0.1200096 0.1201646
 0.1202804 0.1203698 0.1204628 0.120583 0.1207279 0.120877 0.12102 0.121167 0.1213305 0.121513
 0.1217153 0.121944 0.1221987 0.1224608 0.1227113 0.1229585 0.1232296 0.1235282 0.123817 0.1240579
 0.1242564 0.1244482 0.1246537 0.1248683 0.1250914 0.1253394 0.1256235 0.1259312 0.1262368 0.126524
 0.1268001 0.1270881 0.1274008 0.1277176 0.1279968 0.1282163 0.1283955 0.1285762 0.1287893 0.1290409
 0.1293181 0.1296011 0.1298734 0.130121 0.1303281 0.1304805 0.130581 0.1306519 0.1307107 0.1307442
 0.1307161 0.1305961 0.1303736 0.1300436 0.1295935 0.1290151 0.1283316 0.1276099 0.1269452 0.1264313
 0.1261365 0.1260946 0.1263058 0.1267355 0.1273163 0.1279569 0.1285605 0.1290371 0.1293111 0.1293323
 0.129091 0.1286205 0.1279779 0.1272222 0.1264059 0.1255727 0.1247576 0.1240004 0.1233746 0.1229986
 0.123003 0.1234806 0.1244518 0.1258506 0.1275241 0.1292641 0.1308827 0.1322833 0.1334682 0.1344896
 0.1354 0.1362364 0.1370246 0.1377763 0.1384886 0.1391544 0.1397753 0.1403596 0.1409092 0.1414126
 0.1418496 0.1421987 0.1424499 0.1426137 0.1427155 0.1427756 0.1428026 0.1428052 0.1427932 0.1427567
 0.1426524 0.1424265 0.1420529 0.1415532 0.140998 0.1405078 0.1402468 0.1403886 0.1410453 0.1421965
 0.1436821 0.1452748 0.1467775 0.1480729 0.149119 0.1499323 0.1505689 0.1510958 0.1515607 0.1519865
 0.1523835 0.152759 0.1531184 0.1534664 0.1538077 0.154147 0.1544888 0.1548352 0.1551833 0.1555251
 0.1558567 0.1561849 0.1565231 0.1568783 0.1572436 0.1576029 0.1579472 0.1582842 0.1586266 0.1589736
 0.1593119 0.159634 0.1599469 0.160264 0.1605945 0.1609391 0.161288 0.1616247 0.1619377 0.1622303
 0.1625143 0.1627986 0.1630844 0.1633708 0.1636582 0.1639459 0.1642304 0.1645104 0.1647902 0.1650757
 0.1653641 0.1656428 0.1659029 0.1661497 0.1663962 0.1666504 0.1669104 0.16717 0.1674264 0.167684
 0.167951 0.1682298 0.1685112 0.1687813 0.1690346 0.1692766 0.1695164 0.16976 0.1700082 0.1702597
 0.170513 0.1707664 0.1710193 0.171272 0.1715267 0.1717847 0.1720446 0.1723033 0.1725575 0.1728051
 0.1730473 0.1732886 0.1735348 0.1737891 0.1740502 0.1743133 0.1745716 0.1748193 0.1750553 0.1752828
 0.1755065 0.1757312 0.1759609 0.1761969 0.1764384 0.1766846 0.176935 0.1771867 0.177435 0.1776784
 0.1779184 0.1781579 0.1783987 0.178641 0.1788839 0.1791267 0.1793697 0.1796139 0.1798592 0.180104
 0.1803459 0.180583 0.1808176 0.1810551 0.1812976 0.1815408 0.1817792 0.1820121 0.1822434 0.1824772
 0.1827148 0.1829553 0.1831973 0.1834403 0.1836837 0.1839246 0.1841613 0.1843945 0.1846248 0.184853
 0.1850818 0.1853134 0.185547 0.1857816 0.1860192 0.1862614 0.1865061 0.1867506 0.1869941 0.1872366
 0.1874771 0.1877149 0.1879503 0.1881848 0.1884204 0.1886579 0.1888962 0.1891358 0.1893791 0.189626
 0.1898742 0.1901221 0.1903681 0.1906117 0.1908553 0.1911039 0.1913579 0.1916136 0.1918697 0.1921283
 0.1923888 0.1926495 0.1929108 0.1931739 0.1934385 0.1937027 0.1939632 0.194215 0.1944551 0.1946845
 0.194906 0.1951241 0.1953449 0.1955712 0.1957994 0.1960262 0.1962524 0.1964803 0.1967127 0.1969533
 0.1972016 0.1974508 0.1976963 0.1979401 0.1981857 0.198434 0.1986858 0.1989413 0.1991991 0.1994597
 0.199723 0.1999848 0.2002428 0.2005016 0.2007646 0.2010276 0.2012871 0.2015454 0.2018061 0.2020727
 0.2023487 0.2026313 0.2029106 0.2031813 0.2034459 0.2037065 0.2039652 0.2042286 0.2044998 0.2047743
 0.2050479 0.2053208 0.2055911 0.205858 0.2061267 0.2063994 0.2066714 0.2069437 0.2072241 0.2075138
 0.207807 0.2080992 0.2083852 0.2086583 0.2089217 0.2091854 0.2094526 0.209721 0.2099917 0.2102629
 0.2105282 0.210789 0.2110486 0.2112981 0.2115161 0.211654 0.2115776 0.2110021 0.2094588 0.2063059
 0.2008509 0.1926259 0.1816731 0.1686284 0.1545434 0.1405528 0.127566 0.116148 0.1065981 0.09907018
 0.09365409 0.09045052 0.08963363 0.09153748 0.09676924 0.105849 0.1178888 0.1294532 0.1358469 0.1346718
 0.1279997 0.1204921 0.1156036 0.1138874 0.114172 0.1153004 0.1168158 0.118832 0.1216304 0.1252465
 0.1294328 0.134068 0.1393889 0.1456327 0.1525798 0.1596369 0.1663369 0.1726417 0.1787645 0.1847984
 0.1905758 0.1958294 0.2003994 0.2042874 0.2075983 0.2104734 0.2130347 0.2153604 0.2175002 0.2194808
 0.2212685 0.2227536 0.2238145 0.2244154 0.2246506 0.2247016 0.2247382 0.2248471 0.2250431 0.2253204
 0.2256722 0.2260861 0.2265506 0.2270596 0.2276006 0.2281543 0.2287077 0.2292545 0.2297853 0.2302905
 0.2307682 0.23122 0.231648 0.2320561 0.2324471 0.2328214 0.2331856 0.2335507 0.2339189 0.2342829
 0.2346379 0.2349825 0.235312 0.2356233 0.2359187 0.2362013 0.2364732 0.236739 0.2370024 0.2372624
 0.2375192 0.2377757 0.2380308 0.2382814 0.2385284 0.2387733 0.2390134 0.2392482 0.2394839 0.2397249
 0.2399684 0.2402111 0.2404526 0.2406944 0.2409385 0.2411854 0.2414315 0.2416715 0.2419057 0.2421399
 0.2423814 0.242637 0.2429067 0.2431793 0.2434434 0.2437008 0.2439635 0.2442374 0.2445193 0.2448017
 0.2450784 0.2453493 0.2456207 0.2458968 0.2461691 0.2464235 0.2466552 0.2468744 0.2470979 0.2473367
 0.2475872 0.2478373 0.2480793 0.2483152 0.2485501 0.248789 0.2490372 0.2492949 0.2495551 0.2498141
 0.250078 0.2503544 0.2506422 0.2509354 0.2512286 0.2515175 0.2518019 0.2520881 0.2523804 0.2526722
 0.2529536 0.253226 0.2535076 0.2538191 0.2541626 0.2545145 0.2548473 0.2551561 0.255458 0.2557706
 0.2560998 0.2564353 0.2567495 0.2570146 0.2572412 0.2574845 0.2577964 0.2581772 0.2585822 0.2589675
 0.2593196 0.2596497 0.2599702 0.2602795 0.2605644 0.2608162 0.2610485 0.2613024 0.2616199 0.2620015
 0.2623998 0.2627666 0.2630918 0.263391 0.2636797 0.2639679 0.2642478 0.2644773 0.2646216 0.2647292
 0.264925 0.2652932 0.2657849 0.2662701 0.2666683 0.2669986 0.2673125 0.2676258 0.2679269 0.2681898
 0.2683434 0.2683077 0.2681389 0.2680828 0.2683745 0.2690021 0.2697341 0.2703548 0.270808 0.2711474
 0.2714396 0.271717 0.2719604 0.2721041 0.2721069 0.2720525 0.2721375 0.2724934 0.2730373 0.2735609
 0.2739499 0.2742493 0.2745427 0.2748568 0.2751481 0.2752908 0.2751329 0.274705 0.2743567 0.2745287
 0.2753265 0.276399 0.277289 0.2778383 0.2781866 0.2784493 0.278546 0.2783466 0.2778297 0.2770917
 0.2763894 0.2761768 0.2768072 0.2780808 0.2793289 0.2800838 0.2804801 0.2809131 0.2815249 0.2821455
 0.2825693 0.282741 0.2827186 0.282549 0.2822432 0.2819168 0.2818742 0.2823934 0.2834033 0.2844991
 0.2853224 0.285843 0.286199 0.2862843 0.2856404 0.2840003 0.282002 0.2810276 0.2819763 0.2843183
 0.2866678 0.2881519 0.2888894 0.2893401 0.2897063 0.2898766 0.2894166 0.2877111 0.284799 0.2821092
 0.2815962 0.2838152 0.2872992 0.2899796 0.2907669 0.2897782 0.2878122 0.2859766 0.2852947 0.2861538
 0.2881426 0.2904692 0.2924359 0.293636 0.2939819 0.2936611 0.2930585 0.2926566 0.2927328 0.2929446
 0.2925444 0.291353 0.2901052 0.2893165 0.2883345 0.2864041 0.2843516 0.2840712 0.2861829 0.2891368
 0.291011 0.2914797 0.2914644 0.2912762 0.2898596 0.2861815 0.2811415 0.2775517 0.2777334 0.2812001
 0.2851362 0.2871653 0.2872326 0.2868053 0.2868057 0.2866322 0.2850571 0.2819697 0.2790553 0.2782856
 0.2797048 0.2813572 0.2814507 0.2796109 0.275932 0.2705259 0.2650106 0.2628173 0.2661608 0.2732856
 0.2800199 0.2833784 0.2824931 0.2773701 0.2692006 0.2616645 0.2592791 0.2632324 0.2699982 0.2747536
 0.2751838 0.2715837 0.2648931 0.2562859 0.2481897 0.2439868 0.2458611 0.2530433 0.2619478 0.2677162
 0.2667002 0.25939 0.2511481 0.2481703 0.2516588 0.257028 0.2592964 0.2577727 0.2550228 0.2533703
 0.2536131 0.2554587 0.2578579 0.2598334 0.2612332 0.2613471 0.2575221 0.2480948 0.2367585 0.2306052
 0.2328124 0.2400846 0.2480288 0.2555788 0.2625446 0.26644 0.265129 0.261054 0.2596767 0.2636443
 0.2702668 0.2749536 0.2758727 0.2746954 0.2735552 0.272508 0.2705892 0.2685522 0.2688984 0.2727627
 0.2781318 0.2820272 0.2834941 0.2835943 0.2834006 0.283094 0.2825248 0.281662 0.2805498 0.2793198
 0.2781852 0.27721 0.276261 0.2752751 0.274187 0.2723325 0.2685045 0.2625169 0.2565424 0.253617
 0.2544574 0.2570097 0.2594055 0.2613169 0.2614863 0.2567107 0.2460225 0.2344369 0.2295033 0.2340076
 0.2437522 0.252267 0.2559251 0.2543953 0.2484512 0.2396066 0.2316382 0.2299328 0.2373432 0.2511993
 0.2657016 0.2768219 0.28384 0.2870989 0.2864556 0.2824204 0.2774464 0.2749612 0.2770134 0.2829245
 0.2898075 0.2939159 0.2922731 0.2851191 0.2775337 0.2763726 0.2834754 0.2932214 0.2987267 0.2990534
 0.2982192 0.2988182 0.2997952 0.2999694 0.3005171 0.3029941 0.3067784 0.3095881 0.3095281 0.305886
 0.2991174 0.2913983 0.2862871 0.2859091 0.288606 0.2908359 0.2908079 0.2885215 0.2835408 0.2759581
 0.2691793 0.2681022 0.2735517 0.281029 0.2858379 0.2874593 0.2881019 0.2887295 0.2879289 0.284281
 0.2788813 0.2748699 0.2743559 0.2764264 0.2786492 0.2797069 0.2796097 0.2781736 0.2750229 0.2712181
 0.2694086 0.2714797 0.2765311 0.2817481 0.2849857 0.2860811 0.2860415 0.2857448 0.2854666 0.2850401
 0.2842877 0.2836208 0.2840674 0.2861773 0.2890652 0.2912197 0.2922508 0.2932087 0.2951063 0.2976807
 0.2997979 0.3007076 0.3007022 0.3007428 0.3015928 0.3031894 0.3047045 0.3052761 0.3048594 0.304381
 0.3049069 0.3066292 0.3087919 0.3105553 0.3116952 0.3124874 0.3132413 0.3140357 0.3146798 0.3148718
 0.3146027 0.3144088 0.3149779 0.3164344 0.3181912 0.3195433 0.3202481 0.3204962 0.3205116 0.3203316
 0.3199178 0.3193427 0.3188027 0.3184704 0.3183703 0.3184013 0.3184472 0.3184505 0.3184171 0.3183938
 0.3184332 0.3185538 0.318733 0.3189415 0.3191622 0.3193679 0.3195208 0.3196161 0.3196946 0.3197819
 0.319838 0.3197839 0.3195531 0.3191011 0.3183887 0.3173854 0.3160759 0.3144363 0.3124299 0.3101094
 0.3077915 0.3060968 0.3056861 0.3068363 0.3092213 0.3121004 0.3147414 0.3167341 0.3180259 0.3187669
 0.3191451 0.3193032 0.3193226 0.3192347 0.3190476 0.3187739 0.3184397 0.3180747 0.3177046 0.3173531
 0.3170381 0.3167608 0.3165024 0.316229 0.3159058 0.3155114 0.3150431 0.3145079 0.3139093 0.3132391
 0.3124772 0.311606 0.3106351 0.3096111 0.3085957 0.3076302 0.3067179 0.3058321 0.3049379 0.3040006
 0.3029676 0.3017649 0.3003671 0.2988905 0.297562 0.2965389 0.2957687 0.2950506 0.2942125 0.2932024
 0.2920509 0.290805 0.2895031 0.2881706 0.2868145 0.2854216 0.2839654 0.2824186 0.2807674 0.2790165
 0.2771822 0.2752834 0.2733438 0.2713836 0.2693895 0.2672834 0.2649309 0.2621801 0.2588989 0.2549941
 0.2504309 0.2452635 0.2396486 0.2338138 0.2279942 0.2223867 0.2171472 0.212408 0.2082863 0.2048766
 0.2022439 0.2004255 0.1994412 0.1993025 0.200009 0.2015327 0.2037992 0.2066816 0.2100145 0.2136155
 0.2172961 0.220871 0.2241979 0.2272321 0.2300278 0.2326588 0.2351363 0.237412 0.2394417 0.2412203
 0.2427597 0.2440612 0.2451238 0.2459711 0.2466568 0.2472396 0.2477557 0.2482112 0.248594 0.2488912
 0.2491046 0.2492583 0.2493926 0.2495467 0.2497427 0.2499811 0.2502543 0.2505646 0.2509313 0.2513791
 0.2519206 0.2525486 0.2532405 0.2539721 0.2547331 0.255536 0.2564127 0.2574034 0.2585431 0.2598505
 0.2613218 0.2629288 0.2646115 0.2662731 0.2677945 0.2690683 0.2700343 0.2706896 0.2710697 0.2712142
 0.271149 0.2708953 0.2704826 0.2699409 0.2692914 0.2685533 0.2677521 0.2669074 0.2660191 0.2650757
 0.2640791 0.2630547 0.2620351 0.2610369 0.2600609 0.2591075 0.2581837 0.2572936 0.256434 0.2556026
 0.2548012 0.2540312 0.2532935 0.2525893 0.2519138 0.2512487 0.2505595 0.2497997 0.2489228 0.2478983
 0.2467152 0.2453743 0.2438841 0.2422608 0.2405189 0.2386657 0.2367097 0.2346663 0.2325505 0.2303687
 0.2281157 0.2257778 0.223358 0.2209093 0.2185275 0.2162961 0.2142464 0.2123663 0.2106268 0.2089955
 0.2074442 0.2059525 0.2045096 0.2031185 0.2017924 0.2005393 0.1993552 0.1982374 0.1971945 0.1962409
 0.1953922 0.1946591 0.1940364 0.1935044 0.193047 0.1926584 0.1923444 0.1921311 0.192056 0.1921175
 0.1922476 0.1923512 0.1923695 0.1923023 0.1921938 0.1920997 0.1920522 0.1920515 0.1920755 0.1920759
 0.1919671 0.1916467 0.1910257 0.1900351 0.1886343 0.1868386 0.1847331 0.1824606 0.180197 0.178109
 0.1763067 0.1748377 0.1737095 0.1728847 0.1722759 0.1717988 0.1714368 0.1712433 0.1712893 0.1715876
 0.1720236 0.1723954 0.1725905 0.1727137 0.172994 0.1735849 0.1744713 0.1755159 0.1765562 0.1774784
 0.1782322 0.1788052 0.1792124 0.1794962 0.1796871 0.1797724 0.1797302 0.1795641 0.1792856 0.1789037
 0.1784382 0.1779036 0.1772855 0.1765677 0.1757553 0.1748516 0.1738512 0.1727527 0.1715338 0.1701557
 0.168667 0.1672828 0.1663035 0.1659546 0.1662758 0.1671049 0.1681899 0.169356 0.1705272 0.1716006
 0.1724505 0.1731293 0.1739584 0.1753131 0.1773024 0.1796572 0.1819193 0.1837387 0.1849859 0.1856492
 0.1857523 0.1853605 0.1845273 0.1832355 0.1814882 0.1794 0.1771238 0.1747918 0.1725556 0.1705486
 0.1688151 0.1673672 0.1662193 0.1653778 0.1649054 0.1645162 0.1626081 0.1568272 0.1474005 0.139293
 0.1384618 0.1454411 0.1546007 0.1601888 0.161218 0.1601022 0.1588558 0.1579186 0.1572127 0.1568032
 0.1567452 0.1569448 0.1571905 0.1572437 0.1569876 0.1564308 0.1554591 0.1535873 0.1499381 0.1435584
 0.1341265 0.1226032 0.1110267 0.1014287 0.09482811 0.09101848 0.08901067 0.08772612 0.0866142 0.08583404
 0.0858864 0.08710192 0.08946247 0.09275585 0.09672497 0.1010332 0.1052139 0.1088215 0.1116656 0.1138202
 0.1154041 0.1164486 0.1169675 0.1170287 0.1167244 0.1161413 0.1153556 0.1143992 0.113241 0.1118531
 0.1103114 0.1088246 0.1076412 0.1068901 0.1065048 0.106322 0.1062303 0.1062007 0.106229 0.1063092
 0.1064402 0.1066241 0.1068686 0.1071843 0.1075515 0.1079063 0.1081843 0.1083638 0.108458 0.1084766
 0.1083938 0.1081651 0.1078052 0.1074153 0.1070428 0.106535 0.1056566 0.104394 0.103074 0.1021494
 0.1018783 0.1021727 0.1027022 0.103142 0.1033662 0.1034418 0.1034716 0.1034513 0.1032674 0.1028218
</values></Ydata></ScRf><Data_Parameters_AB><parameter name="DPF">1</parameter><parameter name="NPT">3497</parameter><parameter name="FXV">3996</parameter><parameter name="LXV">500</parameter><parameter name="CSF">1</parameter><parameter name="MXY">0.208091527223587</parameter><parameter name="MNY">-0.0673286393284798</parameter><parameter name="DAT">18/01/2024</parameter><parameter name="TIM">11:14:44.585 (GMT+1)</parameter><parameter name="DXU">WN</parameter></Data_Parameters_AB><AB__Qtest><MainReport name="Quality Test Report"><Header><Line><Legend>Test result ok/not ok [1/0]: </Legend><Value>0</Value></Line><Line><Legend>Method file: </Legend><Value>C:\Users\Public\Documents\Bruker\OPUS_8.2.28\QT\IRBT_v3_default.QT</Value></Line></Header><Matrix><Line><Legend></Legend><Legend>min</Legend><Legend>max</Legend><Legend>measured</Legend></Line><Line><Value>Absorption (X-Range 1):</Value><Value>0.400000</Value><Value>2.000000</Value><Value>0.164747</Value></Line><Line><Value>Noise (X-Range 4):</Value><Value></Value><Value>0.000300</Value><Value>0.000043</Value></Line><Line><Value>Signal/Noise (X-Range 2):</Value><Value>200.000000</Value><Value></Value><Value>98.521565</Value></Line><Line><Value>Signal/Noise (X-Range 3):</Value><Value>40.000000</Value><Value></Value><Value>64.365998</Value></Line><Line><Value>Water vapour (X-Range 5):</Value><Value></Value><Value>0.000300</Value><Value>0.000018</Value></Line><Line><Value>Signal/Water (X-Range 2):</Value><Value>100.000000</Value><Value></Value><Value>235.407933</Value></Line><Line><Value>Signal/Water (X-Range 3):</Value><Value>20.000000</Value><Value></Value><Value>153.796446</Value></Line><Line><Value>Fringes (X-Range 6):</Value><Value></Value><Value>0.000100</Value><Value>0.000028</Value></Line></Matrix></MainReport></AB__Qtest><Data_Parameters_ScSm><parameter name="DPF">1</parameter><parameter name="NPT">1814</parameter><parameter name="FXV">3996.63438082617</parameter><parameter name="LXV">499.579297603271</parameter><parameter name="CSF">1</parameter><parameter name="MXY">0.341386288404465</parameter><parameter name="MNY">0.0807230770587921</parameter><parameter name="DAT">18/01/2024</parameter><parameter name="TIM">11:14:44.585 (GMT+1)</parameter><parameter name="DXU">WN</parameter></Data_Parameters_ScSm><Data_Parameters_ScRf><parameter name="DPF">1</parameter><parameter name="NPT">1820</parameter><parameter name="FXV">4004.34989121387</parameter><parameter name="LXV">495.721542409425</parameter><parameter name="CSF">1</parameter><parameter name="MXY">0.320511609315872</parameter><parameter name="MNY">0.069144532084465</parameter><parameter name="DAT">18/01/2024</parameter><parameter name="TIM">11:14:18.723 (GMT+1)</parameter><parameter name="DXU">WN</parameter></Data_Parameters_ScRf><Optic_Parameters_Rf><parameter name="APR">0</parameter><parameter name="APT">Open</parameter><parameter name="BMS">KBr</parameter><parameter name="DTC">RT-DLaTGS_IR-Biotyper [Microplate reader]</parameter><parameter name="HPF">0</parameter><parameter name="LPF">10.0</parameter><parameter name="LPV">4000</parameter><parameter name="PGR">0</parameter><parameter name="RCH">Module port</parameter><parameter name="RDX">0</parameter><parameter name="SRC">MIR</parameter><parameter name="VEL">10.0</parameter><parameter name="SON">Off</parameter></Optic_Parameters_Rf><Acquisition_Parameters_Rf><parameter name="ADT">1</parameter><parameter name="AQM">DD</parameter><parameter name="CFE">0</parameter><parameter name="COR">0</parameter><parameter name="DEL">0</parameter><parameter name="DLY">0</parameter><parameter name="HFW">8000</parameter><parameter name="LFW">0</parameter><parameter name="NSR">32</parameter><parameter name="PLF">AB</parameter><parameter name="RES">6</parameter><parameter name="RGN">-1</parameter><parameter name="STR">0</parameter><parameter name="TCL">MakeCompatibleScalar (0, {WSV=1.000000, ARV=0});</parameter><parameter name="TDL">37</parameter><parameter name="RPO">0</parameter></Acquisition_Parameters_Rf><FT_-_Parameters_Rf><parameter name="APF">B3</parameter><parameter name="HFQ">500</parameter><parameter name="LFQ">4000</parameter><parameter name="NLI">0</parameter><parameter name="PHR">24</parameter><parameter name="PHZ">ML</parameter><parameter name="SPZ">NO</parameter><parameter name="ZFF">1</parameter></FT_-_Parameters_Rf><Optic_Parameters_><parameter name="APR">0</parameter><parameter name="APT">Open</parameter><parameter name="BMS">KBr</parameter><parameter name="CHN">Module port</parameter><parameter name="DTC">RT-DLaTGS_IR-Biotyper [Microplate reader]</parameter><parameter name="HPF">0</parameter><parameter name="LPF">10.0</parameter><parameter name="LPV">4000</parameter><parameter name="PGN">0</parameter><parameter name="RDX">0</parameter><parameter name="SRC">MIR</parameter><parameter name="VEL">10.0</parameter><parameter name="SON">Off</parameter></Optic_Parameters_><FT_-_Parameters_><parameter name="APF">B3</parameter><parameter name="HFQ">500</parameter><parameter name="LFQ">4000</parameter><parameter name="NLI">0</parameter><parameter name="PHR">24</parameter><parameter name="PHZ">ML</parameter><parameter name="SPZ">NO</parameter><parameter name="ZFF">1</parameter></FT_-_Parameters_><Acquisition_Parameters_><parameter name="ADT">1</parameter><parameter name="AQM">DD</parameter><parameter name="CFE">0</parameter><parameter name="COR">0</parameter><parameter name="DEL">0</parameter><parameter name="DLY">0</parameter><parameter name="HFW">8000</parameter><parameter name="LFW">0</parameter><parameter name="NSS">32</parameter><parameter name="PLF">AB</parameter><parameter name="RES">6</parameter><parameter name="SOT">0</parameter><parameter name="TCL">MakeCompatibleScalar (0, {WSV=1.000000, ARV=0});</parameter><parameter name="TDL">37</parameter><parameter name="SPO">0</parameter><parameter name="SGN">-1</parameter></Acquisition_Parameters_><Instrument_Parameters_Rf><parameter name="HFL">15801.365274</parameter><parameter name="LFL">0</parameter><parameter name="LWN">15801.365274</parameter><parameter name="ABP">32157</parameter><parameter name="SSP">1</parameter><parameter name="ARG">2</parameter><parameter name="ASG">2</parameter><parameter name="ASS">32</parameter><parameter name="GFW">16</parameter><parameter name="GBW">16</parameter><parameter name="BFW">0</parameter><parameter name="BBW">0</parameter><parameter name="PKA">9309</parameter><parameter name="PKL">4987</parameter><parameter name="PRA">9272</parameter><parameter name="PRL">5010</parameter><parameter name="P2A">1</parameter><parameter name="P2L">1</parameter><parameter name="P2R">1</parameter><parameter name="P2K">1</parameter><parameter name="DAQ">0</parameter><parameter name="AG2">1</parameter><parameter name="SSM">1</parameter><parameter name="RSN">46546</parameter><parameter name="CRR">0</parameter><parameter name="SRT">1705576458.723</parameter><parameter name="DUR">19.6449890136719</parameter><parameter name="TSC">31.9</parameter><parameter name="MVD">0.346146255731583</parameter><parameter name="AN1">0.226014272889773</parameter><parameter name="AN2">0</parameter><parameter name="VSN">2.485 Apr  4 2017</parameter><parameter name="SRN">0085</parameter><parameter name="CAM">0</parameter><parameter name="INS">IR-Biotyper</parameter><parameter name="FOC">69</parameter><parameter name="RDY">1</parameter><parameter name="ARS">32</parameter></Instrument_Parameters_Rf><Sample_Parameters_><parameter name="BLD"></parameter><parameter name="CNM">Admin</parameter><parameter name="CPY"></parameter><parameter name="DPM"></parameter><parameter name="EXP">IRBT_v3_32Scans.XPM</parameter><parameter name="LCT"></parameter><parameter name="SFM">Microplate, HTS-XT</parameter><parameter name="SNM">240118-1045-Cdiff_SCFA_2_C24_232121162_F3_d0b8cb84-0b62-45e0-825a-e91b8ee0fec0.0</parameter><parameter name="XPP">C:\Users\Public\Documents\Bruker\OPUS_8.2.28\XPM</parameter><parameter name="IST">OK</parameter><parameter name="CPG">1252</parameter><parameter name="UID">190e9d8a-5cf8-447e-abbd-c25cfb25ae92</parameter></Sample_Parameters_><Instrument_Parameters_><parameter name="HFL">15801.365274</parameter><parameter name="LFL">0</parameter><parameter name="LWN">15801.365274</parameter><parameter name="ABP">32157</parameter><parameter name="SSP">1</parameter><parameter name="ASG">2</parameter><parameter name="ARG">2</parameter><parameter name="ASS">32</parameter><parameter name="GFW">16</parameter><parameter name="GBW">16</parameter><parameter name="BFW">0</parameter><parameter name="BBW">0</parameter><parameter name="PKA">9767</parameter><parameter name="PKL">4980</parameter><parameter name="PRA">9755</parameter><parameter name="PRL">5002</parameter><parameter name="P2A">1</parameter><parameter name="P2L">1</parameter><parameter name="P2R">1</parameter><parameter name="P2K">1</parameter><parameter name="DAQ">0</parameter><parameter name="AG2">1</parameter><parameter name="SSM">1</parameter><parameter name="RSN">23966</parameter><parameter name="CRR">0</parameter><parameter name="SRT">1705576484.586</parameter><parameter name="DUR">19.6449890136719</parameter><parameter name="TSC">31.9</parameter><parameter name="MVD">0.365017473697662</parameter><parameter name="AN1">0.226009112708775</parameter><parameter name="AN2">0</parameter><parameter name="VSN">2.485 Apr  4 2017</parameter><parameter name="SRN">0085</parameter><parameter name="CAM">0</parameter><parameter name="INS">IR-Biotyper</parameter><parameter name="FOC">69</parameter><parameter name="RDY">1</parameter></Instrument_Parameters_><History/></OPUSDataFile>
