<?xml version="1.0" encoding="UTF-8" ?>
<OPUSDataFile><AB><Ydata ylabel="Absorbance Units"><values byteorder="INTEL" format="FLOAT32" numvalues="3497"> -0.1017904 -0.1017945 -0.1017879 -0.1017709 -0.1017427 -0.1017062 -0.1016666 -0.1016274 -0.1015963 -0.1015746
 -0.1015672 -0.1015713 -0.1015873 -0.1016084 -0.1016321 -0.1016513 -0.1016632 -0.1016642 -0.1016524 -0.1016292
 -0.1015939 -0.1015525 -0.1015052 -0.1014599 -0.101417 -0.1013812 -0.1013521 -0.1013284 -0.1013096 -0.1012921
 -0.1012759 -0.1012598 -0.1012443 -0.1012302 -0.1012173 -0.1012054 -0.1011934 -0.1011799 -0.1011643 -0.1011452
 -0.1011239 -0.1011 -0.1010767 -0.1010547 -0.1010366 -0.1010235 -0.1010143 -0.1010092 -0.1010048 -0.1010007
 -0.1009962 -0.1009912 -0.1009866 -0.1009823 -0.1009768 -0.10097 -0.1009588 -0.100944 -0.1009266 -0.1009078
 -0.1008916 -0.1008775 -0.1008665 -0.100856 -0.1008433 -0.1008283 -0.1008095 -0.1007897 -0.1007702 -0.1007518
 -0.1007359 -0.1007184 -0.1006988 -0.1006741 -0.100643 -0.100611 -0.1005781 -0.1005538 -0.1005386 -0.1005349
 -0.1005421 -0.1005515 -0.1005626 -0.1005662 -0.1005638 -0.100555 -0.1005422 -0.1005312 -0.1005228 -0.1005214
 -0.1005252 -0.1005344 -0.1005447 -0.1005534 -0.1005554 -0.1005468 -0.1005257 -0.1004892 -0.1004425 -0.1003854
 -0.1003284 -0.1002729 -0.1002269 -0.1001914 -0.1001669 -0.1001535 -0.1001473 -0.1001479 -0.1001521 -0.1001594
 -0.1001671 -0.1001743 -0.1001769 -0.1001747 -0.1001643 -0.1001474 -0.1001242 -0.1000976 -0.100071 -0.1000469
 -0.1000286 -0.1000162 -0.1000117 -0.1000104 -0.1000121 -0.100008 -0.09999554 -0.09996982 -0.09992873 -0.09987731
 -0.09981535 -0.09975448 -0.09969531 -0.09964644 -0.09960809 -0.09958488 -0.09957716 -0.09959041 -0.09962343 -0.09967779
 -0.09974548 -0.09980996 -0.0998608 -0.09986921 -0.09984169 -0.09977011 -0.09967623 -0.09957463 -0.0994807 -0.09940863
 -0.09935829 -0.09933452 -0.09932648 -0.09933297 -0.09934203 -0.09935143 -0.0993545 -0.09935011 -0.09933805 -0.09931824
 -0.09929326 -0.09926315 -0.09922881 -0.09919021 -0.09914701 -0.09910024 -0.09905278 -0.09900684 -0.09896937 -0.0989413
 -0.09892832 -0.09892755 -0.09893894 -0.09895625 -0.09897498 -0.09898906 -0.09899352 -0.09898665 -0.09896592 -0.09893451
 -0.09889212 -0.09884496 -0.0987936 -0.09874555 -0.09870157 -0.09866782 -0.09864475 -0.09863265 -0.09863108 -0.09863313
 -0.09863801 -0.09863704 -0.09863064 -0.09861542 -0.09859283 -0.09856483 -0.09853235 -0.09849782 -0.09846152 -0.09842481
 -0.09838755 -0.09835026 -0.09831218 -0.09827321 -0.09823218 -0.09818856 -0.09814192 -0.09809189 -0.09803904 -0.09798311
 -0.09792698 -0.09787065 -0.09782004 -0.0977755 -0.0977421 -0.0977197 -0.09770662 -0.09770193 -0.09769835 -0.09769558
 -0.09768842 -0.09767784 -0.09766384 -0.09764713 -0.09762925 -0.09760969 -0.09758832 -0.09756504 -0.0975392 -0.09751248
 -0.09748539 -0.09746024 -0.09743858 -0.0974196 -0.09740392 -0.09738747 -0.09736939 -0.09734836 -0.09732369 -0.09730089
 -0.09728027 -0.09726675 -0.09726004 -0.09725483 -0.09725013 -0.09723559 -0.09721216 -0.09717812 -0.09713528 -0.09708825
 -0.09703617 -0.09697922 -0.09691729 -0.09684846 -0.09677844 -0.0967109 -0.09665212 -0.09660833 -0.0965776 -0.09656251
 -0.09655209 -0.09654408 -0.09652917 -0.0965045 -0.0964707 -0.09642715 -0.09637966 -0.09632859 -0.09627734 -0.09622589
 -0.09617346 -0.09611985 -0.0960632 -0.09600393 -0.09594244 -0.0958797 -0.09581851 -0.09575962 -0.09570577 -0.09565713
 -0.09561536 -0.09557913 -0.09554861 -0.09551993 -0.0954911 -0.09545837 -0.09541918 -0.09537401 -0.09532218 -0.09526632
 -0.09520701 -0.09514459 -0.09507926 -0.09500972 -0.09493583 -0.09485977 -0.0947818 -0.09470732 -0.09463618 -0.09457026
 -0.09450825 -0.09444575 -0.09438139 -0.09430883 -0.09422846 -0.09413737 -0.09403825 -0.09393314 -0.09382491 -0.09371686
 -0.09361071 -0.09350824 -0.09341097 -0.09331995 -0.0932361 -0.09316063 -0.09309025 -0.0930253 -0.09295788 -0.09288719
 -0.09280634 -0.09271467 -0.09261098 -0.09249531 -0.09236954 -0.09223381 -0.09208972 -0.0919376 -0.09177932 -0.09161584
 -0.0914504 -0.09128451 -0.09112243 -0.09096538 -0.09081718 -0.09067691 -0.09054585 -0.09042016 -0.09029797 -0.09017602
 -0.09005193 -0.08992625 -0.0897988 -0.08967 -0.08954062 -0.08940592 -0.08926572 -0.08911314 -0.0889475 -0.08876887
 -0.08857753 -0.08838101 -0.08817979 -0.08798143 -0.08778552 -0.08759467 -0.08740766 -0.08722207 -0.0870378 -0.08685265
 -0.08666915 -0.08648974 -0.0863168 -0.08615525 -0.08600049 -0.08585303 -0.08570153 -0.08554062 -0.08536454 -0.08516845
 -0.08496033 -0.08474009 -0.08452047 -0.08430337 -0.08409425 -0.08389396 -0.08369717 -0.08350348 -0.08330349 -0.08309729
 -0.08288127 -0.08265664 -0.08242724 -0.08219393 -0.08196161 -0.08172941 -0.08149796 -0.08126634 -0.08103283 -0.08079901
 -0.08056511 -0.08033464 -0.08011044 -0.07989331 -0.07968555 -0.079482 -0.07928196 -0.07907924 -0.07887178 -0.07866007
 -0.07844348 -0.07822791 -0.07801393 -0.07780243 -0.0775933 -0.07737959 -0.07716125 -0.07693417 -0.07669999 -0.07646439
 -0.07622892 -0.07600205 -0.07578222 -0.07557084 -0.07536432 -0.07515822 -0.07494987 -0.0747344 -0.07451247 -0.07428228
 -0.07404768 -0.07380952 -0.07357263 -0.07333873 -0.0731107 -0.07288984 -0.07267512 -0.07246695 -0.07226063 -0.07205586
 -0.071848 -0.07163686 -0.07142138 -0.07120184 -0.07098059 -0.07075771 -0.07053475 -0.07031168 -0.07008889 -0.06986709
 -0.06964801 -0.06943185 -0.06922064 -0.06901127 -0.06880186 -0.06858841 -0.06836637 -0.0681376 -0.06790037 -0.06766278
 -0.0674272 -0.06719878 -0.06697983 -0.0667683 -0.0665644 -0.06636424 -0.06616744 -0.06597264 -0.06577976 -0.065588
 -0.06539717 -0.06520468 -0.06501038 -0.06481184 -0.06460952 -0.06440341 -0.06419445 -0.06398455 -0.06377438 -0.06356589
 -0.06335885 -0.06315397 -0.06295017 -0.06274695 -0.06254335 -0.0623385 -0.06213288 -0.06192605 -0.06172062 -0.06151699
 -0.06131794 -0.06112426 -0.06093484 -0.0607499 -0.06056362 -0.06037569 -0.06018071 -0.05997894 -0.05977091 -0.05955775
 -0.0593456 -0.05913556 -0.05893471 -0.05874272 -0.05856302 -0.05839291 -0.05823013 -0.05807158 -0.05791274 -0.05775302
 -0.05759016 -0.05742592 -0.05726127 -0.05709513 -0.0569279 -0.05675586 -0.05657776 -0.05639388 -0.05620351 -0.05601232
 -0.05582071 -0.05563327 -0.0554502 -0.05527136 -0.05509663 -0.05492499 -0.05475629 -0.05458957 -0.05442391 -0.05425572
 -0.05408447 -0.05390612 -0.05372347 -0.05353817 -0.05335533 -0.0531815 -0.05301861 -0.05287176 -0.05273572 -0.0526101
 -0.0524866 -0.05236172 -0.05223262 -0.05209709 -0.05195983 -0.05182114 -0.05168624 -0.05155596 -0.05142836 -0.05130332
 -0.05117487 -0.05104291 -0.0509045 -0.05076022 -0.05061168 -0.05045947 -0.05030645 -0.05015282 -0.05000052 -0.04984935
 -0.0497001 -0.0495517 -0.04940337 -0.049254 -0.04910193 -0.04894836 -0.04879273 -0.04863896 -0.04848806 -0.04834404
 -0.04820829 -0.04808184 -0.04796546 -0.04785599 -0.0477534 -0.04765215 -0.04755193 -0.04744828 -0.04734116 -0.04722903
 -0.04711215 -0.04699106 -0.04686612 -0.04673889 -0.04660957 -0.04647939 -0.04634817 -0.04621614 -0.04608309 -0.04594826
 -0.04581341 -0.045679 -0.04554866 -0.04542479 -0.04530828 -0.04520131 -0.04509793 -0.04499773 -0.04489229 -0.0447796
 -0.04465899 -0.0445295 -0.04440204 -0.04427716 -0.04416706 -0.04407148 -0.04398996 -0.04392047 -0.04384989 -0.04377771
 -0.04369376 -0.04360184 -0.04350565 -0.04340949 -0.04332329 -0.04324605 -0.04318161 -0.04312445 -0.04307146 -0.04301831
 -0.04296134 -0.04290008 -0.04283322 -0.0427626 -0.04268835 -0.04261245 -0.04253551 -0.04245659 -0.04237595 -0.0422888
 -0.04219488 -0.04209095 -0.04197752 -0.04186086 -0.04174265 -0.04163697 -0.04154401 -0.04147309 -0.04142097 -0.04138524
 -0.04136097 -0.04133873 -0.04131542 -0.04128327 -0.04124252 -0.04119059 -0.04112935 -0.04105887 -0.04098193 -0.04089901
 -0.04081465 -0.04072952 -0.04064973 -0.04057657 -0.04051282 -0.04045942 -0.04041081 -0.04036679 -0.04031662 -0.04025998
 -0.04019046 -0.04010908 -0.04001883 -0.03992171 -0.03982683 -0.03973563 -0.0396566 -0.03958955 -0.03953875 -0.03950129
 -0.03947675 -0.0394582 -0.03944083 -0.03941628 -0.03937782 -0.03932324 -0.03924797 -0.0391616 -0.03906461 -0.03897118
 -0.03888443 -0.03880917 -0.03874704 -0.03868999 -0.03863765 -0.03857993 -0.03851677 -0.03844643 -0.03836952 -0.03828961
 -0.03820639 -0.03812067 -0.03803153 -0.03793626 -0.0378361 -0.03773064 -0.03762507 -0.03752474 -0.03743618 -0.03736738
 -0.03731988 -0.03729878 -0.03729631 -0.0373121 -0.03733322 -0.03735597 -0.03737262 -0.03738009 -0.03738249 -0.03737929
 -0.0373823 -0.03739224 -0.03741826 -0.03746042 -0.03751965 -0.03759537 -0.03768371 -0.03778485 -0.03789741 -0.03802181
 -0.03815929 -0.03830804 -0.03846642 -0.03862981 -0.03879192 -0.03894898 -0.03909447 -0.03923012 -0.0393536 -0.03947267
 -0.03958842 -0.03971305 -0.03984973 -0.04000853 -0.04019283 -0.04040112 -0.04063481 -0.04087763 -0.04112875 -0.04136997
 -0.04160102 -0.04181832 -0.04202331 -0.04222541 -0.04242497 -0.04262906 -0.0428354 -0.0430414 -0.04324497 -0.04344034
 -0.04362837 -0.04380749 -0.04397998 -0.04414758 -0.04431117 -0.04447215 -0.04462945 -0.04478262 -0.04493219 -0.04507765
 -0.04522264 -0.04536781 -0.04551571 -0.04566729 -0.04581777 -0.04596703 -0.04610566 -0.04623348 -0.04634808 -0.04645073
 -0.04654992 -0.04664688 -0.0467519 -0.04686419 -0.04698717 -0.04711886 -0.04725705 -0.04740037 -0.04754656 -0.04769374
 -0.04783983 -0.04798241 -0.04811903 -0.0482496 -0.04837293 -0.04849193 -0.04860725 -0.04872092 -0.04883365 -0.0489452
 -0.0490555 -0.04916537 -0.0492748 -0.04938681 -0.04950145 -0.04961953 -0.04974056 -0.04986085 -0.04997997 -0.05009389
 -0.0502032 -0.05030739 -0.05040748 -0.05050528 -0.05060124 -0.05069649 -0.05079198 -0.05088827 -0.05098827 -0.05109379
 -0.05120733 -0.05133124 -0.05146332 -0.05160426 -0.05174757 -0.05189224 -0.05203262 -0.05216764 -0.05229638 -0.05241863
 -0.05253631 -0.05264953 -0.05276069 -0.05287002 -0.05298028 -0.05309188 -0.05320838 -0.05332952 -0.0534569 -0.05358871
 -0.05372256 -0.05385596 -0.05398419 -0.05410659 -0.05422008 -0.05432717 -0.05442803 -0.05452683 -0.05462556 -0.05472651
 -0.05483143 -0.05493816 -0.055047 -0.05515305 -0.05525573 -0.05535136 -0.05543951 -0.05552047 -0.05559438 -0.05566608
 -0.05573615 -0.05581173 -0.05589328 -0.05598715 -0.05609253 -0.05621124 -0.05634023 -0.05647511 -0.05661105 -0.0567394
 -0.05685722 -0.05695729 -0.05704267 -0.05711168 -0.05717313 -0.05723047 -0.05729052 -0.05735711 -0.05742898 -0.05750708
 -0.05758565 -0.05766379 -0.05774001 -0.05781397 -0.05788875 -0.05796438 -0.05803995 -0.05811464 -0.0581803 -0.05823629
 -0.05827425 -0.05829589 -0.0583009 -0.05829379 -0.05828279 -0.05827341 -0.05827724 -0.05829675 -0.05834044 -0.05840278
 -0.05848467 -0.05857352 -0.05866391 -0.05874617 -0.05881472 -0.05887135 -0.05891471 -0.05895271 -0.05898657 -0.0590189
 -0.05905017 -0.05907762 -0.0591012 -0.05912139 -0.05913858 -0.05915725 -0.05917685 -0.0591973 -0.05921696 -0.05922985
 -0.05923655 -0.05923429 -0.05922707 -0.05921962 -0.05921493 -0.05921896 -0.05922951 -0.05924731 -0.05926846 -0.05929064
 -0.05931382 -0.05933662 -0.05936398 -0.05939645 -0.05943934 -0.05949359 -0.0595614 -0.05964328 -0.05973588 -0.05983892
 -0.05994231 -0.06004523 -0.06013504 -0.06021218 -0.06027126 -0.06031547 -0.06035154 -0.06038344 -0.06042374 -0.06047276
 -0.06053788 -0.06061384 -0.06069871 -0.06078533 -0.06086727 -0.06094259 -0.06100709 -0.0610672 -0.06112348 -0.06118459
 -0.06125318 -0.0613311 -0.06141989 -0.06151183 -0.06160666 -0.0616935 -0.06177183 -0.06183574 -0.06188582 -0.06192585
 -0.06195758 -0.0619924 -0.06203116 -0.06208388 -0.06214743 -0.06222092 -0.06229837 -0.06236958 -0.06243248 -0.06247909
 -0.06251545 -0.06254258 -0.06256881 -0.06259918 -0.06263647 -0.06268331 -0.06273755 -0.0627993 -0.06286602 -0.06293779
 -0.06300951 -0.06308114 -0.06314232 -0.06319251 -0.06322134 -0.063229 -0.06321388 -0.06317797 -0.06313071 -0.06307498
 -0.06302533 -0.06298332 -0.0629605 -0.06295461 -0.06296863 -0.06299599 -0.06303163 -0.06306764 -0.06309641 -0.06311356
 -0.06311423 -0.06309932 -0.06306796 -0.06302266 -0.06296408 -0.06289283 -0.06280921 -0.06271203 -0.06260105 -0.06247769
 -0.06234204 -0.06219971 -0.06205092 -0.06190035 -0.06174707 -0.06158871 -0.06142318 -0.06124164 -0.06104355 -0.06082215
 -0.06058092 -0.0603212 -0.06004963 -0.05977385 -0.05949912 -0.05923262 -0.0589744 -0.05872714 -0.05848674 -0.05825233
 -0.05802059 -0.05779026 -0.05756122 -0.05733306 -0.05710796 -0.05688596 -0.05667051 -0.05646181 -0.05626529 -0.0560813
 -0.0559158 -0.05576883 -0.0556436 -0.0555399 -0.0554583 -0.05539946 -0.05536507 -0.05535614 -0.05537603 -0.05542244
 -0.05549652 -0.05558833 -0.05569335 -0.05579471 -0.05588342 -0.05594413 -0.05596805 -0.05595238 -0.05589304 -0.05580075
 -0.05567609 -0.05553193 -0.05536982 -0.05519472 -0.05500699 -0.05480675 -0.05459439 -0.05437484 -0.05414936 -0.05392818
 -0.05371197 -0.05350891 -0.0533181 -0.05314157 -0.05297795 -0.05282578 -0.05268439 -0.0525524 -0.05242963 -0.05231518
 -0.05221011 -0.05211287 -0.05203147 -0.05196428 -0.05193608 -0.05194828 -0.05204378 -0.05222882 -0.05254088 -0.05298656
 -0.05356134 -0.05426578 -0.05504113 -0.05588252 -0.05670707 -0.05751208 -0.05823713 -0.05888703 -0.05944578 -0.05992303
 -0.06033409 -0.06068696 -0.06100243 -0.06128358 -0.06154216 -0.06177858 -0.0619962 -0.06219676 -0.06238148 -0.06255354
 -0.06271446 -0.06286597 -0.06300925 -0.06314255 -0.06326609 -0.06337585 -0.06347144 -0.06355002 -0.06361137 -0.06365589
 -0.06368377 -0.06369867 -0.06370073 -0.06369299 -0.06367482 -0.06364503 -0.06360375 -0.06354895 -0.06348541 -0.06341869
 -0.06335765 -0.06331524 -0.0632973 -0.06331515 -0.06336407 -0.06344694 -0.06354953 -0.06366823 -0.0637873 -0.06390242
 -0.06400108 -0.06408051 -0.06413339 -0.06415851 -0.0641534 -0.06411782 -0.06405145 -0.06395441 -0.06382717 -0.06367163
 -0.06349749 -0.06331293 -0.06315141 -0.06302796 -0.06299845 -0.06307192 -0.06329669 -0.06365608 -0.06415837 -0.06475721
 -0.06542164 -0.06609921 -0.06674966 -0.06734624 -0.06786514 -0.06831291 -0.0686847 -0.06900154 -0.06926627 -0.06949504
 -0.06969004 -0.06986003 -0.07000571 -0.07013252 -0.07024074 -0.0703345 -0.07041415 -0.07048388 -0.07054463 -0.07060255
 -0.07065817 -0.07071668 -0.0707765 -0.07083761 -0.07089712 -0.07095091 -0.07099836 -0.07103691 -0.07106873 -0.07109416
 -0.0711159 -0.0711351 -0.07115353 -0.07117183 -0.0711913 -0.07121232 -0.07123547 -0.07126094 -0.07128806 -0.0713168
 -0.0713458 -0.07137498 -0.07140335 -0.07143103 -0.07145844 -0.07148577 -0.07151423 -0.07154328 -0.07157258 -0.07160047
 -0.07162378 -0.07164116 -0.07164871 -0.0716485 -0.07163989 -0.07162874 -0.07161833 -0.07161333 -0.07161744 -0.07162924
 -0.07165001 -0.07167289 -0.07169704 -0.07171546 -0.07172695 -0.07172994 -0.07172407 -0.07171389 -0.07169969 -0.07168785
 -0.07167836 -0.0716742 -0.07167454 -0.0716774 -0.07168196 -0.07168462 -0.07168577 -0.07168408 -0.07168117 -0.07167859
 -0.07167768 -0.0716806 -0.07168661 -0.07169648 -0.0717071 -0.07171743 -0.07172488 -0.07172812 -0.07172764 -0.07172307
 -0.07171704 -0.07170989 -0.07170267 -0.07169553 -0.07168724 -0.07167779 -0.07166658 -0.07165383 -0.07164123 -0.0716289
 -0.07161839 -0.07160935 -0.07160163 -0.07159453 -0.07158647 -0.07157743 -0.07156636 -0.07155436 -0.07154191 -0.07153041
 -0.07152119 -0.07151401 -0.07150971 -0.07150541 -0.0715005 -0.07149223 -0.07147948 -0.0714635 -0.07144399 -0.07142553
 -0.07140845 -0.07139543 -0.07138646 -0.07138008 -0.07137602 -0.07137121 -0.07136586 -0.07135913 -0.07135159 -0.0713445
 -0.071338 -0.07133319 -0.07132921 -0.07132547 -0.07132063 -0.07131302 -0.07130227 -0.07128718 -0.07126943 -0.07124914
 -0.07122893 -0.07120967 -0.07119273 -0.07117876 -0.07116691 -0.0711572 -0.07114816 -0.07113968 -0.07113107 -0.07112231
 -0.07111277 -0.0711024 -0.07109015 -0.07107598 -0.07105902 -0.07103925 -0.0710162 -0.07099005 -0.07096069 -0.07092887
 -0.07089524 -0.07086135 -0.07082873 -0.07079928 -0.070775 -0.07075623 -0.07074408 -0.07073653 -0.07073341 -0.07073198
 -0.07073157 -0.07073084 -0.07072946 -0.07072731 -0.07072438 -0.0707198 -0.07071351 -0.07070349 -0.07068975 -0.07067157
 -0.07064942 -0.07062515 -0.07059897 -0.07057275 -0.07054575 -0.07051718 -0.07048687 -0.07045342 -0.07041908 -0.07038517
 -0.0703548 -0.07033122 -0.0703138 -0.07030389 -0.0702972 -0.07029265 -0.07028711 -0.07027943 -0.07026975 -0.07025798
 -0.07024413 -0.07022825 -0.0702089 -0.07018607 -0.07016029 -0.07013191 -0.07010458 -0.07007836 -0.07005563 -0.07003547
 -0.07001606 -0.06999669 -0.06997458 -0.06995056 -0.06992449 -0.06989786 -0.06987256 -0.06984825 -0.06982564 -0.06980284
 -0.06977891 -0.06975325 -0.06972495 -0.06969636 -0.06966772 -0.06964174 -0.06961899 -0.06959984 -0.06958445 -0.06957132
 -0.06956035 -0.06955019 -0.0695407 -0.06952997 -0.06951766 -0.06950074 -0.06947949 -0.06945264 -0.06942189 -0.06939014
 -0.069359 -0.06933279 -0.06931032 -0.06929269 -0.0692763 -0.06925879 -0.06923802 -0.06921162 -0.06918143 -0.06914718
 -0.06911258 -0.06907862 -0.06904692 -0.06901811 -0.06899054 -0.06896414 -0.06893705 -0.0689092 -0.06888086 -0.06885222
 -0.06882517 -0.0687997 -0.06877685 -0.06875611 -0.06873643 -0.0687174 -0.06869748 -0.06867689 -0.06865513 -0.06863279
 -0.06861023 -0.06858802 -0.06856692 -0.06854652 -0.06852718 -0.06850703 -0.06848557 -0.06846105 -0.06843268 -0.06840108
 -0.0683659 -0.06833068 -0.06829573 -0.06826367 -0.06823465 -0.06820702 -0.0681805 -0.0681512 -0.06811924 -0.06808304
 -0.06804359 -0.06800336 -0.06796332 -0.0679272 -0.06789465 -0.06786729 -0.06784313 -0.06782073 -0.06779804 -0.06777285
 -0.06774469 -0.06771225 -0.06767759 -0.06764098 -0.06760507 -0.06757067 -0.06753886 -0.06751004 -0.06748348 -0.06745921
 -0.06743556 -0.06741243 -0.06738774 -0.06736138 -0.06733125 -0.06729743 -0.06725901 -0.06721664 -0.06717204 -0.06712605
 -0.06708164 -0.06703901 -0.0669999 -0.06696381 -0.06693077 -0.06690052 -0.06687278 -0.0668477 -0.06682535 -0.06680565
 -0.06678873 -0.06677378 -0.06676085 -0.06674806 -0.06673531 -0.06671979 -0.06670123 -0.06667741 -0.06664819 -0.06661398
 -0.06657498 -0.06653403 -0.0664914 -0.06645019 -0.06641045 -0.0663741 -0.06634101 -0.06631201 -0.0662866 -0.06626467
 -0.06624483 -0.06622565 -0.0662055 -0.06618255 -0.06615619 -0.06612515 -0.06609089 -0.0660533 -0.0660153 -0.06597755
 -0.06594238 -0.06591046 -0.06588152 -0.06585578 -0.06583048 -0.06580549 -0.06577824 -0.06574875 -0.06571661 -0.06568207
 -0.06564645 -0.06560995 -0.06557387 -0.06553821 -0.06550361 -0.06546991 -0.06543708 -0.06540488 -0.06537303 -0.06534123
 -0.06530903 -0.06527646 -0.06524333 -0.06521001 -0.06517643 -0.0651436 -0.06511179 -0.06508147 -0.06505294 -0.06502476
 -0.06499697 -0.06496648 -0.06493311 -0.06489529 -0.06485317 -0.06480888 -0.06476276 -0.06471814 -0.06467484 -0.06463391
 -0.06459478 -0.0645562 -0.06451833 -0.06448061 -0.06444398 -0.06440951 -0.06437743 -0.06434882 -0.06432194 -0.06429645
 -0.0642698 -0.06424073 -0.06420853 -0.06417233 -0.06413442 -0.06409493 -0.06405653 -0.06401967 -0.06398404 -0.06394966
 -0.0639137 -0.06387611 -0.06383559 -0.06379252 -0.06374894 -0.06370512 -0.06366345 -0.06362319 -0.0635838 -0.0635444
 -0.06350286 -0.06345971 -0.06341435 -0.06336879 -0.06332453 -0.06328298 -0.0632459 -0.06321193 -0.06318145 -0.06315089
 -0.0631194 -0.06308427 -0.06304462 -0.06300107 -0.06295343 -0.06290485 -0.06285552 -0.06280793 -0.06276207 -0.06271792
 -0.0626753 -0.062633 -0.06259099 -0.06254859 -0.06250583 -0.06246251 -0.06241858 -0.06237372 -0.06232829 -0.06228222
 -0.0622371 -0.06219389 -0.06215502 -0.06212234 -0.06209694 -0.06208029 -0.06207012 -0.06206652 -0.06206542 -0.06206594
 -0.06206634 -0.06206605 -0.06206741 -0.06207054 -0.06207697 -0.06208652 -0.06209563 -0.06210378 -0.06210524 -0.06210047
 -0.06208825 -0.06206957 -0.06204667 -0.06201992 -0.06199105 -0.06196016 -0.06192822 -0.06189462 -0.06186032 -0.06182089
 -0.06177415 -0.06171613 -0.06164305 -0.06155973 -0.06146542 -0.0613716 -0.06128005 -0.06120053 -0.06113469 -0.06108527
 -0.06105279 -0.06103059 -0.0610181 -0.06100309 -0.06098535 -0.06095731 -0.0609203 -0.06087559 -0.06082504 -0.06077433
 -0.06072453 -0.0606808 -0.06064202 -0.06060982 -0.06058009 -0.0605501 -0.06051546 -0.0604718 -0.06041982 -0.06035764
 -0.06029154 -0.0602227 -0.06015726 -0.06009714 -0.06004216 -0.05999296 -0.05994359 -0.0598937 -0.05983832 -0.05977745
 -0.05971249 -0.05964406 -0.05957785 -0.05951406 -0.05945689 -0.05940531 -0.05935859 -0.05931563 -0.05927379 -0.05923288
 -0.05919151 -0.05914988 -0.05910788 -0.05906525 -0.05902184 -0.05897738 -0.05893165 -0.05888483 -0.05883692 -0.05878817
 -0.05873862 -0.05868845 -0.05863765 -0.05858708 -0.05853679 -0.05848791 -0.05844045 -0.05839493 -0.0583513 -0.05830945
 -0.05826927 -0.05823028 -0.05819229 -0.05815446 -0.05811673 -0.05807829 -0.05804007 -0.05800288 -0.05796781 -0.05793664
 -0.05790848 -0.05788393 -0.0578598 -0.05783484 -0.05780666 -0.05777389 -0.05773717 -0.05769611 -0.05765342 -0.05760934
 -0.05756624 -0.05752434 -0.05748444 -0.05744655 -0.05740986 -0.05737416 -0.05733728 -0.05729905 -0.05725731 -0.05721256
 -0.05716482 -0.05711534 -0.05706664 -0.05701946 -0.05697623 -0.05693608 -0.05689928 -0.05686413 -0.05682939 -0.05679465
 -0.05675928 -0.0567239 -0.05668876 -0.05665341 -0.05661793 -0.05658101 -0.0565424 -0.05650213 -0.05646012 -0.05641792
 -0.05637555 -0.05633348 -0.05629159 -0.05624909 -0.05620596 -0.05616165 -0.05611637 -0.05607046 -0.05602422 -0.05597823
 -0.05593321 -0.05589032 -0.05585035 -0.05581496 -0.05578309 -0.05575509 -0.0557279 -0.05570011 -0.05566994 -0.05563598
 -0.05560007 -0.05556228 -0.05552479 -0.05548819 -0.05545109 -0.0554135 -0.05537231 -0.05532745 -0.05527885 -0.0552269
 -0.0551752 -0.05512419 -0.05507811 -0.05503671 -0.05500157 -0.05497167 -0.05494593 -0.05492273 -0.05489925 -0.05487433
 -0.05484542 -0.05481304 -0.0547764 -0.05473759 -0.05469747 -0.05465726 -0.05461797 -0.05457811 -0.05453764 -0.05449443
 -0.05444788 -0.05439911 -0.05434797 -0.05429921 -0.05425305 -0.05421284 -0.05417825 -0.05414723 -0.05411894 -0.05408762
 -0.05405342 -0.05401337 -0.05396924 -0.05392331 -0.05387723 -0.05383506 -0.05379585 -0.05376056 -0.0537266 -0.05369215
 -0.05365634 -0.05361783 -0.05357829 -0.05353816 -0.05349809 -0.0534586 -0.05341803 -0.05337614 -0.05333219 -0.05328597
 -0.05323976 -0.05319368 -0.05315004 -0.05310878 -0.05307001 -0.0530336 -0.05299888 -0.05296595 -0.05293508 -0.05290563
 -0.05287666 -0.05284686 -0.05281361 -0.05277671 -0.05273436 -0.05268866 -0.05264039 -0.0525919 -0.05254491 -0.05249947
 -0.05245616 -0.05241367 -0.05237159 -0.05233004 -0.05228884 -0.05224951 -0.05221225 -0.05217664 -0.05214264 -0.05210726
 -0.05207033 -0.05202889 -0.05198335 -0.05193412 -0.05188211 -0.05183069 -0.05178019 -0.05173326 -0.05168918 -0.05164806
 -0.05160907 -0.05157129 -0.05153436 -0.05149763 -0.05146135 -0.05142552 -0.05139022 -0.05135557 -0.05132118 -0.0512871
 -0.05125251 -0.05121735 -0.05118036 -0.05114136 -0.05110025 -0.05105706 -0.05101381 -0.05097063 -0.05092944 -0.05088999
 -0.05085191 -0.05081464 -0.05077586 -0.05073583 -0.05069374 -0.05065049 -0.05060726 -0.05056451 -0.05052349 -0.05048336
 -0.05044402 -0.05040439 -0.05036376 -0.05032189 -0.05027846 -0.05023377 -0.05018784 -0.05014093 -0.05009295 -0.05004487
 -0.04999668 -0.04995042 -0.04990619 -0.0498655 -0.04982829 -0.04979432 -0.04976327 -0.04973326 -0.04970397 -0.04967331
 -0.04964122 -0.04960638 -0.04956933 -0.04953022 -0.04948992 -0.04944964 -0.04940956 -0.04937053 -0.04933145 -0.04929191
 -0.04925108 -0.04920823 -0.0491644 -0.0491195 -0.0490756 -0.0490331 -0.04899253 -0.04895405 -0.04891685 -0.04888088
 -0.04884549 -0.04881063 -0.04877573 -0.04874054 -0.04870335 -0.04866399 -0.04862064 -0.04857407 -0.04852499 -0.04847478
 -0.04842632 -0.04837967 -0.04833667 -0.04829511 -0.04825397 -0.04821111 -0.04816435 -0.04811524 -0.04806315 -0.04801278
 -0.04796533 -0.04792348 -0.04788841 -0.04785703 -0.04782937 -0.04779967 -0.04776756 -0.04773047 -0.04768852 -0.04764302
 -0.0475943 -0.04754499 -0.04749522 -0.04744682 -0.04739973 -0.04735472 -0.04731161 -0.04727057 -0.04723102 -0.04719248
 -0.04715401 -0.04711475 -0.04707373 -0.04703001 -0.04698367 -0.04693409 -0.04688348 -0.04683198 -0.0467831 -0.04673768
 -0.04669632 -0.0466595 -0.04662308 -0.04658685 -0.04654564 -0.04649942 -0.04644694 -0.0463888 -0.04632835 -0.04626619
 -0.04620651 -0.04614918 -0.04609624 -0.04604669 -0.04599986 -0.04595469 -0.04590935 -0.04586397 -0.04581786 -0.04577212
 -0.04572726 -0.04568386 -0.04564255 -0.04560231 -0.04556311 -0.04552336 -0.04548271 -0.04544065 -0.04539705 -0.04535205
 -0.04530563 -0.04525778 -0.0452085 -0.04515801 -0.04510645 -0.04505515 -0.04500414 -0.0449544 -0.04490553 -0.04485704
 -0.04480835 -0.04475802 -0.04470631 -0.04465271 -0.04459842 -0.04454429 -0.04449129 -0.04444041 -0.04439143 -0.04434458
 -0.04429913 -0.04425502 -0.04421119 -0.04416747 -0.04412296 -0.04407756 -0.04403087 -0.04398285 -0.04393408 -0.04388455
 -0.04383427 -0.04378315 -0.04373041 -0.04367618 -0.04362035 -0.04356362 -0.04350779 -0.04345325 -0.04340181 -0.04335276
 -0.04330607 -0.04326059 -0.04321523 -0.04316932 -0.04312215 -0.04307349 -0.04302315 -0.04297081 -0.04291631 -0.04285973
 -0.04280093 -0.04274088 -0.04267957 -0.04261865 -0.04255822 -0.04250018 -0.04244459 -0.04239259 -0.04234399 -0.04229805
 -0.04225433 -0.04221077 -0.04216688 -0.04212037 -0.04207073 -0.04201583 -0.04195574 -0.04188915 -0.04181796 -0.04174275
 -0.04166725 -0.04159392 -0.04152506 -0.04146289 -0.04140554 -0.04135332 -0.0413022 -0.04125137 -0.04119879 -0.04114395
 -0.04108791 -0.0410307 -0.04097365 -0.04091675 -0.04085954 -0.04080193 -0.0407429 -0.04068261 -0.04062113 -0.0405588
 -0.04049669 -0.04043476 -0.04037344 -0.04031249 -0.04025165 -0.04019103 -0.0401305 -0.04007056 -0.04001152 -0.03995358
 -0.03989715 -0.03984129 -0.03978616 -0.03972929 -0.03967036 -0.03960662 -0.03953756 -0.03946306 -0.03938298 -0.03930119
 -0.03921793 -0.0391378 -0.03906075 -0.03898856 -0.03892073 -0.03885598 -0.03879388 -0.03873261 -0.03867171 -0.03860956
 -0.03854555 -0.03847808 -0.03840709 -0.03833156 -0.03825299 -0.0381716 -0.03809014 -0.03800963 -0.03793282 -0.03786101
 -0.03779449 -0.03773411 -0.03767585 -0.03761958 -0.03755935 -0.03749462 -0.03742324 -0.03734525 -0.03726364 -0.03717865
 -0.03709377 -0.0370087 -0.03692389 -0.03683904 -0.03675336 -0.0366672 -0.0365807 -0.0364947 -0.03641041 -0.03632839
 -0.0362498 -0.03617431 -0.03610235 -0.03603239 -0.03596405 -0.03589532 -0.0358255 -0.03575328 -0.03567815 -0.0356002
 -0.03551929 -0.03543674 -0.03535265 -0.03526816 -0.03518329 -0.03509754 -0.03501084 -0.03492223 -0.0348321 -0.03474173
 -0.0346515 -0.03456379 -0.03447753 -0.03439199 -0.03430527 -0.03421388 -0.03411812 -0.03401649 -0.03391144 -0.03380433
 -0.03369648 -0.03358918 -0.03348171 -0.03337407 -0.03326563 -0.03315616 -0.03304597 -0.03293503 -0.03282396 -0.03271281
 -0.03260226 -0.0324923 -0.03238285 -0.03227362 -0.0321621 -0.03204789 -0.03192755 -0.03180144 -0.03166887 -0.03153039
 -0.03138706 -0.03123846 -0.03108452 -0.03092449 -0.03075718 -0.03058341 -0.03040306 -0.03021803 -0.03002951 -0.02983744
 -0.02964257 -0.02944193 -0.02923484 -0.02901996 -0.02879642 -0.02856931 -0.02833879 -0.02811268 -0.02789127 -0.02767619
 -0.02746696 -0.02725903 -0.02705245 -0.02684509 -0.02663781 -0.02643295 -0.02622971 -0.02602825 -0.02582554 -0.02561696
 -0.02540089 -0.02517316 -0.02493591 -0.02468932 -0.02443557 -0.02417646 -0.02391057 -0.02363785 -0.02335674 -0.02306655
 -0.02276828 -0.02246205 -0.02214833 -0.02182746 -0.02149412 -0.02114795 -0.02077862 -0.02038616 -0.0199662 -0.01952106
 -0.01906064 -0.01858662 -0.01811114 -0.01763088 -0.01714526 -0.01664889 -0.01613291 -0.01559512 -0.01502972 -0.01443679
 -0.01381592 -0.01316328 -0.01247822 -0.01175268 -0.01098305 -0.01016742 -0.009302465 -0.008401577 -0.007464699 -0.006515286
 -0.005555028 -0.004606234 -0.003670056 -0.002759241 -0.001873036 -0.001008756 -0.0001630144 0.0006835724 0.00153378 0.002410224
 0.0033061 0.004220902 0.005138603 0.006032059 0.006896807 0.007713591 0.008496315 0.009248485 0.009984451 0.01071367
 0.01143959 0.01216569 0.01289099 0.01361539 0.01434067 0.01506769 0.01579273 0.01651611 0.01722487 0.01791835
 0.01858588 0.01922703 0.0198346 0.02040675 0.02093 0.02140165 0.02180504 0.02213964 0.02239561 0.02257482
 0.02267343 0.02270043 0.02265942 0.02257233 0.02245496 0.02232795 0.02220707 0.02209903 0.02200952 0.02194014
 0.02189241 0.02186551 0.02186067 0.02186762 0.02188619 0.02189825 0.02190279 0.02188181 0.02183476 0.02174968
 0.02162743 0.02146628 0.02126829 0.02103946 0.02078174 0.02050189 0.0202026 0.0198895 0.0195689 0.01924798
 0.01893707 0.01864534 0.01838254 0.01815679 0.01797078 0.01782808 0.01772503 0.01766165 0.01763308 0.01763853
 0.01767524 0.0177429 0.01783939 0.01796457 0.01811541 0.01829166 0.01848936 0.01870833 0.0189453 0.01920057
 0.01947326 0.01976412 0.02007452 0.02040493 0.02075698 0.02112997 0.02152406 0.02193742 0.02236899 0.02281633
 0.02327826 0.02375175 0.02423603 0.02472659 0.02522257 0.02571875 0.02621392 0.02670671 0.02719654 0.02768794
 0.02818116 0.02868007 0.02918427 0.02968918 0.03019315 0.03068435 0.03116025 0.03160615 0.03201887 0.0323829
 0.03269775 0.03295361 0.03315704 0.03331019 0.03342403 0.03350729 0.03356992 0.03361959 0.03366207 0.03370185
 0.03373847 0.03377338 0.03380096 0.03382066 0.03382698 0.03381905 0.03379716 0.03376128 0.03371378 0.03365429
 0.03357793 0.03348368 0.03336232 0.03321397 0.03303362 0.03282326 0.03258526 0.03232157 0.03203844 0.03173183
 0.03140322 0.03103706 0.03062204 0.03014377 0.02958508 0.02896118 0.02826894 0.02754503 0.02679956 0.02605089
 0.0253044 0.0245628 0.02382602 0.02310612 0.02240371 0.0217381 0.02110963 0.02052537 0.01998381 0.01947815
 0.01900717 0.0185627 0.0181445 0.01774865 0.0173735 0.0170156 0.01667031 0.01633136 0.01599332 0.01564917
 0.01529705 0.01493328 0.01456039 0.01417865 0.01378986 0.01339433 0.01299386 0.01258685 0.01218881 0.01180008
 0.01144748 0.01113296 0.01086363 0.01063843 0.01043725 0.01025811 0.01007714 0.009895314 0.009702776 0.009503778
 0.009303907 0.009107619 0.008925268 0.008759773 0.008618023 0.008503814 0.008421661 0.00837702 0.008374022 0.008416924
 0.008508742 0.008649985 0.008841612 0.009081943 0.009370774 0.009707018 0.01009033 0.01052255 0.01100377 0.01153747
 0.01212321 0.01275425 0.01342648 0.01410799 0.01479304 0.01543947 0.01604811 0.01659817 0.01709695 0.0175478
 0.01795832 0.01833825 0.01869624 0.01904052 0.01938508 0.01973969 0.02011633 0.02052602 0.02095842 0.0214168
 0.02186988 0.02231174 0.02272516 0.02310583 0.02346358 0.02379866 0.02412538 0.02444396 0.02475656 0.02506223
 0.02535452 0.02563341 0.02589506 0.02614085 0.0263729 0.02659162 0.02679972 0.02699444 0.02717367 0.02733393
 0.02747039 0.02758429 0.02767413 0.02774473 0.02779806 0.02783639 0.02786137 0.02787077 0.02786504 0.02783837
 0.02779076 0.02771157 0.02760029 0.02744178 0.02723533 0.02696856 0.02664205 0.02625446 0.02580721 0.02530633
 0.02475138 0.02414463 0.02348414 0.02276664 0.02199245 0.02115925 0.02027193 0.01933306 0.01835005 0.0173275
 0.01627311 0.01519048 0.0140874 0.01296615 0.01183471 0.01069434 0.009553793 0.008413428 0.007287548 0.006176905
 0.005100651 0.004059563 0.003066129 0.00211936 0.001216761 0.0003566388 -0.0004703937 -0.001263982 -0.002028342 -0.002761401
 -0.003460554 -0.004125573 -0.004753792 -0.005349265 -0.005913755 -0.006454051 -0.006974573 -0.007481382 -0.007978534 -0.008467971
 -0.008951603 -0.009427207 -0.009894842 -0.01035115 -0.01079551 -0.01122782 -0.01164793 -0.01205885 -0.01246065 -0.01285436
 -0.01323911 -0.01360833 -0.01396033 -0.01428367 -0.01457764 -0.01483382 -0.0150533 -0.01523387 -0.01537787 -0.01548669
 -0.01556497 -0.01561623 -0.01564828 -0.01566638 -0.01567875 -0.01569021 -0.01570602 -0.01572884 -0.01576085 -0.01580309
 -0.0158555 -0.01591854 -0.01598878 -0.01606615 -0.01614434 -0.01622303 -0.01629633 -0.01636413 -0.01642318 -0.01647361
 -0.01651444 -0.01654566 -0.01656686 -0.01657772 -0.01657724 -0.01656556 -0.01654185 -0.01650804 -0.01646496 -0.01641667
 -0.01636582 -0.01631629 -0.01627087 -0.01623033 -0.01619602 -0.01616526 -0.01613804 -0.01611027 -0.01608136 -0.01604888
 -0.01601249 -0.01597285 -0.01592999 -0.01588598 -0.01584086 -0.01579579 -0.01575087 -0.01570708 -0.01566505 -0.01562722
 -0.01559407 -0.01556799 -0.01554847 -0.01553595 -0.01552927 -0.01552736 -0.01552962 -0.01553548 -0.01554415 -0.0155552
 -0.01556782 -0.01558174 -0.01559616 -0.01561128 -0.01562437 -0.01563558 -0.0156385 -0.01563266 -0.01561204 -0.01557644
 -0.01552772 -0.01546674 -0.01540314 -0.01533755 -0.01527855 -0.01522528 -0.01517956 -0.01514005 -0.01510431 -0.01507268
 -0.01504427 -0.0150207 -0.01500396 -0.01499318 -0.01498976 -0.01498795 -0.01498607 -0.0149769 -0.01495728 -0.01492475
 -0.01487758 -0.01481901 -0.0147491 -0.01467186 -0.01458763 -0.01449876 -0.01440541 -0.01431073 -0.01421508 -0.01412345
 -0.01403585 -0.01395516 -0.01388055 -0.0138107 -0.01374517 -0.01368169 -0.01362189 -0.01356677 -0.01351913 -0.01348273
 -0.01345787 -0.01344679 -0.01344609 -0.01345487 -0.01346966 -0.01348856 -0.01351197 -0.01353937 -0.01357333 -0.01361425
 -0.01366318 -0.01372031 -0.01378518 -0.01385776 -0.01393775 -0.01402501 -0.01411827 -0.01421696 -0.01431731 -0.01441877
 -0.01451736 -0.01461339 -0.01470547 -0.01479425 -0.01488046 -0.01496358 -0.01504373 -0.01511929 -0.01518904 -0.0152521
 -0.01530744 -0.01535576 -0.01539708 -0.01543213 -0.01546132 -0.01548365 -0.01549917 -0.01550576 -0.01550316 -0.01549113
 -0.01546968 -0.01544218 -0.01540897 -0.01537531 -0.01534131 -0.01531051 -0.01528206 -0.01525526 -0.01522846 -0.01519756
 -0.01516141 -0.01511605 -0.01506208 -0.01499824 -0.01492681 -0.01484914 -0.01476685 -0.01468174 -0.01459232 -0.01449911
 -0.01439761 -0.01428707 -0.01416302 -0.01402446 -0.01387016 -0.01369968 -0.01351628 -0.01332013 -0.01311702 -0.01290728
 -0.01269652 -0.01248485 -0.01227587 -0.01206951 -0.01186739 -0.01166962 -0.01147703 -0.01129027 -0.01111065 -0.01093896
 -0.01077685 -0.01062396 -0.01048082 -0.01034598 -0.01021851 -0.01009858 -0.009985534 -0.0098821 -0.009789017 -0.009707249
 -0.009637636 -0.009575952 -0.009522146 -0.009468921 -0.009415869 -0.009357965 -0.009295178 -0.009226112 -0.009150852 -0.009069225
 -0.008981127 -0.008886313 -0.008784155 -0.008673432 -0.008552642 -0.00841912 -0.008270834 -0.008104017 -0.007918731 -0.007712651
 -0.007490254 -0.007252341 -0.007006188 -0.006754499 -0.006502738 -0.006252997 -0.00600689 -0.005765018 -0.005527546 -0.005294487
 -0.005066777 -0.004844474 -0.004627662 -0.004416281 -0.004209148 -0.004006575 -0.003809496 -0.003619143 -0.003440646 -0.003274833
 -0.003126878 -0.002995513 -0.002881219 -0.002781813 -0.002694588 -0.002619041 -0.002553663 -0.002499213 -0.002456221 -0.002423446
 -0.002401112 -0.002385651 -0.002376232 -0.002370116 -0.002366317 -0.002366383 -0.002370191 -0.002381663 -0.002401045 -0.002429712
 -0.002467412 -0.002510318 -0.002557892 -0.0026047 -0.002650608 -0.002692317 -0.002729784 -0.002761355 -0.002786796 -0.00280456
 -0.002815649 -0.002819902 -0.002820554 -0.002819851 -0.002821336 -0.002827578 -0.002840798 -0.002862384 -0.002893601 -0.00293529
 -0.002986743 -0.003048627 -0.00311538 -0.003186909 -0.003253713 -0.003315214 -0.003363808 -0.00339939 -0.003419808 -0.003425539
 -0.003418509 -0.003399472 -0.003372026 -0.003337329 -0.003299795 -0.003261013 -0.003225439 -0.003194936 -0.003173204 -0.003162306
 -0.00316516 -0.00318301 -0.003217878 -0.003268304 -0.00333489 -0.003413127 -0.003502445 -0.003596889 -0.003695673 -0.003792461
 -0.003886588 -0.003972581 -0.004050034 -0.004115945 -0.004170342 -0.004213781 -0.004246708 -0.004272463 -0.00429147 -0.00430722
 -0.004319782 -0.0043309 -0.004340952 -0.004350809 -0.0043624 -0.004377732 -0.004400503 -0.004434533 -0.004482375 -0.004547349
 -0.004627831 -0.004724593 -0.004833032 -0.004952112 -0.005078184 -0.005210424 -0.005346864 -0.005487381 -0.005628684 -0.005770592
 -0.005908838 -0.006043297 -0.00617186 -0.006294779 -0.006413012 -0.006526683 -0.006636936 -0.006743408 -0.006845619 -0.006943382
 -0.007035978 -0.007123784 -0.007206979 -0.007285952 -0.007361238 -0.007432648 -0.007500483 -0.00756356 -0.007621708 -0.007673025
 -0.007717248 -0.007751489 -0.007775101 -0.007786565 -0.007785289 -0.007774074 -0.007752925 -0.007729378 -0.007703831 -0.007683808
 -0.007669217 -0.007663114 -0.007664556 -0.007671418 -0.007682359 -0.007692761 -0.007701492 -0.007703928 -0.007700549 -0.007689537
 -0.007673368 -0.007653779 -0.007632295 -0.007611338 -0.007588042 -0.007562259 -0.007529426 -0.007487533 -0.007437004 -0.007376928
 -0.007312896 -0.007245508 -0.007178459 -0.007112138 -0.007045848 -0.00697961 -0.006913743 -0.006848607 -0.006787574 -0.006730524
 -0.006679076 -0.006632092 -0.006586931 -0.006543264 -0.006498524 -0.006454709 -0.006413455 -0.006376404 -0.006346716 -0.006321802
 -0.006301668 -0.00628138 -0.006258343 -0.006231125 -0.006197788 -0.006163128 -0.006127486 -0.006096636 -0.006071591 -0.006053514
 -0.006042699 -0.006035731 -0.006032407 -0.006028566 -0.006024036 -0.006015631 -0.006003262 -0.005984548 -0.005960008 -0.005929565
 -0.005894568 -0.005857807 -0.005819784 -0.005782885 -0.005745548 -0.00570719 -0.005666281 -0.00562115 -0.005572711 -0.005521024
 -0.005466814 -0.005410996 -0.005350493 -0.005284878 -0.005211314 -0.005128758 -0.005041749 -0.004950332 -0.00486409 -0.004783344
 -0.004711731 -0.004648414 -0.004587383 -0.004527871 -0.004462733 -0.004392828 -0.004317033 -0.004236424 -0.004153269 -0.004066541
 -0.003976145 -0.003879883 -0.003775288 -0.003661817 -0.003538003 -0.003405194 -0.003263679 -0.003114484 -0.00295819 -0.002794368
 -0.002623055 -0.002443579 -0.002255777 -0.002059945 -0.001856042 -0.001645592 -0.00142868 -0.001207043 -0.0009806082 -0.0007495641
 -0.0005134473 -0.0002699598 -1.903458E-05 0.0002414625 0.000509633 0.0007836354 0.001059076 0.001329464 0.001590082 0.001834043
 0.002058281 0.002258922 0.002433837 0.00258182 0.002699053 0.002784469 0.002833737 0.002845391 0.002818966 0.002753502
 0.002655689 0.00252568 0.002374752 0.002203547 0.002024386 0.001838086 0.001656997 0.001482114 0.001325034 0.001186072
 0.001072701 0.0009837267 0.0009205025 0.0008810765 0.0008634597 0.0008653915 0.0008844085 0.0009173437 0.0009617938 0.00101396
 0.00107143 0.001132095 0.001194781 0.001258562 0.001323288 0.001386971 0.001449217 0.001509415 0.001567256 0.001627043
 0.001688984 0.001757345 0.001831577 0.001907708 0.001984515 0.002052722 0.002113412 0.002164423 0.00220914 0.002254351
 0.002301127 0.002355078 0.002413008 0.002473653 0.002534211 0.002590958 0.002646915 0.002701553 0.002761867 0.002830427
 0.00291045 0.003004428 0.003105729 0.003214559 0.003318133 0.003415258 0.003498688 0.003568151 0.003629414 0.003683345
 0.003741844 0.003804652 0.003876958 0.003956929 0.004040932 0.004128272 0.004215069 0.00430287 0.004392814 0.004485036
 0.004581337 0.004677648 0.00477227 0.004859666 0.004936142 0.005000214 0.005049198 0.005089406 0.005120624 0.005154957
 0.005194027 0.005247433 0.005316612 0.00540031 0.00549844 0.005600154 0.005704998 0.005803958 0.005897891 0.005987026
 0.006072218 0.006157104 0.00624047 0.006321428 0.006398474 0.006468154 0.006531619 0.006588181 0.006641081 0.006692526
 0.006744774 0.00679969 0.006857838 0.006919869 0.006985592 0.007055414 0.007127099 0.00720063 0.007272056 0.007340956
 0.007405364 0.007465171 0.007522777 0.007578535 0.007637435 0.007699762 0.007769676 0.007847201 0.007934643 0.008031827
 0.008139695 0.008257513 0.008384761 0.008520178 0.008662526 0.008809819 0.008960687 0.009112042 0.009262266 0.009408112
 0.009547967 0.009680436 0.009804516 0.009921874 0.01003241 0.01013941 0.01024326 0.01034478 0.01044402 0.01053946
 0.01063126 0.01072068 0.0108089 0.01090362 0.01100607 0.01112568 0.01126083 0.01141414 0.01157939 0.01174883
 0.01191425 0.01206334 0.01219115 0.01228889 0.01235803 0.0123962 0.0124091 0.01239789 0.01236863 0.01232245
 0.01226613 0.01220009 0.01213504 0.01207161 0.01202391 0.01199278 0.011988 0.01200934 0.01205623 0.01212691
 0.01221071 0.01230542 0.0123971 0.01248538 0.01256138 0.01262832 0.01268709 0.01274202 0.01279947 0.01285923
 0.01292396 0.01299007 0.01305502 0.01312077 0.01318536 0.01326034 0.01334907 0.01345576 0.01358458 0.0137138
 0.01384219 0.01394581 0.01402312 0.01406859 0.01408249 0.01406768 0.01402483 0.01395876 0.01387093 0.01376889
 0.01365465 0.01353693 0.01341691 0.01330044 0.01318793 0.01308193 0.01298312 0.01289302 0.01281142 0.01273936
 0.01267366 0.01261362 0.01255545 0.01249739 0.01244073 0.01238505 0.01233479 0.01229064 0.01225199 0.01221891
 0.0121844 0.01214819 0.0121047 0.01205436 0.01199727 0.01193396 0.01186661 0.01179529 0.01172128 0.01164434
 0.01156483 0.01148187 0.01139463 0.01130204 0.01120205 0.01109701 0.01098642 0.01087724 0.01077192 0.01067604
 0.01059211 0.01052001 0.0104606 0.01040937 0.01036613 0.0103246 0.01028434 0.0102423 0.01019878 0.01015924
 0.01012473 0.01010566 0.01010184 0.01011894 0.01015422 0.01020403 0.01026472 0.01032806 0.01039203 0.0104504
 0.0105039 0.01055054 0.01059333 0.01063322 0.01067346 0.0107157 0.01076138 0.01081145 0.01086526 0.01092317
 0.01098249 0.01104341 0.01109869 0.011148 0.01117931 0.01119214 0.01117715 0.01113568 0.01107174 0.0109893
 0.01090667 0.01082655 0.01076722 0.01072468 0.0107018 0.01068937 0.01067592 0.01065762 0.01062404 0.01058446
 0.01053979 0.01050439 0.01048587 0.01048719 0.01051337 0.01055012 0.01059667 0.01063409 0.0106595 0.01066701
 0.01065561 0.01063902 0.01061813 0.01061085 0.01061629 0.01063665 0.01066861 0.01069885 0.0107263 0.01074054
 0.01074399 0.01073665 0.01072011 0.01069647 0.0106667 0.01063099 0.01059448 0.01056003 0.01053239 0.01051613
 0.01050566 0.01050099 0.01049319 0.01047852 0.01046514 0.01045202 0.01046416 0.01050337 0.01058424 0.01070629
 0.01085373 0.01102319 0.01118067 0.0113249 0.01143079 0.01150246 0.01153709 0.01154229 0.01153103 0.01150914
 0.01149128 0.01147533 0.01146654 0.01145489 0.01143537 0.01140132 0.01134593 0.01127741 0.0111946 0.01111597
 0.01104518 0.01099311 0.01096246 0.01094884 0.01095218 0.01096651 0.01099176</values></Ydata></AB><ScSm><Ydata ylabel="Single channel"><values byteorder="INTEL" format="FLOAT32" numvalues="1814"> 0.08961942 0.08973351 0.08985843 0.09000207 0.0901617 0.09032631 0.0904838 0.09062824 0.09075906 0.09087341
 0.09096964 0.09106155 0.09117626 0.09132849 0.09150311 0.09166643 0.09179306 0.09188791 0.0919864 0.09212007
 0.09227325 0.09238397 0.09240051 0.09233723 0.09226765 0.09225956 0.09233066 0.09248309 0.09274355 0.09309638
 0.09339291 0.0934485 0.0932726 0.09309764 0.09312278 0.09331696 0.09351365 0.09359428 0.09353397 0.09338976
 0.09332794 0.09356992 0.09419029 0.09495465 0.09539536 0.0950829 0.09391087 0.09224831 0.09085147 0.09046885
 0.0912998 0.09276995 0.0939623 0.09435798 0.09411536 0.09367404 0.09329925 0.09307921 0.09312655 0.09355487
 0.09428985 0.09499854 0.09522076 0.09467025 0.0935594 0.09256011 0.09225644 0.0926921 0.09357686 0.09463687
 0.09535474 0.09471121 0.09209134 0.08865155 0.08695224 0.08858883 0.09252115 0.09615541 0.09770447 0.09712663
 0.09536937 0.09353746 0.09260546 0.09308378 0.09468371 0.09660366 0.0981656 0.09899709 0.09886523 0.09778601
 0.09624155 0.09497374 0.09457266 0.09530908 0.0970242 0.09895974 0.1000613 0.09981093 0.09861638 0.09728438
 0.09642725 0.09643533 0.09750986 0.09942137 0.1015325 0.1032692 0.1044168 0.1049909 0.1050987 0.1049204
 0.1046216 0.1043261 0.1042343 0.1045206 0.104989 0.1051166 0.1046349 0.1038931 0.103505 0.1037171
 0.1041975 0.1044371 0.1042542 0.1036971 0.1025253 0.1003297 0.09737273 0.0947147 0.09317688 0.09276864
 0.09336403 0.09504782 0.0972983 0.09874336 0.09854455 0.09752917 0.09729426 0.09848017 0.1003724 0.101941
 0.1028398 0.1034591 0.1043172 0.105474 0.106387 0.1063113 0.1050602 0.1034748 0.1028645 0.1037413
 0.105323 0.1064959 0.1069848 0.1073135 0.1078804 0.1083805 0.1080721 0.1065715 0.1045188 0.1033514
 0.1041181 0.1064405 0.1087136 0.109319 0.1077739 0.1049903 0.1025127 0.1014097 0.1018574 0.1035806
 0.1062336 0.1092366 0.1116876 0.1128218 0.1125398 0.1113818 0.109941 0.1083115 0.1063056 0.1043167
 0.1035426 0.1048619 0.1077038 0.1105044 0.1121496 0.1125897 0.1122011 0.1110323 0.1089096 0.1062167
 0.1042373 0.1042002 0.1058782 0.107655 0.1082445 0.1078898 0.1076169 0.1078323 0.1081088 0.1080521
 0.1078884 0.1081441 0.1089766 0.1099761 0.1106023 0.1106804 0.1104359 0.110175 0.1099955 0.1097314
 0.1092069 0.1086296 0.1085749 0.109381 0.110694 0.1118227 0.1124196 0.1126199 0.1126242 0.1123604
 0.1116115 0.1104472 0.1094282 0.109207 0.1098917 0.1109673 0.1118428 0.1122881 0.1123712 0.1122353
 0.1120047 0.1117518 0.1115125 0.1113721 0.1114507 0.1117417 0.1120672 0.112256 0.1122833 0.112202
 0.112031 0.1117626 0.1114365 0.1111598 0.1110397 0.1110987 0.1112696 0.1114632 0.1116087 0.1116453
 0.1115433 0.1113437 0.1111317 0.1109604 0.1108333 0.1107529 0.1107388 0.1107906 0.1108636 0.1109022
 0.1108858 0.1108288 0.1107461 0.1106392 0.1105147 0.1103966 0.1103154 0.1102894 0.110309 0.1103409
 0.1103642 0.1103967 0.1104561 0.1105069 0.1104902 0.1104001 0.1102935 0.1102276 0.1102159 0.1102378
 0.1102619 0.1102554 0.1101897 0.1100603 0.109912 0.109825 0.1098544 0.1099893 0.1101802 0.1103816
 0.1105555 0.1106718 0.1107335 0.1107749 0.1108182 0.1108511 0.1108572 0.1108508 0.1108743 0.1109648
 0.1111191 0.1112908 0.1114308 0.1115224 0.1115764 0.1116172 0.1116792 0.1117817 0.1118931 0.1119571
 0.1119654 0.1119741 0.1120353 0.1121356 0.1122186 0.112251 0.1122541 0.1122745 0.1123344 0.1124168
 0.1124946 0.112562 0.1126333 0.1127183 0.1127987 0.112835 0.1128054 0.1127374 0.1126822 0.1126621
 0.1126616 0.112668 0.1126922 0.1127424 0.112797 0.1128204 0.1127999 0.112758 0.1127252 0.1127046
 0.1126726 0.1126113 0.1125297 0.1124517 0.1123918 0.1123464 0.1123007 0.112241 0.1121624 0.1120672
 0.1119593 0.1118419 0.1117187 0.1115974 0.1114968 0.1114411 0.1114304 0.1114168 0.111334 0.1111599
 0.1109408 0.1107479 0.1106175 0.1105335 0.1104547 0.1103519 0.1102257 0.1100979 0.1099909 0.1099128
 0.1098568 0.1098105 0.1097714 0.1097537 0.1097753 0.1098294 0.109879 0.1098882 0.1098581 0.1098224
 0.1098123 0.109835 0.1098793 0.1099306 0.1099829 0.1100439 0.1101235 0.110214 0.1102922 0.1103481
 0.1104002 0.1104765 0.1105916 0.1107432 0.1109147 0.1110758 0.1112009 0.111298 0.1114049 0.1115501
 0.111728 0.1119176 0.1121103 0.1123114 0.1125252 0.1127518 0.1129934 0.1132566 0.1135444 0.113851
 0.1141625 0.1144655 0.1147581 0.1150539 0.1153737 0.1157293 0.1161139 0.116507 0.1168901 0.1172597
 0.1176261 0.1179996 0.1183801 0.1187648 0.1191599 0.1195754 0.1200091 0.1204457 0.1208729 0.1212926
 0.1217134 0.1221391 0.1225669 0.1229954 0.123433 0.1238912 0.1243657 0.1248285 0.1252507 0.1256342
 0.126011 0.1264121 0.1268435 0.1272871 0.1277143 0.128104 0.1284604 0.1288126 0.1291857 0.1295741
 0.1299561 0.1303298 0.1307199 0.1311434 0.1315787 0.1319801 0.1323208 0.1326189 0.1329153 0.1332301
 0.133547 0.1338394 0.1341051 0.1343651 0.134636 0.1349167 0.1352035 0.1355038 0.1358237 0.1361488
 0.1364528 0.1367239 0.1369732 0.137215 0.1374495 0.1376649 0.1378519 0.1380172 0.1381824 0.138366
 0.1385647 0.138763 0.1389583 0.1391665 0.1393995 0.1396535 0.1399249 0.140223 0.140554 0.1409022
 0.141244 0.1415803 0.1419348 0.142313 0.1426809 0.1429997 0.1432693 0.1435212 0.1437797 0.1440508
 0.1443431 0.1446736 0.1450473 0.1454449 0.1458334 0.1461876 0.1465065 0.1468149 0.1471401 0.1474791
 0.1477972 0.1480654 0.1482924 0.1485136 0.148759 0.1490329 0.1493168 0.1495862 0.1498248 0.1500244
 0.1501731 0.1502544 0.1502644 0.150219 0.1501334 0.1499971 0.1497799 0.149459 0.1490284 0.1484826
 0.1478075 0.1469972 0.1460809 0.1451343 0.1442667 0.1435893 0.1431855 0.1430964 0.1433242 0.1438324
 0.1445411 0.1453305 0.1460636 0.1466157 0.1468935 0.1468448 0.1464665 0.1458022 0.1449254 0.1439177
 0.1428528 0.1417872 0.1407598 0.1398135 0.1390304 0.1385416 0.1384934 0.1390012 0.1401232 0.1418418
 0.1440325 0.146459 0.1488415 0.1509689 0.1527668 0.1542732 0.1555682 0.1567243 0.1577917 0.1587981
 0.1597502 0.1606436 0.1614761 0.1622486 0.1629553 0.1635798 0.1641012 0.1645026 0.164778 0.164937
 0.1650061 0.1650233 0.1650282 0.1650522 0.1651012 0.1651392 0.1650941 0.1648897 0.1644843 0.1638917
 0.1631873 0.1625137 0.1620837 0.1621543 0.1629397 0.1644856 0.1666031 0.168943 0.1711629 0.1730551
 0.1745617 0.1757228 0.1766229 0.1773518 0.1779772 0.1785376 0.1790549 0.1795449 0.1800179 0.1804768
 0.1809211 0.1813533 0.1817799 0.1822068 0.1826346 0.1830576 0.183471 0.183879 0.1842932 0.1847225
 0.1851629 0.1856008 0.1860273 0.1864475 0.1868691 0.187288 0.1876924 0.1880796 0.1884602 0.1888463
 0.1892422 0.1896463 0.1900505 0.190442 0.1908108 0.1911588 0.1914968 0.1918328 0.1921688 0.1925055
 0.1928436 0.1931812 0.1935149 0.1938444 0.1941738 0.194505 0.1948318 0.195144 0.1954388 0.1957238
 0.1960104 0.1963032 0.1965985 0.1968922 0.1971851 0.1974828 0.1977902 0.1981053 0.1984202 0.1987258
 0.1990181 0.1992996 0.1995775 0.1998593 0.2001488 0.2004455 0.2007457 0.2010449 0.2013391 0.2016265
 0.2019091 0.2021901 0.2024703 0.2027496 0.2030294 0.2033103 0.2035893 0.2038625 0.2041298 0.2043972
 0.2046723 0.2049573 0.2052467 0.205532 0.2058082 0.2060755 0.2063367 0.206595 0.2068538 0.2071151
 0.2073792 0.207646 0.2079142 0.2081812 0.2084455 0.2087102 0.2089791 0.2092521 0.2095259 0.2097982
 0.2100679 0.2103352 0.2106006 0.2108652 0.21113 0.2113946 0.2116571 0.2119154 0.2121713 0.2124298
 0.2126928 0.2129575 0.2132199 0.2134784 0.2137339 0.2139883 0.2142446 0.2145037 0.2147632 0.2150197
 0.2152721 0.2155221 0.2157733 0.2160286 0.2162859 0.2165392 0.2167867 0.2170327 0.2172825 0.2175376
 0.2177947 0.2180499 0.2183034 0.2185602 0.2188231 0.2190873 0.2193465 0.2195993 0.2198492 0.2200993
 0.2203502 0.2206 0.2208472 0.2210955 0.2213509 0.2216135 0.2218779 0.2221406 0.222402 0.2226627
 0.2229235 0.2231842 0.2234418 0.2236937 0.2239442 0.2242011 0.2244682 0.2247437 0.2250243 0.225304
 0.2255774 0.2258433 0.2261038 0.2263586 0.2266078 0.2268536 0.2270964 0.2273356 0.2275732 0.2278129
 0.2280552 0.2282977 0.2285376 0.2287722 0.229003 0.2292392 0.2294888 0.2297516 0.2300222 0.2302946
 0.2305613 0.2308188 0.2310722 0.2313285 0.2315894 0.231855 0.2321266 0.2324023 0.2326783 0.2329541
 0.2332291 0.2335004 0.2337701 0.2340449 0.2343251 0.2346042 0.2348791 0.2351504 0.2354194 0.2356895
 0.2359637 0.2362381 0.2365098 0.2367828 0.2370588 0.2373334 0.237608 0.2378894 0.2381763 0.2384602
 0.2387376 0.2390085 0.2392744 0.2395447 0.2398294 0.2401234 0.2404152 0.2407016 0.2409821 0.2412533
 0.2415189 0.241788 0.2420608 0.2423334 0.2426078 0.2428809 0.2431429 0.2433946 0.2436443 0.2438859
 0.2440935 0.244208 0.2440752 0.24337 0.2415524 0.23788 0.2315572 0.2220537 0.2094247 0.1943978
 0.1781726 0.1620494 0.1470794 0.13392 0.1229157 0.1142391 0.1079921 0.1042938 0.1033473 0.1055349
 0.1115488 0.1219775 0.1357902 0.1490348 0.1563246 0.1549215 0.1472179 0.1385673 0.1329281 0.1309295
 0.131228 0.1325004 0.1342239 0.1365258 0.1397246 0.1438585 0.1486435 0.1539385 0.1600107 0.1671286
 0.1750411 0.1830729 0.1906944 0.1978651 0.2048293 0.2116924 0.2182614 0.2242309 0.2294192 0.233826
 0.237567 0.2407992 0.2436611 0.2462459 0.2486191 0.2508207 0.2528158 0.2544741 0.2556489 0.2562938
 0.2565174 0.2565316 0.256535 0.2566257 0.2568142 0.2570888 0.2574435 0.2578693 0.2583551 0.2588917
 0.2594625 0.2600446 0.2606229 0.2611909 0.2617413 0.2622681 0.2627698 0.2632441 0.2636901 0.2641146
 0.2645233 0.2649133 0.2652842 0.2656452 0.2660041 0.2663608 0.2667124 0.2670548 0.267381 0.2676885
 0.2679811 0.2682592 0.2685212 0.2687724 0.2690213 0.2692693 0.2695131 0.269752 0.2699866 0.2702185
 0.2704523 0.2706909 0.2709321 0.2711715 0.271406 0.271633 0.271854 0.2720757 0.2723008 0.2725233
 0.2727401 0.2729583 0.2731848 0.273417 0.2736457 0.2738662 0.2740851 0.2743171 0.2745693 0.2748314
 0.2750895 0.2753428 0.2755978 0.2758547 0.2761119 0.2763726 0.276639 0.2769084 0.2771785 0.2774477
 0.2777081 0.2779475 0.2781608 0.2783564 0.2785514 0.2787597 0.2789818 0.2792091 0.2794365 0.2796656
 0.2798963 0.2801247 0.2803485 0.2805697 0.2807918 0.2810227 0.2812718 0.2815396 0.2818171 0.2820974
 0.2823806 0.2826664 0.2829507 0.2832324 0.2835115 0.2837836 0.2840432 0.2842946 0.2845563 0.2848501
 0.2851793 0.2855208 0.2858445 0.2861422 0.286429 0.2867234 0.2870342 0.2873535 0.2876515 0.2878972
 0.2881025 0.2883287 0.2886309 0.2890052 0.289402 0.2897767 0.290118 0.2904373 0.2907456 0.2910411
 0.2913117 0.2915486 0.2917644 0.2919998 0.2922969 0.2926558 0.2930304 0.2933775 0.2936907 0.2939813
 0.2942548 0.2945169 0.2947652 0.2949628 0.295073 0.2951433 0.2953076 0.2956599 0.2961477 0.2966269
 0.2970085 0.2973156 0.2976071 0.2979004 0.2981819 0.2984217 0.2985407 0.2984506 0.2982134 0.298097
 0.2983572 0.2989804 0.2997161 0.300332 0.3007682 0.3010811 0.3013394 0.30158 0.3017867 0.3018895
 0.3018389 0.3017218 0.3017537 0.3020821 0.3026178 0.3031317 0.3034981 0.3037668 0.3040288 0.3043108
 0.3045642 0.3046532 0.3044127 0.3038756 0.3034252 0.3035483 0.3043648 0.3054888 0.3064121 0.3069547
 0.3072679 0.3074811 0.3075133 0.3072274 0.3066006 0.3057343 0.3049036 0.3046007 0.3052121 0.3065236
 0.3078089 0.3085597 0.308923 0.3093309 0.3099369 0.3105514 0.3109443 0.3110506 0.3109329 0.3106478
 0.3102176 0.3097768 0.3096589 0.3101627 0.3112029 0.3123298 0.3131481 0.3136273 0.313924 0.3139267
 0.3131363 0.3112609 0.3089973 0.3078531 0.3088073 0.3112797 0.313758 0.31529 0.3160026 0.3163956
 0.3166929 0.3167785 0.3161821 0.3142338 0.3109769 0.3079642 0.3073158 0.3096286 0.3133069 0.3161087
 0.3168595 0.315692 0.3134708 0.3113908 0.310556 0.3113839 0.3134283 0.3158323 0.3178439 0.3190258
 0.3192858 0.3188312 0.3180812 0.3175541 0.3175394 0.3176592 0.3171071 0.3156971 0.3142281 0.3132559
 0.3120736 0.309868 0.307532 0.3071018 0.3092363 0.3122651 0.3141291 0.3144871 0.31433 0.313985
 0.3123131 0.3082094 0.3026513 0.2986591 0.2987072 0.3022542 0.30628 0.30825 0.3081119 0.3074304
 0.3071856 0.3067381 0.3047857 0.301214 0.2978142 0.2966863 0.2978903 0.2993603 0.2991921 0.2969803
 0.2928233 0.2868407 0.2807375 0.2781276 0.2813382 0.2885083 0.2952351 0.2983765 0.2970331 0.2912324
 0.2822377 0.2738932 0.2708945 0.2744579 0.2809005 0.2852038 0.2849686 0.2805191 0.2728547 0.2631977
 0.2540265 0.2487719 0.2496318 0.2558079 0.263683 0.2684073 0.2663789 0.2581208 0.2489622 0.2450242
 0.2474894 0.2518505 0.2532212 0.2509203 0.2474476 0.2450549 0.2444982 0.2454872 0.2470278 0.2482056
 0.2488976 0.2484677 0.244453 0.2353154 0.2245435 0.2187935 0.2210001 0.2279955 0.2356044 0.2428101
 0.2494268 0.2531081 0.2518614 0.2480412 0.2468542 0.2508221 0.2573893 0.2621817 0.2634292 0.2626798
 0.2619195 0.2611637 0.2594763 0.2575844 0.2578961 0.2615097 0.2665052 0.2700369 0.2711932 0.2709906
 0.2704567 0.2697695 0.2687897 0.2674894 0.2659149 0.2642008 0.2625602 0.2610626 0.2595895 0.2580857
 0.2564892 0.2541814 0.2500572 0.2439804 0.2380048 0.2349653 0.2355233 0.2377557 0.2398988 0.2416146
 0.2417256 0.2372847 0.2274205 0.2167665 0.212271 0.2164903 0.2255638 0.2335497 0.2371194 0.2359597
 0.2307612 0.2229142 0.2159508 0.2149305 0.2225435 0.2362952 0.2507399 0.2620644 0.2695285 0.2733836
 0.2734509 0.2702067 0.2659903 0.2640813 0.266462 0.2725256 0.2795482 0.2839478 0.2828384 0.2764172
 0.2695687 0.2689058 0.2761851 0.2859475 0.2915403 0.292096 0.291542 0.2923903 0.2935823 0.2939322
 0.2945533 0.2969375 0.3004676 0.3029208 0.3024582 0.2983962 0.2911897 0.2829654 0.2771952 0.2759859
 0.2778089 0.2793021 0.2787452 0.2761098 0.2709455 0.2632986 0.2563755 0.2548304 0.2594802 0.2660923
 0.270224 0.2713703 0.2716104 0.2718632 0.2708124 0.2671302 0.2618428 0.2578931 0.2572586 0.2590854
 0.2610958 0.2620558 0.2619767 0.260696 0.2578834 0.2545586 0.2532234 0.2556555 0.2610199 0.2666856
 0.2706411 0.2727217 0.2738543 0.2748427 0.2759225 0.2769036 0.2775822 0.2783303 0.2801301 0.2835027
 0.2875633 0.2908145 0.2928737 0.2947941 0.2975923 0.301007 0.3039027 0.3055339 0.3062096 0.306912
 0.3084176 0.3106615 0.3128009 0.3139574 0.3140774 0.3140858 0.315046 0.3171347 0.3195722 0.3215066
 0.3227328 0.3235716 0.3243752 0.3252434 0.3259836 0.3262816 0.3261206 0.3260439 0.3267475 0.3283447
 0.3302174 0.3316335 0.3323449 0.3325531 0.3324995 0.3322402 0.3317528 0.3311167 0.3305241 0.3301364
 0.3299711 0.329931 0.329909 0.3298509 0.3297586 0.3296781 0.3296686 0.3297579 0.3299296 0.3301548
 0.330409 0.3306539 0.3308431 0.330963 0.3310387 0.331082 0.3310564 0.3309038 0.3305796 0.3300489
 0.3292726 0.3282154 0.326852 0.3251447 0.3230455 0.3206062 0.318154 0.3163248 0.3157935 0.3168471
 0.3191633 0.3219972 0.324605 0.3265654 0.3278221 0.3285297 0.3288833 0.3290284 0.3290449 0.3289657
 0.3288057 0.328585 0.328331 0.3280686 0.3278169 0.3275921 0.3274044 0.32725 0.3271077 0.3269419
 0.3267134 0.3263945 0.3259787 0.325476 0.3248961 0.3242316 0.3234551 0.3225415 0.3215016 0.3203924
 0.3192885 0.3182403 0.3172498 0.3162773 0.3152735 0.3141988 0.3130051 0.3116211 0.3100188 0.3083122
 0.306729 0.3054274 0.3043562 0.3033224 0.3021692 0.3008589 0.2994274 0.2979219 0.2963828 0.2948374
 0.2932895 0.2917218 0.2901099 0.2884302 0.2866662 0.2848138 0.2828781 0.2808658 0.2787869 0.2766553
 0.2744606 0.2721286 0.269518 0.2664662 0.2628442 0.2585819 0.2536722 0.2481814 0.2422602 0.2361277
 0.2300199 0.2241437 0.2186655 0.2137241 0.2094393 0.2059065 0.2031903 0.2013243 0.2003203 0.2001785
 0.2008889 0.2024195 0.2047006 0.2076159 0.2110066 0.214684 0.2184434 0.2220852 0.2254608 0.2285253
 0.2313375 0.23398 0.2364755 0.2387849 0.2408671 0.2427122 0.2443219 0.2456863 0.2467967 0.247671
 0.2483585 0.2489197 0.2494011 0.2498232 0.2501862 0.2504881 0.2507408 0.2509712 0.2512082 0.2514696
 0.2517584 0.2520703 0.2524015 0.252757 0.253154 0.2536177 0.2541671 0.254805 0.2555205 0.2563027
 0.2571532 0.258086 0.2591234 0.2602935 0.2616241 0.2631283 0.2647941 0.2665828 0.2684258 0.2702214
 0.271853 0.2732275 0.2743011 0.2750729 0.2755596 0.2757787 0.2757494 0.2755008 0.2750727 0.274506
 0.2738342 0.2730853 0.2722814 0.2714317 0.2705295 0.2695625 0.2685335 0.2674673 0.2663956 0.2653354
 0.2642887 0.2632593 0.2622558 0.2612806 0.2603307 0.2594106 0.2585298 0.2576908 0.2568908 0.2561289
 0.2554022 0.2546916 0.2539573 0.2531465 0.2522121 0.2511308 0.2499006 0.2485235 0.2469996 0.2453377
 0.2435551 0.2416658 0.2396767 0.2375942 0.2354257 0.2331753 0.2308404 0.2284144 0.2259084 0.2233763
 0.2209075 0.2185835 0.2164419 0.214475 0.2126482 0.2109227 0.2092728 0.2076838 0.2061437 0.2046471
 0.2032 0.201808 0.2004704 0.1991916 0.1979846 0.1968589 0.1958197 0.1948748 0.1940285 0.1932727
 0.1925947 0.1919887 0.1914642 0.1910585 0.1908225 0.1907676 0.190835 0.1909338 0.1910046 0.1910432
 0.1910823 0.1911549 0.1912642 0.1913854 0.1914856 0.1915192 0.1914111 0.1910699 0.1904127 0.1893739
 0.1879169 0.1860651 0.1839107 0.1815935 0.1792778 0.1771268 0.1752657 0.1737595 0.172612 0.1717644
 0.1711157 0.1705884 0.1701799 0.1699468 0.1699504 0.1701902 0.17055 0.170841 0.1709665 0.1710335
 0.1712618 0.1717969 0.1726208 0.1735924 0.1745462 0.175376 0.1760495 0.1765649 0.1769312 0.1771749
 0.1773166 0.1773452 0.1772448 0.1770222 0.1766891 0.1762523 0.1757309 0.1751412 0.1744734 0.1737144
 0.1728674 0.1719305 0.1708954 0.169763 0.1685159 0.1671154 0.1656044 0.1641904 0.1631712 0.1627725
 0.1630313 0.1637796 0.164762 0.1658055 0.1668415 0.1677792 0.1685063 0.1690817 0.1698194 0.1710772
 0.1729515 0.1751739 0.1772957 0.1789724 0.1800753 0.1805969 0.1805727 0.1800809 0.1791857 0.1778797
 0.1761722 0.1741742 0.1720218 0.1698192 0.1676895 0.1657498 0.1640456 0.1625987 0.1614314 0.160553
 0.1600239 0.1595692 0.1576467 0.1519892 0.1428193 0.1349286 0.134064 0.1407412 0.1495374 0.1549195
 0.1559472 0.1549444 0.1538325 0.1530106 0.152392 0.1520458 0.1520354 0.1522709 0.1525424 0.1526198
 0.1523956 0.1518789 0.1509555 0.1491577 0.1456432 0.1394904 0.1303791 0.1192289 0.1080089 0.09869276
 0.09228376 0.08860239 0.08669949 0.08551621 0.08449131 0.08376187 0.08382004 0.08500399 0.08730332 0.09050613
 0.09435736 0.09853244 0.1025821 0.1060715 0.1088119 0.1108746 0.1123796 0.1133643 0.1138503 0.1139084
 0.1136278 0.1130864 0.1123501 0.1114448 0.110338 0.1090008 0.1075057 0.106057 0.1049007 0.1041657
 0.1037871 0.1036056 0.1035155 0.1034929 0.1035336 0.1036251 0.1037582 0.1039323 0.1041606 0.1044623
 0.1048239 0.1051823 0.1054683 0.1056537 0.105748 0.1057618 0.1056716 0.1054307 0.1050476 0.1046199
 0.1042041 0.1036717 0.1028104 0.101604 0.1003482 0.09946252 0.09919734 0.09948449 0.1000142 0.1004619
 0.1006861 0.1007463 0.100755 0.1007207</values></Ydata></ScSm><ScRf><Ydata ylabel="Single channel"><values byteorder="INTEL" format="FLOAT32" numvalues="1820"> 0.07046346 0.0705947 0.07070985 0.07080831 0.07089569 0.07098409 0.07108747 0.0712118 0.07135056 0.0714891
 0.07161435 0.07172292 0.07181939 0.07190705 0.07198761 0.07207166 0.07217722 0.07231128 0.07245915 0.0725949
 0.07270053 0.07278073 0.07286306 0.0729728 0.07309885 0.07319306 0.07321385 0.07317048 0.07311937 0.0731147
 0.07317243 0.07329483 0.07350272 0.0737846 0.07402418 0.07407425 0.07393971 0.07380451 0.07382895 0.07398923
 0.07415149 0.07422085 0.07417987 0.07407558 0.07403679 0.0742337 0.07472414 0.07532717 0.07567714 0.07543311
 0.07450639 0.07318686 0.0720755 0.07177004 0.0724334 0.07361253 0.0745773 0.07490912 0.07472803 0.07438228
 0.0740848 0.07390793 0.07394321 0.07428359 0.07487202 0.07544318 0.07562822 0.07519627 0.07431506 0.07352141
 0.07328524 0.07364504 0.07436793 0.07522961 0.07581321 0.07530476 0.0732124 0.07045798 0.06909035 0.07039451
 0.07354635 0.07646877 0.07772291 0.07727 0.0758699 0.07440998 0.0736702 0.0740571 0.0753399 0.07688057
 0.0781395 0.07881752 0.0787235 0.07786621 0.07663143 0.07561629 0.07529683 0.07589112 0.07727157 0.0788306
 0.07972308 0.07953176 0.07858104 0.0775184 0.0768373 0.07685073 0.07771769 0.07925372 0.0809499 0.08234827
 0.0832781 0.08375256 0.08385737 0.08373585 0.08351782 0.08329808 0.08323342 0.08346446 0.0838397 0.08394518
 0.08356631 0.08298084 0.08267911 0.08285816 0.08325171 0.08345091 0.08331068 0.08287235 0.08194457 0.08019675
 0.07783587 0.07571308 0.07449099 0.0741779 0.07467066 0.07603753 0.07786196 0.07904075 0.07889526 0.07808721
 0.07790262 0.07886133 0.08039206 0.08166669 0.08240561 0.08292162 0.08363116 0.08458198 0.08533667 0.08529522
 0.084306 0.08304469 0.08256601 0.08328497 0.08457455 0.08553911 0.0859569 0.08624916 0.08673454 0.08716425
 0.08694054 0.08575782 0.08413507 0.08323078 0.08388799 0.08580002 0.08767141 0.08819444 0.08697666 0.08475508
 0.0827817 0.08192452 0.0823282 0.08377096 0.08597401 0.08846787 0.0905195 0.09150337 0.091333 0.09044489
 0.0893233 0.08804813 0.0864666 0.08489813 0.08432131 0.08545871 0.08784878 0.09021311 0.09163597 0.09207248
 0.09182996 0.09094781 0.0892788 0.08713257 0.08556545 0.08559802 0.0870532 0.08860028 0.08917077 0.08895794
 0.08880983 0.08906904 0.08938587 0.08943112 0.08938775 0.08969184 0.09047615 0.09140027 0.09201109 0.09216063
 0.09203916 0.09190663 0.09184494 0.09171145 0.09135834 0.09096348 0.09101161 0.09178309 0.09297648 0.09401153
 0.09460041 0.09486094 0.09496234 0.0948399 0.09430508 0.09341241 0.09263638 0.09253351 0.09320112 0.09420487
 0.09504193 0.09551495 0.09567995 0.09565645 0.09554908 0.0954228 0.09531356 0.09529392 0.09546013 0.09580193
 0.09616799 0.09641437 0.09652056 0.09653263 0.09646867 0.09632367 0.09613141 0.09598222 0.09596695 0.09610513
 0.09633996 0.09659556 0.09681028 0.09692927 0.09692383 0.09683028 0.096727 0.09666414 0.09664427 0.09666431
 0.09673561 0.09685555 0.09698842 0.09709087 0.09714696 0.09716828 0.09716856 0.09715205 0.09712458 0.09710301
 0.09711054 0.09716322 0.09725365 0.09735356 0.09744783 0.097555 0.09768727 0.09780543 0.09785253 0.097827
 0.09778726 0.09778777 0.09783722 0.09791331 0.09798953 0.09804124 0.09804516 0.09799582 0.09793045 0.09791882
 0.09800979 0.09819502 0.09843215 0.09867999 0.09890081 0.09906372 0.09916987 0.09925248 0.09933585 0.0994126
 0.09946937 0.09951837 0.09959633 0.09973565 0.09993317 0.1001475 0.1003326 0.1004692 0.1005653 0.1006476
 0.1007544 0.1009042 0.10106 0.1011612 0.1012012 0.1012417 0.1013373 0.1014713 0.1015831 0.1016398
 0.1016665 0.1017114 0.1017964 0.1019047 0.1020103 0.1021084 0.1022159 0.1023439 0.10247 0.1025463
 0.1025456 0.1024966 0.1024569 0.1024551 0.1024801 0.1025191 0.102579 0.1026628 0.1027452 0.102791
 0.1027932 0.1027811 0.1027875 0.1028121 0.1028248 0.1028014 0.1027466 0.1026851 0.1026396 0.1026183
 0.1026122 0.1026012 0.1025678 0.1025093 0.1024351 0.1023564 0.1022781 0.1022045 0.1021523 0.102146
 0.1021841 0.1022145 0.1021656 0.1020123 0.1018035 0.101617 0.1014943 0.1014178 0.1013402 0.1012273
 0.1010787 0.1009173 0.100765 0.1006287 0.1005053 0.1003918 0.1002931 0.1002227 0.1001895 0.1001755
 0.1001371 0.1000421 0.09990463 0.09976973 0.0996687 0.09960055 0.09954971 0.09950586 0.09946881 0.09944634
 0.099445 0.09945627 0.0994596 0.09944568 0.09942822 0.09943033 0.09946863 0.09954832 0.09965606 0.09975728
 0.09982058 0.09985065 0.09988391 0.09994887 0.100044 0.100154 0.1002721 0.1004006 0.1005415 0.1006946
 0.1008611 0.1010446 0.1012473 0.101467 0.1016947 0.1019187 0.1021353 0.1023552 0.1025951 0.1028617
 0.1031456 0.1034299 0.103704 0.1039698 0.1042381 0.1045162 0.104802 0.1050905 0.105384 0.1056902
 0.1060107 0.1063372 0.106662 0.1069848 0.1073085 0.1076335 0.1079587 0.1082874 0.1086302 0.1089972
 0.1093801 0.1097475 0.1100686 0.1103441 0.1106084 0.1108999 0.1112323 0.1115886 0.1119341 0.1122418
 0.1125152 0.1127848 0.1130741 0.1133761 0.113673 0.113971 0.1142992 0.114671 0.1150568 0.1154015
 0.1156725 0.1158894 0.1161032 0.1163444 0.1165989 0.1168366 0.1170525 0.117267 0.1174941 0.1177289
 0.1179689 0.1182264 0.1185084 0.1187952 0.1190567 0.1192831 0.1194886 0.1196866 0.1198727 0.1200306
 0.12015 0.12024 0.1203297 0.1204474 0.1205946 0.1207492 0.1208946 0.1210374 0.1211939 0.1213719
 0.1215737 0.1218014 0.1220507 0.122305 0.1225511 0.1228006 0.1230798 0.123389 0.1236869 0.1239301
 0.1241219 0.1243033 0.1245042 0.1247242 0.124959 0.125218 0.1255067 0.1258109 0.126108 0.1263869
 0.1266574 0.1269419 0.127253 0.1275711 0.1278531 0.1280729 0.1282486 0.1284262 0.1286411 0.1288981
 0.1291786 0.1294609 0.1297316 0.1299821 0.1301963 0.1303554 0.1304594 0.130532 0.1305933 0.1306292
 0.1305997 0.1304723 0.130238 0.1298958 0.1294375 0.128858 0.1281805 0.1274675 0.1268092 0.1262976
 0.126003 0.1259613 0.1261719 0.1265996 0.1271765 0.1278121 0.128412 0.1288902 0.129172 0.1292016
 0.1289616 0.1284837 0.1278306 0.1270679 0.1262492 0.1254156 0.1245998 0.1238424 0.1232185 0.1228455
 0.1228526 0.1233331 0.1243105 0.1257196 0.127404 0.1291513 0.1307719 0.1321697 0.1333496 0.1343653
 0.1352686 0.136095 0.1368715 0.1376159 0.1383302 0.1390061 0.139639 0.1402316 0.1407836 0.1412847
 0.1417165 0.1420606 0.1423085 0.1424699 0.1425679 0.142623 0.1426465 0.1426473 0.1426326 0.1425906
 0.1424816 0.1422581 0.1418943 0.1414056 0.1408573 0.1403696 0.14011 0.1402529 0.1409081 0.1420533
 0.1435292 0.1451117 0.1466074 0.1479009 0.1489498 0.149767 0.1504044 0.150927 0.1513852 0.1518067
 0.1522039 0.1525822 0.1529438 0.1532926 0.1536355 0.1539783 0.1543239 0.1546733 0.1550236 0.1553679
 0.1557011 0.1560275 0.1563589 0.1567038 0.1570582 0.1574095 0.1577514 0.1580938 0.1584488 0.158811
 0.1591598 0.1594836 0.1597915 0.1601027 0.160431 0.1607772 0.1611293 0.161468 0.1617811 0.1620734
 0.1623588 0.1626454 0.1629316 0.1632139 0.1634932 0.1637726 0.1640538 0.1643365 0.1646209 0.1649071
 0.165191 0.1654649 0.1657238 0.1659725 0.1662209 0.1664756 0.1667346 0.1669926 0.1672473 0.1675031
 0.1677682 0.1680453 0.1683265 0.1685982 0.1688532 0.1690955 0.1693352 0.1695798 0.1698306 0.1700855
 0.1703435 0.1706043 0.1708661 0.1711254 0.1713794 0.1716283 0.1718736 0.1721174 0.1723617 0.1726081
 0.1728557 0.1731023 0.1733487 0.1735995 0.1738592 0.1741255 0.1743885 0.1746392 0.174876 0.1751037
 0.1753267 0.1755487 0.1757737 0.1760063 0.1762474 0.1764942 0.1767432 0.1769934 0.1772449 0.1774954
 0.1777408 0.17798 0.1782169 0.1784548 0.1786938 0.1789341 0.1791779 0.1794251 0.1796713 0.1799132
 0.1801521 0.1803907 0.1806297 0.1808697 0.1811118 0.1813569 0.1816032 0.181846 0.1820816 0.1823109
 0.1825384 0.1827671 0.1829982 0.1832332 0.1834724 0.183711 0.1839449 0.1841764 0.1844111 0.1846498
 0.184889 0.1851262 0.185363 0.1856026 0.1858449 0.1860861 0.1863237 0.1865605 0.1868009 0.1870434
 0.187283 0.1875175 0.1877483 0.1879782 0.1882112 0.1884488 0.1886892 0.1889302 0.1891731 0.1894203
 0.189673 0.1899301 0.1901873 0.1904389 0.1906836 0.1909257 0.1911684 0.1914122 0.1916574 0.1919061
 0.1921591 0.1924159 0.1926762 0.1929384 0.1932011 0.1934644 0.1937266 0.1939823 0.1942281 0.1944661
 0.1946973 0.1949209 0.1951388 0.1953557 0.1955751 0.1957997 0.1960309 0.1962654 0.1965002 0.1967377
 0.1969817 0.1972306 0.1974811 0.1977322 0.1979826 0.198232 0.1984828 0.1987357 0.1989876 0.1992389
 0.1994949 0.1997579 0.2000254 0.2002947 0.200563 0.2008267 0.2010876 0.2013524 0.2016224 0.2018924
 0.2021588 0.2024207 0.2026779 0.2029361 0.2032025 0.2034764 0.2037517 0.2040263 0.2043 0.2045713
 0.2048418 0.2051147 0.2053874 0.205656 0.2059227 0.2061896 0.2064548 0.2067219 0.2069996 0.207288
 0.2075791 0.2078667 0.2081465 0.2084172 0.208686 0.2089608 0.2092366 0.2095057 0.2097714 0.2100379
 0.210302 0.2105639 0.2108258 0.2110779 0.2112979 0.2114365 0.2113616 0.2107919 0.2092596 0.2061199
 0.2006781 0.1924676 0.1815331 0.16851 0.1544452 0.1404691 0.1274908 0.1160794 0.1065374 0.09901857
 0.09361093 0.09041535 0.08960673 0.09151682 0.09674761 0.1058165 0.1178389 0.1293863 0.1357685 0.1345882
 0.1279146 0.1204061 0.1155154 0.1137963 0.1140805 0.1152122 0.116732 0.1187502 0.1215497 0.125172
 0.1293717 0.1340205 0.1393437 0.1455745 0.1525009 0.1595413 0.1662329 0.1725328 0.1786475 0.1846696
 0.1904349 0.1956795 0.2002447 0.2041309 0.2074392 0.2103064 0.2128528 0.2151592 0.2172811 0.2192514
 0.2210384 0.2225284 0.2235937 0.2241954 0.2244292 0.2244776 0.2245102 0.2246139 0.2248049 0.225079
 0.2254307 0.2258473 0.2263147 0.2268232 0.2273597 0.2279084 0.2284598 0.2290074 0.2295388 0.2300432
 0.2305201 0.2309718 0.2313995 0.2318082 0.2322039 0.2325864 0.2329552 0.2333161 0.2336749 0.234033
 0.2343888 0.2347377 0.2350718 0.2353854 0.235678 0.2359515 0.236212 0.2364691 0.2367276 0.2369846
 0.2372394 0.2374968 0.2377574 0.2380153 0.2382661 0.2385098 0.2387479 0.2389846 0.2392237 0.2394637
 0.2397012 0.2399389 0.2401812 0.2404273 0.2406724 0.2409139 0.2411517 0.241388 0.241626 0.2418667
 0.2421095 0.2423581 0.2426182 0.2428876 0.2431575 0.2434248 0.2436933 0.2439662 0.2442435 0.2445237
 0.2448044 0.245083 0.2453584 0.2456293 0.2458921 0.2461426 0.2463796 0.2466058 0.2468295 0.2470614
 0.2473044 0.2475508 0.2477934 0.2480345 0.2482801 0.2485322 0.2487873 0.2490396 0.2492868 0.2495359
 0.2497986 0.250077 0.2503631 0.2506506 0.2509405 0.251234 0.2515305 0.2518288 0.2521251 0.2524116
 0.2526847 0.2529529 0.2532339 0.2535437 0.2538826 0.2542311 0.2545657 0.2548804 0.2551882 0.2555048
 0.255836 0.2561706 0.256479 0.2567343 0.2569511 0.257189 0.2575001 0.2578796 0.2582797 0.258659
 0.2590096 0.2593443 0.259671 0.2599837 0.2602699 0.2605232 0.2607566 0.261008 0.2613188 0.2616926
 0.2620855 0.2624512 0.2627808 0.2630897 0.26339 0.2636849 0.2639612 0.2641791 0.2643113 0.2644124
 0.2646084 0.2649806 0.2654761 0.2659616 0.2663556 0.2666786 0.2669857 0.2672963 0.2676019 0.2678764
 0.2680436 0.268016 0.2678474 0.2677869 0.2680755 0.2687035 0.2694383 0.2700614 0.2705146 0.2708512
 0.2711382 0.27141 0.2716495 0.2717916 0.2717936 0.2717376 0.2718191 0.272171 0.2727132 0.2732385
 0.2736308 0.2739328 0.2742283 0.274545 0.2748395 0.2749853 0.2748295 0.2744012 0.2740481 0.2742128
 0.2750061 0.2760804 0.2769758 0.2775292 0.2778789 0.2781414 0.2782384 0.2780415 0.277531 0.2768029
 0.2761093 0.2758974 0.2765188 0.2777796 0.2790201 0.2797752 0.2801738 0.2806049 0.28121 0.2818225
 0.28224 0.2824092 0.2823889 0.2822244 0.2819234 0.2815987 0.2815567 0.2820791 0.2830941 0.2841912
 0.2850079 0.2855171 0.2858634 0.2859446 0.2853032 0.2836716 0.2816845 0.2807166 0.28166 0.2839861
 0.2863179 0.2877925 0.2885321 0.288993 0.2893706 0.2895481 0.2890912 0.2873901 0.2844885 0.2818116
 0.2813049 0.2835189 0.2869907 0.2896591 0.2904381 0.2894455 0.2874822 0.2856574 0.2849894 0.2858561
 0.2878416 0.2901586 0.2921183 0.2933168 0.2936642 0.2933466 0.2927491 0.2923529 0.2924308 0.2926395
 0.292236 0.291045 0.2898 0.2890146 0.2880386 0.2861174 0.2840698 0.2837812 0.2858726 0.288805
 0.2906676 0.2911376 0.2911316 0.2909537 0.2895469 0.2858833 0.2808651 0.2772951 0.2774803 0.2809308
 0.2848454 0.2868642 0.2869359 0.286518 0.2865217 0.2863454 0.2847712 0.2816949 0.2787918 0.2780189
 0.2794216 0.2810629 0.2811633 0.2793418 0.275681 0.2702913 0.2647902 0.2625992 0.2659251 0.2730192
 0.2797262 0.2830691 0.2821792 0.2770649 0.2689224 0.2614249 0.2590686 0.2630252 0.2697725 0.2745048
 0.2749222 0.2713259 0.2646567 0.2560834 0.2480198 0.2438308 0.2456926 0.252843 0.2617107 0.2674533
 0.2664366 0.2591539 0.2509486 0.2479868 0.2514601 0.2568022 0.259056 0.2575336 0.2547895 0.2531392
 0.2533802 0.2552208 0.2576129 0.2595806 0.2609715 0.2610795 0.2572661 0.247878 0.2365925 0.2304683
 0.2326669 0.2399077 0.2478217 0.2553516 0.2623049 0.2661948 0.2648855 0.2608138 0.2594311 0.2633795
 0.2699769 0.2746471 0.275565 0.2743954 0.2732615 0.2722167 0.2702996 0.2682615 0.2685973 0.2724446
 0.2778025 0.2817012 0.2831784 0.2832826 0.2830834 0.2827697 0.2821985 0.2813374 0.2802262 0.2789968
 0.2778633 0.2768872 0.2759305 0.2749303 0.2738293 0.2719726 0.268158 0.2621976 0.2562553 0.2533563
 0.2542128 0.2567741 0.2591741 0.2610825 0.2612475 0.2564856 0.245842 0.2343156 0.2294199 0.2339184
 0.243622 0.2520872 0.2557108 0.2541726 0.2482457 0.2394347 0.2315001 0.2298115 0.2372126 0.2510389
 0.2655048 0.2765933 0.2835893 0.2868419 0.2862152 0.2822189 0.2772903 0.2748329 0.2768792 0.2827547
 0.2895935 0.2936719 0.2920264 0.2848946 0.2773379 0.2761863 0.2832687 0.2929814 0.2984672 0.2987939
 0.2979663 0.2985715 0.2995589 0.2997458 0.3002915 0.3027411 0.3064854 0.309266 0.3092003 0.3055735
 0.2988332 0.291144 0.2860488 0.285664 0.288341 0.2905561 0.2905272 0.2882515 0.2832928 0.2757414
 0.2689879 0.2679083 0.2733251 0.2807629 0.2855495 0.2871678 0.2878128 0.2884406 0.287645 0.2840154
 0.2786415 0.274645 0.274123 0.2761708 0.278374 0.2794237 0.2793272 0.2778976 0.2747592 0.2709689
 0.2691652 0.2712252 0.276252 0.2814438 0.2846666 0.2857593 0.2857262 0.2854427 0.2851817 0.2847716
 0.2840284 0.2833592 0.2837932 0.2858853 0.2887562 0.2908964 0.291914 0.2928597 0.2947498 0.2973243
 0.2994479 0.3003671 0.3003706 0.3004164 0.3012668 0.302862 0.3043791 0.3049592 0.3045546 0.3040841
 0.3046063 0.306311 0.3084482 0.310188 0.3113127 0.3120999 0.3128569 0.3136591 0.3143115 0.3145102
 0.3142484 0.314066 0.3146487 0.3161139 0.3178695 0.3192127 0.3199078 0.3201497 0.320163 0.3199848
 0.3195776 0.3190123 0.3184805 0.3181488 0.3180409 0.3180622 0.3181044 0.3181117 0.3180825 0.3180536
 0.3180756 0.318175 0.3183405 0.3185479 0.3187768 0.3189933 0.3191553 0.3192574 0.3193409 0.3194322
 0.3194907 0.3194349 0.3191992 0.3187455 0.3180426 0.3170578 0.3157603 0.3141147 0.3120929 0.3097681
 0.307466 0.3057937 0.3053941 0.3065392 0.3089103 0.311775 0.3144062 0.3163991 0.317703 0.318461
 0.3188474 0.3189977 0.3189985 0.3188933 0.3186973 0.318424 0.3180965 0.3177401 0.3173745 0.3170196
 0.3166959 0.3164106 0.3161466 0.3158678 0.3155378 0.315136 0.3146605 0.31412 0.3135217 0.3128608
 0.3121159 0.311263 0.3103037 0.3092793 0.3082534 0.3072782 0.3063684 0.3054973 0.3046191 0.3036882
 0.3026508 0.3014407 0.3000422 0.2985771 0.2972693 0.2962645 0.2954989 0.2947715 0.2939206 0.2929049
 0.2917558 0.2905149 0.2892163 0.2878868 0.2865341 0.2851422 0.2836809 0.2821248 0.2804675 0.2787219
 0.2769046 0.2750257 0.2730952 0.2711276 0.2691168 0.2669984 0.2646438 0.2618949 0.2586114 0.2547021
 0.2501424 0.2449902 0.2393923 0.2335629 0.2277357 0.2221181 0.2168736 0.2121322 0.2080061 0.2045935
 0.2019675 0.2001667 0.1992033 0.1990804 0.1997947 0.2013198 0.2035841 0.2064655 0.2098033 0.2134158
 0.2171087 0.2206905 0.2240174 0.2270484 0.22984 0.2324651 0.2349353 0.237204 0.2392258 0.240992
 0.2425149 0.2438041 0.2448667 0.2457256 0.2464256 0.2470181 0.2475379 0.2479928 0.248371 0.2486604
 0.2488664 0.2490178 0.2491532 0.2493041 0.2494876 0.2497115 0.2499785 0.250292 0.2506622 0.2511062
 0.2516385 0.2522579 0.2529448 0.253674 0.2544358 0.2552452 0.2561341 0.2571391 0.2582928 0.259615
 0.2611028 0.2627222 0.2644038 0.2660455 0.2675339 0.2687794 0.2697384 0.270409 0.2708081 0.270956
 0.2708771 0.270607 0.2701887 0.2696559 0.2690252 0.2683072 0.2675175 0.2666713 0.265774 0.2648253
 0.2638304 0.2628068 0.2617792 0.2607698 0.2597919 0.2588493 0.2579393 0.2570558 0.2561966 0.2553647
 0.2545628 0.2537911 0.2530528 0.2523519 0.2516795 0.2510099 0.2503087 0.2495366 0.2486524 0.2476241
 0.2464376 0.2450917 0.2435933 0.2419595 0.2402142 0.2383752 0.2364483 0.2344329 0.2323315 0.2301511
 0.2278934 0.225551 0.2231331 0.2206979 0.2183386 0.2161279 0.2140869 0.2122025 0.2104514 0.2088076
 0.207247 0.2057513 0.2043103 0.2029249 0.201604 0.2003511 0.199163 0.1980445 0.1970094 0.1960668
 0.1952193 0.1944724 0.1938304 0.1932891 0.1928385 0.1924666 0.1921671 0.19196 0.191885 0.1919473
 0.1920799 0.1921833 0.1921962 0.1921247 0.1920202 0.1919363 0.1918969 0.1918967 0.1919148 0.1919071
 0.191793 0.1914729 0.1908546 0.1898627 0.1884547 0.1866509 0.1845405 0.1822627 0.1799884 0.1778867
 0.176077 0.1746122 0.1734951 0.1726786 0.1720694 0.1715854 0.1712174 0.171026 0.171084 0.1713976
 0.1718415 0.1722077 0.1723883 0.1724987 0.172777 0.1733769 0.1742751 0.1753241 0.1763587 0.1772731
 0.1780263 0.1786048 0.1790127 0.1792853 0.1794621 0.1795467 0.1795217 0.1793788 0.1791165 0.1787422
 0.1782798 0.1777435 0.1771178 0.1763902 0.1755704 0.1746623 0.1736594 0.1725624 0.1713501 0.1699777
 0.1684859 0.1670893 0.1660979 0.165748 0.1660811 0.1669281 0.1680277 0.1692007 0.1703722 0.1714429
 0.1722913 0.1729739 0.1738138 0.1751819 0.1771791 0.1795295 0.181776 0.1835776 0.1848161 0.185484
 0.1855971 0.1852057 0.1843552 0.1830353 0.1812654 0.1791717 0.1769066 0.1745946 0.1723824 0.170403
 0.1687006 0.1672805 0.1661451 0.1652926 0.1647892 0.1643637 0.1624307 0.1566468 0.1472403 0.1391627
 0.1383488 0.1453192 0.1544537 0.1600244 0.1610585 0.1599642 0.1587384 0.1578067 0.157089 0.1566608
 0.15659 0.156784 0.157022 0.1570614 0.1567927 0.1562306 0.1552572 0.1533831 0.1497362 0.143371
 0.1339645 0.1224663 0.1109016 0.1012955 0.09467445 0.09085331 0.08886165 0.08761723 0.08654463 0.08578074
 0.08582479 0.08702056 0.08936089 0.0926365 0.09659132 0.1008907 0.105067 0.108668 0.1114976 0.1136315
 0.115196 0.1162317 0.1167599 0.1168504 0.116587 0.116038 0.1152632 0.1142951 0.1131197 0.1117249
 0.1101844 0.1086919 0.1074896 0.106717 0.1063232 0.1061503 0.1060785 0.1060662 0.1061035 0.1061887
 0.106327 0.1065191 0.1067662 0.1070787 0.1074433 0.1077978 0.1080735 0.1082482 0.1083377 0.1083492
 0.1082502 0.1079996 0.1076274 0.1072453 0.1068965 0.1064187 0.1055723 0.1043405 0.1030428 0.1021257
 0.1018489 0.1021324 0.1026491 0.1030716 0.1032711 0.1033194 0.1033296 0.1033057 0.1031347 0.1027137
</values></Ydata></ScRf><Data_Parameters_AB><parameter name="DPF">1</parameter><parameter name="NPT">3497</parameter><parameter name="FXV">3996</parameter><parameter name="LXV">500</parameter><parameter name="CSF">1</parameter><parameter name="MXY">0.0338269807398319</parameter><parameter name="MNY">-0.101794466376305</parameter><parameter name="DAT">18/01/2024</parameter><parameter name="TIM">11:37:20.592 (GMT+1)</parameter><parameter name="DXU">WN</parameter></Data_Parameters_AB><AB__Qtest><MainReport name="Quality Test Report"><Header><Line><Legend>Test result ok/not ok [1/0]: </Legend><Value>0</Value></Line><Line><Legend>Method file: </Legend><Value>C:\Users\Public\Documents\Bruker\OPUS_8.2.28\QT\IRBT_v3_default.QT</Value></Line></Header><Matrix><Line><Legend></Legend><Legend>min</Legend><Legend>max</Legend><Legend>measured</Legend></Line><Line><Value>Absorption (X-Range 1):</Value><Value>0.400000</Value><Value>2.000000</Value><Value>0.073714</Value></Line><Line><Value>Noise (X-Range 4):</Value><Value></Value><Value>0.000300</Value><Value>0.000017</Value></Line><Line><Value>Signal/Noise (X-Range 2):</Value><Value>200.000000</Value><Value></Value><Value>75.168259</Value></Line><Line><Value>Signal/Noise (X-Range 3):</Value><Value>40.000000</Value><Value></Value><Value>23.306139</Value></Line><Line><Value>Water vapour (X-Range 5):</Value><Value></Value><Value>0.000300</Value><Value>0.000013</Value></Line><Line><Value>Signal/Water (X-Range 2):</Value><Value>100.000000</Value><Value></Value><Value>92.584089</Value></Line><Line><Value>Signal/Water (X-Range 3):</Value><Value>20.000000</Value><Value></Value><Value>28.705967</Value></Line><Line><Value>Fringes (X-Range 6):</Value><Value></Value><Value>0.000100</Value><Value>0.000021</Value></Line></Matrix></MainReport></AB__Qtest><Data_Parameters_ScSm><parameter name="DPF">1</parameter><parameter name="NPT">1814</parameter><parameter name="FXV">3996.63438082617</parameter><parameter name="LXV">499.579297603271</parameter><parameter name="CSF">1</parameter><parameter name="MXY">0.332553088665009</parameter><parameter name="MNY">0.0837618708610535</parameter><parameter name="DAT">18/01/2024</parameter><parameter name="TIM">11:37:20.592 (GMT+1)</parameter><parameter name="DXU">WN</parameter></Data_Parameters_ScSm><Data_Parameters_ScRf><parameter name="DPF">1</parameter><parameter name="NPT">1820</parameter><parameter name="FXV">4004.34989121387</parameter><parameter name="LXV">495.721542409425</parameter><parameter name="CSF">1</parameter><parameter name="MXY">0.320162951946259</parameter><parameter name="MNY">0.0690903514623642</parameter><parameter name="DAT">18/01/2024</parameter><parameter name="TIM">11:36:54.730 (GMT+1)</parameter><parameter name="DXU">WN</parameter></Data_Parameters_ScRf><Optic_Parameters_Rf><parameter name="APR">0</parameter><parameter name="APT">Open</parameter><parameter name="BMS">KBr</parameter><parameter name="DTC">RT-DLaTGS_IR-Biotyper [Microplate reader]</parameter><parameter name="HPF">0</parameter><parameter name="LPF">10.0</parameter><parameter name="LPV">4000</parameter><parameter name="PGR">0</parameter><parameter name="RCH">Module port</parameter><parameter name="RDX">0</parameter><parameter name="SRC">MIR</parameter><parameter name="VEL">10.0</parameter><parameter name="SON">Off</parameter></Optic_Parameters_Rf><Acquisition_Parameters_Rf><parameter name="ADT">1</parameter><parameter name="AQM">DD</parameter><parameter name="CFE">0</parameter><parameter name="COR">0</parameter><parameter name="DEL">0</parameter><parameter name="DLY">0</parameter><parameter name="HFW">8000</parameter><parameter name="LFW">0</parameter><parameter name="NSR">32</parameter><parameter name="PLF">AB</parameter><parameter name="RES">6</parameter><parameter name="RGN">-1</parameter><parameter name="STR">0</parameter><parameter name="TCL">MakeCompatibleScalar (0, {WSV=1.000000, ARV=0});</parameter><parameter name="TDL">37</parameter><parameter name="RPO">0</parameter></Acquisition_Parameters_Rf><FT_-_Parameters_Rf><parameter name="APF">B3</parameter><parameter name="HFQ">500</parameter><parameter name="LFQ">4000</parameter><parameter name="NLI">0</parameter><parameter name="PHR">24</parameter><parameter name="PHZ">ML</parameter><parameter name="SPZ">NO</parameter><parameter name="ZFF">1</parameter></FT_-_Parameters_Rf><Optic_Parameters_><parameter name="APR">0</parameter><parameter name="APT">Open</parameter><parameter name="BMS">KBr</parameter><parameter name="CHN">Module port</parameter><parameter name="DTC">RT-DLaTGS_IR-Biotyper [Microplate reader]</parameter><parameter name="HPF">0</parameter><parameter name="LPF">10.0</parameter><parameter name="LPV">4000</parameter><parameter name="PGN">0</parameter><parameter name="RDX">0</parameter><parameter name="SRC">MIR</parameter><parameter name="VEL">10.0</parameter><parameter name="SON">Off</parameter></Optic_Parameters_><FT_-_Parameters_><parameter name="APF">B3</parameter><parameter name="HFQ">500</parameter><parameter name="LFQ">4000</parameter><parameter name="NLI">0</parameter><parameter name="PHR">24</parameter><parameter name="PHZ">ML</parameter><parameter name="SPZ">NO</parameter><parameter name="ZFF">1</parameter></FT_-_Parameters_><Acquisition_Parameters_><parameter name="ADT">1</parameter><parameter name="AQM">DD</parameter><parameter name="CFE">0</parameter><parameter name="COR">0</parameter><parameter name="DEL">0</parameter><parameter name="DLY">0</parameter><parameter name="HFW">8000</parameter><parameter name="LFW">0</parameter><parameter name="NSS">32</parameter><parameter name="PLF">AB</parameter><parameter name="RES">6</parameter><parameter name="SOT">0</parameter><parameter name="TCL">MakeCompatibleScalar (0, {WSV=1.000000, ARV=0});</parameter><parameter name="TDL">37</parameter><parameter name="SPO">0</parameter><parameter name="SGN">-1</parameter></Acquisition_Parameters_><Instrument_Parameters_Rf><parameter name="HFL">15801.365274</parameter><parameter name="LFL">0</parameter><parameter name="LWN">15801.365274</parameter><parameter name="ABP">32157</parameter><parameter name="SSP">1</parameter><parameter name="ARG">2</parameter><parameter name="ASG">2</parameter><parameter name="ASS">32</parameter><parameter name="GFW">16</parameter><parameter name="GBW">16</parameter><parameter name="BFW">0</parameter><parameter name="BBW">0</parameter><parameter name="PKA">9296</parameter><parameter name="PKL">4987</parameter><parameter name="PRA">9263</parameter><parameter name="PRL">5010</parameter><parameter name="P2A">1</parameter><parameter name="P2L">1</parameter><parameter name="P2R">1</parameter><parameter name="P2K">1</parameter><parameter name="DAQ">0</parameter><parameter name="AG2">1</parameter><parameter name="SSM">1</parameter><parameter name="RSN">46596</parameter><parameter name="CRR">0</parameter><parameter name="SRT">1705577814.73</parameter><parameter name="DUR">19.64599609375</parameter><parameter name="TSC">31.8</parameter><parameter name="MVD">0.573155403137207</parameter><parameter name="AN1">0.226017606161166</parameter><parameter name="AN2">0</parameter><parameter name="VSN">2.485 Apr  4 2017</parameter><parameter name="SRN">0085</parameter><parameter name="CAM">0</parameter><parameter name="INS">IR-Biotyper</parameter><parameter name="FOC">69</parameter><parameter name="RDY">1</parameter><parameter name="ARS">32</parameter></Instrument_Parameters_Rf><Sample_Parameters_><parameter name="BLD"></parameter><parameter name="CNM">Admin</parameter><parameter name="CPY"></parameter><parameter name="DPM"></parameter><parameter name="EXP">IRBT_v3_32Scans.XPM</parameter><parameter name="LCT"></parameter><parameter name="SFM">Microplate, HTS-XT</parameter><parameter name="SNM">240118-1045-Cdiff_SCFA_2_C25_232121263_G6_cac9ccbc-c1ed-454a-bcad-416f3992d882.0</parameter><parameter name="XPP">C:\Users\Public\Documents\Bruker\OPUS_8.2.28\XPM</parameter><parameter name="IST">OK</parameter><parameter name="CPG">1252</parameter><parameter name="UID">4713f540-e95d-4c02-8d02-d3644c798aa6</parameter></Sample_Parameters_><Instrument_Parameters_><parameter name="HFL">15801.365274</parameter><parameter name="LFL">0</parameter><parameter name="LWN">15801.365274</parameter><parameter name="ABP">32157</parameter><parameter name="SSP">1</parameter><parameter name="ASG">2</parameter><parameter name="ARG">2</parameter><parameter name="ASS">32</parameter><parameter name="GFW">16</parameter><parameter name="GBW">16</parameter><parameter name="BFW">0</parameter><parameter name="BBW">0</parameter><parameter name="PKA">10169</parameter><parameter name="PKL">4987</parameter><parameter name="PRA">10201</parameter><parameter name="PRL">5010</parameter><parameter name="P2A">1</parameter><parameter name="P2L">1</parameter><parameter name="P2R">1</parameter><parameter name="P2K">1</parameter><parameter name="DAQ">0</parameter><parameter name="AG2">1</parameter><parameter name="SSM">1</parameter><parameter name="RSN">23991</parameter><parameter name="CRR">0</parameter><parameter name="SRT">1705577840.593</parameter><parameter name="DUR">19.6449890136719</parameter><parameter name="TSC">31.8</parameter><parameter name="MVD">0.279271572828293</parameter><parameter name="AN1">0.226006676933307</parameter><parameter name="AN2">0</parameter><parameter name="VSN">2.485 Apr  4 2017</parameter><parameter name="SRN">0085</parameter><parameter name="CAM">0</parameter><parameter name="INS">IR-Biotyper</parameter><parameter name="FOC">69</parameter><parameter name="RDY">1</parameter></Instrument_Parameters_><History/></OPUSDataFile>
