<?xml version="1.0" encoding="UTF-8" ?>
<OPUSDataFile><AB><Ydata ylabel="Absorbance Units"><values byteorder="INTEL" format="FLOAT32" numvalues="3497"> -0.1187784 -0.1187803 -0.1187839 -0.1187884 -0.1187904 -0.1187911 -0.1187906 -0.1187912 -0.1187963 -0.118806
 -0.1188228 -0.1188426 -0.1188637 -0.1188805 -0.1188893 -0.1188894 -0.1188783 -0.118863 -0.1188442 -0.11883
 -0.1188223 -0.1188211 -0.1188269 -0.1188321 -0.1188364 -0.1188343 -0.1188264 -0.1188156 -0.1188028 -0.1187948
 -0.1187915 -0.1187955 -0.1188053 -0.1188187 -0.1188352 -0.1188524 -0.1188709 -0.1188908 -0.1189102 -0.1189285
 -0.1189411 -0.118945 -0.1189391 -0.118921 -0.1188975 -0.1188693 -0.1188448 -0.118826 -0.1188138 -0.118809
 -0.1188061 -0.1188049 -0.1188032 -0.1188013 -0.1188028 -0.1188082 -0.1188215 -0.1188417 -0.1188683 -0.1188992
 -0.1189295 -0.1189569 -0.1189757 -0.1189854 -0.1189824 -0.1189694 -0.1189465 -0.1189177 -0.1188849 -0.1188513
 -0.1188182 -0.1187889 -0.1187641 -0.1187466 -0.1187373 -0.1187352 -0.1187408 -0.1187478 -0.1187559 -0.1187599
 -0.11876 -0.1187573 -0.1187523 -0.1187493 -0.1187481 -0.1187498 -0.1187536 -0.1187584 -0.1187639 -0.1187694
 -0.1187746 -0.1187796 -0.1187823 -0.1187811 -0.1187752 -0.1187625 -0.1187471 -0.1187294 -0.1187152 -0.1187065
 -0.1187043 -0.1187096 -0.1187171 -0.1187266 -0.1187323 -0.1187338 -0.1187305 -0.1187227 -0.1187136 -0.1187032
 -0.1186933 -0.1186833 -0.1186713 -0.118657 -0.118638 -0.1186161 -0.118593 -0.1185725 -0.1185603 -0.1185575
 -0.1185686 -0.1185872 -0.1186121 -0.1186333 -0.1186461 -0.1186476 -0.1186351 -0.1186165 -0.1185926 -0.1185713
 -0.1185536 -0.1185403 -0.1185313 -0.1185274 -0.1185288 -0.1185423 -0.1185674 -0.1186079 -0.1186595 -0.1187103
 -0.1187534 -0.1187637 -0.1187439 -0.1186822 -0.1185961 -0.1185012 -0.1184111 -0.1183439 -0.1182987 -0.1182809
 -0.1182824 -0.1183019 -0.1183301 -0.1183653 -0.1183973 -0.1184246 -0.1184376 -0.1184349 -0.1184169 -0.1183835
 -0.1183467 -0.118307 -0.1182746 -0.1182488 -0.1182301 -0.1182179 -0.1182102 -0.1182076 -0.1182109 -0.1182188
 -0.1182307 -0.1182422 -0.1182476 -0.1182441 -0.1182262 -0.1181976 -0.1181578 -0.1181141 -0.1180692 -0.1180284
 -0.1179935 -0.1179669 -0.1179491 -0.1179413 -0.1179437 -0.1179553 -0.1179761 -0.1180019 -0.1180321 -0.1180601
 -0.1180849 -0.118099 -0.1181021 -0.118088 -0.1180586 -0.118014 -0.1179588 -0.1179002 -0.1178423 -0.1177936
 -0.117753 -0.1177236 -0.1177002 -0.1176811 -0.1176622 -0.1176413 -0.1176184 -0.1175928 -0.1175662 -0.1175388
 -0.1175118 -0.1174853 -0.1174606 -0.1174377 -0.1174188 -0.1174038 -0.1173939 -0.1173886 -0.1173863 -0.1173868
 -0.1173876 -0.1173887 -0.1173889 -0.1173879 -0.1173849 -0.1173786 -0.1173671 -0.1173503 -0.1173264 -0.1172989
 -0.1172691 -0.1172412 -0.117218 -0.1171995 -0.117187 -0.1171765 -0.1171672 -0.1171582 -0.117149 -0.1171427
 -0.1171395 -0.11714 -0.117144 -0.1171465 -0.1171478 -0.1171453 -0.1171399 -0.1171343 -0.1171276 -0.1171188
 -0.1171053 -0.1170808 -0.1170474 -0.1170035 -0.1169559 -0.1169104 -0.1168694 -0.1168377 -0.1168102 -0.1167864
 -0.1167593 -0.1167265 -0.1166859 -0.1166365 -0.116582 -0.1165226 -0.1164644 -0.1164077 -0.1163584 -0.1163166
 -0.1162853 -0.1162636 -0.1162473 -0.116235 -0.116218 -0.1161965 -0.1161657 -0.1161284 -0.1160879 -0.1160468
 -0.116011 -0.1159777 -0.1159476 -0.1159135 -0.1158702 -0.115817 -0.1157501 -0.1156795 -0.115607 -0.11554
 -0.1154814 -0.1154263 -0.115375 -0.1153181 -0.1152548 -0.1151843 -0.1151068 -0.1150299 -0.114954 -0.1148852
 -0.1148223 -0.1147639 -0.1147078 -0.1146471 -0.1145807 -0.1145026 -0.1144157 -0.1143204 -0.1142227 -0.1141282
 -0.1140401 -0.113963 -0.1138944 -0.1138351 -0.1137789 -0.1137245 -0.1136655 -0.1136002 -0.1135257 -0.1134412
 -0.1133478 -0.1132457 -0.1131342 -0.1130135 -0.1128801 -0.1127344 -0.112578 -0.1124124 -0.1122463 -0.1120806
 -0.1119227 -0.1117713 -0.1116275 -0.1114902 -0.1113579 -0.1112304 -0.1111073 -0.1109883 -0.1108733 -0.1107612
 -0.1106519 -0.1105423 -0.1104326 -0.1103152 -0.110189 -0.110045 -0.1098814 -0.1096995 -0.109499 -0.1092941
 -0.1090855 -0.1088855 -0.1086937 -0.1085119 -0.1083387 -0.1081694 -0.1080031 -0.1078344 -0.1076632 -0.1074863
 -0.1073053 -0.1071211 -0.1069341 -0.1067463 -0.1065534 -0.1063534 -0.1061419 -0.1059143 -0.1056765 -0.1054275
 -0.1051821 -0.1049433 -0.1047193 -0.1045124 -0.1043169 -0.1041329 -0.1039482 -0.1037623 -0.1035699 -0.1033718
 -0.1031723 -0.1029713 -0.1027718 -0.1025711 -0.1023629 -0.1021455 -0.1019106 -0.1016622 -0.101401 -0.101135
 -0.1008722 -0.1006169 -0.1003755 -0.1001447 -0.09992545 -0.09970967 -0.09949521 -0.09927543 -0.09904785 -0.09881365
 -0.09857202 -0.09833125 -0.09809195 -0.09785939 -0.09763361 -0.09741024 -0.09718861 -0.09696021 -0.09672552 -0.09648193
 -0.09623134 -0.09597833 -0.09572382 -0.09547227 -0.0952228 -0.09497624 -0.09473108 -0.09448566 -0.09424042 -0.09399449
 -0.09375085 -0.09351085 -0.09327584 -0.0930476 -0.09282124 -0.09259664 -0.09236587 -0.09212752 -0.09187922 -0.09162035
 -0.0913569 -0.09108923 -0.09082514 -0.09056471 -0.09031159 -0.09006531 -0.08982556 -0.08959148 -0.08936067 -0.08913191
 -0.08890179 -0.08866899 -0.08843012 -0.08818466 -0.08793001 -0.08766879 -0.08740044 -0.08713279 -0.08686879 -0.08661635
 -0.08637975 -0.08615813 -0.08595349 -0.08575493 -0.08556154 -0.08536232 -0.08515605 -0.08494038 -0.08471528 -0.08448528
 -0.08425064 -0.08401598 -0.08378089 -0.08354586 -0.08331024 -0.08307181 -0.08283107 -0.08258733 -0.08234294 -0.08210085
 -0.08186349 -0.08163521 -0.08141495 -0.08120465 -0.08099823 -0.08079381 -0.08058462 -0.08036717 -0.08014145 -0.07990568
 -0.07966813 -0.07942973 -0.07919677 -0.07897034 -0.07874528 -0.07852132 -0.07828955 -0.07805054 -0.07780672 -0.07756028
 -0.07732484 -0.07710045 -0.07689583 -0.07670644 -0.07652716 -0.07635279 -0.07617262 -0.07598559 -0.07578565 -0.07557633
 -0.07535771 -0.07513493 -0.07491041 -0.07468807 -0.07446986 -0.07425743 -0.07405189 -0.07385144 -0.07365636 -0.07346174
 -0.07326718 -0.07306889 -0.07286676 -0.07266372 -0.07246035 -0.07226494 -0.0720771 -0.07190004 -0.07173089 -0.07156186
 -0.07139042 -0.07120565 -0.07101042 -0.07080292 -0.07059053 -0.07038082 -0.07017813 -0.06998982 -0.0698114 -0.0696434
 -0.06947789 -0.06931148 -0.06914239 -0.0689686 -0.0687959 -0.0686249 -0.06845979 -0.06830133 -0.06814686 -0.06799627
 -0.0678443 -0.06769092 -0.0675342 -0.06737434 -0.06721134 -0.06704524 -0.06687569 -0.0667036 -0.06653046 -0.0663581
 -0.06619059 -0.06602769 -0.06587169 -0.06571864 -0.06556647 -0.06541155 -0.06525041 -0.06508508 -0.06491455 -0.0647454
 -0.064579 -0.06442028 -0.06427061 -0.06412948 -0.06399724 -0.06386872 -0.06374366 -0.06361611 -0.063486 -0.06335042
 -0.06320996 -0.06306626 -0.06292042 -0.06277733 -0.06263726 -0.06250381 -0.06237529 -0.06225096 -0.06212826 -0.06200352
 -0.06187652 -0.06174514 -0.06161237 -0.06147907 -0.06134824 -0.06122197 -0.06109851 -0.06097857 -0.06085598 -0.06072975
 -0.06059624 -0.06045439 -0.06031101 -0.06016642 -0.06003371 -0.05991297 -0.05980899 -0.05971973 -0.05963502 -0.05955341
 -0.05946299 -0.0593666 -0.05926463 -0.05916133 -0.05906509 -0.05897521 -0.05889538 -0.05882014 -0.05874622 -0.05867
 -0.05858782 -0.05850103 -0.05840877 -0.05831509 -0.05822065 -0.0581295 -0.0580427 -0.05796059 -0.05788373 -0.05780605
 -0.05772727 -0.05763832 -0.0575393 -0.05742889 -0.05730893 -0.05719 -0.05707407 -0.05697495 -0.05689154 -0.05682921
 -0.05678316 -0.05674816 -0.05671922 -0.05668799 -0.05665288 -0.05660953 -0.056559 -0.05650087 -0.05643583 -0.05636401
 -0.05628603 -0.0562015 -0.05611407 -0.05602407 -0.05593605 -0.0558507 -0.05576857 -0.05568977 -0.055611 -0.05553213
 -0.05545075 -0.0553673 -0.05528324 -0.05519942 -0.05511983 -0.05504513 -0.05497923 -0.05492181 -0.05487478 -0.05483555
 -0.05480231 -0.05477118 -0.05473842 -0.05470136 -0.05465711 -0.05460572 -0.05454601 -0.05448086 -0.05441025 -0.05433933
 -0.05426887 -0.0542032 -0.05414323 -0.05408737 -0.05403569 -0.05397986 -0.05391951 -0.05384747 -0.05376419 -0.05366922
 -0.05356318 -0.05344827 -0.05332454 -0.0531921 -0.05305348 -0.05291104 -0.05277278 -0.05264862 -0.05254664 -0.05247902
 -0.05244323 -0.05244403 -0.05246689 -0.052508 -0.05255282 -0.05259589 -0.05263287 -0.05266131 -0.05268613 -0.05270722
 -0.05273313 -0.05276436 -0.05281023 -0.05287109 -0.0529531 -0.05305544 -0.05317564 -0.0533118 -0.05345486 -0.05360403
 -0.05375221 -0.0539008 -0.05404888 -0.05419849 -0.05435212 -0.05451023 -0.05467452 -0.05484357 -0.05501682 -0.05519368
 -0.05537265 -0.0555582 -0.05575022 -0.05595782 -0.05618287 -0.05643021 -0.0567014 -0.05698977 -0.05729516 -0.0576035
 -0.05791409 -0.05821458 -0.05850482 -0.05877774 -0.05903424 -0.05927325 -0.05949758 -0.05971371 -0.05992491 -0.06014125
 -0.06036161 -0.06058985 -0.06082039 -0.06104917 -0.06127329 -0.0614883 -0.06169858 -0.06190461 -0.06211143 -0.06232159
 -0.06253299 -0.06274645 -0.06295412 -0.06315538 -0.06334215 -0.0635138 -0.06366687 -0.06380161 -0.06392374 -0.06403489
 -0.0641501 -0.06427056 -0.06441041 -0.06456731 -0.06474335 -0.06493291 -0.06512646 -0.06531971 -0.06550226 -0.06567463
 -0.06583266 -0.06598122 -0.06612163 -0.06625965 -0.06639821 -0.06654027 -0.06668792 -0.06683915 -0.0669944 -0.06714839
 -0.06730051 -0.0674473 -0.06758835 -0.06772556 -0.06785916 -0.06799453 -0.06813177 -0.06827424 -0.06842121 -0.06857134
 -0.0687237 -0.06887478 -0.06902455 -0.06917106 -0.0693152 -0.06945748 -0.06959831 -0.06973866 -0.06987738 -0.07001394
 -0.07014764 -0.07027744 -0.07040555 -0.07053176 -0.07066127 -0.07079508 -0.0709366 -0.0710867 -0.07124364 -0.07140747
 -0.07157311 -0.07174028 -0.07190444 -0.07206562 -0.07222213 -0.07237441 -0.07252339 -0.0726698 -0.07281627 -0.07296306
 -0.07311235 -0.07326296 -0.0734143 -0.07356484 -0.07371249 -0.07385784 -0.07400039 -0.07414196 -0.07428364 -0.07442509
 -0.07456686 -0.0747062 -0.0748428 -0.0749739 -0.07509917 -0.07521662 -0.07532609 -0.07542613 -0.07551686 -0.07560223
 -0.07568331 -0.07577165 -0.07586788 -0.07598217 -0.07611199 -0.076256 -0.07640938 -0.07656175 -0.0767101 -0.07684501
 -0.07696796 -0.077076 -0.07717437 -0.07726487 -0.0773544 -0.07744683 -0.07754541 -0.07765324 -0.0777652 -0.07788147
 -0.07799285 -0.07809775 -0.07819359 -0.07827972 -0.07836288 -0.07844336 -0.07852617 -0.07861041 -0.07869 -0.07876328
 -0.07881815 -0.0788556 -0.07887057 -0.07886886 -0.07885856 -0.07884795 -0.07885271 -0.07887667 -0.07893183 -0.07901104
 -0.0791156 -0.07922968 -0.07934648 -0.07945397 -0.07954536 -0.07962184 -0.07968147 -0.07973377 -0.07977998 -0.07982516
 -0.07987006 -0.07991237 -0.07995199 -0.07998598 -0.08001458 -0.08003892 -0.08005943 -0.08007875 -0.08009705 -0.08011606
 -0.08013602 -0.08015841 -0.0801831 -0.08021094 -0.08024067 -0.08027145 -0.08030199 -0.08033065 -0.08035842 -0.0803849
 -0.08041281 -0.0804426 -0.08047768 -0.08051841 -0.08056973 -0.08063219 -0.08071102 -0.08080698 -0.0809183 -0.08104473
 -0.08117325 -0.08130278 -0.0814169 -0.08151627 -0.08159466 -0.08165575 -0.08170743 -0.0817541 -0.08180964 -0.08187491
 -0.08195846 -0.08205593 -0.08216694 -0.08228436 -0.08240305 -0.08251806 -0.08262496 -0.08272421 -0.08281436 -0.08289987
 -0.08298137 -0.08306295 -0.08314555 -0.08322946 -0.083315 -0.08339819 -0.08347882 -0.08355317 -0.08362147 -0.08368499
 -0.0837446 -0.08380604 -0.0838692 -0.08393733 -0.08400854 -0.08407999 -0.08415058 -0.08421633 -0.08427992 -0.08434217
 -0.08440725 -0.08447932 -0.08455804 -0.08464586 -0.08473541 -0.0848253 -0.08490717 -0.08497836 -0.08503675 -0.08508105
 -0.08511616 -0.08514235 -0.0851649 -0.08518407 -0.08519887 -0.0852089 -0.08520854 -0.08519816 -0.08517598 -0.08514465
 -0.0851117 -0.08508029 -0.08506192 -0.08505625 -0.08506934 -0.08509544 -0.08513204 -0.08517007 -0.08520252 -0.08522159
 -0.08522094 -0.08519864 -0.08515161 -0.08508467 -0.084998 -0.08489791 -0.08478571 -0.08466256 -0.08452885 -0.08438216
 -0.0842224 -0.08405041 -0.08386648 -0.08367497 -0.08347531 -0.08326691 -0.08304789 -0.0828109 -0.08255574 -0.08227704
 -0.0819786 -0.08166333 -0.08133671 -0.08100608 -0.08067475 -0.08034762 -0.08002582 -0.07971109 -0.07940396 -0.07910504
 -0.07881419 -0.07853151 -0.0782565 -0.07798891 -0.07772966 -0.07747858 -0.07724021 -0.07701482 -0.07680985 -0.07662572
 -0.07646947 -0.07634106 -0.07624399 -0.07617768 -0.07614183 -0.07613631 -0.07616064 -0.0762151 -0.07630118 -0.07641562
 -0.07655818 -0.07671717 -0.07688653 -0.07704728 -0.07718854 -0.07729498 -0.07735721 -0.07737368 -0.07734064 -0.07726907
 -0.07715979 -0.0770245 -0.07686452 -0.07668571 -0.07648849 -0.07627671 -0.076051 -0.07581998 -0.07558495 -0.07535797
 -0.07513991 -0.07494053 -0.07475968 -0.07460209 -0.07446667 -0.07435435 -0.07426233 -0.0741884 -0.07412833 -0.0740777
 -0.07403506 -0.07399549 -0.07397001 -0.07395625 -0.07398681 -0.07406477 -0.07423916 -0.07451809 -0.0749379 -0.07550583
 -0.07620826 -0.07704525 -0.07794694 -0.07890809 -0.07983911 -0.08073782 -0.08154373 -0.0822626 -0.08288196 -0.083412
 -0.08387117 -0.08426723 -0.08462184 -0.08493797 -0.08522719 -0.08549082 -0.08573274 -0.08595584 -0.08616224 -0.08635546
 -0.08653759 -0.0867094 -0.08687196 -0.08702254 -0.08716098 -0.0872839 -0.08739091 -0.08747999 -0.08755099 -0.08760281
 -0.08763545 -0.08764892 -0.08764338 -0.08761965 -0.08757818 -0.08752026 -0.0874479 -0.08736505 -0.08727759 -0.08719582
 -0.08712886 -0.08709179 -0.08709019 -0.0871359 -0.08722357 -0.08735625 -0.0875178 -0.08770454 -0.08789662 -0.0880888
 -0.0882649 -0.08842141 -0.08854824 -0.08864383 -0.08870351 -0.08872688 -0.08871183 -0.0886585 -0.08856755 -0.08844144
 -0.0882937 -0.08813375 -0.08800223 -0.08791471 -0.08793304 -0.08806407 -0.08835613 -0.08878721 -0.08935924 -0.09002122
 -0.09073518 -0.09144925 -0.09212035 -0.09272773 -0.0932489 -0.09369688 -0.09406917 -0.09438888 -0.09466001 -0.09489645
 -0.09510028 -0.09527794 -0.0954299 -0.09556378 -0.09568007 -0.09578766 -0.09588668 -0.0959826 -0.09607495 -0.09616488
 -0.09625202 -0.09633607 -0.09641663 -0.09649319 -0.09656445 -0.09662866 -0.09668461 -0.09672991 -0.09676642 -0.09679355
 -0.09681676 -0.09683774 -0.09686203 -0.09689189 -0.09692834 -0.09697245 -0.09702061 -0.09707276 -0.09712353 -0.09717258
 -0.097215 -0.09725066 -0.09727724 -0.09729531 -0.09730788 -0.09731615 -0.09732698 -0.09734064 -0.09736219 -0.09738951
 -0.09742128 -0.0974549 -0.09748591 -0.09751438 -0.09753822 -0.0975601 -0.09758136 -0.09760319 -0.09762719 -0.09765065
 -0.09767348 -0.09769151 -0.09770373 -0.09770876 -0.09770607 -0.09769795 -0.09768446 -0.09766938 -0.0976529 -0.09763852
 -0.09762637 -0.09761902 -0.09761643 -0.09762006 -0.09762937 -0.09764395 -0.09766253 -0.09768277 -0.09770315 -0.09772066
 -0.09773472 -0.09774336 -0.09774775 -0.09774765 -0.09774552 -0.09774224 -0.09774002 -0.0977399 -0.09774195 -0.09774663
 -0.09775183 -0.09775746 -0.09776062 -0.09776105 -0.09775807 -0.09775173 -0.0977442 -0.09773563 -0.09772836 -0.09772205
 -0.09771652 -0.09771123 -0.09770428 -0.09769601 -0.09768612 -0.09767541 -0.09766511 -0.097655 -0.09764559 -0.0976356
 -0.09762423 -0.09761109 -0.09759543 -0.09757874 -0.0975611 -0.09754471 -0.09752997 -0.0975186 -0.09751095 -0.09750737
 -0.09750798 -0.09751086 -0.09751585 -0.09751935 -0.09752138 -0.09752048 -0.09751725 -0.09751388 -0.09751054 -0.09750938
 -0.09750908 -0.09750799 -0.09750514 -0.09749776 -0.09748763 -0.09747496 -0.0974629 -0.09745421 -0.09744865 -0.09744781
 -0.09744672 -0.09744435 -0.09743602 -0.09742004 -0.09739719 -0.09736691 -0.09733495 -0.09730165 -0.09727319 -0.09724978
 -0.09723371 -0.09722459 -0.09722006 -0.09721942 -0.09721801 -0.09721544 -0.09720791 -0.09719595 -0.09717856 -0.09715693
 -0.09713223 -0.0971056 -0.09707863 -0.09705188 -0.09702608 -0.09700185 -0.09697947 -0.09695996 -0.09694368 -0.09693123
 -0.09692304 -0.09691788 -0.09691585 -0.0969137 -0.09691118 -0.09690559 -0.09689681 -0.0968849 -0.09687012 -0.09685509
 -0.0968399 -0.09682672 -0.09681506 -0.09680458 -0.09679447 -0.09678271 -0.09676912 -0.09675241 -0.09673309 -0.09671117
 -0.09668735 -0.09666203 -0.09663592 -0.0966093 -0.09658314 -0.09655769 -0.09653413 -0.09651275 -0.09649418 -0.09647866
 -0.0964654 -0.09645442 -0.09644429 -0.09643496 -0.09642514 -0.09641475 -0.09640255 -0.09638848 -0.09637152 -0.09635183
 -0.09632916 -0.09630401 -0.0962771 -0.09624933 -0.09622225 -0.09619673 -0.09617437 -0.09615504 -0.09613957 -0.09612612
 -0.09611434 -0.09610144 -0.09608626 -0.09606798 -0.09604588 -0.09602177 -0.09599571 -0.09597021 -0.09594554 -0.09592251
 -0.09590112 -0.09588014 -0.09585942 -0.0958373 -0.09581375 -0.09578774 -0.09575962 -0.09572983 -0.095699 -0.09566886
 -0.0956395 -0.09561209 -0.09558564 -0.09555961 -0.09553287 -0.09550415 -0.09547389 -0.09544159 -0.09540948 -0.09537821
 -0.09534952 -0.09532417 -0.09530182 -0.09528269 -0.09526491 -0.09524836 -0.09523113 -0.0952131 -0.09519339 -0.095172
 -0.09514873 -0.09512357 -0.09509627 -0.09506691 -0.09503559 -0.09500241 -0.09496765 -0.09493154 -0.09489441 -0.09485692
 -0.09481965 -0.0947838 -0.09475051 -0.09472021 -0.09469396 -0.0946698 -0.09464765 -0.09462433 -0.09459893 -0.09457008
 -0.09453721 -0.0945017 -0.09446355 -0.0944251 -0.0943865 -0.09434903 -0.09431273 -0.09427806 -0.09424499 -0.09421349
 -0.09418365 -0.09415568 -0.0941297 -0.09410644 -0.09408522 -0.0940658 -0.09404607 -0.09402371 -0.09399695 -0.09396304
 -0.09392345 -0.09387746 -0.09382955 -0.09378116 -0.09373523 -0.09369312 -0.09365385 -0.09361761 -0.09358188 -0.09354637
 -0.09350995 -0.09347253 -0.09343465 -0.09339634 -0.09335861 -0.09332154 -0.09328603 -0.09325214 -0.09322065 -0.09319115
 -0.09316336 -0.09313606 -0.09310733 -0.09307582 -0.0930387 -0.09299699 -0.0929496 -0.09290086 -0.09285244 -0.09280873
 -0.09277225 -0.09274286 -0.09272157 -0.09270418 -0.09269027 -0.09267575 -0.09266014 -0.09264148 -0.09261964 -0.09259367
 -0.09256361 -0.09252965 -0.09249213 -0.09245321 -0.09241314 -0.09237416 -0.09233601 -0.09229919 -0.09226331 -0.09222771
 -0.09219262 -0.09215792 -0.09212419 -0.092092 -0.09206121 -0.09203204 -0.09200378 -0.09197622 -0.0919489 -0.09192178
 -0.09189403 -0.0918657 -0.09183481 -0.09180118 -0.09176306 -0.09172032 -0.09167425 -0.09162511 -0.09157725 -0.09153084
 -0.0914894 -0.09145229 -0.09141915 -0.09138899 -0.09135909 -0.09132928 -0.09129798 -0.09126571 -0.09123266 -0.09119878
 -0.09116419 -0.0911283 -0.09109052 -0.09105156 -0.09101116 -0.09097178 -0.09093413 -0.09089923 -0.09086774 -0.09083707
 -0.09080712 -0.09077401 -0.09073747 -0.09069651 -0.0906513 -0.09060473 -0.0905571 -0.09051213 -0.09046947 -0.09043004
 -0.09039277 -0.0903556 -0.09031754 -0.0902757 -0.09023023 -0.09017974 -0.09012591 -0.09006936 -0.0900123 -0.08995623
 -0.08990225 -0.08985125 -0.08980314 -0.08975805 -0.08971569 -0.08967612 -0.08963855 -0.08960301 -0.08956733 -0.08953138
 -0.08949292 -0.08945199 -0.08940902 -0.08936431 -0.0893206 -0.0892777 -0.0892367 -0.08919653 -0.08915494 -0.08911134
 -0.08906306 -0.08901151 -0.08895691 -0.0889017 -0.08884823 -0.08879733 -0.08875062 -0.08870649 -0.08866487 -0.08862349
 -0.08858164 -0.08853849 -0.08849363 -0.08844763 -0.08840043 -0.08835334 -0.08830642 -0.08826049 -0.08821554 -0.08817095
 -0.08812648 -0.08808001 -0.08803151 -0.08797951 -0.08792465 -0.0878676 -0.0878095 -0.08775271 -0.08769815 -0.08764793
 -0.08760233 -0.08756238 -0.08752774 -0.08749852 -0.08747417 -0.08745436 -0.08743925 -0.08742867 -0.08742377 -0.08742478
 -0.08743223 -0.0874465 -0.08746457 -0.08748633 -0.08750534 -0.0875213 -0.08752874 -0.08752795 -0.08751829 -0.08750077
 -0.0874795 -0.08745465 -0.08742956 -0.08740176 -0.08736879 -0.08732705 -0.08726977 -0.08719815 -0.08710881 -0.0870105
 -0.08690685 -0.08680684 -0.08671603 -0.08663536 -0.0865669 -0.08650618 -0.08645279 -0.08640259 -0.08635496 -0.08630827
 -0.0862623 -0.0862176 -0.08617422 -0.08613347 -0.08609521 -0.08605892 -0.0860241 -0.08598813 -0.08595088 -0.08591045
 -0.08586747 -0.08582254 -0.0857756 -0.08572709 -0.08567586 -0.08562071 -0.08556186 -0.08549853 -0.08543315 -0.08536656
 -0.08530042 -0.08523583 -0.0851713 -0.0851068 -0.08504023 -0.08497114 -0.08490002 -0.08482681 -0.08475383 -0.08468118
 -0.08461077 -0.08454269 -0.08447872 -0.0844188 -0.08436395 -0.08431355 -0.08426668 -0.08422204 -0.08417663 -0.08412979
 -0.08407919 -0.08402535 -0.08396779 -0.08390754 -0.08384518 -0.08378129 -0.08371615 -0.08365063 -0.08358479 -0.08352043
 -0.08345789 -0.08339866 -0.08334312 -0.08329038 -0.08324046 -0.08319099 -0.08314187 -0.08309171 -0.08304068 -0.08298943
 -0.08293822 -0.08288857 -0.08284031 -0.08279383 -0.08274882 -0.08270474 -0.08266161 -0.08261919 -0.08257768 -0.08253732
 -0.08249784 -0.08245932 -0.08242094 -0.08238232 -0.08234319 -0.08230337 -0.08226281 -0.08222165 -0.08217879 -0.08213414
 -0.08208644 -0.08203553 -0.08198179 -0.08192533 -0.0818692 -0.08181361 -0.08176164 -0.08171295 -0.08166792 -0.08162551
 -0.08158287 -0.08153915 -0.08149093 -0.0814387 -0.08138117 -0.08132072 -0.08125889 -0.08119838 -0.08114175 -0.08108942
 -0.08104268 -0.08099946 -0.08095957 -0.08092051 -0.08088169 -0.08084188 -0.08080091 -0.08075801 -0.08071314 -0.08066552
 -0.08061513 -0.0805617 -0.08050537 -0.080447 -0.08038685 -0.08032659 -0.08026651 -0.08020827 -0.08015217 -0.08009969
 -0.08005057 -0.08000531 -0.07996283 -0.07992239 -0.07988285 -0.07984299 -0.07980305 -0.07976274 -0.07972273 -0.07968342
 -0.07964401 -0.07960469 -0.07956282 -0.07951792 -0.07946943 -0.07941708 -0.07936444 -0.07931169 -0.07926276 -0.07921738
 -0.07917488 -0.07913449 -0.07909188 -0.07904707 -0.07899759 -0.07894454 -0.078889 -0.07883213 -0.07877633 -0.07872164
 -0.07866909 -0.07861824 -0.07856914 -0.07852121 -0.07847433 -0.07842743 -0.07838024 -0.07833158 -0.07828099 -0.07822871
 -0.07817446 -0.07812094 -0.07806829 -0.07801972 -0.07797532 -0.07793484 -0.07789784 -0.07785977 -0.07782021 -0.07777423
 -0.07772277 -0.07766588 -0.07760566 -0.07754693 -0.07749031 -0.07743955 -0.07739243 -0.07734822 -0.07730435 -0.07725803
 -0.07721012 -0.0771597 -0.07711038 -0.0770634 -0.07702012 -0.07698169 -0.07694462 -0.07690877 -0.07686932 -0.07682569
 -0.07677665 -0.07672216 -0.07666522 -0.07660604 -0.07654806 -0.07649111 -0.07643602 -0.07638241 -0.0763293 -0.07627672
 -0.07622413 -0.07617199 -0.07612081 -0.07607087 -0.07602289 -0.07597638 -0.07593149 -0.07588696 -0.07584228 -0.07579629
 -0.07574839 -0.07569847 -0.07564627 -0.07559263 -0.07553762 -0.07548176 -0.07542508 -0.07536781 -0.07530995 -0.07525185
 -0.07519357 -0.0751356 -0.07507788 -0.07502039 -0.074963 -0.07490514 -0.07484733 -0.07479029 -0.07473491 -0.07468305
 -0.07463486 -0.07459169 -0.07455184 -0.07451482 -0.07447802 -0.07443991 -0.07439911 -0.0743545 -0.07430714 -0.07425699
 -0.07420556 -0.07415316 -0.07410002 -0.07404625 -0.073991 -0.07393426 -0.07387598 -0.0738162 -0.07375573 -0.07369462
 -0.07363366 -0.07357295 -0.07351314 -0.07345463 -0.07339884 -0.07334566 -0.07329586 -0.07324851 -0.0732032 -0.07315832
 -0.0731125 -0.07306486 -0.07301448 -0.07296153 -0.07290567 -0.07284819 -0.07278924 -0.07273052 -0.07267231 -0.07261571
 -0.0725609 -0.07250772 -0.07245617 -0.0724052 -0.07235475 -0.07230394 -0.0722527 -0.07220009 -0.07214616 -0.07209045
 -0.07203326 -0.07197493 -0.07191601 -0.0718576 -0.0718 -0.0717441 -0.07168962 -0.07163685 -0.07158469 -0.07153285
 -0.07147971 -0.07142455 -0.07136657 -0.07130501 -0.07124198 -0.07117745 -0.07111537 -0.0710562 -0.07100189 -0.07095257
 -0.07090628 -0.07086278 -0.07081847 -0.07077339 -0.0707259 -0.07067652 -0.07062642 -0.07057576 -0.07052562 -0.07047556
 -0.07042544 -0.07037474 -0.07032257 -0.07026933 -0.07021489 -0.07016027 -0.07010607 -0.07005265 -0.07000043 -0.06994867
 -0.06989726 -0.06984553 -0.06979331 -0.06974061 -0.06968738 -0.0696338 -0.06957985 -0.0695249 -0.06946889 -0.0694107
 -0.06935044 -0.06928796 -0.06922374 -0.06915962 -0.06909604 -0.0690353 -0.06897681 -0.06892084 -0.06886606 -0.06881081
 -0.06875469 -0.06869645 -0.06863736 -0.06857772 -0.06851871 -0.06846102 -0.06840456 -0.06834957 -0.06829517 -0.0682413
 -0.06818693 -0.06813204 -0.06807468 -0.06801474 -0.06795049 -0.06788203 -0.06781046 -0.06773639 -0.0676645 -0.06759502
 -0.06753176 -0.06747349 -0.0674195 -0.06736746 -0.06731272 -0.06725449 -0.06718928 -0.06711905 -0.06704389 -0.06696671
 -0.06688941 -0.06681302 -0.06673861 -0.06666546 -0.06659344 -0.06652255 -0.06645263 -0.0663848 -0.06631919 -0.06625607
 -0.06619549 -0.06613646 -0.06607892 -0.06602177 -0.06596493 -0.06590746 -0.06584924 -0.06578918 -0.06572732 -0.06566308
 -0.06559713 -0.06553031 -0.06546352 -0.06539829 -0.06533496 -0.0652748 -0.06521634 -0.0651594 -0.0651016 -0.0650418
 -0.06497913 -0.06491277 -0.06484442 -0.06477427 -0.0647036 -0.0646327 -0.06456042 -0.06448672 -0.06441035 -0.06433142
 -0.06425213 -0.06417289 -0.06409796 -0.064027 -0.06396136 -0.06389975 -0.06383942 -0.06377957 -0.06371704 -0.06365274
 -0.06358628 -0.06351944 -0.06345388 -0.06339002 -0.06332914 -0.06326926 -0.06321011 -0.06314912 -0.06308541 -0.06301779
 -0.0629457 -0.06286999 -0.06279059 -0.06270923 -0.06262602 -0.06254227 -0.06245798 -0.06237307 -0.06228754 -0.06220086
 -0.06211358 -0.0620276 -0.06194369 -0.06186527 -0.0617918 -0.06172455 -0.06166099 -0.06159842 -0.06153478 -0.06146682
 -0.0613951 -0.06131874 -0.06123969 -0.06115861 -0.0610767 -0.06099453 -0.06091221 -0.0608298 -0.06074762 -0.06066566
 -0.06058467 -0.06050471 -0.06042604 -0.06034862 -0.06027175 -0.06019529 -0.06011761 -0.06003875 -0.05995785 -0.05987539
 -0.05979221 -0.0597088 -0.05962667 -0.05954541 -0.05946529 -0.05938511 -0.05930383 -0.05922071 -0.05913473 -0.05904657
 -0.05895605 -0.05886487 -0.05877346 -0.05868324 -0.05859467 -0.05850771 -0.05842249 -0.05833785 -0.05825373 -0.05816892
 -0.05808337 -0.05799635 -0.05790791 -0.05781811 -0.05772724 -0.05763666 -0.05754631 -0.05745713 -0.0573679 -0.05727686
 -0.05718258 -0.05708175 -0.05697556 -0.05686301 -0.05674852 -0.05663459 -0.05652456 -0.05642111 -0.0563235 -0.05623263
 -0.05614454 -0.05605879 -0.05597116 -0.05588096 -0.05578644 -0.05568731 -0.05558537 -0.05548074 -0.05537615 -0.05527156
 -0.05516802 -0.05506519 -0.05496201 -0.05485842 -0.05475369 -0.05464802 -0.05454153 -0.05443423 -0.05432608 -0.05421733
 -0.05410818 -0.05399901 -0.05389021 -0.05378186 -0.05367423 -0.05356692 -0.05345995 -0.05335248 -0.05324448 -0.0531345
 -0.05302236 -0.05290693 -0.05278808 -0.05266618 -0.05254127 -0.0524152 -0.05228805 -0.05216143 -0.05203515 -0.05190926
 -0.05178328 -0.05165589 -0.05152674 -0.05139421 -0.05125894 -0.05112075 -0.05098138 -0.05084273 -0.05070506 -0.05056973
 -0.05043439 -0.0502984 -0.05015942 -0.05001616 -0.04986938 -0.04971866 -0.04956736 -0.04941589 -0.0492667 -0.04912013
 -0.04897492 -0.04883092 -0.04868258 -0.04852958 -0.04836611 -0.04819308 -0.04801124 -0.04782273 -0.04763483 -0.04744795
 -0.04726744 -0.04709019 -0.04691473 -0.04673631 -0.04654942 -0.04635165 -0.04613886 -0.04591316 -0.04567387 -0.0454259
 -0.04517072 -0.04491169 -0.04465007 -0.04438566 -0.0441186 -0.04384828 -0.04357456 -0.04329949 -0.04302316 -0.04274677
 -0.0424701 -0.04219093 -0.04190946 -0.04162514 -0.04133908 -0.04105531 -0.04077274 -0.04049241 -0.04020935 -0.03991667
 -0.03961087 -0.03928365 -0.03894053 -0.03858152 -0.03821626 -0.03785059 -0.0374859 -0.03712527 -0.03676155 -0.03639392
 -0.03601569 -0.0356257 -0.03522095 -0.03480126 -0.03436173 -0.03390206 -0.03341284 -0.03289419 -0.0323428 -0.03176109
 -0.03116011 -0.03054156 -0.02991817 -0.02928681 -0.02864728 -0.02799535 -0.02732408 -0.02663231 -0.02591679 -0.02517579
 -0.02440938 -0.02360872 -0.02277113 -0.02188398 -0.02094084 -0.0199414 -0.01888112 -0.01778172 -0.01664376 -0.01550039
 -0.01435432 -0.01323242 -0.0121361 -0.01107858 -0.01005877 -0.00907087 -0.008110407 -0.007150817 -0.006187986 -0.005189957
 -0.00416552 -0.003113544 -0.002056093 -0.00102984 -4.078988E-05 0.0008845335 0.001766689 0.002611411 0.003439898 0.004266868
 0.0050949 0.005928914 0.006763204 0.00759653 0.008429068 0.009261138 0.0100897 0.01091519 0.01172349 0.01251387
 0.01327374 0.01400248 0.01469069 0.0153359 0.01591955 0.01643917 0.01687504 0.01722982 0.01749859 0.01768793
 0.01780437 0.01785753 0.01785719 0.01781958 0.01775774 0.01768927 0.01762619 0.01757964 0.01755633 0.01756033
 0.01759493 0.01765448 0.01773974 0.01783633 0.01794334 0.01804502 0.01814046 0.01821485 0.01826733 0.01828279
 0.01826119 0.01819348 0.01808206 0.01792975 0.01774031 0.01752263 0.01728198 0.01702872 0.01677182 0.01652343
 0.0162947 0.01609762 0.01593981 0.01582878 0.01576621 0.01575477 0.01579222 0.0158796 0.01600852 0.0161788
 0.01637627 0.01659953 0.01683922 0.01709474 0.01736828 0.01766023 0.0179765 0.01831683 0.01868267 0.01907306
 0.01948526 0.01991874 0.02037112 0.02084185 0.02132927 0.0218323 0.02234913 0.02287905 0.02342102 0.02397439
 0.02453928 0.02511267 0.02569449 0.02627805 0.02686236 0.02743909 0.02800675 0.02856002 0.02909799 0.02962068
 0.03012801 0.03062244 0.03110391 0.03157267 0.03202768 0.03246423 0.03287862 0.03325658 0.03359138 0.03385853
 0.03405659 0.03416859 0.03420589 0.03417312 0.03408629 0.03395977 0.03380389 0.03362836 0.03343709 0.03323436
 0.03301801 0.03278941 0.03253976 0.03226794 0.03196625 0.03163294 0.03127486 0.03089225 0.03049951 0.03009625
 0.02967887 0.02924498 0.02877665 0.02827389 0.02772617 0.02713732 0.02651154 0.02585242 0.02517064 0.02446067
 0.02372459 0.02294312 0.02210092 0.02118504 0.02017517 0.01909913 0.01795735 0.01679837 0.0156372 0.01449263
 0.0133712 0.01227175 0.0111938 0.01014847 0.009136288 0.008175038 0.007264789 0.006408397 0.005604057 0.004840812
 0.004117878 0.003426331 0.002766849 0.002137458 0.001537115 0.0009648063 0.0004148844 -0.0001186895 -0.0006437931 -0.001169599
 -0.001698977 -0.00223747 -0.002780326 -0.003326938 -0.003873171 -0.004417945 -0.004958489 -0.005496214 -0.006014596 -0.00651325
 -0.006963643 -0.007363704 -0.007706671 -0.007993732 -0.008247157 -0.008468926 -0.008684034 -0.008891391 -0.009101218 -0.009308612
 -0.009507031 -0.009690093 -0.009844037 -0.009963262 -0.01003582 -0.01005743 -0.01002061 -0.009923073 -0.009761381 -0.009535162
 -0.009243361 -0.008886845 -0.008465494 -0.007980961 -0.007433489 -0.006824621 -0.006154827 -0.005421689 -0.004625086 -0.003760849
 -0.002829899 -0.001847173 -0.0008191276 0.0002010737 0.001206232 0.002135117 0.002992402 0.003756878 0.004442048 0.005062509
 0.005629466 0.006161496 0.006669557 0.0071654 0.007668607 0.008192698 0.008755282 0.009372638 0.01002877 0.01072873
 0.01142354 0.01210413 0.01274196 0.01333039 0.01388034 0.0143919 0.01488355 0.01535564 0.01581256 0.01625335
 0.01667256 0.01706998 0.01744168 0.01778877 0.01811245 0.01841338 0.01869415 0.01895284 0.01918844 0.01939801
 0.01957781 0.01972856 0.01984921 0.01994242 0.02000987 0.02005007 0.02006368 0.02004536 0.0199946 0.01990531
 0.0197773 0.01960044 0.0193743 0.01908158 0.01872146 0.01827829 0.01775298 0.01714512 0.01645695 0.01569897
 0.01487059 0.01397606 0.01301256 0.01197547 0.01086587 0.009680873 0.008429396 0.00711635 0.005755879 0.004356452
 0.002933653 0.001494767 5.484584E-05 -0.001380644 -0.002801285 -0.004204074 -0.005584618 -0.006942563 -0.008270624 -0.009568641
 -0.01081982 -0.01202336 -0.0131643 -0.0142434 -0.01526035 -0.016217 -0.01712199 -0.01797531 -0.01878147 -0.0195392
 -0.02024717 -0.02090697 -0.02151847 -0.02208829 -0.02262125 -0.02312656 -0.02361091 -0.02408221 -0.02454555 -0.02500503
 -0.02546336 -0.02591979 -0.02637509 -0.0268249 -0.02726893 -0.02770239 -0.02812482 -0.02853519 -0.02893347 -0.02932042
 -0.02969547 -0.03005475 -0.03039626 -0.03070894 -0.03099066 -0.03122904 -0.03142416 -0.03156954 -0.03166827 -0.03172073
 -0.03173344 -0.03171108 -0.03166377 -0.03159798 -0.03152559 -0.03145261 -0.03138968 -0.03134097 -0.03131392 -0.03131117
 -0.03133406 -0.03138385 -0.03145356 -0.03154309 -0.03164008 -0.0317439 -0.03184311 -0.03193732 -0.03201867 -0.03208691
 -0.03213674 -0.03216812 -0.03217771 -0.0321666 -0.03213466 -0.03208492 -0.03202099 -0.03194697 -0.03186809 -0.0317871
 -0.03170791 -0.03163002 -0.03155455 -0.03147898 -0.03140277 -0.031324 -0.03124196 -0.03115698 -0.03106892 -0.03097907
 -0.03088751 -0.03079492 -0.03070129 -0.03060571 -0.03050816 -0.03040776 -0.03030504 -0.03020182 -0.03009949 -0.03000319
 -0.02991426 -0.02983807 -0.02977497 -0.02972779 -0.02969619 -0.02968105 -0.02968122 -0.02969678 -0.02972466 -0.02976428
 -0.02981007 -0.02986075 -0.02990974 -0.02995578 -0.02999255 -0.03001907 -0.03003101 -0.03002779 -0.03000922 -0.02997535
 -0.02993102 -0.02987678 -0.02981985 -0.02976069 -0.02970544 -0.0296541 -0.02960993 -0.0295725 -0.02954282 -0.0295196
 -0.02950174 -0.02948698 -0.02947295 -0.02945705 -0.02943674 -0.02941049 -0.02937679 -0.02933555 -0.02928641 -0.02922957
 -0.029165 -0.0290929 -0.0290131 -0.02892744 -0.02883593 -0.02874264 -0.02864778 -0.02855493 -0.02846401 -0.02837545
 -0.02828908 -0.028204 -0.02812064 -0.02803976 -0.02796228 -0.02789048 -0.02782523 -0.0277689 -0.0277216 -0.0276847
 -0.02765689 -0.02763808 -0.02762573 -0.02761832 -0.02761516 -0.02761505 -0.02762092 -0.027633 -0.02765498 -0.02768767
 -0.02773157 -0.02778697 -0.02785133 -0.02792451 -0.02800373 -0.02808886 -0.02817767 -0.02826989 -0.02836315 -0.02845691
 -0.02854824 -0.02863651 -0.02871883 -0.02879489 -0.02886273 -0.02892298 -0.02897552 -0.0290213 -0.02906111 -0.02909512
 -0.02912367 -0.02914647 -0.02916336 -0.02917458 -0.02918019 -0.02918036 -0.02917529 -0.02916382 -0.02914591 -0.02911987
 -0.02908562 -0.02904319 -0.02899273 -0.02893602 -0.0288733 -0.02880674 -0.02873657 -0.02866478 -0.02859126 -0.0285171
 -0.02844128 -0.02836295 -0.02828057 -0.02819214 -0.02809667 -0.02799252 -0.02788028 -0.02775967 -0.02763202 -0.02749795
 -0.02735746 -0.02721116 -0.02705586 -0.02689141 -0.02671321 -0.02652072 -0.02631211 -0.02608727 -0.02584922 -0.02559844
 -0.02534169 -0.02507967 -0.02481974 -0.02456284 -0.02431612 -0.02408013 -0.02386005 -0.02365504 -0.02346656 -0.02329228
 -0.02313027 -0.02297835 -0.02283419 -0.02269667 -0.02256455 -0.02243769 -0.02231578 -0.02219887 -0.02208696 -0.02197991
 -0.02187778 -0.02178003 -0.0216867 -0.02159655 -0.02150955 -0.02142302 -0.02133665 -0.0212458 -0.02114988 -0.02104293
 -0.02092462 -0.02079025 -0.02064053 -0.0204743 -0.02029344 -0.02010039 -0.01989687 -0.01968587 -0.01946825 -0.01924532
 -0.01901834 -0.01878737 -0.0185569 -0.01832765 -0.01810714 -0.01789742 -0.01770333 -0.01752693 -0.01736349 -0.01721334
 -0.01706417 -0.0169153 -0.01675789 -0.01659231 -0.01642241 -0.01624982 -0.01608706 -0.0159347 -0.01580234 -0.01568793
 -0.01559186 -0.0155106 -0.01543845 -0.01537266 -0.01530757 -0.01524252 -0.01517474 -0.01510584 -0.01503552 -0.01496709
 -0.01490179 -0.01484166 -0.01478789 -0.01473901 -0.01469514 -0.0146534 -0.01461332 -0.01457515 -0.01453886 -0.01450721
 -0.01448015 -0.01445769 -0.01443916 -0.01442013 -0.01440028 -0.01437557 -0.01434706 -0.01431523 -0.01428147 -0.01424863
 -0.01421676 -0.01418705 -0.01415911 -0.01413211 -0.0141087 -0.014089 -0.01407932 -0.01408189 -0.01410211 -0.01414277
 -0.01420196 -0.01428103 -0.01436865 -0.01446435 -0.01455212 -0.01463095 -0.01468853 -0.01472473 -0.01473643 -0.01472454
 -0.01469357 -0.01464454 -0.01458382 -0.01451202 -0.01443328 -0.01434929 -0.01426362 -0.01418097 -0.01410735 -0.01404961
 -0.01401563 -0.01400932 -0.01403655 -0.01409343 -0.01418133 -0.0142896 -0.01441644 -0.01454994 -0.01468797 -0.01482142
 -0.01494917 -0.01506449 -0.01516689 -0.01525169 -0.01531878 -0.01536656 -0.01539547 -0.01540757 -0.01540347 -0.01538637
 -0.01535718 -0.01531909 -0.01527464 -0.01522867 -0.01518611 -0.01515451 -0.01513877 -0.01514602 -0.01517762 -0.01523712
 -0.01532151 -0.01543089 -0.0155604 -0.01570888 -0.01587224 -0.01604976 -0.0162377 -0.0164359 -0.01663844 -0.01684505
 -0.01704692 -0.01724359 -0.01742659 -0.01759601 -0.01774812 -0.01788392 -0.01800523 -0.01811349 -0.01821349 -0.01830609
 -0.01839547 -0.01848077 -0.01856312 -0.0186398 -0.01870893 -0.01876795 -0.01881423 -0.01884829 -0.0188692 -0.01888
 -0.01888157 -0.0188751 -0.01886134 -0.01883807 -0.01880504 -0.01876127 -0.01870653 -0.01864556 -0.01857878 -0.01851446
 -0.01845283 -0.01839973 -0.01835433 -0.01831653 -0.01828454 -0.01825342 -0.01822187 -0.01818473 -0.01814249 -0.01809337
 -0.01803904 -0.01798054 -0.01791878 -0.01785514 -0.01778819 -0.01771787 -0.01764204 -0.01755978 -0.01747113 -0.01737542
 -0.01727648 -0.0171744 -0.0170754 -0.01697996 -0.01689196 -0.01681134 -0.01673591 -0.01666491 -0.01659117 -0.01651436
 -0.01642856 -0.01633514 -0.01623434 -0.01612902 -0.01602462 -0.01592366 -0.01583205 -0.01575008 -0.01568074 -0.01562146
 -0.01557207 -0.01552836 -0.01548873 -0.01544934 -0.01540861 -0.01536496 -0.0153174 -0.0152683 -0.01521751 -0.01517036
 -0.01512724 -0.01509187 -0.01506423 -0.01504175 -0.01502377 -0.01500337 -0.0149804 -0.0149502 -0.01491395 -0.01487258
 -0.01482724 -0.01478119 -0.01473358 -0.01468516 -0.0146333 -0.01457576 -0.01451067 -0.01443539 -0.01435171 -0.01425889
 -0.01416239 -0.01406356 -0.013967 -0.01387434 -0.01378506 -0.01369967 -0.01361339 -0.01352588 -0.01343374 -0.01333693
 -0.01323669 -0.01313317 -0.0130284 -0.01292183 -0.012812 -0.01269815 -0.01257669 -0.01244845 -0.01231278 -0.01217216
 -0.01202992 -0.01188755 -0.01174854 -0.01161068 -0.01147433 -0.01133477 -0.01118976 -0.01103684 -0.01087385 -0.01070444
 -0.01052852 -0.01035252 -0.01017775 -0.01000419 -0.009832334 -0.009652009 -0.009462683 -0.009253274 -0.009024412 -0.008777067
 -0.008513311 -0.008244095 -0.007969886 -0.007698305 -0.007427487 -0.007156232 -0.006885396 -0.006613671 -0.00634802 -0.00609372
 -0.005859631 -0.005654098 -0.005479789 -0.005341351 -0.005233585 -0.005156189 -0.005102712 -0.005071296 -0.00506059 -0.005069925
 -0.00510156 -0.005155763 -0.005231755 -0.005329336 -0.005440265 -0.005563479 -0.005685562 -0.005805567 -0.005911541 -0.006003673
 -0.006075976 -0.006129848 -0.006165184 -0.006183637 -0.006187735 -0.006178101 -0.006156417 -0.006122422 -0.006076103 -0.006018271
 -0.005948606 -0.005870536 -0.005784849 -0.005695223 -0.005602902 -0.005508222 -0.005411644 -0.005310537 -0.005204655 -0.00509314
 -0.004976016 -0.004857194 -0.004737024 -0.004620709 -0.004508093 -0.00440121 -0.004299412 -0.004201496 -0.004107432 -0.004016621
 -0.003929103 -0.003844995 -0.00376344 -0.003683623 -0.003604822 -0.003526131 -0.003447696 -0.00336985 -0.003290869 -0.003210835
 -0.003125544 -0.003033471 -0.002935307 -0.002830024 -0.00272704 -0.00262706 -0.002537783 -0.002459488 -0.002386772 -0.00231865
 -0.002241821 -0.002156665 -0.002057492 -0.001947176 -0.001832042 -0.001714703 -0.00160458 -0.001501324 -0.001409193 -0.00132502
 -0.001247525 -0.001172499 -0.001096747 -0.001016618 -0.000929102 -0.0008337377 -0.0007288528 -0.0006188755 -0.0005038375 -0.0003913631
 -0.000282691 -0.0001821775 -9.069993E-05 -4.446659E-06 7.679556E-05 0.0001622377 0.0002520744 0.0003518497 0.000460503 0.000575336
 0.0006947133 0.0008116544 0.0009254306 0.001030631 0.001128189 0.001216719 0.001298698 0.001375897 0.001451448 0.001528487
 0.001608078 0.001692176 0.001778595 0.001867384 0.001954853 0.002040169 0.002120724 0.002195874 0.002265161 0.002328297
 0.002388055 0.002444586 0.002503817 0.002566089 0.002637539 0.002717877 0.002808851 0.00290945 0.003016778 0.003130831
 0.00324944 0.003374847 0.003509704 0.003655752 0.003817483 0.003990896 0.004176201 0.004363684 0.004548407 0.00472347
 0.004884231 0.00503226 0.005166638 0.00529232 0.005410088 0.00552212 0.005628549 0.005732529 0.005834239 0.005942428
 0.0060575 0.006187398 0.006331246 0.00648823 0.006656548 0.006829221 0.007005544 0.007180373 0.007353906 0.007524907
 0.007691794 0.007853509 0.008005126 0.008143138 0.008261913 0.008356868 0.008427262 0.008470312 0.008493274 0.008496243
 0.008491564 0.008480928 0.008474901 0.008474737 0.008486239 0.008509802 0.00854807 0.008600947 0.008667877 0.008748177
 0.00883729 0.008934805 0.009036056 0.009142721 0.009256001 0.009378844 0.009517833 0.009671696 0.009843781 0.01002529
 0.01021129 0.01039187 0.01055861 0.01071211 0.01084818 0.01098066 0.01111223 0.01125391 0.01141064 0.01156768
 0.01172514 0.0118561 0.01195897 0.0120182 0.01203365 0.01200028 0.01191931 0.01179443 0.01162888 0.0114359
 0.01121954 0.01099617 0.01076871 0.01054925 0.01033941 0.01014569 0.009968624 0.009810999 0.009671673 0.009551437
 0.009446512 0.009355909 0.009275612 0.009203698 0.009141579 0.00908855 0.00905141 0.009030996 0.009029885 0.009048399
 0.009078772 0.009120287 0.00916046 0.009198808 0.009226245 0.009242554 0.009242468 0.009225094 0.009185256 0.00912299
 0.00903445 0.0089244 0.008795229 0.008656539 0.008517254 0.008383359 0.008262735 0.008150367 0.008047462 0.007943003
 0.007834166 0.007713972 0.007579857 0.007434488 0.007276874 0.007121877 0.006970189 0.006843796 0.006743449 0.006683778
 0.006663133 0.006678026 0.006725043 0.0067888 0.006867365 0.006947751 0.007030308 0.007109975 0.007187167 0.007261196
 0.007330141 0.007392572 0.007445698 0.007486682 0.007516867 0.007534525 0.007548199 0.007559215 0.007577464 0.007605772
 0.007644369 0.007694558 0.007744071 0.007792335 0.007823253 0.007836332 0.007822477 0.007783 0.007721886 0.007642501
 0.00756054 0.007478513 0.007412308 0.007359517 0.00732365 0.007300159 0.007282772 0.007274016 0.007272127 0.007285874
 0.007322001 0.00737931 0.007462632 0.007553508 0.007649292 0.007728131 0.007784931 0.007810518 0.007802292 0.007766461
 0.00770294 0.007629745 0.007548073 0.007480925 0.007428774 0.007406916 0.007412992 0.007446159 0.007502164 0.007569444
 0.007644362 0.007714605 0.007779097 0.007830506 0.007872034 0.007903129 0.007929812 0.007956587 0.007984 0.008015018
 0.00804182 0.008062468 0.008072391 0.008068942 0.008060188 0.008046474 0.008037901 0.008035422 0.008037759 0.00804474
 0.008051143 0.008057933 0.00807036 0.008089984 0.008127801 0.008181534 0.008251911 0.008332769 0.008412482 0.008487309
 0.008546335 0.008591744 0.008621329 0.008639201 0.008647367 0.008648613 0.008643673 0.008637971 0.008632243 0.008635323
 0.008649739 0.008676886 0.00871869 0.008759797 0.008799577 0.008815098 0.008805981</values></Ydata></AB><ScSm><Ydata ylabel="Single channel"><values byteorder="INTEL" format="FLOAT32" numvalues="1814"> 0.09334402 0.09346654 0.09360649 0.09377085 0.09395275 0.09413525 0.09430197 0.09444718 0.09457459 0.09468701
 0.09478815 0.09489504 0.09503224 0.09520698 0.09539875 0.09557498 0.09571342 0.09581935 0.09592766 0.09607196
 0.09623818 0.09636167 0.09638625 0.09632529 0.09625532 0.09624742 0.09632012 0.09647647 0.09674792 0.09712277
 0.09744631 0.09751981 0.0973468 0.0971697 0.09720032 0.09740737 0.0976149 0.09769879 0.09763625 0.09748954
 0.09743149 0.097691 0.0983457 0.09915267 0.09962314 0.09930345 0.09807706 0.09632958 0.09485741 0.09445079
 0.09532376 0.09687716 0.09814775 0.0985845 0.09834617 0.09789094 0.09749822 0.09726293 0.09730598 0.09774978
 0.09851902 0.09926608 0.09950905 0.0989456 0.09779298 0.09675138 0.09643511 0.0968948 0.09782729 0.09894414
 0.09970582 0.09904736 0.09631631 0.09270795 0.09090129 0.09258798 0.09670287 0.1005319 0.102185 0.1016007
 0.09976804 0.09784964 0.09687191 0.09737311 0.09905315 0.1010736 0.1027245 0.1036139 0.1034918 0.1023666
 0.1007406 0.09939624 0.09896111 0.09972539 0.1015261 0.1035696 0.1047469 0.1045069 0.103269 0.1018767
 0.1009743 0.100976 0.1020989 0.1041063 0.1063294 0.1081613 0.1093739 0.109984 0.1101059 0.1099294
 0.1096257 0.1093216 0.1092268 0.1095277 0.1100216 0.1101586 0.1096536 0.1088734 0.108466 0.1086929
 0.1092054 0.1094656 0.1092792 0.1086973 0.1074705 0.1051697 0.1020665 0.09927199 0.09765306 0.09722413
 0.09785262 0.09962684 0.1020007 0.1035317 0.1033324 0.1022687 0.1020225 0.1032718 0.1052652 0.1069177
 0.1078654 0.1085206 0.1094291 0.1106531 0.1116206 0.1115483 0.1102387 0.1085738 0.1079303 0.1088502
 0.1105158 0.1117551 0.1122731 0.1126182 0.1132128 0.113741 0.1134231 0.1118507 0.1096909 0.1084561
 0.109257 0.1117032 0.1141068 0.1147585 0.1131429 0.1102161 0.1076049 0.106437 0.1069005 0.1087064
 0.1114922 0.1146504 0.1172334 0.1184335 0.1181417 0.1169255 0.1154114 0.1137013 0.1115943 0.1094967
 0.108666 0.1100356 0.1130166 0.1159662 0.1177061 0.1181782 0.117777 0.1165535 0.1143209 0.1114786
 0.109377 0.1093167 0.1110702 0.112941 0.113567 0.1131929 0.1128986 0.1131226 0.1134217 0.1133739
 0.1132042 0.1134626 0.114323 0.1153646 0.1160196 0.1160975 0.11583 0.1155408 0.115337 0.1150474
 0.114488 0.113875 0.11381 0.1146475 0.1160174 0.1171955 0.117817 0.1180222 0.1180206 0.117736
 0.1169403 0.1157038 0.1146141 0.1143598 0.1150613 0.1161797 0.1170906 0.1175486 0.1176248 0.1174709
 0.1172164 0.1169365 0.1166705 0.116512 0.1165904 0.1168975 0.1172388 0.1174272 0.1174368 0.1173313
 0.1171369 0.1168445 0.1164906 0.116185 0.1160412 0.1160856 0.1162506 0.1164437 0.1165886 0.1166173
 0.1164959 0.1162688 0.1160275 0.1158281 0.1156753 0.1155748 0.1155496 0.1155983 0.1156705 0.1157039
 0.1156728 0.115592 0.1154819 0.1153509 0.1152082 0.1150755 0.1149816 0.1149458 0.1149586 0.1149835
 0.1149971 0.1150184 0.1150674 0.1151083 0.115078 0.1149672 0.1148354 0.1147467 0.1147196 0.1147313
 0.1147456 0.1147281 0.1146512 0.1145092 0.1143439 0.1142377 0.1142526 0.1143819 0.1145728 0.1147736
 0.1149432 0.1150526 0.1151071 0.1151418 0.1151782 0.1152027 0.115199 0.1151834 0.1152016 0.1152931
 0.1154532 0.1156307 0.115772 0.1158591 0.1159051 0.1159385 0.1159972 0.1160995 0.1162097 0.1162682
 0.1162685 0.1162712 0.1163298 0.1164296 0.1165128 0.1165447 0.116545 0.1165594 0.1166115 0.1166866
 0.1167595 0.1168245 0.1168963 0.1169837 0.117065 0.1170967 0.117057 0.1169774 0.1169132 0.116888
 0.1168865 0.1168958 0.1169252 0.1169791 0.1170333 0.1170523 0.1170269 0.1169839 0.1169546 0.116938
 0.1169038 0.1168319 0.1167356 0.1166449 0.1165779 0.1165313 0.1164886 0.1164326 0.1163543 0.1162546
 0.1161395 0.1160152 0.1158857 0.1157557 0.1156407 0.1155651 0.1155356 0.1155143 0.1154386 0.1152789
 0.1150705 0.1148806 0.1147491 0.1146627 0.1145805 0.1144763 0.1143565 0.1142439 0.1141536 0.1140853
 0.1140309 0.1139854 0.1139554 0.1139589 0.11401 0.1140942 0.1141686 0.1141989 0.1141922 0.1141857
 0.1142066 0.1142541 0.1143149 0.1143812 0.1144555 0.1145462 0.1146564 0.1147735 0.1148764 0.1149609
 0.1150468 0.1151575 0.1153016 0.115474 0.1156606 0.1158378 0.115987 0.1161161 0.1162545 0.1164219
 0.1166124 0.116812 0.1170203 0.1172455 0.1174896 0.1177474 0.1180172 0.118305 0.1186168 0.1189505
 0.1192949 0.1196365 0.1199689 0.1203012 0.1206525 0.1210354 0.1214441 0.1218596 0.1222668 0.1226653
 0.1230646 0.1234717 0.1238851 0.1243037 0.1247356 0.1251902 0.1256638 0.1261406 0.1266088 0.1270698
 0.1275298 0.1279908 0.1284512 0.1289139 0.129389 0.129885 0.1303942 0.13089 0.131347 0.1317666
 0.132177 0.1326076 0.1330674 0.1335426 0.1340055 0.1344318 0.1348218 0.1352029 0.1356022 0.1360184
 0.1364306 0.1368335 0.1372487 0.1376944 0.1381539 0.1385843 0.1389585 0.1392915 0.139621 0.139965
 0.1403062 0.1406192 0.1409046 0.1411856 0.1414787 0.1417804 0.1420872 0.1424096 0.1427548 0.1431053
 0.1434311 0.1437207 0.1439871 0.1442457 0.1444967 0.1447303 0.1449402 0.1451329 0.1453263 0.1455331
 0.145748 0.1459589 0.1461714 0.1464068 0.1466761 0.1469686 0.1472748 0.1476022 0.1479585 0.148329
 0.1486914 0.1490492 0.1494303 0.1498408 0.1502427 0.150592 0.1508877 0.151164 0.1514464 0.1517417
 0.152061 0.1524218 0.1528237 0.1532403 0.1536389 0.1540029 0.1543396 0.1546739 0.155026 0.1553871
 0.1557229 0.1560093 0.1562565 0.1564966 0.1567541 0.157032 0.157315 0.1575812 0.1578118 0.1579933
 0.1581122 0.1581552 0.1581224 0.1580315 0.1578986 0.157714 0.157448 0.1570767 0.1565925 0.1559895
 0.1552517 0.1543717 0.153381 0.1523645 0.1514422 0.1507341 0.150328 0.1502668 0.1505517 0.1511407
 0.1519426 0.1528231 0.1536323 0.1542372 0.1545411 0.1544924 0.1540914 0.153388 0.1524633 0.1514043
 0.1502877 0.1491725 0.1481034 0.1471308 0.146341 0.145864 0.1458462 0.1464103 0.1476295 0.1494985
 0.1518902 0.1545452 0.1571514 0.1594727 0.161427 0.163058 0.1644568 0.1657039 0.1668534 0.1679345
 0.1689564 0.169918 0.1708175 0.171652 0.1724114 0.1730771 0.1736266 0.1740406 0.1743117 0.1744551
 0.1745089 0.1745215 0.1745379 0.1745905 0.1746845 0.1747794 0.1747924 0.1746353 0.1742583 0.1736732
 0.1729581 0.1722645 0.1718249 0.1719252 0.1728029 0.1745039 0.1768135 0.179346 0.1817328 0.1837573
 0.1853637 0.1865985 0.187554 0.1883284 0.1889978 0.1896056 0.1901715 0.1907057 0.1912168 0.1917112
 0.1921916 0.1926585 0.1931171 0.1935767 0.194041 0.1945032 0.1949556 0.1954003 0.1958476 0.1963049
 0.1967685 0.1972279 0.1976784 0.1981277 0.1985838 0.1990409 0.1994829 0.1999036 0.2003126 0.200724
 0.2011449 0.2015738 0.2020022 0.2024189 0.2028159 0.2031955 0.2035665 0.2039353 0.2043027 0.2046673
 0.2050276 0.2053836 0.2057368 0.2060906 0.2064468 0.2068016 0.2071464 0.2074743 0.2077867 0.2080925
 0.2084006 0.2087156 0.2090362 0.2093579 0.2096759 0.2099906 0.2103077 0.2106327 0.2109647 0.2112959
 0.2116185 0.2119312 0.2122399 0.2125518 0.2128678 0.2131815 0.2134881 0.2137907 0.2140969 0.2144102
 0.2147263 0.2150373 0.215338 0.2156291 0.2159174 0.2162098 0.2165078 0.2168067 0.2171022 0.2173952
 0.2176904 0.2179898 0.2182892 0.2185827 0.2188683 0.2191482 0.2194257 0.2197027 0.2199813 0.2202638
 0.2205519 0.2208449 0.2211385 0.2214276 0.2217115 0.2219941 0.2222786 0.2225639 0.2228484 0.2231328
 0.2234194 0.2237101 0.2240046 0.2242991 0.2245888 0.2248714 0.2251486 0.225423 0.2256976 0.2259747
 0.2262533 0.2265302 0.2268039 0.2270765 0.22735 0.2276248 0.2279 0.2281747 0.2284487 0.2287214
 0.2289916 0.2292592 0.2295264 0.2297953 0.2300639 0.2303295 0.2305931 0.2308572 0.2311212 0.2313851
 0.2316523 0.2319261 0.2322052 0.2324855 0.2327628 0.2330338 0.2332976 0.2335569 0.2338159 0.2340786
 0.2343474 0.2346197 0.2348894 0.2351543 0.2354187 0.2356873 0.2359609 0.2362387 0.2365182 0.2367958
 0.2370706 0.2373439 0.2376161 0.2378864 0.2381574 0.238432 0.2387098 0.2389897 0.2392722 0.239556
 0.2398382 0.2401184 0.2403962 0.2406698 0.2409379 0.2412 0.241454 0.2417007 0.2419478 0.2422007
 0.242456 0.242709 0.2429603 0.2432113 0.2434618 0.2437146 0.2439731 0.2442379 0.2445093 0.2447866
 0.2450639 0.2453354 0.2456039 0.2458751 0.2461494 0.2464252 0.2467022 0.2469782 0.2472533 0.2475341
 0.247824 0.2481176 0.2484105 0.2487029 0.2489918 0.2492741 0.249555 0.2498414 0.2501328 0.2504256
 0.2507176 0.2510045 0.2512852 0.251567 0.2518547 0.2521431 0.2524284 0.2527133 0.2529975 0.2532792
 0.253562 0.2538478 0.2541339 0.2544229 0.2547198 0.2550204 0.2553179 0.2556139 0.2559096 0.2561989
 0.256482 0.2567655 0.257049 0.2573292 0.2576089 0.2578857 0.2581512 0.2584086 0.2586677 0.2589207
 0.259138 0.2592544 0.2591048 0.2583445 0.2564012 0.2524882 0.2457608 0.2356558 0.2222336 0.2062721
 0.1890505 0.1719491 0.1560747 0.1421154 0.1304347 0.1212198 0.1145817 0.1106456 0.1096243 0.1119227
 0.1182768 0.1293162 0.1439559 0.1580099 0.1657617 0.1642955 0.1561397 0.1469719 0.1409961 0.1388817
 0.1392005 0.1405435 0.1423539 0.1447696 0.1481341 0.152494 0.1575512 0.1631555 0.1695876 0.1771299
 0.1855166 0.1940318 0.2021106 0.2097055 0.2170751 0.2243374 0.2312937 0.2376199 0.2431166 0.2477778
 0.2517268 0.2551386 0.2581693 0.2609182 0.2634455 0.2657839 0.2678948 0.2696451 0.2708833 0.2715606
 0.2717907 0.2717968 0.2717891 0.2718733 0.2720628 0.2723459 0.2727149 0.2731574 0.2736604 0.2742147
 0.2748064 0.275416 0.276029 0.2766339 0.277214 0.277758 0.2782686 0.2787515 0.2792087 0.2796447
 0.2800643 0.2804673 0.2808539 0.28123 0.2815995 0.2819625 0.2823215 0.2826754 0.2830158 0.2833353
 0.2836345 0.2839165 0.284185 0.2844459 0.2847024 0.2849508 0.2851911 0.2854312 0.285676 0.2859238
 0.2861723 0.2864185 0.2866557 0.2868812 0.2871006 0.2873195 0.2875397 0.2877625 0.2879885 0.2882151
 0.2884426 0.2886753 0.2889122 0.2891448 0.2893662 0.2895798 0.2897973 0.2900312 0.2902845 0.290547
 0.2908077 0.2910669 0.2913283 0.2915898 0.2918492 0.2921098 0.2923737 0.2926393 0.2929057 0.2931721
 0.29343 0.2936673 0.2938806 0.29408 0.2942817 0.2944971 0.2947229 0.294946 0.2951597 0.2953709
 0.2955894 0.2958174 0.2960496 0.2962783 0.2965009 0.2967276 0.2969751 0.2972467 0.2975281 0.2978062
 0.298081 0.2983571 0.2986354 0.298915 0.2991935 0.2994638 0.2997206 0.2999709 0.3002351 0.3005334
 0.3008667 0.3012101 0.3015337 0.3018302 0.3021163 0.3024118 0.302725 0.3030471 0.3033464 0.3035896
 0.3037858 0.3039984 0.3042893 0.3046606 0.3050615 0.3054421 0.3057859 0.306102 0.3064021 0.3066868
 0.3069474 0.3071766 0.3073873 0.3076214 0.3079246 0.3082988 0.3086925 0.3090529 0.3093678 0.3096511
 0.3099169 0.3101761 0.3104215 0.3106071 0.3106946 0.3107409 0.3108909 0.3112403 0.3117312 0.3122146
 0.3125997 0.3129085 0.313197 0.3134823 0.3137541 0.3139847 0.3140911 0.3139774 0.3137064 0.3135607
 0.3138122 0.3144488 0.3152076 0.3158428 0.3162866 0.3165944 0.3168405 0.3170685 0.3172623 0.3173421
 0.3172517 0.3170887 0.3170897 0.3174139 0.3179641 0.3184942 0.3188673 0.3191298 0.3193749 0.3196362
 0.3198726 0.3199457 0.3196757 0.3190891 0.3185871 0.3186847 0.3195094 0.3206545 0.3215876 0.322127
 0.3224381 0.3226531 0.3226742 0.3223495 0.32166 0.3207218 0.3198277 0.3194911 0.3201135 0.3214675
 0.3227893 0.3235434 0.3238835 0.3242641 0.3248513 0.3254547 0.3258405 0.3259402 0.3258115 0.3255027
 0.32503 0.3245336 0.3243695 0.3248592 0.3259174 0.3270718 0.3279057 0.3283848 0.3286709 0.3286451
 0.327783 0.3257799 0.323368 0.3221297 0.3230931 0.3256513 0.3282186 0.3297954 0.330513 0.3308955
 0.3311778 0.3312374 0.3305805 0.3285068 0.3250633 0.3218746 0.3211563 0.3235319 0.3273352 0.3302236
 0.3309678 0.3297028 0.3273323 0.3251112 0.3242014 0.3250396 0.3271521 0.3296347 0.3316983 0.3328885
 0.3331133 0.332592 0.33176 0.3311565 0.3310872 0.331164 0.330545 0.3290292 0.327446 0.3263763
 0.3250838 0.3227175 0.3202105 0.3196968 0.3218728 0.324995 0.3269039 0.3272316 0.3270086 0.3265819
 0.3247736 0.3204383 0.3145918 0.3103699 0.3103436 0.3139553 0.3180745 0.3200698 0.3198831 0.3191341
 0.3188342 0.3183126 0.3162148 0.3124285 0.308822 0.3075756 0.3087441 0.3101777 0.3099024 0.3075061
 0.3030982 0.2968017 0.2903749 0.287555 0.2907553 0.2980559 0.3048996 0.3080294 0.3065115 0.3003759
 0.2909298 0.2821445 0.2788716 0.2823689 0.2888327 0.2930815 0.2926473 0.2878783 0.2798118 0.2696996
 0.2600791 0.2544717 0.2551374 0.261261 0.2691372 0.2738048 0.2715836 0.2630041 0.2535026 0.2493313
 0.2517079 0.2560369 0.2573248 0.2548696 0.2512246 0.248688 0.2480242 0.2489306 0.2503955 0.2514922
 0.2521035 0.2515986 0.2474854 0.2381902 0.2272309 0.2213524 0.2235387 0.2305792 0.2382295 0.2454498
 0.2520556 0.2556805 0.2543125 0.2503363 0.2490239 0.2529327 0.2594826 0.2642491 0.265433 0.2645851
 0.2637052 0.2628119 0.260962 0.2588873 0.2590214 0.2624866 0.2673579 0.2707622 0.271769 0.2713982
 0.2706907 0.2698329 0.2686912 0.2672436 0.2655393 0.2637126 0.261975 0.260395 0.2588551 0.2573032
 0.2556839 0.2533855 0.249304 0.2432978 0.2374182 0.2345071 0.2352317 0.237662 0.2400256 0.2419862
 0.2423621 0.2381793 0.228541 0.2181025 0.2138774 0.2184712 0.2280103 0.2364936 0.2405339 0.239784
 0.2349159 0.2273289 0.2206306 0.2200129 0.2282531 0.242809 0.2580916 0.2701699 0.2782622 0.2826061
 0.2830009 0.2799312 0.2758243 0.2740979 0.2768292 0.2833976 0.2909672 0.2957945 0.2948499 0.2883227
 0.2813151 0.2807522 0.2884826 0.2987958 0.3047213 0.3053437 0.3047731 0.3056377 0.3068209 0.3070718
 0.3075539 0.3098328 0.3132634 0.3155178 0.3146752 0.3100349 0.3020917 0.2930801 0.2866347 0.2849758
 0.2865421 0.2878448 0.2870733 0.2841711 0.2786574 0.270564 0.2631833 0.261316 0.2658268 0.2723824
 0.2764208 0.2774181 0.277502 0.2776132 0.2764079 0.2725334 0.267042 0.2629412 0.2622491 0.2640919
 0.2661438 0.2671491 0.2671236 0.2659036 0.2631558 0.2599317 0.2587978 0.261574 0.2674022 0.2735833
 0.2780507 0.2806263 0.2822462 0.283718 0.2852644 0.2866705 0.2877129 0.2887778 0.290894 0.2946104
 0.2990067 0.3025197 0.3047481 0.3067896 0.3097076 0.313238 0.3162079 0.3178523 0.3185036 0.3191944
 0.3207396 0.3230703 0.3253 0.3265035 0.3266206 0.3266158 0.3275955 0.3297366 0.332216 0.3341416
 0.3353044 0.3360525 0.336771 0.3375815 0.338294 0.3385809 0.3384153 0.3383492 0.3390967 0.3407675
 0.34271 0.3441551 0.3448451 0.3450013 0.3448887 0.3445708 0.3440166 0.3432959 0.3426028 0.342112
 0.3418531 0.3417303 0.341629 0.3414881 0.3413122 0.3411568 0.3410915 0.341149 0.3413132 0.3415551
 0.3418492 0.3421514 0.3424006 0.3425674 0.3426703 0.3427244 0.3426982 0.3425345 0.3421911 0.3416389
 0.3408412 0.3397552 0.3383425 0.3365569 0.3343534 0.3317948 0.3292248 0.3273024 0.3267289 0.3278055
 0.3301965 0.3331223 0.3358077 0.3378202 0.3391088 0.3398359 0.3401994 0.3403456 0.3403564 0.3402675
 0.3400971 0.3398675 0.3396056 0.3393329 0.3390661 0.3388227 0.3386173 0.338446 0.3382804 0.3380788
 0.3378039 0.3374355 0.3369707 0.336417 0.3357808 0.3350546 0.3342143 0.3332371 0.3321302 0.3309431
 0.3297478 0.3286031 0.3275242 0.3264765 0.3254033 0.3242528 0.3229695 0.3214826 0.3197693 0.3179498
 0.316259 0.3148604 0.3137021 0.3125854 0.3113494 0.3099592 0.3084552 0.3068843 0.3052829 0.3036771
 0.3020731 0.3004524 0.2987822 0.2970284 0.2951723 0.2932177 0.2911795 0.2890674 0.286888 0.2846489
 0.2823369 0.2798823 0.2771552 0.2740014 0.2702893 0.2659386 0.2609366 0.2553499 0.2493294 0.2430896
 0.2368653 0.2308698 0.2252785 0.2202348 0.2158574 0.2122402 0.2094495 0.207522 0.2064726 0.2063037
 0.207005 0.2085398 0.2108314 0.2137613 0.2171735 0.2208808 0.2246748 0.2283528 0.2317688 0.2348808
 0.2377438 0.2404346 0.2429779 0.245343 0.247493 0.2494113 0.2510865 0.2524981 0.2536325 0.2545092
 0.2551823 0.2557157 0.2561574 0.2565325 0.2568538 0.2571357 0.2573996 0.2576679 0.2579559 0.2582684
 0.2586016 0.2589467 0.2592954 0.2596481 0.2600206 0.2604406 0.2609375 0.2615323 0.2622309 0.2630258
 0.2639088 0.2648855 0.2659794 0.2672248 0.2686517 0.2702669 0.2720446 0.2739301 0.2758467 0.2776981
 0.2793799 0.2808024 0.281911 0.2826903 0.2831553 0.2833372 0.2832707 0.282987 0.2825149 0.2818838
 0.2811271 0.2802839 0.2793906 0.2784627 0.2774891 0.2764507 0.2753482 0.2742091 0.2730682 0.2719425
 0.2708296 0.2697275 0.2686466 0.2676002 0.2665933 0.2656233 0.2646858 0.2637794 0.262909 0.262082
 0.2612966 0.2605336 0.2597559 0.2589124 0.2579498 0.2568344 0.2555621 0.2541428 0.2525823 0.2508811
 0.2490427 0.2470776 0.2450043 0.2428415 0.2405985 0.238274 0.2358601 0.2333495 0.2307579 0.2281476
 0.2256137 0.2232316 0.2210246 0.2189771 0.2170614 0.2152523 0.2135305 0.2118803 0.2102872 0.2087439
 0.2072533 0.2058182 0.2044388 0.2031237 0.2018895 0.2007466 0.1996975 0.1987456 0.1978914 0.1971242
 0.1964276 0.1957941 0.1952396 0.1948122 0.1945673 0.1945089 0.1945649 0.194637 0.1946676 0.1946608
 0.1946584 0.1946965 0.1947759 0.19487 0.1949479 0.1949649 0.1948409 0.1944756 0.1937809 0.192693
 0.191182 0.1892751 0.187062 0.1846797 0.1822959 0.1800806 0.1781572 0.1765839 0.1753686 0.1744699
 0.1737977 0.1732637 0.1728467 0.1726001 0.1725975 0.172846 0.1732197 0.1735128 0.1736223 0.1736622
 0.1738637 0.1743804 0.1751987 0.1761803 0.1771578 0.1780157 0.1787068 0.1792168 0.1795503 0.1797413
 0.1798298 0.1798241 0.1797116 0.1794842 0.1791369 0.1786758 0.1781298 0.1775213 0.176838 0.1760626
 0.1751955 0.1742336 0.1731679 0.1720014 0.1707228 0.1693017 0.1677842 0.1663738 0.1653581 0.1649547
 0.1652005 0.1659343 0.1669052 0.1679386 0.1689618 0.1698849 0.1705976 0.1711559 0.1718719 0.173113
 0.1749891 0.1772313 0.1793734 0.1810553 0.1821474 0.1826497 0.1826002 0.1820719 0.1811258 0.1797613
 0.1780007 0.1759602 0.1737667 0.1715107 0.1693127 0.167302 0.1655405 0.1640559 0.1628605 0.1619464
 0.1613666 0.1608511 0.1588577 0.153109 0.1438313 0.1358502 0.134952 0.141656 0.1505052 0.1559317
 0.1569858 0.1560024 0.1549184 0.1541431 0.1535892 0.1533132 0.1533626 0.1536381 0.1539302 0.154014
 0.1537882 0.1532642 0.1523238 0.1504905 0.1469137 0.1406698 0.1314489 0.1201929 0.1088924 0.09952477
 0.0930815 0.08937165 0.08744502 0.08624759 0.08522254 0.08450872 0.08459435 0.08580822 0.08813392 0.09136422
 0.09525307 0.09947637 0.1035743 0.1071002 0.1098632 0.1119438 0.1134705 0.1144804 0.1149864 0.1150531
 0.1147685 0.1142107 0.1134492 0.1125184 0.111395 0.110052 0.1085561 0.1071033 0.1059326 0.1051703
 0.1047584 0.1045511 0.104453 0.1044392 0.104495 0.1045962 0.1047264 0.1048871 0.1050992 0.105388
 0.10574 0.1060869 0.1063568 0.106527 0.1066165 0.1066371 0.1065551 0.1063151 0.1059299 0.1055064
 0.1051002 0.1045714 0.1037009 0.1024763 0.1012003 0.1002957 0.1000158 0.1002954 0.1008212 0.1012583
 0.1014598 0.101494 0.1014922 0.1014766</values></Ydata></ScSm><ScRf><Ydata ylabel="Single channel"><values byteorder="INTEL" format="FLOAT32" numvalues="1820"> 0.0705559 0.07069048 0.07081021 0.0709147 0.07100821 0.07110089 0.07120605 0.07133074 0.07146905 0.07160547
 0.07172645 0.0718307 0.07192571 0.072015 0.07209748 0.072181 0.07228385 0.07241562 0.07256375 0.07270165
 0.07280835 0.07288634 0.07296377 0.07306771 0.07318772 0.07327642 0.07329492 0.07325481 0.07321034 0.07321015
 0.07326721 0.07338664 0.07359362 0.07387708 0.07411706 0.07416329 0.07402234 0.07388315 0.07390901 0.07407479
 0.0742435 0.07431783 0.07427791 0.07416909 0.07412335 0.07431837 0.07481625 0.07543159 0.07579002 0.07554576
 0.07461104 0.07327992 0.07215875 0.07185042 0.07251886 0.07370607 0.07467517 0.07500578 0.07482164 0.07447483
 0.07417838 0.07400267 0.07403874 0.07438093 0.0749732 0.07554901 0.0757365 0.07530288 0.07441789 0.07362214
 0.07338583 0.07374309 0.07445845 0.07531145 0.07589059 0.07538151 0.07328726 0.0705277 0.06915607 0.070463
 0.073625 0.07655996 0.07782264 0.07737027 0.07596329 0.07449456 0.07375141 0.07414335 0.07543537 0.07698318
 0.07824536 0.07892424 0.078829 0.07796793 0.07672904 0.07571273 0.07539505 0.07599201 0.07737552 0.07893854
 0.07983482 0.07964479 0.07869128 0.07762186 0.07693262 0.07694253 0.07781589 0.07936645 0.08107726 0.08248397
 0.08341575 0.08388902 0.08399165 0.0838671 0.08364516 0.08342145 0.08335467 0.08358654 0.08396362 0.08406782
 0.08368261 0.08308901 0.08278335 0.08296591 0.08336784 0.08357457 0.08343685 0.08299594 0.08206238 0.08030666
 0.07793598 0.07580176 0.07456714 0.07424174 0.07472562 0.07609056 0.07791951 0.07910434 0.07896272 0.07815854
 0.0779824 0.07895477 0.08049978 0.08178368 0.08252391 0.08303382 0.08373405 0.08467829 0.08543201 0.0853922
 0.08440255 0.08313964 0.08266409 0.08339377 0.08469646 0.08566841 0.08608577 0.08637474 0.08686013 0.08729462
 0.08707545 0.08589001 0.0842557 0.0833381 0.08398953 0.08590501 0.08778227 0.08830662 0.087085 0.08485758
 0.0828785 0.08201632 0.08241767 0.08386357 0.08607507 0.08857839 0.09063579 0.09162048 0.09144747 0.0905548
 0.08942741 0.08814517 0.08655481 0.08497687 0.08439411 0.08553316 0.08793104 0.09030314 0.09172931 0.09216564
 0.0919224 0.09103991 0.08936972 0.08722141 0.08565481 0.08569531 0.08716562 0.08872658 0.08930017 0.08907951
 0.08892158 0.08917606 0.08949149 0.08953351 0.08948479 0.08978595 0.09057288 0.09150347 0.09212009 0.09227131
 0.09214717 0.09201043 0.09194636 0.09181264 0.09145826 0.09105855 0.09110115 0.09187295 0.09307562 0.09412538
 0.09472784 0.09499627 0.09509842 0.09496964 0.09442334 0.09351887 0.09273681 0.09263724 0.09331578 0.09433189
 0.09517604 0.09564832 0.09580795 0.09578109 0.09567659 0.09555744 0.09545363 0.09543415 0.09559719 0.09593596
 0.09629958 0.09654308 0.09664718 0.09666061 0.09660122 0.09646089 0.09627132 0.09612297 0.0961062 0.09623891
 0.09646504 0.09671381 0.09692863 0.09705395 0.09705505 0.09696361 0.09685923 0.09679502 0.09677257 0.0967858
 0.09684818 0.09696482 0.09710469 0.09722093 0.09729002 0.09731872 0.0973196 0.09729763 0.09726165 0.09723392
 0.09724161 0.0972987 0.0973912 0.09748651 0.09757212 0.09767314 0.09780613 0.09793066 0.09798501 0.09796341
 0.09792374 0.09792349 0.09797421 0.0980532 0.09813139 0.09818339 0.0981871 0.09813754 0.09807045 0.09805448
 0.09813917 0.09831764 0.09854878 0.09879278 0.09901345 0.0991802 0.09929261 0.09938113 0.09946821 0.09954694
 0.09960549 0.09965618 0.09973428 0.09987131 0.1000648 0.1002746 0.100456 0.1005908 0.1006868 0.10077
 0.1008781 0.1010303 0.1011902 0.1012956 0.1013375 0.1013772 0.1014709 0.1016044 0.1017188 0.1017817
 0.1018158 0.1018663 0.1019536 0.1020617 0.1021645 0.1022567 0.102356 0.1024773 0.1026021 0.1026826
 0.1026878 0.1026416 0.1025996 0.1025925 0.1026124 0.1026482 0.1027075 0.1027936 0.102882 0.1029376
 0.1029515 0.1029499 0.1029621 0.1029857 0.1029903 0.1029545 0.1028891 0.1028238 0.1027805 0.1027608
 0.1027511 0.1027337 0.1026963 0.1026356 0.1025581 0.1024762 0.102399 0.1023313 0.1022846 0.1022797
 0.1023173 0.1023498 0.1023071 0.1021616 0.101958 0.101771 0.1016417 0.101555 0.1014674 0.1013477
 0.101197 0.1010379 0.1008921 0.1007653 0.1006506 0.1005408 0.1004401 0.1003653 0.1003295 0.1003162
 0.1002797 0.1001852 0.1000445 0.09990174 0.09979106 0.09971754 0.09966939 0.09963288 0.09960082 0.09957813
 0.09957366 0.09958096 0.09957895 0.09955911 0.09953979 0.09954763 0.09959663 0.09968509 0.09979552 0.09989496
 0.09995593 0.099985 0.1000182 0.1000834 0.1001787 0.1002881 0.1004046 0.1005315 0.1006717 0.1008248
 0.1009925 0.1011783 0.1013831 0.1016024 0.101828 0.1020515 0.1022691 0.102488 0.1027235 0.1029875
 0.1032759 0.1035707 0.1038543 0.1041231 0.1043865 0.1046544 0.1049295 0.1052125 0.1055091 0.1058246
 0.1061542 0.1064855 0.1068112 0.1071324 0.1074527 0.1077736 0.1080962 0.1084258 0.1087727 0.1091452
 0.1095328 0.1099026 0.1102247 0.1105031 0.1107735 0.1110709 0.1114049 0.111758 0.1120983 0.1124007
 0.1126693 0.1129358 0.1132257 0.1135323 0.1138341 0.114133 0.1144582 0.1148281 0.1152167 0.1155679
 0.1158457 0.1160674 0.1162833 0.1165245 0.116778 0.1170143 0.1172285 0.1174419 0.1176703 0.11791
 0.1181554 0.1184132 0.1186876 0.1189638 0.1192184 0.1194441 0.1196511 0.1198493 0.1200349 0.1201943
 0.120317 0.1204107 0.1205029 0.12062 0.120763 0.1209117 0.1210545 0.1212004 0.1213617 0.1215405
 0.1217372 0.1219595 0.1222096 0.1224706 0.1227234 0.122975 0.1232516 0.1235569 0.1238537 0.1241029
 0.1243075 0.1244994 0.1246968 0.1248985 0.1251123 0.1253604 0.1256527 0.1259709 0.1262836 0.1265721
 0.1268433 0.127123 0.1274287 0.1277434 0.1280254 0.1282491 0.1284309 0.1286128 0.1288291 0.1290874
 0.1293712 0.1296555 0.1299229 0.1301645 0.1303681 0.1305186 0.1306173 0.1306873 0.1307463 0.1307803
 0.1307518 0.1306318 0.1304098 0.1300789 0.1296254 0.1290432 0.1283573 0.1276336 0.1269652 0.1264458
 0.126146 0.1261028 0.1263174 0.1267541 0.1273412 0.1279847 0.1285888 0.1290669 0.1293445 0.1293679
 0.129124 0.1286467 0.1279981 0.1272408 0.1264255 0.1255911 0.1247703 0.1240065 0.1233774 0.123001
 0.1230048 0.1234803 0.1244522 0.1258585 0.1275455 0.1293002 0.13093 0.1323358 0.1335202 0.1345368
 0.1354388 0.1362645 0.1370415 0.1377864 0.1385008 0.1391782 0.1398158 0.1404141 0.1409693 0.1414692
 0.141897 0.1422371 0.1424825 0.1426429 0.1427411 0.142798 0.1428237 0.1428261 0.1428122 0.1427707
 0.1426626 0.1424389 0.1420733 0.141582 0.1410308 0.1405399 0.1402774 0.1404198 0.1410784 0.142231
 0.1437176 0.1453138 0.1468248 0.1481314 0.1491865 0.1500023 0.1506347 0.1511539 0.1516114 0.1520309
 0.1524215 0.1527901 0.1531439 0.1534898 0.1538334 0.1541788 0.1545282 0.1548807 0.1552305 0.1555696
 0.1558959 0.1562181 0.1565509 0.1569028 0.1572666 0.1576246 0.1579669 0.1583028 0.1586463 0.1589952
 0.1593331 0.1596523 0.1599637 0.1602845 0.1606227 0.1609744 0.1613279 0.1616693 0.1619889 0.1622865
 0.1625703 0.1628501 0.1631322 0.1634184 0.1637067 0.163993 0.1642748 0.164554 0.1648347 0.1651178
 0.1653974 0.1656652 0.1659195 0.1661676 0.1664195 0.1666787 0.1669423 0.1672064 0.1674694 0.1677326
 0.1679987 0.1682688 0.1685394 0.1688037 0.1690582 0.1693064 0.169555 0.1698067 0.1700596 0.1703118
 0.1705635 0.1708147 0.171065 0.1713161 0.1715718 0.1718334 0.1720964 0.1723537 0.172602 0.1728435
 0.173083 0.1733239 0.1735683 0.1738179 0.1740739 0.1743342 0.1745931 0.1748445 0.1750849 0.1753148
 0.1755387 0.1757626 0.1759923 0.1762294 0.1764717 0.1767156 0.1769586 0.1772 0.1774415 0.1776858
 0.1779337 0.178183 0.1784305 0.1786747 0.1789164 0.1791581 0.1794015 0.1796458 0.1798888 0.1801305
 0.180372 0.1806139 0.180855 0.1810938 0.1813289 0.1815607 0.181793 0.1820295 0.1822696 0.1825098
 0.1827479 0.1829853 0.183224 0.1834652 0.1837068 0.1839458 0.1841821 0.1844194 0.1846591 0.1848987
 0.1851354 0.1853679 0.1855956 0.1858214 0.186051 0.1862886 0.1865334 0.1867824 0.1870323 0.1872797
 0.1875228 0.1877617 0.1879967 0.1882294 0.1884644 0.1887053 0.18895 0.1891949 0.18944 0.1896866
 0.189935 0.1901841 0.1904315 0.1906737 0.1909115 0.1911524 0.1914024 0.1916599 0.1919187 0.1921755
 0.1924305 0.1926868 0.1929465 0.193208 0.1934676 0.193723 0.1939731 0.1942175 0.19446 0.1947056
 0.1949522 0.1951919 0.1954214 0.1956437 0.1958624 0.1960808 0.1963031 0.1965318 0.1967664 0.1970054
 0.197248 0.1974938 0.1977443 0.1979986 0.1982507 0.1984958 0.1987373 0.198981 0.1992285 0.199482
 0.1997439 0.2000103 0.2002743 0.2005356 0.2007982 0.2010627 0.2013286 0.2015955 0.2018612 0.2021244
 0.2023881 0.2026537 0.2029185 0.2031837 0.2034538 0.203727 0.2039974 0.2042653 0.2045334 0.2048019
 0.2050737 0.2053527 0.2056355 0.2059151 0.2061909 0.2064641 0.206733 0.207001 0.207276 0.2075582
 0.2078411 0.2081219 0.2084 0.2086754 0.2089526 0.2092347 0.2095144 0.2097854 0.2100523 0.2103174
 0.210576 0.21083 0.2110852 0.211334 0.2115534 0.2116937 0.2116224 0.2110554 0.2095195 0.2063659
 0.2009009 0.1926639 0.1817052 0.1686614 0.1545786 0.1405866 0.1275959 0.1161758 0.106627 0.09910098
 0.09368406 0.09047662 0.08965662 0.0915627 0.09680113 0.1058842 0.1179171 0.1294674 0.1358511 0.134678
 0.1280185 0.1205251 0.1156444 0.1139281 0.1142084 0.1153318 0.1168413 0.1188504 0.1216433 0.1252591
 0.1294513 0.1340946 0.1394212 0.1456667 0.1526131 0.1596693 0.1663677 0.1726659 0.1787749 0.1847931
 0.1905624 0.19582 0.2004021 0.2043014 0.2076177 0.2104928 0.2130516 0.2153731 0.2175077 0.2194865
 0.2212797 0.222776 0.2238472 0.2244523 0.2246859 0.2247328 0.2247663 0.2248744 0.2250699 0.2253441
 0.2256911 0.2261026 0.2265701 0.2270854 0.2276314 0.2281862 0.2287381 0.2292836 0.229816 0.2303275
 0.2308137 0.2312707 0.231697 0.2320999 0.2324886 0.2328658 0.2332335 0.233598 0.233963 0.2343268
 0.2346876 0.2350411 0.2353768 0.2356883 0.2359791 0.2362556 0.2365212 0.2367798 0.2370353 0.2372899
 0.2375448 0.2377999 0.2380522 0.2383022 0.2385564 0.2388167 0.2390743 0.2393211 0.2395591 0.2397935
 0.2400273 0.2402642 0.2405072 0.240754 0.2409997 0.2412419 0.2414805 0.2417175 0.2419565 0.2421987
 0.2424423 0.2426905 0.24295 0.2432203 0.2434927 0.2437595 0.24402 0.2442789 0.2445441 0.2448211
 0.2451061 0.2453908 0.2456731 0.2459542 0.2462278 0.2464822 0.246713 0.2469294 0.2471484 0.2473825
 0.2476298 0.2478779 0.2481199 0.2483612 0.2486092 0.2488648 0.2491237 0.2493801 0.2496296 0.2498758
 0.2501303 0.2504001 0.2506806 0.2509654 0.2512531 0.2515444 0.2518394 0.2521387 0.2524404 0.2527369
 0.2530218 0.2532993 0.2535834 0.2538899 0.2542224 0.2545651 0.2548966 0.2552111 0.2555197 0.2558353
 0.2561626 0.256494 0.2568051 0.2570695 0.257297 0.257542 0.2578556 0.2582367 0.2586399 0.259023
 0.2593748 0.2597075 0.2600334 0.2603487 0.2606378 0.2608899 0.2611201 0.2613713 0.2616858 0.2620625
 0.2624556 0.2628209 0.2631503 0.2634551 0.2637444 0.264026 0.2642953 0.2645149 0.2646519 0.264755
 0.2649487 0.2653171 0.2658108 0.2662982 0.266697 0.2670259 0.2673382 0.2676514 0.2679541 0.2682194
 0.2683758 0.268343 0.2681773 0.2681245 0.2684206 0.2690526 0.2697855 0.2704008 0.2708442 0.2711761
 0.2714686 0.2717558 0.2720149 0.2721727 0.272182 0.2721261 0.272206 0.2725578 0.2731003 0.2736249
 0.2740162 0.2743165 0.2746069 0.2749131 0.2751951 0.2753305 0.2751682 0.2747372 0.2743863 0.2745559
 0.2753534 0.276431 0.277332 0.2778945 0.2782514 0.2785146 0.2786071 0.2784054 0.2778921 0.2771614
 0.2764631 0.2762455 0.2768631 0.2781238 0.2793659 0.2801218 0.2805212 0.2809575 0.2815751 0.2822038
 0.2826325 0.2828007 0.2827682 0.2825876 0.2822742 0.2819449 0.2819052 0.282434 0.283457 0.284562
 0.2853858 0.2859001 0.2862493 0.2863311 0.2856857 0.2840428 0.2820402 0.2810626 0.2820119 0.2843593
 0.286717 0.2882074 0.288944 0.2893867 0.2897438 0.2899096 0.2894511 0.2877508 0.2848474 0.2821697
 0.2816697 0.2838963 0.2873771 0.2900439 0.2908143 0.2898139 0.2878463 0.2860189 0.2853504 0.286221
 0.288213 0.2905337 0.2924893 0.2936783 0.2940183 0.2937005 0.2931072 0.2927138 0.2927918 0.2930009
 0.2925995 0.2914116 0.2901698 0.2893849 0.2884007 0.2864617 0.2843988 0.2841118 0.286222 0.2891759
 0.2910493 0.2915184 0.2915063 0.2913206 0.2899019 0.2862186 0.2811772 0.2775925 0.2777803 0.2812459
 0.2851728 0.2871892 0.2872474 0.2868191 0.2868271 0.2866659 0.2851007 0.282015 0.2790909 0.2783024
 0.2797025 0.281347 0.2814484 0.2796265 0.2759648 0.2705706 0.2650644 0.2628809 0.2662339 0.273362
 0.2800883 0.283429 0.282524 0.2773874 0.2692143 0.261684 0.2593107 0.2632794 0.2700594 0.274821
 0.2752469 0.2716379 0.2649431 0.2563393 0.2482494 0.2440499 0.2459249 0.2531066 0.2620077 0.2677668
 0.266738 0.2594196 0.2511791 0.2482067 0.2516946 0.2570536 0.2593097 0.2577811 0.2550374 0.2533981
 0.2536564 0.2555152 0.2579205 0.2598914 0.2612765 0.2613713 0.2575313 0.2480997 0.2367695 0.2306248
 0.2328356 0.2401078 0.2480571 0.2556198 0.2625988 0.2664987 0.2651823 0.2610967 0.2597086 0.2636662
 0.27028 0.2749613 0.2758798 0.2747067 0.2735735 0.2725329 0.270617 0.2685793 0.2689244 0.2727922
 0.2781705 0.2820771 0.2835499 0.2836475 0.2834453 0.2831301 0.2825543 0.2816859 0.2805701 0.2793437
 0.2782213 0.2772593 0.2763123 0.2753114 0.2741963 0.2723143 0.2684716 0.2624906 0.2565414 0.2536464
 0.2545083 0.2570689 0.259465 0.2613739 0.2615397 0.2567593 0.2460665 0.2344792 0.2295485 0.2340595
 0.2438097 0.2523241 0.2559779 0.2544473 0.24851 0.2396752 0.231712 0.2300051 0.2374089 0.2512553
 0.2657469 0.2768598 0.2838773 0.2871421 0.2865076 0.2824801 0.2775106 0.2750269 0.2770784 0.2829869
 0.289866 0.2939691 0.2923201 0.2851597 0.2775711 0.2764119 0.2835207 0.2932742 0.2987868 0.2991183
 0.2982839 0.2988802 0.2998591 0.3000422 0.3005981 0.3030752 0.3068548 0.3096617 0.3095998 0.3059509
 0.2991708 0.2914408 0.2863212 0.2859359 0.2886276 0.2908584 0.2908384 0.2885627 0.2835913 0.2760139
 0.2692351 0.2681527 0.2735958 0.2810734 0.2858925 0.2875283 0.2881808 0.2888107 0.2880088 0.2843611
 0.278963 0.2749501 0.2744296 0.2764933 0.2787146 0.2797745 0.2796759 0.2782329 0.275076 0.2712728
 0.2694715 0.2715502 0.276604 0.281818 0.2850487 0.2861343 0.2860848 0.2857834 0.2855108 0.2851
 0.284365 0.2837063 0.2841474 0.2862437 0.2891172 0.2912585 0.2922766 0.2932253 0.295123 0.297707
 0.2998363 0.3007547 0.3007529 0.300793 0.3016402 0.3032358 0.304757 0.3053433 0.3049434 0.3044736
 0.3049954 0.306704 0.3088496 0.3105969 0.311725 0.3125154 0.3132803 0.3140941 0.3147542 0.3149498
 0.3146728 0.3144691 0.3150327 0.3164865 0.31824 0.3195882 0.32029 0.3205339 0.3205431 0.3203596
 0.3199517 0.3193905 0.3188626 0.3185305 0.3184188 0.318437 0.3184803 0.3184935 0.3184739 0.3184578
 0.3184932 0.3186017 0.3187663 0.3189631 0.3191789 0.3193902 0.3195608 0.3196819 0.3197834 0.3198805
 0.3199304 0.3198603 0.3196136 0.3191537 0.3184448 0.3174529 0.3161538 0.314517 0.3125081 0.3101871
 0.3078747 0.3061861 0.3057732 0.3069091 0.3092728 0.3121335 0.3147666 0.3167634 0.3180673 0.318822
 0.3192091 0.3193693 0.3193879 0.3193021 0.319122 0.3188582 0.3185339 0.3181756 0.3178064 0.3174493
 0.3171252 0.3168393 0.3165742 0.3162961 0.3159698 0.3155727 0.3151008 0.3145617 0.3139605 0.3132898
 0.31253 0.3116634 0.3106965 0.3096707 0.3086472 0.3076754 0.3067676 0.3058958 0.3050146 0.3040814
 0.3030435 0.3018304 0.3004197 0.2989317 0.2975979 0.296577 0.2958128 0.2951009 0.2942699 0.293267
 0.2921169 0.2908622 0.2895462 0.2882041 0.2868477 0.2854615 0.2840144 0.2824748 0.2808259 0.2790747
 0.277242 0.2753482 0.2734132 0.2714545 0.2694596 0.2673533 0.2650003 0.2622465 0.2589588 0.255047
 0.2504789 0.2453068 0.2396845 0.2338421 0.2280211 0.2224183 0.2171802 0.2124305 0.2082882 0.2048602
 0.2022248 0.2004246 0.1994728 0.1993661 0.2000907 0.2016134 0.2038651 0.2067311 0.2100566 0.2136609
 0.2173501 0.2209352 0.2242731 0.2273171 0.2301174 0.2327481 0.2352268 0.2375081 0.239542 0.2413137
 0.2428343 0.2441164 0.2451728 0.2460294 0.2467292 0.2473202 0.2478377 0.2482932 0.2486768 0.248974
 0.2491874 0.2493434 0.2494807 0.2496317 0.2498142 0.250035 0.2502961 0.2506015 0.2509617 0.2513958
 0.2519226 0.2525463 0.2532475 0.2539948 0.2547697 0.2555817 0.2564644 0.2574607 0.2586082 0.2599261
 0.2614085 0.2630208 0.2646974 0.2663416 0.2678413 0.2691011 0.2700682 0.270737 0.2711321 0.2712848
 0.2712214 0.2709683 0.2705572 0.2700177 0.269371 0.2686363 0.2678358 0.2669863 0.26609 0.2651416
 0.2641451 0.2631224 0.2621032 0.2611063 0.2601345 0.2591863 0.2582635 0.2573658 0.25649 0.2556387
 0.2548232 0.2540538 0.2533322 0.2526501 0.2519899 0.2513263 0.2506287 0.2498588 0.2489757 0.2479515
 0.2467779 0.2454535 0.243977 0.2423546 0.240603 0.2387413 0.2367842 0.234743 0.2326267 0.2304415
 0.2281865 0.2258518 0.2234407 0.2210036 0.2186325 0.2164089 0.2143611 0.2124725 0.2107133 0.209062
 0.2075059 0.2060291 0.2046093 0.2032326 0.2019047 0.2006381 0.1994391 0.1983106 0.1972587 0.1962933
 0.1954329 0.1946972 0.1940845 0.1935662 0.1931145 0.1927236 0.1924071 0.192195 0.1921182 0.1921701
 0.1922865 0.1923814 0.1924014 0.1923478 0.1922637 0.1921985 0.1921751 0.1921868 0.1922127 0.1922081
 0.1920888 0.1917521 0.1911104 0.1900986 0.1886805 0.1868754 0.1847703 0.1825033 0.1802408 0.1781449
 0.1763307 0.1748535 0.1737236 0.1729015 0.1722986 0.1718297 0.171476 0.1712908 0.1713504 0.1716681
 0.1721187 0.1724854 0.172655 0.1727485 0.1730137 0.1736107 0.1745156 0.1755758 0.1766188 0.1775341
 0.1782847 0.1788651 0.1792824 0.179564 0.1797379 0.1798055 0.1797591 0.1796034 0.1793411 0.1789733
 0.1785171 0.1779866 0.1773683 0.1766504 0.1758414 0.174942 0.1739401 0.1728329 0.1716048 0.1702242
 0.1687416 0.1673698 0.1664065 0.1660731 0.1664033 0.1672337 0.1683177 0.1694859 0.1706597 0.1717303
 0.1725712 0.1732381 0.1740535 0.1753936 0.1773756 0.1797406 0.1820276 0.1838694 0.1851223 0.1857764
 0.1858652 0.1854566 0.1845994 0.183279 0.1815143 0.1794353 0.1771915 0.1748922 0.1726693 0.1706579
 0.1689196 0.1674756 0.1663329 0.1654871 0.1650027 0.164605 0.1626978 0.1569231 0.1475029 0.1394012
 0.1385752 0.1455575 0.154719 0.1603101 0.1613409 0.1602192 0.1589582 0.1580041 0.1572868 0.1568749
 0.1568211 0.1570228 0.1572601 0.157297 0.1570315 0.1564835 0.1555353 0.15369 0.1500621 0.143696
 0.1342691 0.122742 0.1111519 0.1015293 0.09489848 0.0910686 0.08906436 0.08780115 0.08670543 0.08591986
 0.08595046 0.08714509 0.08949664 0.09279314 0.09677458 0.101102 0.1053035 0.1089228 0.1117619 0.1138971
 0.1154591 0.1164935 0.1170239 0.1171171 0.1168509 0.1162897 0.1154959 0.1145104 0.1133262 0.1119315
 0.110396 0.1089123 0.1077242 0.1069699 0.1065912 0.1064231 0.1063473 0.1063285 0.1063567 0.1064227
 0.1065305 0.1066943 0.1069334 0.1072617 0.1076519 0.1080272 0.108316 0.1085024 0.1086077 0.1086374
 0.1085521 0.1083018 0.1079082 0.1074798 0.1070694 0.1065397 0.105676 0.1044639 0.1031984 0.1022995
 0.102025 0.1023128 0.1028468 0.1032913 0.1035045 0.1035577 0.1035724 0.1035527 0.1033734 0.1029216
</values></Ydata></ScRf><Data_Parameters_AB><parameter name="DPF">1</parameter><parameter name="NPT">3497</parameter><parameter name="FXV">3996</parameter><parameter name="LXV">500</parameter><parameter name="CSF">1</parameter><parameter name="MXY">0.0342058911919594</parameter><parameter name="MNY">-0.11898535490036</parameter><parameter name="DAT">18/01/2024</parameter><parameter name="TIM">11:15:38.285 (GMT+1)</parameter><parameter name="DXU">WN</parameter></Data_Parameters_AB><AB__Qtest><MainReport name="Quality Test Report"><Header><Line><Legend>Test result ok/not ok [1/0]: </Legend><Value>0</Value></Line><Line><Legend>Method file: </Legend><Value>C:\Users\Public\Documents\Bruker\OPUS_8.2.28\QT\IRBT_v3_default.QT</Value></Line></Header><Matrix><Line><Legend></Legend><Legend>min</Legend><Legend>max</Legend><Legend>measured</Legend></Line><Line><Value>Absorption (X-Range 1):</Value><Value>0.400000</Value><Value>2.000000</Value><Value>0.096225</Value></Line><Line><Value>Noise (X-Range 4):</Value><Value></Value><Value>0.000300</Value><Value>0.000016</Value></Line><Line><Value>Signal/Noise (X-Range 2):</Value><Value>200.000000</Value><Value></Value><Value>85.391165</Value></Line><Line><Value>Signal/Noise (X-Range 3):</Value><Value>40.000000</Value><Value></Value><Value>28.426625</Value></Line><Line><Value>Water vapour (X-Range 5):</Value><Value></Value><Value>0.000300</Value><Value>0.000016</Value></Line><Line><Value>Signal/Water (X-Range 2):</Value><Value>100.000000</Value><Value></Value><Value>83.728798</Value></Line><Line><Value>Signal/Water (X-Range 3):</Value><Value>20.000000</Value><Value></Value><Value>27.873225</Value></Line><Line><Value>Fringes (X-Range 6):</Value><Value></Value><Value>0.000100</Value><Value>0.000022</Value></Line></Matrix></MainReport></AB__Qtest><Data_Parameters_ScSm><parameter name="DPF">1</parameter><parameter name="NPT">1814</parameter><parameter name="FXV">3996.63438082617</parameter><parameter name="LXV">499.579297603271</parameter><parameter name="CSF">1</parameter><parameter name="MXY">0.345001250505447</parameter><parameter name="MNY">0.0845087245106697</parameter><parameter name="DAT">18/01/2024</parameter><parameter name="TIM">11:15:38.285 (GMT+1)</parameter><parameter name="DXU">WN</parameter></Data_Parameters_ScSm><Data_Parameters_ScRf><parameter name="DPF">1</parameter><parameter name="NPT">1820</parameter><parameter name="FXV">4004.34989121387</parameter><parameter name="LXV">495.721542409425</parameter><parameter name="CSF">1</parameter><parameter name="MXY">0.320543110370636</parameter><parameter name="MNY">0.0691560655832291</parameter><parameter name="DAT">18/01/2024</parameter><parameter name="TIM">11:15:12.907 (GMT+1)</parameter><parameter name="DXU">WN</parameter></Data_Parameters_ScRf><Optic_Parameters_Rf><parameter name="APR">0</parameter><parameter name="APT">Open</parameter><parameter name="BMS">KBr</parameter><parameter name="DTC">RT-DLaTGS_IR-Biotyper [Microplate reader]</parameter><parameter name="HPF">0</parameter><parameter name="LPF">10.0</parameter><parameter name="LPV">4000</parameter><parameter name="PGR">0</parameter><parameter name="RCH">Module port</parameter><parameter name="RDX">0</parameter><parameter name="SRC">MIR</parameter><parameter name="VEL">10.0</parameter><parameter name="SON">Off</parameter></Optic_Parameters_Rf><Acquisition_Parameters_Rf><parameter name="ADT">1</parameter><parameter name="AQM">DD</parameter><parameter name="CFE">0</parameter><parameter name="COR">0</parameter><parameter name="DEL">0</parameter><parameter name="DLY">0</parameter><parameter name="HFW">8000</parameter><parameter name="LFW">0</parameter><parameter name="NSR">32</parameter><parameter name="PLF">AB</parameter><parameter name="RES">6</parameter><parameter name="RGN">-1</parameter><parameter name="STR">0</parameter><parameter name="TCL">MakeCompatibleScalar (0, {WSV=1.000000, ARV=0});</parameter><parameter name="TDL">37</parameter><parameter name="RPO">0</parameter></Acquisition_Parameters_Rf><FT_-_Parameters_Rf><parameter name="APF">B3</parameter><parameter name="HFQ">500</parameter><parameter name="LFQ">4000</parameter><parameter name="NLI">0</parameter><parameter name="PHR">24</parameter><parameter name="PHZ">ML</parameter><parameter name="SPZ">NO</parameter><parameter name="ZFF">1</parameter></FT_-_Parameters_Rf><Optic_Parameters_><parameter name="APR">0</parameter><parameter name="APT">Open</parameter><parameter name="BMS">KBr</parameter><parameter name="CHN">Module port</parameter><parameter name="DTC">RT-DLaTGS_IR-Biotyper [Microplate reader]</parameter><parameter name="HPF">0</parameter><parameter name="LPF">10.0</parameter><parameter name="LPV">4000</parameter><parameter name="PGN">0</parameter><parameter name="RDX">0</parameter><parameter name="SRC">MIR</parameter><parameter name="VEL">10.0</parameter><parameter name="SON">Off</parameter></Optic_Parameters_><FT_-_Parameters_><parameter name="APF">B3</parameter><parameter name="HFQ">500</parameter><parameter name="LFQ">4000</parameter><parameter name="NLI">0</parameter><parameter name="PHR">24</parameter><parameter name="PHZ">ML</parameter><parameter name="SPZ">NO</parameter><parameter name="ZFF">1</parameter></FT_-_Parameters_><Acquisition_Parameters_><parameter name="ADT">1</parameter><parameter name="AQM">DD</parameter><parameter name="CFE">0</parameter><parameter name="COR">0</parameter><parameter name="DEL">0</parameter><parameter name="DLY">0</parameter><parameter name="HFW">8000</parameter><parameter name="LFW">0</parameter><parameter name="NSS">32</parameter><parameter name="PLF">AB</parameter><parameter name="RES">6</parameter><parameter name="SOT">0</parameter><parameter name="TCL">MakeCompatibleScalar (0, {WSV=1.000000, ARV=0});</parameter><parameter name="TDL">37</parameter><parameter name="SPO">0</parameter><parameter name="SGN">-1</parameter></Acquisition_Parameters_><Instrument_Parameters_Rf><parameter name="HFL">15801.365274</parameter><parameter name="LFL">0</parameter><parameter name="LWN">15801.365274</parameter><parameter name="ABP">32157</parameter><parameter name="SSP">1</parameter><parameter name="ARG">2</parameter><parameter name="ASG">2</parameter><parameter name="ASS">32</parameter><parameter name="GFW">16</parameter><parameter name="GBW">16</parameter><parameter name="BFW">0</parameter><parameter name="BBW">0</parameter><parameter name="PKA">9308</parameter><parameter name="PKL">4987</parameter><parameter name="PRA">9280</parameter><parameter name="PRL">5010</parameter><parameter name="P2A">1</parameter><parameter name="P2L">1</parameter><parameter name="P2R">1</parameter><parameter name="P2K">1</parameter><parameter name="DAQ">0</parameter><parameter name="AG2">1</parameter><parameter name="SSM">1</parameter><parameter name="RSN">46548</parameter><parameter name="CRR">0</parameter><parameter name="SRT">1705576512.908</parameter><parameter name="DUR">19.6449890136719</parameter><parameter name="TSC">31.9</parameter><parameter name="MVD">0.439841628074646</parameter><parameter name="AN1">0.225987337094249</parameter><parameter name="AN2">0</parameter><parameter name="VSN">2.485 Apr  4 2017</parameter><parameter name="SRN">0085</parameter><parameter name="CAM">0</parameter><parameter name="INS">IR-Biotyper</parameter><parameter name="FOC">69</parameter><parameter name="RDY">1</parameter><parameter name="ARS">32</parameter></Instrument_Parameters_Rf><Sample_Parameters_><parameter name="BLD"></parameter><parameter name="CNM">Admin</parameter><parameter name="CPY"></parameter><parameter name="DPM"></parameter><parameter name="EXP">IRBT_v3_32Scans.XPM</parameter><parameter name="LCT"></parameter><parameter name="SFM">Microplate, HTS-XT</parameter><parameter name="SNM">240118-1045-Cdiff_SCFA_2_C25_232121263_G3_e0d6cf8a-e0dc-4b5d-b580-d4ca5f64b4e4.0</parameter><parameter name="XPP">C:\Users\Public\Documents\Bruker\OPUS_8.2.28\XPM</parameter><parameter name="IST">OK</parameter><parameter name="CPG">1252</parameter><parameter name="UID">e3ec2542-3eb3-4e71-a942-32189a685aca</parameter></Sample_Parameters_><Instrument_Parameters_><parameter name="HFL">15801.365274</parameter><parameter name="LFL">0</parameter><parameter name="LWN">15801.365274</parameter><parameter name="ABP">32157</parameter><parameter name="SSP">1</parameter><parameter name="ASG">2</parameter><parameter name="ARG">2</parameter><parameter name="ASS">32</parameter><parameter name="GFW">16</parameter><parameter name="GBW">16</parameter><parameter name="BFW">0</parameter><parameter name="BBW">0</parameter><parameter name="PKA">10610</parameter><parameter name="PKL">4987</parameter><parameter name="PRA">10634</parameter><parameter name="PRL">5010</parameter><parameter name="P2A">1</parameter><parameter name="P2L">1</parameter><parameter name="P2R">1</parameter><parameter name="P2K">1</parameter><parameter name="DAQ">0</parameter><parameter name="AG2">1</parameter><parameter name="SSM">1</parameter><parameter name="RSN">23967</parameter><parameter name="CRR">0</parameter><parameter name="SRT">1705576538.285</parameter><parameter name="DUR">19.64599609375</parameter><parameter name="TSC">31.9</parameter><parameter name="MVD">0.510900378227234</parameter><parameter name="AN1">0.226008539177089</parameter><parameter name="AN2">0</parameter><parameter name="VSN">2.485 Apr  4 2017</parameter><parameter name="SRN">0085</parameter><parameter name="CAM">0</parameter><parameter name="INS">IR-Biotyper</parameter><parameter name="FOC">69</parameter><parameter name="RDY">1</parameter></Instrument_Parameters_><History/></OPUSDataFile>
