<?xml version="1.0" encoding="UTF-8" ?>
<OPUSDataFile><AB><Ydata ylabel="Absorbance Units"><values byteorder="INTEL" format="FLOAT32" numvalues="3497"> -0.06461818 -0.06461855 -0.06460722 -0.06458652 -0.0645631 -0.06453914 -0.06452353 -0.06451431 -0.0645133 -0.06451568
 -0.06451675 -0.0645143 -0.06450392 -0.0644898 -0.06447195 -0.06445754 -0.06444936 -0.06444988 -0.06446104 -0.06447801
 -0.06450072 -0.06452171 -0.06454021 -0.06455383 -0.06456248 -0.06456937 -0.06457461 -0.06458098 -0.06458782 -0.06459302
 -0.06459588 -0.06459229 -0.06458341 -0.0645691 -0.06455217 -0.06453659 -0.06452484 -0.06452169 -0.06452622 -0.06454036
 -0.06455873 -0.06457978 -0.0645972 -0.06460813 -0.06461083 -0.06460366 -0.06459089 -0.06457257 -0.06455481 -0.06453812
 -0.06452728 -0.06452254 -0.06452715 -0.064541 -0.06456466 -0.0645973 -0.06463519 -0.06467702 -0.06471653 -0.06475299
 -0.06478167 -0.06480286 -0.06481461 -0.06481852 -0.06481496 -0.06480715 -0.06479724 -0.06478842 -0.06478324 -0.06478188
 -0.06478549 -0.06479118 -0.06479876 -0.06480432 -0.06480724 -0.06480495 -0.06479713 -0.06478243 -0.0647608 -0.06473374
 -0.06470168 -0.06466988 -0.06463915 -0.06461658 -0.06460262 -0.06460309 -0.06461692 -0.06464548 -0.06468529 -0.06473239
 -0.06478149 -0.06482571 -0.06486045 -0.06487942 -0.06488259 -0.06486709 -0.06483872 -0.06479747 -0.06475435 -0.06471147
 -0.06467924 -0.06466017 -0.06465557 -0.06466647 -0.06468235 -0.06470267 -0.06471657 -0.06472435 -0.06472698 -0.06472575
 -0.06472934 -0.0647371 -0.064752 -0.06477109 -0.06478862 -0.06480339 -0.0648099 -0.06481121 -0.06480813 -0.06480522
 -0.06480694 -0.06481396 -0.06482913 -0.06484695 -0.06486671 -0.06488109 -0.06488752 -0.06488517 -0.06487279 -0.06485675
 -0.06483731 -0.06482212 -0.06481163 -0.0648115 -0.0648218 -0.0648454 -0.06488145 -0.0649281 -0.06498175 -0.06502954
 -0.06506663 -0.06507288 -0.06505162 -0.06499548 -0.06491973 -0.06483898 -0.06476463 -0.06471263 -0.0646808 -0.06467393
 -0.06468134 -0.06470082 -0.06472126 -0.06473918 -0.06474949 -0.06475031 -0.06474373 -0.06472951 -0.06471332 -0.06469548
 -0.06468067 -0.06466893 -0.06466202 -0.06465965 -0.06466114 -0.06466587 -0.06467134 -0.06467682 -0.06467905 -0.06467838
 -0.0646732 -0.06466616 -0.06465933 -0.064656 -0.06466054 -0.06467135 -0.06469042 -0.0647094 -0.06472576 -0.0647328
 -0.06472699 -0.06471214 -0.06468748 -0.06466354 -0.06464144 -0.06462698 -0.06462062 -0.06462025 -0.06462567 -0.06463355
 -0.064644 -0.06465679 -0.06467112 -0.06468452 -0.06469472 -0.06469442 -0.06468317 -0.06465552 -0.06461579 -0.0645662
 -0.06451286 -0.06446157 -0.06441618 -0.06438062 -0.06435584 -0.06434356 -0.06434166 -0.06435067 -0.06436465 -0.06438319
 -0.06439793 -0.06440789 -0.06440793 -0.06439762 -0.0643798 -0.06435494 -0.06433145 -0.06430975 -0.06429724 -0.06429298
 -0.06429773 -0.06430916 -0.06432201 -0.06433403 -0.06433833 -0.06433532 -0.06432188 -0.0643018 -0.06427684 -0.06425127
 -0.06422865 -0.06420916 -0.06419413 -0.06418079 -0.06416823 -0.06415664 -0.06414516 -0.06413993 -0.0641415 -0.06415501
 -0.06418099 -0.06421533 -0.06425746 -0.06429656 -0.06433256 -0.06435976 -0.06437907 -0.06439221 -0.06439757 -0.06439224
 -0.06437341 -0.06433244 -0.06427404 -0.06419792 -0.0641168 -0.06404184 -0.06398074 -0.06394377 -0.06392443 -0.06392458
 -0.06392875 -0.0639324 -0.06392829 -0.06391298 -0.06389382 -0.06387109 -0.06385335 -0.06384134 -0.06383222 -0.06382553
 -0.06381223 -0.0637925 -0.06376287 -0.06372518 -0.06368501 -0.0636441 -0.06361024 -0.06358324 -0.063567 -0.06355895
 -0.0635585 -0.06356016 -0.06355952 -0.06355093 -0.06352831 -0.06349377 -0.06344485 -0.06339248 -0.06333926 -0.06329299
 -0.0632568 -0.06322602 -0.06320114 -0.06316984 -0.06313125 -0.06307866 -0.0630123 -0.06293855 -0.06285855 -0.06278451
 -0.06271568 -0.06265647 -0.06260329 -0.06254848 -0.06248957 -0.06241653 -0.06233362 -0.06224101 -0.06214657 -0.0620583
 -0.06197856 -0.06191238 -0.06185538 -0.0618073 -0.06176265 -0.06172022 -0.06167427 -0.06162393 -0.06156284 -0.06149006
 -0.06140204 -0.06129831 -0.06118209 -0.0610537 -0.06092024 -0.06078179 -0.06064264 -0.06050183 -0.06035744 -0.06020864
 -0.06005117 -0.05988712 -0.05971747 -0.05954698 -0.05938275 -0.05922697 -0.05908566 -0.05895442 -0.05883316 -0.05871456
 -0.05859545 -0.05847107 -0.05833984 -0.05819699 -0.05804162 -0.05786865 -0.05767673 -0.05746905 -0.05724543 -0.05701834
 -0.05678827 -0.05656278 -0.05634115 -0.05612049 -0.05590026 -0.05567596 -0.05544926 -0.0552223 -0.05499772 -0.05478258
 -0.0545761 -0.05438231 -0.05419337 -0.05400486 -0.05380586 -0.05358655 -0.05334572 -0.05307728 -0.05279571 -0.05250355
 -0.05221496 -0.05193424 -0.05166294 -0.05140233 -0.05114644 -0.05089498 -0.05064253 -0.05038889 -0.05013118 -0.04986953
 -0.04960371 -0.04933383 -0.04906037 -0.04878296 -0.04850056 -0.04821315 -0.04791948 -0.04762151 -0.04732095 -0.04702067
 -0.04672416 -0.04643283 -0.04614884 -0.0458718 -0.0456023 -0.04533866 -0.04508092 -0.04482571 -0.04457251 -0.044318
 -0.04406175 -0.04380115 -0.04353613 -0.04326123 -0.04297613 -0.04267242 -0.04235055 -0.0420099 -0.04165349 -0.04129515
 -0.0409377 -0.04059809 -0.04027429 -0.03997149 -0.03968359 -0.03940455 -0.03912832 -0.03884642 -0.03855643 -0.03825318
 -0.03793989 -0.03761609 -0.03728771 -0.03695682 -0.0366261 -0.03629715 -0.03596684 -0.03563508 -0.03529803 -0.03495523
 -0.03460757 -0.03425517 -0.0339029 -0.03355097 -0.03320376 -0.03286077 -0.03252226 -0.03218701 -0.03185146 -0.03151471
 -0.03117307 -0.0308267 -0.03047418 -0.03011611 -0.02975211 -0.02938429 -0.02901279 -0.02864338 -0.02827842 -0.02792351
 -0.02758236 -0.02725139 -0.02693199 -0.02661083 -0.02628616 -0.02594906 -0.02559802 -0.0252402 -0.02487609 -0.02452246
 -0.02417935 -0.02385473 -0.02354566 -0.02324185 -0.02293969 -0.02262099 -0.02228721 -0.02193048 -0.02155908 -0.0211813
 -0.02080531 -0.02044404 -0.02009745 -0.01977154 -0.01945729 -0.01915257 -0.01884742 -0.01853743 -0.01821966 -0.01789177
 -0.01755904 -0.01722181 -0.01688534 -0.01655039 -0.01621449 -0.01587748 -0.01553222 -0.01517895 -0.0148171 -0.01444864
 -0.0140835 -0.01372355 -0.01338085 -0.01305414 -0.01274758 -0.01245664 -0.0121766 -0.01190289 -0.01162865 -0.01135232
 -0.0110705 -0.01078359 -0.01049135 -0.01019277 -0.009887479 -0.009574616 -0.009253123 -0.008927273 -0.008596979 -0.008270537
 -0.007948693 -0.007636769 -0.007335032 -0.007043724 -0.00676265 -0.006490338 -0.006225727 -0.005963443 -0.005700406 -0.00542351
 -0.005130578 -0.004807902 -0.004461241 -0.004090399 -0.003709895 -0.003334895 -0.00297684 -0.002652139 -0.002355352 -0.002091456
 -0.001840051 -0.001595376 -0.001341649 -0.001072312 -0.0007896662 -0.0004922058 -0.0001919191 0.0001099826 0.0004092116 0.0007055335
 0.001003606 0.001303481 0.001607443 0.001914602 0.00222082 0.002525748 0.002825625 0.003121537 0.0034138 0.003704305
 0.00399584 0.004290659 0.004592155 0.004902103 0.005223854 0.005554972 0.005897051 0.006240064 0.006581716 0.006910641
 0.007222896 0.007516214 0.007788491 0.008049526 0.008299819 0.008550357 0.008801754 0.009057175 0.009316423 0.009577368
 0.009840225 0.01010515 0.01037283 0.0106459 0.01092443 0.01120987 0.01150194 0.01180115 0.01210642 0.01241785
 0.01273116 0.01304434 0.01335009 0.01364359 0.01392191 0.01418042 0.01442964 0.01466934 0.0149194 0.01518346
 0.01547139 0.01578603 0.01611017 0.01644304 0.01675364 0.01704195 0.0172991 0.01752979 0.01775904 0.01798918
 0.01824548 0.01851911 0.01880261 0.01908464 0.01933943 0.01957044 0.01976778 0.01994904 0.02012502 0.02030864
 0.02051202 0.02073328 0.02097546 0.02123001 0.02149501 0.02176599 0.02204129 0.02232356 0.02261245 0.02291675
 0.02323696 0.02357878 0.02394133 0.02431396 0.02469357 0.02505457 0.02539638 0.02570067 0.02597425 0.02622299
 0.02645708 0.02669746 0.02694733 0.02722069 0.02751116 0.02781798 0.02813576 0.02845943 0.0287928 0.0291362
 0.02949328 0.02986716 0.03024824 0.03063652 0.0310153 0.03138222 0.03173365 0.03206905 0.03240455 0.03274127
 0.03309994 0.03347986 0.03388786 0.03431998 0.03476551 0.03521978 0.03566509 0.03610079 0.03651574 0.03691669
 0.03730558 0.03769395 0.03809186 0.03850746 0.03894996 0.03941613 0.039909 0.04041475 0.04093109 0.04144356
 0.04194857 0.04244243 0.0429235 0.04340133 0.04387634 0.04436144 0.04485692 0.04536811 0.04589458 0.04643533
 0.04699118 0.04756474 0.04815732 0.04877591 0.04941536 0.05007416 0.05073549 0.05138049 0.05198985 0.05253769
 0.05302391 0.05343461 0.05379903 0.05412191 0.05444192 0.05477216 0.05512787 0.05551749 0.05592005 0.05633597
 0.05672634 0.0570887 0.05739566 0.0576472 0.05784344 0.05798717 0.05809834 0.0581785 0.05824543 0.05829655
 0.05833456 0.05835543 0.05835228 0.05832491 0.05826912 0.05818908 0.05808693 0.05796625 0.05783152 0.05767842
 0.05750905 0.05730739 0.05707069 0.05678075 0.05643228 0.05602446 0.05555453 0.05504784 0.05450556 0.05396106
 0.05341541 0.05288683 0.0523743 0.05187911 0.05140022 0.0509346 0.05048107 0.0500357 0.04959604 0.04915516
 0.04871326 0.04826583 0.04781972 0.04737904 0.04695041 0.04654093 0.04614729 0.04577113 0.04540289 0.04503908
 0.04467855 0.04431866 0.04397304 0.0436423 0.04334461 0.04308143 0.04285877 0.04267599 0.04251723 0.0423797
 0.04223389 0.04207939 0.04189653 0.04169149 0.04146991 0.04124056 0.041024 0.0408216 0.04064592 0.04048863
 0.04034698 0.04021222 0.04007676 0.03994012 0.03979916 0.03965989 0.03952326 0.039395 0.03927687 0.03916914
 0.03907263 0.03898111 0.03889434 0.03880288 0.03870643 0.0386008 0.03848686 0.03836978 0.03825056 0.03813701
 0.03802784 0.03792399 0.03782235 0.037717 0.03760685 0.03748695 0.03736054 0.03722848 0.03709498 0.03696382
 0.03683457 0.03670894 0.0365817 0.03645178 0.03631468 0.03616881 0.03601514 0.03585334 0.03568709 0.03551665
 0.0353435 0.0351676 0.03498717 0.03480206 0.03461019 0.03441181 0.03420674 0.03399556 0.03377958 0.03355972
 0.03333821 0.03311621 0.03289601 0.03267902 0.03246721 0.03226181 0.03206425 0.03187494 0.03169497 0.03152201
 0.0313563 0.03119208 0.03102802 0.03086122 0.03069034 0.03052186 0.03035598 0.03020333 0.03006411 0.02993752
 0.02982175 0.02970026 0.02957159 0.02941858 0.02924441 0.0290479 0.02883653 0.02862419 0.02841775 0.02823346
 0.02807247 0.02794407 0.02783951 0.02775851 0.02768367 0.02760755 0.02751618 0.0274014 0.02726711 0.0271105
 0.02695121 0.02679126 0.02664667 0.0265192 0.02641 0.02631908 0.02624323 0.02618327 0.02614561 0.02613158
 0.02615274 0.02620617 0.02629157 0.02639957 0.02651173 0.02661868 0.02669704 0.02674824 0.02676137 0.02675274
 0.02672814 0.02670749 0.02670324 0.02672055 0.02676641 0.02682769 0.02690327 0.02697909 0.02705196 0.02712382
 0.02719411 0.02727508 0.02736718 0.0274745 0.02759621 0.02772501 0.02786076 0.02799819 0.02813932 0.02828819
 0.02844548 0.02861594 0.02879577 0.02898214 0.02916973 0.02935159 0.02952599 0.02968909 0.02984268 0.02998699
 0.03012259 0.03025089 0.03036669 0.03047011 0.03055087 0.03060746 0.0306331 0.03062642 0.03059611 0.03054284
 0.03049134 0.03044284 0.03042069 0.03042271 0.03045153 0.0305011 0.0305538 0.03060479 0.03063392 0.03064244
 0.03062251 0.03057989 0.03051781 0.0304407 0.03035318 0.03025619 0.03015091 0.03003893 0.02992024 0.02979945
 0.02967751 0.02955806 0.0294419 0.02932939 0.02922044 0.0291182 0.02902291 0.02894314 0.02887891 0.02883424
 0.02880722 0.0287895 0.02877977 0.02876775 0.0287571 0.02875 0.02875212 0.02877459 0.02881658 0.02888289
 0.02896674 0.02906325 0.02917218 0.02928892 0.02942725 0.02958918 0.02979311 0.03004397 0.03035117 0.03071717
 0.03114305 0.03162899 0.0321775 0.03278877 0.03346902 0.03421785 0.03503503 0.03591601 0.03683955 0.03779398
 0.03873273 0.03963907 0.04045437 0.04116464 0.04172168 0.04212241 0.04234274 0.04239344 0.04227094 0.04199939
 0.04158446 0.04106537 0.04045065 0.03979485 0.03910761 0.03845042 0.03783228 0.03730524 0.03687509 0.03657132
 0.03639567 0.03635478 0.03644802 0.03666909 0.03701761 0.03748781 0.0380811 0.0387992 0.03964388 0.04062069
 0.041729 0.04297103 0.04434339 0.04584301 0.04746777 0.04921346 0.05108463 0.0530798 0.05521335 0.05748744
 0.05992424 0.06252812 0.06532151 0.0683092 0.07150044 0.07489841 0.07848256 0.08225193 0.08614428 0.09015276
 0.09417752 0.09820619 0.1021202 0.1059017 0.109432 0.1126866 0.1155538 0.1180109 0.1199639 0.1214259
 0.1223493 0.1228352 0.1229078 0.1227769 0.1225287 0.122426 0.1225722 0.1231789 0.124322 0.1260892
 0.1285146 0.1315624 0.1352381 0.1394293 0.1441304 0.1491963 0.1546177 0.1602425 0.16606 0.1719313
 0.1778458 0.1836948 0.1894657 0.1950817 0.200518 0.205713 0.2106122 0.2151489 0.2192251 0.2227628
 0.2256277 0.2277416 0.2289652 0.2292356 0.2284435 0.2265448 0.2235063 0.2192984 0.2140418 0.2077276
 0.2006842 0.1929284 0.1849334 0.1767246 0.168753 0.1610259 0.1538241 0.1471261 0.1410106 0.1354373
 0.1303529 0.1257153 0.1214328 0.1174703 0.1137545 0.1102563 0.1069314 0.1037561 0.100706 0.09776817
 0.09493073 0.09219685 0.08956321 0.08704533 0.08464406 0.08237975 0.08025353 0.07829147 0.07649492 0.07490268
 0.07351763 0.07238919 0.07152062 0.07095883 0.07070325 0.07078208 0.07118125 0.07189141 0.07287053 0.07405506
 0.07537638 0.07672883 0.0780612 0.07927731 0.08041598 0.08144186 0.082514 0.08366368 0.08510593 0.08689995
 0.08920298 0.09206063 0.09549419 0.09952112 0.1040184 0.108982 0.114181 0.1195965 0.1249132 0.1300863
 0.1346867 0.1386245 0.1413329 0.1427142 0.1421946 0.1398144 0.135294 0.1289531 0.1209832 0.1119255
 0.1022561 0.09249507 0.0830778 0.07428534 0.06635275 0.05928784 0.05315718 0.0478073 0.0432305 0.03923931
 0.03581503 0.03280041 0.03018443 0.02785003 0.02579221 0.02392605 0.02224896 0.02070178 0.01928286 0.01795378
 0.01671383 0.01554155 0.0144372 0.01339156 0.01240515 0.01147552 0.01060178 0.009783075 0.009016412 0.00830049
 0.007630691 0.007005591 0.006419094 0.005870258 0.00534995 0.004857013 0.004380785 0.003919852 0.003467924 0.00302436
 0.002590636 0.002166916 0.001757242 0.001361138 0.0009771455 0.0006039965 0.0002351237 -0.0001293314 -0.0004930259 -0.0008535798
 -0.001208268 -0.001555114 -0.001889581 -0.002213259 -0.002525264 -0.002829725 -0.003129051 -0.003425672 -0.003721712 -0.004016025
 -0.004309037 -0.004597727 -0.00488166 -0.005158242 -0.005427076 -0.005686979 -0.005937796 -0.006180195 -0.006414321 -0.006643549
 -0.006868056 -0.007091078 -0.007312048 -0.007530488 -0.007745218 -0.007952405 -0.008152025 -0.008341763 -0.008523304 -0.008697778
 -0.008867051 -0.009033459 -0.009197365 -0.009359851 -0.009520122 -0.009678125 -0.009833002 -0.009984512 -0.01013199 -0.01027531
 -0.01041387 -0.01054754 -0.01067609 -0.01079945 -0.01091822 -0.01103245 -0.01114343 -0.01125129 -0.01135765 -0.01146253
 -0.01156691 -0.01167064 -0.01177373 -0.01187614 -0.0119778 -0.01207865 -0.01217901 -0.01227761 -0.01237369 -0.01246522
 -0.01255015 -0.01262902 -0.01270019 -0.01277013 -0.01283967 -0.01291761 -0.01300615 -0.01310888 -0.01322712 -0.0133566
 -0.01349727 -0.013641 -0.01378742 -0.01393004 -0.01406893 -0.01420167 -0.01432883 -0.01445151 -0.01457064 -0.01468961
 -0.01480897 -0.01493177 -0.01505733 -0.01518653 -0.01531683 -0.01544641 -0.01557239 -0.01569228 -0.01580466 -0.01590786
 -0.0160032 -0.01609054 -0.01617226 -0.01624889 -0.01632177 -0.0163913 -0.01645676 -0.01651813 -0.01657484 -0.01662691
 -0.01667562 -0.01672122 -0.01676679 -0.01681244 -0.01686065 -0.01691085 -0.01696289 -0.01701557 -0.01706634 -0.01711456
 -0.01715777 -0.01719708 -0.01723223 -0.01726569 -0.01729894 -0.01733403 -0.01737233 -0.01741469 -0.01746181 -0.01751316
 -0.01756895 -0.01762737 -0.01768834 -0.01774919 -0.01780966 -0.01786863 -0.01792611 -0.01798465 -0.01804448 -0.01810929
 -0.01817866 -0.01825298 -0.0183309 -0.01840851 -0.01848486 -0.01855569 -0.01862159 -0.01868126 -0.0187364 -0.01878815
 -0.01883801 -0.01888736 -0.01893689 -0.01898731 -0.01903873 -0.01909161 -0.01914472 -0.01919823 -0.01924896 -0.01929653
 -0.01933849 -0.01937445 -0.01940645 -0.01943468 -0.01946519 -0.01949818 -0.01953803 -0.01958405 -0.01963515 -0.0196903
 -0.0197455 -0.01980058 -0.01985303 -0.01990361 -0.01995237 -0.01999983 -0.02004663 -0.02009285 -0.02013852 -0.0201845
 -0.02023101 -0.02027949 -0.02033055 -0.02038473 -0.02044253 -0.02050249 -0.02056458 -0.0206266 -0.0206883 -0.02074875
 -0.02080791 -0.02086628 -0.02092392 -0.02098178 -0.02104003 -0.02109995 -0.02116183 -0.02122749 -0.02129656 -0.02136961
 -0.02144504 -0.02152082 -0.02159541 -0.02166604 -0.02173313 -0.02179572 -0.02185584 -0.02191424 -0.02197245 -0.02203106
 -0.02209147 -0.02215389 -0.02222048 -0.02229177 -0.02236774 -0.02244871 -0.02252969 -0.02261041 -0.02268451 -0.02275211
 -0.02281207 -0.02286543 -0.02291703 -0.02296766 -0.02302271 -0.02308178 -0.02314686 -0.02321682 -0.02329109 -0.02336797
 -0.02344567 -0.02352233 -0.02359592 -0.02366565 -0.02373016 -0.02379108 -0.02384855 -0.02390464 -0.02396017 -0.02401461
 -0.02406821 -0.0241182 -0.02416432 -0.02420481 -0.02423958 -0.02427034 -0.02429743 -0.02432541 -0.02435451 -0.02438872
 -0.0244274 -0.02447071 -0.02451734 -0.02456435 -0.02461097 -0.02465435 -0.02469536 -0.02473377 -0.02477096 -0.02480819
 -0.02484534 -0.02488304 -0.02491945 -0.02495412 -0.02498532 -0.02501227 -0.02503554 -0.0250548 -0.02507339 -0.02509151
 -0.02511263 -0.02513694 -0.02516493 -0.02519644 -0.0252293 -0.02526348 -0.02529752 -0.02533199 -0.02536802 -0.02540631
 -0.02544908 -0.02549655 -0.02555023 -0.02560959 -0.02567502 -0.02574472 -0.02581782 -0.02589166 -0.02596451 -0.02603505
 -0.02610194 -0.02616693 -0.02622999 -0.02629385 -0.02635907 -0.02642618 -0.02649535 -0.02656599 -0.02663807 -0.02671241
 -0.02678909 -0.02686949 -0.02695329 -0.0270394 -0.02712698 -0.02721234 -0.02729521 -0.02737273 -0.027446 -0.02751524
 -0.02758227 -0.02764935 -0.0277174 -0.02778812 -0.02786091 -0.027936 -0.02801229 -0.02808926 -0.02816698 -0.02824512
 -0.02832538 -0.02840789 -0.02849465 -0.02858599 -0.02868189 -0.0287824 -0.02888421 -0.02898703 -0.02908549 -0.02917962
 -0.02926649 -0.02934717 -0.02942375 -0.02949792 -0.02957517 -0.02965577 -0.02974326 -0.02983566 -0.02993236 -0.03003057
 -0.03012771 -0.03022243 -0.030313 -0.03039999 -0.0304831 -0.03056366 -0.0306419 -0.03071903 -0.03079519 -0.03087175
 -0.03094881 -0.03102765 -0.03110836 -0.03119123 -0.0312762 -0.03136225 -0.03144907 -0.03153415 -0.03161736 -0.03169663
 -0.03177249 -0.03184504 -0.03191535 -0.03198541 -0.03205554 -0.03212717 -0.03219938 -0.03227186 -0.03234386 -0.03241458
 -0.03248468 -0.03255412 -0.03262401 -0.03269475 -0.0327662 -0.03283843 -0.03291102 -0.03298389 -0.03305744 -0.03313168
 -0.03320692 -0.03328316 -0.03335989 -0.03343704 -0.03351384 -0.0335904 -0.0336668 -0.0337429 -0.03381858 -0.03389321
 -0.03396555 -0.03403547 -0.03410198 -0.03416634 -0.03422899 -0.03429196 -0.03435673 -0.0344239 -0.03449445 -0.03456671
 -0.03464065 -0.0347136 -0.03478503 -0.03485338 -0.03491831 -0.03498031 -0.03503935 -0.03509771 -0.03515554 -0.03521549
 -0.03527755 -0.03534301 -0.03541151 -0.0354823 -0.03555489 -0.03562745 -0.03570008 -0.03577179 -0.03584369 -0.03591645
 -0.03599214 -0.03607263 -0.03615982 -0.03625554 -0.03636014 -0.03647456 -0.03659707 -0.03672739 -0.03686391 -0.03700601
 -0.03715479 -0.0373102 -0.03747472 -0.03764859 -0.03783 -0.03801859 -0.03820722 -0.0383955 -0.03857724 -0.03875252
 -0.03891926 -0.03907574 -0.0392176 -0.03934018 -0.0394326 -0.03949257 -0.03951076 -0.03949273 -0.03943809 -0.03935874
 -0.03925991 -0.03915657 -0.03905489 -0.03896927 -0.03890491 -0.03887046 -0.03886916 -0.03889983 -0.03896369 -0.03904806
 -0.03915246 -0.03925613 -0.03935828 -0.03944524 -0.0395182 -0.03958028 -0.0396326 -0.03968221 -0.0397278 -0.03976922
 -0.03980523 -0.03983292 -0.03985313 -0.03986537 -0.03987177 -0.03987355 -0.03987402 -0.03987513 -0.03988063 -0.03989326
 -0.03991238 -0.03993948 -0.03996758 -0.03999589 -0.04001702 -0.04002949 -0.04003397 -0.04003021 -0.040026 -0.04002166
 -0.0400232 -0.04003024 -0.04004256 -0.04005949 -0.0400777 -0.04009739 -0.04011723 -0.04013819 -0.04016166 -0.04018795
 -0.04021857 -0.04025209 -0.04028816 -0.04032425 -0.04035852 -0.04038989 -0.0404168 -0.04044167 -0.04046443 -0.04048944
 -0.04051777 -0.0405507 -0.04058888 -0.040629 -0.04067091 -0.04071095 -0.04074907 -0.04078574 -0.04082128 -0.04085862
 -0.0408977 -0.04093977 -0.04098441 -0.04103092 -0.04107931 -0.04112924 -0.04118091 -0.04123482 -0.04129004 -0.04134639
 -0.04140152 -0.04145405 -0.0415017 -0.04154273 -0.04157749 -0.04160515 -0.04162935 -0.04165043 -0.04167276 -0.04169708
 -0.04172471 -0.04175592 -0.04178801 -0.04182085 -0.04185154 -0.04188024 -0.04190695 -0.04193212 -0.04195801 -0.04198464
 -0.04201339 -0.04204366 -0.04207493 -0.04210657 -0.04213743 -0.04216736 -0.04219586 -0.04222282 -0.04224826 -0.04227137
 -0.04229186 -0.04230895 -0.04232209 -0.04233206 -0.04233869 -0.04234425 -0.04234891 -0.04235525 -0.04236352 -0.04237454
 -0.04238831 -0.04240324 -0.04241913 -0.04243338 -0.04244611 -0.04245641 -0.04246496 -0.04247345 -0.04248214 -0.04249285
 -0.04250438 -0.04251599 -0.04252611 -0.04253244 -0.04253549 -0.04253442 -0.04253177 -0.04252853 -0.04252642 -0.04252665
 -0.04252774 -0.0425297 -0.04253031 -0.04252911 -0.04252616 -0.04252129 -0.04251711 -0.04251374 -0.04251307 -0.04251494
 -0.04251876 -0.04252422 -0.04252964 -0.0425348 -0.04253824 -0.0425398 -0.04253836 -0.04253401 -0.04252608 -0.04251572
 -0.04250361 -0.04249131 -0.0424802 -0.04247091 -0.04246449 -0.04245946 -0.04245574 -0.04245132 -0.04244567 -0.04243795
 -0.04242786 -0.04241619 -0.04240298 -0.04238945 -0.04237566 -0.04236121 -0.04234591 -0.04232739 -0.04230572 -0.0422796
 -0.04225006 -0.04221956 -0.04218928 -0.04216332 -0.04214126 -0.04212474 -0.04211161 -0.04210044 -0.0420888 -0.04207436
 -0.04205632 -0.04203331 -0.04200668 -0.04197618 -0.04194501 -0.04191376 -0.04188506 -0.04185954 -0.04183701 -0.04181755
 -0.04179967 -0.0417833 -0.0417676 -0.04175257 -0.04173783 -0.04172313 -0.04170678 -0.0416888 -0.04166795 -0.04164529
 -0.04162238 -0.04160057 -0.04158303 -0.04156939 -0.04156104 -0.04155545 -0.04155143 -0.04154631 -0.04153826 -0.0415265
 -0.04151 -0.04149037 -0.04146758 -0.04144423 -0.0414207 -0.04139869 -0.04137847 -0.04135951 -0.04134178 -0.04132278
 -0.04130244 -0.04127901 -0.04125282 -0.04122465 -0.04119524 -0.04116763 -0.04114208 -0.041121 -0.04110346 -0.04108929
 -0.04107695 -0.0410648 -0.04105143 -0.04103516 -0.04101557 -0.04099167 -0.04096483 -0.04093503 -0.04090469 -0.04087442
 -0.04084543 -0.04081818 -0.04079171 -0.04076605 -0.04073929 -0.04071134 -0.04068132 -0.04064935 -0.04061603 -0.04058173
 -0.04054866 -0.04051735 -0.04049101 -0.04046948 -0.04045444 -0.04044419 -0.04043698 -0.0404308 -0.04042252 -0.04041181
 -0.04039699 -0.04037987 -0.04036096 -0.04034173 -0.04032296 -0.04030481 -0.04028758 -0.04027056 -0.04025362 -0.04023664
 -0.04021956 -0.040203 -0.04018698 -0.04017151 -0.04015654 -0.04014135 -0.04012591 -0.04010945 -0.04009219 -0.04007462
 -0.04005691 -0.04003997 -0.04002319 -0.04000614 -0.03998786 -0.03996675 -0.03994322 -0.03991657 -0.03988902 -0.03986159
 -0.03983589 -0.03981308 -0.03979233 -0.03977397 -0.03975518 -0.03973559 -0.03971285 -0.03968656 -0.03965684 -0.03962364
 -0.03958952 -0.0395547 -0.03952274 -0.03949375 -0.03947005 -0.0394514 -0.03943846 -0.03943022 -0.039425 -0.03942116
 -0.0394153 -0.03940615 -0.03939055 -0.03936921 -0.03934117 -0.03930911 -0.03927407 -0.03923875 -0.03920439 -0.03917255
 -0.03914384 -0.03911923 -0.03909903 -0.03908326 -0.0390721 -0.03906335 -0.03905692 -0.03904955 -0.03904117 -0.03903032
 -0.03901721 -0.03900239 -0.03898599 -0.03896879 -0.0389506 -0.03893121 -0.03891061 -0.03888848 -0.03886533 -0.03884147
 -0.03881786 -0.0387955 -0.03877465 -0.03875621 -0.03873837 -0.03872079 -0.03870124 -0.03867882 -0.03865348 -0.03862479
 -0.03859531 -0.03856526 -0.03853641 -0.03850888 -0.03848162 -0.0384545 -0.03842555 -0.03839492 -0.03836266 -0.03832927
 -0.03829671 -0.03826531 -0.03823704 -0.03821148 -0.03818909 -0.03816866 -0.03814882 -0.03812893 -0.03810767 -0.03808596
 -0.03806392 -0.03804245 -0.03802241 -0.03800222 -0.03798188 -0.03795878 -0.03793223 -0.03790219 -0.03786838 -0.03783358
 -0.03779794 -0.0377639 -0.03773152 -0.03770117 -0.03767281 -0.03764635 -0.03762181 -0.03759936 -0.03757881 -0.03755982
 -0.03754188 -0.0375237 -0.03750541 -0.03748647 -0.03746768 -0.03744973 -0.03743269 -0.03741717 -0.03740161 -0.03738551
 -0.03736774 -0.03734741 -0.03732658 -0.03730527 -0.03728665 -0.03727121 -0.03725963 -0.03725205 -0.03724663 -0.03724324
 -0.03723965 -0.03723579 -0.03723022 -0.03722297 -0.03721317 -0.03720132 -0.03718823 -0.03717463 -0.03716248 -0.03715159
 -0.03714266 -0.03713487 -0.03712752 -0.03712061 -0.03711363 -0.03710778 -0.03710363 -0.03710132 -0.03710127 -0.037102
 -0.03710337 -0.03710389 -0.03710325 -0.03710189 -0.03709979 -0.03709804 -0.03709659 -0.03709484 -0.03709255 -0.03708745
 -0.03707975 -0.03706888 -0.03705583 -0.03704303 -0.03703114 -0.03702302 -0.03701761 -0.03701487 -0.03701329 -0.03701142
 -0.03700851 -0.03700359 -0.03699673 -0.03698757 -0.03697699 -0.03696488 -0.03695343 -0.03694304 -0.03693538 -0.03693091
 -0.03692823 -0.03692733 -0.03692529 -0.03692207 -0.03691699 -0.03691036 -0.03690426 -0.03689896 -0.03689677 -0.03689752
 -0.03690211 -0.03690995 -0.03692075 -0.03693296 -0.03694461 -0.03695416 -0.03695942 -0.03696005 -0.03695489 -0.03694527
 -0.03693113 -0.03691505 -0.03689748 -0.03688161 -0.03686823 -0.0368587 -0.0368536 -0.03685017 -0.03684831 -0.03684402
 -0.0368372 -0.03682698 -0.03681372 -0.03680026 -0.03678666 -0.03677519 -0.03676487 -0.03675462 -0.03674231 -0.03672312
 -0.03669627 -0.03665765 -0.03661054 -0.03655577 -0.0364987 -0.03644361 -0.03639165 -0.03634517 -0.03630064 -0.03625752
 -0.03621294 -0.03616607 -0.03611658 -0.03606438 -0.03600904 -0.03595053 -0.03588749 -0.0358199 -0.03574841 -0.03567332
 -0.03559754 -0.03552132 -0.03544745 -0.03537567 -0.0353069 -0.03524026 -0.03517457 -0.03510865 -0.03504014 -0.03496904
 -0.0348943 -0.034817 -0.03473779 -0.03465675 -0.03457427 -0.03448954 -0.03440204 -0.034313 -0.03422252 -0.03413207
 -0.03404218 -0.03395074 -0.03385774 -0.03375899 -0.03365435 -0.03354317 -0.03342569 -0.03330418 -0.0331785 -0.03304953
 -0.03291629 -0.03277645 -0.03262902 -0.03247056 -0.03230163 -0.0321208 -0.0319312 -0.03173525 -0.03153567 -0.03133577
 -0.03113428 -0.03093194 -0.03072512 -0.03051238 -0.03029348 -0.03006787 -0.02983776 -0.02960381 -0.02936366 -0.02911745
 -0.02885696 -0.02858178 -0.02828406 -0.02796414 -0.02762175 -0.02725838 -0.02688121 -0.02649087 -0.02609402 -0.02568807
 -0.02527181 -0.0248402 -0.02438592 -0.02390433 -0.02338857 -0.0228349 -0.02223975 -0.02159768 -0.0209069 -0.02015779
 -0.0193496 -0.0184634 -0.01749816 -0.01642183 -0.01523128 -0.01389249 -0.01240246 -0.01073935 -0.008901799 -0.006864725
 -0.004626177 -0.002150955 0.0005526868 0.003475297 0.006580592 0.009761341 0.01296301 0.01602508 0.01889859 0.0214474
 0.02363699 0.02537367 0.02667478 0.02749817 0.02795961 0.02808337 0.02803766 0.02787613 0.02773644 0.02765846
 0.02771618 0.02792769 0.02830767 0.02885987 0.02956982 0.0304367 0.03143981 0.03257447 0.03379002 0.03507334
 0.03632908 0.03754892 0.03865177 0.03964735 0.04051504 0.04127292 0.04193676 0.04252748 0.04306649 0.04358674
 0.04410917 0.04468596 0.04534112 0.04613392 0.04709031 0.04824095 0.04960579 0.05114742 0.05287094 0.05467637
 0.0565575 0.05840678 0.06021871 0.06192931 0.06354107 0.06505568 0.06648483 0.06788901 0.06928167 0.07074434
 0.07227043 0.07389455 0.07558111 0.07728819 0.07899474 0.08065257 0.08228429 0.08388853 0.08549725 0.08712924
 0.08879333 0.09049738 0.09223922 0.09401821 0.0958408 0.09770886 0.09961903 0.1015722 0.1035476 0.1055444
 0.1075541 0.1095757 0.1116003 0.1136175 0.1155673 0.1174355 0.1191368 0.1206769 0.1220225 0.1231946
 0.1242131 0.1250895 0.1258439 0.1264813 0.1270049 0.1274391 0.1277928 0.1280992 0.1283744 0.128627
 0.1288665 0.1290682 0.1292328 0.1293167 0.1293178 0.1291812 0.128904 0.1284247 0.1277427 0.1268272
 0.125687 0.1243577 0.1228492 0.1212192 0.1194618 0.1175937 0.1156007 0.1134631 0.1111819 0.1087406
 0.1061747 0.1034976 0.1007662 0.09801438 0.09527524 0.09257025 0.08990304 0.08727352 0.08470641 0.08220023
 0.07981701 0.07756288 0.07547656 0.07356054 0.07180239 0.07020126 0.06874116 0.0674248 0.06626195 0.06525349
 0.06441016 0.06372559 0.06319083 0.06279786 0.06252993 0.06238111 0.06233969 0.06239851 0.06254896 0.06278484
 0.06309985 0.06349389 0.06396504 0.06451679 0.06514961 0.06586637 0.06666732 0.06755684 0.06853551 0.0696057
 0.07076765 0.07201065 0.07333338 0.0747143 0.07615283 0.07763549 0.07916118 0.08072328 0.08231097 0.08389756
 0.08546726 0.08697612 0.08843059 0.08981448 0.09115775 0.0924819 0.09380011 0.09513289 0.09645634 0.09776586
 0.09904178 0.1002717 0.1014809 0.1026692 0.1038794 0.1051191 0.1063764 0.1076517 0.1088596 0.1099965
 0.110994 0.1118561 0.1125774 0.1131607 0.1136157 0.1139382 0.1141227 0.1141659 0.1140601 0.113803
 0.1133932 0.1128153 0.1120581 0.1111044 0.1099306 0.1085679 0.1070134 0.1053362 0.103556 0.101706
 0.09979644 0.09783012 0.09580628 0.09375122 0.09166615 0.08959828 0.08754907 0.08554632 0.08358891 0.08168163
 0.07982562 0.07802813 0.07629085 0.07462694 0.07302441 0.07147728 0.06995031 0.06840321 0.0667958 0.06507617
 0.0632374 0.0612528 0.05915784 0.0569584 0.05469164 0.05236774 0.0500119 0.04762147 0.04527242 0.04296696
 0.04083407 0.03888294 0.03715482 0.03564497 0.03426559 0.03300707 0.03175852 0.0305225 0.02924667 0.02794667
 0.02663518 0.02532848 0.02406035 0.02284302 0.02170145 0.02065276 0.01971637 0.01891383 0.01826211 0.01777674
 0.01746642 0.01734427 0.01741124 0.01769581 0.01819573 0.01898006 0.02004686 0.02155 0.02349651 0.0261364
 0.02947672 0.03367611 0.03867787 0.04419099 0.0500727 0.05558268 0.06062462 0.06452841 0.06736553 0.06890775
 0.06939223 0.06899255 0.06800508 0.06675008 0.06540833 0.06420111 0.06311815 0.06222386 0.06139611 0.06061327
 0.05977885 0.05886295 0.05786974 0.05679164 0.0556939 0.05457989 0.05351848 0.05251221 0.05160427 0.05079212
 0.05007897 0.04945744 0.0489002 0.04839841 0.04791559 0.04744341 0.04694934 0.04642995 0.04586441 0.0452626
 0.04462049 0.04396622 0.04330868 0.04269417 0.04213708 0.04169759 0.04139268 0.04127565 0.04136097 0.04166799
 0.04220251 0.04295329 0.04392038 0.04508189 0.04643563 0.04793987 0.04958683 0.05129794 0.05306374 0.05479956
 0.05650484 0.05813477 0.05969279 0.06116891 0.06255538 0.06384402 0.06501045 0.06603453 0.06688316 0.0675322
 0.06795307 0.06812634 0.0680428 0.06769121 0.06709338 0.0662465 0.06520293 0.0639651 0.06260609 0.0611302
 0.05961928 0.05807742 0.05657514 0.05511321 0.05372991 0.05242275 0.05120027 0.05006223 0.04901105 0.04805089
 0.04719409 0.04643564 0.04578434 0.04520356 0.04467414 0.04412924 0.04352232 0.04280277 0.04192475 0.04091401
 0.03975417 0.03854882 0.03731164 0.03614598 0.03507053 0.03410995 0.03326968 0.03250003 0.0317984 0.03110971
 0.03043599 0.02976975 0.02911855 0.02851442 0.02796008 0.02748287 0.0270747 0.02673381 0.02644848 0.02620108
 0.02598563 0.02578922 0.02561247 0.02545219 0.02530978 0.02518625 0.02507833 0.02498624 0.02490244 0.02482572
 0.02474895 0.02467077 0.02458911 0.02450338 0.02441944 0.02433784 0.02427369 0.0242282 0.02421947 0.02424633
 0.02431517 0.02441938 0.02454404 0.0246799 0.02479993 0.02490166 0.02496631 0.02500634 0.0250229 0.02504091
 0.02507563 0.0251507 0.02528223 0.0254777 0.02574612 0.02607266 0.02645912 0.02687198 0.02730904 0.02772789
 0.02812529 0.02846481 0.02874492 0.02895071 0.02908427 0.02915817 0.02917707 0.0291697 0.02914004 0.02911527
 0.0290966 0.0290997 0.02912358 0.0291737 0.02924765 0.02934576 0.02946342 0.02959888 0.02974426 0.0298965
 0.03004608 0.03018905 0.03032068 0.03043793 0.03054681 0.03064676 0.03075218 0.03086412 0.03099511 0.03114567
 0.03131834 0.03151222 0.03171967 0.03193894 0.03215737 0.03237353 0.03257615 0.03276497 0.0329339 0.03308344
 0.03321196 0.03331947 0.03340492 0.03346987 0.03351329 0.03354269 0.03355912 0.03357727 0.03360119 0.03364528
 0.03371399 0.03381233 0.03394254 0.034098 0.03427865 0.0344735 0.03468202 0.03489798 0.03512157 0.03535294
 0.03559173 0.03583724 0.03608646 0.03633069 0.03656422 0.03677122 0.03694593 0.03707289 0.03714912 0.03716539
 0.03712232 0.03701688 0.03685286 0.03663005 0.03635667 0.03603288 0.03567621 0.03528787 0.0348963 0.03450473
 0.03414168 0.03381044 0.03352128 0.0332746 0.03305389 0.0328568 0.03265177 0.03243698 0.03218551 0.03189868
 0.0315656 0.03119093 0.03077837 0.03033515 0.02987254 0.0293995 0.02892829 0.02846924 0.02803237 0.02762828
 0.02726467 0.02694806 0.02668419 0.02646755 0.02630067 0.02616204 0.02605054 0.02593607 0.02581595 0.02566721
 0.02548861 0.02527586 0.02503027 0.02476552 0.02448429 0.02420827 0.02393942 0.02369626 0.02347828 0.02329438
 0.02314078 0.0230166 0.02291517 0.02282995 0.02275284 0.02267617 0.02259344 0.02249861 0.02239117 0.02226781
 0.02213786 0.02200117 0.02187509 0.02176162 0.02167821 0.02162703 0.02161475 0.02164179 0.02169847 0.02178311
 0.02187268 0.02196442 0.02203063 0.02206973 0.02206024 0.02200477 0.02189668 0.02174426 0.02155625 0.02134386
 0.02112258 0.02090102 0.02069115 0.02049586 0.02032015 0.02016283 0.02002483 0.01990311 0.01979746 0.01970347
 0.01962034 0.0195455 0.0194783 0.01942196 0.01937662 0.01935039 0.01934353 0.01936154 0.01940379 0.01946926
 0.01955733 0.01966447 0.01979221 0.01994137 0.02011633 0.0203239 0.02056951 0.02086253 0.02120451 0.02160257
 0.02204678 0.022538 0.02305174 0.02358169 0.02409952 0.02459619 0.02505872 0.02548151 0.0258757 0.02624102
 0.02659881 0.02695031 0.02730587 0.02766507 0.02802293 0.02837862 0.02872463 0.02906102 0.02938505 0.02969513
 0.02998716 0.03025701 0.03049515 0.03070081 0.03086648 0.03100167 0.03110922 0.03120488 0.03129888 0.03139871
 0.03151224 0.03163019 0.03175308 0.03186448 0.03196092 0.03203697 0.03209058 0.03213403 0.03216784 0.03221097
 0.03226395 0.03233773 0.03243117 0.03254283 0.0326704 0.03280478 0.03294365 0.03307693 0.03320289 0.03331423
 0.03340977 0.03348589 0.03354028 0.03357103 0.03357287 0.03354359 0.03347489 0.03336349 0.03320212 0.03298735
 0.03271985 0.03239745 0.03203449 0.03163105 0.03121299 0.0307818 0.03036356 0.02995896 0.0295813 0.02922905
 0.02889896 0.02858858 0.02828634 0.02799158 0.0276962 0.02740212 0.02710908 0.02681895 0.02653447 0.02625516
 0.0259815 0.02571288 0.02544794 0.02519064 0.02494107 0.0247074 0.02449187 0.02429985 0.02413352 0.02398935
 0.02386784 0.02375802 0.02365931 0.02356021 0.02346041 0.02335429 0.02324258 0.02312749 0.02301014 0.02289651
 0.02278646 0.02268344 0.02258492 0.02248877 0.02239047 0.02228402 0.02216479 0.02202651 0.02186749 0.02168354
 0.02147962 0.02125478 0.02102158 0.02078191 0.02055163 0.02033369 0.02013994 0.01997259 0.01983285 0.01972128
 0.01962474 0.019542 0.01944925 0.01934494 0.01920588 0.0190326 0.018814 0.0185534 0.01825392 0.01791886
 0.01755641 0.01716665 0.01675359 0.01631465 0.0158486 0.01535429 0.01482913 0.01427828 0.01370116 0.01311077
 0.01250842 0.01191456 0.01133189 0.01078319 0.0102716 0.00981026 0.009400778 0.009033993 0.008708354 0.008390998
 0.00807844 0.007728653 0.007340244 0.00688273 0.006361431 0.005771741 0.005127808 0.004450921 0.003760101 0.003088165
 0.002449156 0.001868865 0.001347716 0.0008961256 0.0005004251 0.0001598051 -0.0001474535 -0.0004258066 -0.0006997235 -0.0009737653
 -0.001269014 -0.001589193 -0.001940784 -0.002325131 -0.002726212 -0.003142589 -0.003543074 -0.003925769 -0.004261438 -0.004549841
 -0.004773818 -0.00493526 -0.005028449 -0.005060497 -0.005037554 -0.004978271 -0.00490523 -0.004846375 -0.004835354 -0.004889744
 -0.005036573 -0.005260515 -0.005568295 -0.005915425 -0.006292322 -0.006656189 -0.006995682 -0.00729438 -0.007547549 -0.007761883
 -0.007937337 -0.008085478 -0.00820677 -0.008307928 -0.008389151 -0.008454675 -0.008505249 -0.00854653 -0.008579267 -0.008609056
 -0.008634991 -0.008658611 -0.008677001 -0.008687005 -0.008685849 -0.008669157 -0.008637427 -0.008588761 -0.008527545 -0.00845463
 -0.008375967 -0.008293294 -0.008211563 -0.008132041 -0.008057698 -0.007989218 -0.007926746 -0.007870451 -0.00781757 -0.007767941
 -0.007718192 -0.007668125 -0.007615183 -0.007558351 -0.007492544 -0.007414741 -0.007313137 -0.007186037 -0.007021214 -0.006826994
 -0.00660463 -0.006377136 -0.006164056 -0.005991999 -0.005886648 -0.005855494 -0.005913765 -0.006039048 -0.006231531 -0.006452742
 -0.006695533 -0.006929222 -0.007148145 -0.007341077 -0.007506245 -0.007648122 -0.007767053 -0.00787372 -0.007968604 -0.008060692
 -0.008149463 -0.008237484 -0.008323325 -0.008404056 -0.008478502 -0.008542893 -0.008596594 -0.008637417 -0.008664273 -0.008675462
 -0.008669854 -0.008645581 -0.008604219 -0.008545434 -0.008473152 -0.008388834 -0.008293806 -0.008189125 -0.00807181 -0.00794159
 -0.007795935 -0.007634381 -0.007460217 -0.007273712 -0.007083094 -0.006888876 -0.006699116 -0.006514051 -0.006338847 -0.006173949
 -0.006022842 -0.005887215 -0.005771845 -0.005679118 -0.005614916 -0.005579527 -0.005576605 -0.005601794 -0.005654196 -0.005726698
 -0.005815796 -0.005916401 -0.006025496 -0.006143492 -0.006269404 -0.006407867 -0.006559416 -0.006727614 -0.006913173 -0.007111644
 -0.00732262 -0.0075307 -0.007734473 -0.00791367 -0.008067745 -0.0081825 -0.008259892 -0.008298072 -0.008300545 -0.008273823
 -0.008220611 -0.008147642 -0.00805648 -0.007950413 -0.007832509 -0.007705191 -0.0075729 -0.007438949 -0.007303755 -0.00716882
 -0.007030299 -0.006886671 -0.006740431 -0.006590476 -0.006450617 -0.006322 -0.006214501 -0.006128428 -0.006052702 -0.005985471
 -0.005901985 -0.005802144 -0.005671469 -0.005513618 -0.00533283 -0.00513274 -0.004924044 -0.004706925 -0.004486215 -0.004261252
 -0.004031895 -0.003801248 -0.003570109 -0.003345654 -0.003131347 -0.00293321 -0.002755173 -0.00259521 -0.002454969 -0.002323531
 -0.002200036 -0.002071943 -0.001937824 -0.0017932 -0.001637852 -0.00147754 -0.001312734 -0.00115138 -0.0009924555 -0.0008352282
 -0.00067669 -0.0005062926 -0.000321978 -0.0001130341 0.0001187645 0.0003757843 0.000654522 0.0009512595 0.001265936 0.001596336
 0.001946442 0.002318018 0.002712953 0.003133796 0.003574377 0.004034876 0.004503525 0.004978726 0.005451081 0.005919298
 0.00638193 0.006838869 0.007294591 0.007749517 0.008209576 0.008675579 0.009154073 0.009647655 0.01016687 0.01071791
 0.01131818 0.01197719 0.01271672 0.01354539 0.01448334 0.01552725 0.01668965 0.01793597 0.01926663 0.02059734
 0.02191406 0.02308654 0.02408787 0.02479269 0.02517205 0.02519234 0.02483946 0.02422081 0.02334163 0.02239573
 0.02139201 0.02049562 0.01970299 0.01908085 0.0186144 0.01828866 0.0180888 0.01797349 0.01793292 0.01793545
 0.01796999 0.01801602 0.01805506 0.01806887 0.01803746 0.01794405 0.01778283 0.01754381 0.01724546 0.01688663
 0.01650431 0.01610265 0.01571965 0.01535956 0.01504541 0.01477876 0.01456374 0.01439942 0.0142744 0.01418645
 0.01411653 0.01406293 0.0140088 0.01395496 0.01389461 0.01383031 0.01376371 0.01369584 0.01362972 0.01356209
 0.01349249 0.01341433 0.01332376 0.0132167 0.01308808 0.0129478 0.01279408 0.01265425 0.01253384 0.0124425
 0.01238414 0.01233016 0.01227913 0.01220287 0.01210161 0.01197416 0.01182353 0.01166864 0.01151048 0.01136436
 0.01122588 0.01109192 0.01095789 0.01081277 0.01065893 0.01049285 0.01032366 0.01015682 0.01000183 0.00986578
 0.009753027 0.009667498 0.00960775 0.009574865 0.009563087 0.009572376 0.009592943 0.009624275 0.009653213 0.009678992
 0.009687877 0.009679162 0.009640561 0.009571364 0.009460553 0.009308088 0.009107082 0.008859698 0.008566421 0.008232926
 0.00786702 0.007479175 0.007081789 0.00669215 0.006326634 0.006003233 0.005739151 0.005534848 0.005398476 0.005308824
 0.005262201 0.005240164 0.005237227 0.005255434 0.005294069 0.005361476 0.005458353 0.005577987 0.00571957 0.005867515
 0.006022156 0.006178004 0.006336995 0.006504613 0.006680759 0.006868875 0.007065755 0.007267209 0.007470793 0.007670497
 0.00786911 0.008066116 0.008267152 0.008476778 0.008693638 0.008921022 0.009144912 0.009363479 0.009559147 0.009727822
 0.009862895 0.009962022 0.01003565 0.01008406 0.01012809 0.01016871 0.01022378 0.01029251 0.01037837 0.01047856
 0.01058343 0.01069114 0.0107916 0.01088516 0.01096845 0.01104048 0.01109933 0.01114225 0.01116428 0.01116996
 0.01115768 0.01114223 0.01112891 0.01112968 0.01115068 0.01118905 0.01124628 0.0113111 0.01138234 0.01145259
 0.0115212 0.01158682 0.01164946 0.01170982 0.01176774 0.01182267 0.0118738 0.01191767 0.01195335 0.01197566
 0.01198638 0.01198559 0.01197738 0.01196817 0.01195747 0.01194957 0.01193481 0.01190934 0.01186283 0.01178814
 0.01168722 0.01155779 0.01141052 0.01124796 0.01107183 0.010884 0.01066897 0.01042586 0.01013943 0.009809923
 0.009446675 0.009053165 0.008661413 0.008273182 0.007915099 0.007582206 0.007275085 0.006986833 0.006702248 0.00642336
 0.006143842 0.005875312 0.005626821 0.005405081 0.0052198 0.005063414 0.00493597 0.00482641 0.004731029 0.004645329
 0.004568631 0.004494029 0.004421785 0.004334363 0.004230525 0.004097604 0.003935377</values></Ydata></AB><ScSm><Ydata ylabel="Single channel"><values byteorder="INTEL" format="FLOAT32" numvalues="1814"> 0.08230259 0.08241227 0.08253466 0.08267705 0.08283363 0.08298837 0.08312608 0.08324431 0.08335201 0.08345594
 0.08355691 0.08366245 0.08378936 0.08394556 0.08411618 0.08427238 0.08439274 0.08448277 0.08457701 0.0847076
 0.08486131 0.08497802 0.08500519 0.08495312 0.08489023 0.08488154 0.08494547 0.0850853 0.08532766 0.08566032
 0.0859458 0.08600965 0.08585644 0.08570002 0.0857264 0.08590856 0.08609401 0.08617535 0.08613083 0.08600999
 0.0859604 0.08618388 0.08675314 0.08745816 0.08786966 0.08758912 0.08651561 0.0849883 0.08370437 0.08335447
 0.08412418 0.08548597 0.086595 0.08697152 0.08675924 0.08636112 0.08602068 0.08582058 0.08586712 0.08626641
 0.0869496 0.08760965 0.08782281 0.08732478 0.08630961 0.08539557 0.08512178 0.08553005 0.08635452 0.08734456
 0.08802376 0.08744673 0.08503412 0.08184464 0.08025011 0.08174607 0.08538792 0.08877429 0.09023467 0.08971604
 0.08809285 0.0863934 0.0855266 0.08596944 0.08745646 0.08924555 0.09070838 0.09149785 0.0913925 0.09040096
 0.08896956 0.08779231 0.08742252 0.08811172 0.08971013 0.09151392 0.09254585 0.09232441 0.09122536 0.08999671
 0.08920692 0.08921742 0.0902153 0.09199108 0.09395623 0.09557677 0.096651 0.09719391 0.09730725 0.09715836
 0.09689746 0.0966354 0.09655699 0.09682654 0.09726559 0.09738973 0.09694791 0.09626298 0.09590553 0.09610613
 0.09655765 0.09678638 0.09662289 0.09611438 0.09504059 0.09301922 0.09028648 0.08782273 0.08639485 0.08601716
 0.08657348 0.08814175 0.09023869 0.09158927 0.09141082 0.09047019 0.09025501 0.09136592 0.0931409 0.09461989
 0.0954756 0.09606621 0.09687386 0.09795886 0.09881979 0.098763 0.09761125 0.09614508 0.09558405 0.0964082
 0.09789278 0.09900086 0.09947208 0.09978972 0.1003238 0.1007932 0.1005109 0.09911954 0.09721103 0.09612283
 0.09683688 0.09900696 0.1011379 0.1017163 0.1002874 0.09769879 0.09538922 0.09435493 0.09476325 0.09636235
 0.09883326 0.101635 0.1039238 0.1049838 0.1047208 0.1036386 0.1022912 0.100768 0.09889208 0.09702543
 0.09628322 0.09749091 0.1001237 0.1027229 0.1042435 0.1046364 0.1042567 0.1031546 0.101165 0.09863604
 0.09675764 0.09668118 0.09820871 0.09984072 0.1003722 0.1000204 0.09973973 0.09991416 0.1001493 0.1000756
 0.09989923 0.1001097 0.1008569 0.1017622 0.1023197 0.1023638 0.1021056 0.1018341 0.1016413 0.1013698
 0.1008522 0.1002772 0.1001772 0.100869 0.1020321 0.1030328 0.1035497 0.1037026 0.1036696 0.103381
 0.1026394 0.1015127 0.100519 0.1002601 0.100838 0.101778 0.1025324 0.1028865 0.1029043 0.1027201
 0.102449 0.1021565 0.1018761 0.1016879 0.1017035 0.1019153 0.1021555 0.1022635 0.1022201 0.1020835
 0.101876 0.1015846 0.1012343 0.1009174 0.1007363 0.1007198 0.1008116 0.1009301 0.1010072 0.1009842
 0.1008326 0.1005902 0.1003341 0.1001114 0.09992532 0.09978132 0.09970248 0.09969221 0.09970979 0.09970023
 0.09963906 0.099536 0.09940487 0.09924948 0.09907816 0.09891413 0.09878634 0.098713 0.0986854 0.09866796
 0.09863231 0.09858796 0.09855528 0.09851754 0.09843437 0.09829915 0.09815079 0.09803131 0.09795284 0.09790105
 0.0978495 0.09776936 0.09763759 0.09745288 0.09725408 0.09710993 0.09706793 0.09711727 0.09721218 0.09731258
 0.09739025 0.09742469 0.09741814 0.0973953 0.09737268 0.09734194 0.09729058 0.09722719 0.09718254 0.09718657
 0.09723826 0.09730183 0.09734066 0.09734597 0.09732856 0.09730299 0.09728806 0.09729485 0.09730439 0.09728223
 0.09722458 0.09716791 0.09714614 0.09715374 0.09715558 0.09712479 0.0970686 0.09701785 0.096992 0.0969804
 0.09696043 0.09692499 0.09688526 0.09685066 0.09681003 0.09673646 0.09661614 0.09646916 0.09633029 0.0962133
 0.09610783 0.09600566 0.09591147 0.09582742 0.09574085 0.09563303 0.09549618 0.09534023 0.09518021 0.09501687
 0.09483625 0.09463061 0.09441097 0.09419452 0.09398711 0.09378147 0.09356707 0.09333797 0.09309442 0.09283961
 0.09257607 0.09230466 0.09202506 0.09173842 0.09145394 0.09118877 0.09095067 0.09072061 0.09046514 0.0901704
 0.08985744 0.08956141 0.08930157 0.08907339 0.08886251 0.08866049 0.08846904 0.08829492 0.08814465 0.0880217
 0.08792539 0.08785255 0.08780457 0.08779275 0.08783042 0.08791485 0.08802122 0.08812211 0.08821201 0.0883071
 0.08842243 0.08855635 0.08869705 0.08883724 0.0889805 0.08913571 0.08930413 0.08947192 0.08962121 0.08975004
 0.08987426 0.09000893 0.09015708 0.09031528 0.09047736 0.09062993 0.0907584 0.09086451 0.09096947 0.09109419
 0.09124196 0.09140306 0.09156919 0.09173809 0.09190992 0.09208704 0.0922768 0.0924886 0.0927248 0.09297654
 0.09322985 0.09347567 0.09371612 0.09396352 0.09423243 0.09452918 0.09484752 0.09517367 0.09549665 0.09581501
 0.09613593 0.09646706 0.09680966 0.09716137 0.09752358 0.09790005 0.09828831 0.09867832 0.09906152 0.09943787
 0.09981306 0.1001924 0.1005783 0.1009708 0.10137 0.1017773 0.1021889 0.1025909 0.1029684 0.1033213
 0.1036657 0.1040189 0.1043857 0.1047585 0.1051225 0.1054652 0.1057875 0.1061048 0.1064313 0.1067618
 0.1070792 0.1073776 0.1076709 0.1079746 0.1082842 0.1085751 0.1088266 0.1090423 0.1092451 0.1094512
 0.1096547 0.1098396 0.1100015 0.1101522 0.1103042 0.1104601 0.1106187 0.1107833 0.1109552 0.1111241
 0.1112754 0.111407 0.1115313 0.1116583 0.1117865 0.1119092 0.1120244 0.1121353 0.1122466 0.11236
 0.1124725 0.1125839 0.1127062 0.1128579 0.1130467 0.1132652 0.1135074 0.1137766 0.1140704 0.1143698
 0.1146564 0.1149345 0.1152235 0.1155249 0.1158101 0.116048 0.1162365 0.1163971 0.1165484 0.1166957
 0.1168411 0.1169852 0.1171171 0.117211 0.1172379 0.1171793 0.1170388 0.1168455 0.1166421 0.1164647
 0.1163395 0.1162996 0.116391 0.116652 0.1170839 0.1176423 0.1182513 0.1188277 0.1193024 0.1196285
 0.1197782 0.1197409 0.119526 0.1191566 0.1186468 0.1179849 0.1171433 0.1161015 0.1148505 0.1133774
 0.1116575 0.1096757 0.1074586 0.105093 0.1027176 0.1004955 0.09858108 0.0971 0.09614417 0.09575838
 0.09589923 0.09639005 0.09692746 0.09716289 0.09681784 0.09576344 0.09402925 0.0917566 0.08913633 0.08635907
 0.08358471 0.0809281 0.07846525 0.07626604 0.0744378 0.07314116 0.07256001 0.07285522 0.07413645 0.07643793
 0.07966727 0.08356047 0.08772179 0.09175894 0.0954186 0.09862503 0.1014261 0.1039185 0.106198 0.1083351
 0.1103664 0.1123 0.1141279 0.1158329 0.1173858 0.1187412 0.1198376 0.1206055 0.1209854 0.1209565
 0.1205645 0.1199347 0.1192408 0.1186175 0.1180559 0.1173703 0.1162872 0.1145985 0.1122716 0.1094633
 0.1064734 0.1037072 0.1016819 0.1010148 0.1022776 0.1056981 0.1109219 0.1170903 0.1232258 0.1286285
 0.1330221 0.1364551 0.1391257 0.1412503 0.1430003 0.1444921 0.1458031 0.1469854 0.1480702 0.1490736
 0.1500034 0.1508663 0.1516709 0.1524276 0.153144 0.1538239 0.1544731 0.155103 0.1557259 0.1563486
 0.1569688 0.1575785 0.1581724 0.1587546 0.159332 0.1599031 0.1604589 0.1609969 0.1615258 0.1620567
 0.1625919 0.1631253 0.1636465 0.1641456 0.1646188 0.1650709 0.1655107 0.1659445 0.1663736 0.1667955
 0.1672088 0.167615 0.1680164 0.1684131 0.1688036 0.1691863 0.169559 0.1699179 0.1702621 0.170598
 0.1709353 0.1712775 0.1716195 0.1719535 0.1722773 0.1725991 0.1729333 0.1732888 0.1736607 0.1740354
 0.1744027 0.1747619 0.1751176 0.1754739 0.175832 0.1761922 0.1765536 0.1769124 0.1772642 0.1776061
 0.1779397 0.1782673 0.1785891 0.1789031 0.179208 0.1795055 0.1797996 0.1800934 0.1803866 0.1806779
 0.1809689 0.1812633 0.181561 0.1818571 0.1821482 0.1824359 0.1827232 0.1830119 0.1833041 0.1836032
 0.1839105 0.1842226 0.1845338 0.1848406 0.1851434 0.1854445 0.1857447 0.1860436 0.1863415 0.1866378
 0.1869299 0.1872153 0.1874954 0.1877751 0.1880585 0.1883471 0.1886396 0.1889336 0.1892289 0.1895265
 0.1898253 0.1901225 0.1904177 0.1907139 0.1910128 0.1913137 0.1916163 0.1919199 0.1922231 0.1925251
 0.1928268 0.1931297 0.1934348 0.1937409 0.1940448 0.1943449 0.1946447 0.1949496 0.1952614 0.195577
 0.1958916 0.1962014 0.1965071 0.1968139 0.1971258 0.1974405 0.1977536 0.1980636 0.1983703 0.1986737
 0.198976 0.1992794 0.199582 0.1998797 0.2001702 0.2004552 0.2007404 0.201033 0.2013334 0.2016343
 0.2019309 0.2022265 0.2025259 0.2028289 0.2031321 0.2034314 0.2037252 0.2040173 0.2043145 0.2046175
 0.2049206 0.2052224 0.205526 0.2058328 0.2061408 0.2064486 0.2067548 0.2070577 0.2073583 0.2076589
 0.2079612 0.2082682 0.2085837 0.2089065 0.2092331 0.2095627 0.2098946 0.210225 0.2105532 0.2108844
 0.2112227 0.2115683 0.2119204 0.2122758 0.2126295 0.2129822 0.2133391 0.2137004 0.2140611 0.21442
 0.2147791 0.2151404 0.2155072 0.2158818 0.2162582 0.2166282 0.2169927 0.217357 0.2177224 0.2180899
 0.2184607 0.2188312 0.2191973 0.2195607 0.2199242 0.2202864 0.220649 0.2210155 0.2213824 0.2217461
 0.2221108 0.2224801 0.2228495 0.2232184 0.2235918 0.2239692 0.2243472 0.2247275 0.2251095 0.2254856
 0.2258529 0.2262156 0.2265742 0.2269297 0.2272891 0.2276525 0.2280108 0.2283635 0.2287158 0.2290586
 0.2293652 0.2295803 0.2295604 0.2290013 0.227396 0.2240456 0.218198 0.2093479 0.1975417 0.1834637
 0.1682457 0.1531149 0.1390616 0.1267051 0.1163719 0.1082277 0.1023699 0.09891022 0.09804159 0.100132
 0.1058448 0.1157451 0.1288652 0.1414681 0.1484468 0.1471899 0.1399484 0.1317947 0.1264917 0.1246451
 0.1249811 0.1262391 0.1279182 0.1301395 0.1332132 0.1371868 0.1417961 0.1469034 0.152755 0.1596033
 0.1672141 0.1749498 0.1823038 0.1892294 0.1959543 0.2025823 0.2089358 0.2147265 0.2197785 0.2240871
 0.227759 0.2309449 0.2337819 0.2363614 0.2387414 0.2409524 0.242959 0.2446405 0.245859 0.2465696
 0.246875 0.2469786 0.2470711 0.2472462 0.2475122 0.2478563 0.2482751 0.2487657 0.2493206 0.2499268
 0.2505618 0.2512015 0.2518344 0.2524557 0.253057 0.2536327 0.2541856 0.2547156 0.255217 0.2556894
 0.2561387 0.2565707 0.2569926 0.2574121 0.2578279 0.2582323 0.2586248 0.25901 0.2593854 0.2597422
 0.260075 0.260385 0.2606795 0.2609702 0.2612633 0.2615551 0.2618417 0.2621249 0.2624051 0.2626798
 0.2629502 0.2632184 0.2634817 0.2637376 0.2639895 0.2642411 0.2644929 0.2647452 0.2649983 0.2652513
 0.265506 0.2657652 0.2660234 0.2662691 0.2664987 0.2667229 0.2669582 0.2672154 0.2674922 0.2677729
 0.2680439 0.268307 0.2685738 0.268849 0.2691286 0.2694105 0.2696954 0.2699824 0.2702688 0.2705509
 0.2708234 0.271081 0.2713228 0.2715545 0.271785 0.2720213 0.2722629 0.2725043 0.2727441 0.2729867
 0.2732335 0.2734802 0.2737231 0.2739634 0.2742065 0.2744619 0.2747374 0.2750291 0.2753232 0.2756112
 0.2758959 0.2761818 0.2764708 0.2767634 0.2770561 0.2773394 0.2776095 0.2778783 0.2781674 0.2784913
 0.278845 0.2792053 0.2795498 0.2798737 0.2801889 0.2805093 0.2808431 0.2811847 0.2815055 0.2817735
 0.2819995 0.2822469 0.2825727 0.2829702 0.2833826 0.2837627 0.2841068 0.284437 0.2847678 0.2850904
 0.2853826 0.2856315 0.2858533 0.2860956 0.2864065 0.2867891 0.2871942 0.2875703 0.2879039 0.2882062
 0.2884895 0.2887657 0.2890326 0.2892529 0.2893918 0.2894981 0.2897013 0.2900883 0.2906045 0.2911093
 0.2915175 0.2918521 0.2921695 0.2924853 0.2927861 0.2930443 0.2931847 0.293121 0.2929137 0.2928258
 0.2931086 0.2937476 0.2944953 0.2951248 0.2955801 0.29592 0.2962132 0.2964919 0.2967334 0.2968629
 0.2968325 0.2967353 0.2967911 0.2971464 0.2977095 0.2982498 0.2986411 0.2989331 0.2992188 0.2995287
 0.299817 0.2999484 0.2997549 0.2992638 0.2988536 0.2990111 0.2998619 0.3010269 0.3019996 0.302596
 0.3029604 0.303219 0.3032959 0.3030632 0.3025019 0.30171 0.3009561 0.3007267 0.3014034 0.3027728
 0.3041156 0.3049272 0.30535 0.3058088 0.3064591 0.3071228 0.3075802 0.3077667 0.3077369 0.3075399
 0.3071931 0.3068272 0.3067748 0.3073382 0.3084382 0.3096282 0.3105143 0.3110679 0.3114475 0.3115414
 0.3108495 0.3090778 0.3069138 0.3058538 0.3068735 0.3094008 0.3119357 0.3135355 0.3143292 0.3148109
 0.315196 0.3153645 0.3148486 0.3129809 0.3098014 0.3068535 0.3062496 0.3085899 0.3122917 0.3151227
 0.3159073 0.3147714 0.3125753 0.3105137 0.3096934 0.3105356 0.3125951 0.3150133 0.3170373 0.31823
 0.3184979 0.3180468 0.317296 0.3167629 0.316736 0.3168406 0.3162726 0.3148403 0.3133361 0.3123182
 0.3110853 0.3088206 0.3064073 0.3058775 0.3078949 0.3107985 0.3125339 0.3127553 0.3124458 0.311935
 0.3100947 0.3058202 0.300068 0.2958287 0.2955624 0.2987428 0.3023792 0.303948 0.303377 0.3021989
 0.3013696 0.3002391 0.2974977 0.2929925 0.288407 0.2856911 0.2848055 0.2836731 0.2804373 0.2748572
 0.267429 0.2587851 0.2508751 0.2471165 0.2495127 0.2561156 0.2626 0.2657936 0.2646701 0.259209
 0.2506069 0.2423908 0.2388482 0.2411872 0.2462663 0.2497172 0.2494173 0.2455778 0.2389521 0.2304697
 0.2221909 0.2170745 0.2170691 0.2215637 0.2275295 0.2308704 0.2285173 0.2208747 0.2124297 0.2083667
 0.2096975 0.2126079 0.212955 0.21016 0.2063399 0.2033866 0.2019055 0.2016288 0.2017305 0.2014606
 0.2007416 0.1991566 0.1948641 0.186707 0.1774408 0.1722977 0.1735679 0.1787147 0.1844044 0.1898252
 0.1948736 0.1977812 0.1970576 0.1946022 0.1945196 0.1987755 0.2053279 0.2107036 0.213503 0.2149706
 0.2166641 0.2184878 0.2195639 0.2204557 0.2231839 0.2286493 0.235146 0.2401611 0.2428539 0.2440701
 0.244698 0.2449176 0.2446438 0.2438853 0.2427141 0.2412759 0.2397675 0.2382373 0.2365593 0.2346724
 0.2325285 0.2296018 0.2249406 0.2184552 0.2120056 0.2081476 0.2074936 0.2083272 0.2090452 0.2093406
 0.2082602 0.2033392 0.1938442 0.1837101 0.1788441 0.1814362 0.1882481 0.1942903 0.1967914 0.1955322
 0.1911247 0.1847265 0.1792566 0.1789253 0.1859987 0.198426 0.2116694 0.2225135 0.2302683 0.2350424
 0.2365784 0.2351995 0.2328724 0.2324548 0.2357789 0.2424872 0.2503392 0.2561789 0.2572696 0.2535837
 0.2494604 0.2509426 0.2596155 0.2703629 0.2770047 0.2788436 0.2796809 0.2818911 0.284383 0.2859374
 0.287574 0.2906967 0.2946535 0.2971991 0.2964257 0.2914912 0.2825334 0.271214 0.2607513 0.2538243
 0.2504287 0.248803 0.2477657 0.2465971 0.2437477 0.2384655 0.2335232 0.2334168 0.2391404 0.2468466
 0.2523029 0.2548667 0.2563698 0.2576594 0.2575395 0.2548216 0.2505544 0.2475967 0.2478438 0.2504172
 0.2530013 0.2542417 0.2540085 0.2520849 0.2481683 0.2432957 0.2399456 0.2399183 0.2425258 0.2453669
 0.2466234 0.2462297 0.2451641 0.2442986 0.2439625 0.2440476 0.2443555 0.2451257 0.2471031 0.2506254
 0.2547973 0.2582029 0.2604513 0.2624517 0.2650848 0.2681264 0.2706775 0.2722861 0.2733974 0.2748554
 0.2771248 0.2799073 0.282371 0.2838129 0.2842957 0.284682 0.2858905 0.288049 0.2904692 0.2924199
 0.2937316 0.2946749 0.2955407 0.2964116 0.2971251 0.2974117 0.297267 0.2971848 0.2977803 0.2991278
 0.3006579 0.3017511 0.3022625 0.3024235 0.3024153 0.3021803 0.301591 0.3006786 0.2996582 0.2987752
 0.2981622 0.2978203 0.2976793 0.2976492 0.2976543 0.2976603 0.2976719 0.2976947 0.2977154 0.2977246
 0.2977315 0.2977396 0.2977307 0.2976891 0.2976152 0.2974977 0.2972915 0.2969456 0.2964381 0.2957643
 0.2949062 0.2938348 0.2925276 0.2909544 0.2890666 0.2868818 0.2846543 0.2829323 0.2823293 0.2831233
 0.2850325 0.2873791 0.2894927 0.2910218 0.2919687 0.2925258 0.2928993 0.2932248 0.2935621 0.2939132
 0.2942404 0.2944871 0.2946079 0.2946011 0.2945229 0.2944674 0.2945195 0.2947135 0.2950241 0.2953818
 0.2956999 0.2959002 0.2959275 0.2957576 0.2954053 0.2949232 0.294374 0.2937969 0.2932023 0.2925916
 0.29197 0.2913402 0.290692 0.290006 0.2892697 0.288481 0.2876196 0.2866264 0.2854595 0.2841911
 0.2829977 0.2820113 0.2811981 0.2804195 0.2795813 0.2786857 0.2777646 0.276821 0.2758375 0.2748002
 0.2737001 0.2725244 0.2712569 0.269882 0.2683866 0.2667651 0.265021 0.2631679 0.2612274 0.2592157
 0.2571108 0.2548257 0.2522168 0.2491323 0.2454684 0.2411979 0.2363619 0.2310492 0.2253896 0.2195562
 0.2137498 0.2081624 0.2029508 0.1982425 0.1941538 0.1907873 0.1882088 0.1864335 0.1854456 0.1852327
 0.1857997 0.1871422 0.1892036 0.1918551 0.194916 0.1981938 0.201508 0.2047013 0.2076647 0.2103741
 0.2128889 0.2152893 0.2176107 0.2198396 0.2219528 0.2239366 0.2257673 0.2273989 0.2287896 0.2299417
 0.2309096 0.2317658 0.2325576 0.233289 0.2339387 0.2344913 0.2349551 0.2353551 0.2357156 0.2360498
 0.2363654 0.236677 0.2370111 0.2373996 0.2378646 0.2384119 0.2390377 0.2397384 0.240513 0.241362
 0.2422898 0.2433035 0.2444068 0.2455986 0.2468806 0.2482651 0.2497744 0.2514263 0.2532085 0.2550577
 0.256867 0.2585254 0.2599639 0.2611702 0.2621682 0.2629791 0.2636001 0.2640088 0.2641846 0.2641304
 0.2638913 0.2635584 0.2632402 0.263009 0.2628615 0.2627239 0.2625008 0.2621331 0.2616208 0.261007
 0.2603534 0.2597285 0.2591887 0.2587466 0.2583581 0.2579498 0.2574605 0.2568614 0.256159 0.2553952
 0.2546479 0.2540053 0.2535056 0.253085 0.252602 0.251927 0.2510048 0.249841 0.2484624 0.2468992
 0.2451823 0.24334 0.241393 0.2393512 0.2372123 0.2349673 0.2326084 0.2301351 0.2275732 0.2249951
 0.2225024 0.2201743 0.2180375 0.2160772 0.2142549 0.2125169 0.2108113 0.2091119 0.2074387 0.205859
 0.2044522 0.2032518 0.2022219 0.2012956 0.2004254 0.1995996 0.1988347 0.1981594 0.1975908 0.1971222
 0.1967338 0.1964055 0.1961274 0.1959173 0.1958145 0.1958265 0.1958908 0.1959081 0.1958118 0.1956022
 0.1953346 0.1950787 0.1948783 0.1947407 0.1946487 0.1945602 0.1943999 0.1940724 0.1934829 0.1925454
 0.1912067 0.1894845 0.1874748 0.1853217 0.1831857 0.1812128 0.1795001 0.1780875 0.1769738 0.1761166
 0.1754351 0.1748596 0.1743889 0.174088 0.1740333 0.1742333 0.1745698 0.1748485 0.1749668 0.1750212
 0.1752175 0.1756964 0.1764466 0.1773356 0.1781996 0.1789326 0.1795073 0.1799312 0.1802183 0.1803944
 0.1804785 0.1804579 0.180311 0.1800362 0.1796392 0.1791238 0.1785025 0.1777825 0.1769499 0.1759945
 0.1749219 0.1737286 0.1724071 0.1709674 0.1694081 0.1677069 0.1659133 0.1642274 0.1629289 0.1622253
 0.1621375 0.1624764 0.1629553 0.1633676 0.1636323 0.1637044 0.1636027 0.1635837 0.1641401 0.1656824
 0.1681868 0.1711529 0.1739186 0.1760435 0.1774196 0.1781067 0.1781934 0.1777914 0.176997 0.1758361
 0.1743338 0.1725861 0.1706916 0.1687171 0.166766 0.16496 0.1633672 0.162031 0.1609786 0.160208
 0.1597734 0.1594114 0.1575955 0.1520609 0.1430218 0.135263 0.134528 0.1413275 0.1502323 0.1557051
 0.1567986 0.1558292 0.1547243 0.1539096 0.1533264 0.1530455 0.1531052 0.1533869 0.1536691 0.1537294
 0.1534767 0.1529327 0.1519862 0.150167 0.1466363 0.1404842 0.1313988 0.120295 0.1091281 0.09985752
 0.09347394 0.08978708 0.08784566 0.08660287 0.0855162 0.08473556 0.08475668 0.08591718 0.08820385 0.09139606
 0.0952256 0.09936015 0.103355 0.1067864 0.1094698 0.1114723 0.1129116 0.1138331 0.1142671 0.1142836
 0.1139608 0.1133669 0.112566 0.1115903 0.1104165 0.1090233 0.1074873 0.1060149 0.1048527 0.104123
 0.1037491 0.1035618 0.1034538 0.1034026 0.1034076 0.103464 0.1035706 0.103729 0.1039488 0.1042466
 0.104605 0.1049546 0.1052285 0.1054188 0.105556 0.105649 0.1056549 0.10552 0.105268 0.1050095
 0.1047882 0.1044467 0.1037544 0.1026978 0.101579 0.1008101 0.1006287 0.1009662 0.1015296 0.1020142
 0.1022899 0.1024175 0.1025059 0.1025573</values></Ydata></ScSm><ScRf><Ydata ylabel="Single channel"><values byteorder="INTEL" format="FLOAT32" numvalues="1820"> 0.07048149 0.07061629 0.07073481 0.07083541 0.07092527 0.07101911 0.07113029 0.07126047 0.07139912 0.07153219
 0.07165106 0.07175676 0.07185489 0.07194634 0.07202957 0.0721136 0.07221724 0.07234891 0.07249412 0.07262662
 0.0727293 0.07280925 0.07289562 0.07301258 0.07314489 0.07324032 0.07325731 0.07320962 0.07315801 0.07315624
 0.07321642 0.07333836 0.07354299 0.07381959 0.07405227 0.07409504 0.07395517 0.07381802 0.0738426 0.07400264
 0.07416366 0.0742324 0.07419178 0.07408704 0.07404709 0.07424661 0.07474729 0.07536486 0.07572469 0.07547962
 0.07454272 0.07321104 0.07209231 0.07178698 0.07245626 0.07364267 0.07461131 0.0749414 0.07475521 0.07440603
 0.07410997 0.07393756 0.07397535 0.07431349 0.07489679 0.07546416 0.07564881 0.07521851 0.07433879 0.07354565
 0.07330836 0.07366398 0.07438006 0.07523599 0.07581772 0.07530937 0.07321495 0.0704564 0.06908724 0.07039624
 0.07355791 0.0764899 0.07774886 0.07729536 0.07589152 0.07442747 0.07368518 0.07407232 0.07535747 0.07690011
 0.07815924 0.07883762 0.07874672 0.07789455 0.07666294 0.07564611 0.07532114 0.07591039 0.07729004 0.07885236
 0.07974887 0.07956038 0.07861167 0.07754947 0.07686421 0.07686955 0.07773189 0.07927416 0.08098622 0.08240093
 0.08333878 0.0838104 0.08390451 0.08376975 0.08354162 0.08331935 0.08326036 0.08350065 0.08388147 0.08398503
 0.08359949 0.08300884 0.08270681 0.08288912 0.08328649 0.08348919 0.08335271 0.08291772 0.08199022 0.08023736
 0.07786621 0.07572936 0.07449119 0.07416311 0.07464749 0.07601701 0.07785282 0.07904226 0.07889894 0.07808673
 0.0779005 0.07886472 0.08040446 0.08168569 0.08242737 0.08294435 0.08365496 0.08460706 0.08536175 0.085317
 0.08432177 0.0830567 0.08258197 0.08331239 0.08461455 0.08558589 0.08600353 0.08629344 0.08678027 0.08721653
 0.08699913 0.08581576 0.08418497 0.08327178 0.08392531 0.08583827 0.08771017 0.08823033 0.08700769 0.08478172
 0.08280496 0.08194479 0.08234578 0.08378644 0.08598857 0.08848421 0.09054196 0.09153461 0.09137021 0.09048086
 0.08935224 0.08806898 0.08648107 0.08490853 0.08433129 0.08547326 0.08787073 0.09024093 0.09166656 0.09210443
 0.09186204 0.09097573 0.08929683 0.08713921 0.0855662 0.08560204 0.08706681 0.08862337 0.08919841 0.08898544
 0.08883588 0.08909458 0.08941106 0.08945504 0.08941081 0.08971712 0.09050754 0.09143928 0.09205519 0.09220436
 0.09207696 0.09193572 0.09186652 0.09172951 0.09137707 0.0909853 0.09103696 0.09181103 0.09300537 0.09404007
 0.09462842 0.0948884 0.09498771 0.09486015 0.09431815 0.09341937 0.09264173 0.09254394 0.09322275 0.09423882
 0.09508233 0.09555329 0.09571271 0.09568776 0.095586 0.09546807 0.09536292 0.09533976 0.09549788 0.09583323
 0.09619872 0.09645037 0.09656433 0.09658238 0.09651999 0.09637375 0.09618194 0.09603682 0.09602512 0.09616061
 0.09638569 0.09662984 0.0968378 0.0969571 0.09695639 0.09686741 0.09676598 0.09670246 0.09668002 0.09669538
 0.09676132 0.09687899 0.0970151 0.09712441 0.0971873 0.0972138 0.09721833 0.09720528 0.09717937 0.09715669
 0.09716134 0.09721097 0.09729886 0.09739566 0.09748528 0.09758773 0.09771867 0.09784067 0.09789418 0.0978726
 0.09783248 0.09783148 0.09788208 0.09796125 0.0980389 0.0980892 0.09809037 0.09803751 0.0979667 0.09794807
 0.09803334 0.09821638 0.09845465 0.09870626 0.09893332 0.09910388 0.09921689 0.09930462 0.09939273 0.09947561
 0.09953915 0.09959242 0.09966922 0.09980166 0.09998906 0.1001934 0.1003715 0.1005056 0.1006021 0.1006843
 0.1007889 0.1009361 0.1010932 0.1011999 0.1012463 0.1012914 0.1013895 0.1015247 0.1016355 0.1016886
 0.1017106 0.1017521 0.101836 0.1019441 0.1020484 0.1021431 0.1022469 0.1023737 0.1025019 0.1025809
 0.102582 0.1025349 0.1024991 0.1025029 0.1025324 0.1025723 0.1026299 0.1027108 0.1027938 0.1028448
 0.1028519 0.1028388 0.1028386 0.1028567 0.1028671 0.1028443 0.1027912 0.1027325 0.102691 0.1026718
 0.1026631 0.1026461 0.1026072 0.1025456 0.1024715 0.1023962 0.1023241 0.1022562 0.1022055 0.1021957
 0.1022283 0.1022543 0.1022025 0.1020479 0.1018398 0.1016563 0.101537 0.1014616 0.1013822 0.1012662
 0.101116 0.1009562 0.1008093 0.1006806 0.1005627 0.1004489 0.1003448 0.1002682 0.1002313 0.1002163
 0.1001782 0.1000839 0.09994728 0.09981407 0.09971643 0.09965377 0.09960972 0.09957163 0.09953684 0.09951276
 0.09950815 0.09951659 0.09951721 0.0994997 0.09947985 0.09948497 0.09953305 0.09962489 0.09974021 0.09983995
 0.09989314 0.09990939 0.09993237 0.09999566 0.1000963 0.1002126 0.1003322 0.1004573 0.1005935 0.100744
 0.100912 0.1011001 0.1013077 0.1015294 0.1017562 0.1019781 0.1021913 0.1024049 0.1026374 0.102901
 0.1031897 0.1034839 0.1037672 0.1040383 0.1043079 0.1045853 0.1048707 0.1051595 0.1054533 0.1057577
 0.1060726 0.1063902 0.1067043 0.1070172 0.1073362 0.107665 0.1080006 0.1083403 0.1086895 0.1090584
 0.1094416 0.1098093 0.1101308 0.110407 0.1106723 0.1109646 0.111298 0.1116565 0.112004 0.1123096
 0.1125749 0.1128342 0.1131178 0.1134229 0.1137294 0.1140375 0.114372 0.1147458 0.1151305 0.1154725
 0.1157414 0.1159589 0.116176 0.1164206 0.1166758 0.1169103 0.1171203 0.1173289 0.1175532 0.1177895
 0.1180322 0.1182891 0.1185654 0.1188446 0.1191008 0.119326 0.1195342 0.1197367 0.1199265 0.1200861
 0.1202062 0.1202991 0.1203939 0.1205145 0.1206586 0.1208055 0.1209454 0.1210909 0.121256 0.121441
 0.1216427 0.1218668 0.1221157 0.1223734 0.1226211 0.1228672 0.1231404 0.1234457 0.1237439 0.123992
 0.1241926 0.1243826 0.1245857 0.1247995 0.125024 0.1252751 0.1255627 0.1258722 0.1261753 0.1264551
 0.1267207 0.1270004 0.1273121 0.1276356 0.1279233 0.1281467 0.1283259 0.1285082 0.1287265 0.1289828
 0.1292617 0.1295458 0.129822 0.1300753 0.1302852 0.1304348 0.1305283 0.1305923 0.1306472 0.1306796
 0.1306502 0.1305266 0.1302975 0.1299586 0.1294993 0.1289162 0.1282358 0.1275231 0.1268668 0.1263559
 0.1260597 0.1260162 0.1262277 0.12666 0.1272439 0.1278861 0.1284886 0.1289636 0.1292392 0.1292643
 0.1290238 0.1285465 0.1278919 0.1271262 0.1263073 0.1254784 0.1246681 0.1239101 0.123277 0.1228916
 0.1228907 0.1233699 0.124349 0.1257589 0.1274432 0.1291916 0.1308148 0.1322164 0.1334005 0.1344196
 0.1353234 0.1361482 0.1369247 0.1376726 0.1383917 0.1390714 0.1397079 0.1403048 0.1408596 0.1413587
 0.141785 0.1421248 0.1423718 0.1425333 0.1426305 0.142685 0.142709 0.1427105 0.1426951 0.142652
 0.1425447 0.1423259 0.1419659 0.1414765 0.1409241 0.140434 0.1401773 0.1403264 0.1409855 0.1421293
 0.1436006 0.145181 0.1466807 0.1479825 0.1490385 0.1498575 0.1504934 0.1510157 0.1514764 0.1518998
 0.1522956 0.1526703 0.1530287 0.1533755 0.153716 0.154055 0.1543968 0.1547448 0.1550976 0.1554467
 0.1557835 0.1561111 0.1564434 0.1567916 0.1571511 0.1575054 0.1578453 0.1581802 0.1585238 0.1588741
 0.1592153 0.1595396 0.1598564 0.1601807 0.1605186 0.160866 0.1612116 0.1615415 0.161848 0.1621372
 0.1624233 0.1627155 0.1630118 0.1633053 0.1635925 0.1638756 0.1641582 0.1644418 0.1647257 0.1650087
 0.165288 0.1655581 0.165816 0.1660665 0.1663189 0.166577 0.166836 0.1670908 0.1673441 0.1676039
 0.1678746 0.1681515 0.1684234 0.1686822 0.1689292 0.1691726 0.1694205 0.1696745 0.1699307 0.1701847
 0.1704354 0.1706848 0.1709353 0.1711885 0.1714444 0.1717021 0.1719594 0.1722149 0.1724682 0.172719
 0.1729668 0.1732112 0.1734528 0.1736949 0.1739429 0.1741994 0.1744592 0.1747129 0.1749551 0.1751878
 0.1754164 0.1756465 0.1758817 0.1761217 0.1763628 0.1766017 0.1768399 0.1770805 0.1773256 0.1775739
 0.1778224 0.1780684 0.1783116 0.1785533 0.1787957 0.1790399 0.1792846 0.1795255 0.1797606 0.1799933
 0.1802288 0.1804686 0.180712 0.1809589 0.1812073 0.1814529 0.1816928 0.1819285 0.1821636 0.1824008
 0.1826411 0.1828835 0.183125 0.1833627 0.1835945 0.1838221 0.184051 0.1842858 0.1845244 0.1847619
 0.1849983 0.1852359 0.185473 0.1857065 0.1859394 0.1861772 0.1864218 0.1866705 0.1869182 0.1871599
 0.1873937 0.1876231 0.1878535 0.1880879 0.1883263 0.1885671 0.1888091 0.1890525 0.1892978 0.1895437
 0.1897887 0.1900335 0.1902789 0.1905238 0.1907684 0.1910156 0.1912668 0.1915213 0.1917789 0.1920392
 0.1922998 0.1925594 0.1928191 0.1930785 0.1933354 0.1935905 0.1938445 0.1940944 0.1943357 0.1945675
 0.1947925 0.1950155 0.195241 0.195469 0.1956965 0.1959252 0.196159 0.1963958 0.1966302 0.1968638
 0.1971025 0.1973472 0.1975957 0.1978471 0.1981015 0.1983591 0.1986211 0.1988847 0.1991424 0.1993915
 0.199637 0.1998845 0.2001379 0.2004004 0.2006691 0.2009357 0.2011976 0.20146 0.2017251 0.2019901
 0.2022559 0.2025252 0.2027969 0.2030694 0.2033417 0.20361 0.2038723 0.2041347 0.2044028 0.2046748
 0.2049479 0.2052228 0.2054975 0.2057706 0.2060454 0.2063229 0.2065992 0.2068741 0.2071518 0.2074314
 0.2077104 0.2079917 0.2082748 0.2085533 0.2088272 0.2091019 0.209375 0.2096423 0.2099081 0.2101751
 0.2104397 0.2107046 0.210974 0.2112356 0.2114602 0.2115947 0.2115087 0.2109256 0.2093801 0.2062272
 0.2007703 0.1925424 0.1815897 0.1685499 0.1544707 0.140481 0.127489 0.1160643 0.10651 0.09897843
 0.09355523 0.09034165 0.08951911 0.09142806 0.09667256 0.1057621 0.117801 0.1293545 0.1357333 0.1345457
 0.1278689 0.1203653 0.1154839 0.1137703 0.1140533 0.115182 0.116702 0.1187237 0.1215271 0.1251506
 0.1293472 0.13399 0.1393108 0.1455488 0.1524912 0.1595482 0.1662501 0.1725537 0.1786707 0.1846972
 0.1904685 0.1957194 0.2002921 0.2041885 0.2075102 0.2103908 0.2129477 0.215261 0.2173886 0.2193646
 0.2211561 0.2226482 0.2237134 0.2243125 0.2245395 0.2245792 0.2246076 0.2247163 0.2249189 0.2252046
 0.2255635 0.2259843 0.2264573 0.2269752 0.2275227 0.2280777 0.2286254 0.2291591 0.2296728 0.2301643
 0.2306375 0.2310933 0.2315283 0.231944 0.2323448 0.2327313 0.2331052 0.2334718 0.2338328 0.2341861
 0.2345326 0.234873 0.2352016 0.2355138 0.2358105 0.2360934 0.2363634 0.2366266 0.2368907 0.2371567
 0.2374213 0.2376814 0.2379338 0.2381776 0.2384174 0.2386583 0.2389004 0.2391423 0.2393837 0.2396229
 0.2398576 0.2400907 0.2403267 0.2405671 0.2408121 0.241062 0.2413128 0.2415585 0.2417974 0.2420334
 0.2422722 0.2425214 0.2427848 0.2430567 0.2433288 0.2436007 0.2438761 0.2441532 0.2444284 0.2447024
 0.2449777 0.2452546 0.2455339 0.2458144 0.2460862 0.2463371 0.2465645 0.2467799 0.2469996 0.2472333
 0.2474779 0.2477227 0.247963 0.2482036 0.2484505 0.2487032 0.2489561 0.2492035 0.2494456 0.2496924
 0.2499572 0.2502422 0.2505375 0.2508328 0.2511252 0.2514158 0.251708 0.2520059 0.2523079 0.2526039
 0.2528853 0.253156 0.2534329 0.2537354 0.2540683 0.2544144 0.2547498 0.255066 0.2553729 0.2556842
 0.2560077 0.2563373 0.256647 0.256909 0.2571345 0.2573802 0.2576966 0.2580795 0.2584812 0.258859
 0.2592037 0.2595307 0.259854 0.2601718 0.2604691 0.2607342 0.2609764 0.2612315 0.2615383 0.2618989
 0.2622739 0.2626263 0.2629526 0.2632635 0.2635634 0.263855 0.2641315 0.2643558 0.264496 0.2646013
 0.2647971 0.2651659 0.2656566 0.2661392 0.2665363 0.2668692 0.2671876 0.2675022 0.267799 0.2680569
 0.2682128 0.2681885 0.2680342 0.2679867 0.2682782 0.2688993 0.2696233 0.2702376 0.2706864 0.2710232
 0.2713156 0.2715968 0.2718444 0.2719874 0.271985 0.2719287 0.2720203 0.2723886 0.2729441 0.2734742
 0.2738633 0.2741567 0.2744411 0.2747476 0.2750351 0.2751771 0.2750185 0.2745883 0.2742366 0.2744063
 0.2752055 0.2762842 0.2771817 0.277734 0.2780771 0.2783284 0.2784155 0.278216 0.277711 0.2769928
 0.2763087 0.2761025 0.2767237 0.2779797 0.2792132 0.2799608 0.280351 0.2807752 0.2813814 0.2820063
 0.2824415 0.2826209 0.2825962 0.2824181 0.2821067 0.2817827 0.2817494 0.2822792 0.283295 0.2843897
 0.2852077 0.2857242 0.2860795 0.2861657 0.2855216 0.2838796 0.2818787 0.2809012 0.2818463 0.284186
 0.286536 0.2880217 0.2887575 0.2892033 0.2895658 0.2897369 0.2892801 0.2875777 0.2846711 0.2819921
 0.281491 0.2837126 0.2871848 0.2898473 0.2906253 0.2896412 0.2876877 0.2858649 0.2851949 0.286065
 0.2880593 0.2903809 0.2923341 0.2935196 0.2938579 0.2935407 0.2929517 0.2925676 0.2926569 0.2928711
 0.2924633 0.2912602 0.2900032 0.2892108 0.288229 0.2862989 0.2842446 0.2839609 0.2860695 0.289021
 0.2908938 0.2913635 0.2913524 0.2911686 0.289753 0.2860738 0.2810372 0.2774579 0.2776507 0.2811209
 0.2850526 0.2870737 0.2871318 0.2866952 0.286689 0.286516 0.2849475 0.2818673 0.2789528 0.2781746
 0.2795841 0.2812345 0.2813345 0.2795033 0.2758307 0.27043 0.2649198 0.2627304 0.266077 0.273204
 0.279936 0.2832831 0.2823789 0.2772385 0.2690631 0.2615342 0.2591622 0.2631262 0.2698964 0.2746518
 0.2750821 0.2714848 0.2647994 0.2561976 0.2481043 0.2438989 0.245766 0.25294 0.2618382 0.2676023
 0.2665842 0.2592756 0.2510381 0.2480625 0.2515472 0.2569085 0.2591698 0.2576416 0.2548918 0.2532467
 0.2535026 0.2553591 0.2577615 0.2597348 0.2611317 0.2612441 0.2574216 0.2480037 0.2366801 0.2305327
 0.2327342 0.2399953 0.2479323 0.2554815 0.2624497 0.2663475 0.2650363 0.2609571 0.2595719 0.2635307
 0.2701472 0.2748326 0.2757538 0.2745794 0.2734429 0.2724008 0.2704867 0.2684501 0.2687912 0.2726498
 0.2780177 0.2819178 0.283391 0.2834953 0.2833034 0.2829986 0.2824309 0.281566 0.2804465 0.2792097
 0.2780736 0.2770988 0.2761434 0.275142 0.2740365 0.2721713 0.2683432 0.2623667 0.2564128 0.2535143
 0.254382 0.2569546 0.2593577 0.2612621 0.2614182 0.2566358 0.2459542 0.234382 0.2294557 0.2339553
 0.2436894 0.2521966 0.2558516 0.2543194 0.248374 0.239533 0.2315726 0.2298732 0.2372812 0.251127
 0.2656167 0.2767275 0.2837417 0.2870041 0.2863725 0.2823536 0.2773909 0.2749034 0.2769403 0.2828324
 0.2897028 0.2938066 0.2921651 0.2850162 0.2774383 0.2762803 0.283374 0.2931006 0.2985909 0.2989188
 0.2980993 0.2987148 0.299702 0.2998788 0.3004218 0.3028894 0.3066671 0.30948 0.3094329 0.3058067
 0.2990489 0.2913309 0.286211 0.2858195 0.288505 0.2907279 0.2906964 0.2884107 0.2834383 0.2758697
 0.2691018 0.268025 0.2734671 0.2809385 0.2857465 0.2873675 0.288007 0.2886324 0.2878348 0.2841952
 0.2788051 0.2747995 0.2742832 0.2763433 0.2785521 0.2795983 0.2794958 0.2780624 0.2749217 0.27113
 0.2693288 0.2713978 0.2764399 0.2816495 0.2848862 0.2859833 0.2859432 0.2856453 0.2853699 0.2849504
 0.2842026 0.2835318 0.283967 0.2860646 0.2889444 0.2910945 0.2921212 0.2930737 0.2949673 0.2975406
 0.2996585 0.30057 0.3005672 0.3006098 0.3014591 0.3030555 0.3045778 0.3051664 0.3047687 0.3043008
 0.304826 0.3065409 0.308695 0.3104508 0.3115841 0.312372 0.3131248 0.3139215 0.3145691 0.3147624
 0.3144909 0.3142931 0.3148594 0.3163137 0.3180655 0.3194087 0.3201047 0.320348 0.3203631 0.320186
 0.3197781 0.3192108 0.3186768 0.3183452 0.3182421 0.3182721 0.3183226 0.318334 0.3183074 0.3182855
 0.3183203 0.3184339 0.3186081 0.3188154 0.3190369 0.3192438 0.3193991 0.3194993 0.3195826 0.3196701
 0.3197195 0.3196542 0.3194142 0.3189613 0.3182576 0.3172662 0.3159609 0.3143144 0.312299 0.3099797
 0.3076751 0.305994 0.3055858 0.3067273 0.3091014 0.3119749 0.3146155 0.3166094 0.3179033 0.3186501
 0.3190396 0.3192106 0.3192377 0.3191491 0.3189561 0.3186782 0.3183455 0.3179848 0.3176138 0.3172498
 0.3169123 0.3166116 0.3163381 0.316063 0.3157497 0.3153699 0.3149127 0.3143807 0.3137792 0.313107
 0.3123503 0.3114904 0.3105273 0.3095 0.3084734 0.3075003 0.3065917 0.3057171 0.3048312 0.3038933
 0.3028525 0.3016395 0.3002338 0.2987568 0.2974391 0.2964353 0.2956847 0.2949821 0.2941575 0.2931601
 0.2920144 0.2907614 0.2894431 0.2880938 0.2867249 0.2853239 0.2838663 0.2823244 0.2806777 0.2789273
 0.2770944 0.2752041 0.2732756 0.2713178 0.2693128 0.267191 0.2648285 0.2620755 0.2587941 0.2548859
 0.250318 0.2451481 0.2395338 0.2337008 0.2278828 0.2222764 0.2170371 0.2122978 0.2081758 0.2047658
 0.202133 0.2003174 0.1993409 0.1992134 0.1999291 0.2014569 0.2037253 0.2066141 0.2099607 0.2135774
 0.2172682 0.2208458 0.2241706 0.2271985 0.229981 0.232593 0.2350554 0.2373299 0.2393704 0.2411593
 0.242698 0.243989 0.2450416 0.2458866 0.2465762 0.247164 0.2476842 0.2481419 0.2485216 0.2488086
 0.2490106 0.2491637 0.2493128 0.2494854 0.2496837 0.2499011 0.2501422 0.250429 0.2507897 0.2512429
 0.2517905 0.2524194 0.2531081 0.2538353 0.2545946 0.2554023 0.2562911 0.2572973 0.2584511 0.2597696
 0.2612479 0.2628526 0.2645189 0.266156 0.2676598 0.2689354 0.26992 0.2705966 0.2709862 0.2711242
 0.2710423 0.2707702 0.2703429 0.2697955 0.2691535 0.2684349 0.2676546 0.2668207 0.2659314 0.2649842
 0.2639897 0.2629724 0.2619573 0.2609589 0.2599834 0.2590375 0.2581275 0.2572501 0.2563953 0.2555569
 0.2547372 0.2539444 0.2531911 0.2524865 0.2518219 0.251166 0.2504756 0.249706 0.2488187 0.2477895
 0.2466086 0.2452731 0.2437859 0.2421617 0.2404204 0.2385766 0.236639 0.234616 0.2325152 0.2303388
 0.2280806 0.2257302 0.2232988 0.2208459 0.218465 0.2162335 0.2141828 0.2123047 0.2105671 0.2089291
 0.2073619 0.2058573 0.2044151 0.2030338 0.2017147 0.2004597 0.1992688 0.198146 0.1971015 0.1961458
 0.1952889 0.1945417 0.1939062 0.1933722 0.1929258 0.1925545 0.1922533 0.1920446 0.1919703 0.1920359
 0.1921731 0.1922817 0.1923 0.1922321 0.1921268 0.1920395 0.1920003 0.1920072 0.1920361 0.1920353
 0.1919184 0.1915862 0.1909529 0.1899494 0.1885354 0.1867305 0.1846239 0.1823533 0.1800849 0.1779859
 0.1761808 0.1747275 0.1736243 0.1728165 0.1722112 0.1717316 0.1713676 0.1711741 0.1712237 0.17153
 0.1719738 0.172345 0.1725293 0.1726373 0.1729065 0.1734957 0.1743866 0.1754318 0.1764614 0.1773683
 0.1781186 0.1787048 0.1791278 0.1794138 0.1795975 0.1796849 0.1796617 0.1795183 0.1792493 0.1788611
 0.1783837 0.1778405 0.1772194 0.1765019 0.1756901 0.174786 0.173785 0.1726872 0.1714727 0.1701037
 0.1686269 0.1672517 0.1662729 0.1659163 0.1662264 0.1670462 0.1681269 0.169295 0.1704739 0.1715587
 0.1724229 0.1731174 0.1739591 0.175317 0.1773001 0.1796455 0.1819003 0.1837133 0.1849538 0.185614
 0.1857217 0.1853383 0.184506 0.1832003 0.1814296 0.1793228 0.1770434 0.1747208 0.1724963 0.1704999
 0.1687821 0.1673584 0.1662313 0.1653894 0.1648914 0.164469 0.1625426 0.1567671 0.1473622 0.1392757
 0.1384479 0.1454057 0.1545293 0.1600876 0.1611077 0.1600004 0.1587667 0.1578367 0.1571338 0.156729
 0.1566775 0.1568768 0.157111 0.1571526 0.1569012 0.1563654 0.1554137 0.1535472 0.1498929 0.1435121
 0.1340912 0.1225859 0.1110194 0.1014105 0.09478129 0.09094495 0.0889298 0.08765525 0.08655548 0.08578127
 0.08583926 0.08706802 0.08944613 0.09274863 0.09670952 0.1009954 0.1051507 0.1087378 0.1115686 0.1137167
 0.1153006 0.1163512 0.1168793 0.1169472 0.1166437 0.1160581 0.1152727 0.1143226 0.1131735 0.1117932
 0.1102557 0.1087699 0.1075845 0.1068294 0.1064416 0.1062613 0.1061776 0.1061581 0.1061955 0.106283
 0.10642 0.1066072 0.106851 0.107164 0.10753 0.1078845 0.1081609 0.1083403 0.1084416 0.1084729
 0.1083996 0.1081688 0.1077926 0.1073723 0.1069623 0.1064306 0.1055659 0.1043542 0.1030885 0.1021838
 0.1018928 0.1021555 0.1026698 0.1031171 0.1033603 0.1034544 0.1034947 0.1034726 0.1032708 0.102792
</values></Ydata></ScRf><Data_Parameters_AB><parameter name="DPF">1</parameter><parameter name="NPT">3497</parameter><parameter name="FXV">3996</parameter><parameter name="LXV">500</parameter><parameter name="CSF">1</parameter><parameter name="MXY">0.229235574603081</parameter><parameter name="MNY">-0.0650728791952133</parameter><parameter name="DAT">18/01/2024</parameter><parameter name="TIM">11:23:44.730 (GMT+1)</parameter><parameter name="DXU">WN</parameter></Data_Parameters_AB><AB__Qtest><MainReport name="Quality Test Report"><Header><Line><Legend>Test result ok/not ok [1/0]: </Legend><Value>0</Value></Line><Line><Legend>Method file: </Legend><Value>C:\Users\Public\Documents\Bruker\OPUS_8.2.28\QT\IRBT_v3_default.QT</Value></Line></Header><Matrix><Line><Legend></Legend><Legend>min</Legend><Legend>max</Legend><Legend>measured</Legend></Line><Line><Value>Absorption (X-Range 1):</Value><Value>0.400000</Value><Value>2.000000</Value><Value>0.169999</Value></Line><Line><Value>Noise (X-Range 4):</Value><Value></Value><Value>0.000300</Value><Value>0.000024</Value></Line><Line><Value>Signal/Noise (X-Range 2):</Value><Value>200.000000</Value><Value></Value><Value>197.876118</Value></Line><Line><Value>Signal/Noise (X-Range 3):</Value><Value>40.000000</Value><Value></Value><Value>47.869169</Value></Line><Line><Value>Water vapour (X-Range 5):</Value><Value></Value><Value>0.000300</Value><Value>0.000025</Value></Line><Line><Value>Signal/Water (X-Range 2):</Value><Value>100.000000</Value><Value></Value><Value>189.422790</Value></Line><Line><Value>Signal/Water (X-Range 3):</Value><Value>20.000000</Value><Value></Value><Value>45.824183</Value></Line><Line><Value>Fringes (X-Range 6):</Value><Value></Value><Value>0.000100</Value><Value>0.000031</Value></Line></Matrix></MainReport></AB__Qtest><Data_Parameters_ScSm><parameter name="DPF">1</parameter><parameter name="NPT">1814</parameter><parameter name="FXV">3996.63438082617</parameter><parameter name="LXV">499.579297603271</parameter><parameter name="CSF">1</parameter><parameter name="MXY">0.318497896194458</parameter><parameter name="MNY">0.0725600123405457</parameter><parameter name="DAT">18/01/2024</parameter><parameter name="TIM">11:23:44.730 (GMT+1)</parameter><parameter name="DXU">WN</parameter></Data_Parameters_ScSm><Data_Parameters_ScRf><parameter name="DPF">1</parameter><parameter name="NPT">1820</parameter><parameter name="FXV">4004.34989121387</parameter><parameter name="LXV">495.721542409425</parameter><parameter name="CSF">1</parameter><parameter name="MXY">0.320363104343414</parameter><parameter name="MNY">0.0690872445702553</parameter><parameter name="DAT">18/01/2024</parameter><parameter name="TIM">11:23:17.780 (GMT+1)</parameter><parameter name="DXU">WN</parameter></Data_Parameters_ScRf><Optic_Parameters_Rf><parameter name="APR">0</parameter><parameter name="APT">Open</parameter><parameter name="BMS">KBr</parameter><parameter name="DTC">RT-DLaTGS_IR-Biotyper [Microplate reader]</parameter><parameter name="HPF">0</parameter><parameter name="LPF">10.0</parameter><parameter name="LPV">4000</parameter><parameter name="PGR">0</parameter><parameter name="RCH">Module port</parameter><parameter name="RDX">0</parameter><parameter name="SRC">MIR</parameter><parameter name="VEL">10.0</parameter><parameter name="SON">Off</parameter></Optic_Parameters_Rf><Acquisition_Parameters_Rf><parameter name="ADT">1</parameter><parameter name="AQM">DD</parameter><parameter name="CFE">0</parameter><parameter name="COR">0</parameter><parameter name="DEL">0</parameter><parameter name="DLY">0</parameter><parameter name="HFW">8000</parameter><parameter name="LFW">0</parameter><parameter name="NSR">32</parameter><parameter name="PLF">AB</parameter><parameter name="RES">6</parameter><parameter name="RGN">-1</parameter><parameter name="STR">0</parameter><parameter name="TCL">MakeCompatibleScalar (0, {WSV=1.000000, ARV=0});</parameter><parameter name="TDL">37</parameter><parameter name="RPO">0</parameter></Acquisition_Parameters_Rf><FT_-_Parameters_Rf><parameter name="APF">B3</parameter><parameter name="HFQ">500</parameter><parameter name="LFQ">4000</parameter><parameter name="NLI">0</parameter><parameter name="PHR">24</parameter><parameter name="PHZ">ML</parameter><parameter name="SPZ">NO</parameter><parameter name="ZFF">1</parameter></FT_-_Parameters_Rf><Optic_Parameters_><parameter name="APR">0</parameter><parameter name="APT">Open</parameter><parameter name="BMS">KBr</parameter><parameter name="CHN">Module port</parameter><parameter name="DTC">RT-DLaTGS_IR-Biotyper [Microplate reader]</parameter><parameter name="HPF">0</parameter><parameter name="LPF">10.0</parameter><parameter name="LPV">4000</parameter><parameter name="PGN">0</parameter><parameter name="RDX">0</parameter><parameter name="SRC">MIR</parameter><parameter name="VEL">10.0</parameter><parameter name="SON">Off</parameter></Optic_Parameters_><FT_-_Parameters_><parameter name="APF">B3</parameter><parameter name="HFQ">500</parameter><parameter name="LFQ">4000</parameter><parameter name="NLI">0</parameter><parameter name="PHR">24</parameter><parameter name="PHZ">ML</parameter><parameter name="SPZ">NO</parameter><parameter name="ZFF">1</parameter></FT_-_Parameters_><Acquisition_Parameters_><parameter name="ADT">1</parameter><parameter name="AQM">DD</parameter><parameter name="CFE">0</parameter><parameter name="COR">0</parameter><parameter name="DEL">0</parameter><parameter name="DLY">0</parameter><parameter name="HFW">8000</parameter><parameter name="LFW">0</parameter><parameter name="NSS">32</parameter><parameter name="PLF">AB</parameter><parameter name="RES">6</parameter><parameter name="SOT">0</parameter><parameter name="TCL">MakeCompatibleScalar (0, {WSV=1.000000, ARV=0});</parameter><parameter name="TDL">37</parameter><parameter name="SPO">0</parameter><parameter name="SGN">-1</parameter></Acquisition_Parameters_><Instrument_Parameters_Rf><parameter name="HFL">15801.365274</parameter><parameter name="LFL">0</parameter><parameter name="LWN">15801.365274</parameter><parameter name="ABP">32157</parameter><parameter name="SSP">1</parameter><parameter name="ARG">2</parameter><parameter name="ASG">2</parameter><parameter name="ASS">32</parameter><parameter name="GFW">16</parameter><parameter name="GBW">16</parameter><parameter name="BFW">0</parameter><parameter name="BBW">0</parameter><parameter name="PKA">9304</parameter><parameter name="PKL">4987</parameter><parameter name="PRA">9265</parameter><parameter name="PRL">5010</parameter><parameter name="P2A">1</parameter><parameter name="P2L">1</parameter><parameter name="P2R">1</parameter><parameter name="P2K">1</parameter><parameter name="DAQ">0</parameter><parameter name="AG2">1</parameter><parameter name="SSM">1</parameter><parameter name="RSN">46566</parameter><parameter name="CRR">0</parameter><parameter name="SRT">1705576997.781</parameter><parameter name="DUR">19.6449890136719</parameter><parameter name="TSC">31.9</parameter><parameter name="MVD">0.492240726947784</parameter><parameter name="AN1">0.226031572476924</parameter><parameter name="AN2">0</parameter><parameter name="VSN">2.485 Apr  4 2017</parameter><parameter name="SRN">0085</parameter><parameter name="CAM">0</parameter><parameter name="INS">IR-Biotyper</parameter><parameter name="FOC">69</parameter><parameter name="RDY">1</parameter><parameter name="ARS">32</parameter></Instrument_Parameters_Rf><Sample_Parameters_><parameter name="BLD"></parameter><parameter name="CNM">Admin</parameter><parameter name="CPY"></parameter><parameter name="DPM"></parameter><parameter name="EXP">IRBT_v3_32Scans.XPM</parameter><parameter name="LCT"></parameter><parameter name="SFM">Microplate, HTS-XT</parameter><parameter name="SNM">240118-1045-Cdiff_SCFA_2_C26_232123132_H4_3e4e8914-9e9f-4591-ac8f-00e0bec6afed.0</parameter><parameter name="XPP">C:\Users\Public\Documents\Bruker\OPUS_8.2.28\XPM</parameter><parameter name="IST">OK</parameter><parameter name="CPG">1252</parameter><parameter name="UID">2c303f68-7142-4d2f-b63a-a954db56ca4a</parameter></Sample_Parameters_><Instrument_Parameters_><parameter name="HFL">15801.365274</parameter><parameter name="LFL">0</parameter><parameter name="LWN">15801.365274</parameter><parameter name="ABP">32157</parameter><parameter name="SSP">1</parameter><parameter name="ASG">2</parameter><parameter name="ARG">2</parameter><parameter name="ASS">32</parameter><parameter name="GFW">16</parameter><parameter name="GBW">16</parameter><parameter name="BFW">0</parameter><parameter name="BBW">0</parameter><parameter name="PKA">9306</parameter><parameter name="PKL">4987</parameter><parameter name="PRA">9327</parameter><parameter name="PRL">5011</parameter><parameter name="P2A">1</parameter><parameter name="P2L">1</parameter><parameter name="P2R">1</parameter><parameter name="P2K">1</parameter><parameter name="DAQ">0</parameter><parameter name="AG2">1</parameter><parameter name="SSM">1</parameter><parameter name="RSN">23976</parameter><parameter name="CRR">0</parameter><parameter name="SRT">1705577024.731</parameter><parameter name="DUR">19.6449890136719</parameter><parameter name="TSC">31.9</parameter><parameter name="MVD">0.314358592033386</parameter><parameter name="AN1">0.226033812857321</parameter><parameter name="AN2">0</parameter><parameter name="VSN">2.485 Apr  4 2017</parameter><parameter name="SRN">0085</parameter><parameter name="CAM">0</parameter><parameter name="INS">IR-Biotyper</parameter><parameter name="FOC">69</parameter><parameter name="RDY">1</parameter></Instrument_Parameters_><History/></OPUSDataFile>
