<?xml version="1.0" encoding="UTF-8" ?>
<OPUSDataFile><AB><Ydata ylabel="Absorbance Units"><values byteorder="INTEL" format="FLOAT32" numvalues="3497"> -0.06719784 -0.06720039 -0.06720097 -0.06719856 -0.06718872 -0.06717411 -0.06715813 -0.06714353 -0.0671369 -0.06713638
 -0.06714369 -0.06715287 -0.06716008 -0.06716166 -0.06715332 -0.06713965 -0.06712007 -0.06710428 -0.06709449 -0.06709632
 -0.06711166 -0.06713589 -0.06716914 -0.06720077 -0.06723031 -0.06725091 -0.06726305 -0.06726907 -0.06726996 -0.06727237
 -0.06727598 -0.06728376 -0.06729376 -0.06730318 -0.06731044 -0.06731129 -0.06730679 -0.06729586 -0.06728169 -0.06726618
 -0.06725191 -0.06724119 -0.06723315 -0.06722841 -0.0672238 -0.06721862 -0.06721109 -0.06720066 -0.06718834 -0.06717412
 -0.06715942 -0.0671443 -0.06712932 -0.06711456 -0.06710102 -0.06708911 -0.06708168 -0.06707904 -0.06708426 -0.06709626
 -0.06711495 -0.06713738 -0.06715918 -0.06717758 -0.06718709 -0.06718913 -0.06718165 -0.06717133 -0.06716057 -0.06715578
 -0.06716049 -0.06717463 -0.06719979 -0.06722904 -0.06726218 -0.06728897 -0.06730855 -0.06731228 -0.06729971 -0.06727024
 -0.06722489 -0.0671749 -0.06712215 -0.0670835 -0.06705856 -0.06705598 -0.06707184 -0.06710208 -0.06714206 -0.06718252
 -0.06722123 -0.0672521 -0.06727505 -0.06728809 -0.06729205 -0.06728639 -0.06727394 -0.06725501 -0.06723414 -0.06721228
 -0.06719343 -0.0671784 -0.06716917 -0.0671661 -0.06716849 -0.06717628 -0.0671849 -0.06719392 -0.06719651 -0.06719283
 -0.06717952 -0.06715837 -0.06713349 -0.06710701 -0.06708628 -0.0670713 -0.06706592 -0.06706771 -0.06707557 -0.06708699
 -0.06709976 -0.06711207 -0.06712253 -0.06712975 -0.06713275 -0.06713147 -0.06712543 -0.06711655 -0.06710503 -0.06709249
 -0.06707916 -0.06706479 -0.06704938 -0.06703508 -0.06702244 -0.06701939 -0.06702639 -0.06705157 -0.06709231 -0.06714569
 -0.0672044 -0.06724924 -0.06727619 -0.06726609 -0.06722957 -0.06716926 -0.06710132 -0.06704043 -0.0669931 -0.06696849
 -0.06696177 -0.06697461 -0.0669954 -0.06702206 -0.06704356 -0.06705733 -0.06706044 -0.06705183 -0.06703782 -0.06701872
 -0.06700183 -0.06698707 -0.06697494 -0.06696503 -0.06695467 -0.06694449 -0.06693529 -0.06692819 -0.06692692 -0.06693074
 -0.0669408 -0.06695418 -0.06696822 -0.06697989 -0.06698581 -0.06698439 -0.06697373 -0.06695373 -0.06692319 -0.06688552
 -0.06684025 -0.06679627 -0.06675449 -0.06672511 -0.06670947 -0.06671179 -0.06673247 -0.0667656 -0.06681032 -0.06685303
 -0.06689288 -0.06691691 -0.06692623 -0.06691737 -0.06689361 -0.06686121 -0.06682312 -0.06678792 -0.06675503 -0.06672767
 -0.06670293 -0.06667874 -0.06665535 -0.06663125 -0.06661125 -0.06659698 -0.06659142 -0.06659687 -0.06660806 -0.0666251
 -0.06663828 -0.06664636 -0.06664564 -0.06663577 -0.06662084 -0.06660116 -0.06658179 -0.06656273 -0.06654602 -0.06653185
 -0.066522 -0.06651685 -0.06651895 -0.06652671 -0.06653944 -0.06655304 -0.06656191 -0.06656431 -0.06655548 -0.06653986
 -0.06651807 -0.06649631 -0.06647813 -0.06646328 -0.06645299 -0.06644268 -0.06643119 -0.06641932 -0.06640656 -0.06640026
 -0.06640094 -0.06641043 -0.06642829 -0.06644601 -0.06646336 -0.06647372 -0.06647897 -0.066484 -0.06648863 -0.06649663
 -0.06650268 -0.06649832 -0.06648128 -0.06644233 -0.06639028 -0.06632817 -0.06626813 -0.06621972 -0.06618472 -0.06616871
 -0.06615932 -0.06615473 -0.06614246 -0.06611845 -0.06608605 -0.06604432 -0.06600772 -0.06597719 -0.06596078 -0.06595819
 -0.06596312 -0.06597427 -0.06597845 -0.06597616 -0.06596151 -0.06593788 -0.06591085 -0.06588407 -0.06586764 -0.06586093
 -0.06586926 -0.0658849 -0.06590464 -0.06591668 -0.06591185 -0.06588705 -0.0658361 -0.06577071 -0.06569193 -0.06561437
 -0.06554163 -0.0654777 -0.06542401 -0.06537586 -0.06533307 -0.0652905 -0.06524809 -0.06520507 -0.06516168 -0.06511951
 -0.06507831 -0.06503806 -0.06499789 -0.0649552 -0.06490981 -0.06485949 -0.0648062 -0.06475127 -0.06469712 -0.06464691
 -0.06460045 -0.06455899 -0.0645203 -0.06448374 -0.06444754 -0.06441119 -0.0643731 -0.06433333 -0.06428808 -0.06423724
 -0.06417479 -0.06410032 -0.06400902 -0.06390086 -0.06377628 -0.06363608 -0.06348672 -0.06332924 -0.06317171 -0.06301435
 -0.06286179 -0.06271397 -0.06257268 -0.06243848 -0.06231323 -0.06219602 -0.06208755 -0.06198397 -0.06188323 -0.06178194
 -0.06167785 -0.06157048 -0.06145976 -0.06134335 -0.06122147 -0.06108761 -0.06094067 -0.06077915 -0.06060254 -0.06041992
 -0.06023174 -0.06004702 -0.05986533 -0.0596871 -0.05951141 -0.05933418 -0.05915543 -0.05897295 -0.05878774 -0.0586008
 -0.05841276 -0.05822539 -0.05803752 -0.05784903 -0.05765774 -0.05746204 -0.05726091 -0.05705286 -0.0568401 -0.05662255
 -0.05640421 -0.05618564 -0.05597133 -0.05576203 -0.05555986 -0.05536528 -0.05517341 -0.05498387 -0.05478711 -0.05458332
 -0.05436978 -0.0541481 -0.0539249 -0.05370031 -0.05347898 -0.05325816 -0.05303416 -0.05280567 -0.05256786 -0.05232472
 -0.05207773 -0.05183239 -0.0515934 -0.05136194 -0.05114065 -0.05092551 -0.05071623 -0.05050763 -0.05029854 -0.05008609
 -0.04986965 -0.04964885 -0.04942369 -0.04919266 -0.04895564 -0.04870896 -0.04845274 -0.0481859 -0.04790988 -0.04763078
 -0.04735056 -0.04707873 -0.04681512 -0.04656488 -0.0463245 -0.04609209 -0.04586206 -0.04562805 -0.04538699 -0.0451335
 -0.04487144 -0.04460017 -0.04432786 -0.04405744 -0.04379223 -0.04353446 -0.04327868 -0.04302481 -0.04276476 -0.04249773
 -0.04222149 -0.04193603 -0.04164566 -0.04135073 -0.04105637 -0.04076254 -0.04047179 -0.04018374 -0.03989844 -0.03961575
 -0.03933556 -0.03905736 -0.03878089 -0.03850421 -0.03822533 -0.03794271 -0.03765362 -0.03736114 -0.03706506 -0.03677195
 -0.03648429 -0.03620455 -0.03593475 -0.03566924 -0.03540774 -0.03514355 -0.03487594 -0.03460398 -0.03432769 -0.03405048
 -0.0337724 -0.03349502 -0.03321788 -0.03293931 -0.03265919 -0.03237591 -0.03209052 -0.03180423 -0.0315185 -0.03123636
 -0.03095773 -0.03068399 -0.03041359 -0.03014588 -0.02987948 -0.02961341 -0.02934756 -0.02908177 -0.02881568 -0.02854928
 -0.02828172 -0.02801285 -0.02774232 -0.0274701 -0.02719621 -0.02692064 -0.02664312 -0.02636367 -0.02608235 -0.02579954
 -0.0255171 -0.02523557 -0.02495771 -0.02468369 -0.02441536 -0.02415225 -0.02389432 -0.02364146 -0.0233936 -0.02315048
 -0.02291226 -0.02267749 -0.02244602 -0.02221471 -0.02198245 -0.02174742 -0.02150875 -0.02126714 -0.02102264 -0.02077542
 -0.02052554 -0.02027187 -0.02001438 -0.01975659 -0.01949907 -0.01925039 -0.0190098 -0.01877903 -0.01855399 -0.01832183
 -0.01807962 -0.01781183 -0.0175245 -0.0172174 -0.01690446 -0.01660098 -0.01631548 -0.01606252 -0.0158337 -0.01563137
 -0.015436 -0.01524094 -0.01503457 -0.01481103 -0.01457628 -0.01432964 -0.01408375 -0.01384002 -0.01360207 -0.0133701
 -0.01313814 -0.01290593 -0.01266861 -0.01242674 -0.01218106 -0.01193222 -0.01168304 -0.01143341 -0.0111845 -0.01093583
 -0.01068741 -0.01043818 -0.01018721 -0.009933125 -0.009674251 -0.009411055 -0.009142463 -0.008872529 -0.008601798 -0.008336277
 -0.008077489 -0.007829345 -0.007592962 -0.007368036 -0.007154865 -0.006949606 -0.006752059 -0.006555775 -0.006360331 -0.006158528
 -0.005950396 -0.005731899 -0.005504314 -0.005269739 -0.005029842 -0.004789863 -0.004549933 -0.004312807 -0.004077424 -0.003843286
 -0.003610545 -0.003378572 -0.003149592 -0.002924887 -0.002705033 -0.002491634 -0.002279718 -0.002069372 -0.001850843 -0.001622243
 -0.001379372 -0.001120685 -0.0008579971 -0.0005918742 -0.0003423798 -0.0001095253 0.000101096 0.0002924603 0.0004805324 0.0006664751
 0.0008650894 0.001070765 0.001277699 0.001479972 0.001662587 0.001829679 0.001977929 0.002119105 0.002261765 0.002413234
 0.00258126 0.00276352 0.002961649 0.003168984 0.003384006 0.003602649 0.00382333 0.004049174 0.004279836 0.004525307
 0.004786162 0.005068662 0.005372029 0.005686753 0.006010086 0.006319575 0.00661424 0.006876809 0.007111828 0.007320394
 0.0075104 0.007695652 0.007881454 0.008080153 0.008291758 0.008520477 0.008764295 0.00902292 0.009295604 0.009582578
 0.009880898 0.01019109 0.01050415 0.01081903 0.01112634 0.01142454 0.0117139 0.01199427 0.0122755 0.01255811
 0.01285142 0.01315497 0.01347071 0.01379736 0.01413114 0.01447082 0.01481138 0.0151524 0.01549034 0.01582696
 0.01616197 0.01650008 0.01684458 0.01720065 0.01757303 0.01796129 0.01836805 0.0187845 0.01920954 0.01963242
 0.02005039 0.02046191 0.02086583 0.02127116 0.02167838 0.02209543 0.02252218 0.02295655 0.02339794 0.02384039
 0.0242855 0.02473601 0.02519478 0.02567249 0.02616604 0.02667881 0.0271963 0.02770432 0.0281852 0.02861655
 0.02899678 0.02931309 0.02958944 0.02982911 0.03006517 0.0303084 0.03057337 0.03086725 0.03117522 0.03149802
 0.031804 0.03209128 0.03233291 0.03252851 0.03267106 0.03276304 0.03281811 0.03283906 0.03284526 0.03283583
 0.0328192 0.03279112 0.0327474 0.03268563 0.03259989 0.03249285 0.03236443 0.03221853 0.03205873 0.0318829
 0.03169329 0.03147801 0.0312353 0.03095055 0.03061963 0.03024139 0.02981352 0.02935708 0.02887302 0.02839065
 0.02791084 0.0274485 0.02700203 0.0265669 0.02614127 0.02571477 0.0252879 0.02485627 0.02442238 0.023988
 0.02355735 0.02313601 0.02272851 0.02234182 0.02197497 0.0216314 0.02130167 0.02098319 0.02066653 0.02034695
 0.02002694 0.01970473 0.01939388 0.01909542 0.01882304 0.01857792 0.01836393 0.01818066 0.01801846 0.01787545
 0.01773261 0.01758898 0.01742904 0.01725592 0.01706925 0.01687481 0.01668377 0.01649868 0.01632855 0.01617054
 0.01602538 0.01588935 0.01575997 0.01563602 0.01551651 0.01540071 0.01528841 0.01517836 0.01507013 0.01496394
 0.01485975 0.01475783 0.01465828 0.01455807 0.01445701 0.01435137 0.01424157 0.0141293 0.01401542 0.0139053
 0.01379802 0.01369435 0.01359159 0.01348451 0.01337227 0.0132508 0.01312248 0.01298803 0.01284973 0.01270966
 0.01256784 0.01242461 0.0122803 0.01213474 0.01198971 0.01184568 0.01170304 0.01156225 0.0114198 0.01127555
 0.01112472 0.01096714 0.01080066 0.01062558 0.01044338 0.01025473 0.01006345 0.009870161 0.009678742 0.009489124
 0.009303049 0.009120055 0.008940166 0.008763132 0.008588593 0.008416818 0.008248126 0.008081836 0.007918125 0.007754767
 0.007591109 0.007425593 0.007257213 0.007088805 0.006919951 0.006759678 0.006608617 0.006474374 0.006356956 0.006251029
 0.006154756 0.006049221 0.005933636 0.005792548 0.005630218 0.00544981 0.005258872 0.005074477 0.0049005 0.004751096
 0.00462261 0.004518287 0.004428392 0.00434845 0.004267666 0.004179422 0.004079738 0.003964177 0.003840806 0.003709468
 0.003584042 0.00346677 0.003362851 0.003273242 0.003191463 0.003117288 0.003046864 0.002981326 0.0029297 0.002893491
 0.00288605 0.002905147 0.002952837 0.003021973 0.0030998 0.003178505 0.003240695 0.003284493 0.003299388 0.00329365
 0.003267615 0.003236011 0.003205686 0.003186851 0.003185523 0.003200222 0.003232284 0.003274904 0.003327008 0.003386773
 0.003453814 0.003530891 0.003618049 0.003714257 0.00381889 0.003925066 0.004032736 0.004137465 0.004240932 0.004346055
 0.004454344 0.004571211 0.004695159 0.00482716 0.004963066 0.005099158 0.005232002 0.005357659 0.00547583 0.005585393
 0.00568687 0.005781231 0.005864101 0.005935858 0.005985885 0.006012672 0.006009085 0.005973678 0.005915718 0.005835921
 0.005759579 0.005687913 0.005644063 0.005625691 0.005634775 0.005664587 0.005695075 0.005720587 0.005717464 0.005688153
 0.005623761 0.005535118 0.00542968 0.005317519 0.005209739 0.00510634 0.005011396 0.004917837 0.004823861 0.00472537
 0.004620379 0.004511341 0.004398023 0.004285349 0.004173564 0.004068954 0.00397186 0.003888597 0.00381877 0.003761127
 0.003713456 0.003662816 0.003608383 0.003538478 0.003458572 0.003373468 0.003292155 0.003231738 0.003194281 0.003190918
 0.00321297 0.003258166 0.003317034 0.003382543 0.003455658 0.003533454 0.003626389 0.003735625 0.003873072 0.004040408
 0.004247086 0.004493991 0.004789026 0.005132616 0.005528672 0.005976418 0.006469639 0.00700493 0.007562309 0.00813529
 0.008693427 0.009228388 0.009707727 0.01012395 0.01045134 0.01068649 0.0108147 0.0108401 0.01075836 0.01058371
 0.01031857 0.00998773 0.009596733 0.009178434 0.008738678 0.008314421 0.007910478 0.007563114 0.007275851 0.007076283
 0.006965999 0.006956811 0.007048213 0.007237299 0.007523035 0.007897994 0.008362233 0.008912295 0.009548274 0.0102693
 0.0110739 0.01195926 0.01292441 0.01396605 0.0150873 0.01628825 0.01757583 0.01895289 0.02042728 0.02200171
 0.02368409 0.02547609 0.0273867 0.02941775 0.03157407 0.03385733 0.03625602 0.03876958 0.04136051 0.04402443
 0.04669856 0.0493746 0.05197552 0.05448874 0.05683331 0.05899209 0.06088711 0.06250304 0.06377473 0.06471246
 0.06528512 0.06556245 0.06556255 0.06542744 0.06521615 0.06510497 0.06516304 0.06553418 0.06626879 0.06743243
 0.06904849 0.07110211 0.07359808 0.07646459 0.07969802 0.0831957 0.08695104 0.09085446 0.09489878 0.09898697
 0.1031112 0.1071947 0.1112261 0.1151453 0.1189316 0.1225329 0.1259108 0.1290135 0.1317779 0.1341504
 0.1360465 0.1374164 0.1381712 0.1382719 0.1376441 0.1362592 0.1340888 0.1311118 0.1274053 0.1229623
 0.1180095 0.1125584 0.1069428 0.1011804 0.09558897 0.09017348 0.0851291 0.08044057 0.07616056 0.07226192
 0.06870819 0.06547125 0.06249015 0.05974005 0.05717083 0.05476075 0.05247802 0.05030521 0.04822462 0.04622689
 0.04430367 0.04245548 0.04067959 0.03898548 0.03737324 0.0358579 0.03444035 0.03313883 0.03195437 0.03090877
 0.03000366 0.02926623 0.02869887 0.02833121 0.02816365 0.02821753 0.02848341 0.02895667 0.0296079 0.03039323
 0.03126515 0.03215056 0.03301408 0.03378979 0.03450271 0.03512801 0.03577258 0.03645648 0.03732744 0.03842505
 0.03986203 0.04166986 0.04387026 0.04647591 0.04940787 0.05266364 0.0560879 0.05966797 0.06319226 0.06663118
 0.0696999 0.07233831 0.07416923 0.07512549 0.07482105 0.07327829 0.07030153 0.06610028 0.0607922 0.0547419
 0.04826473 0.04171823 0.03539803 0.02949996 0.02418618 0.01946301 0.01537679 0.01182149 0.008791964 0.006157804
 0.003906143 0.001926329 0.0002106283 -0.001323356 -0.002678975 -0.003913121 -0.00502693 -0.00605599 -0.007000595 -0.007880675
 -0.008697085 -0.009461705 -0.01017635 -0.01084951 -0.01148282 -0.01208181 -0.01264683 -0.01317985 -0.01368123 -0.01415092
 -0.01459193 -0.01500457 -0.01539478 -0.01576395 -0.01611766 -0.01645724 -0.01678559 -0.01710336 -0.01741012 -0.0177059
 -0.01798894 -0.01825925 -0.01851692 -0.01876256 -0.01900062 -0.01923192 -0.01946263 -0.01969228 -0.01992337 -0.02015366
 -0.02037993 -0.02060113 -0.02081361 -0.02102009 -0.02122114 -0.02142104 -0.02162321 -0.02182811 -0.02203764 -0.02224759
 -0.02245731 -0.02266267 -0.02286245 -0.02305646 -0.02324443 -0.02342757 -0.02360596 -0.02378039 -0.02395091 -0.02411847
 -0.02428314 -0.02444594 -0.02460661 -0.02476466 -0.02491974 -0.0250705 -0.02521714 -0.02535942 -0.02549763 -0.02563254
 -0.02576292 -0.02588817 -0.02600654 -0.02611629 -0.02621812 -0.02631116 -0.02639944 -0.02648381 -0.0265681 -0.02665353
 -0.02674007 -0.02682809 -0.02691451 -0.0269991 -0.02708039 -0.02715844 -0.02723611 -0.02731371 -0.02739561 -0.02748108
 -0.02756968 -0.02765964 -0.02774548 -0.02782665 -0.02789864 -0.02796371 -0.02802268 -0.0280787 -0.02813537 -0.02819364
 -0.02825557 -0.02831974 -0.02838584 -0.02845322 -0.02852116 -0.02859174 -0.02866511 -0.02874397 -0.02882885 -0.02891959
 -0.02901631 -0.02911525 -0.02921622 -0.02931549 -0.02941317 -0.02950842 -0.02960158 -0.02969366 -0.02978482 -0.02987611
 -0.02996726 -0.03005832 -0.03014859 -0.03023744 -0.03032354 -0.03040539 -0.03048217 -0.03055241 -0.03061761 -0.03067769
 -0.03073554 -0.03079224 -0.03084879 -0.03090583 -0.03096188 -0.03101681 -0.03106961 -0.03112017 -0.03116832 -0.03121403
 -0.03125611 -0.0312945 -0.03132764 -0.03135607 -0.03138123 -0.0314042 -0.03142917 -0.03145631 -0.03148839 -0.03152405
 -0.03156257 -0.03160253 -0.03164187 -0.03168106 -0.03171952 -0.03175898 -0.03180015 -0.03184401 -0.03189137 -0.0319409
 -0.03199273 -0.03204403 -0.03209441 -0.03214215 -0.03218706 -0.03222904 -0.03226814 -0.03230558 -0.03234146 -0.03237708
 -0.0324126 -0.03244955 -0.03248799 -0.03252901 -0.03257214 -0.03261714 -0.03266314 -0.0327087 -0.03275329 -0.03279581
 -0.03283606 -0.03287365 -0.03290821 -0.03293945 -0.0329673 -0.03299141 -0.03301311 -0.03303238 -0.03305169 -0.03307136
 -0.03309318 -0.03311738 -0.03314425 -0.03317383 -0.03320554 -0.03323933 -0.03327428 -0.03331028 -0.03334613 -0.03338196
 -0.03341744 -0.03345299 -0.03348931 -0.03352681 -0.03356639 -0.03360811 -0.03365252 -0.03369905 -0.03374785 -0.03379713
 -0.03384645 -0.03389307 -0.03393599 -0.03397356 -0.03400477 -0.03403156 -0.0340537 -0.03407625 -0.03409962 -0.03412791
 -0.03416133 -0.03420038 -0.03424479 -0.03429196 -0.03434164 -0.03439106 -0.03444017 -0.03448718 -0.03453238 -0.03457544
 -0.0346169 -0.03465725 -0.03469741 -0.0347386 -0.03478114 -0.03482581 -0.03487204 -0.03491978 -0.03496832 -0.0350173
 -0.03506665 -0.03511621 -0.03516641 -0.03521727 -0.03526911 -0.035322 -0.03537534 -0.03542908 -0.03548095 -0.03553073
 -0.0355752 -0.03561455 -0.03564781 -0.03567626 -0.03570348 -0.03573091 -0.03576399 -0.03580207 -0.03584724 -0.03589641
 -0.03594721 -0.0359967 -0.03604132 -0.03608169 -0.03611658 -0.03614956 -0.03618168 -0.03621519 -0.03625138 -0.036288
 -0.03632515 -0.03635858 -0.03638778 -0.0364121 -0.03643153 -0.03644982 -0.03646713 -0.03648676 -0.03650838 -0.03653172
 -0.03655654 -0.03658169 -0.03660756 -0.0366346 -0.03666292 -0.03669338 -0.03672455 -0.03675538 -0.03678407 -0.03680861
 -0.03682909 -0.03684451 -0.03685723 -0.0368676 -0.03687857 -0.03689107 -0.03690615 -0.03692441 -0.03694383 -0.03696436
 -0.03698317 -0.03700011 -0.03701505 -0.0370282 -0.03704219 -0.03705711 -0.03707499 -0.03709529 -0.03711714 -0.03714002
 -0.03716199 -0.03718348 -0.037204 -0.03722488 -0.03724714 -0.03727268 -0.03730332 -0.03734023 -0.03738518 -0.03743614
 -0.0374935 -0.0375521 -0.03761078 -0.0376656 -0.0377153 -0.03776145 -0.03780391 -0.03784655 -0.03788957 -0.03793437
 -0.03798087 -0.0380283 -0.0380768 -0.03812687 -0.03817875 -0.03823385 -0.03829155 -0.03835119 -0.03841173 -0.03847089
 -0.03852864 -0.03858383 -0.03863735 -0.03868968 -0.03874103 -0.03879173 -0.03884149 -0.03889003 -0.0389381 -0.03898561
 -0.03903432 -0.0390846 -0.03913702 -0.0391918 -0.03924754 -0.03930418 -0.03935988 -0.03941462 -0.03946814 -0.03952055
 -0.03957244 -0.03962376 -0.03967467 -0.0397251 -0.03977475 -0.03982411 -0.03987378 -0.03992439 -0.03997708 -0.04003178
 -0.04008905 -0.04014782 -0.04020767 -0.04026768 -0.04032742 -0.04038638 -0.04044447 -0.04050079 -0.04055522 -0.04060671
 -0.04065508 -0.04070036 -0.0407425 -0.04078323 -0.04082267 -0.04086309 -0.04090447 -0.04094797 -0.04099313 -0.04103889
 -0.04108475 -0.04112856 -0.04117094 -0.04121157 -0.04125223 -0.04129502 -0.04134098 -0.04139229 -0.04144729 -0.04150597
 -0.04156567 -0.04162517 -0.04168357 -0.04174034 -0.0417957 -0.04184982 -0.04190147 -0.04195061 -0.0419954 -0.04203568
 -0.04207252 -0.04210618 -0.0421409 -0.04217689 -0.0422178 -0.04226322 -0.04231374 -0.04236846 -0.04242558 -0.04248415
 -0.04254188 -0.04259772 -0.04264957 -0.04269657 -0.04273702 -0.04277135 -0.04279859 -0.04282205 -0.04284236 -0.04286398
 -0.04288838 -0.04291757 -0.04295247 -0.04299134 -0.04303414 -0.04307844 -0.04312406 -0.04317064 -0.04321818 -0.04326694
 -0.04331672 -0.04336599 -0.04341453 -0.04346023 -0.04350372 -0.04354529 -0.04358618 -0.04362877 -0.04367377 -0.04372327
 -0.04377671 -0.04383425 -0.04389547 -0.04395988 -0.04402823 -0.04410046 -0.04417828 -0.04426211 -0.04435318 -0.04445186
 -0.0445581 -0.04467198 -0.04479296 -0.04492103 -0.04505427 -0.04519236 -0.04532927 -0.04546441 -0.04559031 -0.04570748
 -0.04581386 -0.04591088 -0.04600229 -0.04608674 -0.04616486 -0.04623117 -0.04627901 -0.04630397 -0.04629819 -0.04626507
 -0.04620192 -0.04612152 -0.0460271 -0.0459338 -0.04584625 -0.04577492 -0.04572261 -0.04569414 -0.0456906 -0.04571233
 -0.04575962 -0.0458255 -0.04590922 -0.04599519 -0.04608245 -0.04615591 -0.04621648 -0.04625948 -0.04628747 -0.04630492
 -0.04631396 -0.04632092 -0.04632607 -0.04633262 -0.04633941 -0.04634636 -0.0463529 -0.04635833 -0.04636363 -0.0463691
 -0.04637538 -0.04638327 -0.04639008 -0.04639573 -0.04639571 -0.04638925 -0.04637561 -0.04635451 -0.04633128 -0.04630623
 -0.04628634 -0.04627148 -0.04626408 -0.04626312 -0.04626548 -0.04627038 -0.04627372 -0.04627598 -0.04627581 -0.04627482
 -0.04627444 -0.04627645 -0.04628314 -0.04629507 -0.04631378 -0.04633724 -0.04636548 -0.04639455 -0.04642346 -0.04644872
 -0.04646926 -0.04648433 -0.04649344 -0.04649877 -0.04650036 -0.04650207 -0.04650412 -0.04651047 -0.04652114 -0.04653808
 -0.04656102 -0.04658998 -0.04662446 -0.04666325 -0.04670557 -0.04674972 -0.04679425 -0.04683666 -0.04687548 -0.04690818
 -0.04693497 -0.04695476 -0.04696987 -0.04698092 -0.04699031 -0.04699908 -0.04700777 -0.04701675 -0.04702548 -0.04703385
 -0.04704225 -0.04705065 -0.04706065 -0.04707227 -0.04708553 -0.04710027 -0.04711491 -0.04712932 -0.04714194 -0.047153
 -0.04716233 -0.04717024 -0.04717739 -0.04718379 -0.04718949 -0.04719505 -0.04720081 -0.04720775 -0.04721684 -0.04722781
 -0.04724132 -0.04725485 -0.04726781 -0.04727804 -0.04728462 -0.04728857 -0.0472897 -0.04729109 -0.04729299 -0.04729713
 -0.04730353 -0.04731128 -0.04732027 -0.047329 -0.04733749 -0.04734515 -0.04735195 -0.04735748 -0.04736165 -0.04736402
 -0.0473646 -0.04736314 -0.04736003 -0.04735555 -0.04735013 -0.04734418 -0.04733795 -0.04733161 -0.04732543 -0.04731961
 -0.04731384 -0.04730819 -0.04730188 -0.04729475 -0.04728691 -0.04727832 -0.04727011 -0.04726231 -0.04725506 -0.04724821
 -0.04724022 -0.04723108 -0.04721973 -0.04720668 -0.04719293 -0.04717879 -0.04716558 -0.04715301 -0.04714117 -0.04712975
 -0.04711842 -0.04710716 -0.04709607 -0.04708441 -0.04707199 -0.04705776 -0.04704104 -0.04702266 -0.04700235 -0.046983
 -0.04696502 -0.04695014 -0.04693867 -0.04692922 -0.04692172 -0.04691365 -0.04690501 -0.04689464 -0.0468826 -0.04686855
 -0.04685239 -0.04683353 -0.04681221 -0.04678819 -0.046763 -0.04673862 -0.04671668 -0.04670005 -0.04668818 -0.04668221
 -0.04667911 -0.04667786 -0.04667565 -0.04667113 -0.04666365 -0.04665284 -0.04663868 -0.04662121 -0.04659956 -0.04657358
 -0.04654349 -0.04650932 -0.04647495 -0.04644069 -0.04641157 -0.04638742 -0.04637015 -0.04635866 -0.04635046 -0.04634433
 -0.04633616 -0.04632576 -0.04631089 -0.04629243 -0.04627031 -0.04624578 -0.04621952 -0.04619307 -0.04616711 -0.04614352
 -0.04612315 -0.04610683 -0.04609529 -0.0460866 -0.04608084 -0.0460744 -0.04606697 -0.04605599 -0.04604136 -0.04602283
 -0.04600054 -0.04597584 -0.04594886 -0.04592099 -0.04589224 -0.04586345 -0.04583448 -0.04580538 -0.04577615 -0.04574659
 -0.04571726 -0.04568858 -0.04566129 -0.04563622 -0.04561329 -0.04559289 -0.04557388 -0.04555596 -0.04553813 -0.04551993
 -0.04550174 -0.04548348 -0.04546621 -0.04545004 -0.04543499 -0.04542104 -0.04540732 -0.04539381 -0.04538 -0.04536599
 -0.04535224 -0.04533872 -0.04532573 -0.04531272 -0.04529857 -0.04528287 -0.04526418 -0.04524317 -0.04521973 -0.04519545
 -0.04517159 -0.04514888 -0.04512826 -0.04510907 -0.04509138 -0.0450741 -0.0450568 -0.04503996 -0.04502351 -0.04500861
 -0.04499543 -0.04498368 -0.04497335 -0.04496235 -0.04495058 -0.04493609 -0.04491906 -0.0448995 -0.04487781 -0.04485532
 -0.04483257 -0.04481141 -0.04479231 -0.04477708 -0.04476541 -0.04475805 -0.04475331 -0.0447503 -0.04474707 -0.04474231
 -0.04473501 -0.04472442 -0.04471061 -0.04469344 -0.04467324 -0.0446499 -0.0446246 -0.0445973 -0.04457087 -0.04454547
 -0.04452362 -0.04450526 -0.04448998 -0.04447731 -0.0444643 -0.0444506 -0.04443318 -0.04441268 -0.04438883 -0.04436308
 -0.04433784 -0.04431377 -0.04429305 -0.04427437 -0.04425768 -0.04424084 -0.0442223 -0.04420208 -0.04417936 -0.04415664
 -0.04413449 -0.0441143 -0.04409668 -0.04407997 -0.04406409 -0.04404701 -0.04402859 -0.04401005 -0.0439916 -0.04397693
 -0.04396602 -0.04396091 -0.04396068 -0.04396318 -0.04396717 -0.04396856 -0.04396684 -0.04395908 -0.04394601 -0.04392716
 -0.04390388 -0.04387696 -0.04384788 -0.04381765 -0.04378739 -0.04375782 -0.04372933 -0.04370218 -0.04367632 -0.04365182
 -0.04362819 -0.04360542 -0.04358296 -0.04356077 -0.04353853 -0.04351627 -0.04349446 -0.04347322 -0.0434536 -0.0434355
 -0.04341919 -0.04340414 -0.043389 -0.04337363 -0.04335693 -0.0433396 -0.04332194 -0.0433048 -0.04328938 -0.04327483
 -0.04326138 -0.04324674 -0.04322992 -0.0432099 -0.04318586 -0.04315929 -0.04313024 -0.04310085 -0.04307144 -0.04304229
 -0.04301343 -0.04298379 -0.04295341 -0.04292299 -0.04289293 -0.04286628 -0.0428432 -0.04282631 -0.04281459 -0.042807
 -0.04280189 -0.04279573 -0.0427878 -0.04277541 -0.04275959 -0.04273992 -0.04271859 -0.04269681 -0.04267589 -0.04265683
 -0.04263922 -0.04262328 -0.04260767 -0.04259209 -0.04257616 -0.04255977 -0.04254311 -0.0425262 -0.04250908 -0.04249173
 -0.04247381 -0.04245535 -0.04243619 -0.04241653 -0.0423969 -0.04237762 -0.04235968 -0.04234341 -0.04232997 -0.04231923
 -0.04231172 -0.04230635 -0.04230277 -0.04229866 -0.04229244 -0.04228297 -0.04226899 -0.04225197 -0.04223175 -0.04221145
 -0.0421917 -0.04217397 -0.04215867 -0.04214474 -0.04213217 -0.04211927 -0.042106 -0.04209153 -0.04207594 -0.04205934
 -0.0420419 -0.04202429 -0.04200663 -0.04198964 -0.04197317 -0.04195727 -0.04194184 -0.04192651 -0.04191201 -0.04189877
 -0.04188771 -0.0418799 -0.04187433 -0.04187128 -0.04186787 -0.04186337 -0.04185561 -0.04184379 -0.04182845 -0.04180941
 -0.04178886 -0.0417669 -0.0417458 -0.04172567 -0.04170813 -0.04169305 -0.04168025 -0.04166955 -0.04166 -0.04165151
 -0.04164349 -0.04163577 -0.04162797 -0.04161942 -0.04160905 -0.04159657 -0.04158091 -0.0415634 -0.04154428 -0.0415256
 -0.0415085 -0.04149335 -0.04148086 -0.04146913 -0.04145814 -0.04144475 -0.04142854 -0.04140754 -0.04138149 -0.04135126
 -0.04131697 -0.04128131 -0.04124438 -0.04120825 -0.04117284 -0.041139 -0.04110656 -0.04107571 -0.04104585 -0.04101615
 -0.0409855 -0.04095187 -0.04091511 -0.0408739 -0.04082979 -0.04078331 -0.04073596 -0.04068852 -0.04064194 -0.04059665
 -0.04055313 -0.04051171 -0.04047155 -0.04043283 -0.04039243 -0.04035014 -0.04030362 -0.04025281 -0.04019763 -0.04013824
 -0.04007581 -0.04001042 -0.03994298 -0.03987366 -0.03980345 -0.03973234 -0.03966087 -0.03958872 -0.0395154 -0.0394414
 -0.03936674 -0.03929264 -0.03922021 -0.03914909 -0.03907967 -0.03901035 -0.03894048 -0.03887024 -0.03879945 -0.03872919
 -0.03865983 -0.03858943 -0.03851797 -0.03844132 -0.03835935 -0.0382704 -0.0381747 -0.03807388 -0.03796797 -0.0378582
 -0.03774384 -0.03762316 -0.03749576 -0.03735926 -0.03721547 -0.03706522 -0.03691215 -0.03676045 -0.03661149 -0.03646863
 -0.03632784 -0.0361886 -0.03604538 -0.03589582 -0.03573903 -0.03557405 -0.03540357 -0.03522801 -0.03504796 -0.03486364
 -0.03467207 -0.03447305 -0.03426184 -0.03403825 -0.03379844 -0.03354309 -0.03327329 -0.0329904 -0.03269965 -0.03240076
 -0.03209647 -0.03178382 -0.03145987 -0.03112176 -0.03076546 -0.03038972 -0.02999339 -0.02957293 -0.02912834 -0.02864958
 -0.0281356 -0.02756918 -0.02694812 -0.02625087 -0.02547459 -0.02460197 -0.02363137 -0.02255282 -0.02136554 -0.02005118
 -0.01860783 -0.01700546 -0.01524899 -0.01333806 -0.0112972 -0.009195157 -0.007069659 -0.005029216 -0.00310773 -0.001399004
 7.493173E-05 0.001250942 0.002143452 0.002726713 0.003078008 0.00321518 0.003245886 0.003204858 0.003180038 0.003196619
 0.003304065 0.003514342 0.003837273 0.004275562 0.00481546 0.005456236 0.006180511 0.006986016 0.007845921 0.00875378
 0.009661799 0.01056551 0.01142272 0.01223916 0.01300497 0.01373159 0.01443065 0.01511439 0.01579613 0.01649529
 0.01722291 0.01801493 0.01888559 0.01988206 0.02102377 0.02233717 0.02383933 0.02549647 0.02731331 0.02919778
 0.03114422 0.03305334 0.03492009 0.036687 0.03835647 0.03993201 0.04142388 0.04288664 0.04433095 0.04582556
 0.04736319 0.04896874 0.05061226 0.0522556 0.05388446 0.05546053 0.05700655 0.05852526 0.06004418 0.0615813
 0.06314039 0.06472785 0.06633616 0.067963 0.06961263 0.07128555 0.07298444 0.07471045 0.07644993 0.07820219
 0.07995467 0.08170606 0.08344167 0.08515414 0.08679641 0.08835894 0.08978111 0.09106613 0.09218897 0.09316293
 0.09399777 0.09470485 0.0952977 0.0957912 0.09619634 0.09653702 0.0968279 0.09708508 0.09732002 0.09752819
 0.09771331 0.09785379 0.09794939 0.097965 0.0978994 0.09769749 0.09735619 0.0968089 0.09605526 0.09506745
 0.09385654 0.09247176 0.09092383 0.08928076 0.08753487 0.08570316 0.0837715 0.08171926 0.07955195 0.07725729
 0.07487557 0.07242653 0.06996447 0.06752588 0.06513266 0.06280459 0.06052977 0.05830507 0.05613917 0.05402775
 0.05202179 0.05012578 0.04837682 0.04677721 0.04531508 0.04398923 0.04277923 0.04168739 0.04071813 0.03987326
 0.03916404 0.03858494 0.03812962 0.03778971 0.0375488 0.0374012 0.03733496 0.0373451 0.03742485 0.03756873
 0.03777184 0.03803215 0.03834707 0.03871969 0.03914994 0.03964248 0.04019804 0.04081995 0.0415089 0.04226337
 0.04308333 0.04395966 0.04489177 0.04586891 0.04689164 0.0479585 0.04906955 0.05022756 0.05142493 0.05264714
 0.05388138 0.05509651 0.05629371 0.05745824 0.05860696 0.05975126 0.06089525 0.06205004 0.0631938 0.06432079
 0.06541408 0.06646379 0.06748587 0.06847969 0.06947438 0.07047477 0.07147598 0.07247838 0.07342929 0.07432624
 0.07512262 0.07582016 0.07640821 0.07688741 0.07725553 0.07750899 0.07763746 0.0776385 0.07750344 0.07723095
 0.07681847 0.07625802 0.07554007 0.07466652 0.07362422 0.07246061 0.07118491 0.06985918 0.06850629 0.06713697
 0.06575906 0.06435189 0.0629127 0.06144314 0.05994283 0.05843684 0.05692615 0.05542839 0.05394345 0.05247768
 0.05103344 0.04962343 0.04825006 0.04693031 0.04565416 0.04441918 0.04319591 0.04195122 0.0406529 0.03925867
 0.03776446 0.03614959 0.03444353 0.03265207 0.03080347 0.02890617 0.02697637 0.02501079 0.02307115 0.02115849
 0.01938638 0.0177628 0.016329 0.01508095 0.01394388 0.012909 0.01187745 0.01085171 0.00978593 0.008694718
 0.007592001 0.006491664 0.005424642 0.004399142 0.00343447 0.002543531 0.001740325 0.001043781 0.0004684117 2.673536E-05
 -0.0002725655 -0.0004254773 -0.0004313262 -0.0002792425 2.768005E-05 0.0005308737 0.001227908 0.00222403 0.003523936 0.005301106
 0.007560344 0.01040982 0.01381034 0.0175589 0.02155865 0.02530363 0.0287307 0.0313892 0.03332946 0.03440222
 0.03476805 0.03454698 0.03393789 0.03315756 0.03232468 0.03158732 0.03093422 0.03040694 0.02991961 0.02945638
 0.02894971 0.02837887 0.02774464 0.02704146 0.02631363 0.0255633 0.02484047 0.02414707 0.02351643 0.02294671
 0.02244152 0.02199535 0.02158847 0.02121429 0.02084577 0.0204771 0.02008395 0.01966671 0.01921218 0.01873448
 0.01823714 0.01774682 0.01727686 0.01685971 0.01650806 0.01625885 0.01612311 0.01613344 0.01629884 0.01663049
 0.01713216 0.01779346 0.01861427 0.01957596 0.02067686 0.02188576 0.02319745 0.02455784 0.02596078 0.02734968
 0.02872425 0.03005503 0.03134364 0.032583 0.03376538 0.03488256 0.03591398 0.03684175 0.03763949 0.03828744
 0.03876304 0.03905119 0.03914287 0.03902923 0.03872359 0.0382233 0.0375647 0.03674925 0.03582932 0.03480799
 0.03374422 0.03264097 0.0315495 0.03047044 0.02943219 0.02843302 0.02747976 0.0265724 0.0257135 0.02490637
 0.02416046 0.02347356 0.02285291 0.02227674 0.02173452 0.02118574 0.02060248 0.01995404 0.01921248 0.01839432
 0.01748941 0.01656356 0.01562547 0.0147412 0.01392292 0.01318462 0.01252978 0.01192227 0.01136026 0.01080582
 0.01026085 0.009724439 0.009202765 0.008724784 0.00829242 0.007928967 0.007626767 0.007383123 0.007186643 0.007019885
 0.006876792 0.006744118 0.006623607 0.006512336 0.006413957 0.006330742 0.006260093 0.006203019 0.006150429 0.006100758
 0.006046685 0.005986499 0.005921178 0.005850326 0.005783082 0.005720067 0.005675543 0.005650225 0.005657476 0.005695789
 0.005766942 0.005865216 0.005975472 0.006090711 0.006188255 0.006267473 0.006314836 0.006341155 0.00634899 0.006357793
 0.006380032 0.00643364 0.006531093 0.006677695 0.006880512 0.007126585 0.007417148 0.007724212 0.008045593 0.008348818
 0.008631251 0.008868181 0.009058594 0.00919398 0.00927571 0.009312501 0.009307384 0.009279164 0.009230807 0.009180999
 0.009131487 0.009094618 0.009071292 0.009067902 0.009084729 0.009124768 0.009186374 0.009270585 0.009371385 0.009487667
 0.009609176 0.009732827 0.009849697 0.009956575 0.01005303 0.01013771 0.0102194 0.0102985 0.01038618 0.01048298
 0.01059489 0.01072146 0.01086074 0.01101131 0.01116534 0.01132138 0.0114706 0.01161264 0.01174235 0.01186037
 0.01196557 0.01205825 0.01213823 0.01220589 0.01226048 0.01230562 0.01234142 0.01237628 0.01241208 0.01245883
 0.01251921 0.01259874 0.0126991 0.01281832 0.01295656 0.01310791 0.01327212 0.01344625 0.01363047 0.013826
 0.01403221 0.01424764 0.01446916 0.01468692 0.01489569 0.01507977 0.01523459 0.01534622 0.01541323 0.01542818
 0.01539394 0.01530923 0.0151808 0.01501045 0.01480758 0.01457445 0.01432295 0.01405493 0.0137852 0.01351571
 0.0132601 0.01302002 0.01279977 0.01259953 0.01240976 0.0122291 0.01203926 0.01183901 0.01161173 0.0113581
 0.01107054 0.01075268 0.01040768 0.01004169 0.009664516 0.009283345 0.008908561 0.008547546 0.008207811 0.007897257
 0.007621591 0.00738587 0.007194737 0.007042773 0.0069321 0.006842805 0.0067736 0.006698364 0.006614559 0.006505171
 0.006369267 0.006206955 0.006019394 0.005819897 0.005610483 0.005408994 0.005216934 0.005048996 0.004905157 0.004793316
 0.004710844 0.004658111 0.004629649 0.004620677 0.004623836 0.00463257 0.004640626 0.00464259 0.004637161 0.004621492
 0.00460138 0.00457662 0.004558044 0.0045469 0.004553822 0.004580065 0.004630602 0.004705747 0.004801398 0.004916505
 0.005037318 0.005161752 0.005270761 0.005362937 0.005422327 0.005450841 0.005443586 0.005406606 0.005346338 0.005270721
 0.00519095 0.005112578 0.005043951 0.004985847 0.004941412 0.004907721 0.004884671 0.004868448 0.004858058 0.004851219
 0.004847247 0.004846259 0.004848 0.004855673 0.004869439 0.004894121 0.004929926 0.004980722 0.00504646 0.005128545
 0.00522732 0.005344172 0.005480814 0.005641729 0.005828999 0.006048526 0.00630012 0.006586843 0.00690482 0.007253083
 0.007624818 0.008017571 0.008421183 0.008832981 0.009239206 0.00963652 0.01001282 0.01036482 0.01069165 0.01099213
 0.01127745 0.01154819 0.01181551 0.01207928 0.01233959 0.01259521 0.01283822 0.01306847 0.01328084 0.01347674
 0.01365715 0.01382316 0.0139773 0.01411936 0.01424999 0.01436905 0.01447629 0.01457273 0.01465844 0.01473576
 0.01480533 0.01486995 0.01493053 0.01498839 0.01504416 0.01509639 0.01514501 0.01518867 0.01522723 0.01526431
 0.01530036 0.01534332 0.01539327 0.01545537 0.01552805 0.01560846 0.01569442 0.01577872 0.01586081 0.01593647
 0.01600578 0.01606848 0.01612083 0.01616182 0.01618154 0.01617542 0.01613195 0.01604532 0.01591001 0.01572218
 0.01548634 0.01520124 0.01488138 0.01452721 0.0141609 0.01378378 0.01341754 0.01306268 0.0127291 0.01241521
 0.01211532 0.01182719 0.01153866 0.01124978 0.0109538 0.01065339 0.01034995 0.01004647 0.009747206 0.009454055
 0.009169936 0.008896044 0.008633485 0.008384092 0.008148432 0.007929371 0.007727848 0.007545416 0.007383006 0.007237795
 0.007110076 0.006991628 0.006882028 0.006770843 0.006657686 0.006535503 0.00640469 0.006264405 0.006115634 0.005962082
 0.005803929 0.005643957 0.005480821 0.005313483 0.005140445 0.004958941 0.0047695 0.004571041 0.004366307 0.004156292
 0.003944216 0.003730953 0.003521301 0.003316002 0.003122125 0.002941096 0.002777505 0.002632694 0.002501822 0.00238488
 0.002268316 0.002151391 0.002020451 0.001875376 0.001708752 0.001521174 0.001310812 0.001078832 0.0008269442 0.0005571049
 0.000273425 -2.206397E-05 -0.0003250649 -0.0006345898 -0.0009482895 -0.001265983 -0.001587708 -0.001910691 -0.002235021 -0.002553563
 -0.002865298 -0.003160276 -0.003436639 -0.0036868 -0.0039093 -0.004103248 -0.00426821 -0.004413484 -0.004540077 -0.004668084
 -0.004799692 -0.004960996 -0.005153204 -0.005396752 -0.005688624 -0.006033166 -0.006421887 -0.00684284 -0.007284264 -0.007726915
 -0.008160328 -0.008568168 -0.008945934 -0.009284587 -0.009589239 -0.009857939 -0.0101042 -0.01033029 -0.01055212 -0.01077285
 -0.01100417 -0.01124821 -0.01150823 -0.01178493 -0.01207019 -0.01236317 -0.01264524 -0.01291471 -0.01314948 -0.01334892
 -0.01349748 -0.01359751 -0.01364557 -0.01364898 -0.01361726 -0.01356396 -0.01350902 -0.01346794 -0.01346269 -0.01349982
 -0.01359336 -0.0137317 -0.01391655 -0.01412322 -0.01434596 -0.01456176 -0.0147648 -0.01494383 -0.01509618 -0.01522211
 -0.01532129 -0.01540004 -0.01545874 -0.01550486 -0.01553872 -0.01556636 -0.01558792 -0.01560708 -0.01562412 -0.0156418
 -0.01566023 -0.01568143 -0.01570407 -0.01572799 -0.01574943 -0.01576544 -0.01577117 -0.01576235 -0.01573719 -0.01569296
 -0.01563306 -0.01555728 -0.01547203 -0.0153784 -0.01528175 -0.01518281 -0.01508544 -0.01498991 -0.01490044 -0.0148173
 -0.01474564 -0.01468525 -0.01463752 -0.01460021 -0.01456447 -0.01452621 -0.01446801 -0.01438899 -0.01427607 -0.01413814
 -0.01397904 -0.01381582 -0.01366567 -0.01354254 -0.01346269 -0.01342641 -0.01344026 -0.01349141 -0.01357878 -0.01368464
 -0.01380595 -0.01392602 -0.01404246 -0.01414283 -0.01422578 -0.01428773 -0.01432875 -0.01435674 -0.01437288 -0.01439159
 -0.01441322 -0.014448 -0.0144934 -0.01454796 -0.01460721 -0.01466129 -0.01470706 -0.01473542 -0.01474641 -0.01473631
 -0.01470755 -0.01466027 -0.01459795 -0.01452161 -0.01443605 -0.01434268 -0.01424629 -0.01414859 -0.01404961 -0.01395009
 -0.01384439 -0.01373215 -0.01360826 -0.01347263 -0.01332959 -0.01318021 -0.01303673 -0.01289944 -0.01277696 -0.01266715
 -0.01256772 -0.01247682 -0.01238799 -0.01230427 -0.01222628 -0.01216009 -0.01211284 -0.01208618 -0.0120849 -0.01210382
 -0.01214178 -0.01219407 -0.01225796 -0.01233529 -0.01242571 -0.01253319 -0.01265882 -0.0128002 -0.01295762 -0.0131212
 -0.01329037 -0.01345289 -0.01360798 -0.01374349 -0.01385821 -0.01393924 -0.01398623 -0.01398961 -0.01395345 -0.01387968
 -0.01377762 -0.0136616 -0.01353935 -0.01342576 -0.01331958 -0.01322607 -0.0131368 -0.01304877 -0.01295637 -0.01285616
 -0.01274971 -0.01263648 -0.01252025 -0.01240164 -0.01228172 -0.01216065 -0.01203872 -0.01191597 -0.01179417 -0.01167342
 -0.01155557 -0.01144028 -0.01132712 -0.01121489 -0.0110999 -0.01098013 -0.01084954 -0.01070635 -0.01054415 -0.01036541
 -0.01016782 -0.009961782 -0.00975208 -0.009553495 -0.009375253 -0.009224064 -0.009106827 -0.009013559 -0.008945016 -0.008881639
 -0.008820738 -0.008748161 -0.008662042 -0.008559941 -0.0084417 -0.008311045 -0.008168038 -0.008014524 -0.007850133 -0.007673398
 -0.007484643 -0.007283422 -0.007072008 -0.006854925 -0.006634939 -0.006419127 -0.006206804 -0.006001617 -0.005796812 -0.005589989
 -0.005370846 -0.005133592 -0.004871302 -0.004579096 -0.004259109 -0.0039092 -0.00354246 -0.003159595 -0.002778298 -0.002400216
 -0.002038138 -0.001692789 -0.001366242 -0.001057707 -0.0007588869 -0.0004676027 -0.0001678825 0.0001430039 0.0004827912 0.0008530873
 0.001265888 0.001722521 0.00222865 0.002789511 0.003412392 0.004102779 0.004872268 0.005706208 0.006611643 0.007531369
 0.008458253 0.009298103 0.01003125 0.01057076 0.01089627 0.01098622 0.01083128 0.0105024 0.01000305 0.009461127
 0.008882745 0.008380426 0.007951829 0.007643719 0.007444361 0.007338642 0.007314156 0.007333774 0.007392347 0.007465341
 0.00755147 0.007643093 0.007731257 0.007810791 0.007861584 0.007872404 0.007826949 0.007713128 0.007538847 0.007299491
 0.007028299 0.006728258 0.006436406 0.006156852 0.005911055 0.005700475 0.005530041 0.005399365 0.005304486 0.005244052
 0.005208589 0.005195898 0.005193065 0.005198573 0.005202107 0.00520389 0.00519972 0.005190369 0.005175707 0.0051547
 0.005127529 0.005089876 0.005039972 0.004972656 0.004883655 0.004778353 0.004653463 0.004535903 0.004429488 0.004355412
 0.004318317 0.004301704 0.004304964 0.004300013 0.004286303 0.004251394 0.004196733 0.004125163 0.004038196 0.003943024
 0.00383989 0.003732571 0.003621685 0.003509159 0.003397634 0.003290609 0.00319108 0.003102699 0.003026936 0.0029663
 0.002918568 0.002884507 0.002857395 0.002835903 0.002813692 0.002788707 0.002763007 0.002736058 0.002717577 0.002708208
 0.002709739 0.002720955 0.002722975 0.002712533 0.002658027 0.002558751 0.002392955 0.002166778 0.001881549 0.001551019
 0.001196885 0.0008367017 0.0004999056 0.0001982003 -4.636386E-05 -0.0002375679 -0.0003683826 -0.0004567276 -0.0005070927 -0.0005369461
 -0.000552731 -0.0005596588 -0.0005603624 -0.0005506165 -0.0005301322 -0.0004966481 -0.0004499394 -0.000393037 -0.000325838 -0.0002474191
 -0.0001563157 -4.153001E-05 9.764448E-05 0.0002718741 0.0004765283 0.0007067418 0.00095392 0.001199714 0.001440782 0.001663257
 0.001874087 0.002074567 0.002271071 0.00247097 0.002665919 0.002856209 0.003026054 0.003169184 0.003285789 0.003372265
 0.003450265 0.00352126 0.003608013 0.003712324 0.003839008 0.003987381 0.004143775 0.004306122 0.004453062 0.004583777
 0.004682051 0.004751614 0.004792132 0.004812103 0.004826159 0.004842107 0.004876581 0.004931022 0.005013581 0.005119237
 0.005248974 0.005391887 0.005545737 0.005694311 0.005832985 0.005949363 0.006038434 0.006107402 0.006155132 0.006204744
 0.006257796 0.006328318 0.006416053 0.006512352 0.00661583 0.006711315 0.006800021 0.006879129 0.006950493 0.007019187
 0.007082704 0.00713966 0.007184978 0.007210495 0.007215878 0.007195767 0.007158416 0.007105849 0.007050067 0.006997196
 0.00695242 0.00692106 0.006891569 0.006865195 0.006814632 0.006737294 0.006608049 0.006424488 0.006185958 0.005893536
 0.005573919 0.005229665 0.004893892 0.004565633 0.004259685 0.00397062 0.003691077 0.003416387 0.003132087 0.002841788
 0.002541482 0.002243946 0.00195916 0.001697505 0.00147075 0.001275579 0.001114851 0.0009777597 0.0008609759 0.0007606206
 0.0006749789 0.0006058105 0.0005538512 0.0005133022 0.0004841243 0.0004509051 0.0004133986</values></Ydata></AB><ScSm><Ydata ylabel="Single channel"><values byteorder="INTEL" format="FLOAT32" numvalues="1814"> 0.08285232 0.08295626 0.0830768 0.08322005 0.08337893 0.08353908 0.0836864 0.08381458 0.08392619 0.08402553
 0.08411723 0.08421475 0.08433819 0.08449431 0.08466496 0.08481999 0.08494008 0.08503272 0.08512993 0.08525933
 0.08540727 0.08551839 0.08554423 0.08549477 0.08543616 0.08543231 0.08550048 0.08564126 0.08587983 0.08620653
 0.08648746 0.08654886 0.08639372 0.08623596 0.08626339 0.08644992 0.08664171 0.08672874 0.08668716 0.08656673
 0.08651716 0.08674192 0.08731292 0.0880181 0.08842657 0.08813735 0.08704703 0.08549735 0.08419529 0.08384268
 0.08462792 0.08601487 0.08714461 0.08752848 0.08731218 0.08690691 0.08656055 0.08635309 0.0863886 0.08677739
 0.08745757 0.08812336 0.08834459 0.0878491 0.08682868 0.08590582 0.0856254 0.08603158 0.08685733 0.08784992
 0.08852915 0.08794425 0.08551528 0.0823118 0.08072042 0.08223884 0.08590777 0.08930919 0.09076868 0.09024087
 0.08860873 0.08690514 0.08604129 0.08649383 0.08799304 0.08979078 0.09125546 0.09204091 0.09192846 0.09092896
 0.08948961 0.08830414 0.08792657 0.08861155 0.09021242 0.09202437 0.09306481 0.09284712 0.09174569 0.0905101
 0.08971287 0.08972205 0.09072983 0.09252428 0.0945078 0.09613876 0.09721477 0.09775471 0.09786445 0.09771359
 0.0974526 0.09719223 0.0971176 0.09739253 0.09783517 0.09795745 0.09750932 0.09681904 0.09646118 0.09666581
 0.09712291 0.09735591 0.09719189 0.09667386 0.0955795 0.09353058 0.09077276 0.0882951 0.08686627 0.08649746
 0.08707008 0.08865971 0.09077532 0.09213214 0.09194668 0.09099686 0.09078138 0.09190048 0.09368327 0.0951645
 0.09602056 0.09661566 0.09743229 0.09852598 0.09939127 0.09933382 0.09817763 0.09670608 0.09614314 0.09697071
 0.09845987 0.09956838 0.1000372 0.1003573 0.1009028 0.1013871 0.1011121 0.09971622 0.09779957 0.09671302
 0.0974447 0.09964247 0.1017984 0.1023878 0.1009517 0.09834483 0.09601995 0.0949838 0.09540386 0.09702254
 0.09951719 0.1023459 0.1046621 0.1057435 0.1054918 0.1044124 0.1030645 0.10154 0.09966168 0.0977951
 0.09706512 0.09830324 0.1009784 0.1036192 0.1051735 0.1055927 0.1052322 0.1041377 0.1021413 0.09959909
 0.09771976 0.09766842 0.09924056 0.100915 0.1014722 0.1011337 0.1008674 0.1010639 0.1013265 0.1012818
 0.1011347 0.1013731 0.1021453 0.1030728 0.1036535 0.103724 0.1034924 0.1032433 0.1030671 0.1028081
 0.1023029 0.1017471 0.1016806 0.1024217 0.1036403 0.1046894 0.1052411 0.1054178 0.1054046 0.1051354
 0.1044113 0.1032983 0.1023186 0.1020825 0.1026947 0.1036751 0.1044679 0.1048555 0.1049031 0.1047477
 0.1045056 0.1042422 0.1039903 0.1038313 0.1038789 0.1041261 0.1044033 0.1045478 0.104537 0.104424
 0.1042294 0.1039454 0.1036073 0.1033135 0.1031639 0.1031794 0.1032991 0.103444 0.1035518 0.1035645
 0.1034471 0.1032324 0.1029996 0.1028005 0.1026405 0.1025223 0.1024661 0.1024737 0.1025056 0.1025104
 0.1024665 0.1023848 0.102278 0.1021484 0.1020026 0.1018622 0.1017555 0.1017016 0.1016928 0.1016949
 0.1016815 0.1016645 0.1016635 0.1016564 0.1015966 0.1014771 0.1013423 0.1012398 0.1011837 0.1011585
 0.1011357 0.1010824 0.1009714 0.1008003 0.100613 0.1004848 0.1004672 0.1005495 0.100683 0.1008223
 0.1009314 0.1009851 0.1009896 0.1009789 0.1009749 0.1009661 0.1009341 0.1008872 0.100861 0.100891
 0.1009774 0.1010808 0.1011578 0.1011934 0.1011964 0.1011867 0.101193 0.1012313 0.1012754 0.1012789
 0.1012355 0.1011927 0.1011943 0.1012315 0.1012592 0.1012466 0.1012054 0.1011704 0.1011608 0.1011661
 0.1011664 0.1011575 0.1011498 0.1011491 0.1011388 0.101087 0.1009792 0.1008418 0.1007186 0.1006264
 0.1005497 0.100475 0.1004072 0.1003493 0.1002853 0.1001928 0.1000674 0.09992812 0.09979498 0.09966515
 0.09951738 0.09933937 0.09914187 0.09894446 0.09875635 0.09857324 0.09838562 0.09818646 0.09797359 0.09774692
 0.09750616 0.09725288 0.09699203 0.09673122 0.09648296 0.09626381 0.09607725 0.0958962 0.09567805 0.09540601
 0.09510785 0.09482832 0.09458946 0.0943811 0.09418271 0.09398672 0.09380192 0.09364089 0.0935088 0.09340329
 0.09332003 0.09325674 0.09321736 0.09321477 0.0932616 0.09335176 0.09345634 0.09354677 0.09361997 0.09369493
 0.09378932 0.09390686 0.09404201 0.0941871 0.09433708 0.0944923 0.09465291 0.09480871 0.0949441 0.09505702
 0.09516394 0.09528361 0.09542437 0.09558605 0.09575936 0.09592226 0.09605388 0.09615854 0.09626471 0.09639538
 0.0965489 0.09671145 0.09687772 0.09705208 0.09723707 0.09743067 0.09763402 0.09785496 0.09810013 0.09836541
 0.09863704 0.09890275 0.0991621 0.09942714 0.09971336 0.1000282 0.1003656 0.10071 0.1010486 0.1013804
 0.101714 0.1020558 0.1024043 0.1027579 0.1031226 0.1035066 0.1039074 0.1043131 0.1047148 0.1051119
 0.1055076 0.1059036 0.1062998 0.1066978 0.1071027 0.1075208 0.1079497 0.1083715 0.1087657 0.1091302
 0.1094846 0.1098507 0.1102355 0.110629 0.1110119 0.1113677 0.111697 0.1120193 0.1123526 0.1126926
 0.1130218 0.1133373 0.1136575 0.113997 0.1143425 0.1146607 0.1149308 0.1151653 0.1153952 0.1156348
 0.1158687 0.1160739 0.1162492 0.1164155 0.1165905 0.1167746 0.1169632 0.1171593 0.1173658 0.1175714
 0.117758 0.1179215 0.1180737 0.1182249 0.1183732 0.1185114 0.1186379 0.1187583 0.1188822 0.1190149
 0.1191525 0.1192914 0.1194419 0.1196228 0.1198394 0.1200803 0.1203367 0.1206128 0.1209109 0.1212187
 0.1215221 0.1218254 0.1221442 0.1224769 0.1227949 0.1230707 0.1233049 0.1235162 0.1237157 0.1239061
 0.1240977 0.1243061 0.124529 0.1247377 0.1248958 0.1249818 0.1250023 0.1249894 0.1249803 0.1249928
 0.125027 0.1250937 0.1252297 0.1254772 0.1258502 0.1263209 0.1268323 0.1273207 0.1277336 0.1280337
 0.1281945 0.1282007 0.1280572 0.1277874 0.1274094 0.1269141 0.1262713 0.1254544 0.1244518 0.1232537
 0.1218413 0.1202012 0.1183557 0.1163839 0.1144164 0.1126048 0.111087 0.1099689 0.1093231 0.1091775
 0.1094798 0.1100651 0.1106707 0.111004 0.1108283 0.1100227 0.1085976 0.1066662 0.1043921 0.1019403
 0.09945144 0.09703486 0.09477507 0.09275464 0.09108841 0.08993693 0.08947918 0.08986843 0.09120312 0.09349875
 0.09663787 0.1003382 0.1042101 0.1078965 0.1111912 0.1140536 0.1165429 0.1187487 0.1207547 0.122623
 0.1243876 0.1260572 0.127627 0.1290848 0.130408 0.1315609 0.1324957 0.1331596 0.1335092 0.1335334
 0.1332732 0.1328276 0.1323313 0.1318926 0.1315127 0.1310483 0.1302717 0.128996 0.1271753 0.1249261
 0.1224941 0.1202265 0.1185755 0.1180799 0.1192259 0.1221841 0.1266178 0.1317747 0.1368334 0.1412318
 0.1447674 0.1474995 0.1496055 0.1512762 0.1526605 0.1538535 0.1549109 0.1558671 0.1567453 0.1575606
 0.1583228 0.1590386 0.1597147 0.1603591 0.1609775 0.1615714 0.1621416 0.1626947 0.1632425 0.1637947
 0.1643522 0.1649057 0.1654461 0.1659738 0.1664955 0.1670128 0.1675205 0.1680157 0.1685032 0.1689898
 0.1694798 0.1699733 0.1704635 0.1709375 0.1713845 0.1718053 0.1722114 0.1726142 0.1730179 0.1734201
 0.1738166 0.1742045 0.174584 0.1749571 0.1753261 0.1756916 0.1760509 0.176401 0.1767422 0.1770778
 0.1774107 0.1777397 0.1780616 0.1783761 0.1786884 0.1790078 0.1793437 0.1796987 0.1800652 0.1804294
 0.1807821 0.1811236 0.1814603 0.1817981 0.1821394 0.1824832 0.1828265 0.1831655 0.1834979 0.1838249
 0.184149 0.1844709 0.1847887 0.1851016 0.1854096 0.1857118 0.1860054 0.1862918 0.1865777 0.1868711
 0.1871744 0.1874834 0.1877909 0.1880911 0.188383 0.1886687 0.1889512 0.1892349 0.1895239 0.1898195
 0.1901182 0.1904164 0.1907146 0.1910142 0.1913144 0.1916117 0.1919039 0.1921917 0.1924779 0.1927653
 0.1930536 0.1933412 0.1936274 0.1939128 0.1941976 0.1944822 0.1947672 0.1950542 0.1953444 0.1956381
 0.1959342 0.1962306 0.1965257 0.1968185 0.1971088 0.1973982 0.1976896 0.1979825 0.1982734 0.1985609
 0.1988474 0.1991366 0.1994302 0.1997281 0.2000284 0.200329 0.2006299 0.2009314 0.2012328 0.2015347
 0.2018386 0.2021429 0.2024421 0.2027341 0.2030237 0.2033173 0.2036165 0.2039174 0.2042146 0.2045073
 0.2047998 0.205095 0.2053896 0.2056789 0.2059639 0.206248 0.2065327 0.2068186 0.2071072 0.2074006
 0.2076988 0.2079986 0.2082941 0.2085831 0.2088699 0.2091601 0.2094541 0.2097506 0.2100491 0.2103488
 0.2106483 0.2109479 0.2112473 0.2115438 0.2118363 0.2121267 0.212416 0.2127038 0.2129913 0.2132797
 0.2135692 0.2138625 0.2141625 0.2144653 0.2147659 0.2150671 0.215375 0.2156901 0.2160097 0.216333
 0.2166584 0.2169835 0.2173099 0.2176397 0.2179723 0.2183077 0.2186469 0.2189868 0.2193234 0.219658
 0.2199938 0.2203305 0.2206701 0.2210158 0.2213649 0.2217124 0.2220591 0.2224077 0.2227562 0.2231029
 0.223449 0.2237928 0.2241338 0.2244761 0.2248206 0.2251625 0.2255034 0.2258504 0.2262035 0.2265567
 0.2269083 0.2272575 0.2276008 0.2279406 0.228285 0.228636 0.2289918 0.2293536 0.2297179 0.2300748
 0.2304221 0.2307649 0.2311025 0.2314337 0.2317666 0.2321059 0.2324452 0.2327808 0.2331133 0.2334338
 0.2337197 0.2339172 0.2338786 0.2332921 0.2316399 0.228207 0.2222232 0.2131736 0.2011114 0.1867419
 0.1712237 0.155806 0.1414924 0.1289072 0.1183783 0.1100745 0.1040998 0.1005737 0.09969284 0.1018245
 0.1076363 0.1177008 0.1310335 0.1438311 0.1509005 0.149595 0.1422152 0.1339221 0.1285341 0.126657
 0.1269913 0.1282575 0.1299509 0.1321975 0.1353112 0.1393365 0.1440026 0.1491709 0.1550949 0.1620322
 0.1697428 0.1775774 0.1850222 0.1920305 0.1988332 0.2055357 0.2119598 0.2178147 0.2229224 0.2272779
 0.2309904 0.2342115 0.2370758 0.2396716 0.2420582 0.2442723 0.2462827 0.2479667 0.2491832 0.2498873
 0.2501832 0.2502736 0.250346 0.2504945 0.2507338 0.2510577 0.251462 0.251937 0.2524719 0.2530586
 0.2536799 0.2543116 0.2549384 0.2555541 0.2561495 0.2567171 0.2572589 0.2577793 0.2582783 0.258754
 0.2592047 0.2596314 0.2600432 0.2604526 0.2608624 0.2612678 0.2616673 0.2620589 0.2624328 0.2627801
 0.2631015 0.2634024 0.263689 0.2639712 0.2642564 0.2645419 0.2648227 0.265099 0.2653711 0.265637
 0.2658975 0.2661566 0.2664161 0.2666762 0.2669356 0.2671907 0.2674386 0.2676833 0.2679319 0.2681866
 0.2684442 0.2687005 0.268952 0.2691985 0.2694424 0.2696847 0.2699278 0.2701818 0.2704568 0.2707482
 0.2710416 0.2713304 0.2716169 0.2719012 0.2721793 0.2724515 0.2727233 0.2730004 0.273286 0.2735758
 0.2738569 0.2741167 0.2743527 0.2745734 0.2747934 0.2750264 0.2752755 0.2755322 0.2757872 0.2760381
 0.2762865 0.2765339 0.2767821 0.2770313 0.2772806 0.2775349 0.2778043 0.2780909 0.2783864 0.2786832
 0.2789807 0.2792801 0.2795821 0.2798881 0.2801964 0.2804995 0.2807916 0.2810786 0.2813756 0.2816979
 0.282047 0.2824052 0.2827486 0.2830704 0.2833842 0.2837087 0.2840537 0.2844087 0.2847382 0.2850085
 0.285235 0.2854862 0.2858208 0.2862329 0.2866656 0.2870693 0.2874339 0.2877755 0.2881075 0.2884261
 0.2887187 0.2889794 0.2892227 0.2894878 0.2898156 0.2902063 0.2906127 0.2909871 0.2913203 0.2916265
 0.2919195 0.2922107 0.292493 0.2927207 0.2928547 0.29295 0.2931485 0.2935439 0.2940784 0.2946036
 0.2950291 0.2953765 0.2957027 0.296024 0.2963273 0.2965861 0.2967258 0.2966599 0.2964488 0.2963592
 0.2966497 0.2973107 0.2980923 0.2987573 0.2992375 0.2995863 0.2998773 0.3001538 0.3004004 0.300541
 0.3005206 0.300427 0.3004809 0.3008342 0.3013993 0.3019469 0.3023509 0.3026597 0.3029624 0.3032849
 0.3035798 0.3037115 0.3035129 0.3030136 0.3025963 0.302752 0.3036063 0.3047758 0.3057503 0.3063468
 0.3067154 0.3069847 0.3070703 0.306833 0.306254 0.3054413 0.3046705 0.3044268 0.305091 0.3064507
 0.3077863 0.3085899 0.3090036 0.3094555 0.3101029 0.310764 0.3112141 0.311389 0.3113489 0.3111452
 0.3107928 0.3104195 0.3103593 0.3109164 0.3120083 0.313185 0.3140544 0.314594 0.3149643 0.3150479
 0.3143332 0.312519 0.3103027 0.3092061 0.3102246 0.3127799 0.3153458 0.3169588 0.3177466 0.318214
 0.3185837 0.3187333 0.3181844 0.3162635 0.3130215 0.3100308 0.3094271 0.311806 0.3155558 0.3184181
 0.3192097 0.3180617 0.315846 0.3137718 0.3129594 0.3138315 0.3159322 0.3183899 0.3204431 0.321651
 0.3219207 0.3214629 0.3207051 0.3201742 0.3201636 0.3202927 0.3197449 0.3183248 0.316833 0.3158317
 0.3146095 0.3123431 0.3099338 0.3094453 0.3115515 0.3145658 0.3164015 0.3167045 0.31647 0.3160305
 0.3142422 0.3099924 0.3042627 0.3000903 0.2999629 0.3033367 0.307179 0.3089411 0.3085619 0.3076037
 0.3070433 0.3062261 0.303823 0.2996861 0.2955574 0.2934667 0.2934036 0.2932542 0.2911062 0.2866474
 0.2802404 0.2723629 0.2649376 0.2615264 0.26428 0.2712395 0.277975 0.2812659 0.2801018 0.2744718
 0.2656245 0.2572715 0.2539142 0.2567632 0.2624086 0.2661643 0.2657716 0.261493 0.2541943 0.2449325
 0.2359433 0.2303805 0.2302944 0.2350047 0.2412711 0.2447381 0.2421627 0.2340024 0.225041 0.2207773
 0.222262 0.2254279 0.2258782 0.2230093 0.2190783 0.2161012 0.2147238 0.2146528 0.2149983 0.214965
 0.2144752 0.2130566 0.2086922 0.2001235 0.1903243 0.1849255 0.1863804 0.1919641 0.1981187 0.2039981
 0.209492 0.2126851 0.2119705 0.2093979 0.2093797 0.2140089 0.2210649 0.2268001 0.2297054 0.2311081
 0.2326687 0.2342872 0.2350469 0.2355849 0.2380879 0.2435296 0.2500947 0.2551153 0.2577143 0.2588065
 0.259339 0.2594995 0.2591951 0.2584334 0.2572862 0.255904 0.2544935 0.2531029 0.2515974 0.2499179
 0.2480186 0.2453258 0.2407896 0.2342782 0.2277586 0.2239535 0.2235107 0.2246021 0.2255458 0.2260439
 0.225063 0.2199223 0.2098332 0.1990727 0.1940362 0.1970681 0.2046296 0.2113057 0.2141015 0.2127835
 0.2080094 0.20103 0.1950097 0.1944982 0.2019125 0.2149877 0.2287991 0.2399061 0.2476335 0.2521686
 0.2532787 0.2513283 0.2484249 0.2476127 0.2508188 0.2576159 0.2655716 0.2713153 0.2719728 0.267566
 0.2627194 0.2638246 0.2725525 0.2835094 0.2901839 0.2918283 0.2924194 0.2944477 0.2967878 0.2981903
 0.2997416 0.3029188 0.3070534 0.3098315 0.3093088 0.3046691 0.2961553 0.285637 0.2765272 0.2714034
 0.2697485 0.2692139 0.2684089 0.2668099 0.2631528 0.2569258 0.251191 0.250708 0.2564517 0.2642732
 0.2696867 0.2720668 0.2733973 0.2745688 0.2742793 0.2712435 0.2665643 0.2632651 0.263339 0.2658454
 0.2683558 0.2694922 0.2691697 0.26718 0.2632005 0.2583182 0.2551364 0.255519 0.2586819 0.2620343
 0.2636256 0.2633786 0.2623231 0.2613693 0.2608511 0.2606498 0.2605711 0.2609039 0.2624823 0.2657069
 0.269665 0.2728845 0.2749664 0.2768759 0.2795453 0.2827287 0.2854269 0.2870699 0.2880481 0.2892553
 0.2912686 0.2938704 0.2962203 0.2975502 0.2978837 0.2981116 0.29921 0.3013241 0.3037319 0.3056634
 0.306944 0.3078628 0.3087232 0.3096027 0.3103223 0.3105956 0.3104158 0.3102988 0.3108919 0.3122839
 0.3138911 0.3150633 0.3156279 0.3158064 0.3157921 0.3155529 0.3149869 0.314139 0.3132244 0.312474
 0.311993 0.3117547 0.3116767 0.3116801 0.3117123 0.3117581 0.3118281 0.3119215 0.3120122 0.3120803
 0.3121318 0.3121727 0.312192 0.312184 0.3121594 0.3121106 0.3119866 0.3117238 0.3112845 0.3106499
 0.3097941 0.3086878 0.3073131 0.3056464 0.3036464 0.3013436 0.2990135 0.2972338 0.2966437 0.2975266
 0.2995791 0.3020874 0.3043517 0.3060057 0.3070449 0.3076538 0.3080305 0.3083099 0.3085592 0.3087917
 0.3089827 0.3090957 0.3091097 0.3090379 0.3089312 0.3088612 0.3088877 0.3090293 0.3092567 0.3095059
 0.3097003 0.309772 0.3096754 0.3093953 0.3089515 0.3083916 0.3077627 0.3070874 0.3063714 0.3056264
 0.3048725 0.3041196 0.3033535 0.3025458 0.3016782 0.3007466 0.2997279 0.2985607 0.2972081 0.295758
 0.2944077 0.2932984 0.2923877 0.2915136 0.2905586 0.2895124 0.2884107 0.2872701 0.2860852 0.2848493
 0.2835589 0.2822073 0.2807788 0.2792511 0.2776074 0.2758476 0.2739833 0.2720274 0.2699951 0.2678992
 0.265721 0.263379 0.2607344 0.2576342 0.2539607 0.2496609 0.2447549 0.2393321 0.2335441 0.2275849
 0.2216599 0.2159562 0.2106328 0.2058258 0.2016536 0.1982111 0.1955599 0.193728 0.1927224 0.1925422
 0.1931799 0.1946071 0.1967572 0.1995129 0.2027096 0.2061541 0.2096504 0.2130246 0.2161574 0.219018
 0.2216605 0.2241639 0.2265662 0.2288555 0.2310082 0.233013 0.2348547 0.2364979 0.237906 0.23908
 0.2400708 0.2409495 0.2417648 0.242524 0.2432064 0.2437922 0.2442831 0.2447002 0.2450681 0.2454044
 0.2457256 0.2460565 0.2464291 0.2468723 0.2474029 0.2480245 0.2487356 0.2495334 0.25041 0.2513501
 0.2523408 0.2533833 0.2544934 0.2556939 0.2570101 0.2584665 0.2600795 0.2618443 0.2637201 0.2656225
 0.267437 0.2690525 0.2703949 0.271441 0.2722085 0.2727281 0.2730197 0.2730878 0.2729374 0.2725899
 0.2720932 0.2715206 0.2709523 0.2704411 0.2699859 0.26954 0.2690473 0.2684762 0.2678292 0.2671288
 0.2664071 0.2657034 0.2650529 0.2644656 0.2639161 0.2633596 0.2627549 0.2620796 0.2613392 0.260569
 0.2598238 0.2591519 0.2585569 0.2579767 0.2573081 0.256465 0.2554105 0.2541441 0.2526804 0.2510441
 0.2492653 0.2473694 0.2453748 0.2432941 0.2411313 0.2388774 0.2365126 0.2340206 0.2314204 0.2287915
 0.2262475 0.2238747 0.221701 0.2197105 0.2178647 0.2161122 0.2144064 0.2127264 0.2110857 0.2095261
 0.208095 0.2068127 0.2056625 0.2046132 0.2036423 0.2027404 0.2019124 0.2011761 0.200547 0.2000241
 0.1995923 0.1992312 0.1989312 0.198712 0.1986088 0.1986183 0.1986729 0.1986815 0.1985881 0.198394
 0.1981511 0.1979304 0.1977772 0.1976897 0.1976357 0.1975638 0.1973985 0.197048 0.1964198 0.1954309
 0.1940317 0.1922428 0.1901614 0.1879327 0.185721 0.1836783 0.1819055 0.1804426 0.179287 0.1783974
 0.1776969 0.1771199 0.1766652 0.1763926 0.1763711 0.1766024 0.1769579 0.1772323 0.1773246 0.1773531
 0.1775512 0.1780672 0.178876 0.1798271 0.1807466 0.1815245 0.1821348 0.1825914 0.1829138 0.183125
 0.1832361 0.1832322 0.1830977 0.1828353 0.1824471 0.1819329 0.1813096 0.1805955 0.1797851 0.1788707
 0.1778573 0.1767384 0.1754984 0.1741349 0.1726363 0.1709799 0.1692275 0.1675976 0.1663844 0.1657981
 0.1658562 0.1663731 0.1670727 0.1677524 0.1683169 0.1686898 0.1688473 0.1689954 0.1695843 0.171018
 0.173315 0.1760464 0.17861 0.1805907 0.1818762 0.1825064 0.1825436 0.1820731 0.1811774 0.1798913
 0.1782639 0.1764054 0.1744098 0.1723364 0.1702953 0.1684199 0.1667731 0.1653804 0.1642598 0.1634205
 0.1629355 0.1625385 0.1606592 0.1549786 0.1457224 0.1377834 0.1370203 0.1439401 0.1529901 0.1585212
 0.1595824 0.1585555 0.1574109 0.1565656 0.1559367 0.1555915 0.1555859 0.1558205 0.1560795 0.1561336
 0.1558829 0.1553414 0.1543869 0.1525338 0.1489283 0.1426525 0.1333995 0.1221037 0.1107475 0.1013119
 0.0947993 0.09102421 0.08903325 0.08776674 0.08666601 0.08587568 0.08589971 0.0870849 0.08941619 0.09266169
 0.09654307 0.1007266 0.1047721 0.108256 0.1109865 0.113024 0.1144893 0.1154353 0.1158944 0.1159294
 0.1156092 0.1149967 0.114161 0.1131488 0.111955 0.1105634 0.1090331 0.1075422 0.1063217 0.1055056
 0.1050476 0.1048079 0.1046878 0.1046494 0.1046661 0.1047188 0.1048123 0.1049587 0.1051641 0.1054337
 0.1057536 0.1060761 0.1063486 0.1065483 0.1066767 0.1067307 0.1066831 0.1065016 0.1062148 0.1059252
 0.1056748 0.1053133 0.1046115 0.1035438 0.102404 0.1016161 0.1014369 0.1018003 0.1023964 0.1029037
 0.1031835 0.1032934 0.1033421 0.1033384</values></Ydata></ScSm><ScRf><Ydata ylabel="Single channel"><values byteorder="INTEL" format="FLOAT32" numvalues="1820"> 0.07052631 0.07065985 0.07078087 0.07088564 0.07097571 0.07106382 0.07116765 0.0712945 0.07143542 0.07157367
 0.07169724 0.07180546 0.07190427 0.0719952 0.07207607 0.07215452 0.07225011 0.07237469 0.07251662 0.07264867
 0.0727504 0.07282674 0.07290739 0.07301889 0.07314967 0.07324973 0.07327507 0.07323427 0.07318594 0.07318608
 0.07324905 0.07337454 0.07358372 0.07386755 0.07410945 0.0741588 0.07401896 0.07387722 0.07389878 0.07406144
 0.0742286 0.07430077 0.07425675 0.07414331 0.07409509 0.07429166 0.07479484 0.07541593 0.07577518 0.0755239
 0.07457758 0.07323702 0.07211301 0.07180804 0.07248313 0.07367735 0.07465199 0.07498551 0.07480115 0.07445165
 0.07415225 0.07397552 0.07401223 0.07435384 0.07494231 0.07551326 0.07569958 0.07527079 0.07439341 0.07360212
 0.07336397 0.07371576 0.07442772 0.07528327 0.07586931 0.07536598 0.07327235 0.07050979 0.06913637 0.07044478
 0.07360863 0.07654187 0.07779907 0.07734163 0.07593442 0.07447056 0.073733 0.07412671 0.07541651 0.07696086
 0.07821979 0.0788957 0.07879861 0.07793771 0.07669958 0.0756826 0.07536368 0.07596172 0.07734931 0.07891656
 0.07981369 0.07962003 0.0786608 0.07758801 0.07690044 0.07691492 0.07779128 0.07934177 0.08105204 0.08245952
 0.08339079 0.0838583 0.08395006 0.08381484 0.08358841 0.08336852 0.08331143 0.08355427 0.08393943 0.08404673
 0.0836601 0.08306295 0.08275384 0.08293375 0.08333398 0.08354028 0.08340342 0.08296311 0.08202811 0.08026932
 0.07789689 0.07576504 0.07453682 0.07421875 0.07470788 0.07607578 0.07790697 0.07909301 0.07894905 0.07813849
 0.07795589 0.07892566 0.0804709 0.08175379 0.08249074 0.08299866 0.08370073 0.08464818 0.08540172 0.08535642
 0.08435832 0.0830878 0.08260863 0.08334006 0.0846491 0.08562908 0.08605278 0.08634481 0.08683062 0.08726409
 0.08704339 0.08585711 0.0842235 0.08330706 0.08395766 0.08586977 0.08774343 0.08826576 0.08704199 0.0848098
 0.08282427 0.08195803 0.08235972 0.0838083 0.08602249 0.08852938 0.09059294 0.09158478 0.0914159 0.09052314
 0.08939461 0.08811349 0.08652667 0.08495303 0.08437454 0.0855174 0.08791744 0.09028965 0.09171586 0.09215441
 0.09191497 0.09103484 0.08936409 0.08721332 0.08564289 0.08567758 0.08714084 0.08869679 0.08926908 0.08904848
 0.0888893 0.08914296 0.08946186 0.08951146 0.08946918 0.08977047 0.09055102 0.09147325 0.09208516 0.09223756
 0.09211728 0.09198131 0.09191284 0.09177383 0.09141915 0.09102556 0.09107685 0.09185462 0.09305741 0.09410135
 0.09469436 0.09495336 0.09504984 0.09492145 0.09438039 0.09348121 0.09269977 0.09259588 0.09326902 0.0942824
 0.09512737 0.0956028 0.0957667 0.09574343 0.09563956 0.09551743 0.09540962 0.09538862 0.09555346 0.09589556
 0.09626302 0.09651104 0.09661926 0.09663405 0.09657279 0.09642945 0.09623735 0.09608646 0.09606677 0.09619744
 0.09642335 0.09667273 0.09688787 0.09701455 0.0970205 0.09693635 0.09683613 0.09676894 0.09673951 0.09674911
 0.09681424 0.09693548 0.09707564 0.09718607 0.09724672 0.0972691 0.09726829 0.09724832 0.09721516 0.09718928
 0.09719831 0.09725752 0.09735365 0.09745389 0.09754477 0.09764986 0.0977838 0.09790516 0.09795325 0.09792504
 0.09788124 0.09788024 0.09793262 0.09801394 0.09809323 0.09814297 0.09814019 0.09808192 0.09800816 0.09799149
 0.0980827 0.09827311 0.0985176 0.09877183 0.09899694 0.0991625 0.09927039 0.09935391 0.09943767 0.09951578
 0.09957607 0.09962942 0.099709 0.09984501 0.1000354 0.1002417 0.1004209 0.1005558 0.100654 0.1007395
 0.1008492 0.1010027 0.1011648 0.1012732 0.1013178 0.1013592 0.1014524 0.1015818 0.101688 0.1017406
 0.1017653 0.1018082 0.1018893 0.1019922 0.1020931 0.1021897 0.1023008 0.1024367 0.1025719 0.1026546
 0.1026559 0.1026058 0.1025649 0.1025643 0.1025933 0.1026372 0.1027001 0.1027824 0.1028597 0.1029007
 0.1029008 0.1028871 0.1028881 0.1029023 0.102904 0.1028755 0.1028249 0.1027736 0.1027375 0.1027194
 0.1027104 0.1026957 0.1026629 0.1026099 0.102543 0.1024703 0.1023954 0.1023219 0.1022666 0.1022558
 0.1022916 0.1023235 0.1022764 0.1021224 0.1019116 0.1017245 0.1016012 0.1015204 0.1014341 0.1013118
 0.1011574 0.1009969 0.1008523 0.1007276 0.1006136 0.1005022 0.100399 0.1003223 0.1002846 0.1002687
 0.1002302 0.1001368 0.100002 0.09986991 0.09977146 0.09970669 0.09966101 0.09962294 0.09959021 0.09957068
 0.09957268 0.0995868 0.09958819 0.09956524 0.09953603 0.09953097 0.0995701 0.09965635 0.0997717 0.09987724
 0.09993893 0.09996268 0.09998973 0.1000527 0.1001493 0.1002612 0.1003808 0.1005115 0.1006548 0.1008087
 0.1009742 0.1011571 0.1013614 0.1015844 0.1018161 0.1020436 0.1022611 0.1024775 0.1027103 0.1029703
 0.1032517 0.1035392 0.1038209 0.1040964 0.1043716 0.1046491 0.1049254 0.1052002 0.1054834 0.1057867
 0.1061095 0.1064395 0.1067671 0.1070922 0.1074173 0.1077418 0.1080642 0.1083884 0.1087275 0.1090944
 0.1094811 0.1098528 0.1101756 0.110453 0.110724 0.1110262 0.1113669 0.1117246 0.1120655 0.1123662
 0.1126338 0.112901 0.1131916 0.1134964 0.1137951 0.1140935 0.1144223 0.1147957 0.1151838 0.1155312
 0.1158059 0.1160277 0.1162456 0.1164885 0.1167415 0.1169756 0.1171876 0.1174004 0.1176307 0.1178725
 0.1181173 0.1183718 0.1186443 0.118923 0.1191831 0.1194136 0.1196245 0.1198261 0.120012 0.1201642
 0.1202737 0.1203555 0.120444 0.1205664 0.1207186 0.1208734 0.1210155 0.1211568 0.1213175 0.1215041
 0.1217124 0.12194 0.1221841 0.1224339 0.1226801 0.1229336 0.1232164 0.1235243 0.1238153 0.1240511
 0.1242414 0.1244279 0.1246339 0.1248539 0.1250848 0.1253407 0.12563 0.1259376 0.1262377 0.1265174
 0.126787 0.1270708 0.1273822 0.1277012 0.1279857 0.1282112 0.1283951 0.1285801 0.1287979 0.129052
 0.129325 0.1295969 0.1298568 0.1300988 0.1303101 0.1304729 0.1305841 0.1306627 0.1307248 0.1307558
 0.1307194 0.1305893 0.1303601 0.1300286 0.1295802 0.1290042 0.1283213 0.127596 0.1269237 0.1264029
 0.1261064 0.1260685 0.1262873 0.126727 0.1273178 0.1279651 0.1285699 0.1290444 0.1293161 0.1293353
 0.1290919 0.1286193 0.1279747 0.1272167 0.1263973 0.1255609 0.1247426 0.123982 0.1233527 0.1229727
 0.1229729 0.1234472 0.1244183 0.1258209 0.1275012 0.1292495 0.1308767 0.132284 0.133472 0.1344926
 0.1353986 0.1362274 0.1370061 0.1377518 0.1384672 0.1391457 0.1397832 0.1403811 0.1409372 0.14144
 0.1418703 0.1422096 0.1424516 0.142608 0.1427026 0.1427549 0.1427757 0.1427762 0.142766 0.1427327
 0.142633 0.142414 0.1420483 0.1415527 0.1409956 0.1405019 0.1402421 0.1403898 0.14105 0.1421973
 0.1436744 0.1452612 0.1467645 0.1480657 0.1491188 0.1499353 0.1505684 0.1510862 0.1515409 0.1519583
 0.1523495 0.152723 0.1530851 0.1534379 0.1537825 0.1541222 0.1544622 0.154806 0.1551507 0.1554894
 0.1558188 0.1561454 0.1564826 0.1568394 0.1572104 0.1575788 0.1579334 0.1582801 0.15863 0.1589813
 0.1593207 0.1596431 0.1599581 0.1602785 0.1606093 0.1609493 0.1612911 0.161621 0.1619278 0.1622131
 0.1624897 0.1627686 0.1630533 0.1633436 0.1636395 0.163938 0.1642334 0.1645218 0.1648047 0.1650864
 0.1653663 0.1656378 0.1658956 0.1661447 0.166396 0.1666543 0.1669137 0.1671659 0.1674118 0.1676615
 0.1679249 0.1682017 0.1684807 0.1687494 0.1690039 0.1692497 0.1694939 0.1697404 0.1699902 0.1702425
 0.1704966 0.1707524 0.1710105 0.17127 0.1715288 0.1717853 0.1720395 0.1722922 0.172544 0.1727955
 0.1730461 0.1732942 0.1735398 0.1737862 0.1740379 0.1742948 0.1745505 0.1747969 0.175031 0.1752564
 0.1754799 0.1757084 0.175946 0.1761921 0.1764414 0.1766882 0.1769315 0.1771736 0.1774165 0.1776595
 0.1779017 0.1781446 0.1783913 0.1786422 0.1788934 0.1791405 0.1793822 0.1796199 0.1798552 0.1800901
 0.1803256 0.1805616 0.1807974 0.1810328 0.1812674 0.1815025 0.181742 0.1819882 0.1822381 0.1824861
 0.1827284 0.1829637 0.1831926 0.1834183 0.1836457 0.1838783 0.1841165 0.1843573 0.1845974 0.1848354
 0.1850727 0.1853099 0.1855458 0.1857806 0.1860166 0.1862561 0.1864985 0.1867428 0.1869867 0.187227
 0.187463 0.1876982 0.1879359 0.1881766 0.1884185 0.1886598 0.1889004 0.1891422 0.1893874 0.1896337
 0.1898775 0.1901197 0.1903633 0.1906094 0.1908573 0.1911074 0.1913595 0.1916126 0.1918671 0.1921224
 0.192377 0.192632 0.1928917 0.1931553 0.1934174 0.1936755 0.1939311 0.1941846 0.1944352 0.1946811
 0.1949178 0.1951412 0.1953551 0.1955695 0.195792 0.1960236 0.1962608 0.1964979 0.196731 0.1969618
 0.1971939 0.1974296 0.1976709 0.197919 0.198171 0.198424 0.1986797 0.1989389 0.1991982 0.1994562
 0.1997162 0.199978 0.2002386 0.2004983 0.2007596 0.2010227 0.2012877 0.201555 0.2018214 0.2020844
 0.202347 0.2026128 0.2028816 0.203154 0.2034307 0.2037078 0.2039807 0.2042516 0.2045234 0.2047955
 0.2050686 0.2053437 0.2056164 0.2058835 0.2061488 0.2064143 0.2066769 0.2069408 0.2072162 0.2075031
 0.2077926 0.2080797 0.2083607 0.2086307 0.208893 0.2091579 0.2094288 0.2097048 0.209987 0.2102705
 0.2105448 0.2108089 0.2110673 0.2113129 0.2115252 0.2116583 0.2115819 0.2110128 0.2094774 0.2063258
 0.2008629 0.1926268 0.1816675 0.1686232 0.1545421 0.1405551 0.1275701 0.1161525 0.1066017 0.09907173
 0.09365281 0.09044568 0.08962515 0.09152681 0.09675859 0.1058387 0.1178767 0.1294371 0.1358279 0.1346535
 0.1279844 0.120478 0.1155871 0.1138673 0.1141516 0.1152837 0.1168027 0.1188184 0.1216133 0.1252282
 0.1294185 0.134059 0.1393802 0.1456192 0.1525625 0.1596212 0.1663243 0.1726263 0.1787384 0.1847614
 0.1905367 0.1957992 0.2003825 0.2042791 0.2075897 0.2104584 0.2130137 0.2153375 0.2174796 0.2194664
 0.2212624 0.2227537 0.2238137 0.2244051 0.2246266 0.2246672 0.2247023 0.2248176 0.2250218 0.2253038
 0.2256576 0.2260754 0.2265467 0.2270615 0.2276043 0.2281566 0.2287074 0.2292511 0.2297785 0.2302819
 0.2307614 0.2312182 0.2316519 0.2320659 0.2324638 0.232845 0.233212 0.2335727 0.2339312 0.2342859
 0.2346369 0.2349831 0.2353171 0.235631 0.2359244 0.2362006 0.2364641 0.2367234 0.2369852 0.2372489
 0.2375096 0.2377656 0.2380171 0.2382651 0.2385122 0.2387594 0.2390058 0.2392515 0.2394962 0.2397371
 0.2399734 0.2402112 0.2404556 0.2407028 0.2409464 0.241185 0.2414201 0.241654 0.2418898 0.2421295
 0.2423743 0.2426273 0.2428897 0.2431566 0.2434219 0.243687 0.2439568 0.2442317 0.2445099 0.2447908
 0.2450716 0.2453476 0.2456185 0.2458865 0.2461496 0.2464016 0.2466392 0.2468665 0.2470919 0.2473225
 0.2475587 0.2477965 0.2480346 0.2482764 0.2485238 0.2487756 0.2490305 0.2492867 0.2495434 0.2498049
 0.2500785 0.2503634 0.2506517 0.2509389 0.2512271 0.2515168 0.2518067 0.2520981 0.2523911 0.2526797
 0.2529581 0.2532313 0.2535159 0.2538288 0.2541704 0.2545196 0.2548519 0.2551619 0.2554643 0.2557752
 0.2561011 0.2564334 0.2567441 0.2570068 0.2572352 0.2574875 0.2578121 0.2581989 0.2585962 0.2589639
 0.2592993 0.2596208 0.2599407 0.2602553 0.2605504 0.2608147 0.2610559 0.2613106 0.2616225 0.2619981
 0.2623941 0.2627609 0.2630847 0.2633808 0.2636679 0.2639574 0.2642379 0.2644643 0.2646044 0.2647119
 0.2649124 0.265283 0.2657677 0.2662383 0.2666236 0.2669504 0.2672703 0.2675938 0.2679039 0.2681727
 0.2683311 0.2683005 0.2681368 0.2680823 0.2683715 0.2689948 0.2697241 0.2703443 0.2707973 0.2711334
 0.2714178 0.2716862 0.2719262 0.2720749 0.2720861 0.2720364 0.2721206 0.2724756 0.2730241 0.2735564
 0.2739512 0.274247 0.2745286 0.2748296 0.2751141 0.2752585 0.2751047 0.2746748 0.274316 0.2744762
 0.2752708 0.2763519 0.2772569 0.2778205 0.2781789 0.278447 0.2785455 0.2783449 0.2778275 0.2770949
 0.2764047 0.276202 0.2768292 0.2780868 0.2793177 0.280063 0.2804551 0.2808845 0.2814937 0.2821158
 0.2825453 0.2827237 0.282706 0.2825365 0.2822253 0.2818903 0.2818424 0.2823638 0.2833793 0.2844753
 0.2852902 0.2857999 0.2861505 0.2862376 0.2855983 0.2839603 0.2819608 0.280985 0.2819343 0.2842774
 0.2866253 0.2881063 0.2888441 0.2893024 0.2896819 0.289865 0.2894114 0.2877061 0.284795 0.2821119
 0.2816067 0.2838253 0.2872983 0.2899651 0.2907438 0.2897514 0.287783 0.2859474 0.2852713 0.2861409
 0.2881392 0.2904693 0.2924345 0.2936305 0.2939729 0.2936519 0.2930533 0.2926583 0.2927396 0.2929495
 0.2925391 0.2913333 0.2900736 0.2892787 0.2882935 0.2863607 0.28431 0.2840397 0.2861659 0.2891278
 0.2909986 0.2914593 0.2914394 0.2912491 0.2898275 0.286143 0.281103 0.2775226 0.2777161 0.2811885
 0.2851251 0.2871551 0.2872252 0.2867983 0.2867925 0.2866091 0.2850281 0.2819437 0.279036 0.2782673
 0.2796784 0.2813218 0.2814148 0.2795837 0.2759145 0.2705114 0.2649915 0.2627926 0.2661374 0.2732719
 0.2800177 0.2833809 0.2824905 0.2773557 0.269174 0.2616305 0.2592455 0.2632069 0.2699857 0.2747532
 0.2751902 0.2715904 0.2648951 0.2562815 0.2481821 0.2439826 0.2458655 0.2530543 0.2619549 0.2677076
 0.2666733 0.2593548 0.2511181 0.2481496 0.2516399 0.2570003 0.2592563 0.2577255 0.2549802 0.2533445
 0.2536109 0.2554768 0.2578844 0.2598553 0.2612416 0.2613378 0.2574952 0.2480539 0.2367087 0.2305505
 0.2327548 0.2400254 0.2479714 0.255528 0.262504 0.2664082 0.2651 0.2610232 0.2596448 0.2636146
 0.2702401 0.2749274 0.2758433 0.2746603 0.2735161 0.2724713 0.2705606 0.2685294 0.2688724 0.272729
 0.2780956 0.2819966 0.2834696 0.2835711 0.2833768 0.2830718 0.282504 0.2816385 0.2805218 0.2792917
 0.2781612 0.2771871 0.2762309 0.2752331 0.2741359 0.2722778 0.2684518 0.2624733 0.2565162 0.2536119
 0.2544687 0.2570279 0.2594226 0.2613276 0.2614875 0.2567031 0.2460131 0.2344356 0.2295153 0.2340293
 0.2437763 0.2522913 0.2559536 0.2544298 0.2484848 0.2396286 0.2316431 0.229924 0.2373269 0.2511786
 0.2656774 0.2767971 0.2838202 0.2870888 0.2864562 0.2824284 0.2774562 0.2749675 0.2770133 0.2829187
 0.2897995 0.2939079 0.2922646 0.2851093 0.2775245 0.2763658 0.2834678 0.2932064 0.2987018 0.2990227
 0.2981893 0.2987933 0.2997761 0.2999548 0.3005041 0.302981 0.3067687 0.3095872 0.3095355 0.3058923
 0.2991119 0.2913787 0.2862594 0.2858803 0.2885789 0.2908103 0.2907847 0.2885035 0.2835307 0.2759547
 0.2691761 0.2680898 0.2735245 0.2809916 0.2858044 0.2874445 0.2881113 0.2887564 0.2879603 0.2843066
 0.2788969 0.2748745 0.2743483 0.2764067 0.2786219 0.2796786 0.2795849 0.2781546 0.2750125 0.2712201
 0.2694225 0.271498 0.2765443 0.2817531 0.2849858 0.2860785 0.2860342 0.2857316 0.2854521 0.2850302
 0.2842818 0.2836112 0.2840462 0.2861423 0.2890191 0.2911664 0.2921928 0.2931473 0.2950412 0.2976115
 0.2997262 0.300638 0.300639 0.3006857 0.3015395 0.3031431 0.304675 0.3052702 0.3048718 0.3043983
 0.3049196 0.3066354 0.3087906 0.310542 0.3116672 0.3124527 0.3132156 0.3140293 0.3146878 0.3148801
 0.314601 0.3143973 0.3149621 0.3164185 0.3181753 0.319524 0.3202193 0.3204514 0.320448 0.3202545
 0.3198413 0.3192824 0.3187649 0.3184471 0.3183481 0.3183741 0.3184191 0.318428 0.3184009 0.318378
 0.3184093 0.3185153 0.318679 0.3188772 0.3190967 0.3193108 0.3194793 0.3195921 0.3196821 0.3197706
 0.3198209 0.3197616 0.319531 0.3190837 0.3183777 0.3173794 0.31607 0.3144267 0.3124187 0.3101033
 0.3077936 0.3061009 0.3056806 0.3068131 0.3091813 0.312053 0.3146986 0.3167055 0.3180151 0.3187691
 0.3191471 0.3192909 0.3192921 0.3191959 0.3190146 0.3187541 0.3184311 0.3180715 0.3177022 0.3173481
 0.3170258 0.3167367 0.316466 0.3161875 0.3158689 0.3154824 0.3150173 0.3144797 0.3138782 0.3132082
 0.3124476 0.3115743 0.3105943 0.3095555 0.3085271 0.3075592 0.3066573 0.3057879 0.3049072 0.3039771
 0.3029466 0.3017446 0.3003473 0.2988718 0.2975448 0.2965215 0.2957474 0.2950231 0.2941805 0.29317
 0.2920205 0.2907763 0.289475 0.2881422 0.2867851 0.285391 0.2839341 0.2823848 0.2807258 0.2789643
 0.2771226 0.2752222 0.2732817 0.2713182 0.2693248 0.2672331 0.2649053 0.2621725 0.2588897 0.25497
 0.2503951 0.2452265 0.2396159 0.2337846 0.2279654 0.2223517 0.2170948 0.2123294 0.2081836 0.2047635
 0.2021367 0.2003344 0.1993677 0.1992417 0.1999549 0.2014816 0.2037511 0.2066408 0.2099863 0.2136014
 0.2172918 0.2208714 0.2242021 0.2272419 0.2300423 0.2326733 0.2351462 0.2374156 0.2394379 0.2412062
 0.2427328 0.244026 0.2450931 0.245956 0.2466559 0.247241 0.2477486 0.2481918 0.2485629 0.2488523
 0.2490681 0.249238 0.2493942 0.249559 0.2497436 0.2499563 0.250208 0.2505136 0.2508883 0.2513436
 0.2518829 0.2524993 0.2531775 0.2539009 0.2546632 0.2554747 0.2563635 0.2573694 0.2585286 0.2598562
 0.2613398 0.2629447 0.2646125 0.2662538 0.2677588 0.2690287 0.2700033 0.2706683 0.2710454 0.2711744
 0.2710942 0.2708352 0.2704219 0.2698784 0.2692305 0.268504 0.2677186 0.2668821 0.2659909 0.2650411
 0.2640421 0.2630206 0.2620074 0.2610181 0.2600518 0.2591074 0.2581909 0.2573036 0.2564386 0.2555931
 0.2547743 0.2539927 0.2532546 0.2525584 0.25189 0.2512231 0.2505231 0.2497489 0.2488586 0.2478254
 0.2466425 0.2453111 0.2438326 0.2422149 0.240474 0.2386262 0.236683 0.234653 0.2325435 0.2303582
 0.2280932 0.2257391 0.223308 0.2208632 0.2185026 0.216302 0.2142804 0.2124146 0.2106675 0.2090086
 0.2074258 0.2059177 0.2044764 0.2030901 0.2017591 0.2004931 0.1992974 0.1981753 0.1971357 0.1961915
 0.1953531 0.1946242 0.1939967 0.1934542 0.1929872 0.1925961 0.1922899 0.1920942 0.1920398 0.1921166
 0.1922496 0.1923416 0.1923372 0.1922461 0.1921255 0.1920372 0.1920059 0.1920172 0.1920447 0.1920478
 0.1919483 0.1916395 0.1910227 0.190025 0.1886079 0.1867911 0.1846644 0.1823736 0.1800937 0.1779909
 0.1761815 0.1747222 0.1736217 0.1728303 0.1722432 0.1717679 0.1713968 0.1712003 0.171257 0.171568
 0.172004 0.1723634 0.172547 0.1726672 0.1729489 0.1735384 0.1744184 0.1754537 0.1764851 0.1774037
 0.1781625 0.1787432 0.1791473 0.1794091 0.1795689 0.1796348 0.1795967 0.1794522 0.1792007 0.1788433
 0.1783955 0.1778657 0.1772358 0.176495 0.1756602 0.1747459 0.173751 0.172671 0.1714748 0.1701129
 0.1686277 0.1672345 0.1662409 0.165883 0.166208 0.1670526 0.1681554 0.169332 0.170504 0.1715734
 0.1724204 0.173099 0.1739273 0.1752759 0.1772542 0.1796 0.1818639 0.1836978 0.1849649 0.1856423
 0.1857466 0.185342 0.1844856 0.1831686 0.1814064 0.1793209 0.1770601 0.1747422 0.172512 0.1705105
 0.1687935 0.1673702 0.1662381 0.1653904 0.1648943 0.1644795 0.162555 0.1567682 0.147344 0.1392415
 0.1384089 0.1453745 0.1545138 0.1600895 0.1611241 0.1600281 0.1588019 0.1578722 0.1571599 0.15674
 0.1566767 0.1568738 0.157112 0.1571512 0.1568815 0.156319 0.1553521 0.1534929 0.1498568 0.1434835
 0.1340519 0.1225296 0.1109573 0.1013599 0.094751 0.09093122 0.08892456 0.08765406 0.0865552 0.08577417
 0.08581588 0.08702573 0.08939136 0.09269147 0.09665825 0.1009549 0.105123 0.108723 0.1115636 0.1137117
 0.1152799 0.1163033 0.116811 0.1168853 0.116617 0.1160741 0.1153121 0.1143571 0.1131894 0.1117959
 0.1102559 0.1087698 0.1075798 0.1068178 0.1064259 0.1062457 0.1061647 0.1061496 0.1061928 0.1062867
 0.1064294 0.1066205 0.1068641 0.1071691 0.1075182 0.1078533 0.1081169 0.1082941 0.1084004 0.10844
 0.1083759 0.1081505 0.1077708 0.1073405 0.1069262 0.1064051 0.1055582 0.1043527 0.103072 0.1021432
 0.1018388 0.1021062 0.1026341 0.1030908 0.1033331 0.1034194 0.1034537 0.1034328 0.103239 0.1027733
</values></Ydata></ScRf><Data_Parameters_AB><parameter name="DPF">1</parameter><parameter name="NPT">3497</parameter><parameter name="FXV">3996</parameter><parameter name="LXV">500</parameter><parameter name="CSF">1</parameter><parameter name="MXY">0.138271868228912</parameter><parameter name="MNY">-0.0673122778534889</parameter><parameter name="DAT">18/01/2024</parameter><parameter name="TIM">11:16:32.961 (GMT+1)</parameter><parameter name="DXU">WN</parameter></Data_Parameters_AB><AB__Qtest><MainReport name="Quality Test Report"><Header><Line><Legend>Test result ok/not ok [1/0]: </Legend><Value>0</Value></Line><Line><Legend>Method file: </Legend><Value>C:\Users\Public\Documents\Bruker\OPUS_8.2.28\QT\IRBT_v3_default.QT</Value></Line></Header><Matrix><Line><Legend></Legend><Legend>min</Legend><Legend>max</Legend><Legend>measured</Legend></Line><Line><Value>Absorption (X-Range 1):</Value><Value>0.400000</Value><Value>2.000000</Value><Value>0.143372</Value></Line><Line><Value>Noise (X-Range 4):</Value><Value></Value><Value>0.000300</Value><Value>0.000028</Value></Line><Line><Value>Signal/Noise (X-Range 2):</Value><Value>200.000000</Value><Value></Value><Value>151.123185</Value></Line><Line><Value>Signal/Noise (X-Range 3):</Value><Value>40.000000</Value><Value></Value><Value>28.890924</Value></Line><Line><Value>Water vapour (X-Range 5):</Value><Value></Value><Value>0.000300</Value><Value>0.000013</Value></Line><Line><Value>Signal/Water (X-Range 2):</Value><Value>100.000000</Value><Value></Value><Value>315.299423</Value></Line><Line><Value>Signal/Water (X-Range 3):</Value><Value>20.000000</Value><Value></Value><Value>60.277262</Value></Line><Line><Value>Fringes (X-Range 6):</Value><Value></Value><Value>0.000100</Value><Value>0.000039</Value></Line></Matrix></MainReport></AB__Qtest><Data_Parameters_ScSm><parameter name="DPF">1</parameter><parameter name="NPT">1814</parameter><parameter name="FXV">3996.63438082617</parameter><parameter name="LXV">499.579297603271</parameter><parameter name="CSF">1</parameter><parameter name="MXY">0.321920692920685</parameter><parameter name="MNY">0.0807204246520996</parameter><parameter name="DAT">18/01/2024</parameter><parameter name="TIM">11:16:32.961 (GMT+1)</parameter><parameter name="DXU">WN</parameter></Data_Parameters_ScSm><Data_Parameters_ScRf><parameter name="DPF">1</parameter><parameter name="NPT">1820</parameter><parameter name="FXV">4004.34989121387</parameter><parameter name="LXV">495.721542409425</parameter><parameter name="CSF">1</parameter><parameter name="MXY">0.320451438426971</parameter><parameter name="MNY">0.0691363736987114</parameter><parameter name="DAT">18/01/2024</parameter><parameter name="TIM">11:16:07.526 (GMT+1)</parameter><parameter name="DXU">WN</parameter></Data_Parameters_ScRf><Optic_Parameters_Rf><parameter name="APR">0</parameter><parameter name="APT">Open</parameter><parameter name="BMS">KBr</parameter><parameter name="DTC">RT-DLaTGS_IR-Biotyper [Microplate reader]</parameter><parameter name="HPF">0</parameter><parameter name="LPF">10.0</parameter><parameter name="LPV">4000</parameter><parameter name="PGR">0</parameter><parameter name="RCH">Module port</parameter><parameter name="RDX">0</parameter><parameter name="SRC">MIR</parameter><parameter name="VEL">10.0</parameter><parameter name="SON">Off</parameter></Optic_Parameters_Rf><Acquisition_Parameters_Rf><parameter name="ADT">1</parameter><parameter name="AQM">DD</parameter><parameter name="CFE">0</parameter><parameter name="COR">0</parameter><parameter name="DEL">0</parameter><parameter name="DLY">0</parameter><parameter name="HFW">8000</parameter><parameter name="LFW">0</parameter><parameter name="NSR">32</parameter><parameter name="PLF">AB</parameter><parameter name="RES">6</parameter><parameter name="RGN">-1</parameter><parameter name="STR">0</parameter><parameter name="TCL">MakeCompatibleScalar (0, {WSV=1.000000, ARV=0});</parameter><parameter name="TDL">37</parameter><parameter name="RPO">0</parameter></Acquisition_Parameters_Rf><FT_-_Parameters_Rf><parameter name="APF">B3</parameter><parameter name="HFQ">500</parameter><parameter name="LFQ">4000</parameter><parameter name="NLI">0</parameter><parameter name="PHR">24</parameter><parameter name="PHZ">ML</parameter><parameter name="SPZ">NO</parameter><parameter name="ZFF">1</parameter></FT_-_Parameters_Rf><Optic_Parameters_><parameter name="APR">0</parameter><parameter name="APT">Open</parameter><parameter name="BMS">KBr</parameter><parameter name="CHN">Module port</parameter><parameter name="DTC">RT-DLaTGS_IR-Biotyper [Microplate reader]</parameter><parameter name="HPF">0</parameter><parameter name="LPF">10.0</parameter><parameter name="LPV">4000</parameter><parameter name="PGN">0</parameter><parameter name="RDX">0</parameter><parameter name="SRC">MIR</parameter><parameter name="VEL">10.0</parameter><parameter name="SON">Off</parameter></Optic_Parameters_><FT_-_Parameters_><parameter name="APF">B3</parameter><parameter name="HFQ">500</parameter><parameter name="LFQ">4000</parameter><parameter name="NLI">0</parameter><parameter name="PHR">24</parameter><parameter name="PHZ">ML</parameter><parameter name="SPZ">NO</parameter><parameter name="ZFF">1</parameter></FT_-_Parameters_><Acquisition_Parameters_><parameter name="ADT">1</parameter><parameter name="AQM">DD</parameter><parameter name="CFE">0</parameter><parameter name="COR">0</parameter><parameter name="DEL">0</parameter><parameter name="DLY">0</parameter><parameter name="HFW">8000</parameter><parameter name="LFW">0</parameter><parameter name="NSS">32</parameter><parameter name="PLF">AB</parameter><parameter name="RES">6</parameter><parameter name="SOT">0</parameter><parameter name="TCL">MakeCompatibleScalar (0, {WSV=1.000000, ARV=0});</parameter><parameter name="TDL">37</parameter><parameter name="SPO">0</parameter><parameter name="SGN">-1</parameter></Acquisition_Parameters_><Instrument_Parameters_Rf><parameter name="HFL">15801.365274</parameter><parameter name="LFL">0</parameter><parameter name="LWN">15801.365274</parameter><parameter name="ABP">32157</parameter><parameter name="SSP">1</parameter><parameter name="ARG">2</parameter><parameter name="ASG">2</parameter><parameter name="ASS">32</parameter><parameter name="GFW">16</parameter><parameter name="GBW">16</parameter><parameter name="BFW">0</parameter><parameter name="BBW">0</parameter><parameter name="PKA">9308</parameter><parameter name="PKL">4987</parameter><parameter name="PRA">9270</parameter><parameter name="PRL">5010</parameter><parameter name="P2A">1</parameter><parameter name="P2L">1</parameter><parameter name="P2R">1</parameter><parameter name="P2K">1</parameter><parameter name="DAQ">0</parameter><parameter name="AG2">1</parameter><parameter name="SSM">1</parameter><parameter name="RSN">46550</parameter><parameter name="CRR">0</parameter><parameter name="SRT">1705576567.527</parameter><parameter name="DUR">19.64599609375</parameter><parameter name="TSC">31.9</parameter><parameter name="MVD">0.306191861629486</parameter><parameter name="AN1">0.22601130925651</parameter><parameter name="AN2">0</parameter><parameter name="VSN">2.485 Apr  4 2017</parameter><parameter name="SRN">0085</parameter><parameter name="CAM">0</parameter><parameter name="INS">IR-Biotyper</parameter><parameter name="FOC">69</parameter><parameter name="RDY">1</parameter><parameter name="ARS">32</parameter></Instrument_Parameters_Rf><Sample_Parameters_><parameter name="BLD"></parameter><parameter name="CNM">Admin</parameter><parameter name="CPY"></parameter><parameter name="DPM"></parameter><parameter name="EXP">IRBT_v3_32Scans.XPM</parameter><parameter name="LCT"></parameter><parameter name="SFM">Microplate, HTS-XT</parameter><parameter name="SNM">240118-1045-Cdiff_SCFA_2_C26_232123132_H3_ae05d8df-781d-4185-8cfc-400a81288958.0</parameter><parameter name="XPP">C:\Users\Public\Documents\Bruker\OPUS_8.2.28\XPM</parameter><parameter name="IST">OK</parameter><parameter name="CPG">1252</parameter><parameter name="UID">a9927978-934c-4641-b70b-4108ae99eed2</parameter></Sample_Parameters_><Instrument_Parameters_><parameter name="HFL">15801.365274</parameter><parameter name="LFL">0</parameter><parameter name="LWN">15801.365274</parameter><parameter name="ABP">32157</parameter><parameter name="SSP">1</parameter><parameter name="ASG">2</parameter><parameter name="ARG">2</parameter><parameter name="ASS">32</parameter><parameter name="GFW">16</parameter><parameter name="GBW">16</parameter><parameter name="BFW">0</parameter><parameter name="BBW">0</parameter><parameter name="PKA">9614</parameter><parameter name="PKL">4987</parameter><parameter name="PRA">9622</parameter><parameter name="PRL">5011</parameter><parameter name="P2A">1</parameter><parameter name="P2L">1</parameter><parameter name="P2R">1</parameter><parameter name="P2K">1</parameter><parameter name="DAQ">0</parameter><parameter name="AG2">1</parameter><parameter name="SSM">1</parameter><parameter name="RSN">23968</parameter><parameter name="CRR">0</parameter><parameter name="SRT">1705576592.962</parameter><parameter name="DUR">19.64599609375</parameter><parameter name="TSC">31.9</parameter><parameter name="MVD">0.369918793439865</parameter><parameter name="AN1">0.226015664671309</parameter><parameter name="AN2">0</parameter><parameter name="VSN">2.485 Apr  4 2017</parameter><parameter name="SRN">0085</parameter><parameter name="CAM">0</parameter><parameter name="INS">IR-Biotyper</parameter><parameter name="FOC">69</parameter><parameter name="RDY">1</parameter></Instrument_Parameters_><History/></OPUSDataFile>
