<?xml version="1.0" encoding="UTF-8" ?>
<OPUSDataFile><AB><Ydata ylabel="Absorbance Units"><values byteorder="INTEL" format="FLOAT32" numvalues="3497"> -0.09037185 -0.09031555 -0.09025683 -0.09019847 -0.09014983 -0.09011037 -0.09008458 -0.09006823 -0.0900576 -0.09004772
 -0.09003154 -0.09000796 -0.08997297 -0.08993067 -0.08988129 -0.08983111 -0.08978238 -0.0897385 -0.08970106 -0.08966872
 -0.08964169 -0.08961677 -0.08959363 -0.08957167 -0.08955087 -0.08953211 -0.08951523 -0.08949882 -0.08948223 -0.08946113
 -0.08943544 -0.0894019 -0.0893622 -0.08931784 -0.08927158 -0.08922825 -0.08918943 -0.08915914 -0.08913604 -0.08912116
 -0.08911041 -0.08910271 -0.08909257 -0.0890778 -0.08905556 -0.08902393 -0.08898705 -0.08894451 -0.08890667 -0.08887447
 -0.08885434 -0.08884648 -0.0888442 -0.08884652 -0.08884009 -0.08882535 -0.08879682 -0.08875735 -0.08871341 -0.08866709
 -0.08862678 -0.08859178 -0.08856513 -0.08854428 -0.08852785 -0.08851314 -0.08849778 -0.08847983 -0.0884576 -0.08843058
 -0.08839788 -0.0883613 -0.08832099 -0.08827918 -0.08823627 -0.08819322 -0.08815014 -0.08810744 -0.08806518 -0.08802412
 -0.0879843 -0.08794612 -0.0879097 -0.08787569 -0.08784468 -0.08781906 -0.08779927 -0.08778823 -0.08778408 -0.08778632
 -0.08778996 -0.08778942 -0.08778117 -0.08775907 -0.08772752 -0.08768585 -0.08764339 -0.08760423 -0.08757024 -0.08754389
 -0.08751731 -0.08748952 -0.08745505 -0.08741266 -0.08736946 -0.08732583 -0.08729319 -0.08727112 -0.08725822 -0.08725239
 -0.08724014 -0.08722126 -0.08718654 -0.08713992 -0.08708525 -0.08702801 -0.08697918 -0.0869408 -0.08692085 -0.08691463
 -0.08692305 -0.08693498 -0.08694538 -0.08694436 -0.08692576 -0.08689102 -0.08683826 -0.08677677 -0.08670817 -0.08663552
 -0.08655938 -0.08647865 -0.08639329 -0.08631473 -0.08624417 -0.08620185 -0.0861864 -0.08620257 -0.08624265 -0.08628237
 -0.08631409 -0.08630323 -0.0862579 -0.08617155 -0.08606581 -0.0859651 -0.08587793 -0.08582202 -0.08578885 -0.08577932
 -0.0857819 -0.08579304 -0.08580285 -0.08580927 -0.08580049 -0.08577412 -0.08572378 -0.08564752 -0.08555713 -0.08545313
 -0.08535805 -0.08527225 -0.0852056 -0.08515646 -0.08511925 -0.08509323 -0.08507272 -0.08505833 -0.08504973 -0.08504531
 -0.0850429 -0.08503909 -0.08502847 -0.08501075 -0.08498327 -0.08494892 -0.0849089 -0.08486436 -0.08481594 -0.08476412
 -0.0847083 -0.08465347 -0.08460006 -0.08455394 -0.08451606 -0.08448607 -0.08446406 -0.0844443 -0.08442641 -0.08440363
 -0.08437559 -0.08433645 -0.08428638 -0.08422185 -0.08414552 -0.08406138 -0.08397381 -0.08389287 -0.08381923 -0.08375902
 -0.0837073 -0.08366206 -0.08361913 -0.08357462 -0.08352989 -0.08348422 -0.08344108 -0.08340168 -0.08336607 -0.08333472
 -0.083305 -0.08327664 -0.08324809 -0.08321922 -0.08319008 -0.08316066 -0.0831307 -0.08310001 -0.08306714 -0.0830319
 -0.08299261 -0.08294938 -0.08290147 -0.08284928 -0.08279296 -0.0827333 -0.0826708 -0.08260754 -0.08254473 -0.08248612
 -0.08243455 -0.08239096 -0.08235762 -0.08232903 -0.08230437 -0.08227808 -0.08224817 -0.08221804 -0.08218759 -0.08216365
 -0.08214682 -0.08213335 -0.08212264 -0.08210213 -0.08207224 -0.08202966 -0.08197644 -0.08192004 -0.08185958 -0.08179667
 -0.08172923 -0.08165219 -0.08156997 -0.08148491 -0.08140434 -0.08133732 -0.08128189 -0.08124194 -0.08120532 -0.08116821
 -0.08112112 -0.08105899 -0.08098588 -0.08090068 -0.08081558 -0.08073199 -0.08065688 -0.08059096 -0.08053171 -0.08047876
 -0.08042493 -0.08037003 -0.08030886 -0.08024245 -0.08017189 -0.08009916 -0.08003019 -0.07996595 -0.07991202 -0.07986562
 -0.07982679 -0.07978877 -0.0797454 -0.07969262 -0.07962383 -0.0795463 -0.07946048 -0.07937708 -0.07930095 -0.07922971
 -0.07916492 -0.07909406 -0.07901547 -0.07892418 -0.07881939 -0.07871172 -0.07860184 -0.07850379 -0.07841691 -0.07834363
 -0.07828071 -0.0782163 -0.07814661 -0.07805394 -0.07793961 -0.07779492 -0.07763036 -0.07745504 -0.07728015 -0.07712086
 -0.07697707 -0.07685483 -0.0767452 -0.07664648 -0.07654916 -0.07645087 -0.07634202 -0.07622059 -0.07607934 -0.07591652
 -0.07573475 -0.07553385 -0.0753244 -0.07510678 -0.0748876 -0.07466657 -0.07444434 -0.07422091 -0.0739967 -0.07377204
 -0.0735483 -0.07332537 -0.07310379 -0.07288305 -0.07266317 -0.07244234 -0.07221934 -0.07199143 -0.07175624 -0.07151317
 -0.0712612 -0.07100116 -0.07073377 -0.07045615 -0.070168 -0.06986582 -0.06954829 -0.06922248 -0.06888857 -0.0685591
 -0.06823434 -0.06791588 -0.06760259 -0.06728565 -0.06696466 -0.06663258 -0.06629102 -0.06594069 -0.0655838 -0.06522568
 -0.06486579 -0.06450739 -0.06414421 -0.06377237 -0.06338438 -0.06297142 -0.06253944 -0.06208543 -0.0616299 -0.06117928
 -0.06074355 -0.06032824 -0.05992136 -0.05952255 -0.0591165 -0.05870169 -0.05827678 -0.05784192 -0.0574055 -0.05696739
 -0.05653039 -0.0560929 -0.05564863 -0.0551968 -0.05473093 -0.05425325 -0.05376452 -0.05326859 -0.05277156 -0.05227478
 -0.05178204 -0.05129255 -0.05080658 -0.0503243 -0.0498462 -0.04937099 -0.04889954 -0.04842495 -0.04794625 -0.04745661
 -0.04695448 -0.04644123 -0.04591672 -0.04538558 -0.04484793 -0.04430285 -0.04375028 -0.04318858 -0.04261893 -0.04204606
 -0.04147128 -0.04090144 -0.04033624 -0.03977847 -0.03922703 -0.03868208 -0.03814105 -0.03760248 -0.03706136 -0.03651385
 -0.03595683 -0.03538706 -0.03480677 -0.03421568 -0.03361758 -0.03301327 -0.0324049 -0.03179269 -0.03117957 -0.03056568
 -0.02995572 -0.02934987 -0.02875 -0.02815566 -0.02756343 -0.02697226 -0.02637508 -0.02577152 -0.02515598 -0.02453049
 -0.02389595 -0.02325615 -0.02261759 -0.02198097 -0.02135051 -0.02072225 -0.02009469 -0.0194646 -0.01882926 -0.01819018
 -0.01754699 -0.01690263 -0.01625766 -0.01561404 -0.01497198 -0.01433363 -0.01369916 -0.01307059 -0.01244797 -0.01182978
 -0.01121561 -0.01060086 -0.009985116 -0.009363683 -0.008736822 -0.008102355 -0.007461996 -0.006818211 -0.006172749 -0.005529801
 -0.00488874 -0.004250944 -0.003613945 -0.002976007 -0.002336751 -0.001695037 -0.001053047 -0.0004112244 0.0002285811 0.0008658757
 0.001499553 0.002129226 0.002755576 0.003378384 0.00400299 0.004629666 0.005263789 0.005904865 0.00654959 0.007196869
 0.007838583 0.008475442 0.009105137 0.009729742 0.01035346 0.01097573 0.01159823 0.01221798 0.012832 0.01343952
 0.01403777 0.01463124 0.01522043 0.01581281 0.01641134 0.01701934 0.01763927 0.01826532 0.01889753 0.01952633
 0.02015075 0.02076668 0.02137394 0.0219751 0.02257034 0.02316227 0.02375089 0.02433744 0.02492199 0.02550589
 0.02608836 0.0266687 0.02724535 0.02781512 0.02837846 0.02893421 0.02948461 0.03003117 0.03057474 0.0311164
 0.03165534 0.03219142 0.0327243 0.03325395 0.03377969 0.03430131 0.03481909 0.03533274 0.035847 0.03636213
 0.03688439 0.03741357 0.037949 0.03848961 0.03902886 0.0395664 0.04009775 0.04062283 0.04113955 0.04164732
 0.04214371 0.04262981 0.04310494 0.04357306 0.04403681 0.04449948 0.04496401 0.04542997 0.04589796 0.04636662
 0.04683554 0.047305 0.04777499 0.04824588 0.04871791 0.04918846 0.04965741 0.05011942 0.05057431 0.05101818
 0.05145176 0.05187715 0.05229544 0.05271189 0.0531261 0.05353987 0.053952 0.05436078 0.05476686 0.05517014
 0.05557183 0.05597388 0.05637348 0.05677021 0.05715972 0.05753936 0.05791077 0.05827298 0.05863303 0.0589922
 0.0593533 0.05971724 0.06007754 0.06043389 0.06077783 0.06110941 0.06142744 0.06173297 0.06203214 0.06232503
 0.0626158 0.06290222 0.06318077 0.06345022 0.06370569 0.06395041 0.06418528 0.06441603 0.06464782 0.06488341
 0.06512672 0.06537465 0.06562781 0.06587931 0.06612771 0.06636701 0.06659546 0.06681357 0.06702071 0.0672248
 0.06742627 0.06763152 0.06784029 0.06804966 0.06825859 0.06845862 0.06864978 0.06882726 0.06899269 0.06914745
 0.06929317 0.0694332 0.06956863 0.06970168 0.06983396 0.06996691 0.0701033 0.07024501 0.07039381 0.07055181
 0.07071535 0.07088532 0.07105057 0.07120977 0.07135152 0.07147402 0.07157599 0.07165717 0.07172934 0.07179329
 0.07186305 0.07193805 0.07202221 0.07211275 0.07220113 0.07228533 0.07235492 0.07241218 0.07245541 0.07248975
 0.07252091 0.07255198 0.07258801 0.07262833 0.07267433 0.07272327 0.0727749 0.07282481 0.07287209 0.07291197
 0.07294298 0.07296579 0.0729796 0.07299422 0.07301016 0.07303827 0.07307866 0.07313341 0.07320202 0.07328148
 0.07337276 0.0734778 0.07359853 0.07374253 0.07390681 0.07409316 0.07428842 0.07447941 0.07464948 0.07477765
 0.07486232 0.07489105 0.0748876 0.07485545 0.07482693 0.07481331 0.0748251 0.07486881 0.07492644 0.07499753
 0.07505777 0.07510542 0.07513148 0.07513624 0.07512595 0.07510137 0.07507107 0.07503469 0.07499527 0.07495215
 0.07490463 0.07485343 0.07479933 0.07474359 0.07468835 0.07463372 0.07458077 0.07452849 0.07447678 0.07442416
 0.07437117 0.07431183 0.0742462 0.07416135 0.07405482 0.07391821 0.07374905 0.07355686 0.07334179 0.07312592
 0.0729101 0.07270952 0.0725231 0.07235041 0.07218938 0.07203148 0.07187523 0.07171206 0.071542 0.07136019
 0.07116984 0.07097219 0.07077291 0.07057803 0.07038935 0.07021129 0.07003795 0.0698686 0.06969535 0.06951511
 0.06932649 0.06912781 0.0689256 0.06871996 0.06852155 0.06833114 0.06815552 0.06799444 0.06784165 0.06769504
 0.06753501 0.06736057 0.06715526 0.06692357 0.06666788 0.06639633 0.06612582 0.06586014 0.06561301 0.0653798
 0.06516202 0.06495184 0.06474445 0.0645359 0.0643225 0.06410635 0.06388689 0.06366863 0.06345256 0.06324049
 0.06303311 0.06282746 0.06262349 0.06241492 0.06220151 0.06197922 0.06174834 0.06150945 0.06126304 0.06101176
 0.06075552 0.06049508 0.06023103 0.05996417 0.05969682 0.05943255 0.05917269 0.05892115 0.05867385 0.05843018
 0.05818359 0.05792985 0.05766983 0.05740156 0.05713387 0.05686846 0.05661 0.05636017 0.05611175 0.05586448
 0.05560807 0.0553423 0.05506608 0.05478028 0.05449226 0.05420222 0.05391551 0.05363066 0.05334619 0.05306076
 0.05277028 0.05247611 0.05217774 0.05187869 0.05158247 0.05129041 0.05100569 0.05072388 0.0504444 0.05016094
 0.04987058 0.04957375 0.04926861 0.04896587 0.04866617 0.04838281 0.04811707 0.04787287 0.04765001 0.04743783
 0.04723475 0.04702201 0.04679913 0.04655277 0.04628572 0.04599838 0.0456956 0.04538728 0.04507677 0.04477343
 0.0444771 0.04419163 0.04391384 0.04364333 0.04337541 0.04310798 0.04283746 0.0425615 0.04228198 0.04199792
 0.04171752 0.04144159 0.04117736 0.04092573 0.04068502 0.04045501 0.04022815 0.04000463 0.03978252 0.03956376
 0.039357 0.0391633 0.03899208 0.03883922 0.03870258 0.03857336 0.03843791 0.03829065 0.03811879 0.03792752
 0.03771433 0.03749252 0.03726776 0.03704906 0.03684204 0.0366436 0.03645459 0.03626772 0.03608154 0.03589653
 0.03571231 0.03553662 0.03536977 0.03521554 0.03507336 0.03493905 0.03481207 0.03468733 0.03456533 0.0344453
 0.0343273 0.03421183 0.03409697 0.03398025 0.03385986 0.03373252 0.03359896 0.03345831 0.0333128 0.03316371
 0.0330108 0.03285506 0.0326921 0.03252158 0.0323376 0.03213911 0.03192394 0.03169149 0.03144675 0.03119007
 0.03093133 0.03067108 0.0304187 0.03017361 0.02993842 0.0297111 0.02948698 0.02926355 0.02903288 0.02879444
 0.02854323 0.02828198 0.02801112 0.02773494 0.02745667 0.02717907 0.02690474 0.02663325 0.02636549 0.02609828
 0.02583141 0.02556027 0.02528409 0.02500044 0.02470871 0.024413 0.02411355 0.02381855 0.02352789 0.02324373
 0.02296443 0.02268191 0.02239553 0.02209742 0.02179159 0.02148231 0.02117518 0.02088218 0.0206023 0.02034138
 0.02008951 0.01984198 0.01958885 0.01932251 0.01904296 0.0187469 0.01844396 0.01813519 0.0178315 0.01753483
 0.01725046 0.0169792 0.01672057 0.01647459 0.01623994 0.01601673 0.01580606 0.01560766 0.01542176 0.01524597
 0.01507305 0.01489941 0.01471248 0.01451269 0.01429281 0.01406142 0.01382321 0.01359119 0.01337645 0.01318753
 0.01303295 0.01291134 0.01282503 0.01276673 0.01273529 0.01272436 0.01273251 0.01275849 0.01280189 0.01286476
 0.01294717 0.01304984 0.01317274 0.01331532 0.01347823 0.01366423 0.0138752 0.01411962 0.01439775 0.01471615
 0.01506987 0.0154555 0.01586433 0.01628541 0.01671287 0.01713772 0.01756092 0.01797998 0.01839961 0.0188215
 0.01924678 0.01967707 0.02010663 0.02053544 0.02095391 0.02136121 0.02174952 0.02211837 0.0224645 0.02278774
 0.02308549 0.0233571 0.0235971 0.02380523 0.02397678 0.02411388 0.02421841 0.02429423 0.02434798 0.02438362
 0.0244069 0.02442407 0.02443969 0.02446484 0.02450567 0.02457278 0.0246726 0.0248056 0.02497465 0.02516937
 0.02538916 0.0256211 0.02586393 0.02610864 0.02635467 0.02659505 0.02682927 0.02704938 0.02725436 0.02743452
 0.02758809 0.0277039 0.02778016 0.02780642 0.02778343 0.0277066 0.02758053 0.0274084 0.02719519 0.02694677
 0.02666325 0.02634774 0.02599365 0.02560049 0.02515743 0.0246624 0.02410402 0.02347974 0.02278469 0.02201693
 0.02118884 0.02030081 0.01938699 0.01844998 0.01753394 0.01664057 0.01580359 0.01502102 0.01430446 0.01364897
 0.01304861 0.01249859 0.01198825 0.01151436 0.01106958 0.01065045 0.0102526 0.009871539 0.00950365 0.009146256
 0.00879668 0.008457624 0.008128733 0.007815649 0.007519549 0.007242247 0.006984361 0.006742713 0.006517165 0.006303756
 0.006102341 0.005910608 0.005728117 0.005551303 0.005378807 0.005204159 0.005024909 0.004832521 0.004623217 0.004387258
 0.004120472 0.003813593 0.00346565 0.003071198 0.002635897 0.002159825 0.001653919 0.001121278 0.00057439 1.603634E-05
 -0.0005402575 -0.001092569 -0.001626389 -0.002140125 -0.002622214 -0.003071777 -0.003484403 -0.003860406 -0.004204279 -0.004518279
 -0.004817887 -0.005108879 -0.005420197 -0.00576053 -0.006167457 -0.00664476 -0.00722063 -0.007883013 -0.008634251 -0.009444471
 -0.01029271 -0.01114544 -0.01197661 -0.01276921 -0.0135076 -0.01419781 -0.0148369 -0.01544128 -0.01601359 -0.01656451
 -0.01709594 -0.01760891 -0.01810368 -0.01857721 -0.01902951 -0.01946034 -0.01987037 -0.02026403 -0.02064259 -0.02101371
 -0.02137805 -0.02174163 -0.02210339 -0.0224644 -0.02282293 -0.02317703 -0.02352604 -0.0238685 -0.02420496 -0.02453546
 -0.02486021 -0.02517929 -0.02549282 -0.02580061 -0.02610412 -0.02640354 -0.02670039 -0.02699509 -0.02728627 -0.02757393
 -0.02785406 -0.02812657 -0.02838975 -0.02864423 -0.02889378 -0.02913941 -0.02938791 -0.02963874 -0.02989463 -0.03015277
 -0.03040918 -0.03066167 -0.03090454 -0.03114056 -0.03136923 -0.03159656 -0.03182684 -0.03206154 -0.03230395 -0.03254715
 -0.03279051 -0.03302494 -0.03324819 -0.03345753 -0.03365189 -0.0338357 -0.03400908 -0.03417933 -0.03434679 -0.03451795
 -0.03469269 -0.03487347 -0.03505935 -0.03524788 -0.03543785 -0.03562443 -0.03580743 -0.03598396 -0.03615499 -0.03632046
 -0.03648173 -0.03663978 -0.03679629 -0.03695254 -0.03710977 -0.03726915 -0.03742984 -0.03759226 -0.03775333 -0.03791262
 -0.03806724 -0.03821665 -0.03836048 -0.03849856 -0.03863355 -0.03876568 -0.03889958 -0.03903539 -0.03917656 -0.03932251
 -0.03947268 -0.03962599 -0.03977897 -0.03993139 -0.04008089 -0.04022847 -0.04037459 -0.04051974 -0.04066482 -0.04080921
 -0.04095259 -0.04109507 -0.04123627 -0.04137778 -0.04151998 -0.04166411 -0.04181055 -0.04195966 -0.04211142 -0.04226716
 -0.04242692 -0.04259345 -0.04276683 -0.04294781 -0.04313596 -0.04332821 -0.04352391 -0.04371845 -0.04391156 -0.04410011
 -0.04428406 -0.04446185 -0.04463362 -0.04479856 -0.04495788 -0.04511186 -0.04526348 -0.04541452 -0.04556792 -0.04572585
 -0.04588819 -0.04605579 -0.04622583 -0.04639792 -0.04656966 -0.04674057 -0.04691034 -0.04707886 -0.04724722 -0.0474155
 -0.04758475 -0.04775497 -0.04792643 -0.0480989 -0.04827141 -0.04844342 -0.04861271 -0.04877884 -0.04893965 -0.04909542
 -0.04924526 -0.04939062 -0.04953212 -0.04967254 -0.04981372 -0.04995827 -0.05010821 -0.05026341 -0.05042485 -0.05058897
 -0.0507554 -0.05092003 -0.05108219 -0.05124001 -0.0513932 -0.05154256 -0.05168814 -0.05183163 -0.05197309 -0.05211391
 -0.05225405 -0.05239422 -0.0525341 -0.05267311 -0.05281077 -0.05294583 -0.05307796 -0.05320603 -0.05333023 -0.05345017
 -0.05356673 -0.05368035 -0.05379184 -0.05390175 -0.05401028 -0.05411743 -0.05422411 -0.05433026 -0.05443798 -0.05454752
 -0.0546607 -0.05477774 -0.05489852 -0.05502301 -0.05514985 -0.0552791 -0.05541096 -0.05554558 -0.05568421 -0.05582622
 -0.05597054 -0.05611594 -0.05625908 -0.05639961 -0.05653504 -0.05666701 -0.056796 -0.05692431 -0.05705369 -0.05718568
 -0.05732157 -0.05746161 -0.05760631 -0.05775481 -0.05790717 -0.05806157 -0.05821784 -0.05837394 -0.05852964 -0.05868426
 -0.05883777 -0.05899061 -0.05914276 -0.0592941 -0.05944449 -0.05959295 -0.05973956 -0.05988375 -0.06002635 -0.06016861
 -0.06031188 -0.06045875 -0.06060984 -0.06076714 -0.06092965 -0.06109775 -0.06126885 -0.06144219 -0.06161426 -0.06178386
 -0.0619483 -0.06210644 -0.06225874 -0.06240468 -0.06254873 -0.06269114 -0.06283726 -0.06298732 -0.06314284 -0.06330351
 -0.06346637 -0.06363098 -0.06379316 -0.06395318 -0.06410946 -0.06426294 -0.06441495 -0.06456605 -0.06471816 -0.06487025
 -0.06502216 -0.06517202 -0.06531809 -0.06546013 -0.06559695 -0.0657312 -0.06586326 -0.0659964 -0.06613164 -0.0662699
 -0.0664117 -0.06655543 -0.06670112 -0.06684594 -0.06698973 -0.06712916 -0.06726418 -0.06739311 -0.06751646 -0.06763615
 -0.06775293 -0.06787059 -0.06798905 -0.06811028 -0.0682334 -0.06835774 -0.06848295 -0.06860838 -0.06873395 -0.06885964
 -0.06898452 -0.06910817 -0.06922957 -0.06934792 -0.06946413 -0.06957794 -0.06969231 -0.06980768 -0.06992602 -0.07004772
 -0.07017119 -0.07029635 -0.07041983 -0.0705416 -0.07066 -0.07077552 -0.07088999 -0.07100388 -0.07112003 -0.07123812
 -0.0713589 -0.07148159 -0.07160499 -0.07172921 -0.07185353 -0.07197937 -0.07210752 -0.07223941 -0.07237619 -0.07251786
 -0.07266498 -0.07281584 -0.07297039 -0.07312597 -0.07328223 -0.07343669 -0.07358902 -0.07373834 -0.07388461 -0.07402904
 -0.07417177 -0.0743147 -0.07445776 -0.07460146 -0.07474554 -0.07488914 -0.07503241 -0.07517514 -0.07531787 -0.07546154
 -0.07560602 -0.0757518 -0.07589764 -0.07604258 -0.07618626 -0.07632795 -0.0764688 -0.07660919 -0.07674962 -0.07689059
 -0.07703062 -0.07716957 -0.07730622 -0.07744028 -0.07757343 -0.07770575 -0.07783953 -0.07797473 -0.07811114 -0.07824843
 -0.07838421 -0.07851835 -0.07864881 -0.07877626 -0.07890104 -0.07902446 -0.0791489 -0.07927516 -0.07940541 -0.07953895
 -0.07967631 -0.07981537 -0.07995497 -0.080094 -0.08023157 -0.08036812 -0.08050362 -0.08063839 -0.08077265 -0.08090503
 -0.08103542 -0.08116204 -0.08128475 -0.0814043 -0.08152093 -0.08163838 -0.08175694 -0.08188064 -0.08200903 -0.08214296
 -0.0822812 -0.08242132 -0.08256216 -0.08270039 -0.08283616 -0.08296804 -0.08309749 -0.08322511 -0.08335254 -0.0834811
 -0.08361097 -0.08374295 -0.08387497 -0.08400672 -0.08413605 -0.0842623 -0.08438583 -0.08450639 -0.08462745 -0.08474919
 -0.08487474 -0.08500405 -0.08513668 -0.08527213 -0.08540684 -0.0855406 -0.08567046 -0.08579713 -0.08592083 -0.08604258
 -0.08616447 -0.08628648 -0.0864097 -0.08653298 -0.08665561 -0.08677691 -0.08689602 -0.08701372 -0.08713008 -0.08724606
 -0.08736219 -0.08747753 -0.08759202 -0.08770481 -0.08781563 -0.08792613 -0.08803634 -0.08814958 -0.08826586 -0.088386
 -0.0885095 -0.08863313 -0.08875654 -0.08887634 -0.08899323 -0.08910707 -0.08921929 -0.08933243 -0.08944731 -0.08956607
 -0.08968867 -0.08981568 -0.08994717 -0.09008296 -0.09022441 -0.09037168 -0.09052735 -0.09069213 -0.09086801 -0.09105582
 -0.09125401 -0.09146295 -0.09167619 -0.0918934 -0.09210694 -0.09231652 -0.09251776 -0.09271087 -0.09289546 -0.09307175
 -0.09324056 -0.09340177 -0.09355576 -0.09370179 -0.0938392 -0.0939659 -0.09407949 -0.09417699 -0.09425466 -0.09431158
 -0.0943443 -0.09435957 -0.09435719 -0.09435185 -0.09434665 -0.0943566 -0.09438489 -0.09444115 -0.0945273 -0.09464383
 -0.09479122 -0.09495755 -0.0951418 -0.09532339 -0.09550171 -0.09566194 -0.0958054 -0.09592951 -0.09603642 -0.09613052
 -0.09621358 -0.09629118 -0.09636354 -0.09643369 -0.09649999 -0.09656166 -0.09661851 -0.09666925 -0.09671744 -0.09676422
 -0.09681264 -0.09686459 -0.09691759 -0.0969718 -0.09702269 -0.09706941 -0.09711241 -0.0971515 -0.09719257 -0.09723584
 -0.09728526 -0.09734037 -0.09739923 -0.09746106 -0.09752105 -0.09757962 -0.0976352 -0.09768925 -0.09774382 -0.0977999
 -0.09785987 -0.09792335 -0.0979909 -0.09806163 -0.09813516 -0.09821063 -0.09828769 -0.09836538 -0.09844337 -0.09852114
 -0.09859844 -0.09867571 -0.09875293 -0.09883093 -0.09890979 -0.09898926 -0.09906931 -0.09914853 -0.0992269 -0.09930348
 -0.09937861 -0.09945313 -0.09952758 -0.09960403 -0.09968253 -0.09976431 -0.09984885 -0.09993619 -0.1000252 -0.1001152
 -0.1002046 -0.1002925 -0.1003776 -0.1004588 -0.1005366 -0.1006103 -0.1006831 -0.1007554 -0.1008302 -0.1009084
 -0.1009892 -0.1010728 -0.101156 -0.1012387 -0.1013185 -0.1013956 -0.1014694 -0.1015403 -0.1016089 -0.1016753
 -0.1017407 -0.1018052 -0.1018702 -0.1019354 -0.102001 -0.1020669 -0.1021327 -0.102199 -0.1022659 -0.1023345
 -0.1024054 -0.1024786 -0.1025544 -0.1026317 -0.1027103 -0.1027888 -0.1028669 -0.1029435 -0.1030183 -0.1030903
 -0.1031596 -0.1032258 -0.103289 -0.1033503 -0.1034098 -0.1034692 -0.1035287 -0.1035895 -0.1036514 -0.1037151
 -0.1037797 -0.1038448 -0.1039094 -0.1039726 -0.1040338 -0.1040923 -0.1041486 -0.1042026 -0.1042552 -0.1043066
 -0.1043582 -0.1044103 -0.1044646 -0.1045212 -0.1045821 -0.1046474 -0.1047173 -0.1047918 -0.1048687 -0.1049477
 -0.105025 -0.1051007 -0.1051724 -0.1052407 -0.105306 -0.1053687 -0.1054304 -0.1054907 -0.10555 -0.1056078
 -0.1056634 -0.1057173 -0.1057692 -0.1058209 -0.1058729 -0.1059273 -0.1059849 -0.1060466 -0.1061131 -0.1061834
 -0.1062576 -0.106333 -0.1064094 -0.1064832 -0.1065542 -0.10662 -0.1066809 -0.1067367 -0.1067878 -0.1068361
 -0.1068818 -0.1069272 -0.1069724 -0.1070186 -0.1070658 -0.1071146 -0.107165 -0.1072171 -0.107271 -0.107327
 -0.1073851 -0.1074453 -0.1075077 -0.1075725 -0.1076387 -0.1077066 -0.1077735 -0.1078391 -0.1079009 -0.1079587
 -0.1080127 -0.108063 -0.1081127 -0.1081619 -0.1082125 -0.108264 -0.1083156 -0.1083672 -0.1084173 -0.1084663
 -0.1085143 -0.1085616 -0.1086087 -0.1086556 -0.1087024 -0.108749 -0.1087954 -0.1088417 -0.1088879 -0.1089341
 -0.1089802 -0.1090257 -0.1090703 -0.1091141 -0.1091569 -0.1092 -0.1092436 -0.1092889 -0.109336 -0.1093851
 -0.109436 -0.1094881 -0.1095412 -0.1095944 -0.1096475 -0.1096994 -0.10975 -0.1097979 -0.1098435 -0.1098863
 -0.1099275 -0.1099684 -0.1100105 -0.1100552 -0.1101029 -0.1101539 -0.1102076 -0.1102639 -0.1103212 -0.1103795
 -0.1104365 -0.1104923 -0.1105442 -0.110592 -0.110635 -0.1106733 -0.1107095 -0.1107438 -0.1107801 -0.1108182
 -0.1108594 -0.1109032 -0.1109485 -0.1109954 -0.1110432 -0.1110926 -0.1111447 -0.1111992 -0.111257 -0.1113157
 -0.1113741 -0.1114299 -0.1114808 -0.1115278 -0.1115704 -0.1116116 -0.1116522 -0.1116938 -0.1117371 -0.1117811
 -0.1118256 -0.1118702 -0.1119147 -0.1119596 -0.112005 -0.1120513 -0.1120983 -0.1121452 -0.1121919 -0.1122378
 -0.1122833 -0.1123289 -0.1123751 -0.1124229 -0.1124721 -0.1125231 -0.1125752 -0.1126279 -0.1126809 -0.1127338
 -0.1127868 -0.1128399 -0.1128941 -0.1129497 -0.1130069 -0.1130659 -0.1131254 -0.1131855 -0.1132446 -0.1133026
 -0.1133587 -0.1134129 -0.1134657 -0.1135171 -0.1135679 -0.1136179 -0.1136673 -0.1137158 -0.1137629 -0.1138089
 -0.1138541 -0.1138995 -0.1139463 -0.1139954 -0.1140483 -0.1141047 -0.1141652 -0.1142287 -0.1142953 -0.114363
 -0.1144317 -0.1144988 -0.1145641 -0.1146258 -0.1146835 -0.1147382 -0.1147901 -0.1148421 -0.1148942 -0.1149481
 -0.1150034 -0.1150578 -0.115111 -0.1151596 -0.1152044 -0.1152452 -0.115284 -0.115324 -0.1153666 -0.1154153
 -0.1154693 -0.1155296 -0.1155931 -0.1156584 -0.1157222 -0.1157823 -0.1158382 -0.1158888 -0.1159374 -0.1159844
 -0.116034 -0.116087 -0.1161427 -0.1162012 -0.1162566 -0.1163088 -0.1163528 -0.1163893 -0.1164197 -0.1164452
 -0.1164715 -0.1164991 -0.1165328 -0.116572 -0.1166177 -0.1166684 -0.1167227 -0.1167788 -0.1168344 -0.116888
 -0.1169379 -0.1169842 -0.1170263 -0.1170658 -0.1171031 -0.1171404 -0.1171782 -0.1172174 -0.1172583 -0.1173005
 -0.1173439 -0.1173877 -0.1174317 -0.117475 -0.1175176 -0.1175587 -0.1175982 -0.1176362 -0.1176727 -0.117708
 -0.1177425 -0.1177764 -0.11781 -0.1178437 -0.1178784 -0.1179147 -0.1179536 -0.117996 -0.1180411 -0.1180895
 -0.1181384 -0.1181871 -0.1182332 -0.1182759 -0.1183146 -0.1183488 -0.1183801 -0.1184086 -0.1184366 -0.1184643
 -0.1184927 -0.1185215 -0.1185504 -0.1185791 -0.1186071 -0.1186348 -0.1186632 -0.1186926 -0.1187246 -0.1187584
 -0.1187943 -0.1188311 -0.118868 -0.1189045 -0.1189399 -0.118974 -0.1190065 -0.1190368 -0.1190646 -0.1190894
 -0.1191109 -0.11913 -0.1191464 -0.1191623 -0.1191778 -0.1191951 -0.1192142 -0.1192366 -0.119262 -0.119289
 -0.119317 -0.1193434 -0.119368 -0.1193889 -0.1194065 -0.1194206 -0.1194319 -0.1194411 -0.1194491 -0.1194567
 -0.119465 -0.1194749 -0.1194864 -0.1194997 -0.119514 -0.1195291 -0.1195442 -0.1195592 -0.1195739 -0.1195884
 -0.119602 -0.1196148 -0.1196255 -0.1196342 -0.1196404 -0.1196445 -0.1196476 -0.1196501 -0.1196544 -0.119661
 -0.1196722 -0.1196873 -0.1197064 -0.1197276 -0.1197485 -0.1197667 -0.1197793 -0.1197861 -0.119786 -0.1197814
 -0.1197731 -0.1197637 -0.1197545 -0.1197452 -0.1197363 -0.119725 -0.119711 -0.1196929 -0.1196704 -0.1196463
 -0.1196206 -0.1195964 -0.1195737 -0.1195533 -0.1195347 -0.1195177 -0.1195018 -0.119487 -0.119472 -0.1194549
 -0.1194345 -0.1194075 -0.1193754 -0.1193376 -0.1192981 -0.1192595 -0.1192233 -0.1191915 -0.1191617 -0.1191335
 -0.1191043 -0.1190733 -0.1190398 -0.1190036 -0.1189647 -0.1189233 -0.1188791 -0.1188321 -0.1187823 -0.1187297
 -0.1186746 -0.1186169 -0.1185573 -0.1184958 -0.1184335 -0.1183701 -0.1183061 -0.1182412 -0.1181757 -0.1181094
 -0.1180425 -0.1179743 -0.1179048 -0.1178319 -0.1177546 -0.1176719 -0.1175829 -0.1174899 -0.1173931 -0.1172952
 -0.1171967 -0.1170971 -0.1169963 -0.1168923 -0.1167851 -0.1166739 -0.1165588 -0.1164399 -0.116317 -0.1161902
 -0.1160591 -0.1159233 -0.1157827 -0.1156366 -0.115485 -0.1153277 -0.1151652 -0.114998 -0.1148259 -0.114649
 -0.1144665 -0.1142776 -0.1140836 -0.113884 -0.1136837 -0.1134833 -0.1132866 -0.1130948 -0.1129047 -0.1127167
 -0.1125211 -0.1123173 -0.1120945 -0.1118528 -0.1115887 -0.1113039 -0.1110055 -0.1106947 -0.1103797 -0.1100582
 -0.10973 -0.1093914 -0.1090362 -0.1086633 -0.1082687 -0.1078541 -0.1074198 -0.1069676 -0.1064988 -0.1060134
 -0.1055126 -0.1049922 -0.1044523 -0.1038846 -0.1032878 -0.1026595 -0.101999 -0.1013164 -0.1006121 -0.09989554
 -0.09916613 -0.09842052 -0.09765825 -0.09687474 -0.09607176 -0.09525426 -0.09442031 -0.093571 -0.09269662 -0.09178223
 -0.09082412 -0.08980693 -0.08874962 -0.08765826 -0.08655696 -0.08546247 -0.08437475 -0.08329913 -0.08222252 -0.08114123
 -0.0800563 -0.0789664 -0.07788322 -0.0768082 -0.07573881 -0.07467479 -0.07359881 -0.07251208 -0.071418 -0.07032361
 -0.06926881 -0.06825627 -0.06731955 -0.06644785 -0.06563589 -0.06486872 -0.06412174 -0.06338502 -0.06264092 -0.06187941
 -0.06109274 -0.06025921 -0.0593714 -0.05839511 -0.05731863 -0.05611408 -0.05477005 -0.05328953 -0.05166806 -0.04994063
 -0.04810875 -0.0462183 -0.04427166 -0.04230418 -0.04031487 -0.03830847 -0.03627656 -0.03417797 -0.03200286 -0.02968735
 -0.02724934 -0.02468377 -0.02204484 -0.0194189 -0.01682934 -0.01434898 -0.01193441 -0.00957936 -0.007234769 -0.004866785
 -0.00247458 -4.672163E-05 0.00239131 0.004834136 0.007272093 0.009703664 0.01211901 0.01451789 0.01687879 0.01920073
 0.02148768 0.0237408 0.02597998 0.02819902 0.03037377 0.03249581 0.03451478 0.03644715 0.0382988 0.04010412
 0.0419294 0.04376997 0.04566292 0.04754247 0.04936688 0.05110087 0.0527017 0.05420845 0.05562792 0.05698454
 0.05829392 0.05951826 0.06065567 0.06166079 0.06252787 0.06324944 0.06382488 0.06426302 0.0645639 0.06472928
 0.06476013 0.0646616 0.06443743 0.06410354 0.06366236 0.06312712 0.06249897 0.06178272 0.06098662 0.06011678
 0.05919452 0.05823513 0.05726287 0.05629571 0.05534245 0.05441187 0.05349811 0.05260051 0.0517176 0.05084772
 0.05000153 0.04918008 0.0483889 0.04762835 0.04688725 0.04616466 0.04544518 0.04472912 0.04401076 0.0432907
 0.04256904 0.04184387 0.04111111 0.04036793 0.03960745 0.03882921 0.03803013 0.03721036 0.03636938 0.03550636
 0.03461975 0.03371284 0.0327853 0.03184516 0.03089455 0.02993776 0.02897621 0.02800835 0.02703378 0.02605647
 0.02507659 0.02410777 0.02315031 0.02221259 0.02129242 0.02038063 0.01947439 0.01855659 0.01763019 0.01669213
 0.01575049 0.01481939 0.01389908 0.01299779 0.01210641 0.01121813 0.01033318 0.009446584 0.008572462 0.007717781
 0.006880828 0.006068285 0.005244036 0.004404504 0.003510564 0.002554868 0.001551977 0.0005019148 -0.0005311082 -0.001545817
 -0.002511942 -0.003435252 -0.004339429 -0.005227344 -0.006123982 -0.0070243 -0.00792867 -0.008830583 -0.009717602 -0.0105897
 -0.01144055 -0.01227595 -0.01310031 -0.01391241 -0.01471635 -0.01549662 -0.01624787 -0.01696014 -0.01762715 -0.01825882
 -0.01885541 -0.01942938 -0.01998273 -0.02051514 -0.02102678 -0.02151049 -0.02196616 -0.02239141 -0.02278672 -0.02315389
 -0.02349362 -0.0238074 -0.02410014 -0.02438014 -0.02466356 -0.02497752 -0.02534723 -0.02581425 -0.0263936 -0.02711751
 -0.02797188 -0.02896338 -0.03005505 -0.03123491 -0.03247271 -0.0337582 -0.03507509 -0.03642334 -0.03776346 -0.03909414
 -0.04034873 -0.04152245 -0.0425949 -0.04356869 -0.04449294 -0.04537248 -0.04626635 -0.04717125 -0.04810759 -0.04906471
 -0.05002484 -0.05098083 -0.05191141 -0.05281464 -0.05368257 -0.05450676 -0.0552811 -0.05598782 -0.05661548 -0.05715036
 -0.05758296 -0.05791229 -0.0581358 -0.05825757 -0.05827828 -0.05819874 -0.0580194 -0.05773689 -0.05735103 -0.05685724
 -0.05625613 -0.05555662 -0.05476474 -0.05392636 -0.05305138 -0.05220716 -0.05139449 -0.05065229 -0.0499706 -0.04934867
 -0.04877852 -0.04824879 -0.04775722 -0.04729943 -0.04687019 -0.04646598 -0.04608038 -0.04570664 -0.04535539 -0.04502516
 -0.04474195 -0.04451196 -0.04434206 -0.04423611 -0.04417008 -0.04414301 -0.04412123 -0.04410344 -0.04406723 -0.04401362
 -0.04393972 -0.04384733 -0.0437438 -0.04362698 -0.04349752 -0.04334601 -0.04315794 -0.04291858 -0.04260412 -0.04220163
 -0.0416921 -0.04106651 -0.040316 -0.03942926 -0.03840025 -0.03721905 -0.0358783 -0.03438983 -0.0327509 -0.03099814
 -0.0291348 -0.02719454 -0.02517997 -0.02310912 -0.02098384 -0.01883776 -0.01667881 -0.01458346 -0.01256177 -0.01070018
 -0.008998832 -0.007502896 -0.006206814 -0.005118585 -0.004239249 -0.003571898 -0.003122175 -0.002898267 -0.002897479 -0.003123871
 -0.003561976 -0.004209182 -0.005041468 -0.006053891 -0.007217823 -0.008528816 -0.009956738 -0.01149875 -0.01312236 -0.01482565
 -0.01656918 -0.01835086 -0.02013222 -0.02191293 -0.02367305 -0.02541372 -0.02713143 -0.02882292 -0.03047941 -0.03209179
 -0.033638 -0.03511205 -0.03649417 -0.03778962 -0.03899414 -0.04012112 -0.0411767 -0.04217508 -0.04312371 -0.04403235
 -0.04490599 -0.04574661 -0.04655626 -0.04732933 -0.04806577 -0.04875699 -0.04940245 -0.04999409 -0.05053138 -0.05100399
 -0.05141104 -0.0517399 -0.05199088 -0.05215724 -0.05224302 -0.0522549 -0.05220035 -0.05209584 -0.05195065 -0.05178265
 -0.05160279 -0.0514265 -0.05126444 -0.05112805 -0.05102291 -0.05095519 -0.05092307 -0.05092825 -0.05096319 -0.05102738
 -0.0511106 -0.05121179 -0.05132063 -0.05143619 -0.05155299 -0.05167099 -0.05179404 -0.05192332 -0.05207078 -0.05223788
 -0.05243823 -0.0526715 -0.05294484 -0.05325455 -0.05359764 -0.05396792 -0.05435596 -0.05475586 -0.0551584 -0.0555604
 -0.05595677 -0.05634728 -0.05673039 -0.05710756 -0.05747878 -0.0578461 -0.05820967 -0.05857263 -0.0589351 -0.05930224
 -0.05967438 -0.06005711 -0.06045064 -0.06085622 -0.06127313 -0.06169521 -0.06212102 -0.06254038 -0.06295221 -0.06334791
 -0.06372695 -0.06408418 -0.06441928 -0.06472958 -0.06501535 -0.06527548 -0.06551173 -0.06572449 -0.06591684 -0.06609026
 -0.06624711 -0.06638876 -0.06651503 -0.0666263 -0.06672081 -0.06679833 -0.06685795 -0.06689954 -0.06692383 -0.06693084
 -0.06692093 -0.066894 -0.06684911 -0.06678621 -0.06670449 -0.0666045 -0.06648724 -0.06635387 -0.06620716 -0.06604832
 -0.06588027 -0.06570406 -0.06552166 -0.06533418 -0.06514274 -0.06494864 -0.06475266 -0.06455614 -0.06435966 -0.06416409
 -0.06396956 -0.06377736 -0.06358743 -0.06340288 -0.06322388 -0.06305432 -0.06289443 -0.06274651 -0.06261063 -0.06248786
 -0.06237853 -0.06228473 -0.06220706 -0.06214887 -0.06210978 -0.06209119 -0.06209115 -0.06210763 -0.0621381 -0.06217887
 -0.06222934 -0.06228732 -0.06235506 -0.06243289 -0.0625236 -0.06262863 -0.06274781 -0.06288183 -0.06302718 -0.06318367
 -0.06334686 -0.06351642 -0.06368802 -0.06386143 -0.06403209 -0.06419973 -0.06436004 -0.06451306 -0.06465658 -0.06479095
 -0.06491626 -0.06503267 -0.06514069 -0.06524001 -0.06533046 -0.06541146 -0.06548214 -0.06554274 -0.06559261 -0.06563391
 -0.06566697 -0.06569562 -0.06572105 -0.06574688 -0.06577414 -0.06580511 -0.0658403 -0.06588063 -0.06592634 -0.06597636
 -0.06603063 -0.066085 -0.06613889 -0.06618457 -0.06622107 -0.0662392 -0.06623835 -0.0662114 -0.06615881 -0.06607787
 -0.06596992 -0.06583613 -0.06567694 -0.06549391 -0.06528519 -0.06505049 -0.06478629 -0.06449146 -0.0641607 -0.06379297
 -0.06337991 -0.06292022 -0.06240346 -0.06182796 -0.06118619 -0.06047704 -0.05969953 -0.05885355 -0.05794447 -0.05697308
 -0.05595018 -0.05487778 -0.05377256 -0.05263743 -0.05149132 -0.0503361 -0.04918562 -0.04803978 -0.04690398 -0.04577881
 -0.04466558 -0.04356879 -0.04249115 -0.04143979 -0.04041921 -0.03943378 -0.03848672 -0.03757705 -0.03670573 -0.03586786
 -0.03506325 -0.034285 -0.03353277 -0.03279725 -0.0320779 -0.03136426 -0.03065583 -0.02994394 -0.02922848 -0.02850436
 -0.0277719 -0.02702924 -0.02627717 -0.02551638 -0.02474799 -0.0239742 -0.0231956 -0.02241327 -0.02162874 -0.02084227
 -0.02005919 -0.01928109 -0.01851681 -0.01776977 -0.01704649 -0.0163501 -0.01567913 -0.01503475 -0.01440749 -0.01379682
 -0.01319188 -0.01259202 -0.01199113 -0.01138938 -0.01078768 -0.01018701 -0.009593354 -0.009008583 -0.008442212 -0.007896774
 -0.007383364 -0.006902968 -0.006463566 -0.006061245 -0.005696055 -0.005359612 -0.005046013 -0.004746572 -0.004455901 -0.004165309
 -0.003872489 -0.003562949 -0.003234891 -0.002866125 -0.002453656 -0.001975557 -0.001429175 -0.0008016776 -9.20983E-05 0.0007026841
 0.001582421 0.002544008 0.003586227 0.004700962 0.005884985 0.007123769 0.008410503 0.009723903 0.01105188 0.01236794
 0.01365342 0.01487992 0.01602246 0.01705435 0.0179501 0.01868855 0.01925448 0.01963458 0.01983408 0.01984776
 0.01970422 0.01940422 0.01899316 0.01847447 0.01789708 0.01726414 0.01661529 0.01595189 0.01529852 0.01465473
 0.01403022 0.0134235 0.01283382 0.01226049 0.01170028 0.01115584 0.01062932 0.01012617 0.009654214 0.00921619
 0.008818616 0.008457079 0.008132344 0.007834712 0.007561655 0.007301617 0.007052218 0.006800024 0.006543458 0.006265937
 0.005966055 0.00562612 0.005244979 0.004807626 0.004313483 0.003752472 0.003124572 0.002424622 0.001652935 0.0008078706
 -0.0001100862 -0.001101083 -0.002163388 -0.003295016 -0.004491722 -0.005748513 -0.007059004 -0.008416868 -0.009815254 -0.0112488
 -0.01271209 -0.01420175 -0.01571497 -0.01725018 -0.01880701 -0.0203854 -0.02198394 -0.02360306 -0.02523518 -0.02688008
 -0.02852273 -0.03016206 -0.03177819 -0.03336956 -0.03491578 -0.03641504 -0.03784894 -0.03921664 -0.04050541 -0.04171788
 -0.04285113 -0.04391319 -0.0449115 -0.04585719 -0.0467621 -0.04763485 -0.04848421 -0.04931348 -0.05012565 -0.05092308
 -0.05170618 -0.05248012 -0.05324576 -0.05400766 -0.05476678 -0.05552217 -0.05627395 -0.05701718 -0.05775162 -0.05847301
 -0.05918146 -0.05987597 -0.06055638 -0.06122212 -0.06187179 -0.06250222 -0.06310987 -0.0636871 -0.06423008 -0.06473024
 -0.06518677 -0.06559488 -0.06595846 -0.06627712 -0.06655928 -0.06680722 -0.06703188 -0.06723664 -0.0674298 -0.06761441
 -0.0677888 -0.06795407 -0.0680976 -0.06821868 -0.06830427 -0.06835405 -0.0683649 -0.06833757 -0.06827685 -0.06818304
 -0.06805976 -0.0679068 -0.06772416 -0.06751442 -0.06728063 -0.06703006 -0.0667728 -0.06651673 -0.06627362 -0.06604469
 -0.06583594 -0.06563976 -0.06545549 -0.06527179 -0.06508557 -0.0648875 -0.0646752 -0.06444342 -0.06419083 -0.06391877
 -0.06362694 -0.06332478 -0.06301297 -0.06270589 -0.06240444 -0.06212217 -0.06185982 -0.06162767 -0.06142629 -0.06126294
 -0.06113724 -0.0610525 -0.06100641 -0.0609979 -0.06102284 -0.06107768 -0.06115704 -0.06125758 -0.06137176 -0.061497
 -0.06162231 -0.06174529 -0.06185198 -0.06193978 -0.061996 -0.0620185 -0.0620014 -0.06194387 -0.0618485 -0.06171554
 -0.06155179 -0.0613578 -0.06114075 -0.06090157 -0.06064782 -0.06038132 -0.06011089 -0.05983881 -0.05957375 -0.05931726
 -0.05907537 -0.05884802 -0.058638 -0.05844242 -0.05826139 -0.05808836 -0.05792135 -0.05775192 -0.05757711 -0.05739133
 -0.05719246 -0.05698071 -0.05675552 -0.05652086 -0.05627697 -0.05602769 -0.05577328 -0.05551818 -0.05526291 -0.05501423
 -0.05477244 -0.05454302 -0.05432497 -0.05411816 -0.05392142 -0.05373183 -0.05354996 -0.05337545 -0.05320881 -0.05305117
 -0.05290057 -0.0527564 -0.05261587 -0.05247774 -0.05233953 -0.05220091 -0.05205698 -0.0519071 -0.05174486 -0.05156894
 -0.0513784 -0.05117271 -0.05095901 -0.05073771 -0.05051773 -0.05029919 -0.05008679 -0.04987991 -0.04967825 -0.04948082
 -0.04928437 -0.04908835 -0.0488896 -0.04868911 -0.04848683 -0.04828419 -0.04808328 -0.04788295 -0.04768377 -0.04748218
 -0.04727648 -0.04706484 -0.04684604 -0.04662056 -0.04638849 -0.0461493 -0.04590317 -0.04564719 -0.045381 -0.04510481
 -0.04481874 -0.04453061 -0.04424119 -0.04396169 -0.04369192 -0.04343735 -0.04319597 -0.04296431 -0.04274049 -0.04251852
 -0.04229828 -0.04207668 -0.0418552 -0.04163381 -0.04141528 -0.04120135 -0.04099465 -0.04079784 -0.04060866 -0.04042792
 -0.04024856 -0.04006874 -0.039886 -0.03969909 -0.03951327 -0.03932918 -0.03914618 -0.03896406 -0.03876568 -0.03854964
 -0.03829373 -0.03799878 -0.03765643 -0.03727093 -0.03685074 -0.03640135 -0.03593816 -0.03546645 -0.0350001 -0.03454415
 -0.0341088 -0.03369721 -0.03331546 -0.03296235 -0.03264007 -0.03234175 -0.03206571 -0.0318059 -0.03155949 -0.0313297
 -0.03111583 -0.03092807 -0.03076751 -0.03063791 -0.03053941 -0.03046181 -0.03040383 -0.03034738 -0.03029134 -0.03021982
 -0.03013342 -0.03002476 -0.02989708 -0.02975335 -0.02959792 -0.02943965 -0.0292789 -0.0291208 -0.02896003 -0.02879461
 -0.02861897 -0.02842881 -0.02822458 -0.02800408 -0.02777519 -0.02753807 -0.02730636 -0.02708178 -0.02687691 -0.02669355
 -0.02653213 -0.02639269 -0.02626069 -0.02613492 -0.02599636 -0.02584474 -0.02566837 -0.02546889 -0.02524535 -0.02500027
 -0.02473909 -0.02446304 -0.02417712 -0.02387969 -0.02357075 -0.02324901 -0.02291261 -0.02256374 -0.02220283 -0.02183252
 -0.02145397 -0.02106821 -0.02067521 -0.02027822 -0.01987766 -0.01947695 -0.01907702 -0.01867155 -0.01826023 -0.01782916
 -0.01737824 -0.01690229 -0.0164034 -0.01589075 -0.01536732 -0.01484792 -0.01433538 -0.01384287 -0.01337366 -0.01293853
 -0.01254011 -0.01218561 -0.01187557 -0.01161331 -0.01139633 -0.01122556 -0.01109351 -0.01099981 -0.01092936 -0.01088
 -0.01083249 -0.01078392 -0.01071827 -0.01063361 -0.01052115 -0.01038028 -0.01021004 -0.01001086 -0.009788312 -0.009543194
 -0.009282858 -0.009008126 -0.008725394 -0.008436096 -0.008146475 -0.007858384 -0.007577238 -0.007305291 -0.007045785 -0.006804479
 -0.006586249 -0.006397422 -0.006246042 -0.006123175 -0.006034142 -0.005939974 -0.005833739 -0.005675438 -0.005450814 -0.00518741
 -0.004883682 -0.004604999 -0.00435533 -0.004157501 -0.004010133 -0.003895065 -0.003809467 -0.003726245 -0.003645508 -0.003552635
 -0.003450851 -0.003340517 -0.003225176 -0.003110892 -0.003000214 -0.002899224 -0.002806944 -0.002726217 -0.002650042 -0.002576037
 -0.002496051 -0.002405152 -0.002304102 -0.002191098 -0.002074055 -0.001954476 -0.001834787 -0.001715689 -0.001593626 -0.001468286
 -0.001346219 -0.001228831 -0.001139485 -0.001080351 -0.001077859 -0.001131686 -0.00125624 -0.001446565 -0.00170119 -0.002006432
 -0.002342745 -0.002686529 -0.003002611 -0.003272352 -0.003463968 -0.003584072 -0.003623976 -0.003607409 -0.003542109 -0.003443603
 -0.003318662 -0.003168873 -0.002995111 -0.00279924 -0.002580583 -0.00235252 -0.002115765 -0.00188636 -0.001664105 -0.001446468
 -0.001230726 -0.0009954311 -0.000741029 -0.0004557642 -0.0001465443 0.0001744557 0.0005020059 0.0008193466 0.001129436 0.001429629
 0.00172256 0.002011764 0.002291931 0.002561408 0.002814216 0.003046021 0.00326 0.003454991 0.003640626 0.003818198
 0.003996199 0.004175727 0.004362016 0.004555529 0.004757086 0.004966437 0.005178832 0.005393487 0.005602671 0.005805677
 0.005995275 0.006171781 0.006331405 0.006477088 0.006611415 0.006739602 0.006869169 0.007003967 0.00714984 0.007308834
 0.007483177 0.007675819 0.007889172 0.008122036 0.008376857 0.008639942 0.008910193 0.009169788 0.009415518 0.009647133
 0.009863885 0.01008779 0.01032017 0.01058694 0.01088719 0.01122811 0.0116039 0.01199567 0.01239546 0.01277157
 0.0131209 0.01342135 0.01367778 0.01388736 0.01405588 0.01418876 0.01428619 0.01435 0.01437866 0.01437094
 0.0143299 0.01425583 0.01415304 0.01402296 0.01386433 0.01367771 0.01345565 0.01319773 0.01289536 0.01254834
 0.0121545 0.01171512 0.01123851 0.01072733 0.01019655 0.009649565 0.009101806 0.008559112 0.008037865 0.007546708
 0.007104927 0.006713971 0.006388006 0.006105558 0.005863198 0.005622223 0.005363704 0.005068364 0.00471962 0.004346134
 0.003946172 0.003575703 0.003242012 0.002977016 0.002784686 0.002645882 0.002560369</values></Ydata></AB><ScSm><Ydata ylabel="Single channel"><values byteorder="INTEL" format="FLOAT32" numvalues="1814"> 0.08735043 0.08744296 0.0875534 0.08769268 0.08785399 0.08801819 0.08816738 0.08829588 0.08840784 0.08850574
 0.08859062 0.08867614 0.08878724 0.0889361 0.08910619 0.08926417 0.08938475 0.08947126 0.08955781 0.08967835
 0.08982191 0.0899287 0.08994497 0.08988106 0.08980811 0.08979447 0.08985995 0.09000613 0.09025588 0.09059237
 0.0908736 0.09092338 0.09075066 0.09057891 0.09060025 0.09078385 0.0909676 0.09103833 0.09097578 0.09083559
 0.09077354 0.0909989 0.09158511 0.09231163 0.09273127 0.09242942 0.09129983 0.08969305 0.08833463 0.08794905
 0.08873807 0.09015593 0.09131575 0.09170593 0.09147172 0.09104037 0.09067443 0.09045843 0.09049439 0.09088921
 0.09157757 0.09224884 0.09246466 0.0919441 0.09088024 0.08991322 0.08960953 0.09001948 0.09086533 0.09188032
 0.09256801 0.0919495 0.08942249 0.0860829 0.08439766 0.08593275 0.08971586 0.09324692 0.09477685 0.0942414
 0.09254754 0.09076516 0.08984222 0.09028026 0.09180747 0.09365132 0.09515623 0.09596327 0.09584573 0.09481091
 0.0933163 0.09207799 0.09167068 0.09236007 0.09399802 0.09585945 0.09692812 0.09669587 0.09554595 0.09425397
 0.09341303 0.0934023 0.09442037 0.09625197 0.09828286 0.09995267 0.10105 0.1015936 0.101693 0.1015219
 0.1012357 0.1009496 0.1008559 0.1011241 0.1015681 0.1016847 0.1012137 0.1004902 0.1001064 0.1003021
 0.1007604 0.1009891 0.1008078 0.1002618 0.09912673 0.09701377 0.09416962 0.09160575 0.09011386 0.08970906
 0.09027049 0.09187955 0.0940415 0.09544096 0.09526063 0.09427943 0.09403032 0.0951426 0.09694342 0.09844442
 0.09930427 0.09988958 0.1006982 0.101795 0.1026654 0.1025949 0.1013979 0.09987344 0.09927629 0.1001048
 0.1016156 0.1027373 0.1031972 0.1034966 0.1040271 0.1045042 0.1042138 0.1027756 0.100792 0.0996417
 0.1003433 0.1025464 0.1047136 0.1052863 0.1037939 0.1011061 0.09870172 0.09760679 0.0979931 0.09959755
 0.10209 0.1049193 0.1072267 0.1082792 0.107976 0.1068281 0.1054022 0.1037938 0.1018265 0.0998697
 0.09905829 0.1002335 0.1028629 0.1054611 0.1069607 0.1073075 0.1068611 0.105675 0.1035862 0.1009498
 0.09897082 0.09881525 0.1002855 0.1018658 0.1023336 0.1019036 0.1015412 0.1016395 0.1018017 0.1016491
 0.1013827 0.1014951 0.1021425 0.1029493 0.1034099 0.1033586 0.1030061 0.1026382 0.1023443 0.1019678
 0.1013453 0.1006668 0.1004605 0.1010377 0.1020774 0.1029513 0.1033453 0.103381 0.1032349 0.1028379
 0.1019963 0.1007759 0.09968363 0.09930857 0.0997508 0.1005463 0.1011594 0.1013807 0.1012724 0.1009666
 0.1005779 0.1001726 0.0997822 0.09947982 0.09936776 0.09943754 0.09953308 0.09950709 0.09934047 0.09908037
 0.09874278 0.09832025 0.09784739 0.09741855 0.09712633 0.09698611 0.09693624 0.0969037 0.09683608 0.09668477
 0.09641892 0.09606642 0.09569669 0.09535722 0.0950563 0.09479836 0.09459835 0.09445454 0.09433161 0.0941842
 0.09399158 0.09376138 0.09350552 0.0932287 0.09294088 0.09266507 0.09242672 0.09223826 0.09208812 0.09194587
 0.09179484 0.09165385 0.09154072 0.09142438 0.09125084 0.09101243 0.09075843 0.09054027 0.09037197 0.09023609
 0.09010305 0.08994221 0.08973116 0.08947104 0.08920174 0.08898956 0.08887903 0.08885997 0.08888959 0.08892839
 0.08894332 0.08890759 0.08882158 0.08871469 0.08861041 0.08850534 0.08838891 0.088269 0.08817387 0.08813148
 0.0881414 0.08816822 0.08817124 0.08813599 0.08807245 0.08800241 0.0879547 0.08794424 0.08794399 0.08790585
 0.08782211 0.08774097 0.08770898 0.08771743 0.08771719 0.08767512 0.08760519 0.08754675 0.08752191 0.08752065
 0.08752303 0.08752391 0.08753319 0.08755691 0.08757921 0.08756658 0.0875002 0.08740237 0.08731732 0.08726696
 0.08724059 0.08722433 0.08721945 0.08722793 0.08723684 0.08722687 0.08719343 0.08715276 0.08712411 0.08710702
 0.08708286 0.08703804 0.08697847 0.08692095 0.08687741 0.08684763 0.08682151 0.08678719 0.08673921 0.08667903
 0.08660918 0.08653037 0.08644292 0.08634964 0.08626097 0.0861932 0.08615034 0.08610795 0.08602785 0.08589488
 0.08573294 0.08558202 0.0854647 0.08537403 0.08528662 0.08518468 0.08506827 0.0849506 0.08484468 0.08475441
 0.08467473 0.08459869 0.0845276 0.08447544 0.08445673 0.08446617 0.08447662 0.08446375 0.08442944 0.08439589
 0.08438089 0.0843861 0.0844049 0.08443329 0.08447253 0.0845263 0.0845941 0.08466659 0.08473244 0.08479212
 0.084859 0.08494569 0.08505581 0.08518843 0.08533867 0.08549248 0.08563343 0.08576046 0.08589002 0.08603628
 0.08619767 0.08636643 0.08654255 0.08673185 0.08693622 0.08715312 0.08738245 0.08762922 0.08789811 0.08818674
 0.0884843 0.08877806 0.08906309 0.08934746 0.08964725 0.08997448 0.09032721 0.09069002 0.09104641 0.09139247
 0.09173742 0.09209007 0.09245 0.09281442 0.09318825 0.09358008 0.09398948 0.09440453 0.09481341 0.0952151
 0.09561786 0.09602892 0.09644708 0.09686653 0.09728719 0.09771604 0.09815437 0.09858824 0.09899983 0.09938774
 0.09977048 0.100169 0.1005899 0.1010222 0.101445 0.1018417 0.1022141 0.1025818 0.1029613 0.1033484
 0.103729 0.1041046 0.1044937 0.1049059 0.1053219 0.1057073 0.1060449 0.1063504 0.106655 0.1069741
 0.1072963 0.1076024 0.1078883 0.1081653 0.1084419 0.108717 0.1089929 0.1092831 0.1095956 0.1099166
 0.1102207 0.1104978 0.1107589 0.111018 0.1112767 0.1115255 0.1117562 0.1119722 0.1121902 0.112426
 0.112678 0.1129325 0.1131862 0.1134529 0.1137446 0.114058 0.1143877 0.1147383 0.1151124 0.1154977
 0.1158791 0.1162629 0.1166702 0.1171027 0.1175291 0.1179162 0.1182627 0.1185925 0.1189236 0.1192631
 0.1196231 0.1200202 0.120455 0.1209051 0.1213427 0.121753 0.1221407 0.1225242 0.1229197 0.1233214
 0.1237034 0.1240443 0.1243474 0.1246344 0.1249244 0.1252208 0.1255123 0.1257821 0.1260168 0.1262062
 0.1263367 0.1263935 0.1263741 0.1262925 0.1261621 0.1259774 0.1257172 0.1253633 0.1249087 0.1243491
 0.1236772 0.1228939 0.1220289 0.1211487 0.1203439 0.119706 0.1193062 0.1191814 0.1193303 0.1197131
 0.1202538 0.1208496 0.1213908 0.1217814 0.1219508 0.1218594 0.1215061 0.1209304 0.1201974 0.1193768
 0.1185297 0.1177046 0.1169398 0.1162765 0.1157832 0.1155644 0.1157383 0.1163981 0.1175804 0.1192431
 0.1212511 0.1233958 0.1254627 0.12731 0.1288999 0.1302683 0.1314733 0.1325662 0.1335846 0.1345512
 0.1354723 0.1363437 0.1371601 0.1379192 0.1386178 0.1392479 0.1397956 0.1402473 0.1406006 0.1408722
 0.1410947 0.1413034 0.1415286 0.1417914 0.1420936 0.1424031 0.1426564 0.1427832 0.1427404 0.1425325
 0.1422201 0.141928 0.1418462 0.1421959 0.1431453 0.1447111 0.1467246 0.1489053 0.1509894 0.1528159
 0.1543346 0.1555726 0.1565975 0.1574822 0.1582783 0.1590133 0.1597036 0.1603637 0.1610041 0.1616293
 0.1622412 0.1628432 0.1634399 0.1640339 0.1646233 0.1652034 0.1657726 0.1663364 0.1669026 0.167475
 0.1680489 0.1686161 0.1691726 0.1697232 0.1702743 0.1708245 0.1713652 0.171891 0.1724052 0.1729155
 0.1734274 0.1739416 0.1744529 0.1749528 0.1754349 0.1759006 0.1763563 0.1768069 0.1772532 0.1776937
 0.1781292 0.178562 0.178993 0.1794213 0.1798461 0.1802677 0.1806858 0.1810986 0.181505 0.1819064
 0.1823051 0.1827031 0.1831015 0.1835004 0.1838997 0.1843021 0.1847129 0.1851345 0.1855619 0.1859872
 0.1864078 0.186827 0.1872487 0.1876737 0.1881006 0.1885278 0.188953 0.1893749 0.1897952 0.1902178
 0.190645 0.1910752 0.1915039 0.1919272 0.1923457 0.1927637 0.1931859 0.1936123 0.1940377 0.1944566
 0.194869 0.1952797 0.1956921 0.196104 0.1965115 0.1969121 0.197306 0.1976956 0.1980848 0.1984753
 0.1988663 0.1992571 0.1996484 0.2000395 0.2004275 0.2008094 0.2011867 0.2015641 0.2019456 0.2023316
 0.2027198 0.203108 0.2034953 0.2038816 0.2042682 0.2046584 0.2050538 0.2054521 0.2058511 0.2062511
 0.2066518 0.2070527 0.2074556 0.2078624 0.2082716 0.2086802 0.2090887 0.2094991 0.2099109 0.2103232
 0.2107364 0.2111508 0.2115659 0.2119819 0.2124003 0.2128222 0.2132468 0.2136716 0.2140945 0.2145176
 0.2149442 0.2153735 0.2158011 0.2162248 0.2166455 0.2170639 0.2174805 0.2178977 0.218317 0.2187382
 0.2191606 0.2195827 0.2200017 0.2204168 0.2208292 0.2212387 0.2216456 0.222054 0.2224669 0.2228805
 0.2232904 0.2236992 0.2241114 0.2245276 0.2249471 0.2253699 0.2257954 0.2262229 0.2266512 0.2270778
 0.2275014 0.2279246 0.2283474 0.2287656 0.2291778 0.2295886 0.2299998 0.2304088 0.2308159 0.2312255
 0.2316397 0.2320597 0.2324875 0.2329214 0.233357 0.2337921 0.2342267 0.2346614 0.2350995 0.2355446
 0.2359935 0.2364418 0.2368913 0.2373438 0.2377958 0.2382454 0.2386969 0.2391513 0.2396054 0.2400593
 0.2405145 0.2409691 0.2414242 0.2418839 0.242347 0.2428092 0.2432729 0.2437407 0.244209 0.2446754
 0.2451415 0.2456062 0.246068 0.2465314 0.2469999 0.2474706 0.2479419 0.2484158 0.2488895 0.24936
 0.2498313 0.2503052 0.2507765 0.2512469 0.2517242 0.2522081 0.2526935 0.2531803 0.2536668 0.2541459
 0.2546182 0.2550896 0.2555571 0.256017 0.2564766 0.2569392 0.2573975 0.2578515 0.2583068 0.258754
 0.2591643 0.2594744 0.2595207 0.2589616 0.2572301 0.2535406 0.2470399 0.2371473 0.2239055 0.2080812
 0.1909488 0.1738911 0.1580258 0.1440595 0.1323744 0.123169 0.1165574 0.1126671 0.1117205 0.1141391
 0.1206775 0.1319749 0.1469267 0.1612814 0.1692361 0.1678304 0.1596295 0.1503979 0.144406 0.1423365
 0.1427422 0.1441974 0.1461416 0.1487159 0.1522668 0.1568402 0.1621327 0.1679892 0.1746907 0.1825238
 0.1912236 0.2000676 0.2084798 0.2164027 0.2240893 0.2316555 0.2389013 0.2455024 0.2512631 0.2561826
 0.2603865 0.2640441 0.2673044 0.2702663 0.272998 0.2755406 0.2778571 0.2798091 0.2812388 0.2820957
 0.2824962 0.2826694 0.2828293 0.2830813 0.2834348 0.283876 0.2844023 0.285012 0.285697 0.2864426
 0.2872228 0.2880096 0.2887902 0.2895613 0.2903141 0.2910381 0.2917303 0.2923908 0.2930211 0.2936293
 0.2942237 0.2948038 0.2953671 0.2959164 0.2964557 0.2969894 0.297523 0.2980535 0.2985646 0.2990425
 0.2994901 0.2999195 0.3003418 0.3007636 0.3011838 0.3015967 0.3020037 0.3024126 0.302824 0.3032305
 0.3036301 0.3040276 0.3044256 0.3048234 0.3052198 0.3056118 0.3059973 0.3063802 0.3067663 0.3071575
 0.3075547 0.3079576 0.3083594 0.3087502 0.3091273 0.3094981 0.3098749 0.3102707 0.3106897 0.311121
 0.3115486 0.3119692 0.3123891 0.3128107 0.3132325 0.3136556 0.3140813 0.3145072 0.3149315 0.3153526
 0.3157629 0.3161522 0.3165186 0.3168722 0.3172285 0.3175977 0.317978 0.3183616 0.3187454 0.319133
 0.3195243 0.3199143 0.3203011 0.3206858 0.3210706 0.3214617 0.3218693 0.3222951 0.3227298 0.323167
 0.3236093 0.3240578 0.3245065 0.3249512 0.3253921 0.3258279 0.3262556 0.3266781 0.3271125 0.3275819
 0.3280918 0.3286145 0.3291135 0.3295814 0.3300413 0.3305166 0.331012 0.3315127 0.3319831 0.332391
 0.3327529 0.3331424 0.3336251 0.3341965 0.3347942 0.3353619 0.3358872 0.3363881 0.3368815 0.3373649
 0.3378221 0.3382416 0.3386373 0.3390553 0.3395451 0.3401075 0.3406876 0.3412324 0.3417357 0.342216
 0.3426842 0.3431451 0.3435872 0.3439617 0.3442298 0.3444564 0.3448007 0.3453655 0.3460824 0.3467848
 0.3473762 0.3478871 0.3483822 0.3488761 0.3493502 0.3497722 0.350055 0.3501014 0.3499863 0.3500187
 0.3504884 0.3513719 0.3523743 0.3532268 0.3538652 0.3543642 0.3548123 0.3552516 0.3556529 0.3559228
 0.356001 0.3559965 0.3561691 0.3566926 0.357461 0.3582059 0.3587802 0.3592401 0.3596904 0.3601633
 0.3606039 0.3608527 0.3607143 0.3602259 0.3598371 0.3601185 0.3612105 0.3626617 0.3638805 0.3646586
 0.3651707 0.3655629 0.3657375 0.3655356 0.3649317 0.3640442 0.3631977 0.3629755 0.3638341 0.3655172
 0.3671646 0.3681757 0.3687257 0.369326 0.3701593 0.3710058 0.3715998 0.3718657 0.3718711 0.3716731
 0.3712933 0.3708913 0.3708649 0.3715717 0.3729143 0.3743625 0.3754495 0.376139 0.376615 0.3767437
 0.3759318 0.3738303 0.3712608 0.37001 0.3712432 0.3742766 0.3773165 0.3792328 0.3801757 0.3807386
 0.3811868 0.381382 0.3807632 0.3785301 0.3747307 0.3712135 0.3705074 0.3733309 0.3777884 0.3812069
 0.3821788 0.380854 0.3782604 0.3758265 0.374878 0.375917 0.378406 0.3813151 0.3837466 0.3851821
 0.3855123 0.3849805 0.3840814 0.3834319 0.3833849 0.3835014 0.3828204 0.3811072 0.3793066 0.378087
 0.3766125 0.3739096 0.3710372 0.3704278 0.3728765 0.3763923 0.3785068 0.3788009 0.3784593 0.3778883
 0.3757409 0.3706918 0.3638844 0.3589011 0.3586926 0.3626306 0.3671284 0.3691592 0.368647 0.3674504
 0.3667386 0.3657556 0.3629614 0.3582184 0.3536227 0.3516235 0.3522825 0.353181 0.3520946 0.3485661
 0.3427468 0.3347974 0.3266705 0.3225046 0.3249757 0.3319607 0.33842 0.3407758 0.3380622 0.3303937
 0.3192386 0.3089091 0.304659 0.3078697 0.3144563 0.3188213 0.3182592 0.313085 0.3043565 0.2933661
 0.2827891 0.2763551 0.2764376 0.2821231 0.2894412 0.2931447 0.2894036 0.2788423 0.2671973 0.261017
 0.261603 0.2642326 0.2637605 0.2594582 0.2539527 0.2496003 0.2471581 0.2463042 0.2460371 0.2454234
 0.2443071 0.2421061 0.2365264 0.2261093 0.2141255 0.2068738 0.2071836 0.2121125 0.2177105 0.2230016
 0.2278976 0.2303773 0.2286754 0.2248896 0.2236689 0.2272536 0.2333337 0.2379744 0.2395808 0.2395291
 0.2395728 0.2396812 0.2389788 0.2381288 0.2393441 0.2436381 0.2492446 0.2535384 0.2556734 0.2565852
 0.2572278 0.2577803 0.258132 0.2582644 0.2582152 0.258104 0.2581196 0.2583036 0.2585197 0.2587097
 0.2588076 0.2581644 0.2556149 0.2509773 0.2463275 0.2445696 0.2463948 0.2498506 0.2531639 0.2560157
 0.257147 0.2534138 0.2438902 0.2335191 0.2297186 0.2352276 0.2459208 0.2554164 0.2600998 0.2595792
 0.2545536 0.2465092 0.2392903 0.2384303 0.2468946 0.261982 0.2777444 0.290015 0.2980111 0.3020483
 0.3019515 0.2982337 0.2934492 0.2912256 0.2938331 0.3007404 0.3090546 0.3148256 0.3147503 0.3088916
 0.3025602 0.3030695 0.3123783 0.3244073 0.3317408 0.3334401 0.3339345 0.3360348 0.3385108 0.3399958
 0.3417387 0.3454136 0.3502775 0.3537461 0.3536772 0.3492637 0.3410277 0.3314419 0.3245523 0.3228478
 0.3246271 0.3260522 0.3251471 0.3218794 0.3157489 0.3068435 0.2988923 0.297282 0.3029537 0.3109904
 0.3162016 0.3179381 0.3185598 0.3191144 0.3180728 0.3138776 0.3076725 0.3028018 0.3014809 0.3026445
 0.3035921 0.3028734 0.300552 0.2965614 0.2906412 0.2839973 0.2794558 0.2790544 0.281989 0.2855039
 0.2875082 0.2878964 0.2877128 0.2878276 0.2884697 0.2894055 0.2903786 0.2917222 0.294404 0.298918
 0.3042917 0.3089126 0.3123388 0.3156257 0.3197794 0.3244679 0.3284652 0.3309853 0.3323778 0.3337162
 0.3358478 0.3387019 0.3413541 0.3428281 0.3430302 0.3429363 0.3437062 0.3455777 0.3477741 0.3494455
 0.3504308 0.3511121 0.3518731 0.3528013 0.353654 0.3540521 0.3539456 0.3539154 0.3547458 0.3566212
 0.358935 0.3609227 0.3622952 0.3632177 0.3638907 0.3643256 0.3644736 0.3644251 0.3644106 0.3646299
 0.3651197 0.3657812 0.3664911 0.3671694 0.3677909 0.368378 0.3689741 0.3695961 0.3702191 0.3708115
 0.3713572 0.3718313 0.372195 0.3724418 0.3726116 0.3727279 0.3727415 0.3725629 0.3721238 0.3713862
 0.3703176 0.3688875 0.3670744 0.3648517 0.3621926 0.359181 0.3561952 0.3539466 0.3531915 0.3542569
 0.3567846 0.3599364 0.3628734 0.3651206 0.3666118 0.3675117 0.3680264 0.3683111 0.3684593 0.3685167
 0.3685017 0.368429 0.3683183 0.3681855 0.368039 0.3678889 0.3677483 0.3676195 0.3674833 0.3673024
 0.367034 0.3666477 0.3661413 0.3655396 0.3648728 0.36415 0.3633489 0.3624322 0.3613836 0.3602316
 0.3590344 0.3578396 0.3566503 0.3554249 0.3541051 0.3526356 0.3509479 0.3489498 0.3465957 0.3439946
 0.3413846 0.3389383 0.3366119 0.3342181 0.331618 0.3288059 0.3258503 0.3228235 0.3197883 0.3168021
 0.3139022 0.3110889 0.3083282 0.3055711 0.3027776 0.2999283 0.2970177 0.294046 0.2910236 0.2879679
 0.2848729 0.2816694 0.2782211 0.2743711 0.269996 0.2650302 0.2594682 0.2533751 0.2468972 0.2402443
 0.2336408 0.2272869 0.2213523 0.2159866 0.211321 0.2074583 0.2044615 0.2023543 0.2011306 0.2007633
 0.2012019 0.2023663 0.2041427 0.2063855 0.2089213 0.2115588 0.2141061 0.2164038 0.218374 0.2200594
 0.221604 0.2231718 0.2248645 0.2267015 0.2286505 0.2306554 0.2326421 0.2345252 0.2362334 0.2377371
 0.2390552 0.240235 0.2413152 0.242299 0.2431575 0.2438628 0.2444205 0.2448738 0.2452858 0.2457219
 0.2462399 0.2468847 0.2476873 0.248673 0.2498704 0.2513095 0.2530089 0.2549608 0.2571262 0.2594514
 0.2618988 0.2644681 0.2671953 0.2701294 0.2733051 0.2767215 0.2803361 0.2840665 0.2877917 0.291359
 0.2946133 0.2974424 0.2998084 0.3017408 0.303301 0.3045476 0.3055271 0.3062817 0.3068502 0.3072594
 0.3075252 0.3076627 0.3076895 0.307614 0.3074237 0.3070907 0.3065943 0.3059428 0.3051747 0.3043386
 0.3034758 0.3026124 0.301752 0.3008718 0.2999389 0.2989352 0.2978649 0.2967463 0.2956056 0.2944717
 0.2933656 0.2922881 0.2912102 0.2900714 0.288797 0.2873281 0.2856387 0.2837315 0.2816314 0.2793815
 0.2770328 0.2746329 0.2722206 0.2698179 0.2674233 0.2650142 0.2625544 0.260003 0.257341 0.2546054
 0.25188 0.2492454 0.2467396 0.2443615 0.2420928 0.2399178 0.2378362 0.2358567 0.2339816 0.2322044
 0.2305148 0.2288989 0.227345 0.2258559 0.2244451 0.223123 0.2219016 0.2208037 0.2198477 0.2190287
 0.2183252 0.2177192 0.2172128 0.2168365 0.2166268 0.216572 0.2165847 0.2165469 0.2163855 0.2161073
 0.2157794 0.2154738 0.2152238 0.2150245 0.2148547 0.2146658 0.214363 0.2138249 0.2129419 0.2116308
 0.2098483 0.207619 0.2050434 0.2022794 0.1995188 0.1969524 0.1947207 0.1928916 0.1914677 0.1903875
 0.1895396 0.18883 0.1882504 0.1878735 0.1877826 0.187977 0.1883091 0.1885486 0.1885737 0.1884909
 0.188534 0.1888645 0.189477 0.1902412 0.1909999 0.1916475 0.1921447 0.192484 0.1926786 0.192772
 0.192806 0.192779 0.1926609 0.1924288 0.1920683 0.1915764 0.190972 0.1902724 0.1894671 0.1885446
 0.1875139 0.1863808 0.1851439 0.1838085 0.1823615 0.1807692 0.1790751 0.1774868 0.1763101 0.1757853
 0.1759562 0.1766443 0.1775735 0.1785546 0.1795107 0.1803448 0.1809345 0.1813352 0.1818783 0.1829527
 0.1846691 0.1867397 0.1886828 0.1901415 0.1910045 0.1912932 0.1910605 0.1903853 0.1893229 0.1878566
 0.1859856 0.1838048 0.1814345 0.1789777 0.1765763 0.1743733 0.1724293 0.1707652 0.1693949 0.1683253
 0.167629 0.1670329 0.1649399 0.1589921 0.1494112 0.1411563 0.1401798 0.1470175 0.1560514 0.161545
 0.1625133 0.1613523 0.1600513 0.1590388 0.158247 0.1577586 0.1576331 0.1577614 0.1579145 0.1578571
 0.1574924 0.1568422 0.1557897 0.1538506 0.1501657 0.1438042 0.1344492 0.1230412 0.1115803 0.1020596
 0.09548197 0.09165357 0.08960841 0.0882789 0.08711044 0.08625723 0.08622546 0.087356 0.08962936 0.09281649
 0.09664787 0.1007959 0.1048132 0.1082601 0.1109406 0.1129286 0.114355 0.1152675 0.1156907 0.1156904
 0.115342 0.1147083 0.1138504 0.112805 0.1115606 0.1101046 0.1085104 0.1069719 0.1057265 0.104898
 0.1044151 0.1041147 0.1038997 0.1037589 0.1036885 0.103661 0.1036531 0.1036653 0.1037288 0.1038858
 0.104134 0.1044064 0.1046295 0.1047805 0.1048754 0.1049231 0.1048973 0.104759 0.1045271 0.1042976
 0.1041108 0.1038181 0.1031961 0.1022245 0.1011916 0.1005024 0.1003971 0.1008141 0.1014642 0.1020402
 0.1023997 0.1025866 0.1026993 0.1027452</values></Ydata></ScSm><ScRf><Ydata ylabel="Single channel"><values byteorder="INTEL" format="FLOAT32" numvalues="1820"> 0.07049341 0.07062459 0.07074203 0.0708437 0.07093458 0.07102743 0.07113546 0.07126198 0.07139938 0.07153603
 0.07166353 0.07178007 0.0718869 0.07198162 0.07206236 0.0721406 0.07223843 0.07236621 0.07251016 0.07264418
 0.07275032 0.07283294 0.07291815 0.07302956 0.07315519 0.07324645 0.0732625 0.07321593 0.07316701 0.07316919
 0.07323253 0.07335463 0.07355807 0.07383686 0.07407811 0.07413363 0.07400495 0.07387257 0.07389507 0.0740502
 0.07420795 0.07427676 0.07423905 0.07413875 0.07410225 0.07430013 0.07479201 0.07539757 0.07575093 0.07551156
 0.07459094 0.07327719 0.07216874 0.07186203 0.0725202 0.07369126 0.07464818 0.07497685 0.07479915 0.07446029
 0.07416861 0.07399458 0.0740299 0.07436709 0.07494905 0.07551286 0.07569394 0.07526445 0.0743915 0.07360746
 0.07337645 0.07373466 0.07445273 0.07531227 0.07589912 0.0753984 0.07331541 0.07056703 0.06919569 0.07048488
 0.07361877 0.07653199 0.07778953 0.0773465 0.07595551 0.07450269 0.0737699 0.07416262 0.0754457 0.07697874
 0.07822573 0.07889487 0.07880031 0.07795061 0.0767266 0.07571868 0.07539767 0.07598133 0.0773478 0.07889766
 0.07979047 0.0796074 0.07866732 0.0776132 0.07693711 0.07695317 0.07782176 0.07935843 0.08105297 0.08244622
 0.08336782 0.08383307 0.08392939 0.08379989 0.08357422 0.08334877 0.08328225 0.08351517 0.0838948 0.08400686
 0.08363658 0.08306025 0.0827661 0.08295043 0.08334745 0.08354858 0.08340792 0.08296711 0.08203845 0.08029596
 0.07794623 0.07583383 0.0746156 0.07429997 0.07478685 0.076147 0.07796749 0.07914952 0.07901358 0.07821374
 0.07802941 0.07898192 0.08050618 0.08177669 0.08251085 0.08301756 0.08371391 0.08465272 0.08540146 0.08536157
 0.08437996 0.08312889 0.08265829 0.0833795 0.08466615 0.08562616 0.08604009 0.08632934 0.08681341 0.08724566
 0.08702862 0.08585396 0.08423701 0.08333363 0.08398578 0.08588786 0.0877488 0.08826734 0.08705541 0.08484827
 0.08289098 0.08204412 0.08244798 0.08388007 0.08606442 0.08853786 0.09057474 0.09155364 0.09138661 0.09050556
 0.08939207 0.08812756 0.08656092 0.08500717 0.08443549 0.08556332 0.08793456 0.09028182 0.09169617 0.09213212
 0.09189345 0.0910186 0.08936261 0.08723493 0.0856846 0.08572261 0.08717076 0.08870763 0.08927393 0.08906297
 0.08891725 0.08917654 0.08949268 0.08953735 0.08949089 0.08978654 0.09055895 0.09147356 0.09208077 0.09223039
 0.09210892 0.09197637 0.09191816 0.09179349 0.09145118 0.09106182 0.09110466 0.09186203 0.09304108 0.09406881
 0.09465674 0.09491663 0.0950148 0.09489072 0.09436223 0.09348394 0.09272236 0.09262536 0.09328845 0.09428135
 0.09510602 0.09556936 0.09573146 0.09571314 0.09561506 0.0954963 0.09539007 0.09537025 0.09553541 0.09587657
 0.09624246 0.09648861 0.09659395 0.09660462 0.09653921 0.0963936 0.09620243 0.0960555 0.0960408 0.09617402
 0.09639752 0.09664023 0.0968482 0.09697063 0.0969747 0.09688815 0.09678458 0.09671581 0.09668769 0.09669888
 0.09676363 0.09688416 0.09702532 0.09713692 0.09719533 0.09721185 0.09720577 0.09718555 0.09715734 0.09713758
 0.0971496 0.09720853 0.09730463 0.09740712 0.0974992 0.09759969 0.09772466 0.09784052 0.0978916 0.0978706
 0.09782972 0.09782407 0.09786851 0.09794486 0.09802486 0.09807985 0.09808432 0.0980338 0.0979677 0.09795675
 0.09804851 0.09823301 0.09846815 0.0987148 0.09893688 0.09910336 0.09921442 0.09930278 0.09939249 0.09947544
 0.09953685 0.09958749 0.09966366 0.09979852 0.09999044 0.1001998 0.1003819 0.1005176 0.1006136 0.1006955
 0.1008018 0.1009523 0.1011114 0.1012168 0.1012588 0.1012976 0.1013901 0.1015228 0.101635 0.1016912
 0.1017155 0.1017583 0.1018435 0.1019534 0.1020591 0.1021544 0.1022571 0.1023794 0.1025002 0.1025732
 0.1025724 0.1025255 0.1024882 0.1024895 0.1025197 0.1025663 0.1026332 0.1027199 0.1028014 0.1028448
 0.1028433 0.1028256 0.1028259 0.1028462 0.1028565 0.1028317 0.1027787 0.1027248 0.1026907 0.1026769
 0.1026693 0.1026493 0.1026062 0.1025419 0.1024674 0.1023923 0.1023191 0.1022491 0.102197 0.1021881
 0.1022243 0.1022561 0.1022105 0.1020603 0.1018542 0.1016717 0.1015523 0.1014749 0.1013916 0.1012734
 0.1011252 0.1009697 0.1008249 0.1006953 0.1005761 0.1004612 0.1003533 0.1002682 0.1002215 0.1002012
 0.1001637 0.1000729 0.09993824 0.09980376 0.09970269 0.09963626 0.09958895 0.09954824 0.09951185 0.09948738
 0.09948223 0.09948955 0.09949145 0.09948096 0.0994716 0.09948318 0.09952852 0.09961167 0.09972113 0.0998242
 0.09988905 0.09991911 0.09995117 0.1000148 0.1001071 0.1002106 0.1003194 0.1004411 0.1005816 0.1007396
 0.1009128 0.1011017 0.1013085 0.1015307 0.101758 0.1019767 0.1021828 0.1023899 0.1026196 0.1028823
 0.1031684 0.1034597 0.1037446 0.1040231 0.1043003 0.1045779 0.1048543 0.1051324 0.1054222 0.1057315
 0.106056 0.1063831 0.1067043 0.1070214 0.1073402 0.1076619 0.1079849 0.1083119 0.1086545 0.1090244
 0.1094132 0.1097884 0.1101186 0.110404 0.1106769 0.1109712 0.1112981 0.1116427 0.1119763 0.1122761
 0.1125452 0.1128128 0.1131038 0.1134124 0.1137169 0.1140178 0.1143442 0.1147143 0.1151017 0.1154502
 0.1157259 0.1159477 0.1161648 0.1164063 0.116659 0.1168951 0.1171106 0.1173245 0.1175494 0.1177803
 0.1180149 0.1182667 0.1185443 0.1188288 0.1190887 0.1193126 0.1195146 0.1197103 0.1198967 0.1200578
 0.1201821 0.1202781 0.1203738 0.120495 0.1206421 0.1207944 0.1209392 0.1210861 0.12125 0.121434
 0.1216372 0.121865 0.122117 0.1223748 0.1226202 0.1228635 0.1231347 0.1234372 0.1237295 0.1239698
 0.1241642 0.1243525 0.1245578 0.1247749 0.1250011 0.1252505 0.125533 0.1258374 0.1261411 0.1264293
 0.1267056 0.1269904 0.1272993 0.1276169 0.1279013 0.1281247 0.1283035 0.1284831 0.1287002 0.1289604
 0.1292446 0.1295283 0.1297959 0.1300385 0.130243 0.1303943 0.1304936 0.1305647 0.1306275 0.1306676
 0.1306438 0.1305216 0.1302907 0.1299509 0.1294956 0.1289194 0.1282425 0.1275259 0.1268614 0.1263433
 0.1260415 0.125992 0.1261978 0.126627 0.1272103 0.1278516 0.1284527 0.1289286 0.1292076 0.1292371
 0.1290008 0.1285292 0.1278827 0.1271259 0.1263127 0.1254821 0.1246638 0.1238988 0.1232676 0.1228908
 0.1228958 0.1233727 0.1243442 0.1257475 0.1274283 0.1291752 0.1307979 0.1321983 0.1333787 0.1343923
 0.1352937 0.1361222 0.1369052 0.1376569 0.1383753 0.1390512 0.139682 0.1402723 0.1408221 0.1413201
 0.1417484 0.1420901 0.142338 0.1425001 0.1425962 0.1426463 0.1426659 0.1426693 0.1426645 0.1426351
 0.1425357 0.1423156 0.1419513 0.1414625 0.1409151 0.1404261 0.1401614 0.1402986 0.1409512 0.1420971
 0.1435746 0.1451588 0.1466575 0.147955 0.1490064 0.149822 0.1504543 0.1509726 0.1514305 0.1518548
 0.1522554 0.1526361 0.1529992 0.1533482 0.1536886 0.1540263 0.1543654 0.1547082 0.1550526 0.1553923
 0.1557241 0.1560547 0.1563964 0.1567544 0.1571193 0.1574744 0.1578137 0.1581487 0.1584937 0.1588449
 0.1591837 0.1595002 0.1598064 0.1601224 0.1604582 0.1608093 0.1611613 0.1614978 0.16181 0.1621031
 0.1623902 0.16268 0.1629724 0.1632633 0.1635496 0.1638307 0.1641081 0.1643852 0.1646655 0.1649501
 0.1652351 0.1655126 0.1657772 0.1660315 0.1662827 0.1665359 0.1667912 0.1670471 0.1673043 0.1675651
 0.1678322 0.1681055 0.1683796 0.1686454 0.1688968 0.1691361 0.1693713 0.16961 0.169856 0.1701101
 0.1703712 0.1706358 0.1708991 0.1711585 0.1714149 0.1716706 0.1719253 0.1721763 0.1724227 0.1726669
 0.1729128 0.1731621 0.1734138 0.1736665 0.1739209 0.1741784 0.1744358 0.1746853 0.1749225 0.17515
 0.1753745 0.1756014 0.1758331 0.1760688 0.1763057 0.1765424 0.1767807 0.1770222 0.1772663 0.1775108
 0.1777553 0.1780022 0.1782542 0.1785104 0.1787654 0.1790146 0.179257 0.1794944 0.1797275 0.1799581
 0.1801896 0.1804262 0.1806695 0.1809171 0.1811636 0.1814045 0.1816399 0.1818728 0.1821046 0.1823359
 0.1825682 0.1828029 0.1830399 0.1832797 0.1835231 0.1837673 0.1840066 0.1842376 0.1844625 0.1846871
 0.1849174 0.1851566 0.1854027 0.1856508 0.1858959 0.1861349 0.1863687 0.1866017 0.1868367 0.1870715
 0.187304 0.1875376 0.187778 0.1880266 0.1882789 0.1885277 0.1887685 0.1890026 0.1892358 0.1894729
 0.1897166 0.1899668 0.1902201 0.1904701 0.1907147 0.1909574 0.1912028 0.1914534 0.1917107 0.1919737
 0.1922371 0.1924971 0.1927548 0.1930133 0.1932736 0.1935349 0.1937928 0.1940426 0.1942853 0.1945255
 0.1947616 0.194988 0.1952041 0.1954162 0.1956309 0.1958534 0.1960868 0.196328 0.1965702 0.1968108
 0.1970512 0.1972917 0.1975336 0.1977794 0.1980293 0.1982809 0.198534 0.198789 0.1990451 0.1993026
 0.1995627 0.1998226 0.2000803 0.2003398 0.2006053 0.2008739 0.2011411 0.2014061 0.201668 0.2019276
 0.2021898 0.2024569 0.2027254 0.2029954 0.2032711 0.2035503 0.2038255 0.2040938 0.2043573 0.2046189
 0.2048841 0.2051567 0.2054315 0.2057019 0.20597 0.2062405 0.2065134 0.2067896 0.2070699 0.2073492
 0.2076239 0.2079004 0.2081819 0.2084617 0.2087361 0.2090081 0.2092776 0.2095438 0.2098116 0.2100818
 0.2103498 0.210617 0.2108852 0.2111412 0.2113608 0.2114979 0.2114252 0.210864 0.2093479 0.2062346
 0.2008317 0.1926715 0.1817921 0.1688185 0.1547886 0.1408307 0.127859 0.1164507 0.1069128 0.0993994
 0.09399557 0.09079833 0.08998303 0.09188804 0.09712225 0.1062022 0.1182355 0.1297876 0.1361685 0.1349841
 0.1283051 0.1207882 0.1158848 0.1141498 0.1144184 0.1155403 0.1170594 0.1190853 0.1218965 0.12553
 0.1297386 0.134394 0.1397221 0.1459572 0.1528869 0.1599268 0.166611 0.172896 0.1789905 0.1849891
 0.1907282 0.1959445 0.2004808 0.2043386 0.2076206 0.2104641 0.2129896 0.2152757 0.2173755 0.2193223
 0.2210892 0.2225678 0.2236309 0.2242347 0.2244699 0.2245195 0.224557 0.2246704 0.2248709 0.2251472
 0.2254916 0.2258964 0.2263557 0.2268634 0.2274033 0.2279538 0.2285036 0.2290477 0.2295769 0.2300822
 0.2305618 0.2310145 0.2314388 0.2318408 0.2322291 0.2326066 0.2329739 0.2333353 0.2336945 0.2340528
 0.2344114 0.2347651 0.2351006 0.2354091 0.2356963 0.2359738 0.2362499 0.2365275 0.2368026 0.2370669
 0.2373177 0.2375609 0.2378013 0.2380404 0.238281 0.2385256 0.2387733 0.2390232 0.2392758 0.239528
 0.2397738 0.2400113 0.2402421 0.2404693 0.2406993 0.240939 0.2411876 0.2414375 0.2416825 0.2419238
 0.2421679 0.2424237 0.242694 0.2429696 0.2432376 0.2434956 0.2437503 0.2440089 0.2442754 0.2445502
 0.2448283 0.2451044 0.2453789 0.2456532 0.2459208 0.2461727 0.2464068 0.2466314 0.246858 0.2470948
 0.2473419 0.247593 0.2478433 0.2480927 0.248341 0.2485858 0.2488276 0.2490702 0.2493176 0.2495748
 0.2498453 0.2501248 0.2504044 0.2506807 0.2509593 0.2512457 0.2515407 0.251842 0.2521445 0.2524397
 0.2527226 0.2529977 0.2532792 0.2535825 0.2539114 0.2542512 0.2545812 0.2548953 0.2552046 0.2555229
 0.2558554 0.2561917 0.2565035 0.2567652 0.2569915 0.2572401 0.2575603 0.2579457 0.2583479 0.2587252
 0.2590696 0.2593943 0.2597103 0.2600149 0.260298 0.2605544 0.2607961 0.2610581 0.2613769 0.2617532
 0.2621456 0.2625121 0.2628433 0.2631491 0.2634371 0.2637131 0.2639729 0.2641849 0.2643232 0.2644357
 0.2646385 0.2650074 0.2654947 0.2659793 0.2663862 0.2667288 0.2670475 0.2673528 0.2676392 0.2678923
 0.268049 0.2680276 0.2678764 0.2678327 0.2681305 0.2687614 0.2694959 0.270115 0.2705584 0.2708814
 0.2711574 0.2714271 0.2716751 0.2718312 0.2718458 0.2717964 0.2718787 0.2722259 0.2727593 0.2732759
 0.2736656 0.2739715 0.2742726 0.274592 0.2748861 0.2750301 0.2748716 0.2744404 0.2740857 0.274249
 0.2750388 0.2761084 0.2770021 0.277559 0.2779133 0.2781774 0.2782743 0.2780798 0.2775756 0.2768553
 0.2761687 0.2759608 0.2765803 0.2778336 0.2790651 0.2798139 0.2802079 0.2806332 0.2812318 0.2818437
 0.2822714 0.2824579 0.2824513 0.2822909 0.2819893 0.2816669 0.2816282 0.2821462 0.2831476 0.2842314
 0.2850457 0.2855634 0.2859213 0.2860113 0.2853774 0.2837564 0.2817815 0.2808197 0.281758 0.284071
 0.2863901 0.2878567 0.2885911 0.2890468 0.2894194 0.2895969 0.2891513 0.2874761 0.2846096 0.2819622
 0.2814629 0.2836565 0.2870914 0.2897294 0.2905049 0.2895384 0.2876133 0.2858154 0.2851534 0.2860101
 0.2879769 0.2902694 0.2922021 0.2933792 0.2937168 0.2933995 0.2928064 0.2924138 0.2924948 0.2927095
 0.2923177 0.2911403 0.2899028 0.2891179 0.2881466 0.286244 0.2842205 0.2839421 0.2860224 0.2889367
 0.2907912 0.2912634 0.2912587 0.291077 0.2896698 0.2860184 0.2810218 0.2774691 0.2776538 0.2810856
 0.2849759 0.2869784 0.2870448 0.2866269 0.2866331 0.2864677 0.2849188 0.281878 0.279005 0.2782422
 0.2796346 0.2812562 0.2813388 0.2795084 0.2758556 0.2704946 0.2650305 0.262858 0.266164 0.2732071
 0.2798578 0.2831633 0.2822693 0.2771868 0.2690997 0.2616504 0.259304 0.2632273 0.2699258 0.2746273
 0.2750469 0.2714805 0.264858 0.2563372 0.2483182 0.2441499 0.2459981 0.2531045 0.2619168 0.2676196
 0.2665988 0.2593465 0.2511799 0.2482326 0.251687 0.2569961 0.2592287 0.2577059 0.2549742 0.253336
 0.2535773 0.2554025 0.2577713 0.2597198 0.2611004 0.2612092 0.2574186 0.2480815 0.2368542 0.2307594
 0.232947 0.2401563 0.248035 0.2555225 0.2624295 0.2662964 0.2650087 0.2609833 0.2596267 0.2635593
 0.2701195 0.274766 0.2756868 0.2745324 0.273408 0.2723653 0.2704525 0.268422 0.2687566 0.272585
 0.2779149 0.2817926 0.2832617 0.2833646 0.2831618 0.2828396 0.2822579 0.2813894 0.2802753 0.2790448
 0.2779104 0.2769355 0.2759849 0.2749954 0.2739075 0.2720675 0.2682781 0.2623501 0.256435 0.2535438
 0.2543887 0.256932 0.2593159 0.2612116 0.2613775 0.2566494 0.2460726 0.2346092 0.2297273 0.2341817
 0.2438169 0.252229 0.2558299 0.2542963 0.2484019 0.2396531 0.2317902 0.2301428 0.2375313 0.2513091
 0.265727 0.2767876 0.283775 0.2870359 0.2864352 0.2824745 0.2775738 0.2751251 0.2771624 0.283019
 0.2898362 0.2939034 0.2922764 0.2851962 0.2776893 0.2765353 0.2835526 0.2931847 0.2986277 0.2989543
 0.2981358 0.2987383 0.2997195 0.2999056 0.3004475 0.3028793 0.306597 0.3093576 0.3092905 0.3056869
 0.2989933 0.2913559 0.2862833 0.2858731 0.2884965 0.2906681 0.2906234 0.2883549 0.2834225 0.2759151
 0.2692032 0.2681312 0.2735135 0.2809005 0.2856485 0.2872443 0.2878724 0.2884869 0.28769 0.2840777
 0.2787318 0.2747581 0.2742427 0.2762838 0.2784767 0.2795192 0.2794228 0.2780077 0.2749039 0.2711573
 0.2693796 0.2714275 0.2764105 0.2815538 0.2847463 0.285832 0.2858051 0.2855288 0.2852719 0.2848693
 0.2841462 0.2835078 0.2839645 0.2860554 0.288907 0.2910317 0.2920492 0.2929985 0.2948796 0.2974327
 0.299538 0.3004541 0.3004662 0.3005185 0.3013616 0.3029379 0.3044402 0.3050254 0.3046461 0.3042051
 0.3047439 0.3064477 0.3085725 0.3102962 0.3114062 0.3121837 0.3129387 0.3137472 0.3144123 0.3146253
 0.3143703 0.314178 0.3147334 0.3161658 0.3178986 0.3192362 0.3199385 0.3201915 0.320212 0.320034
 0.3196225 0.3190547 0.318527 0.3182044 0.3181038 0.3181239 0.3181543 0.3181431 0.3180974 0.3180621
 0.3180909 0.3182071 0.3183914 0.3186113 0.3188422 0.3190541 0.3192131 0.3193178 0.3194055 0.3194945
 0.3195421 0.3194741 0.319233 0.3187818 0.3180823 0.3170969 0.3157976 0.3141539 0.312136 0.3098105
 0.3074999 0.3058152 0.305404 0.3065426 0.3089176 0.3118006 0.3144583 0.3164688 0.3177712 0.318517
 0.3188986 0.3190575 0.3190693 0.3189649 0.3187593 0.3184745 0.31814 0.3177815 0.317419 0.3170727
 0.3167595 0.3164811 0.3162197 0.3159444 0.3156213 0.3152243 0.3147447 0.3141916 0.3135793 0.3129081
 0.3121563 0.3112947 0.3103212 0.3092811 0.3082491 0.3072848 0.3063969 0.305545 0.3046749 0.3037436
 0.3027029 0.3014887 0.3000834 0.2986065 0.2972814 0.2962602 0.2954904 0.2947777 0.2939524 0.2929548
 0.2918049 0.2905487 0.2892332 0.287893 0.2865378 0.2851535 0.2837105 0.2821765 0.2805328 0.2787845
 0.276951 0.2750528 0.2731105 0.2711439 0.2691434 0.2670361 0.2646864 0.2619354 0.2586452 0.2547241
 0.250145 0.2449692 0.2393557 0.2335284 0.2277171 0.2221156 0.2168798 0.2121409 0.2080125 0.2045898
 0.2019486 0.2001404 0.1991871 0.1990869 0.1998221 0.2013576 0.2036258 0.2065136 0.2098637 0.2134876
 0.2171822 0.2207569 0.224079 0.2271148 0.2299157 0.2325452 0.235013 0.2372778 0.2392973 0.2410611
 0.24258 0.2438643 0.2449228 0.2457779 0.2464716 0.2470531 0.2475586 0.2480021 0.2483787 0.2486771
 0.2488976 0.2490608 0.2492019 0.2493551 0.2495418 0.2497685 0.2500331 0.250338 0.2506987 0.2511387
 0.2516742 0.2523015 0.2529966 0.2537292 0.2544845 0.2552786 0.2561528 0.2571532 0.258312 0.2596401
 0.2611267 0.262737 0.2644068 0.2660429 0.2675391 0.2688024 0.2697751 0.2704425 0.2708264 0.2709656
 0.2708955 0.2706429 0.2702332 0.2696927 0.2690471 0.2683201 0.2675307 0.2666896 0.2657975 0.2648537
 0.2638654 0.2628515 0.2618369 0.2608401 0.2598669 0.2589174 0.2579958 0.2571083 0.2562532 0.2554211
 0.2546053 0.2538128 0.2530626 0.2523652 0.2517042 0.2510436 0.2503445 0.2495698 0.2486826 0.2476554
 0.2464775 0.2451481 0.243668 0.2420442 0.2402921 0.2384315 0.2364819 0.2344586 0.2323681 0.2302071
 0.2279631 0.2256226 0.2231955 0.2207433 0.2183634 0.2161354 0.2140866 0.212202 0.2104509 0.2088038
 0.2072417 0.2057542 0.2043308 0.202962 0.2016444 0.2003803 0.1991773 0.1980496 0.19701 0.1960614
 0.1952078 0.1944616 0.1938283 0.1932957 0.1928461 0.1924688 0.1921664 0.191965 0.1919009 0.1919702
 0.1921011 0.1921979 0.1922061 0.1921339 0.1920297 0.1919436 0.1918979 0.1918895 0.1919051 0.1919066
 0.1918083 0.1914974 0.1908762 0.189876 0.1884613 0.1866526 0.18454 0.182268 0.1800079 0.1779199
 0.1761156 0.1746509 0.1735361 0.1727265 0.1721265 0.1716498 0.1712834 0.171088 0.1711425 0.1714572
 0.1719023 0.1722619 0.1724263 0.1725169 0.1727782 0.1733696 0.1742721 0.1753395 0.1763993 0.1773311
 0.1780835 0.1786471 0.1790439 0.179324 0.1795227 0.1796238 0.179594 0.179427 0.1791368 0.1787442
 0.1782769 0.1777429 0.1771162 0.1763787 0.1755466 0.174637 0.1736496 0.1725771 0.1713865 0.1700274
 0.1685402 0.1671409 0.166144 0.1657926 0.1661296 0.1669798 0.1680763 0.1692417 0.1704063 0.1714752
 0.1723268 0.1730106 0.1738377 0.1751764 0.1771448 0.1794894 0.181756 0.1835846 0.1848394 0.1855118
 0.1856275 0.1852449 0.1844102 0.1831097 0.1813567 0.1792703 0.1769999 0.1746713 0.1724356 0.1704328
 0.1687132 0.1672864 0.1661558 0.1653183 0.1648364 0.1644332 0.1625212 0.1567591 0.1473728 0.1393046
 0.1384809 0.1454253 0.1545298 0.1600786 0.1611042 0.1600118 0.1587916 0.1578667 0.1571591 0.1567412
 0.1566713 0.1568519 0.1570696 0.1570916 0.1568118 0.1562473 0.1552843 0.1534296 0.149795 0.1434217
 0.1339892 0.1224639 0.1108886 0.101295 0.09469907 0.09089424 0.08889546 0.08762719 0.08653526 0.08577058
 0.08582824 0.08703975 0.0893914 0.09267344 0.09662854 0.1009214 0.1050897 0.1086887 0.111521 0.1136522
 0.1152036 0.1162228 0.116742 0.1168354 0.1165838 0.1160506 0.1152919 0.1143367 0.1131658 0.1117635
 0.1102092 0.1087104 0.1075171 0.1067605 0.1063725 0.1061871 0.1060935 0.106065 0.1060967 0.1061796
 0.1063116 0.1064978 0.1067507 0.1070823 0.1074691 0.1078403 0.1081268 0.1083071 0.1083966 0.108407
 0.1083155 0.108081 0.1077171 0.1073161 0.106918 0.1063794 0.1054878 0.1042425 0.1029587 0.102069
 0.1018236 0.1021368 0.1026722 0.1030931 0.1032772 0.1033173 0.1033422 0.1033481 0.1031949 0.1027585
</values></Ydata></ScRf><Data_Parameters_AB><parameter name="DPF">1</parameter><parameter name="NPT">3497</parameter><parameter name="FXV">3996</parameter><parameter name="LXV">500</parameter><parameter name="CSF">1</parameter><parameter name="MXY">0.0751362442970276</parameter><parameter name="MNY">-0.119786135852337</parameter><parameter name="DAT">18/01/2024</parameter><parameter name="TIM">12:01:08.602 (GMT+1)</parameter><parameter name="DXU">WN</parameter></Data_Parameters_AB><AB__Qtest><MainReport name="Quality Test Report"><Header><Line><Legend>Test result ok/not ok [1/0]: </Legend><Value>0</Value></Line><Line><Legend>Method file: </Legend><Value>C:\Users\Public\Documents\Bruker\OPUS_8.2.28\QT\IRBT_v3_default.QT</Value></Line></Header><Matrix><Line><Legend></Legend><Legend>min</Legend><Legend>max</Legend><Legend>measured</Legend></Line><Line><Value>Absorption (X-Range 1):</Value><Value>0.400000</Value><Value>2.000000</Value><Value>0.184546</Value></Line><Line><Value>Noise (X-Range 4):</Value><Value></Value><Value>0.000300</Value><Value>0.000028</Value></Line><Line><Value>Signal/Noise (X-Range 2):</Value><Value>200.000000</Value><Value></Value><Value>124.532243</Value></Line><Line><Value>Signal/Noise (X-Range 3):</Value><Value>40.000000</Value><Value></Value><Value>104.142082</Value></Line><Line><Value>Water vapour (X-Range 5):</Value><Value></Value><Value>0.000300</Value><Value>0.000014</Value></Line><Line><Value>Signal/Water (X-Range 2):</Value><Value>100.000000</Value><Value></Value><Value>253.385012</Value></Line><Line><Value>Signal/Water (X-Range 3):</Value><Value>20.000000</Value><Value></Value><Value>211.897272</Value></Line><Line><Value>Fringes (X-Range 6):</Value><Value></Value><Value>0.000100</Value><Value>0.000025</Value></Line></Matrix></MainReport></AB__Qtest><Data_Parameters_ScSm><parameter name="DPF">1</parameter><parameter name="NPT">1814</parameter><parameter name="FXV">3996.63438082617</parameter><parameter name="LXV">499.579297603271</parameter><parameter name="CSF">1</parameter><parameter name="MXY">0.385512322187424</parameter><parameter name="MNY">0.0843808948993683</parameter><parameter name="DAT">18/01/2024</parameter><parameter name="TIM">12:01:08.602 (GMT+1)</parameter><parameter name="DXU">WN</parameter></Data_Parameters_ScSm><Data_Parameters_ScRf><parameter name="DPF">1</parameter><parameter name="NPT">1820</parameter><parameter name="FXV">4004.34989121387</parameter><parameter name="LXV">495.721542409425</parameter><parameter name="CSF">1</parameter><parameter name="MXY">0.320211976766586</parameter><parameter name="MNY">0.0691956877708435</parameter><parameter name="DAT">18/01/2024</parameter><parameter name="TIM">12:00:41.096 (GMT+1)</parameter><parameter name="DXU">WN</parameter></Data_Parameters_ScRf><Optic_Parameters_Rf><parameter name="APR">0</parameter><parameter name="APT">Open</parameter><parameter name="BMS">KBr</parameter><parameter name="DTC">RT-DLaTGS_IR-Biotyper [Microplate reader]</parameter><parameter name="HPF">0</parameter><parameter name="LPF">10.0</parameter><parameter name="LPV">4000</parameter><parameter name="PGR">0</parameter><parameter name="RCH">Module port</parameter><parameter name="RDX">0</parameter><parameter name="SRC">MIR</parameter><parameter name="VEL">10.0</parameter><parameter name="SON">Off</parameter></Optic_Parameters_Rf><Acquisition_Parameters_Rf><parameter name="ADT">1</parameter><parameter name="AQM">DD</parameter><parameter name="CFE">0</parameter><parameter name="COR">0</parameter><parameter name="DEL">0</parameter><parameter name="DLY">0</parameter><parameter name="HFW">8000</parameter><parameter name="LFW">0</parameter><parameter name="NSR">32</parameter><parameter name="PLF">AB</parameter><parameter name="RES">6</parameter><parameter name="RGN">-1</parameter><parameter name="STR">0</parameter><parameter name="TCL">MakeCompatibleScalar (0, {WSV=1.000000, ARV=0});</parameter><parameter name="TDL">37</parameter><parameter name="RPO">0</parameter></Acquisition_Parameters_Rf><FT_-_Parameters_Rf><parameter name="APF">B3</parameter><parameter name="HFQ">500</parameter><parameter name="LFQ">4000</parameter><parameter name="NLI">0</parameter><parameter name="PHR">24</parameter><parameter name="PHZ">ML</parameter><parameter name="SPZ">NO</parameter><parameter name="ZFF">1</parameter></FT_-_Parameters_Rf><Optic_Parameters_><parameter name="APR">0</parameter><parameter name="APT">Open</parameter><parameter name="BMS">KBr</parameter><parameter name="CHN">Module port</parameter><parameter name="DTC">RT-DLaTGS_IR-Biotyper [Microplate reader]</parameter><parameter name="HPF">0</parameter><parameter name="LPF">10.0</parameter><parameter name="LPV">4000</parameter><parameter name="PGN">0</parameter><parameter name="RDX">0</parameter><parameter name="SRC">MIR</parameter><parameter name="VEL">10.0</parameter><parameter name="SON">Off</parameter></Optic_Parameters_><FT_-_Parameters_><parameter name="APF">B3</parameter><parameter name="HFQ">500</parameter><parameter name="LFQ">4000</parameter><parameter name="NLI">0</parameter><parameter name="PHR">24</parameter><parameter name="PHZ">ML</parameter><parameter name="SPZ">NO</parameter><parameter name="ZFF">1</parameter></FT_-_Parameters_><Acquisition_Parameters_><parameter name="ADT">1</parameter><parameter name="AQM">DD</parameter><parameter name="CFE">0</parameter><parameter name="COR">0</parameter><parameter name="DEL">0</parameter><parameter name="DLY">0</parameter><parameter name="HFW">8000</parameter><parameter name="LFW">0</parameter><parameter name="NSS">32</parameter><parameter name="PLF">AB</parameter><parameter name="RES">6</parameter><parameter name="SOT">0</parameter><parameter name="TCL">MakeCompatibleScalar (0, {WSV=1.000000, ARV=0});</parameter><parameter name="TDL">37</parameter><parameter name="SPO">0</parameter><parameter name="SGN">-1</parameter></Acquisition_Parameters_><Instrument_Parameters_Rf><parameter name="HFL">15801.365274</parameter><parameter name="LFL">0</parameter><parameter name="LWN">15801.365274</parameter><parameter name="ABP">32157</parameter><parameter name="SSP">1</parameter><parameter name="ARG">2</parameter><parameter name="ASG">2</parameter><parameter name="ASS">32</parameter><parameter name="GFW">16</parameter><parameter name="GBW">16</parameter><parameter name="BFW">0</parameter><parameter name="BBW">0</parameter><parameter name="PKA">9302</parameter><parameter name="PKL">4987</parameter><parameter name="PRA">9264</parameter><parameter name="PRL">5010</parameter><parameter name="P2A">1</parameter><parameter name="P2L">1</parameter><parameter name="P2R">1</parameter><parameter name="P2K">1</parameter><parameter name="DAQ">0</parameter><parameter name="AG2">1</parameter><parameter name="SSM">1</parameter><parameter name="RSN">46648</parameter><parameter name="CRR">0</parameter><parameter name="SRT">1705579241.097</parameter><parameter name="DUR">19.6449890136719</parameter><parameter name="TSC">31.1</parameter><parameter name="MVD">0.715050756931305</parameter><parameter name="AN1">0.225999567740959</parameter><parameter name="AN2">0</parameter><parameter name="VSN">2.485 Apr  4 2017</parameter><parameter name="SRN">0085</parameter><parameter name="CAM">0</parameter><parameter name="INS">IR-Biotyper</parameter><parameter name="FOC">69</parameter><parameter name="RDY">1</parameter><parameter name="ARS">32</parameter></Instrument_Parameters_Rf><Sample_Parameters_><parameter name="BLD"></parameter><parameter name="CNM">Admin</parameter><parameter name="CPY"></parameter><parameter name="DPM"></parameter><parameter name="EXP">IRBT_v3_32Scans.XPM</parameter><parameter name="LCT"></parameter><parameter name="SFM">Microplate, HTS-XT</parameter><parameter name="SNM">240118-1045-Cdiff_SCFA_2_C27_232122548_A10_d5aa9aa7-0ff3-4fbc-b1f2-0ad548b90ee3.0</parameter><parameter name="XPP">C:\Users\Public\Documents\Bruker\OPUS_8.2.28\XPM</parameter><parameter name="IST">OK</parameter><parameter name="CPG">1252</parameter><parameter name="UID">858b6181-78a4-4ca0-b897-5b9815174da4</parameter></Sample_Parameters_><Instrument_Parameters_><parameter name="HFL">15801.365274</parameter><parameter name="LFL">0</parameter><parameter name="LWN">15801.365274</parameter><parameter name="ABP">32157</parameter><parameter name="SSP">1</parameter><parameter name="ASG">2</parameter><parameter name="ARG">2</parameter><parameter name="ASS">32</parameter><parameter name="GFW">16</parameter><parameter name="GBW">16</parameter><parameter name="BFW">0</parameter><parameter name="BBW">0</parameter><parameter name="PKA">10537</parameter><parameter name="PKL">4980</parameter><parameter name="PRA">10533</parameter><parameter name="PRL">5002</parameter><parameter name="P2A">1</parameter><parameter name="P2L">1</parameter><parameter name="P2R">1</parameter><parameter name="P2K">1</parameter><parameter name="DAQ">0</parameter><parameter name="AG2">1</parameter><parameter name="SSM">1</parameter><parameter name="RSN">24017</parameter><parameter name="CRR">0</parameter><parameter name="SRT">1705579268.603</parameter><parameter name="DUR">19.6449890136719</parameter><parameter name="TSC">31.1</parameter><parameter name="MVD">0.352484822273254</parameter><parameter name="AN1">0.22601100995197</parameter><parameter name="AN2">0</parameter><parameter name="VSN">2.485 Apr  4 2017</parameter><parameter name="SRN">0085</parameter><parameter name="CAM">0</parameter><parameter name="INS">IR-Biotyper</parameter><parameter name="FOC">69</parameter><parameter name="RDY">1</parameter></Instrument_Parameters_><History/></OPUSDataFile>
