<?xml version="1.0" encoding="UTF-8" ?>
<OPUSDataFile><AB><Ydata ylabel="Absorbance Units"><values byteorder="INTEL" format="FLOAT32" numvalues="3497"> -0.1131197 -0.1131558 -0.113191 -0.113224 -0.1132502 -0.1132711 -0.1132874 -0.1133012 -0.1133161 -0.1133327
 -0.1133533 -0.1133763 -0.1134017 -0.1134276 -0.1134527 -0.1134762 -0.113497 -0.1135159 -0.1135325 -0.1135485
 -0.1135641 -0.1135806 -0.1135981 -0.1136172 -0.1136378 -0.1136611 -0.1136871 -0.1137182 -0.1137542 -0.1137959
 -0.113842 -0.1138887 -0.1139347 -0.1139745 -0.1140084 -0.1140337 -0.1140523 -0.1140648 -0.1140731 -0.1140786
 -0.1140827 -0.1140865 -0.1140912 -0.1140974 -0.1141049 -0.1141137 -0.1141231 -0.1141328 -0.1141438 -0.1141562
 -0.1141718 -0.1141909 -0.1142109 -0.1142317 -0.1142478 -0.1142599 -0.1142672 -0.1142719 -0.1142808 -0.1142948
 -0.1143205 -0.1143541 -0.1143937 -0.1144341 -0.1144681 -0.1144954 -0.1145117 -0.1145232 -0.1145316 -0.1145431
 -0.1145612 -0.1145858 -0.1146187 -0.1146523 -0.114686 -0.1147114 -0.1147274 -0.1147332 -0.1147288 -0.1147234
 -0.1147177 -0.1147226 -0.1147377 -0.114766 -0.1148058 -0.1148519 -0.1149031 -0.1149535 -0.1150033 -0.115051
 -0.1150964 -0.1151397 -0.1151774 -0.1152072 -0.1152261 -0.1152304 -0.1152248 -0.1152087 -0.1151934 -0.1151816
 -0.1151805 -0.1151922 -0.1152141 -0.1152464 -0.115282 -0.1153205 -0.1153577 -0.1153938 -0.1154269 -0.1154567
 -0.1154799 -0.1154971 -0.1155069 -0.115512 -0.1155173 -0.1155253 -0.115543 -0.1155691 -0.115606 -0.1156489
 -0.1156951 -0.1157396 -0.1157792 -0.1158114 -0.1158342 -0.1158493 -0.1158562 -0.1158594 -0.1158596 -0.1158591
 -0.1158585 -0.1158562 -0.1158521 -0.1158465 -0.1158399 -0.1158392 -0.1158452 -0.1158672 -0.1159039 -0.1159565
 -0.1160194 -0.1160798 -0.1161326 -0.1161607 -0.1161691 -0.1161545 -0.1161286 -0.1160995 -0.1160754 -0.1160635
 -0.1160653 -0.116084 -0.1161145 -0.1161572 -0.1162027 -0.1162497 -0.1162909 -0.1163251 -0.1163527 -0.1163736
 -0.116393 -0.116411 -0.116429 -0.1164466 -0.1164604 -0.1164709 -0.1164776 -0.116482 -0.1164878 -0.1164956
 -0.1165089 -0.1165253 -0.1165436 -0.1165616 -0.1165767 -0.1165896 -0.1165996 -0.1166084 -0.1166168 -0.1166244
 -0.116631 -0.1166373 -0.1166429 -0.1166515 -0.1166637 -0.1166818 -0.1167062 -0.1167335 -0.1167634 -0.1167889
 -0.1168099 -0.1168213 -0.1168235 -0.1168144 -0.1167952 -0.1167672 -0.1167334 -0.1166991 -0.116668 -0.116647
 -0.1166361 -0.1166386 -0.1166509 -0.1166719 -0.1166992 -0.1167313 -0.1167671 -0.1168069 -0.1168461 -0.1168846
 -0.1169142 -0.1169338 -0.1169403 -0.1169334 -0.1169202 -0.1169015 -0.1168885 -0.1168813 -0.1168861 -0.1169018
 -0.1169274 -0.1169608 -0.1169966 -0.1170323 -0.1170613 -0.1170827 -0.117092 -0.1170928 -0.1170856 -0.1170766
 -0.11707 -0.1170688 -0.1170761 -0.1170894 -0.1171086 -0.11713 -0.1171522 -0.1171764 -0.1172024 -0.1172361
 -0.1172778 -0.117329 -0.1173892 -0.1174502 -0.117511 -0.11756 -0.1175972 -0.1176165 -0.1176183 -0.1175997
 -0.1175616 -0.1175024 -0.1174294 -0.1173489 -0.1172728 -0.1172142 -0.1171786 -0.1171755 -0.1171965 -0.1172428
 -0.1172952 -0.1173483 -0.1173891 -0.1174128 -0.1174233 -0.1174199 -0.1174135 -0.1174051 -0.1173982 -0.1173927
 -0.1173834 -0.1173703 -0.1173491 -0.1173215 -0.1172911 -0.1172602 -0.1172369 -0.1172213 -0.1172181 -0.1172253
 -0.1172427 -0.1172661 -0.1172925 -0.1173163 -0.1173335 -0.1173404 -0.1173338 -0.1173155 -0.1172847 -0.1172459
 -0.1171998 -0.1171503 -0.1170978 -0.1170471 -0.1169986 -0.1169571 -0.1169228 -0.116897 -0.1168792 -0.1168662
 -0.1168569 -0.1168458 -0.1168319 -0.1168097 -0.1167788 -0.1167358 -0.1166832 -0.1166219 -0.1165562 -0.1164904
 -0.116427 -0.1163687 -0.1163168 -0.1162722 -0.1162358 -0.1162088 -0.1161886 -0.1161762 -0.1161611 -0.1161425
 -0.1161075 -0.116055 -0.1159799 -0.1158824 -0.1157665 -0.1156328 -0.1154888 -0.115335 -0.1151774 -0.1150166
 -0.1148569 -0.1146986 -0.1145446 -0.1143955 -0.1142537 -0.1141192 -0.1139933 -0.1138737 -0.1137597 -0.1136484
 -0.1135382 -0.1134274 -0.1133157 -0.1132005 -0.113082 -0.1129534 -0.1128139 -0.1126565 -0.1124803 -0.1122857
 -0.112073 -0.1118492 -0.1116149 -0.1113778 -0.1111381 -0.1109014 -0.1106678 -0.1104408 -0.1102205 -0.1100092
 -0.1098061 -0.1096128 -0.1094245 -0.1092391 -0.1090475 -0.1088424 -0.1086195 -0.1083722 -0.1081116 -0.1078382
 -0.1075685 -0.107307 -0.1070567 -0.1068197 -0.1065839 -0.1063485 -0.1060991 -0.1058351 -0.1055538 -0.1052564
 -0.1049524 -0.1046431 -0.1043391 -0.1040395 -0.1037479 -0.1034616 -0.1031777 -0.1028939 -0.102606 -0.1023134
 -0.1020135 -0.1017077 -0.1013953 -0.1010798 -0.1007624 -0.1004459 -0.1001321 -0.09981955 -0.09950886 -0.09919553
 -0.09887907 -0.09855621 -0.09822662 -0.09788898 -0.09754327 -0.0971899 -0.09682935 -0.09646597 -0.09610055 -0.09573967
 -0.09538274 -0.09503176 -0.09468492 -0.09433933 -0.09399393 -0.09364595 -0.09329504 -0.09294026 -0.09258018 -0.09221321
 -0.09183955 -0.09145771 -0.09107302 -0.09068633 -0.09030432 -0.08992922 -0.08956107 -0.08920079 -0.0888414 -0.08848245
 -0.08811817 -0.08774837 -0.08737442 -0.0869966 -0.08661859 -0.08623973 -0.08585902 -0.0854751 -0.08508302 -0.08468272
 -0.08427095 -0.08385001 -0.08342163 -0.08298834 -0.08255327 -0.08211826 -0.08168498 -0.0812562 -0.08083335 -0.08041906
 -0.08001498 -0.07961996 -0.07923474 -0.07885346 -0.07847568 -0.07809462 -0.07770961 -0.07731785 -0.07691928 -0.07651636
 -0.07610943 -0.07570315 -0.07529709 -0.07489194 -0.07448637 -0.07407613 -0.07366138 -0.07323935 -0.07281338 -0.07238695
 -0.07196354 -0.07154892 -0.07114223 -0.07074568 -0.07035431 -0.06996661 -0.06957763 -0.06918477 -0.06878817 -0.06838685
 -0.06798506 -0.06758343 -0.0671839 -0.06678699 -0.06638785 -0.06598625 -0.06557687 -0.06516008 -0.06473778 -0.064311
 -0.06388634 -0.06346387 -0.06304736 -0.06263594 -0.06222945 -0.06182741 -0.06142909 -0.06103411 -0.06064175 -0.06025185
 -0.0598639 -0.05947832 -0.05909531 -0.05871484 -0.0583372 -0.05796112 -0.05758629 -0.05721236 -0.05683909 -0.05646767
 -0.05609827 -0.05573 -0.0553628 -0.05499453 -0.05462524 -0.05425473 -0.05388299 -0.05351028 -0.05313572 -0.05275637
 -0.05237173 -0.05197827 -0.05157857 -0.05117403 -0.05076984 -0.0503719 -0.04998436 -0.04961292 -0.04925684 -0.04891872
 -0.0485912 -0.04827316 -0.04795483 -0.04763315 -0.04730527 -0.04696942 -0.04663268 -0.04629547 -0.04596492 -0.04564142
 -0.04532409 -0.04501247 -0.04470037 -0.04438777 -0.04407119 -0.04375163 -0.04343064 -0.0431093 -0.04279123 -0.04247607
 -0.04216539 -0.04185693 -0.0415487 -0.0412392 -0.04092589 -0.04061067 -0.04029309 -0.03997779 -0.03966622 -0.03936198
 -0.03906647 -0.03878028 -0.03850399 -0.03823531 -0.03797423 -0.03771674 -0.03746264 -0.03720905 -0.03695599 -0.03670286
 -0.03644956 -0.03619537 -0.03593982 -0.03568056 -0.03541794 -0.035151 -0.03488174 -0.0346127 -0.03434627 -0.03408636
 -0.03383365 -0.03359039 -0.03335485 -0.03312716 -0.032904 -0.03268436 -0.03246526 -0.03224539 -0.0320252 -0.03180399
 -0.03158722 -0.03137517 -0.03117466 -0.0309861 -0.03081101 -0.03064885 -0.03049257 -0.03034123 -0.03018505 -0.03002483
 -0.02985744 -0.02968602 -0.02951686 -0.0293517 -0.02919727 -0.02905102 -0.02891303 -0.02877949 -0.02864701 -0.0285143
 -0.02837959 -0.0282432 -0.02810499 -0.0279648 -0.02782228 -0.02767902 -0.02753491 -0.02739396 -0.02725667 -0.02712429
 -0.02699694 -0.02687141 -0.02674772 -0.02662509 -0.02650445 -0.02639139 -0.02628655 -0.02619618 -0.02611848 -0.0260529
 -0.02599576 -0.02594031 -0.02588496 -0.02582431 -0.02576084 -0.02569453 -0.02562851 -0.02556533 -0.02550395 -0.02544505
 -0.02538513 -0.02532287 -0.02525893 -0.02519259 -0.02512985 -0.02507126 -0.02502133 -0.02498043 -0.02494685 -0.02492029
 -0.02489553 -0.02487273 -0.02484998 -0.02482866 -0.02481282 -0.02480411 -0.02480942 -0.02482778 -0.02486211 -0.02490692
 -0.02495787 -0.02500739 -0.02504749 -0.02507444 -0.02508259 -0.02507578 -0.02505287 -0.02502356 -0.02498957 -0.02496104
 -0.02494024 -0.02493148 -0.02493602 -0.02494865 -0.02496919 -0.0249874 -0.02500292 -0.02500906 -0.02500625 -0.02499463
 -0.02497399 -0.0249439 -0.02490321 -0.02484755 -0.02477914 -0.02469723 -0.02461129 -0.02453149 -0.02446848 -0.02443699
 -0.02443545 -0.02447107 -0.02452519 -0.02459392 -0.0246552 -0.02470114 -0.02472454 -0.02472091 -0.02470242 -0.02466897
 -0.02464171 -0.02462196 -0.02462508 -0.02465118 -0.02470224 -0.0247768 -0.02486579 -0.02496746 -0.02506989 -0.02517239
 -0.02526686 -0.02535386 -0.02543039 -0.02549813 -0.02555756 -0.02561152 -0.02566242 -0.02571294 -0.02576503 -0.02582132
 -0.02588256 -0.02595343 -0.026035 -0.02613225 -0.02624687 -0.0263777 -0.02652544 -0.02668116 -0.02684433 -0.0270077
 -0.02717123 -0.02733555 -0.02750084 -0.02766921 -0.02783953 -0.02800804 -0.02817407 -0.02833317 -0.02848716 -0.02863729
 -0.02878534 -0.02893494 -0.02908462 -0.02923428 -0.02938276 -0.02952797 -0.02967427 -0.0298223 -0.02997845 -0.0301454
 -0.03032354 -0.03051446 -0.03070992 -0.03090964 -0.03110168 -0.03128514 -0.03145266 -0.03160436 -0.03174433 -0.03187434
 -0.03200972 -0.03215185 -0.03231612 -0.03249963 -0.03270389 -0.0329218 -0.03314042 -0.03335537 -0.03355364 -0.03373966
 -0.03391159 -0.03407857 -0.03424673 -0.03441897 -0.0345998 -0.03478208 -0.03496483 -0.03514102 -0.03530807 -0.03546913
 -0.03562367 -0.03578158 -0.03594362 -0.03611441 -0.03629386 -0.03647723 -0.036664 -0.0368476 -0.03702876 -0.03720683
 -0.03738346 -0.03756323 -0.0377467 -0.03793762 -0.03813443 -0.03833693 -0.03854256 -0.03874857 -0.03895432 -0.03915815
 -0.03936177 -0.03956553 -0.03977085 -0.0399785 -0.04018776 -0.04039878 -0.04060978 -0.04082057 -0.04102983 -0.04123748
 -0.04144217 -0.04164384 -0.04184157 -0.04203559 -0.04222729 -0.04241721 -0.04260858 -0.04280142 -0.04299774 -0.04319662
 -0.04339734 -0.04359887 -0.04379926 -0.04399866 -0.04419629 -0.04439317 -0.04458977 -0.04478686 -0.04498503 -0.04518417
 -0.04538441 -0.04558523 -0.04578665 -0.0459878 -0.04618888 -0.04638658 -0.0465808 -0.04676622 -0.04694274 -0.04710965
 -0.04726803 -0.04742683 -0.04758732 -0.04776093 -0.0479464 -0.04814682 -0.04835843 -0.04857509 -0.04879406 -0.04900836
 -0.04921849 -0.04942213 -0.04962144 -0.049817 -0.05001124 -0.05020551 -0.05040083 -0.05059835 -0.05079568 -0.05099296
 -0.0511854 -0.05137217 -0.0515519 -0.0517242 -0.05189369 -0.05206059 -0.0522292 -0.05239888 -0.05256586 -0.05272851
 -0.05287646 -0.05300992 -0.05312238 -0.05321889 -0.05330544 -0.05338968 -0.05348576 -0.05359657 -0.05373257 -0.05388615
 -0.05405704 -0.0542322 -0.054405 -0.05456883 -0.05471879 -0.05485921 -0.05498974 -0.05511745 -0.05524368 -0.05536886
 -0.05549334 -0.05561196 -0.05572448 -0.05582803 -0.0559231 -0.05601338 -0.05609974 -0.05618875 -0.05628018 -0.05637724
 -0.05647826 -0.05658144 -0.05668499 -0.05678539 -0.05688209 -0.05697289 -0.05705889 -0.05713968 -0.05721806 -0.05729448
 -0.05737399 -0.05745765 -0.05755199 -0.05765844 -0.05778227 -0.05792479 -0.05808593 -0.05826617 -0.05845827 -0.05866177
 -0.05886396 -0.05906423 -0.05925101 -0.05942505 -0.05958326 -0.05972844 -0.05986742 -0.06000348 -0.06014727 -0.06029974
 -0.0604676 -0.06064836 -0.06084278 -0.06104555 -0.06125354 -0.06146143 -0.06166558 -0.06186391 -0.06205406 -0.06223983
 -0.06242114 -0.06260455 -0.06279139 -0.06298288 -0.0631797 -0.06337345 -0.06356371 -0.06374193 -0.06390879 -0.06406841
 -0.06422289 -0.06438638 -0.06455844 -0.06474651 -0.06494594 -0.06515001 -0.06535493 -0.0655505 -0.06573922 -0.06591912
 -0.06609573 -0.06627339 -0.06645305 -0.06663737 -0.06682187 -0.06700546 -0.06718508 -0.06735919 -0.06753003 -0.06769757
 -0.06786505 -0.06803289 -0.06820113 -0.06836974 -0.06853448 -0.06869501 -0.06884588 -0.0689873 -0.06911685 -0.06923606
 -0.06934845 -0.0694563 -0.06956694 -0.06968074 -0.0698026 -0.0699289 -0.07005856 -0.07018539 -0.07030457 -0.07041159
 -0.0705025 -0.07057662 -0.07063279 -0.0706715 -0.07069279 -0.07069629 -0.07068189 -0.07064959 -0.07059927 -0.07053289
 -0.07045057 -0.07035363 -0.07024196 -0.07011436 -0.06997048 -0.06980771 -0.06962593 -0.06942312 -0.06919981 -0.06895578
 -0.06869262 -0.06841233 -0.06811737 -0.06781112 -0.06749527 -0.06717228 -0.06684244 -0.06650645 -0.0661645 -0.06581647
 -0.06546405 -0.0651076 -0.06474844 -0.06438684 -0.06402319 -0.0636574 -0.06329153 -0.06292572 -0.06256589 -0.06221273
 -0.06187616 -0.06155697 -0.06126479 -0.06100008 -0.06076973 -0.06057341 -0.06041418 -0.0602904 -0.06020203 -0.06014419
 -0.06011362 -0.06009959 -0.06009508 -0.0600848 -0.06005924 -0.06000736 -0.05992162 -0.05980304 -0.05964921 -0.05947004
 -0.05926657 -0.05904765 -0.05881428 -0.05857094 -0.05831791 -0.05805998 -0.05779767 -0.05753915 -0.05728509 -0.05704343
 -0.05681446 -0.05660313 -0.05640996 -0.05623822 -0.05608935 -0.05596719 -0.05587256 -0.0558079 -0.05577336 -0.05576838
 -0.05579775 -0.05586098 -0.05597283 -0.0561363 -0.05637239 -0.05668651 -0.05709464 -0.05760119 -0.05820811 -0.05891739
 -0.05971163 -0.06059015 -0.06151327 -0.06247775 -0.06342917 -0.06436446 -0.06523571 -0.06604447 -0.06676927 -0.06741692
 -0.06799231 -0.06850386 -0.06896748 -0.06939021 -0.06978606 -0.07016029 -0.07052166 -0.07087266 -0.07121754 -0.07155471
 -0.071885 -0.07220434 -0.07251181 -0.07280438 -0.07308114 -0.07334232 -0.07358769 -0.07381965 -0.07403833 -0.07424633
 -0.07444377 -0.07463282 -0.0748134 -0.0749862 -0.07515088 -0.07530612 -0.07545264 -0.07559003 -0.07572273 -0.07585646
 -0.07599968 -0.07616469 -0.07635755 -0.07658949 -0.07685603 -0.07716019 -0.07748768 -0.07783486 -0.07818619 -0.07853749
 -0.07887618 -0.07920016 -0.07949709 -0.07976589 -0.07999296 -0.08017742 -0.08030865 -0.08038677 -0.08041136 -0.08038596
 -0.0803306 -0.0802559 -0.08021057 -0.08021104 -0.08032498 -0.08056054 -0.08097029 -0.08153516 -0.08226223 -0.08310293
 -0.08402435 -0.08497138 -0.08590238 -0.08678626 -0.08759785 -0.08833808 -0.08900034 -0.08960206 -0.09014504 -0.09064452
 -0.09110239 -0.09152824 -0.09192277 -0.09229346 -0.09264074 -0.09297188 -0.09328729 -0.09359302 -0.09388926 -0.09418024
 -0.09446552 -0.09474633 -0.09502171 -0.09529049 -0.09555209 -0.09580505 -0.09604993 -0.09628653 -0.09651611 -0.0967393
 -0.09695733 -0.09717067 -0.09738085 -0.09758842 -0.09779419 -0.09799865 -0.09820039 -0.09839945 -0.09859286 -0.0987804
 -0.09896006 -0.09913187 -0.09929685 -0.09945545 -0.09961137 -0.09976518 -0.09992155 -0.1000801 -0.1002428 -0.1004075
 -0.1005712 -0.1007318 -0.1008847 -0.1010309 -0.1011688 -0.1013026 -0.1014343 -0.1015678 -0.1017057 -0.101848
 -0.1019959 -0.1021442 -0.1022928 -0.1024341 -0.1025672 -0.1026874 -0.1027942 -0.102891 -0.102978 -0.1030642
 -0.10315 -0.1032426 -0.1033413 -0.1034468 -0.1035578 -0.1036703 -0.1037837 -0.1038946 -0.104003 -0.1041077
 -0.1042093 -0.104308 -0.1044039 -0.1044972 -0.1045875 -0.1046745 -0.1047585 -0.1048392 -0.1049182 -0.1049955
 -0.1050726 -0.1051497 -0.1052267 -0.1053035 -0.1053799 -0.1054561 -0.1055329 -0.1056104 -0.1056893 -0.1057692
 -0.1058491 -0.1059287 -0.1060062 -0.1060819 -0.1061554 -0.1062277 -0.1062996 -0.1063718 -0.1064451 -0.1065193
 -0.1065946 -0.1066702 -0.106746 -0.1068212 -0.1068954 -0.1069686 -0.1070406 -0.1071127 -0.107185 -0.1072594
 -0.107336 -0.1074159 -0.107499 -0.1075855 -0.1076754 -0.1077695 -0.1078677 -0.1079711 -0.1080787 -0.108189
 -0.1083008 -0.1084102 -0.1085167 -0.1086173 -0.1087132 -0.1088043 -0.1088925 -0.1089792 -0.1090653 -0.1091518
 -0.1092388 -0.1093265 -0.109415 -0.1095043 -0.1095945 -0.1096856 -0.1097784 -0.1098727 -0.1099687 -0.1100661
 -0.1101635 -0.1102607 -0.1103552 -0.1104473 -0.1105373 -0.1106256 -0.1107149 -0.1108046 -0.1108958 -0.1109865
 -0.1110744 -0.1111582 -0.1112353 -0.1113074 -0.1113743 -0.1114397 -0.1115052 -0.1115732 -0.1116449 -0.1117195
 -0.1117974 -0.111875 -0.1119519 -0.1120241 -0.1120912 -0.1121522 -0.1122072 -0.112259 -0.112308 -0.1123589
 -0.1124116 -0.1124686 -0.1125289 -0.1125917 -0.112656 -0.1127194 -0.1127814 -0.1128401 -0.1128956 -0.1129472
 -0.1129958 -0.1130417 -0.113087 -0.1131326 -0.1131804 -0.1132314 -0.1132849 -0.1133414 -0.1133973 -0.1134522
 -0.1135034 -0.1135505 -0.1135949 -0.1136367 -0.1136806 -0.1137266 -0.1137784 -0.1138354 -0.1138969 -0.1139619
 -0.1140269 -0.1140917 -0.1141535 -0.1142131 -0.1142707 -0.1143275 -0.114385 -0.1144432 -0.1145025 -0.1145617
 -0.11462 -0.1146781 -0.1147354 -0.1147953 -0.1148588 -0.1149277 -0.1150029 -0.1150812 -0.1151626 -0.1152412
 -0.1153169 -0.1153873 -0.1154528 -0.1155164 -0.1155783 -0.1156422 -0.1157078 -0.1157755 -0.1158447 -0.1159135
 -0.1159823 -0.1160506 -0.1161197 -0.1161912 -0.1162654 -0.1163437 -0.1164235 -0.1165043 -0.116583 -0.116658
 -0.1167288 -0.1167947 -0.1168574 -0.1169172 -0.1169761 -0.1170343 -0.1170937 -0.1171545 -0.1172185 -0.1172858
 -0.1173568 -0.1174313 -0.1175074 -0.1175848 -0.1176612 -0.1177368 -0.1178109 -0.1178837 -0.1179547 -0.1180238
 -0.1180903 -0.1181543 -0.1182155 -0.1182756 -0.1183354 -0.1183964 -0.1184601 -0.1185247 -0.1185908 -0.1186539
 -0.1187132 -0.1187661 -0.118812 -0.1188537 -0.1188912 -0.1189301 -0.1189704 -0.1190143 -0.119061 -0.1191071
 -0.1191521 -0.1191918 -0.1192276 -0.1192598 -0.1192905 -0.1193237 -0.1193599 -0.1194019 -0.1194479 -0.1194978
 -0.1195489 -0.1195998 -0.1196485 -0.1196944 -0.1197355 -0.1197713 -0.1198009 -0.1198238 -0.1198421 -0.1198558
 -0.1198705 -0.1198864 -0.1199077 -0.1199341 -0.1199645 -0.1199986 -0.1200335 -0.1200697 -0.1201075 -0.1201476
 -0.1201923 -0.1202408 -0.1202932 -0.1203478 -0.1204023 -0.1204564 -0.1205088 -0.120561 -0.1206135 -0.1206671
 -0.1207228 -0.1207788 -0.1208351 -0.1208892 -0.1209407 -0.1209894 -0.1210353 -0.1210811 -0.121127 -0.1211756
 -0.1212268 -0.1212807 -0.1213367 -0.1213922 -0.1214468 -0.1214976 -0.1215451 -0.1215885 -0.1216293 -0.121669
 -0.1217088 -0.1217509 -0.1217954 -0.1218436 -0.1218948 -0.1219492 -0.1220053 -0.122063 -0.1221201 -0.1221762
 -0.122229 -0.1222779 -0.1223219 -0.1223606 -0.1223957 -0.1224271 -0.1224583 -0.1224895 -0.1225239 -0.1225612
 -0.122603 -0.1226487 -0.1226973 -0.1227479 -0.1227982 -0.1228474 -0.1228931 -0.1229353 -0.122973 -0.1230071
 -0.1230378 -0.1230664 -0.1230938 -0.123121 -0.1231483 -0.123177 -0.1232072 -0.1232395 -0.1232739 -0.1233092
 -0.1233451 -0.1233797 -0.1234128 -0.1234437 -0.1234728 -0.1235021 -0.123532 -0.123565 -0.1236008 -0.1236394
 -0.1236797 -0.1237199 -0.1237596 -0.1237974 -0.1238338 -0.1238691 -0.1239034 -0.1239369 -0.1239693 -0.1240002
 -0.12403 -0.1240586 -0.1240869 -0.1241153 -0.124143 -0.12417 -0.1241945 -0.1242161 -0.1242354 -0.1242522
 -0.1242699 -0.1242888 -0.1243113 -0.1243371 -0.1243648 -0.1243939 -0.1244211 -0.1244466 -0.124469 -0.1244892
 -0.1245083 -0.1245276 -0.124549 -0.1245726 -0.1245996 -0.1246286 -0.1246596 -0.1246901 -0.1247193 -0.1247453
 -0.1247671 -0.1247848 -0.1247982 -0.1248095 -0.1248188 -0.1248289 -0.1248398 -0.1248531 -0.1248689 -0.124887
 -0.1249074 -0.1249292 -0.1249521 -0.124975 -0.1249979 -0.1250201 -0.125042 -0.1250641 -0.1250877 -0.1251146
 -0.1251463 -0.1251843 -0.1252295 -0.125283 -0.1253443 -0.1254138 -0.12549 -0.1255726 -0.1256587 -0.1257479
 -0.125837 -0.1259255 -0.1260127 -0.1260982 -0.1261838 -0.1262695 -0.1263561 -0.1264431 -0.1265284 -0.126611
 -0.1266866 -0.1267533 -0.1268049 -0.1268391 -0.1268485 -0.1268337 -0.1267913 -0.1267261 -0.1266403 -0.1265415
 -0.1264335 -0.1263261 -0.1262231 -0.126136 -0.1260687 -0.126028 -0.1260167 -0.1260318 -0.1260742 -0.12613
 -0.1261986 -0.1262605 -0.1263152 -0.1263516 -0.1263708 -0.1263787 -0.1263765 -0.1263742 -0.1263703 -0.1263663
 -0.1263595 -0.1263445 -0.1263206 -0.1262832 -0.1262359 -0.1261792 -0.1261195 -0.126061 -0.1260068 -0.1259602
 -0.1259181 -0.1258807 -0.1258437 -0.125806 -0.1257673 -0.1257271 -0.1256878 -0.1256495 -0.1256133 -0.125579
 -0.1255446 -0.1255103 -0.1254742 -0.1254369 -0.1253994 -0.1253624 -0.1253291 -0.1252993 -0.1252747 -0.1252536
 -0.1252349 -0.1252167 -0.1251967 -0.1251739 -0.1251467 -0.1251161 -0.1250817 -0.1250466 -0.1250113 -0.1249796
 -0.1249525 -0.1249316 -0.1249176 -0.1249077 -0.1249018 -0.124895 -0.1248872 -0.1248757 -0.1248606 -0.1248425
 -0.1248216 -0.1247993 -0.1247759 -0.1247529 -0.1247304 -0.1247097 -0.1246909 -0.1246745 -0.1246598 -0.1246466
 -0.1246336 -0.12462 -0.1246047 -0.124587 -0.1245672 -0.1245449 -0.1245212 -0.1244963 -0.1244712 -0.1244463
 -0.1244219 -0.1243981 -0.1243743 -0.1243505 -0.1243255 -0.1242993 -0.1242715 -0.1242424 -0.1242135 -0.1241852
 -0.1241598 -0.1241371 -0.1241177 -0.1240998 -0.1240814 -0.1240609 -0.1240357 -0.1240064 -0.1239722 -0.1239358
 -0.1238982 -0.1238614 -0.1238267 -0.1237938 -0.123763 -0.1237329 -0.1237035 -0.1236737 -0.1236435 -0.1236129
 -0.1235819 -0.1235504 -0.1235185 -0.1234859 -0.1234526 -0.1234186 -0.1233841 -0.1233499 -0.1233162 -0.1232835
 -0.1232517 -0.1232207 -0.1231899 -0.1231587 -0.1231267 -0.1230933 -0.1230586 -0.1230225 -0.122986 -0.1229495
 -0.1229144 -0.1228813 -0.1228509 -0.1228234 -0.1227975 -0.1227731 -0.1227478 -0.1227213 -0.1226919 -0.1226597
 -0.1226241 -0.1225855 -0.1225445 -0.1225013 -0.1224568 -0.122412 -0.1223685 -0.1223273 -0.1222904 -0.1222576
 -0.1222296 -0.1222041 -0.1221798 -0.1221538 -0.1221237 -0.1220902 -0.1220525 -0.1220147 -0.1219778 -0.1219445
 -0.1219158 -0.1218889 -0.1218636 -0.1218346 -0.1218015 -0.1217617 -0.1217155 -0.1216652 -0.1216112 -0.121558
 -0.1215056 -0.1214569 -0.1214113 -0.1213689 -0.1213288 -0.1212901 -0.1212525 -0.1212156 -0.1211795 -0.1211444
 -0.1211092 -0.1210735 -0.121036 -0.1209956 -0.1209532 -0.1209084 -0.1208635 -0.1208189 -0.1207751 -0.1207323
 -0.1206896 -0.1206469 -0.1206044 -0.1205622 -0.120522 -0.1204836 -0.1204467 -0.1204104 -0.1203711 -0.1203285
 -0.1202796 -0.1202256 -0.1201668 -0.1201054 -0.120044 -0.1199845 -0.1199293 -0.1198782 -0.1198321 -0.119789
 -0.1197487 -0.1197084 -0.1196672 -0.1196234 -0.1195765 -0.1195271 -0.1194753 -0.119423 -0.1193702 -0.1193181
 -0.1192665 -0.1192155 -0.1191653 -0.1191165 -0.1190691 -0.1190237 -0.1189796 -0.1189356 -0.1188911 -0.1188437
 -0.1187941 -0.1187418 -0.1186884 -0.1186353 -0.1185832 -0.1185333 -0.1184846 -0.1184372 -0.1183899 -0.1183424
 -0.1182944 -0.1182457 -0.1181965 -0.1181467 -0.1180965 -0.1180458 -0.1179957 -0.1179463 -0.1178987 -0.1178529
 -0.1178085 -0.1177653 -0.1177216 -0.117677 -0.1176301 -0.1175812 -0.1175298 -0.1174771 -0.117424 -0.1173714
 -0.1173202 -0.1172706 -0.1172229 -0.1171765 -0.1171312 -0.1170868 -0.1170431 -0.1170008 -0.1169599 -0.11692
 -0.1168812 -0.1168413 -0.1168001 -0.1167552 -0.1167066 -0.1166542 -0.1165986 -0.1165418 -0.1164841 -0.1164278
 -0.1163726 -0.1163194 -0.1162675 -0.1162169 -0.1161671 -0.1161175 -0.116068 -0.1160185 -0.1159688 -0.1159191
 -0.1158697 -0.1158207 -0.1157726 -0.1157254 -0.1156795 -0.1156349 -0.1155917 -0.11555 -0.1155092 -0.1154694
 -0.1154294 -0.1153893 -0.1153478 -0.1153051 -0.1152605 -0.1152141 -0.1151659 -0.1151161 -0.115065 -0.115013
 -0.1149608 -0.1149095 -0.114861 -0.1148153 -0.1147738 -0.1147349 -0.1146983 -0.1146614 -0.1146228 -0.1145815
 -0.1145366 -0.1144895 -0.11444 -0.1143904 -0.1143409 -0.1142925 -0.1142455 -0.1141994 -0.1141542 -0.1141079
 -0.1140606 -0.1140099 -0.1139561 -0.1138989 -0.1138391 -0.113779 -0.1137198 -0.1136647 -0.1136135 -0.1135676
 -0.1135244 -0.1134826 -0.1134397 -0.1133932 -0.1133436 -0.1132899 -0.1132356 -0.1131813 -0.1131297 -0.113082
 -0.1130366 -0.1129936 -0.112949 -0.1129025 -0.1128519 -0.1127973 -0.1127398 -0.1126797 -0.1126192 -0.1125581
 -0.1124972 -0.1124364 -0.1123756 -0.1123149 -0.1122545 -0.1121946 -0.1121357 -0.1120778 -0.1120212 -0.111965
 -0.1119091 -0.1118518 -0.1117922 -0.11173 -0.1116643 -0.1115974 -0.1115293 -0.1114633 -0.1113999 -0.1113396
 -0.1112827 -0.1112262 -0.11117 -0.1111116 -0.1110512 -0.1109898 -0.1109278 -0.1108675 -0.1108085 -0.1107512
 -0.1106944 -0.1106363 -0.110577 -0.110515 -0.1104521 -0.110389 -0.1103271 -0.1102678 -0.11021 -0.110154
 -0.1100976 -0.1100403 -0.1099812 -0.1099198 -0.1098567 -0.1097917 -0.1097254 -0.1096577 -0.1095885 -0.1095179
 -0.1094462 -0.1093735 -0.1093011 -0.1092293 -0.1091594 -0.1090915 -0.1090265 -0.1089637 -0.1089023 -0.108841
 -0.1087784 -0.1087135 -0.1086452 -0.1085731 -0.1084964 -0.1084156 -0.1083302 -0.1082429 -0.1081541 -0.1080679
 -0.1079855 -0.1079076 -0.1078349 -0.1077634 -0.1076931 -0.1076201 -0.1075447 -0.1074674 -0.1073885 -0.1073105
 -0.1072331 -0.1071564 -0.1070801 -0.1070031 -0.1069257 -0.1068475 -0.1067693 -0.1066914 -0.1066142 -0.1065378
 -0.1064622 -0.1063875 -0.1063129 -0.1062384 -0.1061625 -0.1060849 -0.1060045 -0.1059208 -0.1058343 -0.105745
 -0.1056549 -0.1055643 -0.1054752 -0.1053876 -0.1053014 -0.1052165 -0.1051312 -0.1050458 -0.1049601 -0.1048746
 -0.1047911 -0.104709 -0.1046284 -0.1045474 -0.1044631 -0.1043747 -0.1042797 -0.1041803 -0.1040772 -0.1039732
 -0.1038701 -0.1037681 -0.1036675 -0.1035666 -0.103465 -0.1033619 -0.103257 -0.1031511 -0.1030442 -0.1029369
 -0.1028295 -0.1027227 -0.1026166 -0.1025127 -0.1024109 -0.1023121 -0.1022156 -0.1021194 -0.102022 -0.1019192
 -0.1018108 -0.1016942 -0.1015726 -0.1014476 -0.1013223 -0.1012001 -0.1010799 -0.1009625 -0.1008444 -0.1007245
 -0.1006011 -0.1004732 -0.100342 -0.1002073 -0.1000719 -0.0999358 -0.09980209 -0.09967083 -0.09954275 -0.09941754
 -0.09929284 -0.09916826 -0.09904075 -0.09891059 -0.09877706 -0.0986407 -0.09850241 -0.09836205 -0.09821986 -0.09807557
 -0.09792905 -0.09777991 -0.09762777 -0.0974726 -0.09731387 -0.09715349 -0.09699161 -0.09683134 -0.09667372 -0.0965184
 -0.09636597 -0.09621075 -0.09605233 -0.09588709 -0.09571506 -0.09553999 -0.09536228 -0.09518757 -0.09501496 -0.09484343
 -0.09467112 -0.09449139 -0.09430421 -0.09410537 -0.09389803 -0.0936847 -0.09346849 -0.09325422 -0.09304084 -0.09282985
 -0.09261722 -0.09240118 -0.09218004 -0.09195204 -0.0917208 -0.0914865 -0.0912541 -0.0910247 -0.09079792 -0.09057409
 -0.09034599 -0.09011322 -0.08986649 -0.089606 -0.08932926 -0.08903792 -0.08873902 -0.0884333 -0.08812771 -0.08781973
 -0.0875079 -0.08718874 -0.08685594 -0.08650932 -0.08614547 -0.08576806 -0.08537836 -0.08498015 -0.0845762 -0.08416601
 -0.08375121 -0.08332495 -0.08288669 -0.08242709 -0.08194414 -0.0814379 -0.08090768 -0.08036615 -0.07981387 -0.07925905
 -0.07870086 -0.07813348 -0.07755676 -0.07696607 -0.07636411 -0.07575823 -0.07514796 -0.07453855 -0.07392146 -0.07328571
 -0.07262665 -0.0719308 -0.07121136 -0.07047137 -0.06972935 -0.06899775 -0.06827686 -0.06757065 -0.06687024 -0.06617306
 -0.06548054 -0.06479197 -0.06411504 -0.0634509 -0.06279397 -0.0621438 -0.06148256 -0.0608108 -0.06012594 -0.05943309
 -0.05875852 -0.05810481 -0.05749686 -0.05692776 -0.05639591 -0.05589112 -0.0553974 -0.05490788 -0.05441065 -0.0538989
 -0.05336708 -0.05280164 -0.0521973 -0.05153466 -0.05080625 -0.04999913 -0.04910693 -0.04813592 -0.04708407 -0.04597557
 -0.04481164 -0.04362209 -0.0424085 -0.04119464 -0.03997988 -0.03876759 -0.03755213 -0.03630613 -0.03502269 -0.03365892
 -0.03222499 -0.0307141 -0.02915938 -0.02761156 -0.02608647 -0.02462914 -0.02321556 -0.02184386 -0.02048594 -0.01912286
 -0.01775378 -0.01637235 -0.01499167 -0.01361484 -0.01224434 -0.01088081 -0.009526051 -0.008179811 -0.006852053 -0.005543233
 -0.004252659 -0.00298002 -0.001718692 -0.0004724229 0.0007413847 0.001918182 0.003028539 0.004081419 0.005078844 0.006040053
 0.007000349 0.007960725 0.008943931 0.009919998 0.01087234 0.01178209 0.01262933 0.01342808 0.0141804 0.0148931
 0.01557224 0.01619713 0.01676626 0.01725719 0.01766719 0.0179902 0.01822581 0.01837515 0.01843857 0.01841974
 0.01832042 0.01815254 0.01791784 0.01762955 0.01728636 0.01689167 0.0164439 0.01593977 0.01538461 0.01477953
 0.01414018 0.01347692 0.01280725 0.01214437 0.01149315 0.01086004 0.01023699 0.009622833 0.009012771 0.00840464
 0.007806113 0.0072176 0.006647338 0.006095815 0.005558827 0.005035751 0.004516912 0.0040024 0.003487999 0.002974247
 0.002461394 0.001948548 0.001433793 0.0009160071 0.0003920084 -0.0001374351 -0.0006727962 -0.0012128 -0.001756463 -0.002303345
 -0.002853349 -0.003404799 -0.00395753 -0.004508208 -0.005055665 -0.00559952 -0.006139311 -0.006677346 -0.007214184 -0.007746314
 -0.008273601 -0.008785312 -0.009281338 -0.009756545 -0.01021365 -0.01066563 -0.01111754 -0.0115957 -0.01210095 -0.01265117
 -0.0132381 -0.0138567 -0.01449734 -0.01514608 -0.01579924 -0.01645073 -0.01709498 -0.01772908 -0.01834311 -0.0189309
 -0.0194942 -0.0200294 -0.02055591 -0.02107622 -0.0216068 -0.02215125 -0.02269722 -0.02324433 -0.02376294 -0.02425293
 -0.02470778 -0.02513042 -0.02553731 -0.02592887 -0.0263164 -0.02669605 -0.02706427 -0.02741666 -0.02774286 -0.02804371
 -0.02831349 -0.02856238 -0.02879417 -0.0290257 -0.02926754 -0.02953015 -0.02982217 -0.03013849 -0.03048075 -0.03083611
 -0.03120334 -0.03156831 -0.03192991 -0.03227257 -0.0325953 -0.03288606 -0.03314477 -0.03336884 -0.03355922 -0.03372023
 -0.03385355 -0.03396626 -0.03406306 -0.03415669 -0.0342572 -0.03438572 -0.03455491 -0.03478897 -0.03509364 -0.03548504
 -0.03595324 -0.03650039 -0.03710432 -0.03775749 -0.03844165 -0.03915055 -0.03987443 -0.040613 -0.04134444 -0.04206805
 -0.04274658 -0.04337738 -0.04394796 -0.04445975 -0.04493896 -0.04538852 -0.04584226 -0.046299 -0.04677342 -0.04725964
 -0.04775054 -0.04823976 -0.04871328 -0.04916592 -0.04958725 -0.04997 -0.0503055 -0.05058617 -0.05080452 -0.05095907
 -0.05104669 -0.05107133 -0.05103358 -0.05093615 -0.0507801 -0.05056372 -0.05028735 -0.04994462 -0.04953519 -0.04905058
 -0.04849124 -0.04786304 -0.04717179 -0.0464602 -0.04573753 -0.04506642 -0.04444778 -0.04391839 -0.04346884 -0.04310016
 -0.04279996 -0.04255425 -0.04235053 -0.04217467 -0.04201427 -0.04185776 -0.04169926 -0.04153062 -0.04136309 -0.04119613
 -0.04105079 -0.04093232 -0.04084484 -0.04079113 -0.04075265 -0.04072859 -0.04069508 -0.04065131 -0.04058386 -0.0404938
 -0.04038296 -0.04025291 -0.04011205 -0.03995905 -0.03979605 -0.03961756 -0.03941546 -0.03918253 -0.03890625 -0.03858175
 -0.03820092 -0.03775989 -0.03725584 -0.03668042 -0.03603045 -0.0352964 -0.03447329 -0.03356377 -0.03256524 -0.03149703
 -0.03036023 -0.02917793 -0.02795163 -0.02670131 -0.02542857 -0.02416313 -0.02290936 -0.021715 -0.02058416 -0.0195614
 -0.01864514 -0.01785395 -0.01718431 -0.01663671 -0.01621221 -0.01591155 -0.01573842 -0.01569777 -0.01578775 -0.01601102
 -0.01635685 -0.01682339 -0.01739395 -0.01806495 -0.01881722 -0.01964772 -0.02053658 -0.02148203 -0.02246136 -0.02347319
 -0.02449055 -0.02551213 -0.02651532 -0.02750045 -0.02846021 -0.02939583 -0.03031002 -0.03120089 -0.03206567 -0.03289911
 -0.03368918 -0.0344333 -0.03512124 -0.03575759 -0.03634163 -0.03688231 -0.03738455 -0.03785688 -0.03830433 -0.0387315
 -0.03914147 -0.03953278 -0.03990631 -0.04025573 -0.04058037 -0.04087551 -0.04114063 -0.04137556 -0.04158022 -0.04175382
 -0.04189563 -0.04199897 -0.042063 -0.04207931 -0.04204966 -0.04197329 -0.04185579 -0.04170645 -0.04153327 -0.04135009
 -0.04116514 -0.0409908 -0.04083285 -0.04069912 -0.04059052 -0.04051013 -0.04045403 -0.04042244 -0.04040824 -0.04041055
 -0.04042107 -0.04043876 -0.04045657 -0.04047377 -0.04048822 -0.04049999 -0.04051354 -0.04052962 -0.04055662 -0.04059539
 -0.04065443 -0.04073391 -0.04083924 -0.04096891 -0.04112349 -0.04129877 -0.0414901 -0.04169117 -0.04189443 -0.04209474
 -0.04228568 -0.04246728 -0.04263695 -0.04280001 -0.04295734 -0.04311437 -0.0432727 -0.04343387 -0.04359845 -0.04376524
 -0.04393412 -0.04410499 -0.04427787 -0.04445453 -0.0446349 -0.04481936 -0.04500703 -0.04519415 -0.04537904 -0.04555445
 -0.04571946 -0.04586812 -0.04600178 -0.04611952 -0.04622376 -0.0463169 -0.04639954 -0.04647312 -0.04653665 -0.04658981
 -0.04663273 -0.04666514 -0.04668857 -0.04670363 -0.04670949 -0.04670643 -0.04669076 -0.04666219 -0.04661841 -0.04655936
 -0.04648668 -0.04640065 -0.04630465 -0.04619871 -0.04608482 -0.04596266 -0.04583214 -0.04569308 -0.04554473 -0.04538787
 -0.04522298 -0.04505169 -0.04487568 -0.04469649 -0.04451576 -0.04433413 -0.04415237 -0.04397045 -0.04378842 -0.04360658
 -0.04342472 -0.04324469 -0.04306648 -0.0428934 -0.04272568 -0.04256697 -0.04241747 -0.04227876 -0.04215073 -0.0420328
 -0.04192478 -0.0418255 -0.0417348 -0.0416516 -0.04157583 -0.0415068 -0.04144478 -0.04138965 -0.04134245 -0.04130426
 -0.04127576 -0.04125821 -0.04125039 -0.04125255 -0.04126139 -0.04127595 -0.04129336 -0.04131247 -0.04133369 -0.04135663
 -0.04138473 -0.04141832 -0.04145894 -0.04150661 -0.04155708 -0.04160975 -0.04165649 -0.04169727 -0.04172714 -0.04174741
 -0.0417596 -0.04176555 -0.04177037 -0.04177454 -0.04178162 -0.04178977 -0.04179883 -0.04180569 -0.04180808 -0.04180361
 -0.04179003 -0.041768 -0.04173662 -0.04169985 -0.04165802 -0.04161655 -0.0415763 -0.04154075 -0.04151045 -0.04148509
 -0.04146465 -0.04144549 -0.04142727 -0.04140478 -0.04137743 -0.04133939 -0.04128993 -0.04122335 -0.04113955 -0.04103515
 -0.04091131 -0.04076819 -0.04060747 -0.04043099 -0.04024003 -0.04003622 -0.03981986 -0.03959207 -0.03935063 -0.03909613
 -0.03882164 -0.03852654 -0.0382006 -0.03784225 -0.03744389 -0.03700435 -0.03652386 -0.0360024 -0.03544727 -0.03485917
 -0.03424876 -0.03361701 -0.03297484 -0.03232292 -0.03166949 -0.03101426 -0.03036073 -0.02970814 -0.02905611 -0.02840596
 -0.0277578 -0.02711652 -0.02648502 -0.02586991 -0.0252757 -0.02470549 -0.02416235 -0.02364302 -0.02314795 -0.02267014
 -0.0222086 -0.02175809 -0.0213179 -0.02088702 -0.02046534 -0.02005241 -0.01964786 -0.01924687 -0.01884829 -0.01844252
 -0.01802905 -0.01760014 -0.01715747 -0.0167006 -0.01623276 -0.01575917 -0.01528187 -0.01480542 -0.01433003 -0.01385692
 -0.01338705 -0.01292054 -0.01246064 -0.01200841 -0.01156685 -0.01113729 -0.01071944 -0.01031378 -0.009917062 -0.009529145
 -0.009145903 -0.008767095 -0.008389154 -0.008011994 -0.007633446 -0.007254032 -0.006875343 -0.006498988 -0.006131368 -0.005774546
 -0.005436894 -0.005119177 -0.004826805 -0.004558661 -0.004315863 -0.004096124 -0.003898794 -0.003719358 -0.003557089 -0.003401606
 -0.003250821 -0.003088846 -0.002911753 -0.002706455 -0.002469783 -0.00219734 -0.001888179 -0.001542803 -0.001161218 -0.000741576
 -0.0002836553 0.000216773 0.0007592754 0.001344094 0.001968732 0.002624957 0.003308229 0.004004329 0.004707213 0.00540185
 0.006079751 0.006727218 0.007331957 0.007881349 0.008361361 0.00876092 0.009071246 0.009284995 0.00940467 0.009427601
 0.009367695 0.009225422 0.009021893 0.00875862 0.008459438 0.008125822 0.007779437 0.00742109 0.007065521 0.006712501
 0.006367959 0.006031024 0.005701295 0.005378598 0.005061753 0.004752291 0.004452129 0.004163246 0.003889426 0.003630038
 0.003386702 0.003155507 0.0029346 0.002721204 0.002513173 0.002311816 0.002117194 0.001930293 0.001752369 0.001576374
 0.001402447 0.001215996 0.001016175 0.0007887383 0.0005331957 0.0002411961 -8.732177E-05 -0.0004565721 -0.0008670382 -0.001322968
 -0.001824823 -0.002376847 -0.002977066 -0.00362546 -0.004315818 -0.00504166 -0.005794432 -0.006564396 -0.007346845 -0.008135141
 -0.008931824 -0.009735776 -0.01055268 -0.01138455 -0.01223204 -0.01309658 -0.013971 -0.01485502 -0.01573924 -0.01662304
 -0.01749919 -0.01836728 -0.01922034 -0.02005753 -0.0208695 -0.02165527 -0.02240553 -0.02312054 -0.02379583 -0.02443323
 -0.02503363 -0.02559979 -0.02613502 -0.02664293 -0.02712707 -0.02759213 -0.02804125 -0.02847962 -0.02891 -0.02933586
 -0.02975909 -0.0301794 -0.03059733 -0.03100984 -0.03141658 -0.03181573 -0.03220708 -0.03259187 -0.03297017 -0.03334346
 -0.03371153 -0.03407338 -0.03442845 -0.03477407 -0.0351095 -0.0354318 -0.03573953 -0.03602895 -0.0362983 -0.03654341
 -0.03676441 -0.03695935 -0.03713101 -0.03728025 -0.0374104 -0.03752308 -0.03762033 -0.03770296 -0.03777261 -0.03782963
 -0.03787574 -0.03791132 -0.03793604 -0.03795001 -0.03794906 -0.03793289 -0.03789579 -0.03783786 -0.0377567 -0.03765363
 -0.03753253 -0.0373959 -0.03725244 -0.03710438 -0.03696036 -0.0368205 -0.03668929 -0.03656376 -0.0364434 -0.03632353
 -0.03620107 -0.0360727 -0.03593595 -0.03579043 -0.03563531 -0.03547207 -0.03530068 -0.03512355 -0.03494081 -0.03475557
 -0.03456801 -0.0343819 -0.03419746 -0.03401839 -0.03384504 -0.03368172 -0.03352906 -0.03339231 -0.03327162 -0.03317053
 -0.03308794 -0.0330233 -0.03297579 -0.03294367 -0.03292765 -0.03292791 -0.03294475 -0.03297979 -0.03302825 -0.03308995
 -0.0331549 -0.03322084 -0.0332771 -0.03332111 -0.03334691 -0.03335317 -0.03333941 -0.03330545 -0.03325286 -0.03318169
 -0.03309225 -0.0329846 -0.03285881 -0.03271598 -0.03256065 -0.03239537 -0.03223006 -0.03206652 -0.03191418 -0.03177079
 -0.03163805 -0.03151086 -0.03138426 -0.03125661 -0.03112386 -0.03099108 -0.03085937 -0.03073387 -0.03061785 -0.0305072
 -0.03040256 -0.03029396 -0.03017985 -0.03005631 -0.02992262 -0.02978328 -0.02963851 -0.02949332 -0.02934767 -0.02920276
 -0.02905872 -0.02891666 -0.02877729 -0.02864357 -0.02851558 -0.02839515 -0.02828136 -0.02817363 -0.02807114 -0.02797297
 -0.02787823 -0.02778636 -0.02769568 -0.02760563 -0.02751377 -0.02741922 -0.02732046 -0.02721678 -0.02710897 -0.02699689
 -0.02688303 -0.02676762 -0.0266517 -0.02653528 -0.02641654 -0.02629539 -0.02616979 -0.02604027 -0.025908 -0.02577413
 -0.02564264 -0.02551447 -0.02539376 -0.02528022 -0.02517564 -0.0250781 -0.02498667 -0.02489852 -0.0248115 -0.02472336
 -0.02463265 -0.02453764 -0.02443782 -0.02433048 -0.02421501 -0.02408915 -0.02395223 -0.02380519 -0.02364791 -0.02348434
 -0.02331469 -0.02314309 -0.02296963 -0.02279668 -0.02262415 -0.02245272 -0.0222824 -0.02211316 -0.02194599 -0.02178262
 -0.02162487 -0.02147651 -0.02133776 -0.02121093 -0.02109341 -0.02098406 -0.02088067 -0.02078154 -0.02068684 -0.02059672
 -0.02050956 -0.02042593 -0.02033916 -0.02024867 -0.02014693 -0.02003311 -0.01990431 -0.01976041 -0.01960275 -0.01943143
 -0.01924799 -0.01905232 -0.01884449 -0.01862458 -0.01839255 -0.01814934 -0.0178965 -0.017636 -0.01737113 -0.01710428
 -0.01683883 -0.01657742 -0.01632253 -0.01607724 -0.0158432 -0.01562414 -0.01542148 -0.01523845 -0.01507616 -0.0149358
 -0.014818 -0.01472065 -0.01464372 -0.01458388 -0.01454094 -0.01451146 -0.01449497 -0.01448546 -0.01448139 -0.01447124
 -0.01445355 -0.01441649 -0.01436163 -0.01428595 -0.01419342 -0.01408922 -0.01397561 -0.01385731 -0.01373429 -0.01360759
 -0.01347808 -0.01334619 -0.01321345 -0.01308063 -0.0129479 -0.01281514 -0.01268415 -0.0125548 -0.01243178 -0.01231562
 -0.01220785 -0.01210855 -0.01201239 -0.011919 -0.01182228 -0.01172237 -0.01161727 -0.01150662 -0.01138871 -0.01126203
 -0.01112201 -0.01096835 -0.01079783 -0.01061279 -0.01041462 -0.0102051 -0.009986817 -0.009757962 -0.009518113 -0.009266166
 -0.008999635 -0.008727081 -0.00844833 -0.008180458 -0.007926544 -0.007695078 -0.007488341 -0.007293136 -0.00710884 -0.006912606
 -0.006704074 -0.006472363 -0.006219539 -0.005951811 -0.005671992 -0.005393235 -0.00511704 -0.00485358 -0.00460265 -0.004368386
 -0.004150076 -0.003947845 -0.003762946 -0.003595634 -0.003449437 -0.003326688 -0.003228273 -0.00315637 -0.003105017 -0.003074432
 -0.003052856 -0.003039354 -0.003018799 -0.002989923 -0.002937973 -0.002862027 -0.002755814 -0.002620067 -0.002463448 -0.002287979
 -0.002110596 -0.001932016 -0.001764536 -0.001606084 -0.001458472 -0.001317813 -0.001178045 -0.001037552 -0.0008899644 -0.0007415844
 -0.0005934097 -0.0004573415 -0.0003412577 -0.0002488892 -0.0001877537 -0.0001390326 -0.0001025024 -4.502461E-05 4.146646E-05 0.0001594406
 0.0003123038 0.0004656381 0.0006175778 0.0007442252 0.0008459575 0.0009250835 0.0009838565 0.001038044 0.001088065 0.001144822
 0.001205121 0.001266119 0.001325898 0.001378288 0.001427068 0.001473791 0.00152345 0.001582091 0.00164798 0.001723334
 0.00180005 0.001875489 0.001943862 0.002001863 0.002053494 0.002097777 0.002147387 0.002203472 0.002276528 0.002367413
 0.002471382 0.002587252 0.002695093 0.002793441 0.002862118 0.002902258 0.002906602 0.002878958 0.002824462 0.002748064
 0.002660135 0.00256525 0.002472898 0.002385826 0.00230952 0.002244659 0.002193332 0.002154447 0.002128515 0.002112256
 0.002104296 0.002105297 0.002113498 0.002142197 0.002192027 0.002281333 0.002411564 0.002581015 0.002788209 0.003005974
 0.003232725 0.003443098 0.003639932 0.003820421 0.003989341 0.004158287 0.004328596 0.004509393 0.004696332 0.004888777
 0.005079314 0.005261456 0.005429974 0.005579129 0.005709722 0.005820073 0.005914775 0.005994436 0.006064043 0.006123937
 0.00618173 0.006237765 0.006303817 0.006380692 0.006476052 0.006589737 0.006718229 0.006860253 0.007004871 0.007151544
 0.007292026 0.00742717 0.007555051 0.007676646 0.007793088 0.007904368 0.008010862 0.008112619 0.008208979 0.008302689
 0.008394164 0.008489249 0.008589771 0.008702419 0.008828969 0.008975863 0.009144826 0.009338259 0.009557702 0.009792452
 0.01004228 0.01028324 0.01051426 0.01071566 0.01088872 0.01103337 0.01115265 0.01125944 0.01135534 0.011451
 0.01154709 0.01164936 0.01175895 0.01188053 0.01201194 0.01215508 0.01230048 0.01244492 0.01257414 0.01268225
 0.01275679 0.01279294 0.01278446 0.01272899 0.0126265 0.01247611 0.01228471 0.01205241 0.01179453 0.01151203
 0.01122413 0.01093061 0.01063912 0.01034704 0.01004568 0.00973587 0.009412038 0.009084316 0.008768832 0.008475058
 0.008226459 0.008014958 0.00784561 0.007695836 0.007552109 0.007401501 0.00723239 0.007050881 0.006855458 0.00665798
 0.006460659 0.006270532 0.006088813 0.005918662 0.005760503 0.005612375 0.005474252</values></Ydata></AB><ScSm><Ydata ylabel="Single channel"><values byteorder="INTEL" format="FLOAT32" numvalues="1814"> 0.0920244 0.09215607 0.09230561 0.09247839 0.09266645 0.09285285 0.09302246 0.09317242 0.09330957 0.0934366
 0.0935522 0.09366788 0.09380807 0.09398446 0.09417991 0.09436201 0.09450758 0.09462164 0.09473912 0.09489353
 0.09507076 0.09520557 0.09524108 0.09519081 0.09513262 0.09513877 0.09522714 0.09539722 0.09567506 0.09604693
 0.09636413 0.09643802 0.09627576 0.09611315 0.09615363 0.09636503 0.09657763 0.09667368 0.09663171 0.09650888
 0.09646898 0.09673397 0.09738219 0.09817907 0.09864742 0.09834324 0.09715313 0.09545569 0.09403031 0.09364827
 0.0945157 0.096044 0.09729196 0.09772424 0.0974991 0.09706506 0.09669405 0.09647713 0.09653105 0.09697665
 0.09774435 0.0984956 0.09875236 0.09820981 0.09707998 0.09605742 0.09575194 0.09621473 0.09714744 0.09826483
 0.09902855 0.09838025 0.09567888 0.09211972 0.09035958 0.09206253 0.09615862 0.09995656 0.1015927 0.1010151
 0.09920625 0.09731789 0.09636591 0.09688042 0.09855975 0.1005711 0.1022122 0.103097 0.1029803 0.1018735
 0.1002759 0.09896276 0.09855388 0.09933361 0.101136 0.103171 0.1043408 0.1041044 0.1028824 0.1015119
 0.1006303 0.1006465 0.1017744 0.1037797 0.1059997 0.1078325 0.1090496 0.1096659 0.1097964 0.1096322
 0.1093435 0.1090543 0.1089725 0.1092851 0.1097924 0.1099473 0.1094647 0.1087076 0.1083183 0.1085554
 0.1090725 0.1093385 0.1091647 0.1086018 0.1073979 0.105124 0.1020528 0.09929173 0.09769979 0.09728678
 0.09792076 0.09969276 0.1020618 0.1035948 0.1034122 0.1023761 0.1021562 0.1034218 0.1054241 0.1070847
 0.1080416 0.108703 0.1096122 0.110836 0.1118099 0.1117541 0.1104693 0.108833 0.1082169 0.1091589
 0.1108403 0.1120925 0.1126254 0.1129896 0.1136069 0.1141587 0.1138637 0.112314 0.1101782 0.108967
 0.109787 0.112245 0.1146547 0.1153128 0.1137105 0.1108066 0.1082218 0.1070743 0.1075484 0.10936
 0.1121531 0.1153213 0.1179147 0.1191244 0.118841 0.1176296 0.116114 0.1143966 0.1122826 0.1101862
 0.1093669 0.1107493 0.1137331 0.1166707 0.1183874 0.1188317 0.1184044 0.1171608 0.1149166 0.1120687
 0.1099611 0.1098884 0.1116217 0.1134676 0.114068 0.1136681 0.1133434 0.1135287 0.1137833 0.1136942
 0.1134937 0.1137292 0.1145626 0.1155635 0.1161659 0.1161898 0.1158761 0.1155477 0.1153044 0.1149695
 0.1143607 0.1136982 0.1135827 0.1143621 0.1156639 0.1167693 0.1173199 0.1174562 0.1173835 0.1170273
 0.116168 0.1148821 0.1137504 0.1134446 0.1140736 0.1151026 0.1159198 0.116289 0.1162816 0.1160462
 0.1157117 0.1153541 0.115012 0.1147737 0.1147625 0.1149708 0.1152137 0.1153116 0.1152366 0.1150456
 0.1147634 0.1143853 0.1139508 0.1135668 0.1133403 0.1132925 0.1133556 0.113442 0.1134825 0.1134155
 0.113209 0.1129042 0.1125866 0.1123079 0.1120707 0.111878 0.1117512 0.1116917 0.1116572 0.1115921
 0.1114738 0.1113146 0.111129 0.110919 0.1106915 0.1104724 0.1102934 0.1101723 0.1100961 0.1100273
 0.1099442 0.1098675 0.109819 0.1097662 0.1096509 0.1094665 0.1092677 0.1091088 0.1090015 0.1089261
 0.1088538 0.1087547 0.1086014 0.1083892 0.1081615 0.1079973 0.1079504 0.1080079 0.1081188 0.108238
 0.1083306 0.1083693 0.1083569 0.1083263 0.1082993 0.1082654 0.1082093 0.1081419 0.1081 0.108119
 0.1082002 0.1083038 0.1083825 0.1084166 0.1084138 0.1083997 0.1084132 0.1084748 0.1085487 0.1085711
 0.1085318 0.1084925 0.1085118 0.1085774 0.1086286 0.1086277 0.1085952 0.10858 0.108607 0.1086608
 0.1087133 0.1087573 0.1088078 0.1088762 0.1089443 0.1089701 0.10893 0.1088517 0.1087883 0.1087639
 0.1087652 0.1087801 0.1088153 0.1088727 0.1089285 0.1089517 0.1089366 0.1089093 0.1088986 0.1089041
 0.1089006 0.1088709 0.1088244 0.1087837 0.1087614 0.1087535 0.1087454 0.1087226 0.1086795 0.1086196
 0.1085479 0.108467 0.1083778 0.1082865 0.1082107 0.1081738 0.1081785 0.1081843 0.1081295 0.1079867
 0.1077904 0.1076048 0.1074692 0.1073748 0.1072852 0.1071736 0.1070418 0.1069105 0.1067971 0.1067028
 0.106617 0.106531 0.1064497 0.1063924 0.1063761 0.106392 0.1064031 0.106377 0.106318 0.1062608
 0.1062334 0.1062379 0.1062597 0.1062868 0.1063195 0.1063687 0.1064421 0.1065289 0.1066074 0.1066702
 0.1067346 0.1068239 0.10695 0.1071126 0.1072982 0.1074784 0.1076279 0.1077512 0.1078801 0.1080405
 0.1082314 0.1084388 0.1086561 0.1088838 0.1091206 0.109366 0.1096264 0.1099114 0.110223 0.1105535
 0.1108914 0.1112276 0.1115595 0.111895 0.1122496 0.1126348 0.1130472 0.1134695 0.1138847 0.1142883
 0.1146883 0.1150923 0.1155003 0.1159118 0.1163351 0.1167799 0.1172436 0.1177109 0.1181706 0.1186249
 0.1190826 0.1195475 0.1200171 0.1204898 0.1209717 0.1214722 0.121987 0.122492 0.1229616 0.1233957
 0.1238209 0.124266 0.1247418 0.1252359 0.1257197 0.1261665 0.1265764 0.1269806 0.1274084 0.1278563
 0.1283011 0.1287389 0.1291916 0.1296735 0.1301627 0.1306139 0.1310021 0.1313463 0.1316898 0.1320539
 0.1324199 0.1327577 0.1330652 0.1333678 0.1336848 0.1340145 0.1343529 0.1347079 0.1350831 0.1354582
 0.1358044 0.1361147 0.1364065 0.136695 0.136976 0.1372349 0.1374656 0.1376803 0.1379024 0.1381476
 0.1384087 0.138668 0.138925 0.1392004 0.1395107 0.1398513 0.1402119 0.1405935 0.1409983 0.1414127
 0.1418193 0.1422257 0.142659 0.1431237 0.1435801 0.1439839 0.1443351 0.1446703 0.1450174 0.1453803
 0.1457625 0.1461784 0.1466331 0.1471085 0.1475755 0.1480158 0.1484337 0.148851 0.149285 0.1497239
 0.1501321 0.1504847 0.1507918 0.1510876 0.1514003 0.1517344 0.1520722 0.1523899 0.1526713 0.1529063
 0.1530784 0.1531671 0.1531696 0.1531084 0.1530042 0.1528458 0.1525971 0.1522282 0.1517301 0.1511005
 0.1503307 0.1494179 0.1483907 0.1473244 0.1463306 0.1455273 0.1450075 0.1448214 0.1449732 0.1454204
 0.1460741 0.146809 0.1474877 0.1479864 0.1482119 0.148111 0.1476793 0.1469628 0.1460402 0.1449978
 0.1439095 0.1428305 0.141801 0.1408697 0.1401251 0.1397054 0.139767 0.1404343 0.1417595 0.1436952
 0.146079 0.1486572 0.1511635 0.1534134 0.1553464 0.156996 0.1584309 0.1597187 0.1609126 0.1620461
 0.163128 0.164152 0.1651133 0.1660136 0.166851 0.1676126 0.1682768 0.1688222 0.1692388 0.1695384
 0.1697538 0.1699253 0.170091 0.1702815 0.1705055 0.170727 0.1708674 0.1708401 0.1705926 0.1701286
 0.1695193 0.1689155 0.1685542 0.168724 0.169663 0.171425 0.1738135 0.1764636 0.1790138 0.1812362
 0.1830549 0.1845012 0.1856611 0.1866323 0.1874908 0.1882796 0.1890208 0.1897279 0.1904094 0.1910687
 0.1917076 0.1923306 0.1929463 0.1935614 0.1941745 0.1947767 0.1953618 0.1959353 0.1965106 0.1970971
 0.1976908 0.1982789 0.1988546 0.1994235 0.1999929 0.200558 0.2011077 0.2016404 0.2021668 0.2026959
 0.2032277 0.2037584 0.204284 0.2047968 0.205289 0.2057616 0.2062237 0.2066824 0.2071388 0.2075914
 0.2080396 0.2084823 0.2089185 0.2093504 0.2097829 0.2102174 0.2106483 0.2110671 0.2114708 0.2118655
 0.2122605 0.2126606 0.2130637 0.2134653 0.2138642 0.2142655 0.2146768 0.2151003 0.2155281 0.2159484
 0.2163561 0.2167558 0.217156 0.2175627 0.2179765 0.2183952 0.2188163 0.2192388 0.2196612 0.2200809
 0.2204972 0.2209118 0.2213266 0.2217408 0.2221523 0.2225599 0.2229653 0.2233721 0.2237824 0.224195
 0.2246058 0.2250116 0.2254096 0.2257986 0.2261798 0.2265567 0.2269307 0.2273013 0.2276694 0.2280373
 0.2284054 0.2287736 0.2291433 0.2295172 0.2298951 0.2302717 0.2306412 0.2310032 0.2313641 0.2317294
 0.2320974 0.2324632 0.2328271 0.2331932 0.2335637 0.2339368 0.2343104 0.2346844 0.23506 0.2354373
 0.2358137 0.2361865 0.2365578 0.2369329 0.2373146 0.2377009 0.2380887 0.2384756 0.2388614 0.2392472
 0.2396329 0.2400167 0.2403987 0.2407816 0.2411654 0.2415461 0.2419225 0.2422988 0.2426792 0.2430645
 0.2434541 0.2438471 0.244241 0.2446341 0.2450256 0.2454146 0.2457997 0.2461807 0.246558 0.2469329
 0.2473074 0.2476816 0.2480539 0.2484259 0.2488021 0.2491828 0.2495624 0.2499355 0.2503011 0.2506624
 0.2510269 0.251401 0.2517832 0.2521669 0.252548 0.2529239 0.2532924 0.2536571 0.2540284 0.2544104
 0.2547965 0.2551793 0.2555567 0.2559294 0.2562994 0.256669 0.257037 0.2573999 0.2577573 0.2581114
 0.2584642 0.2588194 0.2591809 0.2595469 0.2599146 0.2602863 0.2606643 0.2610441 0.2614228 0.2618039
 0.2621901 0.26258 0.2629735 0.2633699 0.2637643 0.2641537 0.2645401 0.2649246 0.2653087 0.2656992
 0.2660996 0.2665047 0.2669088 0.2673108 0.2677082 0.2680987 0.268486 0.2688751 0.2692663 0.2696607
 0.2700607 0.2704623 0.2708611 0.2712597 0.2716596 0.2720569 0.2724537 0.2728561 0.2732608 0.2736611
 0.2740593 0.2744575 0.2748499 0.2752362 0.2756266 0.2760275 0.2764378 0.2768549 0.2772704 0.2776727
 0.2780643 0.2784567 0.2788503 0.2792404 0.2796283 0.280012 0.2803839 0.2807488 0.2811165 0.2814766
 0.2817956 0.2820035 0.281924 0.2811877 0.2791786 0.2750429 0.2678554 0.2569906 0.2424994 0.2252167
 0.2065285 0.1879399 0.1706667 0.1554699 0.1427529 0.1327235 0.1255056 0.1212368 0.120148 0.1226796
 0.1296376 0.1417158 0.1577382 0.1731398 0.1816719 0.1801303 0.1712566 0.1612494 0.1547161 0.1524079
 0.152776 0.154281 0.1563047 0.1589853 0.162696 0.1674971 0.1730703 0.1792471 0.1863256 0.1946149
 0.2038324 0.2132007 0.2220986 0.2304661 0.2385803 0.2465687 0.2542163 0.2611731 0.2672265 0.2723729
 0.2767452 0.2805275 0.2838857 0.2869306 0.2897337 0.2923329 0.2946831 0.2966353 0.2980236 0.2987985
 0.2990872 0.2991338 0.2991642 0.299291 0.2995297 0.2998706 0.3003071 0.3008259 0.3014118 0.3020537
 0.3027341 0.3034295 0.304126 0.3048157 0.305484 0.3061164 0.3067101 0.3072673 0.3077923 0.3082944
 0.308781 0.3092506 0.3097021 0.3101417 0.3105736 0.310997 0.3114136 0.3118233 0.3122175 0.3125881
 0.3129362 0.3132655 0.313579 0.3138832 0.3141844 0.3144815 0.3147725 0.3150599 0.3153453 0.3156273
 0.3159069 0.3161851 0.3164607 0.3167355 0.3170133 0.3172909 0.3175611 0.3178253 0.3180918 0.3183634
 0.3186353 0.3189015 0.3191583 0.3194063 0.3196518 0.3199029 0.3201654 0.3204458 0.3207462 0.3210565
 0.3213622 0.3216587 0.3219515 0.3222438 0.322536 0.3228312 0.3231324 0.3234389 0.3237485 0.3240542
 0.3243428 0.3246031 0.3248366 0.325057 0.3252816 0.3255208 0.3257719 0.3260228 0.3262676 0.3265107
 0.326757 0.3270077 0.3272642 0.3275264 0.327791 0.3280594 0.3283412 0.3286403 0.3289489 0.3292587
 0.3295694 0.3298816 0.3301939 0.3305074 0.3308229 0.3311338 0.3314306 0.3317161 0.3320107 0.3323409
 0.3327138 0.333104 0.3334748 0.3338139 0.3341388 0.3344736 0.3348292 0.3351929 0.3355265 0.3357944
 0.3360141 0.3362613 0.336601 0.3370263 0.3374742 0.3378907 0.3382657 0.3386181 0.3389632 0.3392988
 0.3396105 0.3398864 0.340137 0.3404062 0.340745 0.3411582 0.3415925 0.3419934 0.3423526 0.3426872
 0.3430072 0.3433156 0.3435995 0.3438115 0.3439167 0.3439834 0.3441715 0.3445828 0.3451478 0.3456981
 0.346135 0.3464881 0.3468224 0.3471519 0.3474568 0.3477076 0.3478236 0.3477094 0.3474346 0.3473024
 0.3476058 0.3483289 0.3491792 0.3498828 0.3503683 0.3507074 0.3509886 0.3512561 0.3514836 0.3515805
 0.3514882 0.3513168 0.3513274 0.3516949 0.3523107 0.3528998 0.3533098 0.3535973 0.3538725 0.3541745
 0.3544523 0.354546 0.354255 0.3536105 0.3530577 0.3531681 0.354086 0.3553627 0.3564047 0.3570029
 0.3573375 0.3575639 0.3575869 0.3572416 0.3564971 0.3554689 0.354473 0.3540773 0.3547343 0.3562083
 0.3576666 0.3585134 0.3589043 0.3593327 0.359983 0.3606477 0.3610703 0.3611776 0.3610367 0.3607008
 0.360185 0.3596413 0.3594607 0.3599955 0.3611495 0.3624023 0.3632982 0.3638045 0.3641042 0.3640701
 0.3631251 0.3609251 0.3582628 0.356876 0.3579063 0.3606978 0.3635063 0.3652259 0.3659998 0.3664061
 0.3667013 0.3667484 0.3660058 0.3637048 0.3598925 0.3563505 0.3555199 0.3580967 0.3622518 0.3654026
 0.3661898 0.3647609 0.3621125 0.3596263 0.35858 0.3594531 0.3617237 0.3643996 0.3666169 0.3678765
 0.3680714 0.3674369 0.3664519 0.3657115 0.3655565 0.3655652 0.3648126 0.3630686 0.3612381 0.3599702
 0.358475 0.3558168 0.3529947 0.3523287 0.3545866 0.3578741 0.359833 0.3600591 0.3596826 0.359092
 0.3570023 0.3521495 0.3456254 0.3408478 0.3406325 0.3443826 0.3486813 0.3506458 0.3502042 0.3491279
 0.3485351 0.3477088 0.3451759 0.3407947 0.3365664 0.3348442 0.3356997 0.3368196 0.3360692 0.3330044
 0.3277624 0.3204938 0.3130838 0.3095319 0.3124266 0.3197194 0.3265353 0.3294002 0.3273515 0.3204672
 0.3101556 0.3006206 0.296998 0.3006373 0.3075355 0.312211 0.3120184 0.3072698 0.2990099 0.2885357
 0.2785327 0.2727363 0.2735327 0.2800334 0.2882823 0.2930048 0.2903072 0.2807764 0.270196 0.2652002
 0.2670902 0.2710232 0.2717355 0.268495 0.2640068 0.2607008 0.2593735 0.2596957 0.2606036 0.2611136
 0.2610718 0.2598206 0.2548236 0.2444815 0.2323774 0.2253888 0.2265905 0.2327688 0.2396427 0.2461752
 0.2522315 0.2554994 0.2539814 0.2500159 0.2487949 0.2528197 0.2595151 0.2645028 0.2660249 0.2656423
 0.2653362 0.2650997 0.2639778 0.2627137 0.2637582 0.2682274 0.2741589 0.278642 0.2807366 0.281475
 0.2819101 0.2822343 0.2823143 0.2821202 0.2816892 0.2811496 0.2807085 0.2804159 0.280127 0.2797769
 0.2792964 0.2779998 0.2746577 0.2691075 0.2636126 0.2613088 0.2629272 0.2663373 0.2695951 0.2723324
 0.2732065 0.268873 0.2583395 0.2468503 0.2422842 0.2475524 0.258279 0.2677016 0.2720073 0.2708104
 0.2648811 0.2558044 0.2476147 0.2460952 0.2543412 0.2695431 0.2855107 0.2978991 0.3058742 0.3097522
 0.309359 0.3052435 0.3000553 0.2975203 0.2999231 0.3066403 0.3146436 0.319888 0.3190588 0.3122925
 0.3050337 0.3047257 0.3133664 0.3248068 0.3315324 0.3325635 0.3323496 0.3337346 0.3355065 0.3363061
 0.3373906 0.3404539 0.3447875 0.3478458 0.3475163 0.3430083 0.3348381 0.3254376 0.3187912 0.317346
 0.3194071 0.3211685 0.3206675 0.3178466 0.3121595 0.3036511 0.2960172 0.2946201 0.3003969 0.3084555
 0.3136459 0.3153504 0.3159388 0.3164585 0.3153855 0.3111793 0.3050084 0.3002441 0.2991328 0.3006466
 0.3021199 0.302112 0.3006534 0.2976111 0.2926692 0.2870308 0.2835568 0.2842856 0.2883299 0.2928057
 0.2955276 0.296361 0.2963628 0.2964265 0.2968034 0.2972771 0.2976087 0.298164 0.2999611 0.3035358
 0.3079277 0.311517 0.3138669 0.3160679 0.3191752 0.3228921 0.3260021 0.3277135 0.3283664 0.3290195
 0.3305012 0.3327286 0.334788 0.3357342 0.3355064 0.335093 0.335642 0.3373718 0.3394914 0.3411357
 0.3421179 0.3427874 0.3435021 0.3443384 0.3450588 0.3453016 0.3450349 0.3448411 0.3454856 0.3471295
 0.349157 0.3508143 0.3518346 0.3524038 0.3527326 0.3528338 0.3526579 0.3522933 0.351963 0.3518543
 0.3519939 0.3522831 0.3526089 0.3529053 0.3531564 0.3533869 0.3536421 0.3539456 0.3542815 0.3546219
 0.3549476 0.3552299 0.3554288 0.3555345 0.3555808 0.3555885 0.3555159 0.3552846 0.35483 0.3541095
 0.3530849 0.3517246 0.3500102 0.3479168 0.3454146 0.3425764 0.3397582 0.3376389 0.3369401 0.3379686
 0.3403754 0.3433559 0.3461093 0.3481822 0.3495126 0.3502641 0.3506429 0.3508018 0.350824 0.3507411
 0.3505634 0.3503082 0.350005 0.3496791 0.3493434 0.3490084 0.3486881 0.3483909 0.3481084 0.3478123
 0.3474611 0.3470164 0.3464614 0.3458072 0.3450797 0.3442937 0.3434343 0.3424672 0.3413765 0.3401937
 0.3389843 0.3378012 0.3366507 0.3354933 0.3342756 0.3329534 0.3314734 0.3297574 0.3277679 0.3256129
 0.3235251 0.3216738 0.3200137 0.318352 0.3165337 0.3145285 0.3123797 0.3101398 0.3078594 0.3055897
 0.3033661 0.301188 0.2990172 0.2967997 0.2945001 0.2921174 0.2896683 0.2871633 0.2846064 0.282005
 0.2793514 0.2765863 0.2735841 0.2701878 0.2662596 0.2617147 0.2565353 0.2507849 0.2446183 0.2382574
 0.2319345 0.2258469 0.2201546 0.2150006 0.2105158 0.2068048 0.2039348 0.2019385 0.2008236 0.2005752
 0.2011527 0.2024887 0.2044893 0.2070282 0.2099419 0.2130373 0.2161145 0.2190009 0.2215957 0.2239048
 0.2260266 0.2280783 0.2301224 0.2321536 0.2341356 0.236033 0.2378114 0.2394311 0.2408575 0.2420817
 0.2431298 0.2440498 0.2448839 0.2456438 0.2463133 0.2468731 0.2473271 0.247705 0.2480484 0.2483967
 0.2487844 0.2492397 0.2497866 0.250451 0.2512664 0.2522666 0.2534687 0.2548568 0.2563847 0.2580011
 0.2596821 0.2614428 0.2633244 0.2653714 0.2676126 0.2700511 0.2726588 0.2753743 0.2781032 0.2807243
 0.2831122 0.2851696 0.2868515 0.2881667 0.2891561 0.2898648 0.2903284 0.2905782 0.2906483 0.2905716
 0.2903748 0.2900785 0.2896968 0.2892307 0.2886662 0.287985 0.2871841 0.28629 0.2853473 0.284391
 0.2834336 0.282477 0.2815249 0.280577 0.2796241 0.2786545 0.277664 0.2766628 0.2756757 0.2747282
 0.2738255 0.2729438 0.2720364 0.2710439 0.2699084 0.2685939 0.2670939 0.2654204 0.2635942 0.261641
 0.259586 0.2574488 0.255246 0.2529939 0.2507044 0.2483779 0.2459969 0.2435298 0.2409666 0.2383574
 0.2357984 0.2333707 0.2311001 0.2289687 0.2269449 0.2250068 0.2231527 0.2213893 0.2197108 0.2181037
 0.216565 0.2151005 0.213712 0.2123988 0.2111642 0.2100157 0.2089662 0.2080339 0.2072288 0.2065423
 0.2059539 0.2054458 0.2050197 0.2047094 0.2045558 0.2045487 0.2046045 0.2046174 0.2045261 0.2043365
 0.2041042 0.2038951 0.2037432 0.2036432 0.2035705 0.2034788 0.2032805 0.2028604 0.2021126 0.2009593
 0.1993609 0.1973363 0.1949765 0.192434 0.1898989 0.187555 0.1855279 0.1838717 0.1825846 0.1816123
 0.1808575 0.180239 0.17975 0.1794547 0.1794301 0.179679 0.1800607 0.180348 0.1804245 0.1804103
 0.1805522 0.1810093 0.1817577 0.1826465 0.1835078 0.1842398 0.1848152 0.1852371 0.1855186 0.1856919
 0.185786 0.1857975 0.1857113 0.1855253 0.1852347 0.1848288 0.1843115 0.1836913 0.1829587 0.1821081
 0.1811552 0.1801113 0.1789769 0.177753 0.1764169 0.1749246 0.1733178 0.171811 0.1707151 0.1702683
 0.170509 0.1712584 0.1722463 0.1732902 0.1743128 0.1752106 0.1758618 0.1763375 0.1769862 0.1781962
 0.1800628 0.1822898 0.1843998 0.1860391 0.1870877 0.1875487 0.1874595 0.1868956 0.1859203 0.1845258
 0.1827155 0.1805896 0.1782797 0.1758967 0.1735783 0.1714574 0.1695934 0.168016 0.1667451 0.16578
 0.1651774 0.1646604 0.1626542 0.1568337 0.1474231 0.1393344 0.1384577 0.1453091 0.1543098 0.1597757
 0.1607401 0.1595877 0.158301 0.1573169 0.1565696 0.1561272 0.1560351 0.1561888 0.1563778 0.1563764
 0.1560812 0.1554976 0.154494 0.1525796 0.1488991 0.1425344 0.1331795 0.1217767 0.1103247 0.1008224
 0.09428028 0.09050305 0.08851582 0.08724478 0.08613272 0.08532676 0.085321 0.08645193 0.08871385 0.09190236
 0.09576225 0.0999577 0.1040227 0.1075115 0.1102368 0.1122794 0.1137656 0.1147346 0.1152083 0.1152533
 0.1149425 0.1143358 0.1134983 0.112477 0.1112656 0.1098458 0.1082824 0.106768 0.1055473 0.1047532
 0.1043179 0.1040717 0.1039021 0.1037879 0.1037357 0.1037436 0.1038053 0.1039147 0.1040795 0.1043167
 0.1046102 0.1048928 0.1051011 0.1052253 0.1052913 0.1053131 0.105264 0.1051008 0.1048369 0.1045612
 0.1043092 0.1039374 0.1032323 0.1021754 0.1010474 0.1002545 0.100056 0.1004064 0.1010117 0.1015502
 0.1018764 0.102041 0.1021454 0.102194</values></Ydata></ScSm><ScRf><Ydata ylabel="Single channel"><values byteorder="INTEL" format="FLOAT32" numvalues="1820"> 0.07048735 0.07061867 0.07073558 0.07083657 0.07092625 0.07101627 0.07112096 0.07124695 0.07138716 0.07152574
 0.07164946 0.07175681 0.07185459 0.07194591 0.07202961 0.0721136 0.07221584 0.07234495 0.07248703 0.07261582
 0.07271336 0.07278623 0.07286492 0.07297668 0.07310958 0.07321166 0.07323763 0.07319683 0.07314919 0.07315069
 0.07321449 0.07333919 0.07354623 0.07382793 0.07406989 0.07412252 0.07398772 0.07384959 0.07387057 0.07402827
 0.07418847 0.0742557 0.07421276 0.07410796 0.07407226 0.07427667 0.07477584 0.07538313 0.07573032 0.07548021
 0.07455022 0.07323259 0.07212604 0.07182491 0.07248988 0.07366709 0.07462732 0.07495461 0.07477145 0.07442611
 0.07412983 0.07395367 0.07398893 0.07432828 0.07491435 0.07548259 0.07566595 0.07523501 0.07435727 0.07356729
 0.07333123 0.07368556 0.07440016 0.07525721 0.07584402 0.07534555 0.07326578 0.07052173 0.06915726 0.07045533
 0.07359675 0.07651278 0.0777676 0.07731796 0.07591909 0.07445896 0.07371955 0.07410601 0.07538444 0.0769169
 0.07816809 0.07884297 0.07875125 0.07789966 0.07667176 0.07566299 0.07534716 0.07594053 0.07731619 0.07886966
 0.07975936 0.07957023 0.07862616 0.0775715 0.07689647 0.0769144 0.07778734 0.07933147 0.08103418 0.08243289
 0.08335465 0.0838134 0.08389851 0.08375948 0.08353218 0.08331338 0.08325709 0.08349867 0.08388129 0.08398801
 0.08360612 0.08301881 0.08271975 0.08290373 0.08330035 0.08350021 0.08336022 0.08292206 0.08199286 0.08024189
 0.07787737 0.07575033 0.0745229 0.07420574 0.07469971 0.07607427 0.07790927 0.07909656 0.07895508 0.07814758
 0.07796253 0.07892072 0.08044952 0.08171961 0.08245213 0.0829616 0.08366524 0.08461078 0.08536114 0.0853174
 0.08432878 0.08307038 0.08259523 0.08331794 0.08461346 0.08558697 0.08601356 0.08630997 0.08679478 0.08722379
 0.08700245 0.08582343 0.08420181 0.08329422 0.08394477 0.08584896 0.08771372 0.08823366 0.08701754 0.08480052
 0.08283037 0.08197169 0.08236969 0.08380583 0.08600412 0.08849639 0.09055034 0.09154068 0.09137886 0.09049684
 0.08937567 0.08809693 0.08651224 0.08494262 0.08436419 0.08549762 0.08788337 0.09024633 0.09167133 0.09211114
 0.09187061 0.09098905 0.08932176 0.08718093 0.08562189 0.08566087 0.08711706 0.08865975 0.08922327 0.08900444
 0.08885427 0.08911608 0.08943804 0.08948728 0.08944386 0.08974247 0.09051677 0.09143044 0.09203511 0.09218378
 0.09206304 0.09192921 0.09186512 0.0917327 0.09138697 0.09100267 0.09105751 0.09182821 0.09301721 0.09405041
 0.09464069 0.09490103 0.09499815 0.09487098 0.0943356 0.0934464 0.0926743 0.09257306 0.09323923 0.09423794
 0.09506686 0.0955321 0.09569495 0.09567848 0.09558554 0.09547444 0.0953739 0.09535401 0.09551497 0.09585212
 0.09621643 0.09646329 0.09657109 0.09658506 0.09652206 0.09637751 0.09618793 0.09604467 0.09603412 0.09616902
 0.09639128 0.09663118 0.0968349 0.09695031 0.09694642 0.0968563 0.09675655 0.09669548 0.09667378 0.09668893
 0.09675664 0.09687874 0.09701944 0.09713151 0.09719545 0.09722152 0.09722222 0.09720005 0.09716156 0.09712842
 0.09712954 0.09718212 0.09727529 0.09737623 0.09746841 0.09757252 0.09770477 0.0978284 0.0978843 0.09786496
 0.09782551 0.09782359 0.09787305 0.09795129 0.09802717 0.09807408 0.09807197 0.09801906 0.09795275 0.09794147
 0.09803358 0.09822047 0.09845851 0.09870581 0.09892616 0.09909062 0.09920058 0.09928773 0.09937532 0.09945604
 0.09951638 0.09956729 0.09964444 0.09978084 0.09997453 0.1001842 0.100364 0.1004965 0.1005919 0.1006771
 0.1007881 0.1009397 0.1010929 0.1011876 0.1012196 0.1012548 0.1013493 0.1014856 0.101601 0.1016614
 0.1016908 0.1017377 0.1018257 0.1019407 0.1020549 0.1021582 0.1022637 0.1023843 0.1025032 0.1025758
 0.102575 0.1025288 0.1024943 0.1024995 0.1025309 0.1025734 0.1026337 0.1027163 0.1027988 0.1028468
 0.1028514 0.1028383 0.1028387 0.1028537 0.1028552 0.1028208 0.1027584 0.102697 0.1026603 0.1026515
 0.102655 0.1026481 0.1026159 0.1025572 0.102481 0.1023979 0.1023145 0.1022368 0.1021824 0.1021767
 0.1022194 0.1022574 0.1022139 0.1020598 0.1018444 0.1016508 0.101525 0.1014494 0.1013724 0.1012557
 0.1010994 0.1009314 0.1007786 0.1006497 0.1005369 0.1004305 0.1003313 0.1002533 0.1002094 0.1001863
 0.1001447 0.1000546 0.09992722 0.09980088 0.09970199 0.09963109 0.09957784 0.09953436 0.09949916 0.0994791
 0.09948181 0.09949856 0.09950522 0.09948893 0.09946461 0.0994605 0.09949747 0.09958099 0.09969464 0.09979914
 0.09985878 0.09987855 0.09990194 0.09996526 0.1000665 0.1001827 0.1003028 0.1004323 0.1005764 0.1007328
 0.1008996 0.1010817 0.1012847 0.1015065 0.1017367 0.1019626 0.1021785 0.1023929 0.1026234 0.1028825
 0.1031655 0.1034553 0.1037366 0.104007 0.104275 0.1045486 0.1048286 0.1051131 0.1054067 0.1057168
 0.1060417 0.1063699 0.1066918 0.1070084 0.1073266 0.1076498 0.1079761 0.1083049 0.1086449 0.1090087
 0.1093928 0.1097671 0.1100986 0.1103853 0.1106584 0.1109516 0.1112767 0.1116208 0.1119552 0.1122546
 0.1125213 0.1127875 0.1130807 0.1133937 0.1137029 0.1140084 0.1143399 0.1147146 0.1151038 0.1154496
 0.1157185 0.1159336 0.1161491 0.116394 0.1166489 0.1168809 0.1170874 0.1172951 0.1175237 0.1177677
 0.1180173 0.1182768 0.1185517 0.118829 0.1190858 0.1193157 0.1195303 0.1197369 0.1199243 0.1200738
 0.1201798 0.1202599 0.1203475 0.1204673 0.1206153 0.1207677 0.1209113 0.1210569 0.1212199 0.1214036
 0.1216073 0.1218359 0.1220879 0.1223448 0.1225901 0.1228381 0.1231203 0.1234355 0.1237354 0.1239755
 0.124165 0.1243474 0.1245472 0.1247599 0.1249856 0.1252407 0.1255334 0.1258466 0.126152 0.1264341
 0.1267008 0.1269765 0.1272779 0.12759 0.1278739 0.1281034 0.1282916 0.1284781 0.1286954 0.1289499
 0.1292268 0.1295064 0.129775 0.130022 0.1302324 0.1303898 0.1304949 0.1305686 0.1306283 0.1306604
 0.1306281 0.1305011 0.1302696 0.1299303 0.1294735 0.1288943 0.1282161 0.1275012 0.1268394 0.126323
 0.1260229 0.1259765 0.1261851 0.1266142 0.1271959 0.1278397 0.1284506 0.1289393 0.1292267 0.1292562
 0.1290131 0.1285309 0.1278722 0.1271027 0.1262784 0.125442 0.1246247 0.1238648 0.1232372 0.1228628
 0.1228729 0.1233581 0.1243368 0.1257432 0.1274251 0.129173 0.1307954 0.1321935 0.1333723 0.1343882
 0.1352952 0.1361286 0.1369121 0.1376582 0.1383669 0.1390333 0.1396588 0.1402493 0.1408037 0.1413088
 0.1417437 0.1420884 0.1423338 0.1424915 0.1425874 0.1426434 0.142669 0.1426722 0.1426617 0.1426265
 0.1425236 0.1422994 0.1419269 0.1414265 0.1408689 0.1403774 0.1401188 0.1402656 0.1409246 0.1420719
 0.1435492 0.1451347 0.146636 0.1479363 0.1489905 0.1498096 0.150446 0.1509676 0.1514266 0.151849
 0.1522448 0.1526198 0.1529795 0.1533289 0.1536717 0.1540114 0.1543526 0.1546986 0.155046 0.155386
 0.1557157 0.156043 0.1563814 0.1567369 0.1571011 0.1574579 0.1578001 0.1581378 0.1584841 0.158836
 0.1591777 0.1595006 0.1598122 0.1601261 0.1604525 0.1607951 0.1611463 0.1614886 0.1618066 0.1621004
 0.1623828 0.162665 0.1629496 0.163235 0.1635205 0.1638058 0.1640899 0.1643726 0.1646558 0.1649406
 0.1652227 0.1654942 0.1657521 0.1660028 0.1662559 0.1665155 0.1667777 0.1670374 0.1672935 0.1675511
 0.1678176 0.1680948 0.1683748 0.1686455 0.1689016 0.1691463 0.1693852 0.1696222 0.1698609 0.1701058
 0.1703596 0.1706206 0.1708837 0.1711443 0.171401 0.1716551 0.1719076 0.1721572 0.1724022 0.1726442
 0.1728876 0.1731347 0.1733838 0.1736332 0.1738852 0.1741415 0.1743982 0.1746477 0.1748863 0.1751173
 0.1753473 0.1755816 0.1758226 0.1760677 0.1763107 0.1765483 0.1767835 0.1770228 0.1772693 0.1775202
 0.177769 0.1780114 0.1782486 0.1784856 0.178726 0.1789702 0.1792164 0.1794614 0.1797017 0.1799376
 0.1801732 0.1804124 0.1806553 0.1808988 0.1811403 0.1813797 0.1816179 0.1818538 0.1820858 0.1823171
 0.1825534 0.1827962 0.1830412 0.1832837 0.1835232 0.183761 0.1839972 0.1842307 0.1844598 0.1846853
 0.1849124 0.1851463 0.1853876 0.1856336 0.1858808 0.1861254 0.186365 0.1866011 0.1868369 0.1870726
 0.187308 0.1875439 0.1877806 0.1880159 0.1882477 0.188478 0.1887125 0.1889568 0.1892106 0.1894661
 0.189716 0.1899617 0.1902083 0.1904564 0.1907038 0.1909507 0.1911982 0.191447 0.1916984 0.1919544
 0.1922148 0.1924792 0.1927467 0.1930144 0.1932787 0.1935382 0.1937904 0.1940325 0.1942666 0.1944998
 0.1947335 0.1949626 0.1951851 0.1954049 0.1956276 0.1958562 0.1960894 0.1963218 0.1965515 0.1967849
 0.1970283 0.1972788 0.1975301 0.1977801 0.1980283 0.1982744 0.1985209 0.1987714 0.1990264 0.199286
 0.1995491 0.1998111 0.2000679 0.2003225 0.2005799 0.200841 0.2011065 0.2013773 0.20165 0.2019196
 0.2021864 0.2024518 0.2027154 0.2029802 0.2032515 0.2035272 0.2038001 0.204068 0.2043327 0.2045954
 0.2048602 0.205131 0.2054051 0.2056781 0.2059513 0.2062247 0.2064953 0.2067657 0.2070431 0.2073266
 0.2076115 0.2078984 0.2081864 0.2084691 0.2087453 0.2090189 0.2092885 0.2095526 0.2098174 0.2100859
 0.2103525 0.2106171 0.2108825 0.211138 0.2113585 0.2114932 0.2114121 0.2108393 0.2093115 0.206184
 0.2007592 0.1925678 0.1816516 0.168643 0.1545882 0.1406194 0.1276467 0.1162363 0.1066874 0.09915532
 0.09373432 0.09053011 0.08971895 0.09163155 0.09686805 0.1059438 0.1179731 0.1295269 0.1359142 0.1347359
 0.1280612 0.1205494 0.1156539 0.1139283 0.1142052 0.1153333 0.1168566 0.1188831 0.1216893 0.125312
 0.1295076 0.134152 0.1394732 0.1457039 0.1526307 0.1596703 0.1663596 0.1726555 0.1787636 0.1847745
 0.1905246 0.1957544 0.2003104 0.204194 0.2075037 0.2103716 0.2129144 0.2152114 0.2173204 0.2192779
 0.2210551 0.2225396 0.223604 0.2242079 0.2244441 0.2244945 0.2245303 0.2246397 0.2248372 0.2251157
 0.2254682 0.2258827 0.2263466 0.2268529 0.2273902 0.2279416 0.2284936 0.2290358 0.2295567 0.2300518
 0.2305257 0.2309805 0.2314135 0.2318262 0.232224 0.2326077 0.2329786 0.2333414 0.2336994 0.2340525
 0.2344018 0.2347455 0.2350758 0.2353871 0.2356823 0.2359658 0.2362399 0.2365071 0.2367682 0.237021
 0.2372664 0.2375113 0.2377602 0.2380131 0.238269 0.2385262 0.2387787 0.2390229 0.2392609 0.239497
 0.2397341 0.2399736 0.2402133 0.2404492 0.2406825 0.2409193 0.2411619 0.241406 0.2416478 0.2418876
 0.2421302 0.2423833 0.2426498 0.2429225 0.243193 0.2434616 0.2437315 0.2440009 0.2442687 0.2445387
 0.2448125 0.2450869 0.2453614 0.2456385 0.2459142 0.2461775 0.2464208 0.2466467 0.2468665 0.2470924
 0.2473289 0.2475713 0.247814 0.2480565 0.2483006 0.2485466 0.2487942 0.2490428 0.2492931 0.2495511
 0.2498241 0.2501103 0.2504001 0.2506888 0.2509784 0.2512705 0.2515641 0.2518594 0.2521551 0.2524437
 0.2527189 0.2529864 0.2532654 0.253576 0.2539201 0.2542749 0.2546114 0.2549214 0.2552186 0.2555207
 0.2558368 0.256162 0.256472 0.2567394 0.2569728 0.2572252 0.2575449 0.2579278 0.2583274 0.2587032
 0.2590474 0.2593734 0.2596918 0.2600001 0.2602873 0.2605451 0.2607838 0.2610396 0.2613528 0.261727
 0.2621204 0.2624882 0.262819 0.263123 0.2634117 0.2636946 0.2639658 0.2641864 0.2643251 0.2644317
 0.2646298 0.265002 0.2654991 0.265992 0.2663985 0.2667329 0.2670431 0.267347 0.2676383 0.2678954
 0.2680485 0.2680171 0.2678572 0.267811 0.2681095 0.2687383 0.2694672 0.2700831 0.2705308 0.2708649
 0.2711525 0.2714271 0.271671 0.2718188 0.2718269 0.2717758 0.2718601 0.2722138 0.272759 0.2732878
 0.2736804 0.2739753 0.274258 0.2745637 0.2748554 0.2750044 0.2748505 0.2744189 0.2740602 0.2742209
 0.275013 0.2760876 0.2769839 0.277538 0.2778869 0.2781474 0.2782438 0.2780508 0.27755 0.2768355
 0.2761558 0.2759528 0.2765729 0.2778228 0.2790507 0.2797995 0.2801983 0.2806305 0.2812352 0.2818501
 0.2822773 0.2824593 0.2824463 0.2822789 0.2819687 0.2816368 0.2815934 0.2821177 0.2831341 0.2842302
 0.2850439 0.2855492 0.2858928 0.2859745 0.2853369 0.2837101 0.2817254 0.2807558 0.2816958 0.2840225
 0.286362 0.287847 0.2885913 0.2890488 0.2894195 0.289593 0.2891378 0.2874442 0.2845539 0.2818862
 0.2813782 0.2835753 0.2870204 0.2896683 0.2904481 0.2894798 0.2875496 0.2857473 0.2850822 0.285936
 0.2879018 0.2901984 0.2921399 0.2933254 0.2936677 0.2933539 0.2927667 0.2923819 0.2924674 0.2926787
 0.2922752 0.2910837 0.2898364 0.2890461 0.2880669 0.2861498 0.2841134 0.2838345 0.2859263 0.2888515
 0.2907057 0.2911698 0.2911608 0.2909845 0.2895858 0.2859351 0.2809294 0.2773655 0.2775454 0.2809797
 0.2848755 0.2868832 0.2869552 0.2865441 0.2865575 0.2863942 0.2848363 0.2817748 0.2788795 0.2781051
 0.2794985 0.2811273 0.2812188 0.2793965 0.2757429 0.2703643 0.2648749 0.2626938 0.2660245 0.2731158
 0.279813 0.2831421 0.2822404 0.2771217 0.2689836 0.2614923 0.2591335 0.2630756 0.2698073 0.2745366
 0.2749663 0.2713884 0.2647336 0.2561694 0.2481134 0.2439308 0.2457934 0.2529356 0.2617886 0.2675161
 0.2664902 0.2592073 0.2510098 0.2480578 0.2515355 0.2568725 0.2591146 0.2575817 0.2548339 0.2531845
 0.253424 0.2552579 0.257644 0.2596137 0.2610138 0.2611322 0.2573301 0.2479573 0.2366884 0.2305719
 0.2327656 0.2399961 0.2478985 0.2554114 0.2623425 0.2662183 0.2649148 0.2608609 0.259488 0.2634295
 0.2700136 0.27468 0.2756076 0.2744515 0.2733254 0.2722839 0.2703734 0.2683464 0.268689 0.2725311
 0.2778754 0.2817611 0.2832298 0.2833272 0.2831195 0.2827953 0.282214 0.2813473 0.2802383 0.2790185
 0.2778985 0.2769356 0.275988 0.2749877 0.2738753 0.2720032 0.2681835 0.2622352 0.256313 0.2534263
 0.2542818 0.2568359 0.2592297 0.2611337 0.2612969 0.2565425 0.24592 0.2344171 0.2295273 0.2340073
 0.2436827 0.2521294 0.2557507 0.2542208 0.2483109 0.2395263 0.2316195 0.2299434 0.2373329 0.2511338
 0.2655795 0.2766628 0.2836654 0.2869297 0.2863169 0.2823328 0.2774085 0.2749447 0.2769783 0.2828426
 0.2896774 0.2937639 0.2921426 0.2850452 0.2775121 0.2763525 0.2833969 0.2930672 0.298529 0.2988499
 0.298018 0.2986099 0.2995808 0.2997593 0.3003103 0.302775 0.3065352 0.3093247 0.3092592 0.3056313
 0.2988974 0.2912216 0.2861349 0.2857448 0.2884079 0.2906128 0.2905826 0.2883125 0.283366 0.275835
 0.269101 0.2680224 0.273415 0.2808177 0.2855787 0.2871882 0.2878356 0.2884702 0.2876833 0.2840653
 0.2787046 0.2747185 0.2741979 0.2762364 0.2784249 0.2794625 0.2793616 0.2779362 0.2748101 0.2710366
 0.2692465 0.2713078 0.2763222 0.2814977 0.2847134 0.2858128 0.2857907 0.2855092 0.2852399 0.2848216
 0.2840794 0.2834165 0.2838514 0.2859383 0.2888078 0.2909569 0.2919866 0.2929347 0.2948145 0.297374
 0.2994871 0.3004041 0.3004134 0.3004695 0.3013287 0.3029272 0.3044449 0.3050267 0.3046241 0.3041535
 0.3046763 0.306388 0.3085374 0.3102858 0.31141 0.3121911 0.312943 0.3137434 0.3143955 0.3145933
 0.3143268 0.3141327 0.3146964 0.3161412 0.3178822 0.3192181 0.3199089 0.3201465 0.3201577 0.3199834
 0.3195859 0.3190322 0.318508 0.3181767 0.3180642 0.318081 0.3181208 0.3181242 0.318089 0.3180591
 0.3180917 0.3182087 0.318386 0.3185934 0.3188156 0.3190264 0.3191862 0.3192881 0.3193717 0.3194615
 0.3195159 0.3194557 0.3192173 0.3187622 0.3180567 0.3170685 0.315772 0.314136 0.3121287 0.3098142
 0.3075131 0.3058355 0.3054287 0.3065645 0.3089246 0.3117816 0.3144114 0.3164041 0.3177043 0.3184592
 0.3188511 0.3190148 0.3190289 0.3189319 0.3187427 0.3184769 0.318153 0.3177905 0.3174129 0.3170503
 0.3167276 0.3164465 0.3161837 0.3159039 0.3155736 0.3151703 0.3146892 0.3141406 0.3135373 0.3128778
 0.3121384 0.3112887 0.3103234 0.3092856 0.3082506 0.3072824 0.3063945 0.3055488 0.3046882 0.3037649
 0.3027271 0.3015084 0.3000918 0.2986018 0.2972702 0.2962524 0.2954891 0.294775 0.2939376 0.2929259
 0.2917696 0.2905162 0.2892072 0.2878726 0.2865224 0.285144 0.283708 0.2821807 0.2805418 0.2787939
 0.2769553 0.2750483 0.2730989 0.2711305 0.2691332 0.2670328 0.2646933 0.2619556 0.2586797 0.2547719
 0.2502041 0.2450356 0.2394228 0.2335904 0.2277729 0.2221682 0.216931 0.2121911 0.2080647 0.2046499
 0.2020171 0.2002081 0.1992442 0.1991345 0.1998712 0.2014155 0.2036875 0.2065667 0.2098984 0.2135015
 0.2171785 0.2207399 0.2240511 0.2270757 0.229866 0.2324883 0.2349547 0.2372247 0.2392559 0.2410348
 0.2425675 0.2438619 0.2449277 0.2457874 0.2464807 0.2470569 0.2475579 0.2480026 0.2483843 0.2486859
 0.2489019 0.2490543 0.2491859 0.2493382 0.2495313 0.2497633 0.2500277 0.2503319 0.2506983 0.2511496
 0.251693 0.2523159 0.2529958 0.2537153 0.2544723 0.2552799 0.2561649 0.2571657 0.2583228 0.2596571
 0.2611563 0.2627772 0.2644516 0.2660868 0.2675763 0.2688272 0.2697878 0.270453 0.2708457 0.2709926
 0.270917 0.2706487 0.2702264 0.269686 0.2690503 0.2683361 0.2675594 0.2667283 0.2658385 0.2648844
 0.2638751 0.2628383 0.2618077 0.2608052 0.2598352 0.2588947 0.2579826 0.2570992 0.2562445 0.2554192
 0.2546228 0.2538537 0.2531125 0.2524011 0.251715 0.2510383 0.2503424 0.2495837 0.2487115 0.2476895
 0.2465061 0.2451651 0.2436771 0.2420579 0.2403212 0.2384746 0.2365272 0.2344968 0.232399 0.2302343
 0.2279865 0.2256374 0.2232001 0.2207438 0.21837 0.2161548 0.2141186 0.2122433 0.2104976 0.2088504
 0.2072803 0.2057765 0.204334 0.2029538 0.2016409 0.2003926 0.1992007 0.19807 0.1970198 0.1960643
 0.1952092 0.1944638 0.1938352 0.1933131 0.1928735 0.1924971 0.1921874 0.1919788 0.1919127 0.1919834
 0.1921173 0.1922185 0.1922284 0.1921486 0.1920296 0.1919361 0.1919028 0.1919222 0.1919637 0.1919763
 0.1918751 0.1915549 0.1909229 0.1899112 0.188486 0.1866693 0.1845501 0.1822706 0.1800044 0.1779192
 0.1761312 0.1746912 0.1735977 0.1727958 0.1721871 0.1716915 0.171307 0.1710998 0.1711443 0.1714463
 0.1718812 0.1722434 0.1724263 0.1725429 0.1728272 0.1734319 0.1743345 0.1753875 0.1764229 0.1773341
 0.1780864 0.1786744 0.1791028 0.1793958 0.1795788 0.1796509 0.1796025 0.1794373 0.1791611 0.1787817
 0.1783207 0.1777888 0.1771659 0.1764367 0.1756132 0.1747038 0.1737058 0.1726193 0.1714193 0.1700564
 0.1685694 0.1671739 0.1661811 0.1658269 0.1661529 0.1669934 0.1680901 0.1692619 0.1704293 0.1714928
 0.1723351 0.1730128 0.1738423 0.1751923 0.1771753 0.1795332 0.1818123 0.1836539 0.184916 0.185582
 0.1856794 0.1852802 0.1844431 0.1831525 0.1814091 0.179322 0.1770409 0.1746997 0.1724559 0.170449
 0.1687241 0.1672866 0.16614 0.1652835 0.1647852 0.1643775 0.162478 0.1567387 0.147372 0.1393127
 0.1384922 0.1454414 0.1545518 0.1600999 0.1611114 0.159993 0.1587449 0.1578001 0.1570856 0.1566752
 0.1566257 0.1568328 0.1570736 0.157112 0.1568476 0.1563018 0.1553552 0.1535067 0.1498688 0.1434917
 0.1340629 0.1225471 0.1109773 0.1013784 0.09477009 0.09095433 0.08894804 0.08766853 0.08655591 0.08576702
 0.08581086 0.08702604 0.08939148 0.09268633 0.09665316 0.1009638 0.1051559 0.1087753 0.1116199 0.11376
 0.11532 0.1163423 0.1168541 0.11693 0.1166553 0.1160973 0.1153182 0.1143545 0.1131914 0.1118085
 0.1102727 0.1087807 0.1075824 0.106817 0.1064225 0.1062335 0.1061419 0.1061286 0.1061911 0.1063072
 0.1064538 0.1066253 0.1068414 0.1071307 0.107483 0.107834 0.1081174 0.1083118 0.1084267 0.1084612
 0.1083803 0.1081386 0.1077566 0.1073404 0.106943 0.1064234 0.105557 0.1043252 0.1030347 0.1021223
 0.1018477 0.102138 0.1026749 0.1031328 0.1033743 0.1034585 0.1034917 0.1034772 0.1032983 0.1028477
</values></Ydata></ScRf><Data_Parameters_AB><parameter name="DPF">1</parameter><parameter name="NPT">3497</parameter><parameter name="FXV">3996</parameter><parameter name="LXV">500</parameter><parameter name="CSF">1</parameter><parameter name="MXY">0.0184385664761066</parameter><parameter name="MNY">-0.126848548650742</parameter><parameter name="DAT">18/01/2024</parameter><parameter name="TIM">11:46:29.299 (GMT+1)</parameter><parameter name="DXU">WN</parameter></Data_Parameters_AB><AB__Qtest><MainReport name="Quality Test Report"><Header><Line><Legend>Test result ok/not ok [1/0]: </Legend><Value>0</Value></Line><Line><Legend>Method file: </Legend><Value>C:\Users\Public\Documents\Bruker\OPUS_8.2.28\QT\IRBT_v3_default.QT</Value></Line></Header><Matrix><Line><Legend></Legend><Legend>min</Legend><Legend>max</Legend><Legend>measured</Legend></Line><Line><Value>Absorption (X-Range 1):</Value><Value>0.400000</Value><Value>2.000000</Value><Value>0.136434</Value></Line><Line><Value>Noise (X-Range 4):</Value><Value></Value><Value>0.000300</Value><Value>0.000017</Value></Line><Line><Value>Signal/Noise (X-Range 2):</Value><Value>200.000000</Value><Value></Value><Value>123.501438</Value></Line><Line><Value>Signal/Noise (X-Range 3):</Value><Value>40.000000</Value><Value></Value><Value>89.653778</Value></Line><Line><Value>Water vapour (X-Range 5):</Value><Value></Value><Value>0.000300</Value><Value>0.000016</Value></Line><Line><Value>Signal/Water (X-Range 2):</Value><Value>100.000000</Value><Value></Value><Value>134.382778</Value></Line><Line><Value>Signal/Water (X-Range 3):</Value><Value>20.000000</Value><Value></Value><Value>97.552903</Value></Line><Line><Value>Fringes (X-Range 6):</Value><Value></Value><Value>0.000100</Value><Value>0.000023</Value></Line></Matrix></MainReport></AB__Qtest><Data_Parameters_ScSm><parameter name="DPF">1</parameter><parameter name="NPT">1814</parameter><parameter name="FXV">3996.63438082617</parameter><parameter name="LXV">499.579297603271</parameter><parameter name="CSF">1</parameter><parameter name="MXY">0.368071436882019</parameter><parameter name="MNY">0.0853210017085075</parameter><parameter name="DAT">18/01/2024</parameter><parameter name="TIM">11:46:29.299 (GMT+1)</parameter><parameter name="DXU">WN</parameter></Data_Parameters_ScSm><Data_Parameters_ScRf><parameter name="DPF">1</parameter><parameter name="NPT">1820</parameter><parameter name="FXV">4004.34989121387</parameter><parameter name="LXV">495.721542409425</parameter><parameter name="CSF">1</parameter><parameter name="MXY">0.320157736539841</parameter><parameter name="MNY">0.0691572576761246</parameter><parameter name="DAT">18/01/2024</parameter><parameter name="TIM">11:46:03.437 (GMT+1)</parameter><parameter name="DXU">WN</parameter></Data_Parameters_ScRf><Optic_Parameters_Rf><parameter name="APR">0</parameter><parameter name="APT">Open</parameter><parameter name="BMS">KBr</parameter><parameter name="DTC">RT-DLaTGS_IR-Biotyper [Microplate reader]</parameter><parameter name="HPF">0</parameter><parameter name="LPF">10.0</parameter><parameter name="LPV">4000</parameter><parameter name="PGR">0</parameter><parameter name="RCH">Module port</parameter><parameter name="RDX">0</parameter><parameter name="SRC">MIR</parameter><parameter name="VEL">10.0</parameter><parameter name="SON">Off</parameter></Optic_Parameters_Rf><Acquisition_Parameters_Rf><parameter name="ADT">1</parameter><parameter name="AQM">DD</parameter><parameter name="CFE">0</parameter><parameter name="COR">0</parameter><parameter name="DEL">0</parameter><parameter name="DLY">0</parameter><parameter name="HFW">8000</parameter><parameter name="LFW">0</parameter><parameter name="NSR">32</parameter><parameter name="PLF">AB</parameter><parameter name="RES">6</parameter><parameter name="RGN">-1</parameter><parameter name="STR">0</parameter><parameter name="TCL">MakeCompatibleScalar (0, {WSV=1.000000, ARV=0});</parameter><parameter name="TDL">37</parameter><parameter name="RPO">0</parameter></Acquisition_Parameters_Rf><FT_-_Parameters_Rf><parameter name="APF">B3</parameter><parameter name="HFQ">500</parameter><parameter name="LFQ">4000</parameter><parameter name="NLI">0</parameter><parameter name="PHR">24</parameter><parameter name="PHZ">ML</parameter><parameter name="SPZ">NO</parameter><parameter name="ZFF">1</parameter></FT_-_Parameters_Rf><Optic_Parameters_><parameter name="APR">0</parameter><parameter name="APT">Open</parameter><parameter name="BMS">KBr</parameter><parameter name="CHN">Module port</parameter><parameter name="DTC">RT-DLaTGS_IR-Biotyper [Microplate reader]</parameter><parameter name="HPF">0</parameter><parameter name="LPF">10.0</parameter><parameter name="LPV">4000</parameter><parameter name="PGN">0</parameter><parameter name="RDX">0</parameter><parameter name="SRC">MIR</parameter><parameter name="VEL">10.0</parameter><parameter name="SON">Off</parameter></Optic_Parameters_><FT_-_Parameters_><parameter name="APF">B3</parameter><parameter name="HFQ">500</parameter><parameter name="LFQ">4000</parameter><parameter name="NLI">0</parameter><parameter name="PHR">24</parameter><parameter name="PHZ">ML</parameter><parameter name="SPZ">NO</parameter><parameter name="ZFF">1</parameter></FT_-_Parameters_><Acquisition_Parameters_><parameter name="ADT">1</parameter><parameter name="AQM">DD</parameter><parameter name="CFE">0</parameter><parameter name="COR">0</parameter><parameter name="DEL">0</parameter><parameter name="DLY">0</parameter><parameter name="HFW">8000</parameter><parameter name="LFW">0</parameter><parameter name="NSS">32</parameter><parameter name="PLF">AB</parameter><parameter name="RES">6</parameter><parameter name="SOT">0</parameter><parameter name="TCL">MakeCompatibleScalar (0, {WSV=1.000000, ARV=0});</parameter><parameter name="TDL">37</parameter><parameter name="SPO">0</parameter><parameter name="SGN">-1</parameter></Acquisition_Parameters_><Instrument_Parameters_Rf><parameter name="HFL">15801.365274</parameter><parameter name="LFL">0</parameter><parameter name="LWN">15801.365274</parameter><parameter name="ABP">32157</parameter><parameter name="SSP">1</parameter><parameter name="ARG">2</parameter><parameter name="ASG">2</parameter><parameter name="ASS">32</parameter><parameter name="GFW">16</parameter><parameter name="GBW">16</parameter><parameter name="BFW">0</parameter><parameter name="BBW">0</parameter><parameter name="PKA">9301</parameter><parameter name="PKL">4987</parameter><parameter name="PRA">9266</parameter><parameter name="PRL">5010</parameter><parameter name="P2A">1</parameter><parameter name="P2L">1</parameter><parameter name="P2R">1</parameter><parameter name="P2K">1</parameter><parameter name="DAQ">0</parameter><parameter name="AG2">1</parameter><parameter name="SSM">1</parameter><parameter name="RSN">46616</parameter><parameter name="CRR">0</parameter><parameter name="SRT">1705578363.438</parameter><parameter name="DUR">19.6449890136719</parameter><parameter name="TSC">31.2</parameter><parameter name="MVD">0.271683067083359</parameter><parameter name="AN1">0.226008564986101</parameter><parameter name="AN2">0</parameter><parameter name="VSN">2.485 Apr  4 2017</parameter><parameter name="SRN">0085</parameter><parameter name="CAM">0</parameter><parameter name="INS">IR-Biotyper</parameter><parameter name="FOC">69</parameter><parameter name="RDY">1</parameter><parameter name="ARS">32</parameter></Instrument_Parameters_Rf><Sample_Parameters_><parameter name="BLD"></parameter><parameter name="CNM">Admin</parameter><parameter name="CPY"></parameter><parameter name="DPM"></parameter><parameter name="EXP">IRBT_v3_32Scans.XPM</parameter><parameter name="LCT"></parameter><parameter name="SFM">Microplate, HTS-XT</parameter><parameter name="SNM">240118-1045-Cdiff_SCFA_2_C27_232122548_A8_7d6eb39a-5887-4aa3-af5e-f8eb68ee87bb.0</parameter><parameter name="XPP">C:\Users\Public\Documents\Bruker\OPUS_8.2.28\XPM</parameter><parameter name="IST">OK</parameter><parameter name="CPG">1252</parameter><parameter name="UID">5e2f4cb4-3ba3-47dc-8e59-30f18de17dc3</parameter></Sample_Parameters_><Instrument_Parameters_><parameter name="HFL">15801.365274</parameter><parameter name="LFL">0</parameter><parameter name="LWN">15801.365274</parameter><parameter name="ABP">32157</parameter><parameter name="SSP">1</parameter><parameter name="ASG">2</parameter><parameter name="ARG">2</parameter><parameter name="ASS">32</parameter><parameter name="GFW">16</parameter><parameter name="GBW">16</parameter><parameter name="BFW">0</parameter><parameter name="BBW">0</parameter><parameter name="PKA">11038</parameter><parameter name="PKL">4987</parameter><parameter name="PRA">11034</parameter><parameter name="PRL">5002</parameter><parameter name="P2A">1</parameter><parameter name="P2L">1</parameter><parameter name="P2R">1</parameter><parameter name="P2K">1</parameter><parameter name="DAQ">0</parameter><parameter name="AG2">1</parameter><parameter name="SSM">1</parameter><parameter name="RSN">24001</parameter><parameter name="CRR">0</parameter><parameter name="SRT">1705578389.3</parameter><parameter name="DUR">19.64599609375</parameter><parameter name="TSC">31.2</parameter><parameter name="MVD">0.364779353141785</parameter><parameter name="AN1">0.22601355618731</parameter><parameter name="AN2">0</parameter><parameter name="VSN">2.485 Apr  4 2017</parameter><parameter name="SRN">0085</parameter><parameter name="CAM">0</parameter><parameter name="INS">IR-Biotyper</parameter><parameter name="FOC">69</parameter><parameter name="RDY">1</parameter></Instrument_Parameters_><History/></OPUSDataFile>
