<?xml version="1.0" encoding="UTF-8" ?>
<OPUSDataFile><AB><Ydata ylabel="Absorbance Units"><values byteorder="INTEL" format="FLOAT32" numvalues="3497"> -0.08555125 -0.08555596 -0.08555707 -0.08555505 -0.08555184 -0.08554671 -0.08553865 -0.085528 -0.08551434 -0.08549958
 -0.08548553 -0.0854736 -0.08546544 -0.08546129 -0.08546197 -0.08546623 -0.08547436 -0.08548279 -0.08549085 -0.08549562
 -0.08549625 -0.08549416 -0.08548921 -0.0854867 -0.08548685 -0.08549211 -0.08550204 -0.08551286 -0.08552378 -0.08552832
 -0.0855267 -0.08551548 -0.08549703 -0.08547387 -0.08545022 -0.08543347 -0.08542636 -0.08543605 -0.08545868 -0.08549581
 -0.0855365 -0.08557613 -0.08560557 -0.08561939 -0.08561919 -0.08560324 -0.08558118 -0.08555432 -0.08552855 -0.08550478
 -0.08548082 -0.08545657 -0.08542852 -0.08539701 -0.08536429 -0.0853314 -0.08530532 -0.08528626 -0.08527924 -0.08528248
 -0.08529522 -0.08531404 -0.08533345 -0.08535087 -0.08536068 -0.08536437 -0.08536024 -0.08535375 -0.08534688 -0.08534469
 -0.08534981 -0.0853629 -0.08538522 -0.08541276 -0.08544567 -0.08547629 -0.08550414 -0.08552027 -0.08552419 -0.08551209
 -0.0854847 -0.08544883 -0.08540625 -0.08537035 -0.08534171 -0.08533013 -0.08533371 -0.0853538 -0.08538661 -0.08542771
 -0.08547179 -0.08551186 -0.08554328 -0.08555917 -0.0855616 -0.08554803 -0.08552831 -0.08550502 -0.08548674 -0.08547688
 -0.08547486 -0.08548183 -0.08549029 -0.08549973 -0.08550379 -0.08550211 -0.08549403 -0.08547991 -0.08546383 -0.08544642
 -0.0854336 -0.08542509 -0.08542348 -0.08542693 -0.0854322 -0.0854381 -0.08544017 -0.08544099 -0.08544128 -0.08544476
 -0.08545563 -0.08547231 -0.08549654 -0.08552057 -0.08554208 -0.0855549 -0.08555631 -0.08554754 -0.08552796 -0.08550293
 -0.0854727 -0.08544391 -0.08541693 -0.08539879 -0.0853896 -0.08539294 -0.08540768 -0.08542961 -0.08545659 -0.08547866
 -0.08549493 -0.0854971 -0.08548866 -0.08547114 -0.0854492 -0.0854298 -0.08541266 -0.08540042 -0.08538988 -0.08537956
 -0.08536886 -0.08535665 -0.08534569 -0.08533662 -0.08533085 -0.08532899 -0.08532953 -0.08533245 -0.0853357 -0.08533917
 -0.0853418 -0.08534349 -0.08534236 -0.08533859 -0.08533178 -0.08532298 -0.08531588 -0.08531135 -0.08531398 -0.08532243
 -0.08533713 -0.08535507 -0.08537306 -0.08538844 -0.08539815 -0.08540034 -0.0853925 -0.08537631 -0.08535039 -0.08532271
 -0.08529453 -0.08527456 -0.08526538 -0.0852652 -0.08527474 -0.08528318 -0.08528992 -0.08528854 -0.0852794 -0.08526742
 -0.08525313 -0.08524293 -0.08523533 -0.085228 -0.08521957 -0.08520435 -0.08518462 -0.08516129 -0.08513767 -0.08511882
 -0.08510441 -0.08509652 -0.085092 -0.08508964 -0.08508705 -0.08508255 -0.08507711 -0.08507037 -0.08506514 -0.0850619
 -0.08506233 -0.08506696 -0.08507312 -0.08508074 -0.08508394 -0.08508258 -0.08507345 -0.08505737 -0.08503806 -0.08501643
 -0.08499821 -0.08498312 -0.08497347 -0.08496843 -0.08496736 -0.08497022 -0.0849768 -0.08498683 -0.08500072 -0.08501589
 -0.0850317 -0.08504352 -0.08504932 -0.08504635 -0.08503234 -0.08501205 -0.08498494 -0.08496246 -0.08494581 -0.0849432
 -0.08495538 -0.08497826 -0.08501125 -0.08504328 -0.08507419 -0.08509777 -0.08511429 -0.08512241 -0.08512049 -0.08510268
 -0.08506962 -0.08501695 -0.08495355 -0.08488796 -0.08482943 -0.08479145 -0.08477035 -0.08477046 -0.08477688 -0.08478425
 -0.08478326 -0.08476805 -0.0847461 -0.08471701 -0.08469393 -0.0846789 -0.08467403 -0.08467983 -0.08468626 -0.08469277
 -0.08468837 -0.08467358 -0.08464655 -0.08460932 -0.08456923 -0.08452807 -0.08449457 -0.0844686 -0.0844546 -0.08445003
 -0.08445471 -0.08446277 -0.0844698 -0.08446906 -0.08445391 -0.08442558 -0.08438087 -0.0843313 -0.08427937 -0.08423427
 -0.08419932 -0.08417114 -0.08415031 -0.08412631 -0.08409842 -0.08406091 -0.08401392 -0.08396218 -0.08390636 -0.08385421
 -0.08380488 -0.08375965 -0.08371578 -0.08366621 -0.08360955 -0.08353829 -0.08345667 -0.08336588 -0.0832735 -0.08318758
 -0.08311039 -0.08304723 -0.08299249 -0.08294625 -0.08289878 -0.08284777 -0.08278421 -0.08270542 -0.08260985 -0.08249628
 -0.08237278 -0.08223978 -0.08210463 -0.08196735 -0.08182601 -0.08168032 -0.0815265 -0.08136568 -0.08120079 -0.08103326
 -0.08086886 -0.08070754 -0.08055223 -0.08040135 -0.08025458 -0.08010879 -0.07996117 -0.07980897 -0.07964899 -0.07948215
 -0.07930823 -0.079128 -0.07894355 -0.07874572 -0.07853377 -0.07829538 -0.0780274 -0.07773782 -0.07742631 -0.07712054
 -0.07682149 -0.07654523 -0.07628985 -0.07604676 -0.07581322 -0.07557154 -0.07532261 -0.07505858 -0.07478449 -0.07450696
 -0.07422885 -0.07395957 -0.07369192 -0.07342451 -0.07314431 -0.07283954 -0.07251247 -0.07215667 -0.07179546 -0.07143517
 -0.07109003 -0.07076705 -0.0704526 -0.07014669 -0.06982825 -0.06949531 -0.06914457 -0.06877635 -0.06840444 -0.06802942
 -0.06766311 -0.06730378 -0.06695005 -0.06659918 -0.06624201 -0.06587799 -0.06550048 -0.06511308 -0.06471757 -0.06431849
 -0.0639217 -0.06352737 -0.06313835 -0.0627503 -0.06236213 -0.06196972 -0.06157114 -0.06116616 -0.06075397 -0.06033782
 -0.05991814 -0.05949643 -0.05907312 -0.05864221 -0.05820332 -0.05774733 -0.05727492 -0.05678768 -0.05628844 -0.05579187
 -0.05529904 -0.05482202 -0.05435725 -0.05390352 -0.05345654 -0.05300923 -0.05256029 -0.05210554 -0.0516461 -0.05118154
 -0.05071304 -0.05024162 -0.04976591 -0.04928642 -0.04879832 -0.04830048 -0.0477906 -0.04726733 -0.04673817 -0.04620339
 -0.04567458 -0.04515218 -0.04463892 -0.04413408 -0.0436318 -0.0431317 -0.04262882 -0.04212356 -0.04161481 -0.04110257
 -0.04058634 -0.04006595 -0.03954053 -0.0390111 -0.03847795 -0.03794323 -0.03740846 -0.0368752 -0.03634495 -0.03581677
 -0.03529122 -0.03476452 -0.03423593 -0.03370281 -0.03316435 -0.0326223 -0.03207659 -0.03153169 -0.03098783 -0.03044958
 -0.02991704 -0.02939306 -0.02887687 -0.02836678 -0.02786062 -0.0273507 -0.0268354 -0.02630647 -0.02576619 -0.02521336
 -0.02465357 -0.02409206 -0.0235331 -0.02298204 -0.02243862 -0.02190505 -0.02137636 -0.02085189 -0.02032547 -0.01979538
 -0.01925934 -0.01871639 -0.01816952 -0.01761886 -0.01706779 -0.01651648 -0.01596611 -0.01541671 -0.01486874 -0.01432235
 -0.01377882 -0.013238 -0.01270013 -0.01216495 -0.0116319 -0.01110108 -0.01057249 -0.01004613 -0.009522102 -0.009000083
 -0.008479748 -0.007961254 -0.00744454 -0.006930013 -0.006418082 -0.0059077 -0.005399048 -0.004889238 -0.004378059 -0.003861818
 -0.003340112 -0.002811133 -0.002274837 -0.001736048 -0.0011955 -0.0006633657 -0.0001397012 0.0003691068 0.0008652139 0.001352274
 0.001832607 0.002313968 0.002795472 0.003279815 0.003763605 0.004243886 0.004719043 0.005185784 0.005647535 0.006104329
 0.006562443 0.007024539 0.007492583 0.007968607 0.008446515 0.008925918 0.009399851 0.009867401 0.01032821 0.01078222
 0.01123169 0.01167646 0.01211496 0.01254712 0.01297119 0.0133881 0.01380014 0.01420802 0.01461476 0.01501997
 0.01542382 0.01582747 0.01623181 0.01663919 0.01705252 0.01747038 0.01789413 0.01831703 0.01873744 0.01914841
 0.01954752 0.01993327 0.02030448 0.02066596 0.02101777 0.02136779 0.02171645 0.02206945 0.02242671 0.02278876
 0.02315504 0.02352276 0.02389136 0.02425766 0.02462086 0.0249772 0.02532682 0.0256676 0.02600188 0.02633123
 0.02665829 0.02698636 0.0273144 0.02764333 0.0279696 0.02829154 0.0286093 0.02892214 0.02923339 0.02954382
 0.02985302 0.03016146 0.03046197 0.03075416 0.03103174 0.03129509 0.03154787 0.0317913 0.03203553 0.03227952
 0.0325261 0.03277086 0.03300411 0.03322376 0.03341987 0.03359826 0.03376024 0.03391593 0.03407423 0.03424031
 0.03442086 0.03461213 0.03481546 0.03502134 0.03522812 0.03542622 0.03561315 0.03578807 0.03594983 0.0361101
 0.03626947 0.03644062 0.03662314 0.03681402 0.03701062 0.03719433 0.03736423 0.03750542 0.03762222 0.03771685
 0.03779567 0.03787125 0.03794519 0.03802542 0.03810804 0.03819196 0.03827534 0.03835537 0.03843686 0.03852094
 0.0386118 0.03871224 0.03881625 0.03892417 0.03902388 0.03911394 0.03918904 0.03924869 0.03929812 0.03933778
 0.0393754 0.03941076 0.0394467 0.039482 0.03951377 0.03954072 0.03955777 0.03956525 0.03956054 0.03954697
 0.03952669 0.03950493 0.03948688 0.03947551 0.03947496 0.03948241 0.03949888 0.03951634 0.03953318 0.03954207
 0.03954077 0.03953008 0.03950915 0.03948819 0.03946774 0.03945876 0.03946139 0.03947822 0.03950862 0.03954915
 0.03960038 0.03966265 0.03973718 0.03982908 0.03993463 0.04005274 0.04017137 0.04027637 0.04035592 0.04039222
 0.040389 0.04033874 0.04026474 0.04017239 0.04008828 0.04002187 0.03998266 0.03997586 0.03998995 0.04002526
 0.04005969 0.04009191 0.04010251 0.04009114 0.04005089 0.03998356 0.03989788 0.03979651 0.03969529 0.03959442
 0.0395036 0.03941924 0.03933933 0.0392606 0.0391768 0.03909017 0.0389991 0.03891074 0.0388297 0.03875819
 0.03870124 0.03864613 0.03859253 0.03851861 0.03841974 0.03828538 0.03811225 0.03791322 0.03768863 0.03746242
 0.03723546 0.03702263 0.0368229 0.03663617 0.03646028 0.03628688 0.03611359 0.03592948 0.0357342 0.03552009
 0.03529315 0.03505612 0.03481969 0.03459547 0.03438656 0.03420165 0.0340278 0.03386327 0.03369068 0.03350309
 0.03329811 0.03307204 0.03284051 0.03260436 0.03238214 0.03217537 0.03198975 0.03182481 0.03166876 0.0315195
 0.03135515 0.03117512 0.03096372 0.03072519 0.03046173 0.03018079 0.02989757 0.02961668 0.02935162 0.02910043
 0.02886718 0.02864525 0.02843235 0.02822099 0.02800733 0.02778716 0.02755752 0.02732151 0.0270783 0.02683758
 0.02660048 0.02637341 0.02615719 0.02594676 0.0257416 0.02552998 0.02531177 0.02508007 0.02483637 0.02458327
 0.02432247 0.02406034 0.0237971 0.02353654 0.02327721 0.02301858 0.02275969 0.02249877 0.02223758 0.02197595
 0.02171825 0.02146664 0.02122285 0.02098888 0.02075996 0.02053617 0.02030889 0.02007706 0.01983493 0.0195819
 0.01931739 0.01904145 0.01875642 0.01846267 0.01816398 0.01786125 0.01756031 0.0172622 0.01697304 0.01669292
 0.01642551 0.01616874 0.01592203 0.0156814 0.01544331 0.01520353 0.01495774 0.01470545 0.01444423 0.01417935
 0.01391142 0.01364704 0.01338794 0.0131361 0.01289221 0.01265461 0.01242327 0.01219677 0.01197496 0.01175471
 0.01153512 0.01130684 0.01106893 0.010811 0.01053504 0.0102402 0.009931973 0.00962069 0.009311125 0.009015348
 0.008732569 0.008467713 0.008214414 0.00797049 0.007728808 0.007484973 0.007237112 0.006982625 0.006726847 0.006469955
 0.006219539 0.005976936 0.005744202 0.005521864 0.005304515 0.005091904 0.004878738 0.004665642 0.004455742 0.004250904
 0.004062382 0.003890217 0.003742469 0.003613341 0.003496742 0.003382514 0.003252987 0.003103186 0.002918505 0.002708146
 0.002471022 0.002226071 0.001982106 0.001750955 0.001540269 0.001345644 0.001168287 0.0009976333 0.0008320237 0.0006678163
 0.0005044175 0.0003438376 0.000186084 2.93377E-05 -0.0001266596 -0.0002859466 -0.0004474249 -0.0006083162 -0.0007661094 -0.0009107235
 -0.001042363 -0.001154979 -0.001253973 -0.001343837 -0.001431426 -0.001525905 -0.001629711 -0.001748146 -0.00187866 -0.002021518
 -0.002173462 -0.002333141 -0.002500001 -0.002673262 -0.002855607 -0.003047203 -0.003251226 -0.003468136 -0.003696858 -0.003937218
 -0.004180511 -0.004425964 -0.004661799 -0.004888657 -0.005102509 -0.005306831 -0.005510214 -0.005716325 -0.005938305 -0.006175105
 -0.00643232 -0.006703534 -0.006984591 -0.007269021 -0.007550099 -0.007826991 -0.00809695 -0.008363174 -0.008626334 -0.008888216
 -0.0091495 -0.009410105 -0.009670028 -0.009929826 -0.0101896 -0.01044893 -0.01070776 -0.01096229 -0.01121248 -0.01145606
 -0.01169424 -0.01193249 -0.01217193 -0.01242005 -0.01267494 -0.0129364 -0.01320142 -0.01346405 -0.01372589 -0.01398527
 -0.01424771 -0.01451755 -0.01479579 -0.01508592 -0.01538027 -0.01567761 -0.01596898 -0.01625167 -0.01652279 -0.01678125
 -0.01702854 -0.01726476 -0.01749014 -0.01770467 -0.0179066 -0.01809605 -0.01827333 -0.01843965 -0.01860126 -0.01876029
 -0.01892753 -0.01910366 -0.01929685 -0.01950325 -0.01972209 -0.01994521 -0.0201641 -0.02037107 -0.02055718 -0.0207201
 -0.02085535 -0.0209667 -0.02105412 -0.02112278 -0.02117418 -0.02120997 -0.02123095 -0.02123491 -0.02122175 -0.02118878
 -0.02113587 -0.02106284 -0.02096974 -0.02085745 -0.02072547 -0.0205717 -0.02039489 -0.02018928 -0.01995479 -0.01968725
 -0.01939018 -0.01906614 -0.01872146 -0.01836414 -0.01799827 -0.01763052 -0.01725905 -0.01688478 -0.01650481 -0.01611713
 -0.01572504 -0.01532797 -0.01493475 -0.01454677 -0.01416935 -0.01380337 -0.01344769 -0.01310229 -0.0127656 -0.01243806
 -0.01212455 -0.01182643 -0.01155392 -0.01130811 -0.0110985 -0.01092456 -0.01079062 -0.01069367 -0.01063202 -0.01059969
 -0.01059096 -0.0105964 -0.01060857 -0.01061562 -0.01061027 -0.01058165 -0.01052369 -0.01043273 -0.01030563 -0.01014787
 -0.009959136 -0.009749863 -0.009520911 -0.00928116 -0.009031149 -0.008778312 -0.008523308 -0.008276188 -0.008038356 -0.007823271
 -0.007632369 -0.007478041 -0.007360817 -0.007288321 -0.007259917 -0.007278389 -0.007341588 -0.007448315 -0.007596144 -0.007781921
 -0.00800695 -0.008269154 -0.008577393 -0.008932935 -0.009349333 -0.009830159 -0.01038478 -0.01101633 -0.01172226 -0.01250386
 -0.01334269 -0.0142379 -0.0151554 -0.01609272 -0.0170081 -0.0178996 -0.01873301 -0.01950986 -0.02021599 -0.02085719
 -0.02143949 -0.02197033 -0.02246481 -0.02292817 -0.02337297 -0.02380007 -0.02421463 -0.0246147 -0.0250003 -0.02537036
 -0.02572391 -0.02606273 -0.02638686 -0.02669891 -0.02699953 -0.02728878 -0.02756679 -0.02783235 -0.02808536 -0.02832688
 -0.02855708 -0.02877928 -0.02899343 -0.02920077 -0.02940105 -0.02959288 -0.02977843 -0.02996048 -0.03014596 -0.03034705
 -0.0305719 -0.03083631 -0.03114144 -0.03149584 -0.03189059 -0.03232455 -0.03278429 -0.03326488 -0.03375515 -0.03425185
 -0.03474541 -0.03523455 -0.03570744 -0.03616317 -0.03658778 -0.03698036 -0.03733058 -0.03763866 -0.03790646 -0.03813738
 -0.03835312 -0.03856136 -0.03880246 -0.03908486 -0.03945216 -0.0399047 -0.04046737 -0.04112506 -0.04187427 -0.04268575
 -0.04353695 -0.04439588 -0.04523799 -0.04604359 -0.04679727 -0.04749876 -0.04814326 -0.0487438 -0.04930134 -0.04983038
 -0.05033275 -0.05081649 -0.05128229 -0.05173231 -0.05216664 -0.05258651 -0.05299219 -0.05338638 -0.05376949 -0.0541448
 -0.05451234 -0.05487398 -0.05522921 -0.05557775 -0.05591968 -0.05625477 -0.05658388 -0.05690765 -0.05722685 -0.0575423
 -0.0578537 -0.05816116 -0.05846425 -0.05876269 -0.05905726 -0.05934807 -0.0596357 -0.05992036 -0.06020064 -0.0604765
 -0.06074494 -0.06100593 -0.06125896 -0.06150457 -0.06174641 -0.06198507 -0.06222534 -0.06246649 -0.06270947 -0.06295221
 -0.06319101 -0.06342501 -0.06365073 -0.06387041 -0.06408427 -0.0642961 -0.06450867 -0.06472301 -0.06494077 -0.06515979
 -0.06538004 -0.06559831 -0.06581417 -0.06602424 -0.0662282 -0.06642235 -0.06660636 -0.06677938 -0.06694161 -0.06709802
 -0.06724928 -0.067403 -0.0675591 -0.06772144 -0.06788884 -0.06806003 -0.06823395 -0.06840795 -0.06858155 -0.06875318
 -0.06892245 -0.06908852 -0.06925119 -0.06941015 -0.06956512 -0.06971584 -0.06986239 -0.07000449 -0.07014371 -0.07028001
 -0.07041684 -0.07055464 -0.07069562 -0.07084002 -0.07098668 -0.07113548 -0.07128368 -0.07143138 -0.07157837 -0.07172484
 -0.07187184 -0.07201886 -0.07216512 -0.07230979 -0.07245049 -0.07258777 -0.07272081 -0.07285201 -0.07298321 -0.07311643
 -0.07325413 -0.07339504 -0.07353973 -0.07368459 -0.07382847 -0.07396958 -0.07410683 -0.0742429 -0.0743777 -0.07451599
 -0.07465813 -0.07480723 -0.07496335 -0.07512652 -0.07529638 -0.07547011 -0.07564693 -0.07582182 -0.07599432 -0.07616007
 -0.07632026 -0.07647481 -0.0766259 -0.07677676 -0.07692812 -0.07708243 -0.07723793 -0.077394 -0.07754976 -0.07770403
 -0.07785904 -0.07801494 -0.07817511 -0.07834065 -0.07851124 -0.07868744 -0.07886406 -0.07904081 -0.07921147 -0.07937583
 -0.07953219 -0.0796811 -0.07982676 -0.07996995 -0.08011675 -0.08026664 -0.08042172 -0.08057988 -0.08073783 -0.08089403
 -0.08104423 -0.08118977 -0.08132992 -0.08146772 -0.0816052 -0.08174375 -0.08188514 -0.08202719 -0.0821698 -0.08231007
 -0.08244704 -0.08258082 -0.08271098 -0.08284066 -0.08297004 -0.08310233 -0.08323763 -0.08337589 -0.08351673 -0.08365653
 -0.08379489 -0.08392762 -0.08405508 -0.08417583 -0.0842911 -0.08440261 -0.08451156 -0.08462051 -0.08472995 -0.08484149
 -0.08495451 -0.08506949 -0.08518427 -0.08529823 -0.08540883 -0.0855148 -0.08561622 -0.08571224 -0.08580727 -0.0859016
 -0.08600054 -0.08610463 -0.08621564 -0.08633357 -0.08645584 -0.08658211 -0.08670842 -0.08683462 -0.08695804 -0.08707879
 -0.08719581 -0.08730971 -0.08742094 -0.08753084 -0.08764128 -0.08775404 -0.08787184 -0.08799524 -0.08812602 -0.08826225
 -0.08840391 -0.08854752 -0.08869191 -0.08883495 -0.08897575 -0.08911463 -0.0892515 -0.08938704 -0.08952137 -0.08965333
 -0.08978283 -0.08990807 -0.09002919 -0.09014675 -0.09026147 -0.09037711 -0.09049462 -0.09061939 -0.09075125 -0.09089305
 -0.09104262 -0.09119848 -0.09135739 -0.0915152 -0.09167044 -0.09182006 -0.09196608 -0.09210829 -0.09225024 -0.09239335
 -0.09253865 -0.09268716 -0.09283609 -0.09298541 -0.09313093 -0.09327222 -0.09340794 -0.09353802 -0.09366507 -0.09378941
 -0.09391563 -0.09404378 -0.09417652 -0.09431323 -0.09445348 -0.09459633 -0.09473948 -0.0948822 -0.0950223 -0.09515956
 -0.09529272 -0.09542255 -0.09554885 -0.0956737 -0.09579785 -0.09592363 -0.09605239 -0.0961837 -0.09631825 -0.09645228
 -0.09658542 -0.096714 -0.09683753 -0.09695656 -0.09707112 -0.09718476 -0.09729754 -0.09741125 -0.09752548 -0.09763883
 -0.09775116 -0.09786104 -0.09796903 -0.09807567 -0.09818159 -0.0982881 -0.09839518 -0.09850334 -0.09861235 -0.09872222
 -0.09883253 -0.09894326 -0.09905338 -0.09916274 -0.09926989 -0.0993744 -0.09947578 -0.09957374 -0.09966924 -0.09976229
 -0.09985439 -0.09994564 -0.1000375 -0.1001301 -0.1002243 -0.1003203 -0.1004188 -0.1005197 -0.1006237 -0.1007303
 -0.1008396 -0.100951 -0.1010639 -0.101178 -0.1012925 -0.1014082 -0.101525 -0.1016442 -0.1017668 -0.1018925
 -0.102022 -0.1021527 -0.1022843 -0.1024141 -0.1025413 -0.1026658 -0.1027875 -0.1029091 -0.1030307 -0.103155
 -0.1032822 -0.1034121 -0.1035444 -0.1036767 -0.1038087 -0.1039375 -0.1040632 -0.1041845 -0.1043024 -0.1044176
 -0.1045315 -0.1046458 -0.1047611 -0.1048786 -0.1049973 -0.1051174 -0.1052376 -0.1053571 -0.1054758 -0.1055932
 -0.1057108 -0.1058286 -0.1059481 -0.1060696 -0.106192 -0.1063153 -0.1064362 -0.1065545 -0.1066677 -0.1067761
 -0.1068808 -0.1069825 -0.1070844 -0.1071867 -0.1072917 -0.1073991 -0.1075093 -0.1076219 -0.1077367 -0.1078527
 -0.1079693 -0.1080845 -0.1081971 -0.1083056 -0.1084084 -0.1085069 -0.1086007 -0.1086941 -0.1087874 -0.1088851
 -0.1089877 -0.1090961 -0.1092106 -0.1093282 -0.1094489 -0.1095686 -0.1096873 -0.1098022 -0.1099137 -0.1100209
 -0.1101242 -0.1102235 -0.1103192 -0.1104115 -0.1105017 -0.1105908 -0.1106802 -0.1107715 -0.1108652 -0.1109624
 -0.1110626 -0.1111661 -0.1112727 -0.1113827 -0.111495 -0.1116099 -0.1117239 -0.1118367 -0.1119448 -0.1120478
 -0.1121456 -0.1122383 -0.1123294 -0.1124194 -0.1125119 -0.112607 -0.1127065 -0.1128099 -0.1129168 -0.113026
 -0.1131357 -0.1132443 -0.1133487 -0.1134489 -0.1135431 -0.1136333 -0.1137199 -0.113805 -0.1138898 -0.1139749
 -0.1140608 -0.1141472 -0.114234 -0.1143214 -0.1144095 -0.1144986 -0.1145888 -0.1146786 -0.1147679 -0.1148544
 -0.1149384 -0.1150196 -0.1150988 -0.1151788 -0.1152604 -0.1153474 -0.1154399 -0.1155397 -0.1156463 -0.1157599
 -0.1158806 -0.1160084 -0.1161443 -0.116289 -0.116442 -0.1166036 -0.1167716 -0.1169454 -0.1171229 -0.1173034
 -0.1174861 -0.117671 -0.1178558 -0.1180404 -0.1182197 -0.1183934 -0.118558 -0.1187138 -0.1188623 -0.1190035
 -0.1191388 -0.1192658 -0.1193792 -0.119475 -0.1195427 -0.1195814 -0.119584 -0.1195555 -0.1194948 -0.1194158
 -0.1193228 -0.1192388 -0.1191733 -0.1191449 -0.1191627 -0.119227 -0.1193417 -0.119489 -0.1196687 -0.1198523
 -0.1200381 -0.1201987 -0.1203336 -0.1204344 -0.1205033 -0.120553 -0.1205856 -0.1206156 -0.1206431 -0.1206755
 -0.1207119 -0.1207546 -0.1208011 -0.1208493 -0.120896 -0.120937 -0.1209719 -0.1209991 -0.1210198 -0.1210345
 -0.121043 -0.1210449 -0.1210414 -0.1210316 -0.1210221 -0.1210134 -0.1210127 -0.1210209 -0.1210389 -0.1210665
 -0.121099 -0.1211362 -0.1211742 -0.1212136 -0.1212544 -0.1212968 -0.1213418 -0.1213884 -0.1214352 -0.1214811
 -0.1215236 -0.1215636 -0.1216004 -0.1216364 -0.1216733 -0.1217121 -0.1217545 -0.1217985 -0.121844 -0.1218887
 -0.1219319 -0.1219734 -0.1220129 -0.1220532 -0.1220943 -0.1221391 -0.1221874 -0.1222395 -0.1222951 -0.1223514
 -0.1224082 -0.122463 -0.1225159 -0.1225663 -0.1226145 -0.1226609 -0.1227056 -0.1227487 -0.122791 -0.122833
 -0.1228759 -0.1229207 -0.1229674 -0.1230167 -0.1230668 -0.1231174 -0.1231664 -0.1232133 -0.1232577 -0.1232996
 -0.1233398 -0.1233784 -0.1234167 -0.1234547 -0.1234932 -0.123532 -0.1235708 -0.1236094 -0.1236468 -0.1236833
 -0.1237189 -0.1237538 -0.1237891 -0.1238245 -0.1238605 -0.1238967 -0.1239324 -0.123968 -0.1240032 -0.1240393
 -0.1240766 -0.1241158 -0.1241575 -0.1242001 -0.1242438 -0.124286 -0.1243264 -0.1243629 -0.1243954 -0.124424
 -0.1244489 -0.1244722 -0.1244938 -0.1245158 -0.1245381 -0.1245612 -0.124585 -0.1246092 -0.1246341 -0.1246599
 -0.1246872 -0.1247172 -0.1247502 -0.124787 -0.1248263 -0.1248677 -0.1249083 -0.1249468 -0.1249819 -0.1250125
 -0.1250402 -0.1250648 -0.1250886 -0.1251119 -0.1251355 -0.1251594 -0.1251833 -0.1252072 -0.1252309 -0.1252542
 -0.1252774 -0.1253006 -0.1253249 -0.1253504 -0.1253784 -0.1254085 -0.1254409 -0.1254745 -0.1255079 -0.1255403
 -0.1255701 -0.1255978 -0.1256228 -0.125646 -0.1256677 -0.1256884 -0.1257083 -0.1257274 -0.125746 -0.1257637
 -0.1257804 -0.1257962 -0.1258112 -0.125827 -0.1258439 -0.125864 -0.1258872 -0.1259133 -0.125942 -0.1259708
 -0.1259995 -0.1260268 -0.1260532 -0.1260792 -0.1261049 -0.126131 -0.1261569 -0.1261822 -0.1262065 -0.1262295
 -0.1262511 -0.1262713 -0.1262904 -0.1263085 -0.126325 -0.1263401 -0.126353 -0.1263635 -0.1263721 -0.1263789
 -0.1263863 -0.1263944 -0.1264061 -0.1264214 -0.1264402 -0.1264618 -0.1264831 -0.1265034 -0.1265194 -0.1265317
 -0.1265399 -0.1265457 -0.1265519 -0.1265596 -0.1265718 -0.1265873 -0.1266066 -0.1266265 -0.1266456 -0.1266619
 -0.1266742 -0.126684 -0.1266914 -0.1266985 -0.1267059 -0.1267131 -0.12672 -0.1267251 -0.1267283 -0.1267301
 -0.1267306 -0.1267321 -0.1267349 -0.1267404 -0.1267482 -0.1267582 -0.1267697 -0.126781 -0.1267916 -0.1267995
 -0.1268049 -0.1268067 -0.1268063 -0.1268039 -0.1268022 -0.1268024 -0.1268064 -0.1268157 -0.1268292 -0.1268475
 -0.1268657 -0.1268836 -0.126896 -0.1269023 -0.1269023 -0.126896 -0.1268889 -0.126881 -0.1268776 -0.1268782
 -0.126883 -0.1268912 -0.1268996 -0.1269082 -0.126915 -0.1269204 -0.1269245 -0.1269272 -0.1269287 -0.1269288
 -0.1269269 -0.1269242 -0.1269208 -0.1269195 -0.1269214 -0.126928 -0.1269403 -0.1269563 -0.126976 -0.1269956
 -0.1270146 -0.1270307 -0.1270438 -0.1270544 -0.1270628 -0.1270711 -0.1270793 -0.1270891 -0.1271001 -0.1271122
 -0.1271244 -0.1271346 -0.1271423 -0.1271454 -0.1271452 -0.1271419 -0.1271381 -0.1271362 -0.1271373 -0.1271433
 -0.1271526 -0.1271652 -0.1271785 -0.1271918 -0.1272044 -0.1272162 -0.1272279 -0.1272396 -0.1272512 -0.1272627
 -0.1272735 -0.1272836 -0.1272933 -0.1273026 -0.1273125 -0.1273226 -0.1273326 -0.1273419 -0.1273492 -0.1273547
 -0.1273581 -0.1273604 -0.1273628 -0.1273663 -0.127372 -0.1273801 -0.127391 -0.1274047 -0.1274212 -0.1274404
 -0.1274626 -0.1274862 -0.1275112 -0.1275345 -0.1275558 -0.1275719 -0.1275827 -0.1275878 -0.1275873 -0.1275841
 -0.1275787 -0.1275755 -0.1275745 -0.1275786 -0.1275866 -0.1275979 -0.1276107 -0.1276218 -0.1276305 -0.1276342
 -0.1276344 -0.1276311 -0.1276271 -0.1276237 -0.1276225 -0.1276247 -0.1276296 -0.1276373 -0.1276461 -0.1276556
 -0.127664 -0.1276713 -0.1276762 -0.1276786 -0.127679 -0.1276775 -0.1276763 -0.1276755 -0.1276767 -0.1276795
 -0.1276831 -0.1276869 -0.1276886 -0.1276884 -0.1276847 -0.1276788 -0.1276713 -0.1276639 -0.127658 -0.1276537
 -0.1276521 -0.1276513 -0.1276513 -0.1276498 -0.127646 -0.1276395 -0.12763 -0.1276189 -0.1276065 -0.1275943
 -0.1275826 -0.1275717 -0.1275616 -0.1275516 -0.1275419 -0.1275321 -0.1275222 -0.1275127 -0.1275038 -0.1274964
 -0.1274902 -0.1274858 -0.1274824 -0.1274796 -0.1274768 -0.1274736 -0.1274702 -0.1274664 -0.1274621 -0.1274575
 -0.1274512 -0.1274427 -0.1274308 -0.1274148 -0.1273962 -0.1273747 -0.1273537 -0.1273334 -0.1273163 -0.1273022
 -0.1272903 -0.1272802 -0.1272687 -0.1272559 -0.1272402 -0.1272223 -0.1272031 -0.1271832 -0.1271639 -0.1271451
 -0.1271271 -0.1271096 -0.1270922 -0.1270748 -0.1270572 -0.1270389 -0.1270201 -0.1270002 -0.126979 -0.1269567
 -0.1269334 -0.126909 -0.1268838 -0.126857 -0.1268286 -0.1267988 -0.1267677 -0.1267363 -0.1267047 -0.1266739
 -0.1266437 -0.1266139 -0.1265845 -0.1265553 -0.1265265 -0.1264983 -0.1264704 -0.1264428 -0.1264149 -0.1263862
 -0.1263564 -0.126325 -0.1262918 -0.1262567 -0.1262196 -0.1261803 -0.12614 -0.1260987 -0.126058 -0.1260181
 -0.12598 -0.1259439 -0.1259089 -0.1258749 -0.1258396 -0.1258029 -0.1257625 -0.125719 -0.1256734 -0.1256266
 -0.1255825 -0.1255406 -0.1255028 -0.1254663 -0.1254284 -0.125387 -0.1253383 -0.1252835 -0.125222 -0.1251575
 -0.1250916 -0.1250264 -0.1249632 -0.1249014 -0.1248412 -0.124781 -0.1247208 -0.124659 -0.1245954 -0.1245289
 -0.1244595 -0.1243881 -0.124315 -0.1242434 -0.1241737 -0.1241091 -0.1240487 -0.1239922 -0.1239371 -0.1238787
 -0.1238153 -0.1237418 -0.1236606 -0.1235712 -0.1234782 -0.1233847 -0.1232929 -0.123205 -0.12312 -0.1230384
 -0.1229578 -0.1228781 -0.1227963 -0.1227122 -0.1226228 -0.1225279 -0.1224268 -0.1223195 -0.1222085 -0.122094
 -0.1219792 -0.1218641 -0.1217508 -0.1216388 -0.1215285 -0.1214191 -0.1213092 -0.1211983 -0.1210849 -0.1209694
 -0.1208515 -0.1207314 -0.1206091 -0.1204837 -0.1203544 -0.1202218 -0.1200854 -0.1199483 -0.1198114 -0.1196747
 -0.1195391 -0.1193991 -0.1192543 -0.1191003 -0.118937 -0.1187675 -0.1185923 -0.1184182 -0.1182448 -0.1180743
 -0.1179051 -0.1177333 -0.1175575 -0.1173726 -0.1171798 -0.1169782 -0.1167707 -0.1165602 -0.116348 -0.1161362
 -0.1159232 -0.1157085 -0.1154908 -0.1152691 -0.1150444 -0.1148171 -0.1145875 -0.1143562 -0.1141195 -0.1138773
 -0.113624 -0.1133595 -0.1130797 -0.1127848 -0.1124761 -0.1121545 -0.1118262 -0.1114914 -0.1111543 -0.1108124
 -0.1104631 -0.1101028 -0.1097248 -0.1093289 -0.1089112 -0.1084755 -0.1080226 -0.1075565 -0.1070799 -0.1065918
 -0.1060937 -0.1055774 -0.105042 -0.1044766 -0.1038787 -0.1032486 -0.1025853 -0.101905 -0.1012084 -0.1005073
 -0.09980083 -0.09908371 -0.09835517 -0.09760799 -0.09684432 -0.09606858 -0.09527968 -0.09448028 -0.09366129 -0.09280935
 -0.09192111 -0.09098243 -0.09001157 -0.0890146 -0.08801453 -0.08702749 -0.0860529 -0.08509578 -0.08414301 -0.08319108
 -0.08223949 -0.08128686 -0.08034261 -0.07940795 -0.07847945 -0.07755683 -0.07662422 -0.07568267 -0.07473512 -0.07378769
 -0.07287536 -0.07199997 -0.0711894 -0.07043359 -0.06972573 -0.06905266 -0.06839164 -0.06773448 -0.06706565 -0.06637722
 -0.06566294 -0.06490465 -0.06409623 -0.0632088 -0.06223229 -0.0611439 -0.05993402 -0.05860642 -0.05715728 -0.05561892
 -0.05399271 -0.05232208 -0.0506093 -0.04888871 -0.04715924 -0.04542438 -0.04367564 -0.04187066 -0.03999991 -0.03800028
 -0.03588935 -0.03366242 -0.03137137 -0.0290992 -0.02686742 -0.02474482 -0.0226895 -0.0206948 -0.01871393 -0.01671455
 -0.01469543 -0.01264574 -0.01058836 -0.00852818 -0.006472913 -0.004423777 -0.002388899 -0.0003683207 0.001617526 0.003567689
 0.005483358 0.007365494 0.009230081 0.01107169 0.01286822 0.01461278 0.0162617 0.01783137 0.01933106 0.02079366
 0.02228404 0.02379782 0.0253715 0.02694105 0.02846618 0.02991178 0.0312359 0.032476 0.03363833 0.0347468
 0.03581664 0.03681079 0.03772725 0.03852301 0.03919228 0.03973333 0.04014586 0.04044639 0.04063495 0.04071603
 0.04068898 0.04055137 0.04030509 0.03995497 0.0395042 0.03896189 0.03833165 0.03762089 0.03683841 0.03599307
 0.0351026 0.03418099 0.03324773 0.03231725 0.03139819 0.03049798 0.0296138 0.02874603 0.0278925 0.02705217
 0.02623 0.02542643 0.02464458 0.02388465 0.02313947 0.02240838 0.02168029 0.02095517 0.0202274 0.01949713
 0.01876262 0.0180225 0.01727268 0.01651195 0.01573564 0.01494567 0.01414228 0.01332779 0.01250475 0.01167252
 0.01083143 0.009980612 0.009119065 0.008249634 0.007372621 0.006491462 0.005606942 0.004719545 0.003829254 0.002938012
 0.00204591 0.00115847 0.0002757467 -0.0005996632 -0.001469114 -0.002339604 -0.003212683 -0.004099208 -0.004996548 -0.005905327
 -0.006818641 -0.007724221 -0.008619957 -0.009497004 -0.01036031 -0.0112121 -0.01205291 -0.01288544 -0.01370241 -0.01450017
 -0.0152799 -0.01603844 -0.01679354 -0.01754755 -0.01831519 -0.01909987 -0.01988794 -0.02067894 -0.02144423 -0.022184
 -0.02289674 -0.02358582 -0.02427333 -0.02495947 -0.02565804 -0.02636404 -0.02707278 -0.02777782 -0.02846579 -0.0291334
 -0.02977131 -0.03037925 -0.03095429 -0.03149604 -0.0320031 -0.0324771 -0.03291667 -0.03333076 -0.03372085 -0.03409676
 -0.03446117 -0.03481416 -0.03515663 -0.03547968 -0.03578284 -0.03605894 -0.036308 -0.03652986 -0.03672494 -0.03689565
 -0.03704257 -0.03716679 -0.03727362 -0.03737223 -0.03747905 -0.0376228 -0.03782671 -0.0381311 -0.03854771 -0.0391055
 -0.03978861 -0.0406015 -0.04150762 -0.04249507 -0.04353235 -0.04460924 -0.04570641 -0.04682211 -0.04792311 -0.04900749
 -0.0500276 -0.05097988 -0.05185401 -0.05265203 -0.05341227 -0.0541381 -0.05487242 -0.055613 -0.05637524 -0.05715182
 -0.05793182 -0.0587092 -0.05946859 -0.06020598 -0.06091272 -0.06157983 -0.06219926 -0.06275697 -0.06324273 -0.06364723
 -0.06396326 -0.06419137 -0.0643299 -0.06438328 -0.06435231 -0.06423848 -0.06404255 -0.06375909 -0.06338789 -0.06291905
 -0.06235304 -0.06169574 -0.06095369 -0.06017499 -0.05936959 -0.05860666 -0.05788559 -0.05724271 -0.05666631 -0.05615154
 -0.05568869 -0.05526292 -0.05487004 -0.05450264 -0.05415523 -0.05382251 -0.05350138 -0.05318581 -0.05289001 -0.05261457
 -0.05238294 -0.05220166 -0.05207146 -0.05199526 -0.05194752 -0.05192701 -0.05190366 -0.05187636 -0.05182675 -0.05175583
 -0.05166226 -0.0515479 -0.05142116 -0.05128038 -0.05112782 -0.05095506 -0.0507496 -0.05049901 -0.05018246 -0.04979094
 -0.04930966 -0.04873316 -0.04805657 -0.04726839 -0.04636409 -0.04533029 -0.04415939 -0.04285818 -0.04142308 -0.03988645
 -0.03825083 -0.03654864 -0.03478233 -0.03297095 -0.03111633 -0.02925119 -0.0273827 -0.02558137 -0.02385573 -0.02228261
 -0.02086077 -0.01962705 -0.01857438 -0.01770462 -0.01701658 -0.01650814 -0.01618297 -0.01604543 -0.01609276 -0.01632757
 -0.01673605 -0.01731551 -0.01804508 -0.01892034 -0.01991677 -0.02103071 -0.02223534 -0.02352816 -0.02488016 -0.02628952
 -0.02772375 -0.02918118 -0.0306329 -0.03207868 -0.03350423 -0.03491007 -0.03629262 -0.0376486 -0.03896862 -0.04024519
 -0.04145894 -0.04260578 -0.04366997 -0.04465697 -0.04556431 -0.04640441 -0.04718317 -0.04791431 -0.04860478 -0.04926494
 -0.04989988 -0.05051205 -0.05110396 -0.05166819 -0.05220476 -0.05270134 -0.05315712 -0.05356137 -0.05391357 -0.05420551
 -0.05443702 -0.05460234 -0.05470254 -0.05473818 -0.05471266 -0.0546352 -0.05451078 -0.0543525 -0.05416643 -0.05396473
 -0.0537557 -0.05354996 -0.05335759 -0.05318787 -0.0530481 -0.05294463 -0.05287739 -0.05284906 -0.05285108 -0.05288335
 -0.05293161 -0.05299442 -0.05305769 -0.05312008 -0.05317493 -0.05322217 -0.05326674 -0.05331013 -0.05336738 -0.05344031
 -0.05354596 -0.05368429 -0.05386522 -0.054085 -0.05434196 -0.05462941 -0.054938 -0.05526073 -0.05558767 -0.05591388
 -0.05623291 -0.05654324 -0.05684208 -0.05713171 -0.05741172 -0.05768699 -0.05795829 -0.0582303 -0.05850372 -0.05878156
 -0.05906408 -0.0593535 -0.05964995 -0.05995514 -0.06026876 -0.06058895 -0.06091436 -0.06123766 -0.06155704 -0.06186299
 -0.06215506 -0.06242734 -0.06268115 -0.06291603 -0.06313285 -0.06333271 -0.0635149 -0.06367919 -0.06382525 -0.06395249
 -0.06406242 -0.06415544 -0.06423245 -0.06429393 -0.06433886 -0.06436716 -0.06437818 -0.06437182 -0.06434885 -0.06430926
 -0.06425262 -0.06417877 -0.06408565 -0.06397357 -0.06384253 -0.06369366 -0.06353038 -0.06335381 -0.06316785 -0.06297353
 -0.0627739 -0.06257002 -0.0623641 -0.06215661 -0.06194877 -0.06173991 -0.06152992 -0.06131859 -0.06110548 -0.06089221
 -0.06067882 -0.06046796 -0.06025993 -0.06005698 -0.05985931 -0.0596689 -0.05948588 -0.0593125 -0.05914896 -0.05899802
 -0.05885996 -0.05873779 -0.0586314 -0.05854243 -0.05846976 -0.05841213 -0.05836755 -0.05833242 -0.05830577 -0.05828481
 -0.0582706 -0.05826293 -0.05826324 -0.05827235 -0.05829058 -0.05831813 -0.05835546 -0.0584024 -0.05846119 -0.05853223
 -0.0586165 -0.05871442 -0.0588211 -0.05893625 -0.05904984 -0.05916149 -0.05926331 -0.05935583 -0.05943793 -0.05951039
 -0.05957555 -0.05963312 -0.05968376 -0.05972642 -0.05975965 -0.05978299 -0.05979513 -0.05979686 -0.05978792 -0.05977048
 -0.05974507 -0.05971527 -0.05968197 -0.05964968 -0.05961954 -0.05959484 -0.05957643 -0.05956469 -0.05955989 -0.05955947
 -0.0595633 -0.05956692 -0.05956995 -0.05956679 -0.05955684 -0.05953394 -0.05949734 -0.05944109 -0.05936503 -0.05926574
 -0.05914378 -0.05899873 -0.05883069 -0.05864009 -0.05842538 -0.05818595 -0.05791921 -0.05762395 -0.05729738 -0.05693889
 -0.05654383 -0.05611183 -0.05563491 -0.05511206 -0.05453555 -0.05390426 -0.0532172 -0.05247429 -0.05168329 -0.05084504
 -0.04997189 -0.04906484 -0.04813549 -0.04718485 -0.04622212 -0.04524887 -0.04427257 -0.04329608 -0.04232651 -0.04136788
 -0.04042675 -0.0395075 -0.03861543 -0.0377534 -0.03692461 -0.03612905 -0.03536787 -0.03463839 -0.03394077 -0.03326948
 -0.03262419 -0.03199684 -0.03138682 -0.03078591 -0.03019362 -0.0296046 -0.0290186 -0.0284316 -0.02784275 -0.02724496
 -0.02663726 -0.0260115 -0.02536911 -0.02470833 -0.02403368 -0.0233515 -0.02266626 -0.0219858 -0.02131178 -0.02064784
 -0.01999488 -0.01935375 -0.01872697 -0.01811538 -0.01752177 -0.01694742 -0.0163917 -0.01585515 -0.01533342 -0.01482623
 -0.01432885 -0.01384098 -0.01336094 -0.01288876 -0.01242493 -0.01196938 -0.0115217 -0.01108191 -0.0106492 -0.01022513
 -0.009812444 -0.00941413 -0.009036615 -0.008681392 -0.00835357 -0.008050893 -0.007774495 -0.007517866 -0.007279833 -0.007047749
 -0.006818891 -0.00657457 -0.006310718 -0.006008725 -0.005665077 -0.005267147 -0.004813307 -0.004295751 -0.003713933 -0.003061472
 -0.002338378 -0.001543218 -0.0006776374 0.0002495144 0.001234554 0.002260147 0.003320871 0.00439655 0.005478863 0.006547675
 0.007588828 0.008581253 0.009504493 0.01033732 0.01105893 0.01165185 0.01210492 0.01240759 0.0125657 0.01257562
 0.01246089 0.01222243 0.0118959 0.01148405 0.01102487 0.01052082 0.01000131 0.009467271 0.008935406 0.008405449
 0.007883839 0.007370269 0.006866901 0.006374027 0.005892991 0.005425378 0.00497413 0.00454169 0.004132157 0.003747221
 0.003390147 0.003060067 0.002758299 0.002480328 0.002226013 0.001986224 0.001759794 0.001533608 0.001305794 0.001063451
 0.0008051057 0.0005212032 0.0002111159 -0.0001345109 -0.0005164243 -0.0009478696 -0.001429902 -0.001976641 -0.00258811 -0.003272506
 -0.004028032 -0.004855079 -0.005749714 -0.006706209 -0.007718521 -0.008777905 -0.009877058 -0.011007 -0.01216264 -0.01333815
 -0.01453254 -0.01574375 -0.01697359 -0.01822247 -0.0194905 -0.02077835 -0.02208188 -0.02340121 -0.02472763 -0.02606071
 -0.0273878 -0.02870797 -0.03000467 -0.03127646 -0.03250499 -0.03368913 -0.034814 -0.03588034 -0.03688176 -0.03782132
 -0.03870083 -0.03952509 -0.04029987 -0.04103179 -0.04172725 -0.04239494 -0.04304092 -0.04367385 -0.04429879 -0.04492024
 -0.04554118 -0.04615958 -0.04677596 -0.04738509 -0.04798628 -0.0485771 -0.04915723 -0.04972868 -0.05029154 -0.05084778
 -0.05139701 -0.05193712 -0.05246734 -0.05298349 -0.05348469 -0.05396708 -0.05442866 -0.05486471 -0.05527174 -0.05564315
 -0.05597718 -0.05626865 -0.05652136 -0.05673445 -0.05691754 -0.05707366 -0.05721313 -0.05733998 -0.0574583 -0.05757046
 -0.05767149 -0.05776155 -0.05783149 -0.0578807 -0.05790249 -0.05789667 -0.05786106 -0.0577959 -0.05770168 -0.05757919
 -0.05743152 -0.05726031 -0.0570714 -0.05686676 -0.05665264 -0.05643074 -0.05620548 -0.05597885 -0.05575412 -0.05553271
 -0.05531707 -0.0551054 -0.05489831 -0.05469051 -0.05448084 -0.05426406 -0.05403875 -0.05380312 -0.05355644 -0.05330128
 -0.05303758 -0.05277282 -0.05250752 -0.05225243 -0.05200808 -0.05178393 -0.05157967 -0.05139904 -0.05124129 -0.05110573
 -0.0509927 -0.05090211 -0.05083573 -0.05079645 -0.05078417 -0.05080157 -0.05084244 -0.05090518 -0.05097913 -0.05105955
 -0.05113798 -0.0512109 -0.05127407 -0.05132673 -0.05136274 -0.05138186 -0.05137354 -0.05133688 -0.05126603 -0.05116102
 -0.05102841 -0.05086918 -0.05069501 -0.05050576 -0.05030673 -0.05009769 -0.04987932 -0.04965462 -0.04942915 -0.04920761
 -0.04900001 -0.04880597 -0.04863043 -0.04846637 -0.04831094 -0.04815752 -0.0480017 -0.04784267 -0.04767911 -0.04751228
 -0.04734264 -0.04716859 -0.04699019 -0.04680415 -0.04661018 -0.04640691 -0.04619434 -0.04597412 -0.04574673 -0.04551677
 -0.04528531 -0.04505957 -0.04484086 -0.04463701 -0.04444827 -0.04427987 -0.04412875 -0.04399402 -0.04386915 -0.04374773
 -0.04362404 -0.04349115 -0.04335006 -0.04319857 -0.04304255 -0.04288382 -0.04272474 -0.0425669 -0.04240627 -0.04224271
 -0.04207109 -0.04189084 -0.04170157 -0.0415034 -0.0413026 -0.04109992 -0.04090525 -0.0407186 -0.04054607 -0.04038557
 -0.04023405 -0.0400889 -0.03994263 -0.03979522 -0.03964314 -0.03948802 -0.03933083 -0.03917108 -0.03900944 -0.03884293
 -0.03867048 -0.03848927 -0.03829803 -0.03809572 -0.03788153 -0.03765745 -0.03742327 -0.03718406 -0.03694013 -0.03669678
 -0.03645425 -0.03621485 -0.0359786 -0.03574651 -0.03551902 -0.03529879 -0.03508657 -0.03488656 -0.03469825 -0.03452384
 -0.03435929 -0.03420064 -0.0340414 -0.03387234 -0.03369274 -0.03349629 -0.03329441 -0.03308979 -0.03289651 -0.03272176
 -0.0325651 -0.0324297 -0.032301 -0.03217774 -0.03204571 -0.03190354 -0.03174271 -0.03156274 -0.03135633 -0.03112343
 -0.03086012 -0.0305678 -0.03025124 -0.02991273 -0.02956228 -0.02920109 -0.02883661 -0.02846915 -0.02810185 -0.02773612
 -0.02737366 -0.02701826 -0.02667231 -0.02634144 -0.02602861 -0.02573892 -0.02547481 -0.02523868 -0.02503178 -0.02485356
 -0.02470452 -0.02458063 -0.02448194 -0.02439959 -0.02433311 -0.02427153 -0.02421436 -0.0241527 -0.02408616 -0.02400802
 -0.02391814 -0.0238119 -0.0236908 -0.02355544 -0.02340866 -0.02325557 -0.0230971 -0.02293644 -0.02277287 -0.02260588
 -0.02243802 -0.02226984 -0.02210563 -0.0219478 -0.0217954 -0.02164921 -0.02150441 -0.02136005 -0.02121542 -0.0210702
 -0.02092741 -0.02078718 -0.0206483 -0.02051022 -0.0203661 -0.02021522 -0.02004976 -0.01986985 -0.01967123 -0.01945549
 -0.01922409 -0.01897862 -0.01872297 -0.01845614 -0.01817888 -0.01788896 -0.01758377 -0.01726561 -0.01693374 -0.01659515
 -0.01625202 -0.01590988 -0.01557097 -0.01523545 -0.01490421 -0.0145721 -0.01423902 -0.01389635 -0.01354361 -0.01317452
 -0.01278945 -0.01239148 -0.01198194 -0.01157043 -0.01115766 -0.01075107 -0.01035095 -0.009960629 -0.009582755 -0.00922168
 -0.008883448 -0.008576023 -0.008305131 -0.008079113 -0.007896417 -0.00776122 -0.007660253 -0.007591679 -0.007536152 -0.007488699
 -0.007436187 -0.007375374 -0.007302746 -0.007217863 -0.007116411 -0.006998156 -0.006852741 -0.006679907 -0.006472864 -0.006233464
 -0.005968727 -0.005682374 -0.005391866 -0.005099121 -0.004818327 -0.00454739 -0.004288606 -0.004041024 -0.003801672 -0.00357851
 -0.00337528 -0.003203603 -0.003073742 -0.002981902 -0.002935477 -0.002900227 -0.002872052 -0.002806932 -0.002692556 -0.002535308
 -0.002331751 -0.002130852 -0.001935383 -0.001772945 -0.001643063 -0.001542472 -0.001468628 -0.001404327 -0.001347628 -0.001281654
 -0.001207251 -0.001117613 -0.001015457 -0.0009022851 -0.0007804913 -0.0006531914 -0.0005228125 -0.0003915857 -0.0002634629 -0.000141139
 -2.743028E-05 7.502465E-05 0.0001691049 0.0002540659 0.000337992 0.000421751 0.0005140423 0.0006160604 0.0007314724 0.0008607201
 0.0009950226 0.001132928 0.001250574 0.001345375 0.001387752 0.00137775 0.001297254 0.001153296 0.000950706 0.0007051439
 0.0004432865 0.0001836895 -3.970055E-05 -0.0002190922 -0.0003336881 -0.0003922828 -0.0003924453 -0.0003499204 -0.000269437 -0.0001658238
 -4.374328E-05 8.700541E-05 0.0002231768 0.0003658267 0.0005143197 0.0006758554 0.0008509306 0.001039675 0.001241974 0.001454674
 0.001678845 0.00192123 0.002181882 0.002466981 0.002770719 0.003081967 0.003393749 0.003687105 0.003962172 0.004210461
 0.00443736 0.004644468 0.004836921 0.005017483 0.005191899 0.005362527 0.005535349 0.005713205 0.005895514 0.006083582
 0.006269057 0.006451396 0.006621529 0.006778775 0.006919609 0.007044205 0.007155829 0.007255716 0.007354017 0.007452134
 0.007561743 0.007682181 0.007818246 0.007967179 0.008125965 0.008292961 0.008464201 0.008640951 0.008822306 0.00901184
 0.009211523 0.009423629 0.009650578 0.009889097 0.01013978 0.01039426 0.01065104 0.0109045 0.01115347 0.01139848
 0.01163943 0.01187922 0.01211812 0.01236057 0.01260732 0.01286669 0.01313827 0.01342643 0.01372679 0.01403116
 0.01433233 0.01461367 0.01486908 0.01508361 0.01525535 0.01537519 0.01545089 0.01548151 0.01548528 0.01546969
 0.01544704 0.01542582 0.01539407 0.01535348 0.01527513 0.01515577 0.01497512 0.0147311 0.01442608 0.0140611
 0.01365988 0.01322546 0.01279239 0.01236203 0.01196068 0.01158341 0.01123179 0.01089643 0.01055907 0.01021657
 0.009853777 0.009481116 0.009100729 0.008728631 0.008376701 0.008050911 0.007758767 0.007493016 0.00725381 0.007030604
 0.00682142 0.006619101 0.00642257 0.006227287 0.006032794 0.00583812 0.005643241</values></Ydata></AB><ScSm><Ydata ylabel="Single channel"><values byteorder="INTEL" format="FLOAT32" numvalues="1814"> 0.0863802 0.08649088 0.08661842 0.08677047 0.08693874 0.08710656 0.08725945 0.08739261 0.08750976 0.08761436
 0.0877092 0.08780753 0.08793142 0.08809015 0.08826684 0.0884303 0.08855781 0.08865367 0.08875115 0.08888339
 0.08903965 0.08916035 0.08919005 0.08913755 0.08907446 0.08907044 0.08914407 0.08929458 0.08954543 0.08988339
 0.09016894 0.09022518 0.09005985 0.08989689 0.08992948 0.09012694 0.09032647 0.09041388 0.09036782 0.09024327
 0.0901952 0.09043182 0.09102595 0.09175856 0.09218527 0.09189347 0.09077781 0.08918949 0.08785263 0.08748639
 0.08828665 0.08970785 0.09087065 0.09127093 0.09105335 0.09063719 0.09027852 0.0900646 0.09010684 0.09051809
 0.09122914 0.09191948 0.0921447 0.09162638 0.09056505 0.089606 0.0893153 0.08974035 0.09060304 0.09163766
 0.09234473 0.09173971 0.08922194 0.08589909 0.0842456 0.08581789 0.0896247 0.09315744 0.0946753 0.09412889
 0.09243586 0.09066963 0.08977503 0.0902459 0.09180288 0.09366994 0.09519081 0.09600674 0.09589319 0.09486257
 0.09337658 0.09215122 0.09175916 0.09246625 0.09412514 0.09600779 0.09709224 0.09686832 0.09572332 0.09443924
 0.09361324 0.09362499 0.0946701 0.09652874 0.09858454 0.1002786 0.1014005 0.1019662 0.1020829 0.101927
 0.1016569 0.1013869 0.1013063 0.1015853 0.1020396 0.1021663 0.101704 0.1009903 0.1006221 0.1008403
 0.1013217 0.1015685 0.1014017 0.1008705 0.09974664 0.0976344 0.09478337 0.09221783 0.09073612 0.09034862
 0.09093039 0.09256479 0.09475488 0.09617503 0.09600404 0.09503249 0.09480824 0.09596157 0.09780737 0.09934629
 0.1002363 0.1008499 0.1016899 0.1028204 0.1037204 0.1036675 0.1024747 0.1009512 0.1003657 0.1012202
 0.1027634 0.1039176 0.1044119 0.1047501 0.1053179 0.1058212 0.1055414 0.1041022 0.1021175 0.1009809
 0.1017198 0.1039792 0.1062033 0.1068108 0.1053197 0.1026107 0.1001881 0.09909844 0.09951918 0.1011845
 0.103758 0.1066761 0.1090612 0.1101658 0.1098876 0.1087487 0.1073285 0.1057243 0.1037538 0.10179
 0.1009895 0.1022131 0.1049215 0.1076015 0.1091632 0.10955 0.1091289 0.1079548 0.1058598 0.1032054
 0.1012238 0.1011099 0.102663 0.1043294 0.1048518 0.1044466 0.1041048 0.1042359 0.1044393 0.1043288
 0.1041072 0.1042742 0.1049869 0.1058613 0.1063804 0.106372 0.1060477 0.1057006 0.1054276 0.1050744
 0.1044752 0.1038245 0.1036639 0.1043127 0.1054372 0.1063858 0.1068316 0.1069029 0.1067882 0.1064193
 0.1055927 0.1043714 0.1032795 0.102932 0.1034371 0.1043122 0.1049972 0.1052731 0.1052077 0.1049402
 0.1045871 0.1042139 0.1038536 0.1035841 0.1035133 0.1036327 0.1037795 0.1037983 0.1036669 0.1034357
 0.1031255 0.1027314 0.1022874 0.101887 0.1016257 0.1015233 0.1015189 0.1015352 0.1015133 0.1013991
 0.1011597 0.100827 0.1004782 0.1001647 0.09989115 0.09965843 0.09948383 0.09937009 0.09928131 0.0991674
 0.09900529 0.09880492 0.09858136 0.09833843 0.09808077 0.0978269 0.09760462 0.09743419 0.09730848 0.09719378
 0.09706815 0.09694999 0.09686022 0.09676893 0.09662046 0.09640607 0.09617573 0.09598117 0.09583458 0.09571704
 0.09560161 0.0954631 0.09528113 0.09505289 0.09481362 0.09462853 0.0945427 0.09454489 0.09459215 0.09464837
 0.09468512 0.0946776 0.09462519 0.09455428 0.09448407 0.09440772 0.09431466 0.09421594 0.09414272 0.09412415
 0.09416008 0.09421526 0.09424819 0.09424159 0.09420268 0.09415345 0.09412599 0.09413753 0.09415949 0.09414105
 0.09407496 0.09401245 0.09400131 0.09403115 0.09405184 0.09403194 0.09398776 0.09395871 0.09396428 0.09399081
 0.09401554 0.09403264 0.09405404 0.09408903 0.09412354 0.09412409 0.09407169 0.09398904 0.0939201 0.09388614
 0.09387746 0.09388207 0.09390136 0.09393446 0.09396492 0.09397187 0.09395191 0.09392461 0.09391199 0.0939129
 0.09390481 0.09387204 0.09382306 0.09377864 0.09375115 0.09373781 0.09372716 0.0937082 0.09367603 0.09363044
 0.0935723 0.093503 0.09342477 0.09334195 0.09326598 0.09321523 0.09319578 0.09318098 0.0931252 0.09300691
 0.09285131 0.09270535 0.09259514 0.09250983 0.09242216 0.09231792 0.0922052 0.09210001 0.09200997 0.09193213
 0.09186044 0.09179173 0.09173009 0.09168818 0.09167758 0.09169175 0.09170435 0.09169294 0.09166165 0.09163447
 0.09162918 0.09164515 0.09167323 0.09170879 0.09175481 0.09181716 0.09189592 0.0919802 0.09205714 0.09212802
 0.09220824 0.09231065 0.09243751 0.09258673 0.09275254 0.09291908 0.09306864 0.09320252 0.09334262 0.09350696
 0.09369314 0.09389001 0.09409529 0.09431402 0.09454627 0.09478617 0.09503277 0.09529516 0.0955835 0.095897
 0.09622194 0.096542 0.09685206 0.09716381 0.0974962 0.09785833 0.09824092 0.09862527 0.0989994 0.09936564
 0.09973408 0.1001117 0.1004988 0.1008951 0.1013049 0.1017318 0.1021698 0.1026063 0.1030344 0.1034586
 0.1038861 0.1043171 0.1047475 0.1051787 0.1056206 0.1060835 0.1065625 0.1070352 0.1074788 0.1078932
 0.1083007 0.1087251 0.109174 0.109636 0.1100875 0.1105091 0.1109028 0.1112925 0.1116983 0.1121145
 0.1125235 0.1129245 0.1133379 0.1137768 0.1142235 0.1146417 0.1150105 0.1153439 0.1156746 0.1160195
 0.1163654 0.1166905 0.1169926 0.1172892 0.1175954 0.1179104 0.1182291 0.1185539 0.118887 0.1192178
 0.1195306 0.1198235 0.1201091 0.1203957 0.1206766 0.1209384 0.1211753 0.1213972 0.1216244 0.1218711
 0.1221328 0.1223973 0.1226667 0.1229572 0.1232765 0.1236152 0.1239663 0.1243369 0.1247323 0.1251393
 0.1255402 0.1259398 0.1263607 0.126807 0.1272484 0.1276508 0.1280131 0.1283619 0.1287184 0.1290891
 0.1294807 0.1299048 0.130362 0.130833 0.1312905 0.1317163 0.1321144 0.1325098 0.1329265 0.1333595
 0.1337738 0.1341389 0.1344571 0.1347564 0.1350634 0.1353854 0.1357106 0.1360181 0.1362887 0.1365085
 0.1366648 0.1367458 0.1367516 0.1366963 0.1365905 0.1364233 0.1361698 0.1358115 0.1353425 0.1347593
 0.1340554 0.1332323 0.1323168 0.1313732 0.1304974 0.1297938 0.1293457 0.1291981 0.1293535 0.1297708
 0.130366 0.1310244 0.1316251 0.132064 0.132263 0.1321764 0.1317997 0.1311719 0.1303635 0.1294543
 0.1285163 0.127603 0.1267502 0.1259975 0.1254212 0.1251434 0.1253022 0.1260029 0.1272833 0.1290911
 0.131274 0.133604 0.1358486 0.1378535 0.139575 0.1410495 0.1423418 0.1435128 0.1446093 0.1456573
 0.1466599 0.1476079 0.1484949 0.1493219 0.1500887 0.1507866 0.1514003 0.1519143 0.1523201 0.1526258
 0.1528597 0.1530625 0.1532749 0.1535258 0.1538182 0.1541159 0.1543485 0.1544412 0.1543502 0.15408
 0.1536933 0.1533245 0.1531852 0.1535247 0.1545291 0.1562128 0.1583877 0.1607485 0.1630098 0.1649941
 0.166641 0.1679753 0.16907 0.1700073 0.1708482 0.1716268 0.1723621 0.1730677 0.1737516 0.1744169
 0.175067 0.1757076 0.1763447 0.1769809 0.1776126 0.178233 0.1788385 0.1794336 0.1800279 0.1806296
 0.1812381 0.181845 0.1824422 0.1830305 0.1836144 0.1841921 0.1847565 0.1853062 0.1858486 0.1863915
 0.1869387 0.187489 0.1880356 0.1885669 0.1890753 0.1895655 0.1900487 0.19053 0.1910066 0.1914759
 0.1919398 0.1923995 0.1928538 0.1933038 0.1937554 0.1942129 0.1946699 0.1951137 0.1955387 0.1959524
 0.1963678 0.1967909 0.1972187 0.1976464 0.1980735 0.1985048 0.1989456 0.1993963 0.19985 0.2002971
 0.2007341 0.2011666 0.2016035 0.2020483 0.2024982 0.2029489 0.2033991 0.2038484 0.2042958 0.2047415
 0.2051887 0.2056414 0.2060988 0.2065549 0.2070028 0.2074406 0.2078727 0.2083071 0.2087484 0.2091955
 0.2096438 0.2100887 0.2105258 0.2109518 0.211367 0.2117753 0.2121818 0.2125909 0.2130054 0.2134247
 0.2138444 0.2142608 0.2146734 0.215083 0.2154898 0.2158948 0.2162993 0.2167028 0.2171031 0.2174982
 0.2178894 0.2182815 0.2186797 0.2190854 0.2194952 0.2199048 0.2203121 0.2207176 0.2211251 0.2215395
 0.2219627 0.2223916 0.2228221 0.2232514 0.223678 0.2241015 0.2245237 0.2249458 0.2253682 0.225792
 0.2262191 0.2266496 0.2270818 0.2275144 0.2279469 0.2283804 0.228818 0.2292617 0.2297077 0.2301496
 0.2305844 0.2310148 0.2314465 0.2318853 0.2323311 0.2327774 0.2332176 0.2336511 0.2340796 0.2345046
 0.2349299 0.2353602 0.2357958 0.236233 0.2366676 0.2370965 0.2375187 0.2379375 0.2383572 0.2387795
 0.2392048 0.2396335 0.2400644 0.2404954 0.240927 0.2413597 0.2417904 0.2422184 0.2426476 0.2430814
 0.2435188 0.2439573 0.244393 0.244821 0.245241 0.245658 0.2460751 0.2464926 0.2469126 0.2473364
 0.2477615 0.2481872 0.2486166 0.2490499 0.2494849 0.2499231 0.2503672 0.2508159 0.2512678 0.2517234
 0.2521801 0.2526343 0.2530883 0.2535454 0.2540044 0.2544641 0.2549255 0.2553864 0.255843 0.2562976
 0.2567551 0.2572165 0.2576831 0.2581556 0.258628 0.2590934 0.2595544 0.2600167 0.2604808 0.260948
 0.2614217 0.2618988 0.2623739 0.262848 0.2633221 0.263791 0.2642544 0.2647191 0.2651863 0.2656534
 0.2661225 0.2665958 0.26707 0.2675455 0.2680256 0.268506 0.2689816 0.2694575 0.2699379 0.2704182
 0.2708962 0.2713727 0.2718416 0.2723 0.2727571 0.273217 0.273673 0.2741253 0.2745789 0.275021
 0.2754192 0.2757078 0.2757177 0.2750899 0.2732221 0.2692779 0.2623512 0.2518272 0.2377481 0.2209206
 0.2026955 0.1845468 0.1676682 0.1528096 0.1403725 0.130567 0.123518 0.1193615 0.1183259 0.1208456
 0.1277114 0.139609 0.1553972 0.1706045 0.1790837 0.1776575 0.1689937 0.1591844 0.1527788 0.1505334
 0.150929 0.1524492 0.1544871 0.1571834 0.1609047 0.165703 0.1712585 0.1774072 0.1844507 0.1927
 0.2018759 0.2112061 0.2200742 0.2284215 0.2365231 0.2445045 0.2521502 0.2591113 0.2651774 0.2703472
 0.2747549 0.278582 0.2819896 0.2850844 0.2879387 0.2905956 0.2930146 0.2950457 0.2965182 0.2973787
 0.2977517 0.2978795 0.2979893 0.298198 0.2985241 0.2989547 0.2994776 0.3000776 0.3007417 0.3014629
 0.3022271 0.3030112 0.3037973 0.3045738 0.3053261 0.3060435 0.3067257 0.3073746 0.3079917 0.3085835
 0.3091555 0.3097062 0.3102356 0.3107531 0.3112665 0.3117779 0.3122882 0.3127944 0.313284 0.3137471
 0.3141848 0.3146018 0.3150021 0.3153929 0.3157809 0.3161655 0.316544 0.3169177 0.3172874 0.3176532
 0.3180187 0.3183871 0.3187568 0.3191257 0.3194934 0.319856 0.3202093 0.3205567 0.3209047 0.3212536
 0.3216017 0.3219517 0.3223063 0.3226637 0.3230208 0.3233777 0.3237385 0.3241103 0.3244951 0.3248845
 0.3252684 0.3256486 0.3260315 0.3264162 0.326799 0.3271825 0.3275716 0.3279662 0.3283622 0.3287528
 0.3291273 0.3294777 0.3298055 0.3301201 0.3304335 0.3307567 0.3310923 0.3314328 0.3317696 0.3321022
 0.3324355 0.3327737 0.3331182 0.3334644 0.3338078 0.3341548 0.3345199 0.3349056 0.3353001 0.3356962
 0.3360969 0.3365018 0.3369051 0.3373058 0.3377079 0.3381072 0.3384944 0.3388717 0.3392599 0.3396825
 0.3401412 0.3406089 0.3410556 0.341477 0.3418909 0.3423152 0.342759 0.3432152 0.3436498 0.3440233
 0.3443462 0.3446914 0.3451262 0.3456465 0.3461922 0.3467097 0.3471869 0.3476391 0.3480807 0.3485097
 0.3489112 0.3492736 0.3496109 0.3499718 0.3504089 0.3509243 0.3514588 0.3519523 0.3523943 0.352807
 0.353211 0.3536185 0.3540163 0.3543464 0.3545604 0.3547196 0.3549888 0.3554828 0.3561445 0.3568072
 0.3573603 0.3578188 0.3582441 0.3586608 0.3590639 0.3594262 0.3596534 0.3596333 0.3594338 0.3593746
 0.359767 0.3605991 0.3615685 0.3623891 0.3629835 0.363423 0.3638005 0.3641651 0.3644921 0.3646874
 0.364688 0.3646049 0.3647052 0.3651696 0.3658897 0.3665865 0.3671032 0.3674943 0.3678702 0.3682697
 0.3686404 0.3688187 0.3685998 0.3680164 0.3675284 0.3677276 0.3687663 0.3701832 0.3713625 0.372081
 0.3725176 0.3728293 0.3729226 0.3726362 0.3719442 0.3709657 0.3700254 0.3697119 0.3704934 0.3721192
 0.3737188 0.3746747 0.3751566 0.3756818 0.3764391 0.3772086 0.3777235 0.3779112 0.3778432 0.3775751
 0.3771206 0.3766353 0.3765255 0.3771604 0.3784433 0.3798322 0.3808497 0.381461 0.3818571 0.3819039
 0.3809968 0.3787771 0.3760744 0.3747027 0.375851 0.3788334 0.3818318 0.3836943 0.3845701 0.3850609
 0.3854337 0.3855446 0.384826 0.3824734 0.3785385 0.3748894 0.3740831 0.3768495 0.3812739 0.3846498
 0.3855488 0.3841203 0.3814054 0.3788522 0.377802 0.3787605 0.381183 0.3840317 0.3864037 0.3877765
 0.3880366 0.3874266 0.386443 0.3857055 0.3855712 0.3856028 0.3848358 0.3830312 0.3811358 0.379824
 0.3782596 0.3754633 0.3724962 0.3718036 0.374191 0.3776619 0.3797334 0.3799773 0.3795783 0.3789421
 0.3767169 0.3715765 0.3646773 0.3596197 0.3593625 0.3632683 0.3677353 0.369729 0.3691756 0.367941
 0.3672007 0.3661992 0.3633888 0.3586247 0.354008 0.3520029 0.35268 0.3536147 0.3525724 0.3490929
 0.3433281 0.3354415 0.327396 0.3233493 0.325989 0.3331818 0.3398632 0.3424335 0.3399093 0.3323902
 0.3213473 0.3111311 0.3070453 0.3104799 0.3173001 0.3218476 0.321394 0.3162662 0.3075399 0.2965292
 0.2859545 0.2796093 0.2799133 0.2859509 0.2936965 0.2978097 0.2943695 0.2839845 0.2724947 0.2665963
 0.2676331 0.2707738 0.2707381 0.2667667 0.2615465 0.2574976 0.2554078 0.2549543 0.2551037 0.2548904
 0.2541552 0.2522844 0.2468634 0.2363433 0.2241344 0.216842 0.2174543 0.2229044 0.2290546 0.2348821
 0.2402879 0.2431214 0.2414927 0.2375997 0.2363634 0.2401799 0.2466274 0.2515435 0.2532289 0.2531394
 0.2531456 0.2532287 0.2524589 0.2515284 0.2527809 0.2573018 0.2632295 0.2677788 0.2700458 0.2710203
 0.2717162 0.2723218 0.2727103 0.2728496 0.2727713 0.2726005 0.2725442 0.2726552 0.2727915 0.2728893
 0.272885 0.2721114 0.2693519 0.2644113 0.2594668 0.2575762 0.2594701 0.2630834 0.2665311 0.2694698
 0.2705808 0.2665533 0.2563899 0.2452713 0.2410135 0.2465309 0.2575057 0.2672271 0.2718911 0.271092
 0.2655733 0.2568904 0.2490497 0.2478192 0.2562932 0.2716621 0.2877326 0.3001681 0.3081613 0.3120543
 0.3116774 0.3075682 0.3023732 0.2998409 0.3023055 0.3091999 0.3175252 0.3232082 0.3228553 0.3165349
 0.3097024 0.3098782 0.3190991 0.3311482 0.3384108 0.3398955 0.3401256 0.3419914 0.3442525 0.3455167
 0.3470594 0.3505962 0.3553815 0.3587915 0.3586504 0.3541389 0.3457827 0.3360861 0.3291606 0.3275411
 0.3294946 0.3311033 0.3303414 0.3271646 0.3210522 0.3120868 0.3040712 0.3025021 0.3083393 0.3165662
 0.3218929 0.3236647 0.3242901 0.3248326 0.3237337 0.3194181 0.3130708 0.3081173 0.3068263 0.308119
 0.3092475 0.3087332 0.3066319 0.3028584 0.2971319 0.2906824 0.2864058 0.2863856 0.2897781 0.2937267
 0.2960567 0.2966401 0.296541 0.2966527 0.2972136 0.2979899 0.2987262 0.2997716 0.3021281 0.3063167
 0.31136 0.3156187 0.3186416 0.32151 0.3252635 0.3295794 0.3332162 0.3353744 0.3364099 0.3374147
 0.3392487 0.3418336 0.3442239 0.3454282 0.3453619 0.3450318 0.3456262 0.3473871 0.3495184 0.3511441
 0.3520871 0.3527266 0.3534491 0.3543382 0.3551391 0.3554625 0.3552616 0.3551277 0.3558483 0.3576022
 0.3597794 0.3616202 0.3628444 0.363623 0.3641584 0.3644603 0.3644759 0.3642907 0.3641346 0.3642096
 0.3645529 0.3650644 0.365622 0.3661512 0.3666306 0.3670811 0.3675438 0.3680379 0.3685437 0.3690341
 0.3694932 0.3698918 0.3701836 0.3703551 0.370443 0.3704712 0.3703943 0.3701293 0.369616 0.3688194
 0.3677019 0.3662294 0.3643852 0.3621489 0.3594895 0.356479 0.3534875 0.3512232 0.3504371 0.3514479
 0.3538959 0.3569533 0.3597954 0.3619533 0.3633561 0.3641624 0.3645782 0.3647643 0.3648162 0.3647752
 0.3646553 0.3644723 0.3642513 0.3640115 0.3637606 0.3635067 0.3632622 0.3630294 0.3627886 0.362504
 0.3621395 0.3616731 0.3611032 0.3604434 0.3597112 0.3589125 0.3580329 0.3570449 0.3559374 0.354738
 0.3535026 0.3522776 0.3510665 0.3498277 0.3485031 0.3470421 0.3453854 0.3434484 0.3411893 0.3387181
 0.3362745 0.3340312 0.3319404 0.3298084 0.32749 0.324974 0.3223211 0.3195947 0.3168518 0.3141479
 0.3115191 0.3089623 0.3064394 0.3038985 0.3013006 0.2986338 0.2959025 0.2931123 0.290268 0.2873772
 0.2844309 0.2813668 0.27806 0.274359 0.2701373 0.2653201 0.2598941 0.2539228 0.2475563 0.2410093
 0.2345106 0.2282617 0.2224285 0.2171522 0.2125569 0.2087442 0.2057841 0.2037116 0.2025304 0.2022161
 0.2027167 0.2039536 0.2058201 0.2081776 0.2108566 0.2136698 0.2164302 0.2189746 0.2212076 0.2231494
 0.2249295 0.2267036 0.2285607 0.2305017 0.2324842 0.2344607 0.2363773 0.2381675 0.2397737 0.2411774
 0.2424055 0.243506 0.2445147 0.2454352 0.2462452 0.2469219 0.2474661 0.2479091 0.2483043 0.2487117
 0.249183 0.2497526 0.2504455 0.2512921 0.2523314 0.2536003 0.2551177 0.2568705 0.2588128 0.2608859
 0.2630532 0.2653206 0.2677267 0.2703178 0.2731244 0.2761456 0.2793444 0.2826476 0.285946 0.2891022
 0.2919753 0.2944588 0.296508 0.2981427 0.2994243 0.3004186 0.3011709 0.3017069 0.302048 0.30222
 0.302251 0.3021673 0.3019885 0.3017203 0.3013477 0.3008415 0.3001815 0.2993808 0.2984847 0.2975435
 0.2965931 0.2956519 0.2947193 0.2937737 0.2927872 0.2917488 0.2906684 0.2895653 0.2884621 0.2873803
 0.2863294 0.2852973 0.2842484 0.2831251 0.2818636 0.2804177 0.2787707 0.2769284 0.2749152 0.272773
 0.2705451 0.268258 0.2659248 0.2635595 0.2611767 0.2587768 0.2563338 0.2538064 0.2511799 0.2485
 0.2458522 0.2433044 0.2408824 0.2385879 0.2364124 0.23434 0.2323572 0.2304618 0.2286557 0.226938
 0.2253046 0.2237465 0.2222542 0.2208285 0.2194808 0.2182209 0.2170592 0.2160125 0.2150941 0.2143021
 0.2136253 0.213055 0.212591 0.2122518 0.2120631 0.2120131 0.2120251 0.2119949 0.2118544 0.2116036
 0.2112998 0.2110179 0.2108043 0.21066 0.2105521 0.2104152 0.2101502 0.2096438 0.2087965 0.2075298
 0.2058006 0.2036327 0.2011278 0.1984452 0.1957733 0.1932941 0.191141 0.1893824 0.1880254 0.1870084
 0.1862135 0.1855405 0.1849835 0.1846253 0.1845571 0.1847763 0.185127 0.1853745 0.1854027 0.1853316
 0.1854053 0.1857837 0.1864485 0.1872556 0.1880432 0.1887123 0.1892348 0.1896098 0.1898483 0.1899852
 0.1900529 0.190044 0.1899294 0.1896951 0.1893409 0.1888724 0.1883037 0.1876392 0.1868616 0.1859635
 0.1849624 0.1838697 0.1826823 0.1813981 0.1799957 0.1784375 0.1767724 0.1752155 0.1740734 0.1735799
 0.173774 0.1744783 0.1754188 0.1764046 0.1773588 0.1781927 0.1787999 0.1792472 0.1798608 0.18101
 0.1827879 0.1849054 0.1868927 0.1884017 0.1893188 0.1896563 0.1894633 0.1888244 0.1878018 0.1863776
 0.1845436 0.1823942 0.1800586 0.1776458 0.1752902 0.1731213 0.1711941 0.1695362 0.1681741 0.1671214
 0.1664464 0.1658695 0.1638018 0.1579048 0.1484056 0.140239 0.1393233 0.146181 0.155208 0.1606901
 0.1616546 0.1604983 0.1592074 0.1582066 0.1574224 0.1569304 0.1567901 0.1569045 0.1570598 0.1570238
 0.1566886 0.1560604 0.1550126 0.1530617 0.1493614 0.1430012 0.1336765 0.1223193 0.1109073 0.1014175
 0.09485239 0.09102938 0.08899512 0.08768829 0.08654949 0.08572017 0.08569706 0.08682211 0.0890823 0.09225249
 0.09606456 0.1001941 0.1041993 0.1076463 0.1103429 0.1123612 0.1138211 0.1147564 0.1151851 0.1151782
 0.114825 0.1142019 0.1133754 0.1123738 0.1111688 0.1097357 0.1081477 0.1066049 0.1053505 0.1045146
 0.1040342 0.1037512 0.1035612 0.1034378 0.1033721 0.1033504 0.1033644 0.1034094 0.1034935 0.1036443
 0.1038693 0.1041261 0.1043575 0.1045339 0.1046476 0.1046873 0.1046292 0.1044542 0.1042008 0.1039679
 0.1037807 0.1034703 0.1028032 0.1017713 0.1006892 0.0999807 0.09988074 0.1003042 0.1009416 0.1014847
 0.1018074 0.1019709 0.1020812 0.1021422</values></Ydata></ScSm><ScRf><Ydata ylabel="Single channel"><values byteorder="INTEL" format="FLOAT32" numvalues="1820"> 0.07049398 0.07062985 0.07074885 0.07084867 0.07093616 0.07102539 0.0711305 0.0712568 0.07139804 0.07154041
 0.07167014 0.07178161 0.07187724 0.07196058 0.07203616 0.07211678 0.07221985 0.07235008 0.07249229 0.07262319
 0.07272802 0.07281197 0.07289963 0.07301199 0.07313518 0.07322176 0.07323441 0.07318799 0.07314155 0.07314673
 0.073215 0.07334667 0.07356282 0.07385103 0.07409236 0.07413854 0.07399724 0.07385732 0.07388184 0.07404576
 0.0742114 0.07428081 0.07423537 0.07412259 0.07407458 0.07426773 0.07476404 0.07537927 0.07573979 0.07550034
 0.0745744 0.07325563 0.07214605 0.071842 0.07250416 0.07367837 0.07463614 0.07496277 0.07478133 0.07444011
 0.07414986 0.07397963 0.07401739 0.07435459 0.07493679 0.07550341 0.07568781 0.07525761 0.07437794 0.07358414
 0.07334562 0.07370114 0.07441929 0.07527774 0.07586177 0.07536051 0.07328404 0.07054922 0.06919263 0.07049028
 0.07362317 0.07652907 0.07777961 0.07733475 0.07594658 0.07449598 0.07376008 0.07414588 0.07542458 0.0769597
 0.07821208 0.07888427 0.07878873 0.07793619 0.07670964 0.0757008 0.07538234 0.07597204 0.07734391 0.07889374
 0.07978199 0.07959598 0.07865795 0.07760742 0.07693145 0.07694395 0.07780913 0.07934504 0.08104086 0.08243583
 0.08335897 0.08382578 0.08392403 0.08379687 0.08357318 0.08334874 0.08328304 0.08351782 0.08389907 0.08400914
 0.0836315 0.08304417 0.08273834 0.08291242 0.08330297 0.08350474 0.08337318 0.08294573 0.08202687 0.0802857
 0.07793056 0.07581097 0.074587 0.07426827 0.07475573 0.07611938 0.07794192 0.07912082 0.07897931 0.07817845
 0.07799963 0.07895797 0.08048168 0.08174644 0.08247694 0.08298689 0.08369101 0.08463658 0.08538821 0.08534788
 0.08436339 0.08310778 0.08263312 0.08335359 0.08464316 0.0856068 0.08602259 0.08631232 0.0867978 0.08723378
 0.08702234 0.08585262 0.0842362 0.08332735 0.08397125 0.08586772 0.08772781 0.08824798 0.08703716 0.0848292
 0.08286822 0.08201496 0.08241342 0.08384667 0.08604006 0.08852533 0.09056989 0.09154923 0.09137732 0.09049043
 0.08937313 0.08810614 0.08653629 0.08498041 0.08441289 0.08555232 0.08793522 0.09028495 0.09169163 0.09211773
 0.09187406 0.09099781 0.08933829 0.08720383 0.0856486 0.08568801 0.08714187 0.0886832 0.08924988 0.08903697
 0.08888987 0.0891495 0.08946669 0.08951186 0.08946546 0.08976169 0.09053494 0.09144953 0.09205678 0.09220892
 0.09209134 0.09195833 0.09189197 0.09175688 0.0914121 0.09103271 0.09109236 0.09186348 0.09304726 0.09407198
 0.0946544 0.09491001 0.09500465 0.09487553 0.09434026 0.09345646 0.09269387 0.09260096 0.09327136 0.09427225
 0.09510265 0.09556659 0.09572429 0.09570116 0.09560288 0.09548794 0.09538385 0.09536035 0.09551803 0.09585348
 0.09621915 0.09646977 0.09658042 0.09659333 0.09652532 0.09637344 0.09617615 0.096028 0.09601885 0.09616118
 0.09639134 0.09663485 0.09683964 0.09695931 0.09696406 0.09688159 0.096783 0.09671672 0.09668705 0.09669404
 0.0967547 0.09687256 0.09701297 0.09712704 0.09719229 0.09721813 0.0972188 0.09719876 0.09716487 0.09713845
 0.09714845 0.09721133 0.09731232 0.09741336 0.09749618 0.09758598 0.09770545 0.09782077 0.09787246 0.09785385
 0.09782133 0.09783005 0.09788823 0.09797119 0.09805071 0.09810235 0.09810385 0.098051 0.09798209 0.09796722
 0.09805402 0.09823316 0.09846368 0.09870763 0.09892925 0.09909564 0.09920385 0.09928495 0.0993654 0.09944267
 0.09950599 0.09956452 0.0996481 0.09978434 0.09997199 0.1001765 0.1003576 0.1004968 0.1005986 0.1006857
 0.1007951 0.100945 0.1010993 0.1011985 0.1012378 0.1012803 0.1013786 0.1015119 0.1016181 0.1016682
 0.1016934 0.1017452 0.1018433 0.1019646 0.1020753 0.1021679 0.1022644 0.1023848 0.1025107 0.1025896
 0.1025888 0.1025372 0.1024959 0.102496 0.1025246 0.1025663 0.1026267 0.1027088 0.1027903 0.1028382
 0.102844 0.102833 0.1028356 0.1028527 0.1028567 0.1028257 0.1027675 0.1027092 0.1026722 0.1026586
 0.1026545 0.1026404 0.1026039 0.1025451 0.1024729 0.1023981 0.1023253 0.1022569 0.102206 0.1021961
 0.1022286 0.1022544 0.1022018 0.1020453 0.1018343 0.1016473 0.1015243 0.1014454 0.1013622 0.1012429
 0.1010911 0.1009322 0.1007885 0.1006645 0.1005507 0.1004374 0.1003299 0.1002495 0.1002126 0.1002016
 0.1001685 0.1000787 0.09994644 0.09981711 0.09972215 0.09966043 0.09961404 0.09956791 0.09951979 0.09948263
 0.09947184 0.09948313 0.09949234 0.09948418 0.09947106 0.09947869 0.09952454 0.099611 0.09972186 0.09982188
 0.09987988 0.09990153 0.09992652 0.09998788 0.1000855 0.1002013 0.1003242 0.1004543 0.1005935 0.1007433
 0.1009082 0.1010938 0.1013015 0.1015249 0.101752 0.1019714 0.1021809 0.1023921 0.1026233 0.1028855
 0.1031735 0.10347 0.1037588 0.1040346 0.1043029 0.10457 0.1048381 0.1051107 0.1053977 0.1057089
 0.1060411 0.1063791 0.1067097 0.107031 0.1073481 0.1076658 0.1079865 0.1083138 0.1086571 0.1090255
 0.1094105 0.1097802 0.1101024 0.1103779 0.1106422 0.1109334 0.1112632 0.1116134 0.1119511 0.1122529
 0.1125252 0.1127997 0.1130989 0.1134128 0.113719 0.1140205 0.1143486 0.1147225 0.1151141 0.1154636
 0.1157338 0.1159454 0.1161543 0.1163937 0.116649 0.1168888 0.1171065 0.117321 0.1175455 0.1177763
 0.1180117 0.1182647 0.1185421 0.1188252 0.1190848 0.1193113 0.1195182 0.1197175 0.1199035 0.1200605
 0.1201796 0.1202721 0.1203667 0.1204888 0.1206365 0.1207874 0.1209291 0.1210729 0.1212348 0.1214172
 0.1216167 0.121838 0.1220838 0.1223408 0.1225913 0.1228405 0.123114 0.1234175 0.1237155 0.1239673
 0.1241737 0.1243671 0.1245682 0.1247754 0.124992 0.1252371 0.1255215 0.1258313 0.1261392 0.1264278
 0.1267026 0.1269866 0.1272953 0.1276115 0.1278934 0.1281164 0.1282986 0.1284835 0.1287035 0.1289631
 0.1292451 0.1295273 0.1297934 0.1300333 0.130235 0.130387 0.1304921 0.1305704 0.1306353 0.1306701
 0.130637 0.1305072 0.130274 0.1299368 0.1294855 0.1289112 0.1282333 0.1275144 0.1268488 0.1263328
 0.1260371 0.1259963 0.1262096 0.126642 0.1272238 0.1278605 0.1284545 0.1289214 0.1291921 0.1292168
 0.1289793 0.1285068 0.1278585 0.127101 0.1262896 0.1254632 0.124649 0.1238847 0.1232483 0.1228647
 0.1228683 0.1233507 0.1243293 0.1257361 0.1274183 0.1291687 0.1307973 0.1322033 0.1333867 0.1344015
 0.1353023 0.1361271 0.136902 0.1376442 0.138358 0.1390364 0.1396723 0.1402638 0.1408108 0.1413065
 0.141736 0.1420811 0.1423331 0.1425001 0.1426016 0.1426547 0.142672 0.1426695 0.1426601 0.1426299
 0.1425313 0.1423098 0.1419411 0.1414471 0.1408973 0.1404105 0.1401505 0.1402908 0.1409433 0.1420883
 0.1435671 0.1451546 0.1466558 0.1479553 0.1490111 0.1498348 0.1504755 0.1509968 0.1514505 0.1518654
 0.1522551 0.1526276 0.1529876 0.1533385 0.1536833 0.1540254 0.1543685 0.1547149 0.1550621 0.1554032
 0.1557345 0.1560617 0.156397 0.1567477 0.1571086 0.157466 0.1578129 0.1581559 0.1585038 0.1588522
 0.1591881 0.1595072 0.1598181 0.1601323 0.1604579 0.1607991 0.1611509 0.1614966 0.1618199 0.1621198
 0.1624082 0.1626939 0.1629775 0.1632586 0.1635398 0.1638227 0.1641063 0.1643894 0.1646723 0.1649553
 0.1652346 0.1655027 0.1657551 0.1659974 0.1662421 0.1664978 0.166762 0.1670256 0.1672832 0.1675398
 0.1678051 0.1680828 0.1683637 0.1686334 0.1688844 0.1691214 0.1693564 0.1695998 0.1698551 0.170118
 0.170381 0.17064 0.1708961 0.1711514 0.1714056 0.1716568 0.1719044 0.1721505 0.172398 0.1726474
 0.1728964 0.1731429 0.1733886 0.1736389 0.1738969 0.1741585 0.174414 0.174657 0.1748905 0.1751223
 0.1753568 0.1755934 0.1758302 0.1760667 0.1763047 0.1765471 0.1767951 0.1770459 0.1772948 0.1775395
 0.1777814 0.1780238 0.1782696 0.1785178 0.1787631 0.1790016 0.1792347 0.1794672 0.1797023 0.1799407
 0.180182 0.1804251 0.1806686 0.1809104 0.181149 0.1813844 0.1816193 0.1818558 0.1820927 0.1823289
 0.1825674 0.1828119 0.1830613 0.1833099 0.1835509 0.1837804 0.184002 0.1842243 0.1844531 0.1846872
 0.1849231 0.1851596 0.1853975 0.185638 0.1858809 0.1861244 0.1863662 0.1866069 0.1868478 0.1870879
 0.1873265 0.1875651 0.1878042 0.1880409 0.1882738 0.1885062 0.1887442 0.1889906 0.1892415 0.1894892
 0.1897306 0.1899701 0.1902135 0.1904607 0.1907094 0.1909591 0.191209 0.1914583 0.1917094 0.1919651
 0.1922242 0.1924847 0.1927474 0.1930126 0.1932777 0.1935393 0.1937939 0.1940379 0.1942727 0.1945036
 0.194732 0.1949553 0.1951749 0.1953961 0.1956218 0.1958517 0.1960843 0.1963153 0.1965432 0.1967731
 0.197012 0.1972607 0.1975157 0.197773 0.198028 0.1982789 0.1985299 0.1987847 0.1990401 0.1992928
 0.1995454 0.1998013 0.2000614 0.2003256 0.2005921 0.2008575 0.2011221 0.2013877 0.2016522 0.2019154
 0.2021834 0.202459 0.2027353 0.2030059 0.2032715 0.203534 0.2037959 0.2040625 0.2043358 0.2046116
 0.2048882 0.2051671 0.205445 0.205717 0.2059848 0.20625 0.2065119 0.2067766 0.207053 0.207338
 0.2076218 0.2079017 0.2081778 0.2084477 0.2087151 0.2089873 0.2092624 0.2095352 0.2098078 0.2100813
 0.2103507 0.2106158 0.2108801 0.2111361 0.2113627 0.2115092 0.2114404 0.2108741 0.2093457 0.2062162
 0.2007944 0.1926133 0.1817127 0.1687205 0.1546775 0.1407127 0.127739 0.1163292 0.1067867 0.09926437
 0.09385155 0.09065245 0.08984575 0.09176446 0.09700783 0.1060872 0.1181127 0.1296547 0.1360272 0.1348381
 0.1281595 0.1206481 0.1157551 0.1140352 0.1143203 0.1154537 0.1169737 0.1189902 0.1217866 0.1254046
 0.1296017 0.1342543 0.1395902 0.1458378 0.1527764 0.1598185 0.1665022 0.1727875 0.1788825 0.184881
 0.1906231 0.1958498 0.2004024 0.2042753 0.2075663 0.2104152 0.2129485 0.2152474 0.2173623 0.219321
 0.2210928 0.2225694 0.2236272 0.2242274 0.2244635 0.2245173 0.2245578 0.2246696 0.2248658 0.2251401
 0.2254874 0.2258972 0.2263581 0.2268626 0.2273985 0.2279494 0.2285035 0.2290518 0.2295815 0.230084
 0.2305604 0.2310117 0.2314365 0.2318381 0.2322233 0.2325959 0.23296 0.2333223 0.233685 0.2340457
 0.2344042 0.2347583 0.2350979 0.2354124 0.2357011 0.2359709 0.2362319 0.2364935 0.2367585 0.2370222
 0.2372808 0.2375357 0.2377881 0.2380376 0.2382848 0.2385296 0.2387714 0.2390128 0.2392576 0.2395033
 0.2397451 0.2399842 0.2402251 0.2404685 0.2407128 0.2409564 0.2411973 0.2414346 0.2416711 0.2419094
 0.2421516 0.2424017 0.2426627 0.2429297 0.2431953 0.2434605 0.243731 0.2440073 0.2442857 0.2445631
 0.2448378 0.2451099 0.2453837 0.2456609 0.2459335 0.2461876 0.2464175 0.2466311 0.2468454 0.247074
 0.2473165 0.2475627 0.247807 0.2480519 0.2482998 0.2485495 0.2487987 0.2490451 0.2492896 0.2495415
 0.2498133 0.2501037 0.2503967 0.2506809 0.2509601 0.2512439 0.2515384 0.2518436 0.2521518 0.25245
 0.2527309 0.2530031 0.2532862 0.2535981 0.2539396 0.2542913 0.2546278 0.2549387 0.255233 0.2555279
 0.2558381 0.2561637 0.256478 0.2567472 0.2569759 0.2572197 0.2575343 0.2579212 0.2583325 0.2587195
 0.2590673 0.2593901 0.2597045 0.260011 0.260297 0.2605541 0.260794 0.2610522 0.2613666 0.26174
 0.2621315 0.2624964 0.2628226 0.2631226 0.26341 0.2636936 0.2639641 0.2641815 0.264317 0.2644231
 0.2646234 0.2649971 0.2654919 0.2659777 0.2663756 0.2667058 0.2670205 0.2673354 0.267639 0.2679055
 0.2680655 0.2680396 0.2678826 0.2678356 0.2681293 0.2687504 0.2694699 0.2700771 0.2705196 0.2708532
 0.2711435 0.2714215 0.2716669 0.2718131 0.2718189 0.2717685 0.271858 0.2722183 0.2727675 0.2732988
 0.273696 0.2739986 0.2742869 0.2745894 0.2748692 0.2750062 0.2748477 0.274419 0.2740666 0.2742348
 0.2750351 0.2761163 0.2770135 0.2775627 0.2779039 0.2781579 0.2782517 0.2780615 0.277567 0.2768582
 0.2761783 0.2759679 0.2765775 0.2778202 0.279046 0.279795 0.2801934 0.2806248 0.2812284 0.2818401
 0.2822611 0.2824365 0.2824206 0.2822567 0.2819571 0.281639 0.2816062 0.2821325 0.283142 0.2842269
 0.2850318 0.2855358 0.2858867 0.2859806 0.2853553 0.2837394 0.2817645 0.2808009 0.2817398 0.2840583
 0.2863865 0.2878606 0.2885953 0.2890455 0.2894142 0.2895907 0.2891407 0.2874516 0.2845646 0.2818983
 0.2813889 0.2835845 0.2870323 0.2896857 0.2904679 0.2894949 0.2875574 0.2857532 0.2850961 0.2859639
 0.2879397 0.2902362 0.2921713 0.2933532 0.2936994 0.2933926 0.2928082 0.2924186 0.292494 0.2926959
 0.2922911 0.2911088 0.2898775 0.2891029 0.2881339 0.2862195 0.284178 0.2838887 0.2859716 0.2888953
 0.2907539 0.2912195 0.2912012 0.2910073 0.2895972 0.2859546 0.2809753 0.2774396 0.2776341 0.281067
 0.2849537 0.286952 0.2870162 0.2865984 0.2866044 0.2864333 0.284871 0.2818135 0.2789298 0.2781664
 0.2795624 0.281184 0.2812621 0.2794274 0.2757726 0.2704107 0.2649486 0.2627851 0.2661078 0.2731693
 0.2798334 0.2831443 0.2822465 0.2771514 0.2690466 0.2615831 0.2592332 0.2631626 0.269868 0.2745712
 0.2749875 0.2714161 0.2647869 0.2562561 0.2482255 0.2440497 0.2459008 0.2530212 0.261852 0.2675654
 0.2665386 0.2592669 0.251083 0.248134 0.2516014 0.2569274 0.2591724 0.2576562 0.2549259 0.2532846
 0.2535226 0.2553486 0.2577215 0.2596726 0.261052 0.2611573 0.2573607 0.2480143 0.2367783 0.2306804
 0.2328705 0.2400843 0.2479699 0.2554697 0.2623918 0.2662663 0.264972 0.2609303 0.2595604 0.2634919
 0.2700601 0.2747126 0.275632 0.2744744 0.2733536 0.2723205 0.2704147 0.2683851 0.2687201 0.2725539
 0.2778918 0.2817749 0.2832453 0.2833474 0.2831446 0.2828234 0.2822422 0.2813736 0.2802616 0.2790376
 0.2779118 0.2769434 0.2759951 0.2750048 0.2739141 0.2720687 0.2682699 0.2623298 0.2564039 0.2535071
 0.2543523 0.2568995 0.259289 0.2611867 0.2613419 0.2565856 0.2459736 0.2344896 0.2296155 0.2340999
 0.2437684 0.2522001 0.255801 0.2542505 0.2483275 0.2395449 0.2316561 0.2300052 0.2374136 0.2512176
 0.2656503 0.2767134 0.2837015 0.2869658 0.286366 0.2823997 0.2774915 0.2750401 0.2770815 0.2829467
 0.2897756 0.2938546 0.2922316 0.2851399 0.2776132 0.2764498 0.2834776 0.2931283 0.2985811 0.2989063
 0.2980844 0.2986857 0.2996651 0.2998497 0.300397 0.3028448 0.3065838 0.3093616 0.3093002 0.3056867
 0.2989699 0.2913088 0.2862274 0.2858267 0.2884659 0.2906463 0.2906016 0.2883296 0.2833935 0.2758817
 0.2691652 0.2680905 0.2734737 0.280866 0.2856242 0.2872344 0.2878771 0.2884994 0.2876984 0.2840728
 0.278715 0.2747382 0.2742245 0.2762607 0.2784381 0.2794622 0.2793523 0.2779289 0.2748182 0.2710676
 0.2692951 0.2713578 0.2763576 0.2815107 0.2847047 0.2857884 0.2857608 0.285486 0.2852319 0.2848323
 0.2841107 0.28347 0.2839213 0.2860071 0.2888567 0.2909809 0.2919959 0.2929407 0.29482 0.2973774
 0.2994911 0.3004148 0.3004321 0.3004882 0.3013355 0.3029163 0.3044223 0.3050089 0.3046288 0.3041863
 0.3047233 0.3064241 0.3085439 0.3102627 0.3113721 0.3121566 0.3129237 0.3137404 0.3144021 0.3146029
 0.3143397 0.3141539 0.314728 0.3161787 0.317919 0.3192515 0.3199403 0.3201765 0.3201829 0.3199996
 0.3195929 0.3190349 0.3185135 0.3181911 0.3180907 0.3181179 0.318162 0.3181645 0.3181288 0.3181009
 0.3181331 0.3182424 0.3184088 0.3186103 0.3188345 0.3190524 0.3192215 0.3193322 0.319418 0.3194979
 0.3195342 0.3194601 0.3192218 0.3187777 0.3180817 0.3170922 0.3157853 0.3141377 0.3121223 0.3098016
 0.3074921 0.3058037 0.3053863 0.3065159 0.308876 0.311738 0.3143737 0.3163683 0.3176643 0.3184122
 0.3188009 0.3189699 0.3189979 0.3189193 0.3187445 0.3184817 0.3181505 0.3177809 0.3174056 0.3170519
 0.3167334 0.3164462 0.3161722 0.3158853 0.3155578 0.3151688 0.3147097 0.3141805 0.3135824 0.3129105
 0.3121504 0.3112848 0.3103161 0.3092835 0.3082528 0.3072805 0.3063786 0.3055118 0.3046286 0.3036897
 0.3026513 0.3014473 0.3000526 0.2985825 0.2972655 0.296256 0.2954926 0.2947716 0.2939309 0.2929318
 0.2918031 0.2905756 0.2892748 0.2879287 0.2865574 0.2851568 0.2836996 0.2821527 0.2805004 0.2787511
 0.2769226 0.2750303 0.2730955 0.2711425 0.269162 0.2670726 0.264729 0.2619714 0.25867 0.2547424
 0.2501657 0.2449993 0.239395 0.2335698 0.2277493 0.2221308 0.2168791 0.2121359 0.208019 0.2046189
 0.2019999 0.2002035 0.1992515 0.1991492 0.1998848 0.2014199 0.2036788 0.206546 0.2098727 0.2134818
 0.2171749 0.2207551 0.2240783 0.2271051 0.2298928 0.2325152 0.2349849 0.2372548 0.2392783 0.2410467
 0.2425745 0.2438704 0.2449372 0.2457925 0.2464797 0.2470542 0.2475578 0.2480043 0.2483843 0.2486853
 0.2489092 0.2490778 0.2492231 0.2493757 0.2495578 0.2497816 0.2500503 0.2503646 0.250732 0.2511702
 0.251697 0.2523153 0.2530065 0.2537434 0.2545111 0.2553212 0.2562065 0.2572083 0.2583611 0.2596796
 0.2611544 0.2627528 0.2644159 0.2660533 0.2675535 0.2688163 0.2697841 0.2704501 0.2708403 0.2709877
 0.2709189 0.270661 0.2702459 0.269704 0.2690574 0.2683268 0.2675354 0.266699 0.265816 0.2648764
 0.2638825 0.2628586 0.2618371 0.2608363 0.2598588 0.2589077 0.2579913 0.2571094 0.2562516 0.2554127
 0.254599 0.2538186 0.2530755 0.2523715 0.2517012 0.2510428 0.2503577 0.2495983 0.2487199 0.2476939
 0.2465096 0.2451662 0.243669 0.2420329 0.2402776 0.2384195 0.2364722 0.234448 0.2323541 0.2301901
 0.227949 0.2256217 0.2232173 0.2207876 0.2184205 0.216194 0.2141397 0.212246 0.2104845 0.2088307
 0.2072686 0.2057816 0.2043508 0.2029689 0.2016464 0.2003916 0.1992003 0.1980725 0.1970208 0.1960592
 0.1951992 0.194453 0.1938246 0.1932997 0.1928549 0.1924748 0.1921659 0.1919635 0.1919089 0.1919939
 0.1921402 0.1922483 0.1922617 0.1921882 0.1920803 0.1919957 0.191961 0.1919691 0.1919963 0.1919968
 0.1918859 0.1915583 0.1909228 0.1899124 0.1884925 0.1866858 0.1845813 0.1823162 0.180055 0.1779615
 0.1761575 0.1747027 0.1735987 0.1727888 0.1721758 0.1716862 0.1713219 0.1711425 0.1712085 0.1715148
 0.1719365 0.1722768 0.1724415 0.1725522 0.1728411 0.1734501 0.1743475 0.1753874 0.1764119 0.1773223
 0.1780818 0.1786765 0.1791051 0.1793946 0.1795752 0.1796459 0.1795922 0.1794174 0.1791353 0.1787615
 0.1783156 0.1777988 0.1771849 0.1764602 0.1756408 0.1747325 0.1737248 0.1726156 0.171391 0.1700166
 0.1685352 0.1671541 0.1661756 0.1658348 0.1661755 0.1670273 0.168123 0.1692808 0.1704315 0.171487
 0.1723334 0.1730243 0.1738727 0.1752441 0.1772435 0.1796024 0.181861 0.1836652 0.1848889 0.1855333
 0.1856315 0.1852435 0.1844104 0.1831121 0.1813631 0.1792902 0.1770439 0.1747387 0.1725135 0.1705089
 0.1687861 0.1673599 0.1662304 0.1653914 0.164908 0.1645055 0.1625919 0.1568196 0.1474147 0.1393266
 0.1384907 0.1454348 0.1545466 0.1600994 0.1611171 0.1600069 0.1587709 0.1578415 0.1571415 0.1567401
 0.1566904 0.1568877 0.1571129 0.1571364 0.1568608 0.1563037 0.1553423 0.1534787 0.1498315 0.1434511
 0.134022 0.12251 0.1109516 0.1013673 0.09476748 0.09095408 0.08895579 0.08769758 0.08661141 0.0858388
 0.0858825 0.08708777 0.08944352 0.09273245 0.09669232 0.1009885 0.1051573 0.1087505 0.1115742 0.113705
 0.1152701 0.1163097 0.1168411 0.1169276 0.11665 0.116082 0.1152943 0.1143261 0.1131593 0.1117723
 0.1102349 0.1087463 0.1075551 0.1067986 0.1064165 0.1062455 0.1061714 0.106162 0.1062084 0.1062991
 0.1064303 0.1066041 0.1068316 0.1071308 0.1074903 0.1078482 0.1081358 0.1083285 0.1084378 0.1084673
 0.1083833 0.1081407 0.1077611 0.1073491 0.106953 0.1064301 0.105564 0.1043462 0.1030808 0.1021883
 0.1019154 0.1021921 0.1027118 0.1031563 0.1033884 0.1034639 0.1034863 0.1034586 0.1032691 0.1028169
</values></Ydata></ScRf><Data_Parameters_AB><parameter name="DPF">1</parameter><parameter name="NPT">3497</parameter><parameter name="FXV">3996</parameter><parameter name="LXV">500</parameter><parameter name="CSF">1</parameter><parameter name="MXY">0.0407160259783268</parameter><parameter name="MNY">-0.127688646316528</parameter><parameter name="DAT">18/01/2024</parameter><parameter name="TIM">11:53:48.752 (GMT+1)</parameter><parameter name="DXU">WN</parameter></Data_Parameters_AB><AB__Qtest><MainReport name="Quality Test Report"><Header><Line><Legend>Test result ok/not ok [1/0]: </Legend><Value>0</Value></Line><Line><Legend>Method file: </Legend><Value>C:\Users\Public\Documents\Bruker\OPUS_8.2.28\QT\IRBT_v3_default.QT</Value></Line></Header><Matrix><Line><Legend></Legend><Legend>min</Legend><Legend>max</Legend><Legend>measured</Legend></Line><Line><Value>Absorption (X-Range 1):</Value><Value>0.400000</Value><Value>2.000000</Value><Value>0.168405</Value></Line><Line><Value>Noise (X-Range 4):</Value><Value></Value><Value>0.000300</Value><Value>0.000025</Value></Line><Line><Value>Signal/Noise (X-Range 2):</Value><Value>200.000000</Value><Value></Value><Value>124.351061</Value></Line><Line><Value>Signal/Noise (X-Range 3):</Value><Value>40.000000</Value><Value></Value><Value>94.949368</Value></Line><Line><Value>Water vapour (X-Range 5):</Value><Value></Value><Value>0.000300</Value><Value>0.000024</Value></Line><Line><Value>Signal/Water (X-Range 2):</Value><Value>100.000000</Value><Value></Value><Value>131.698224</Value></Line><Line><Value>Signal/Water (X-Range 3):</Value><Value>20.000000</Value><Value></Value><Value>100.559361</Value></Line><Line><Value>Fringes (X-Range 6):</Value><Value></Value><Value>0.000100</Value><Value>0.000021</Value></Line></Matrix></MainReport></AB__Qtest><Data_Parameters_ScSm><parameter name="DPF">1</parameter><parameter name="NPT">1814</parameter><parameter name="FXV">3996.63438082617</parameter><parameter name="LXV">499.579297603271</parameter><parameter name="CSF">1</parameter><parameter name="MXY">0.388036578893661</parameter><parameter name="MNY">0.0842455998063087</parameter><parameter name="DAT">18/01/2024</parameter><parameter name="TIM">11:53:48.752 (GMT+1)</parameter><parameter name="DXU">WN</parameter></Data_Parameters_ScSm><Data_Parameters_ScRf><parameter name="DPF">1</parameter><parameter name="NPT">1820</parameter><parameter name="FXV">4004.34989121387</parameter><parameter name="LXV">495.721542409425</parameter><parameter name="CSF">1</parameter><parameter name="MXY">0.320182949304581</parameter><parameter name="MNY">0.0691926255822182</parameter><parameter name="DAT">18/01/2024</parameter><parameter name="TIM">11:53:22.578 (GMT+1)</parameter><parameter name="DXU">WN</parameter></Data_Parameters_ScRf><Optic_Parameters_Rf><parameter name="APR">0</parameter><parameter name="APT">Open</parameter><parameter name="BMS">KBr</parameter><parameter name="DTC">RT-DLaTGS_IR-Biotyper [Microplate reader]</parameter><parameter name="HPF">0</parameter><parameter name="LPF">10.0</parameter><parameter name="LPV">4000</parameter><parameter name="PGR">0</parameter><parameter name="RCH">Module port</parameter><parameter name="RDX">0</parameter><parameter name="SRC">MIR</parameter><parameter name="VEL">10.0</parameter><parameter name="SON">Off</parameter></Optic_Parameters_Rf><Acquisition_Parameters_Rf><parameter name="ADT">1</parameter><parameter name="AQM">DD</parameter><parameter name="CFE">0</parameter><parameter name="COR">0</parameter><parameter name="DEL">0</parameter><parameter name="DLY">0</parameter><parameter name="HFW">8000</parameter><parameter name="LFW">0</parameter><parameter name="NSR">32</parameter><parameter name="PLF">AB</parameter><parameter name="RES">6</parameter><parameter name="RGN">-1</parameter><parameter name="STR">0</parameter><parameter name="TCL">MakeCompatibleScalar (0, {WSV=1.000000, ARV=0});</parameter><parameter name="TDL">37</parameter><parameter name="RPO">0</parameter></Acquisition_Parameters_Rf><FT_-_Parameters_Rf><parameter name="APF">B3</parameter><parameter name="HFQ">500</parameter><parameter name="LFQ">4000</parameter><parameter name="NLI">0</parameter><parameter name="PHR">24</parameter><parameter name="PHZ">ML</parameter><parameter name="SPZ">NO</parameter><parameter name="ZFF">1</parameter></FT_-_Parameters_Rf><Optic_Parameters_><parameter name="APR">0</parameter><parameter name="APT">Open</parameter><parameter name="BMS">KBr</parameter><parameter name="CHN">Module port</parameter><parameter name="DTC">RT-DLaTGS_IR-Biotyper [Microplate reader]</parameter><parameter name="HPF">0</parameter><parameter name="LPF">10.0</parameter><parameter name="LPV">4000</parameter><parameter name="PGN">0</parameter><parameter name="RDX">0</parameter><parameter name="SRC">MIR</parameter><parameter name="VEL">10.0</parameter><parameter name="SON">Off</parameter></Optic_Parameters_><FT_-_Parameters_><parameter name="APF">B3</parameter><parameter name="HFQ">500</parameter><parameter name="LFQ">4000</parameter><parameter name="NLI">0</parameter><parameter name="PHR">24</parameter><parameter name="PHZ">ML</parameter><parameter name="SPZ">NO</parameter><parameter name="ZFF">1</parameter></FT_-_Parameters_><Acquisition_Parameters_><parameter name="ADT">1</parameter><parameter name="AQM">DD</parameter><parameter name="CFE">0</parameter><parameter name="COR">0</parameter><parameter name="DEL">0</parameter><parameter name="DLY">0</parameter><parameter name="HFW">8000</parameter><parameter name="LFW">0</parameter><parameter name="NSS">32</parameter><parameter name="PLF">AB</parameter><parameter name="RES">6</parameter><parameter name="SOT">0</parameter><parameter name="TCL">MakeCompatibleScalar (0, {WSV=1.000000, ARV=0});</parameter><parameter name="TDL">37</parameter><parameter name="SPO">0</parameter><parameter name="SGN">-1</parameter></Acquisition_Parameters_><Instrument_Parameters_Rf><parameter name="HFL">15801.365274</parameter><parameter name="LFL">0</parameter><parameter name="LWN">15801.365274</parameter><parameter name="ABP">32157</parameter><parameter name="SSP">1</parameter><parameter name="ARG">2</parameter><parameter name="ASG">2</parameter><parameter name="ASS">32</parameter><parameter name="GFW">16</parameter><parameter name="GBW">16</parameter><parameter name="BFW">0</parameter><parameter name="BBW">0</parameter><parameter name="PKA">9300</parameter><parameter name="PKL">4987</parameter><parameter name="PRA">9269</parameter><parameter name="PRL">5010</parameter><parameter name="P2A">1</parameter><parameter name="P2L">1</parameter><parameter name="P2R">1</parameter><parameter name="P2K">1</parameter><parameter name="DAQ">0</parameter><parameter name="AG2">1</parameter><parameter name="SSM">1</parameter><parameter name="RSN">46632</parameter><parameter name="CRR">0</parameter><parameter name="SRT">1705578802.578</parameter><parameter name="DUR">19.6449890136719</parameter><parameter name="TSC">31.1</parameter><parameter name="MVD">0.262194663286209</parameter><parameter name="AN1">0.226026153452716</parameter><parameter name="AN2">0</parameter><parameter name="VSN">2.485 Apr  4 2017</parameter><parameter name="SRN">0085</parameter><parameter name="CAM">0</parameter><parameter name="INS">IR-Biotyper</parameter><parameter name="FOC">69</parameter><parameter name="RDY">1</parameter><parameter name="ARS">32</parameter></Instrument_Parameters_Rf><Sample_Parameters_><parameter name="BLD"></parameter><parameter name="CNM">Admin</parameter><parameter name="CPY"></parameter><parameter name="DPM"></parameter><parameter name="EXP">IRBT_v3_32Scans.XPM</parameter><parameter name="LCT"></parameter><parameter name="SFM">Microplate, HTS-XT</parameter><parameter name="SNM">240118-1045-Cdiff_SCFA_2_C27_232122548_A9_787a1b4c-bd42-4009-b342-5d16742f1839.0</parameter><parameter name="XPP">C:\Users\Public\Documents\Bruker\OPUS_8.2.28\XPM</parameter><parameter name="IST">OK</parameter><parameter name="CPG">1252</parameter><parameter name="UID">f90eae8a-7b62-4451-aba5-38abf47af1f3</parameter></Sample_Parameters_><Instrument_Parameters_><parameter name="HFL">15801.365274</parameter><parameter name="LFL">0</parameter><parameter name="LWN">15801.365274</parameter><parameter name="ABP">32157</parameter><parameter name="SSP">1</parameter><parameter name="ASG">2</parameter><parameter name="ARG">2</parameter><parameter name="ASS">32</parameter><parameter name="GFW">16</parameter><parameter name="GBW">16</parameter><parameter name="BFW">0</parameter><parameter name="BBW">0</parameter><parameter name="PKA">10858</parameter><parameter name="PKL">4980</parameter><parameter name="PRA">10835</parameter><parameter name="PRL">5002</parameter><parameter name="P2A">1</parameter><parameter name="P2L">1</parameter><parameter name="P2R">1</parameter><parameter name="P2K">1</parameter><parameter name="DAQ">0</parameter><parameter name="AG2">1</parameter><parameter name="SSM">1</parameter><parameter name="RSN">24009</parameter><parameter name="CRR">0</parameter><parameter name="SRT">1705578828.752</parameter><parameter name="DUR">19.64599609375</parameter><parameter name="TSC">31.1</parameter><parameter name="MVD">4.27694940567017</parameter><parameter name="AN1">0.226015657011252</parameter><parameter name="AN2">0</parameter><parameter name="VSN">2.485 Apr  4 2017</parameter><parameter name="SRN">0085</parameter><parameter name="CAM">0</parameter><parameter name="INS">IR-Biotyper</parameter><parameter name="FOC">69</parameter><parameter name="RDY">1</parameter></Instrument_Parameters_><History/></OPUSDataFile>
