<?xml version="1.0" encoding="UTF-8" ?>
<OPUSDataFile><AB><Ydata ylabel="Absorbance Units"><values byteorder="INTEL" format="FLOAT32" numvalues="3497"> -0.07583699 -0.07582011 -0.07581695 -0.07582717 -0.07585125 -0.07588553 -0.07592277 -0.07595932 -0.07598618 -0.07600311
 -0.0760051 -0.07599762 -0.07598226 -0.07596601 -0.07595342 -0.07594564 -0.07594524 -0.07594597 -0.07594708 -0.07594259
 -0.07593086 -0.07591451 -0.07589327 -0.07587691 -0.0758659 -0.07586752 -0.07588121 -0.07590433 -0.07593497 -0.07596187
 -0.07598373 -0.07598961 -0.0759813 -0.07595632 -0.07591964 -0.07587743 -0.07583401 -0.07579698 -0.07576603 -0.07574376
 -0.07572729 -0.07571526 -0.07570773 -0.07570389 -0.07570669 -0.0757172 -0.07573436 -0.07575888 -0.0757832 -0.07580685
 -0.07582206 -0.07582846 -0.07582534 -0.0758132 -0.07579769 -0.07577933 -0.07576392 -0.07575107 -0.0757427 -0.07573804
 -0.07573613 -0.07573696 -0.07574001 -0.07574579 -0.0757548 -0.07576706 -0.07578306 -0.07580163 -0.07582251 -0.075844
 -0.07586578 -0.07588535 -0.07590247 -0.07591322 -0.07591689 -0.07591149 -0.07589644 -0.07587588 -0.07585003 -0.07582658
 -0.07580553 -0.0757896 -0.07577807 -0.0757679 -0.0757594 -0.07575171 -0.07574612 -0.07574562 -0.07574975 -0.07576013
 -0.07577323 -0.07578576 -0.07579531 -0.07579818 -0.0757961 -0.07578869 -0.07577896 -0.07576837 -0.07575656 -0.07574397
 -0.0757283 -0.07570904 -0.07568637 -0.07565998 -0.07563425 -0.0756094 -0.07559067 -0.07557799 -0.07557209 -0.07557219
 -0.07557424 -0.07557766 -0.0755779 -0.07557585 -0.07557109 -0.07556532 -0.07556115 -0.07555964 -0.07556322 -0.07557166
 -0.07558599 -0.07560419 -0.07562617 -0.07564768 -0.07566725 -0.07568172 -0.07568944 -0.07569215 -0.07568967 -0.07568575
 -0.07568093 -0.07567485 -0.07566756 -0.07565724 -0.07564426 -0.07563268 -0.07562331 -0.07562406 -0.07563324 -0.07565062
 -0.07567082 -0.07568051 -0.07567716 -0.07564747 -0.07560003 -0.0755382 -0.07547343 -0.07541686 -0.07537218 -0.07534537
 -0.07533298 -0.07533564 -0.07534721 -0.07536653 -0.0753879 -0.07541028 -0.07542985 -0.07544606 -0.07545724 -0.07546325
 -0.07546432 -0.07546055 -0.07545322 -0.07544231 -0.07542814 -0.07541066 -0.0753895 -0.07536533 -0.07533905 -0.07531257
 -0.07528926 -0.07527113 -0.07526255 -0.07526228 -0.07527222 -0.07528587 -0.07530088 -0.07530991 -0.07530878 -0.0752971
 -0.07527278 -0.07524331 -0.07520929 -0.07517904 -0.07515372 -0.07513529 -0.07512396 -0.0751163 -0.07511219 -0.07510904
 -0.07510705 -0.07510654 -0.07510699 -0.07510699 -0.07510488 -0.07509513 -0.07507828 -0.07505148 -0.07501911 -0.07498535
 -0.07495329 -0.07492804 -0.0749072 -0.07489134 -0.07487603 -0.07485887 -0.07484048 -0.07481983 -0.07480212 -0.07478835
 -0.07478008 -0.07477804 -0.07477684 -0.0747762 -0.07477058 -0.07476012 -0.07474711 -0.07473239 -0.07472336 -0.07471953
 -0.07472347 -0.07473265 -0.0747418 -0.07474922 -0.0747487 -0.07474215 -0.07472903 -0.07471249 -0.07469554 -0.07467838
 -0.07466271 -0.07464539 -0.07462535 -0.07460106 -0.07457113 -0.07453897 -0.07450429 -0.07447481 -0.07445132 -0.07443946
 -0.07443975 -0.0744492 -0.07446732 -0.07448444 -0.07450046 -0.07450981 -0.07451358 -0.07451377 -0.07451002 -0.07450294
 -0.07449044 -0.07446771 -0.07443667 -0.07439627 -0.07435299 -0.0743124 -0.07427783 -0.07425435 -0.0742374 -0.07422731
 -0.07421573 -0.07420002 -0.07417668 -0.07414374 -0.07410629 -0.07406436 -0.07402582 -0.07399125 -0.07396356 -0.07394261
 -0.07392485 -0.07390988 -0.07389295 -0.07387443 -0.0738533 -0.07383037 -0.07380726 -0.07378457 -0.07376393 -0.07374597
 -0.07373234 -0.07372265 -0.07371803 -0.07371502 -0.07371236 -0.0737055 -0.07369176 -0.07367063 -0.07364117 -0.07360521
 -0.07356314 -0.073515 -0.07346082 -0.07340061 -0.07333428 -0.07326616 -0.07319658 -0.07313183 -0.07307183 -0.07301903
 -0.07297252 -0.07293005 -0.07289031 -0.07284884 -0.07280453 -0.07275315 -0.07269446 -0.07262589 -0.07254937 -0.07246484
 -0.07237685 -0.07228755 -0.07220249 -0.07212485 -0.07205659 -0.07200018 -0.07194964 -0.07190506 -0.07185569 -0.07180007
 -0.07173274 -0.07165302 -0.0715643 -0.0714668 -0.07136524 -0.07125954 -0.07115097 -0.07103924 -0.07092389 -0.07080475
 -0.07068095 -0.07055276 -0.07041983 -0.07028376 -0.07014626 -0.07000945 -0.0698761 -0.06974682 -0.06962314 -0.06950385
 -0.06938897 -0.06927665 -0.06916698 -0.06905549 -0.0689419 -0.06881916 -0.06868615 -0.06854039 -0.06838139 -0.06821533
 -0.06804256 -0.0678703 -0.06769835 -0.06752817 -0.06735925 -0.0671899 -0.06702058 -0.06685159 -0.06668383 -0.06651958
 -0.06635839 -0.06620163 -0.06604553 -0.06588755 -0.06572299 -0.06554696 -0.0653608 -0.06516212 -0.06496041 -0.06475828
 -0.06456143 -0.06437255 -0.06418712 -0.06400532 -0.06381904 -0.06362759 -0.06342828 -0.06322113 -0.06300948 -0.06279367
 -0.06257815 -0.06236273 -0.06214904 -0.06193646 -0.06172395 -0.06151123 -0.06129703 -0.06108187 -0.06086595 -0.06064978
 -0.06043387 -0.06021866 -0.06000429 -0.05979199 -0.05958239 -0.05937619 -0.05917454 -0.05897375 -0.05877379 -0.0585683
 -0.05835618 -0.0581357 -0.05790638 -0.05767387 -0.05743847 -0.05720641 -0.05697742 -0.05675188 -0.0565288 -0.05630356
 -0.05607587 -0.05584205 -0.05560353 -0.05536124 -0.05511714 -0.05487474 -0.05463429 -0.05439753 -0.05416344 -0.05393157
 -0.05370213 -0.0534749 -0.05325111 -0.05303175 -0.05281454 -0.05259988 -0.05238139 -0.05215822 -0.05192619 -0.05168467
 -0.05143619 -0.05118091 -0.0509242 -0.05066611 -0.05040943 -0.05015379 -0.04989883 -0.04964442 -0.04938976 -0.04913532
 -0.04888173 -0.04862919 -0.04837872 -0.048129 -0.04787924 -0.04762792 -0.04737313 -0.0471163 -0.04685685 -0.04659927
 -0.04634513 -0.04609633 -0.04585413 -0.04561573 -0.04538104 -0.04514628 -0.04491108 -0.04467419 -0.04443559 -0.0441967
 -0.0439577 -0.04372079 -0.04348596 -0.04325441 -0.04302584 -0.04279998 -0.0425766 -0.04235498 -0.04213526 -0.04191754
 -0.04170128 -0.04148625 -0.04127108 -0.0410547 -0.04083633 -0.04061499 -0.04039159 -0.0401661 -0.03993998 -0.03971335
 -0.03948852 -0.03926579 -0.03904753 -0.03883412 -0.03862438 -0.03841818 -0.03820852 -0.03799501 -0.03777054 -0.03753618
 -0.03729302 -0.0370437 -0.0367975 -0.03655578 -0.03632693 -0.03610867 -0.03590167 -0.03570226 -0.03550625 -0.03531292
 -0.03511995 -0.03492915 -0.03474138 -0.03455595 -0.03437341 -0.03419007 -0.03400493 -0.03381685 -0.0336252 -0.03343257
 -0.03323918 -0.03304635 -0.03285414 -0.03266186 -0.0324697 -0.03227974 -0.03209235 -0.03191132 -0.03173563 -0.03156435
 -0.03139522 -0.03122227 -0.03104528 -0.03086033 -0.03067077 -0.03047846 -0.03028703 -0.03010035 -0.02991854 -0.02974322
 -0.02957153 -0.0294025 -0.02923546 -0.02906948 -0.02890802 -0.02875147 -0.02860262 -0.02846212 -0.02832535 -0.02819206
 -0.02805313 -0.0279085 -0.02775404 -0.02759099 -0.02742406 -0.02725461 -0.02709013 -0.02693029 -0.02677843 -0.02663253
 -0.02649093 -0.02635159 -0.02621156 -0.02606993 -0.02592475 -0.02577695 -0.02562607 -0.02547467 -0.02532337 -0.02517497
 -0.02503037 -0.02489052 -0.02475603 -0.02462447 -0.02449575 -0.02436678 -0.0242374 -0.0241074 -0.023977 -0.02384898
 -0.02372335 -0.02360194 -0.02348416 -0.02336891 -0.02325562 -0.02314243 -0.02302905 -0.02291429 -0.02279781 -0.02267852
 -0.022557 -0.02243251 -0.02230833 -0.02218546 -0.02206838 -0.02195962 -0.02185888 -0.02176771 -0.02167854 -0.02159068
 -0.02149593 -0.02139291 -0.02128381 -0.02116865 -0.02105848 -0.02095351 -0.02085986 -0.02077603 -0.02069589 -0.02061828
 -0.02053482 -0.0204476 -0.02035711 -0.02026649 -0.02018206 -0.02010324 -0.0200326 -0.01996651 -0.01990296 -0.01983903
 -0.01977227 -0.01970234 -0.01962807 -0.019552 -0.01947404 -0.01939918 -0.01932842 -0.01926394 -0.01920666 -0.01914943
 -0.01909193 -0.01902305 -0.01894287 -0.01885011 -0.01874683 -0.01864525 -0.01854707 -0.01846602 -0.01840008 -0.01835219
 -0.01831754 -0.01828927 -0.01826408 -0.01823469 -0.01820184 -0.01816355 -0.01812175 -0.01807757 -0.01803027 -0.0179799
 -0.01792526 -0.01786523 -0.01780359 -0.0177403 -0.01768225 -0.01763043 -0.01758571 -0.01754829 -0.01751007 -0.01747059
 -0.0174212 -0.01736257 -0.01729428 -0.0172184 -0.01714234 -0.01706795 -0.01700388 -0.01695006 -0.01691131 -0.01688409
 -0.01686757 -0.01685405 -0.01683746 -0.0168106 -0.01676621 -0.01670611 -0.01662712 -0.01654194 -0.01645273 -0.01637197
 -0.01630324 -0.01624582 -0.01620072 -0.01615701 -0.01611406 -0.01606522 -0.01601064 -0.01595327 -0.01589328 -0.01583398
 -0.01577384 -0.01570847 -0.01563655 -0.01555131 -0.01545525 -0.01534802 -0.01523675 -0.01512926 -0.01503307 -0.014958
 -0.01490545 -0.01488117 -0.01487616 -0.01489001 -0.01490737 -0.01492371 -0.01493042 -0.01492378 -0.01491025 -0.0148893
 -0.01487716 -0.01487487 -0.01489343 -0.01493269 -0.01498949 -0.01506235 -0.01513912 -0.01521931 -0.01529368 -0.01536455
 -0.0154327 -0.01550205 -0.01558043 -0.0156693 -0.01577489 -0.01589352 -0.0160252 -0.01616289 -0.01630187 -0.0164394
 -0.01657165 -0.0167047 -0.01683865 -0.01698307 -0.01714032 -0.0173123 -0.01750022 -0.01769605 -0.01789941 -0.01810071
 -0.0182997 -0.01849281 -0.0186804 -0.0188634 -0.01904235 -0.01921974 -0.01939651 -0.01957664 -0.01976049 -0.01995158
 -0.02014706 -0.02034573 -0.02054198 -0.02073003 -0.02090745 -0.02106955 -0.0212215 -0.0213634 -0.02150382 -0.02164563
 -0.02179221 -0.02194555 -0.02210067 -0.02225766 -0.02240727 -0.02254883 -0.02267691 -0.02279165 -0.0228971 -0.02299451
 -0.02309546 -0.02320066 -0.02332016 -0.02345196 -0.02359641 -0.02374951 -0.02390372 -0.0240567 -0.02420135 -0.0243397
 -0.02447065 -0.02459795 -0.02472418 -0.02484997 -0.02497691 -0.02510186 -0.02522422 -0.02534151 -0.02545258 -0.02555998
 -0.02566356 -0.025769 -0.0258767 -0.02599065 -0.02611091 -0.02623696 -0.02636841 -0.02650176 -0.02663703 -0.02677241
 -0.02690831 -0.02704518 -0.02718261 -0.02732051 -0.02745713 -0.02758989 -0.02771827 -0.02784003 -0.02795803 -0.02807285
 -0.02818897 -0.02830887 -0.02843375 -0.02856502 -0.02869993 -0.02883827 -0.02897691 -0.02911519 -0.02925366 -0.02939226
 -0.02953368 -0.02967801 -0.02982647 -0.02997868 -0.03013204 -0.03028609 -0.03043694 -0.03058531 -0.03073079 -0.03087522
 -0.03102218 -0.03117242 -0.03132922 -0.03149041 -0.03165581 -0.03182118 -0.03198384 -0.03214036 -0.032288 -0.03242727
 -0.03255684 -0.03268235 -0.03280444 -0.03292942 -0.03305869 -0.03319126 -0.03332745 -0.0334581 -0.03358285 -0.03369623
 -0.03379947 -0.03390092 -0.03400265 -0.03411973 -0.03425109 -0.03440283 -0.03456949 -0.03474366 -0.03491933 -0.03508434
 -0.03523709 -0.03537022 -0.03548872 -0.03559214 -0.03569067 -0.03578859 -0.03589382 -0.03601106 -0.03613774 -0.03627548
 -0.03641245 -0.03654731 -0.03667118 -0.03678294 -0.03688414 -0.03697491 -0.03706123 -0.03714298 -0.03722129 -0.03729556
 -0.03736305 -0.03742443 -0.03747958 -0.037531 -0.03758345 -0.03763966 -0.037706 -0.03778252 -0.03787277 -0.0379722
 -0.0380797 -0.03818846 -0.03829457 -0.03839563 -0.03848907 -0.03857916 -0.03866623 -0.03875497 -0.03884663 -0.03893866
 -0.03903117 -0.03911707 -0.03919607 -0.03926525 -0.03932504 -0.03937865 -0.03942641 -0.03947179 -0.03951448 -0.03955505
 -0.03959364 -0.03963039 -0.03966663 -0.03970431 -0.03974453 -0.03978944 -0.03983861 -0.03989249 -0.03995008 -0.04001082
 -0.04007472 -0.0401416 -0.04021205 -0.04028613 -0.04036433 -0.04044663 -0.04053409 -0.04062681 -0.04072554 -0.0408303
 -0.04093838 -0.04104936 -0.04115731 -0.04126247 -0.0413623 -0.04145868 -0.04155628 -0.04165662 -0.04176633 -0.04188318
 -0.0420075 -0.04213467 -0.0422597 -0.04238035 -0.04249256 -0.04259877 -0.04269906 -0.04279611 -0.04289111 -0.04298439
 -0.04307592 -0.04316733 -0.04325853 -0.04335374 -0.04345352 -0.04355756 -0.04366575 -0.04376917 -0.04386764 -0.04395486
 -0.0440329 -0.04410921 -0.04418636 -0.0442783 -0.04438268 -0.04450283 -0.0446315 -0.04475863 -0.04488009 -0.04498591
 -0.04508036 -0.04516253 -0.04523986 -0.0453165 -0.04539488 -0.04547749 -0.04556137 -0.04564648 -0.04572896 -0.04580826
 -0.04588155 -0.0459486 -0.04600628 -0.04605443 -0.04609032 -0.04611406 -0.04612558 -0.04612576 -0.04611883 -0.04610644
 -0.04609621 -0.04608935 -0.04609269 -0.04610552 -0.04613065 -0.04616434 -0.04620454 -0.04624531 -0.04628211 -0.04630931
 -0.04632271 -0.04632005 -0.04629915 -0.04626175 -0.0462077 -0.0461397 -0.04605822 -0.04596427 -0.04585803 -0.04573977
 -0.04560954 -0.04546965 -0.04532023 -0.04516394 -0.04500017 -0.04482742 -0.04464392 -0.04444278 -0.04422264 -0.04397591
 -0.04370486 -0.04340868 -0.04309274 -0.04276247 -0.04242235 -0.04207848 -0.04172979 -0.04137821 -0.04101855 -0.04064953
 -0.04026674 -0.03986866 -0.03945412 -0.03902246 -0.03857531 -0.03811245 -0.03763957 -0.03715698 -0.03667624 -0.03619834
 -0.03573886 -0.03529888 -0.0348926 -0.0345207 -0.03419301 -0.03390983 -0.03367714 -0.03349406 -0.03336292 -0.03327963
 -0.03324267 -0.03324187 -0.03327232 -0.03331513 -0.03336217 -0.03338889 -0.03338565 -0.03333264 -0.0332224 -0.03304888
 -0.03280899 -0.03250926 -0.03214958 -0.03174181 -0.0312866 -0.03079836 -0.03027823 -0.02974442 -0.02919869 -0.02866082
 -0.02813221 -0.02762843 -0.02714984 -0.02670512 -0.02629383 -0.02591904 -0.02558033 -0.02527782 -0.02501278 -0.02478506
 -0.02459966 -0.02445744 -0.02436866 -0.02433401 -0.02437486 -0.02449219 -0.02472555 -0.02507923 -0.02559898 -0.02629146
 -0.02716757 -0.02822888 -0.02941712 -0.03072549 -0.0320437 -0.03336471 -0.03458668 -0.03571246 -0.03669539 -0.03754872
 -0.03827977 -0.03890417 -0.03945095 -0.03993201 -0.0403722 -0.04077882 -0.04116565 -0.04153607 -0.04189619 -0.04224437
 -0.04258215 -0.0429037 -0.04320807 -0.0434894 -0.04374617 -0.04397758 -0.04418303 -0.0443672 -0.04453029 -0.04467843
 -0.04481166 -0.04493196 -0.04503829 -0.04512532 -0.04519111 -0.04522483 -0.04522645 -0.04518817 -0.04511648 -0.04501619
 -0.04490102 -0.04478826 -0.04469119 -0.04462842 -0.04460106 -0.04461829 -0.04466506 -0.04474025 -0.04482035 -0.04490021
 -0.04495738 -0.04498773 -0.04497378 -0.04491339 -0.04479358 -0.04461342 -0.04436482 -0.04404832 -0.04366941 -0.04323419
 -0.04278069 -0.04232619 -0.04195438 -0.04168846 -0.04163408 -0.04179536 -0.04224085 -0.04292928 -0.04385139 -0.04492659
 -0.04608994 -0.0472634 -0.04838107 -0.04940877 -0.0503126 -0.05110443 -0.05177845 -0.05236405 -0.05286521 -0.05330528
 -0.05368724 -0.05402541 -0.05432084 -0.05458468 -0.05481753 -0.05502965 -0.05522136 -0.05539974 -0.0555649 -0.05572085
 -0.05586804 -0.05600964 -0.05614622 -0.05628046 -0.05641207 -0.05654213 -0.05666919 -0.0567923 -0.05691041 -0.05702219
 -0.05712862 -0.05722962 -0.05732686 -0.05742103 -0.05751183 -0.05759959 -0.05768185 -0.05775833 -0.05782764 -0.05788958
 -0.05794657 -0.05799884 -0.05805103 -0.05810334 -0.0581595 -0.05821903 -0.05828216 -0.05834789 -0.05841362 -0.05847869
 -0.05854046 -0.05859937 -0.05865477 -0.05870781 -0.05875926 -0.05881016 -0.05886139 -0.05891338 -0.05896654 -0.05902095
 -0.0590768 -0.05913357 -0.05919124 -0.059249 -0.05930673 -0.05936427 -0.05942155 -0.05947951 -0.05953816 -0.05959757
 -0.0596575 -0.05971579 -0.05977223 -0.0598246 -0.0598733 -0.05991822 -0.05996012 -0.06000052 -0.06003974 -0.06007893
 -0.06011782 -0.06015657 -0.06019484 -0.06023268 -0.06026903 -0.06030362 -0.06033498 -0.06036248 -0.06038597 -0.06040503
 -0.06042181 -0.06043646 -0.06045122 -0.06046629 -0.06048175 -0.06049757 -0.06051285 -0.06052758 -0.06054125 -0.06055401
 -0.06056612 -0.06057791 -0.06059035 -0.06060414 -0.0606213 -0.06064167 -0.06066644 -0.06069345 -0.06072134 -0.06074767
 -0.06076997 -0.06078865 -0.06080277 -0.06081535 -0.06082715 -0.0608401 -0.06085499 -0.06087067 -0.06088713 -0.06090266
 -0.06091708 -0.0609309 -0.0609442 -0.06095976 -0.06097766 -0.06100018 -0.0610269 -0.06105731 -0.06109055 -0.06112377
 -0.06115653 -0.06118635 -0.06121391 -0.06123898 -0.06126263 -0.06128597 -0.06130922 -0.06133298 -0.06135677 -0.06138033
 -0.06140398 -0.06142754 -0.06145248 -0.06147905 -0.06150855 -0.0615413 -0.061577 -0.06161568 -0.06165549 -0.06169634
 -0.06173663 -0.06177637 -0.06181507 -0.06185265 -0.06188849 -0.06192237 -0.06195307 -0.0619807 -0.06200448 -0.06202576
 -0.06204585 -0.06206667 -0.06209076 -0.06211868 -0.06215208 -0.06218909 -0.06222951 -0.06227072 -0.06231167 -0.06235167
 -0.06239019 -0.06242844 -0.06246657 -0.06250525 -0.06254464 -0.06258306 -0.0626204 -0.06265432 -0.0626849 -0.06271193
 -0.06273589 -0.062759 -0.06278158 -0.06280602 -0.06283204 -0.06286047 -0.06289032 -0.06292064 -0.0629504 -0.06297803
 -0.06300341 -0.06302546 -0.06304617 -0.06306578 -0.06308758 -0.063113 -0.06314278 -0.06317814 -0.06321403 -0.06325019
 -0.06327983 -0.06330219 -0.06331564 -0.0633202 -0.06332118 -0.06331904 -0.06332073 -0.063326 -0.06333753 -0.06335431
 -0.06337465 -0.06339772 -0.06342086 -0.06344406 -0.06346601 -0.06348737 -0.06350847 -0.06352928 -0.0635503 -0.0635699
 -0.06358757 -0.06360146 -0.06361051 -0.06361541 -0.06361572 -0.06361481 -0.06361303 -0.06361352 -0.06361663 -0.06362322
 -0.06363335 -0.06364696 -0.06366395 -0.06368329 -0.06370455 -0.06372505 -0.06374443 -0.06375976 -0.06377181 -0.06378055
 -0.06378753 -0.06379535 -0.06380437 -0.06381643 -0.06382997 -0.06384446 -0.06385861 -0.06387131 -0.06388313 -0.06389384
 -0.06390494 -0.06391682 -0.06392998 -0.06394476 -0.06395958 -0.06397438 -0.06398736 -0.06399844 -0.06400687 -0.06401278
 -0.0640174 -0.06402086 -0.06402469 -0.06402867 -0.064033 -0.06403717 -0.06403991 -0.06404147 -0.06404132 -0.06404091
 -0.0640415 -0.06404436 -0.06405114 -0.06406136 -0.06407563 -0.06409164 -0.06410889 -0.06412499 -0.06413934 -0.06415033
 -0.06415765 -0.06416022 -0.06415782 -0.06415103 -0.06413987 -0.06412778 -0.06411506 -0.06410659 -0.06410223 -0.06410412
 -0.06411111 -0.06412036 -0.06413083 -0.06413829 -0.06414334 -0.06414475 -0.06414433 -0.06414373 -0.06414396 -0.06414668
 -0.06415093 -0.06415676 -0.06416298 -0.06416912 -0.06417483 -0.06418 -0.06418417 -0.06418732 -0.06418873 -0.06418832
 -0.06418627 -0.06418259 -0.06417859 -0.06417426 -0.06416981 -0.06416499 -0.06415826 -0.06414974 -0.06413873 -0.0641261
 -0.0641135 -0.06410175 -0.06409317 -0.06408732 -0.06408473 -0.0640844 -0.06408554 -0.06408802 -0.06409139 -0.06409625
 -0.06410298 -0.0641108 -0.06411997 -0.06412763 -0.06413338 -0.0641349 -0.06413175 -0.06412466 -0.06411362 -0.06410203
 -0.06409004 -0.06408069 -0.06407394 -0.06407126 -0.06407237 -0.06407724 -0.06408529 -0.06409544 -0.06410669 -0.06411693
 -0.06412558 -0.0641308 -0.0641335 -0.06413332 -0.06413287 -0.06413348 -0.06413691 -0.06414457 -0.06415528 -0.06416941
 -0.06418366 -0.06419756 -0.06420858 -0.06421633 -0.06422038 -0.06422067 -0.06421779 -0.06421182 -0.06420376 -0.0641939
 -0.06418439 -0.06417549 -0.06416952 -0.06416611 -0.0641658 -0.06416728 -0.06416845 -0.06416868 -0.06416606 -0.06416143
 -0.06415469 -0.06414713 -0.06413948 -0.06413229 -0.0641259 -0.06412065 -0.06411663 -0.06411444 -0.06411425 -0.06411597
 -0.06411971 -0.06412385 -0.06412829 -0.06413142 -0.06413321 -0.064133 -0.06413089 -0.06412708 -0.06412173 -0.06411554
 -0.06410862 -0.0641016 -0.06409447 -0.06408744 -0.06408055 -0.06407385 -0.06406755 -0.06406178 -0.06405678 -0.06405295
 -0.06404967 -0.06404698 -0.06404337 -0.06403848 -0.0640311 -0.06402083 -0.06400793 -0.06399222 -0.06397606 -0.06395954
 -0.06394637 -0.06393667 -0.0639328 -0.06393436 -0.06394005 -0.06394903 -0.0639573 -0.06396455 -0.06396785 -0.06396789
 -0.06396444 -0.06395859 -0.06395168 -0.06394424 -0.06393733 -0.06393053 -0.06392395 -0.06391694 -0.06390911 -0.06390055
 -0.06389105 -0.06388161 -0.06387245 -0.06386381 -0.06385594 -0.06384673 -0.06383608 -0.06382103 -0.06380161 -0.0637779
 -0.06375046 -0.06372319 -0.06369648 -0.06367435 -0.06365614 -0.06364236 -0.06363205 -0.06362335 -0.06361652 -0.06361071
 -0.06360754 -0.06360815 -0.06361366 -0.06362534 -0.06364273 -0.06366607 -0.06369421 -0.06372684 -0.06376338 -0.06380387
 -0.06384658 -0.06389157 -0.06393442 -0.06397485 -0.06400859 -0.06403568 -0.06405769 -0.06407532 -0.06409525 -0.06411707
 -0.06414347 -0.06417178 -0.06419627 -0.06421454 -0.06421888 -0.06420989 -0.06418518 -0.06414604 -0.06409267 -0.06402663
 -0.06394739 -0.06386173 -0.06377086 -0.06368595 -0.06361047 -0.06355104 -0.06351016 -0.06348597 -0.06347905 -0.06348158
 -0.06349318 -0.06350374 -0.06351288 -0.06351399 -0.06350754 -0.06349386 -0.0634741 -0.0634532 -0.06343196 -0.06341542
 -0.06340314 -0.06339734 -0.06339543 -0.06339541 -0.06339367 -0.06338613 -0.0633709 -0.06334505 -0.06331015 -0.06326568
 -0.06321529 -0.06315973 -0.06310267 -0.06304481 -0.06298933 -0.06293661 -0.06288959 -0.0628485 -0.06281488 -0.06278867
 -0.06276751 -0.06275086 -0.06273307 -0.06271382 -0.06268846 -0.06265786 -0.06262184 -0.0625818 -0.06254039 -0.06249825
 -0.06245739 -0.06241773 -0.06237979 -0.06234363 -0.0623092 -0.06227729 -0.06224813 -0.06222275 -0.0622016 -0.0621849
 -0.06217309 -0.06216411 -0.06215798 -0.06215097 -0.06214282 -0.0621311 -0.0621158 -0.06209751 -0.06207649 -0.06205522
 -0.06203372 -0.06201353 -0.06199411 -0.06197488 -0.06195506 -0.06193269 -0.0619077 -0.06187867 -0.06184726 -0.06181407
 -0.06178202 -0.06175325 -0.06172935 -0.06171232 -0.06169965 -0.06169166 -0.06168269 -0.06167168 -0.06165432 -0.06162946
 -0.06159911 -0.06156315 -0.06152887 -0.0614966 -0.06147171 -0.06145365 -0.06143994 -0.06142953 -0.06141572 -0.06139884
 -0.06137595 -0.06134889 -0.0613201 -0.06129084 -0.06126425 -0.06123988 -0.06121842 -0.06119918 -0.06118197 -0.06116601
 -0.0611511 -0.0611359 -0.06112009 -0.06110215 -0.06108149 -0.06105882 -0.06103402 -0.06100944 -0.06098531 -0.06096238
 -0.06094066 -0.0609188 -0.06089672 -0.06087285 -0.06084735 -0.06082017 -0.06079157 -0.06076239 -0.06073266 -0.06070274
 -0.06067282 -0.06064305 -0.06061434 -0.0605875 -0.06056359 -0.06054386 -0.06052781 -0.0605161 -0.06050576 -0.06049621
 -0.06048423 -0.06046879 -0.06044949 -0.06042586 -0.06040065 -0.06037403 -0.06034879 -0.06032506 -0.0603038 -0.06028488
 -0.06026744 -0.06025127 -0.06023492 -0.06021815 -0.06019953 -0.0601789 -0.06015508 -0.06012859 -0.06009928 -0.06006889
 -0.06003899 -0.06001128 -0.05998774 -0.05996806 -0.05995307 -0.05994022 -0.05992895 -0.05991682 -0.05990297 -0.0598873
 -0.05986959 -0.05985102 -0.05983169 -0.05981207 -0.05979217 -0.05977169 -0.05975067 -0.05972918 -0.05970732 -0.05968561
 -0.05966411 -0.05964325 -0.05962314 -0.05960417 -0.05958643 -0.05957039 -0.05955555 -0.05954195 -0.05952789 -0.05951226
 -0.0594935 -0.05946992 -0.05944324 -0.05941302 -0.05938398 -0.05935711 -0.05933587 -0.05932129 -0.05931184 -0.05930769
 -0.05930344 -0.05929881 -0.05928997 -0.05927704 -0.05926022 -0.05923996 -0.05921884 -0.05919701 -0.05917637 -0.05915678
 -0.05913885 -0.05912244 -0.05910759 -0.05909417 -0.0590822 -0.05907092 -0.05905994 -0.05904812 -0.05903481 -0.05901925
 -0.05900093 -0.05898005 -0.05895649 -0.05893091 -0.05890328 -0.058875 -0.05884606 -0.05881963 -0.05879587 -0.05877707
 -0.05876304 -0.05875239 -0.05874443 -0.05873452 -0.05872246 -0.05870491 -0.05868269 -0.05865586 -0.05862571 -0.05859423
 -0.05856248 -0.05853219 -0.05850437 -0.05848043 -0.05846044 -0.05844524 -0.05843294 -0.05842342 -0.05841348 -0.05840228
 -0.0583882 -0.05837065 -0.05835099 -0.05832919 -0.05830822 -0.05828823 -0.05827097 -0.05825638 -0.05824418 -0.05823418
 -0.05822527 -0.05821719 -0.05820876 -0.05819933 -0.0581869 -0.05817091 -0.05814919 -0.05812269 -0.05809105 -0.05805713
 -0.05802285 -0.05799066 -0.05796272 -0.05793891 -0.05792011 -0.05790382 -0.05788977 -0.05787503 -0.05785909 -0.0578399
 -0.05781711 -0.05779127 -0.0577624 -0.05773348 -0.05770472 -0.05767955 -0.05765777 -0.05764011 -0.05762602 -0.05761397
 -0.0576034 -0.05759234 -0.0575804 -0.05756601 -0.05754921 -0.05752927 -0.05750683 -0.05748212 -0.05745588 -0.05742875
 -0.05740052 -0.05737104 -0.05734094 -0.05730989 -0.05728098 -0.05725454 -0.05723387 -0.05721952 -0.05721064 -0.05720719
 -0.05720472 -0.05720298 -0.05719788 -0.05718957 -0.05717683 -0.05716025 -0.05714113 -0.05712013 -0.05709955 -0.05707955
 -0.05706171 -0.05704512 -0.05702955 -0.05701365 -0.05699618 -0.05697665 -0.05695412 -0.05692977 -0.05690384 -0.0568774
 -0.05685082 -0.05682461 -0.05679898 -0.0567736 -0.05674848 -0.0567229 -0.05669682 -0.05666947 -0.05664088 -0.05661166
 -0.0565821 -0.05655453 -0.05652906 -0.0565076 -0.05648945 -0.05647408 -0.05646002 -0.05644461 -0.05642664 -0.05640336
 -0.05637512 -0.0563408 -0.05630263 -0.05626113 -0.05621957 -0.05617932 -0.05614263 -0.05611071 -0.05608265 -0.0560588
 -0.05603554 -0.05601261 -0.05598623 -0.05595612 -0.05592228 -0.05588492 -0.05584757 -0.05581045 -0.05577701 -0.05574671
 -0.05571951 -0.05569438 -0.05566857 -0.05564182 -0.05561217 -0.0555804 -0.05554653 -0.05551175 -0.05547715 -0.05544321
 -0.05541056 -0.05537915 -0.05534918 -0.05532033 -0.05529269 -0.05526541 -0.05523846 -0.05521049 -0.05518132 -0.05515024
 -0.05511719 -0.05508319 -0.05504832 -0.05501392 -0.05497998 -0.05494691 -0.05491453 -0.05488243 -0.0548504 -0.05481789
 -0.0547845 -0.05474925 -0.05471203 -0.05467191 -0.05463024 -0.05458754 -0.05454601 -0.05450738 -0.05447204 -0.05444115
 -0.05441186 -0.05438383 -0.0543536 -0.05432024 -0.05428341 -0.05424277 -0.05420091 -0.05415796 -0.05411645 -0.0540764
 -0.05403835 -0.0540021 -0.05396643 -0.05393133 -0.05389603 -0.05386064 -0.05382505 -0.05378949 -0.05375434 -0.05371976
 -0.05368606 -0.05365338 -0.05362221 -0.05359182 -0.05356222 -0.05353165 -0.05349944 -0.05346409 -0.05342472 -0.05338232
 -0.05333675 -0.05329045 -0.05324372 -0.05319795 -0.05315325 -0.05310954 -0.0530668 -0.05302479 -0.05298353 -0.05294308
 -0.05290328 -0.05286364 -0.05282384 -0.05278281 -0.05274028 -0.05269509 -0.05264748 -0.05259694 -0.05254479 -0.05249176
 -0.05243964 -0.05238992 -0.05234298 -0.05229976 -0.05225836 -0.05221853 -0.05217822 -0.05213681 -0.05209447 -0.05205109
 -0.05200794 -0.05196514 -0.05192231 -0.05187938 -0.05183459 -0.05178792 -0.05173846 -0.05168667 -0.05163414 -0.05158138
 -0.05153077 -0.05148217 -0.05143677 -0.05139318 -0.05135014 -0.05130628 -0.05125957 -0.05121039 -0.05115793 -0.05110446
 -0.05105081 -0.05099831 -0.05094782 -0.05089843 -0.05085018 -0.0508017 -0.05075276 -0.05070324 -0.05065312 -0.0506028
 -0.05055226 -0.0505007 -0.05044802 -0.05039281 -0.05033534 -0.05027594 -0.05021502 -0.05015406 -0.05009308 -0.05003285
 -0.04997313 -0.0499137 -0.04985506 -0.04979753 -0.04974175 -0.04968859 -0.0496371 -0.04958735 -0.04953735 -0.04948654
 -0.04943341 -0.04937756 -0.04931837 -0.04925565 -0.04918984 -0.04912087 -0.04905087 -0.04897998 -0.04891113 -0.04884427
 -0.04878022 -0.04871851 -0.04865746 -0.04859681 -0.04853486 -0.04847192 -0.04840796 -0.04834321 -0.04827807 -0.04821245
 -0.04814646 -0.04807972 -0.04801212 -0.04794292 -0.04787184 -0.04779815 -0.04772132 -0.04764227 -0.04756091 -0.04747934
 -0.04739787 -0.0473174 -0.04723807 -0.04715871 -0.04707926 -0.04699844 -0.0469163 -0.04683282 -0.04674791 -0.04666114
 -0.04657213 -0.04647928 -0.04638276 -0.04628171 -0.04617751 -0.04607177 -0.04596558 -0.04586102 -0.04575726 -0.04565465
 -0.0455514 -0.04544649 -0.04533985 -0.04523091 -0.04512147 -0.04501165 -0.04490387 -0.04479862 -0.04469612 -0.04459657
 -0.04449692 -0.04439695 -0.04429112 -0.04417941 -0.04405903 -0.04393099 -0.04379868 -0.04366297 -0.04352894 -0.04339517
 -0.04326164 -0.04312545 -0.04298235 -0.04283051 -0.04266595 -0.04248984 -0.0423011 -0.04210353 -0.04189861 -0.04168916
 -0.04147714 -0.04126035 -0.0410394 -0.04080739 -0.04056329 -0.0403036 -0.0400276 -0.03974106 -0.03944432 -0.03914587
 -0.0388458 -0.03854793 -0.0382525 -0.0379623 -0.03767846 -0.03740653 -0.03714605 -0.03689975 -0.03666399 -0.03643467
 -0.03620876 -0.0359806 -0.03575208 -0.03552261 -0.0352951 -0.03507186 -0.0348506 -0.03463176 -0.03440979 -0.03418341
 -0.03394987 -0.03370854 -0.033459 -0.0332015 -0.03293045 -0.03264546 -0.03233337 -0.03199405 -0.03161999 -0.03121418
 -0.03078818 -0.03034513 -0.02990275 -0.0294586 -0.0290168 -0.02857194 -0.02811729 -0.02765005 -0.02716511 -0.02666041
 -0.02613483 -0.02558078 -0.02499614 -0.02436832 -0.02369189 -0.02296248 -0.02217555 -0.02134557 -0.02047235 -0.01958154
 -0.01867504 -0.01777594 -0.01688544 -0.01601829 -0.01517405 -0.01435426 -0.01355533 -0.01275978 -0.01196252 -0.01113467
 -0.01028009 -0.009388607 -0.00847747 -0.007570268 -0.006675694 -0.005817028 -0.004980954 -0.004166348 -0.003356224 -0.002539882
 -0.001713836 -0.000873646 -2.38454E-05 0.0008351571 0.001700481 0.002572295 0.003443436 0.004313726 0.005170209 0.006012221
 0.006833664 0.007634128 0.008409047 0.009155024 0.009851442 0.0104936 0.0110537 0.0115317 0.01191316 0.01220176
 0.0123951 0.01250196 0.01252659 0.01248945 0.01240529 0.01229423 0.01217197 0.01204334 0.01191395 0.01178152
 0.0116464 0.01150678 0.01136314 0.01120829 0.0110422 0.01085015 0.01063136 0.01037369 0.01007789 0.00974896
 0.009390521 0.009026057 0.008658235 0.00830932 0.007978288 0.007673163 0.007393393 0.007140057 0.00691704 0.006727803
 0.006579228 0.006477501 0.006427573 0.006433842 0.006497919 0.006621602 0.006804054 0.007046647 0.007341409 0.00768876
 0.008070726 0.008485794 0.008918716 0.009368568 0.009834018 0.01031542 0.01081775 0.01134054 0.01188383 0.01244604
 0.0130217 0.01360949 0.01420359 0.01480338 0.01540524 0.01600921 0.01661414 0.01721982 0.01782591 0.01843164
 0.01903627 0.0196402 0.02024266 0.0208476 0.0214556 0.02207094 0.0226945 0.02332809 0.02397198 0.02462714
 0.02529364 0.02597019 0.02665638 0.02734673 0.02804053 0.02873141 0.02941763 0.03009138 0.0307472 0.03136863
 0.03195015 0.03247372 0.03294073 0.03334731 0.03369149 0.03397588 0.0341808 0.03429959 0.03430529 0.03418764
 0.0339245 0.03351203 0.03291712 0.03213459 0.03113258 0.0299016 0.0284957 0.02691653 0.02532053 0.02371283
 0.02219773 0.0207653 0.01940151 0.01809801 0.01681385 0.01555351 0.01430811 0.01308354 0.01189039 0.01072003
 0.009571388 0.008421145 0.007247891 0.006042168 0.004783005 0.003505311 0.00221425 0.0009535406 -0.0002596939 -0.0014248
 -0.002537185 -0.003616959 -0.004666772 -0.005688145 -0.006681484 -0.007633737 -0.008544661 -0.009409177 -0.01022803 -0.01100456
 -0.01173802 -0.01242707 -0.01307089 -0.01366434 -0.01421281 -0.01472029 -0.01520013 -0.01566888 -0.0161397 -0.01663066
 -0.01714379 -0.01768725 -0.01825186 -0.01883614 -0.01943132 -0.02003498 -0.02064128 -0.02125134 -0.0218438 -0.02241799
 -0.02293869 -0.02340336 -0.02380256 -0.02413758 -0.02443274 -0.02469006 -0.02493613 -0.02516933 -0.02539811 -0.02561827
 -0.02582325 -0.02601 -0.02617004 -0.02630227 -0.02640225 -0.02646908 -0.02650075 -0.02649625 -0.02645466 -0.02637462
 -0.02625569 -0.02609586 -0.02589502 -0.02564927 -0.02535867 -0.02501533 -0.02461907 -0.02415614 -0.02362564 -0.02301603
 -0.02232828 -0.02157848 -0.02077431 -0.01997793 -0.01919824 -0.01850808 -0.01790399 -0.01741679 -0.01703209 -0.01673923
 -0.01652271 -0.01635995 -0.01623689 -0.01613564 -0.01604174 -0.01594304 -0.01582648 -0.01568243 -0.01551043 -0.01530589
 -0.01508497 -0.01485003 -0.01461298 -0.0143767 -0.01413397 -0.01388463 -0.01361594 -0.01332784 -0.01302085 -0.01269683
 -0.01237051 -0.01204276 -0.01172645 -0.0114183 -0.01111709 -0.0108168 -0.01050607 -0.01017963 -0.009826039 -0.009442735
 -0.00902414 -0.008567587 -0.008070686 -0.007529273 -0.006940143 -0.00630458 -0.005619889 -0.004900311 -0.004146531 -0.003379943
 -0.002603185 -0.001830111 -0.001061975 -0.0003029213 0.0004465799 0.001178659 0.001890783 0.002560169 0.003182876 0.003729928
 0.004198668 0.004567654 0.004834334 0.004985118 0.005015656 0.004914118 0.004679771 0.004304685 0.003800018 0.00316621
 0.002427713 0.001591969 0.0006887575 -0.0002732601 -0.001268143 -0.002290288 -0.003319673 -0.00435417 -0.005372195 -0.006372492
 -0.007327311 -0.008235329 -0.009073397 -0.009842169 -0.01053607 -0.01115789 -0.01171689 -0.01221558 -0.01266557 -0.01306871
 -0.01343303 -0.01376194 -0.01406183 -0.01433924 -0.01460108 -0.01485618 -0.01511141 -0.01537484 -0.01565195 -0.01594578
 -0.01625976 -0.01658765 -0.01692997 -0.01727361 -0.01761716 -0.01794989 -0.01827074 -0.01857734 -0.0188696 -0.01914731
 -0.0194096 -0.01964913 -0.01986406 -0.02004127 -0.02018116 -0.02027654 -0.02033255 -0.02035473 -0.02035088 -0.02033381
 -0.02030963 -0.02028924 -0.02027405 -0.02026865 -0.02027074 -0.02028007 -0.02029566 -0.02031625 -0.02034592 -0.02038479
 -0.02043936 -0.02051053 -0.02060207 -0.02071447 -0.0208469 -0.02099923 -0.02116722 -0.02135035 -0.02154256 -0.02174308
 -0.02194547 -0.02214845 -0.02234538 -0.02253438 -0.02270885 -0.02286673 -0.02300211 -0.02311458 -0.02320098 -0.02326375
 -0.02330282 -0.02332307 -0.02332616 -0.02331779 -0.02329984 -0.02327703 -0.02325069 -0.0232233 -0.02319544 -0.02316739
 -0.02313922 -0.02311099 -0.02308271 -0.02305504 -0.02302806 -0.02300273 -0.02297919 -0.02295846 -0.02294074 -0.02292737
 -0.02291818 -0.02291371 -0.02291315 -0.02291555 -0.02292029 -0.02292611 -0.02293369 -0.022943 -0.02295522 -0.02297108
 -0.02299066 -0.02301451 -0.02304064 -0.02306904 -0.02309619 -0.02312179 -0.02314163 -0.02315539 -0.02315915 -0.02315273
 -0.02313431 -0.02310415 -0.02306379 -0.02301385 -0.02295842 -0.02289777 -0.02283526 -0.02276992 -0.02270168 -0.02262869
 -0.022548 -0.02245884 -0.02235881 -0.02224932 -0.02213038 -0.02200419 -0.02187184 -0.02173466 -0.02159328 -0.02144834
 -0.02129989 -0.02114931 -0.02099674 -0.02084371 -0.02069034 -0.02053773 -0.02038597 -0.02023676 -0.02009039 -0.01995017
 -0.01981634 -0.01969194 -0.01957675 -0.01947165 -0.01937645 -0.01929089 -0.0192157 -0.01915164 -0.01909995 -0.01906231
 -0.01903916 -0.0190317 -0.01903856 -0.01905956 -0.01909275 -0.01913739 -0.01919241 -0.01925743 -0.01933223 -0.0194169
 -0.01951008 -0.01961181 -0.01971838 -0.01982956 -0.0199405 -0.02005112 -0.02015871 -0.02026363 -0.02036638 -0.02046758
 -0.02056967 -0.02067284 -0.02077898 -0.02088737 -0.02099809 -0.02110946 -0.02122003 -0.02132763 -0.02143041 -0.02152634
 -0.02161383 -0.02169226 -0.0217608 -0.02182063 -0.02187163 -0.02191633 -0.02195503 -0.02199012 -0.0220219 -0.02205085
 -0.02207698 -0.02209864 -0.02211573 -0.02212681 -0.02213192 -0.02213082 -0.02212343 -0.02210971 -0.02208871 -0.0220585
 -0.02201766 -0.02196288 -0.02189375 -0.02180807 -0.02170732 -0.02159167 -0.02146329 -0.02132384 -0.02117292 -0.02101175
 -0.02083509 -0.02064255 -0.02042654 -0.02018571 -0.01991595 -0.01961637 -0.0192904 -0.0189382 -0.01856915 -0.01818388
 -0.01779278 -0.01739626 -0.01700202 -0.0166099 -0.01622366 -0.01584215 -0.01546486 -0.01509002 -0.01471443 -0.01433732
 -0.01395585 -0.0135721 -0.01318605 -0.01280199 -0.01242185 -0.01204988 -0.01168808 -0.0113387 -0.01100277 -0.01068061
 -0.01037241 -0.01007823 -0.009798087 -0.009532345 -0.009281033 -0.009043174 -0.008818406 -0.008602021 -0.008392911 -0.008182221
 -0.007968701 -0.007743111 -0.007505022 -0.007248442 -0.006974521 -0.006682127 -0.006373497 -0.006050331 -0.005715648 -0.005371932
 -0.005022612 -0.004669753 -0.004317014 -0.003965985 -0.003619708 -0.003279197 -0.002946322 -0.002621579 -0.002305586 -0.001998478
 -0.0017002 -0.001410759 -0.001129545 -0.0008564379 -0.0005896266 -0.0003288622 -7.152464E-05 0.0001822635 0.000433796 0.0006820327
 0.0009254189 0.001162241 0.001388854 0.001604318 0.001805661 0.001993974 0.002168546 0.002332598 0.002487375 0.002636491
 0.002781726 0.002924638 0.003066083 0.003205855 0.003343741 0.003481512 0.003618912 0.003762702 0.003913226 0.004079685
 0.004262349 0.004466807 0.004692374 0.004937915 0.00520168 0.005477197 0.005761622 0.006045653 0.006324936 0.006588767
 0.006831747 0.007043567 0.007220112 0.007354081 0.007445463 0.007491341 0.0074963 0.007460362 0.007391924 0.007292097
 0.007172344 0.007033969 0.006890466 0.006743143 0.006604156 0.006474352 0.006360505 0.006262654 0.00618176 0.006117376
 0.006067154 0.006030568 0.00600459 0.00598848 0.005979257 0.00597543 0.005973665 0.005971218 0.005964482 0.005948408
 0.005918813 0.00586822 0.005791776 0.005682631 0.005536222 0.005352013 0.005127465 0.004871483 0.004584124 0.004280327
 0.003961486 0.003640765 0.003319132 0.003003254 0.002693231 0.002390243 0.002094312 0.00180599 0.001525914 0.00125686
 0.0009996542 0.0007580132 0.0005320324 0.0003241134 0.0001325781 -4.279406E-05 -0.0002062698 -0.0003601601 -0.0005122845 -0.000666527
 -0.0008330657 -0.001016458 -0.001224916 -0.001462187 -0.00172948 -0.002028267 -0.002353476 -0.002704924 -0.003076184 -0.003466854
 -0.003871318 -0.004289242 -0.004714711 -0.005147344 -0.005581307 -0.006016799 -0.006451475 -0.006885872 -0.007320521 -0.007755104
 -0.008189765 -0.008622778 -0.009052227 -0.00947612 -0.009892102 -0.01029877 -0.01069437 -0.01107921 -0.0114526 -0.01181682
 -0.01217217 -0.0125215 -0.01286572 -0.01320446 -0.01353806 -0.01386305 -0.01417924 -0.01448332 -0.01477521 -0.01505393
 -0.01531937 -0.01557057 -0.01580688 -0.01602524 -0.01622488 -0.01640185 -0.01655653 -0.0166871 -0.01679613 -0.01688551
 -0.01695959 -0.01702256 -0.01707852 -0.01713122 -0.01718288 -0.01723514 -0.01728962 -0.01734685 -0.01740896 -0.01747654
 -0.01755033 -0.01763081 -0.0177147 -0.01780188 -0.01788718 -0.01797041 -0.01804872 -0.0181222 -0.0181904 -0.01825313
 -0.01830936 -0.01835842 -0.01839774 -0.01842705 -0.0184442 -0.01845017 -0.01844519 -0.01843087 -0.01840903 -0.01837996
 -0.01834477 -0.01830189 -0.01825103 -0.01819037 -0.01811879 -0.01803779 -0.01794694 -0.01785129 -0.01775125 -0.01765206
 -0.01755423 -0.01745891 -0.01736608 -0.01727342 -0.01718119 -0.01708991 -0.01700123 -0.01692275 -0.01685631 -0.01681206
 -0.01678865 -0.01678966 -0.01680931 -0.01684193 -0.01688079 -0.01691732 -0.01694814 -0.01696797 -0.01697787 -0.01697661
 -0.01696759 -0.01695154 -0.0169314 -0.01690845 -0.01688085 -0.01684915 -0.01680519 -0.01674847 -0.01667063 -0.01657149
 -0.01645164 -0.0163122 -0.01616339 -0.01600619 -0.01585098 -0.01569709 -0.01554801 -0.01540239 -0.0152589 -0.0151172
 -0.01497598 -0.01483594 -0.0146971 -0.01456077 -0.01442764 -0.01429926 -0.01417672 -0.01405996 -0.01394982 -0.01384283
 -0.0137387 -0.01363294 -0.01352465 -0.01341352 -0.01329922 -0.0131873 -0.01307809 -0.01297859 -0.01288863 -0.01280995
 -0.01274113 -0.01267633 -0.0126141 -0.0125464 -0.01247399 -0.01239398 -0.01230912 -0.01222229 -0.01213499 -0.01205056
 -0.01196705 -0.01188425 -0.01179999 -0.01171271 -0.01162307 -0.01153076 -0.01143756 -0.01134399 -0.01125003 -0.01115581
 -0.01106057 -0.01096423 -0.01086731 -0.01076985 -0.0106724 -0.01057494 -0.01047741 -0.01037981 -0.01028232 -0.01018482
 -0.01008736 -0.009988987 -0.00988746 -0.00978256 -0.009671825 -0.009558846 -0.00944546 -0.009337449 -0.009240346 -0.0091545
 -0.009083504 -0.009018265 -0.008957217 -0.008890244 -0.00881387 -0.008728077 -0.008631716 -0.008532446 -0.00843088 -0.008331286
 -0.008233813 -0.008136198 -0.008038458 -0.007939621 -0.007840584 -0.007745871 -0.007655633 -0.007573415 -0.007497251 -0.007424769
 -0.007353867 -0.007279709 -0.007203071 -0.007122359 -0.007040661 -0.006959867 -0.006881664 -0.006808119 -0.006736946 -0.006668295
 -0.00659785 -0.006524415 -0.00644661 -0.006363628 -0.006279001 -0.006192912 -0.006109198 -0.006028017 -0.005948631 -0.005870715
 -0.005790299 -0.005707357 -0.00561956 -0.00552747 -0.00543192 -0.005332941 -0.005231074 -0.005125982 -0.005016951 -0.004904951
 -0.004789934 -0.004675289 -0.004563014 -0.00445707 -0.004360369 -0.004273583 -0.004198786 -0.004130066 -0.004067477 -0.004000158
 -0.003926538 -0.003838813 -0.003735663 -0.003620299 -0.00349292 -0.00336631 -0.003241164 -0.003129699 -0.003031567 -0.002951461
 -0.002888069 -0.002839842 -0.002804982 -0.002779526 -0.002760243 -0.002740846 -0.002717879 -0.002684535 -0.002641181 -0.002584697
 -0.002520596 -0.002450783 -0.002379899 -0.002310839 -0.002242184 -0.002174369 -0.002104085 -0.002030491 -0.001954638 -0.001876356
 -0.001799874 -0.001725407 -0.001655148 -0.001588854 -0.001524238 -0.001460713 -0.001393876 -0.001323244 -0.001244779 -0.001158441
 -0.001062193 -0.0009560928 -0.0008394964 -0.0007120798 -0.0005733287 -0.0004227645 -0.0002593552 -8.456512E-05 0.000102234 0.0002955175
 0.0004946644 0.0006902409 0.0008804575 0.001055661 0.001213865 0.001350845 0.001465593 0.001562103 0.001640548 0.001709995
 0.001770854 0.001830609 0.001889298 0.001950715 0.002015126 0.002085454 0.002162064 0.002247917 0.002341544 0.002443017
 0.002547711 0.00265077 0.002747727 0.002832582 0.002906162 0.002966422 0.00301842 0.003063927 0.003105038 0.003143343
 0.003175267 0.003200232 0.003216916 0.003224531 0.003231151 0.00323718 0.003253407 0.003279888 0.003319738 0.003371981
 0.003431971 0.003499363 0.003570063 0.003645223 0.003725406 0.003812191 0.003909358 0.004015358 0.004132336 0.004250959
 0.00436652 0.004465241 0.004536107 0.004578875 0.004583426 0.004586016 0.00458864 0.004649691 0.004783983 0.004992358
 0.005280407 0.005586536 0.005907362 0.006203122 0.006473965 0.006717966 0.006936139 0.007134387 0.007310866 0.007461855
 0.007584691 0.007670131 0.007718673 0.007725719 0.007696132 0.007632481 0.007543033 0.007434346 0.007315331 0.007192629
 0.007071651 0.006956221 0.006847408 0.006745668 0.006653695 0.006571318 0.006505747 0.006457808 0.006431662 0.006427718
 0.006440052 0.006467931 0.006498979 0.006532281 0.006556048 0.006569434 0.006562666 0.006535906 0.006482948 0.006408568
 0.00631598 0.006215559 0.00612075 0.006039893 0.005986738 0.005957609 0.005956934 0.005969639 0.005992357 0.006007304
 0.006008511 0.005987907 0.005940796 0.005881069 0.005808365 0.005751359 0.005711954 0.00570376 0.005726149 0.005766819
 0.005824957 0.005887786 0.005958435 0.006042937 0.006143926 0.006273144 0.00642691 0.006605605 0.006801028 0.007003865
 0.007206156 0.007398111 0.007574861 0.007730036 0.007864848 0.007977226 0.00807398 0.008156265 0.008230772 0.008299258
 0.008362955 0.008422333 0.008475841 0.008523363 0.00856574 0.00860319 0.008639886 0.008676173 0.008716652 0.008761167
 0.008811899 0.008867722 0.00892698 0.008988213 0.009047605 0.009105382 0.009159915 0.009212933 0.009266217 0.009318394
 0.009370326 0.009416312 0.009453799 0.009480497 0.009493717 0.009500911 0.00950254 0.009508122 0.009519423 0.009535647
 0.009557082 0.009573179 0.009583479 0.009579374 0.009561384 0.009529207 0.009484025 0.009430433 0.009369498 0.009305991
 0.009241452 0.009180716 0.009125273 0.00907963 0.00904255 0.00901603 0.008993519 0.008973257 0.008944268 0.008901878
 0.008837475 0.008746137 0.008631127 0.00849029 0.008341218 0.008185353 0.008040216 0.007907489 0.007786377 0.007676269
 0.007561012 0.007440575 0.007306431 0.007161608 0.00701533 0.006869067 0.00673332 0.006603878 0.006477741 0.006350629
 0.006213421 0.006070294 0.005920073 0.005772829 0.005634893 0.005511896 0.005408642 0.005323941 0.00525862 0.005209685
 0.00517669 0.005157569 0.005152185 0.005157862 0.005174604 0.005193564 0.005214601</values></Ydata></AB><ScSm><Ydata ylabel="Single channel"><values byteorder="INTEL" format="FLOAT32" numvalues="1814"> 0.08452872 0.08463497 0.08475998 0.08491039 0.08507781 0.08524399 0.08539262 0.08552133 0.08563857 0.0857483
 0.08584836 0.08594746 0.08606762 0.08622029 0.0863896 0.08654433 0.08666297 0.08675209 0.08684611 0.0869764
 0.08712942 0.08724532 0.08727221 0.08722237 0.08716647 0.08716942 0.08724593 0.08739419 0.08763844 0.0879682
 0.08824933 0.08830959 0.08815488 0.08800158 0.08803685 0.08823021 0.08842245 0.08850254 0.08845094 0.08832289
 0.0882709 0.08849895 0.08907826 0.08979354 0.09020895 0.08992155 0.08883069 0.08728158 0.08598125 0.0856299
 0.0864158 0.08780352 0.08893318 0.08931371 0.08909017 0.08867707 0.08832759 0.08812422 0.08816841 0.08856563
 0.08925159 0.08992052 0.09014183 0.08964205 0.08861455 0.08768707 0.08740885 0.08782369 0.0886612 0.0896646
 0.09034774 0.08975178 0.08729444 0.08405693 0.08244711 0.08397573 0.08767639 0.09111147 0.09259157 0.09206768
 0.09042655 0.08870858 0.08783472 0.08828858 0.08979875 0.09161024 0.09308657 0.09387955 0.09376805 0.09276119
 0.09130919 0.09011288 0.08973289 0.09042701 0.09204596 0.09387559 0.09492296 0.0946985 0.09358235 0.09233218
 0.09152673 0.09153812 0.09255874 0.09437136 0.0963719 0.09801629 0.09910218 0.09964746 0.09975728 0.09960306
 0.09933691 0.09906837 0.09898324 0.09925158 0.09969793 0.09983195 0.09939414 0.09870662 0.09834707 0.09855087
 0.09900753 0.09923668 0.09906666 0.0985449 0.09744681 0.09538534 0.09260366 0.09009983 0.08865238 0.08827433
 0.08884698 0.09044985 0.09259272 0.09397985 0.09381273 0.09286533 0.09264626 0.09376682 0.09555754 0.09704658
 0.0979049 0.09849808 0.09931444 0.1004125 0.1012824 0.1012225 0.1000555 0.09857409 0.09801255 0.09885293
 0.1003565 0.1014723 0.1019411 0.1022588 0.1028043 0.1032912 0.1030178 0.1016181 0.09969231 0.09859844
 0.09933113 0.1015364 0.1036981 0.1042856 0.1028405 0.1002222 0.09788762 0.09684721 0.09727142 0.09890355
 0.1014184 0.1042683 0.1066005 0.1076882 0.1074327 0.1063435 0.1049856 0.1034532 0.1015677 0.09969515
 0.09896477 0.1002121 0.1029036 0.10556 0.1071229 0.1075433 0.107181 0.1060851 0.1040878 0.1015448
 0.09966801 0.09962589 0.1012128 0.1029016 0.1034684 0.103137 0.1028807 0.1030911 0.1033661 0.1033273
 0.1031805 0.1034213 0.1042027 0.1051435 0.1057343 0.1058085 0.1055791 0.105336 0.1051694 0.1049188
 0.1044183 0.103867 0.1038099 0.1045644 0.1057952 0.1068524 0.1074113 0.1075997 0.1076035 0.1073523
 0.1066411 0.105535 0.1045628 0.104342 0.1049782 0.1059836 0.1067954 0.1071955 0.1072535 0.10711
 0.1068813 0.1066328 0.1063975 0.1062559 0.1063197 0.106581 0.106871 0.107028 0.107029 0.1069274
 0.1067461 0.1064804 0.1061656 0.1058982 0.1057749 0.1058151 0.1059565 0.1061198 0.1062431 0.1062694
 0.1061661 0.1059687 0.1057581 0.1055849 0.1054503 0.1053553 0.1053215 0.1053544 0.1054138 0.1054438
 0.10542 0.1053551 0.1052654 0.1051535 0.1050253 0.1049034 0.1048187 0.1047896 0.1048057 0.1048326
 0.1048506 0.1048781 0.1049307 0.1049716 0.1049422 0.104838 0.1047175 0.1046398 0.1046192 0.1046345
 0.1046529 0.1046415 0.1045733 0.1044454 0.1043009 0.104215 0.1042393 0.1043639 0.1045427 0.1047327
 0.1048974 0.1050066 0.1050602 0.1050899 0.1051197 0.1051439 0.1051504 0.1051501 0.1051784 0.1052682
 0.1054178 0.1055846 0.1057214 0.1058112 0.1058646 0.1059066 0.1059712 0.1060758 0.1061871 0.1062483
 0.1062512 0.1062532 0.1063081 0.1064046 0.1064886 0.1065263 0.106535 0.1065554 0.1066083 0.1066815
 0.106754 0.1068219 0.1068978 0.1069889 0.1070748 0.1071141 0.1070853 0.107017 0.1069621 0.1069444
 0.1069499 0.1069652 0.1069979 0.1070536 0.1071129 0.1071451 0.1071382 0.1071098 0.1070858 0.1070702
 0.1070433 0.1069889 0.1069147 0.1068426 0.1067866 0.1067439 0.1067017 0.1066479 0.1065774 0.1064912
 0.1063927 0.1062867 0.1061776 0.1060709 0.1059808 0.1059289 0.1059175 0.1059057 0.1058322 0.1056731
 0.1054675 0.1052794 0.1051423 0.1050433 0.1049483 0.1048358 0.1047084 0.1045827 0.1044728 0.1043826
 0.1043086 0.104246 0.104197 0.104175 0.1041934 0.1042417 0.1042809 0.1042759 0.1042311 0.1041839
 0.1041652 0.104178 0.1042086 0.1042464 0.104292 0.1043544 0.1044386 0.1045316 0.1046093 0.1046638
 0.1047138 0.1047862 0.1048962 0.1050437 0.1052118 0.105368 0.1054877 0.1055814 0.1056861 0.1058262
 0.1059946 0.1061727 0.1063548 0.1065457 0.1067482 0.1069619 0.1071905 0.1074415 0.1077193 0.1080183
 0.1083248 0.1086258 0.1089177 0.1092104 0.1095206 0.1098592 0.1102228 0.1105961 0.1109635 0.111321
 0.1116774 0.112043 0.1124179 0.1127978 0.1131859 0.1135914 0.1140159 0.114448 0.1148757 0.1152955
 0.1157104 0.1161244 0.1165413 0.1169668 0.117408 0.1178679 0.1183366 0.1187904 0.1192088 0.1195958
 0.1199785 0.1203827 0.1208142 0.121257 0.1216852 0.1220791 0.1224425 0.1228006 0.1231746 0.1235592
 0.123938 0.124314 0.124713 0.1251493 0.1255974 0.1260079 0.1263527 0.1266519 0.1269503 0.1272719
 0.1276002 0.1279065 0.1281856 0.1284576 0.1287381 0.1290253 0.1293161 0.1296209 0.1299469 0.1302781
 0.1305873 0.1308644 0.1311228 0.1313773 0.1316255 0.1318523 0.1320481 0.1322223 0.1324005 0.1326028
 0.132824 0.1330439 0.1332565 0.1334775 0.1337221 0.1339891 0.1342743 0.1345826 0.1349163 0.1352616
 0.1356018 0.1359426 0.1363054 0.1366904 0.1370636 0.1373923 0.137682 0.1379621 0.1382475 0.1385348
 0.1388302 0.1391553 0.139521 0.1399109 0.1402935 0.140646 0.140971 0.1412931 0.1416339 0.1419839
 0.1423067 0.1425768 0.142806 0.1430287 0.1432715 0.1435376 0.1438119 0.1440741 0.1443075 0.1444996
 0.1446354 0.1447003 0.1446945 0.1446354 0.1445339 0.1443747 0.1441258 0.1437645 0.1432839 0.1426764
 0.1419256 0.1410235 0.1399979 0.1389249 0.1379163 0.1370882 0.1365322 0.1363003 0.1364026 0.1368046
 0.1374244 0.1381409 0.1388154 0.1393153 0.1395337 0.1394059 0.1389239 0.1381354 0.1371237 0.135981
 0.1347904 0.1336143 0.1324947 0.1314753 0.130637 0.1301103 0.130041 0.1305406 0.1316592 0.1333769
 0.1355876 0.1380889 0.140622 0.142958 0.1449742 0.1466634 0.1480901 0.1493386 0.1504797 0.1515542
 0.1525728 0.1535311 0.1544252 0.1552531 0.1560089 0.1566812 0.1572547 0.1577107 0.1580318 0.1582153
 0.1582814 0.1582683 0.158224 0.1581961 0.1582067 0.1582239 0.1581632 0.1579299 0.1574677 0.1567816
 0.1559445 0.1551084 0.1545185 0.1544846 0.1552716 0.1569428 0.1592814 0.1618815 0.1643489 0.1664487
 0.168121 0.1694164 0.1704295 0.1712541 0.1719581 0.1725823 0.173153 0.17369 0.1742062 0.1747082
 0.1751983 0.1756778 0.1761495 0.1766179 0.1770834 0.1775402 0.1779828 0.1784149 0.1788481 0.1792921
 0.1797453 0.1801962 0.1806376 0.1810763 0.1815231 0.181974 0.1824131 0.1828313 0.1832368 0.1836453
 0.1840673 0.1845043 0.1849468 0.1853771 0.1857818 0.186164 0.1865369 0.1869088 0.1872773 0.1876379
 0.187991 0.1883396 0.1886845 0.1890256 0.1893657 0.1897077 0.1900475 0.1903748 0.1906837 0.1909813
 0.1912826 0.1915973 0.1919209 0.1922403 0.1925466 0.1928452 0.19315 0.193469 0.193796 0.1941184
 0.1944307 0.1947375 0.1950453 0.1953561 0.1956685 0.1959823 0.1962979 0.1966146 0.1969301 0.197244
 0.1975596 0.1978796 0.1982028 0.1985255 0.1988446 0.1991601 0.1994741 0.1997885 0.2001034 0.2004185
 0.2007357 0.2010568 0.2013787 0.2016949 0.2020025 0.2023043 0.2026047 0.2029055 0.2032067 0.2035084
 0.2038113 0.2041161 0.2044224 0.2047292 0.2050365 0.2053435 0.2056488 0.2059525 0.2062578 0.2065663
 0.2068726 0.2071707 0.2074606 0.2077477 0.2080375 0.2083321 0.2086298 0.2089268 0.2092221 0.2095188
 0.2098175 0.2101135 0.2104017 0.2106831 0.2109625 0.2112443 0.2115298 0.2118175 0.2121041 0.2123867
 0.2126646 0.2129396 0.2132165 0.213499 0.2137851 0.2140702 0.2143537 0.2146383 0.2149246 0.2152103
 0.2154945 0.2157777 0.2160613 0.2163463 0.2166316 0.2169132 0.2171903 0.217468 0.2177504 0.2180365
 0.2183231 0.2186084 0.2188905 0.2191686 0.2194449 0.2197231 0.2200058 0.2202928 0.2205809 0.2208675
 0.2211564 0.2214522 0.2217521 0.2220483 0.2223402 0.2226335 0.2229315 0.2232326 0.2235353 0.223838
 0.2241377 0.2244321 0.2247194 0.2249987 0.2252728 0.2255465 0.2258194 0.2260881 0.226353 0.2266159
 0.2268763 0.2271354 0.2273978 0.2276659 0.2279391 0.2282185 0.2285045 0.2287932 0.229081 0.2293697
 0.2296618 0.2299588 0.2302612 0.2305653 0.2308649 0.2311598 0.2314549 0.2317508 0.2320462 0.2323462
 0.2326547 0.232966 0.2332731 0.2335763 0.2338774 0.2341784 0.2344837 0.2347951 0.2351076 0.2354184
 0.2357294 0.2360402 0.2363493 0.2366586 0.2369686 0.2372757 0.2375803 0.2378872 0.2381952 0.2385006
 0.2388057 0.2391115 0.2394138 0.2397149 0.2400233 0.2403413 0.2406654 0.2409936 0.24132 0.2416359
 0.2419443 0.2422546 0.2425647 0.2428678 0.2431675 0.2434686 0.2437681 0.2440666 0.244365 0.2446497
 0.2448935 0.2450414 0.2449439 0.2442799 0.2425145 0.2389106 0.2326713 0.2232547 0.2107003 0.1957251
 0.1795246 0.1633987 0.1484011 0.1351988 0.1241516 0.1154437 0.1091797 0.1054757 0.1045333 0.1067376
 0.1127844 0.123267 0.1371569 0.150492 0.1578582 0.1564875 0.1487676 0.1400765 0.1344039 0.1323935
 0.1327001 0.1339943 0.1357465 0.1380778 0.1413039 0.1454673 0.1502898 0.1556323 0.1617594 0.1689379
 0.1769185 0.1850272 0.1927279 0.1999666 0.2069773 0.2138667 0.2204502 0.2264294 0.2316248 0.2360369
 0.2397847 0.243032 0.2459233 0.2485487 0.2509611 0.2531902 0.2552021 0.2568754 0.2580689 0.2587337
 0.2589724 0.2589946 0.2590041 0.2591079 0.2593228 0.2596341 0.2600257 0.2604778 0.2609771 0.261523
 0.2621108 0.2627218 0.2633352 0.2639363 0.2645131 0.2650601 0.2655801 0.2660767 0.2665494 0.2670001
 0.2674303 0.2678401 0.268234 0.2686207 0.2690037 0.2693812 0.2697538 0.2701211 0.2704749 0.2708083
 0.2711235 0.2714241 0.2717111 0.2719878 0.2722591 0.2725274 0.2727956 0.2730669 0.2733392 0.2736076
 0.2738721 0.2741332 0.2743874 0.2746339 0.2748794 0.2751298 0.2753845 0.2756401 0.2758937 0.2761436
 0.2763917 0.2766415 0.2768924 0.2771426 0.2773936 0.2776477 0.2779055 0.2781713 0.2784499 0.2787354
 0.2790167 0.2792927 0.2795726 0.2798626 0.2801612 0.2804631 0.2807623 0.281056 0.2813475 0.2816402
 0.2819281 0.2821993 0.2824488 0.2826837 0.2829179 0.2831615 0.2834142 0.2836674 0.2839174 0.2841693
 0.2844276 0.2846904 0.2849532 0.2852121 0.2854666 0.2857255 0.286003 0.2863032 0.286615 0.2869268
 0.2872363 0.2875459 0.2878583 0.2881764 0.2884981 0.2888125 0.2891108 0.2893993 0.2896978 0.2900249
 0.2903816 0.2907479 0.2910999 0.2914317 0.2917557 0.2920859 0.2924277 0.292774 0.2930995 0.2933773
 0.2936182 0.29388 0.2942154 0.2946218 0.2950513 0.2954584 0.2958276 0.2961671 0.2964916 0.2968093
 0.2971159 0.2974003 0.2976665 0.2979484 0.2982884 0.2986892 0.2991048 0.2994881 0.29983 0.3001437
 0.3004407 0.3007311 0.3010087 0.3012309 0.3013603 0.3014509 0.3016424 0.302029 0.3025557 0.3030767
 0.303501 0.303848 0.3041722 0.3044887 0.3047861 0.3050412 0.3051825 0.3051229 0.3049196 0.3048355
 0.3051273 0.3057845 0.3065563 0.3072065 0.3076707 0.3080062 0.3082877 0.3085573 0.3087983 0.3089339
 0.3089084 0.3088091 0.3088569 0.3092063 0.3097717 0.3103199 0.3107169 0.3110062 0.3112816 0.3115776
 0.3118517 0.3119668 0.3117515 0.3112329 0.3107957 0.3109335 0.3117734 0.3129292 0.3138868 0.3144614
 0.3148037 0.3150448 0.3151024 0.3148377 0.3142282 0.3133767 0.3125602 0.312276 0.3129164 0.3142679
 0.3155975 0.3163868 0.3167766 0.3171993 0.3178146 0.3184415 0.3188556 0.3189931 0.3189134 0.3186678
 0.3182728 0.3178601 0.3177668 0.3182964 0.3193642 0.3205176 0.3213593 0.32186 0.3221785 0.3222036
 0.3214304 0.3195605 0.3172926 0.3161513 0.3171328 0.3196554 0.3221881 0.3237635 0.3245096 0.324935
 0.3252665 0.3253837 0.3248061 0.3228521 0.3195643 0.3165199 0.3158747 0.3182398 0.3219975 0.3248699
 0.3256602 0.3244978 0.3222579 0.3201565 0.3193225 0.3201856 0.3222921 0.3247673 0.3268422 0.3280687
 0.3283514 0.3279018 0.3271471 0.3266141 0.3265979 0.3267187 0.32616 0.3247299 0.323238 0.3222513
 0.3210533 0.3188105 0.3164236 0.3159692 0.3181325 0.3212201 0.3231268 0.3234923 0.323324 0.3229631
 0.3212592 0.3170885 0.3114376 0.3073713 0.3074079 0.3110054 0.315098 0.3171051 0.3169684 0.316277
 0.3160264 0.3155642 0.3135638 0.3099055 0.3064027 0.3051806 0.3062971 0.30766 0.30735 0.3049746
 0.3006521 0.2945132 0.2882866 0.2856357 0.2889222 0.2962552 0.3031549 0.3064173 0.3051185 0.2992803
 0.2901822 0.2817326 0.2787167 0.2823858 0.2890027 0.2934635 0.2933229 0.2888998 0.2811942 0.2714362
 0.2621483 0.2568376 0.2577617 0.2641184 0.2722153 0.2770895 0.2750508 0.2666292 0.2572722 0.2532396
 0.2557384 0.2601497 0.2614637 0.2589835 0.2552806 0.252672 0.2519345 0.252769 0.2541571 0.2551599
 0.2556521 0.2550063 0.2507466 0.2413244 0.2302846 0.2243883 0.2266198 0.2337609 0.2415639 0.2489941
 0.2558714 0.2598215 0.2588144 0.2552183 0.2542907 0.2585558 0.2653785 0.2702886 0.2714869 0.2705637
 0.2695564 0.268496 0.2664424 0.264144 0.2640599 0.2673227 0.2719952 0.2751892 0.2759747 0.2753842
 0.2744726 0.273439 0.2721581 0.270606 0.2688228 0.2669338 0.26514 0.2634922 0.2618524 0.2601573
 0.2583517 0.2558308 0.2514983 0.2452113 0.2390049 0.2357018 0.2359733 0.2379284 0.2398628 0.241529
 0.2418513 0.2379565 0.2289916 0.2195507 0.2164953 0.2222661 0.2328835 0.242303 0.2471201 0.2469712
 0.24252 0.235196 0.2287039 0.2283701 0.2370443 0.2521249 0.2678924 0.2803357 0.2886791 0.2931876
 0.2936582 0.2905689 0.2863802 0.2845805 0.2873117 0.2939737 0.3017 0.3066778 0.3057981 0.299226
 0.292156 0.2916662 0.2996514 0.3102681 0.3163791 0.3170471 0.3164849 0.3173935 0.318643 0.3189669
 0.319571 0.3220738 0.3258256 0.3284387 0.3279241 0.323525 0.3157032 0.306726 0.3003421 0.29888
 0.3007775 0.3024636 0.3020716 0.2995199 0.2942799 0.2863781 0.2792497 0.2778852 0.2831425 0.2904456
 0.2949999 0.2962652 0.2964989 0.296712 0.2954959 0.2914102 0.2855336 0.2810019 0.2799134 0.2813274
 0.2827846 0.2829682 0.2819256 0.2795343 0.2754753 0.270826 0.2682091 0.2694936 0.2738365 0.2785486
 0.281607 0.2829063 0.2834397 0.2840236 0.284854 0.2856839 0.2862617 0.2869296 0.2886552 0.2919409
 0.2958641 0.2988864 0.3006174 0.3021434 0.304529 0.3075476 0.3100799 0.3113919 0.3118069 0.3123159
 0.3136834 0.3158147 0.3178393 0.3188661 0.3188386 0.3186782 0.3194451 0.3213239 0.3235605 0.3253398
 0.3264802 0.3272953 0.3281071 0.3289869 0.3297347 0.3300529 0.3299507 0.3299879 0.3308596 0.3326672
 0.33478 0.3364525 0.337418 0.3378555 0.3379858 0.3378532 0.3374359 0.3368253 0.3362327 0.3358396
 0.3356768 0.3356509 0.3356536 0.3356291 0.3355769 0.3355359 0.3355585 0.3356705 0.3358566 0.3360899
 0.336351 0.3366087 0.3368188 0.3369669 0.3370811 0.3371752 0.3371992 0.33707 0.3367279 0.3361423
 0.3352828 0.3341103 0.3325897 0.3306854 0.3283684 0.3257129 0.3230629 0.3210668 0.3204107 0.3213849
 0.3236585 0.3264716 0.3290689 0.3310249 0.3322841 0.3330025 0.3333728 0.3335376 0.3335792 0.3335369
 0.3334273 0.3332638 0.3330638 0.3328451 0.3326237 0.3324187 0.3322472 0.332111 0.3319904 0.3318495
 0.3316509 0.3313682 0.3309921 0.3305255 0.3299745 0.3293368 0.3285947 0.3277257 0.3267306 0.3256539
 0.3245655 0.3235164 0.3225085 0.3215014 0.3204457 0.3192995 0.3180098 0.3165022 0.3147476 0.3128584
 0.3110618 0.3095221 0.3081999 0.3069122 0.3055052 0.3039382 0.3022398 0.3004469 0.2985926 0.2967091
 0.2948176 0.2929189 0.2909955 0.2890232 0.286986 0.2848853 0.2827311 0.2805286 0.2782782 0.2759805
 0.2736168 0.271116 0.2683479 0.2651589 0.2614209 0.2570596 0.252065 0.2465056 0.2405378 0.2343821
 0.2282667 0.2223837 0.2168859 0.2119052 0.2075613 0.2039546 0.2011572 0.1992085 0.1981211 0.1978911
 0.1985016 0.1999115 0.2020392 0.2047569 0.2078975 0.2112704 0.2146772 0.2179396 0.2209441 0.2236834
 0.2262402 0.2287045 0.2310973 0.2333719 0.2354707 0.237361 0.239024 0.2404398 0.2415981 0.242517
 0.2432432 0.2438331 0.2443328 0.2447682 0.2451472 0.2454778 0.2457872 0.2461214 0.2465208 0.2469975
 0.2475361 0.2481133 0.2487147 0.2493414 0.2500077 0.25073 0.251516 0.2523583 0.2532403 0.2541524
 0.2551081 0.256146 0.2573173 0.2586685 0.2602305 0.2620113 0.2639922 0.2661278 0.2683431 0.2705343
 0.2725819 0.2743815 0.2758725 0.2770452 0.2779224 0.2785377 0.2789229 0.2791062 0.2791092 0.2789456
 0.2786292 0.2781836 0.2776349 0.2769947 0.2762578 0.2754194 0.2744948 0.2735214 0.2725416 0.2715799
 0.2706413 0.2697299 0.2688567 0.2680252 0.267224 0.2664409 0.2656731 0.264923 0.264192 0.2634783
 0.262773 0.2620554 0.2612922 0.2604374 0.2594428 0.2582765 0.2569304 0.2554109 0.2537315 0.2519159
 0.2499955 0.2480005 0.2459531 0.2438629 0.2417226 0.2395118 0.2372036 0.2347737 0.2322311 0.2296465
 0.2271291 0.2247583 0.222549 0.2204781 0.2185212 0.216662 0.2148895 0.2131941 0.2115662 0.2100032
 0.2085131 0.2071017 0.2057634 0.2044939 0.203303 0.2022113 0.2012409 0.2004072 0.1997069 0.1991148
 0.1986004 0.1981436 0.1977468 0.1974457 0.1972883 0.1972774 0.1973408 0.1973768 0.1973209 0.197174
 0.1969857 0.1968134 0.1966855 0.1965978 0.1965289 0.1964308 0.1962163 0.1957859 0.1950605 0.193978
 0.19249 0.1905964 0.1883755 0.1859738 0.1835749 0.1813558 0.1794411 0.1778881 0.1766986 0.1758182
 0.1751465 0.1745973 0.1741624 0.1739069 0.173906 0.1741619 0.1745431 0.1748427 0.1749596 0.1750107
 0.175228 0.175763 0.1765977 0.1775878 0.1785602 0.1793993 0.1800665 0.1805608 0.1808952 0.1811007
 0.181203 0.1811956 0.1810665 0.1808278 0.1804987 0.1800893 0.1796089 0.1790548 0.1784016 0.1776335
 0.1767629 0.1757994 0.1747394 0.1735802 0.1722983 0.1708536 0.169294 0.1678379 0.1667947 0.1663963
 0.1666757 0.167454 0.1684657 0.1695336 0.1705867 0.1715299 0.1722451 0.1727921 0.1735001 0.1747531
 0.1766671 0.1789706 0.1811912 0.1829602 0.1841367 0.1847107 0.1847183 0.1842399 0.1833408 0.182008
 0.180242 0.178153 0.1758907 0.1735798 0.1713594 0.1693535 0.1676084 0.1661404 0.1649589 0.1640587
 0.1634973 0.1630063 0.1610358 0.1552941 0.1460004 0.1379911 0.1370653 0.1437341 0.1525117 0.1578093
 0.1586818 0.1574867 0.1561878 0.1552232 0.1545297 0.1541721 0.1541878 0.1544604 0.1547658 0.1548682
 0.1546564 0.1541341 0.1531779 0.1513095 0.1476816 0.1413793 0.1321023 0.1207948 0.1094432 0.1000228
 0.09352729 0.08976616 0.08778673 0.08653776 0.08547071 0.08472651 0.08478688 0.08597886 0.08829313 0.09152135
 0.09539775 0.09957792 0.1036047 0.1070545 0.1097548 0.1117848 0.113262 0.1142196 0.1146778 0.1147094
 0.1144017 0.1138252 0.1130405 0.1120778 0.1109177 0.1095408 0.1080171 0.1065416 0.1053554 0.1045915
 0.1041923 0.1040011 0.1039091 0.1038872 0.1039294 0.1040253 0.104169 0.1043605 0.104609 0.1049279
 0.1053002 0.1056633 0.1059551 0.1061581 0.1062888 0.1063569 0.1063355 0.1061767 0.1058866 0.105555
 0.1052287 0.1047724 0.1039715 0.1028126 0.101599 0.1007567 0.1005359 0.1008618 0.1014211 0.1018937
 0.102147 0.1022428 0.1022867 0.1022782</values></Ydata></ScSm><ScRf><Ydata ylabel="Single channel"><values byteorder="INTEL" format="FLOAT32" numvalues="1820"> 0.07052141 0.07065515 0.07077637 0.07088441 0.07098222 0.0710775 0.07118028 0.07129681 0.07142571 0.07155839
 0.07168399 0.07179706 0.071899 0.07199124 0.07207536 0.0721624 0.0722696 0.07240103 0.07253926 0.07266002
 0.07275237 0.07282849 0.07291786 0.07304122 0.07318082 0.07328463 0.07331065 0.07326943 0.07321867 0.07321344
 0.0732705 0.07339291 0.07360151 0.07388416 0.07412466 0.07417718 0.0740473 0.07391703 0.07394319 0.07409997
 0.07425449 0.0743148 0.07426633 0.07415804 0.07411925 0.07431886 0.07481229 0.07541718 0.07576908 0.07552975
 0.07461268 0.07330762 0.07221189 0.07191655 0.07257923 0.07374834 0.07470159 0.07502778 0.07484855 0.07450944
 0.07422011 0.07404961 0.07408581 0.07442004 0.07499823 0.07556125 0.07574522 0.07531991 0.07444938 0.07366426
 0.07342832 0.07377757 0.07448276 0.07532821 0.07590625 0.07540858 0.07334158 0.07061559 0.06926281 0.07055949
 0.07368973 0.07659438 0.07784617 0.07740401 0.07601774 0.07456637 0.0738267 0.07420619 0.07547658 0.07700269
 0.07824944 0.07892418 0.07883967 0.07800019 0.07678075 0.07577088 0.07544708 0.07603209 0.07740191 0.07895191
 0.07984146 0.07965685 0.07871963 0.07766878 0.0769912 0.07700136 0.07786487 0.07940035 0.08109541 0.08248769
 0.08340735 0.08387278 0.08397257 0.08384754 0.08362445 0.08339895 0.08333094 0.08356197 0.08393952 0.08404955
 0.08367799 0.08310068 0.08280347 0.08298134 0.08337189 0.08357277 0.08344077 0.08301353 0.08209649 0.08035979
 0.07801063 0.07589611 0.0746752 0.07435764 0.07484356 0.07620315 0.07802305 0.07920529 0.07907186 0.07827707
 0.07809854 0.0790548 0.08057912 0.0818471 0.08257898 0.08308513 0.08378056 0.08471527 0.08545789 0.08541453
 0.08443418 0.08318546 0.08271314 0.08342826 0.08470888 0.08566707 0.08608371 0.08637723 0.08686446 0.08729923
 0.08708672 0.08591894 0.08430696 0.08340253 0.08404945 0.08594838 0.08781241 0.08833916 0.08713651 0.08493545
 0.08297811 0.08212516 0.08252022 0.08394399 0.08612094 0.08858751 0.09061992 0.0915994 0.09143776 0.09056367
 0.08945573 0.08819467 0.08662976 0.08507631 0.0845035 0.08562874 0.08799552 0.09033605 0.09174246 0.0921718
 0.09192991 0.09105559 0.08940324 0.08728141 0.08573671 0.08577642 0.08722039 0.08875002 0.08931147 0.08910146
 0.08896155 0.08922856 0.08955222 0.08960323 0.08956055 0.08985517 0.09062104 0.09152684 0.09212847 0.09227854
 0.09216092 0.09203101 0.09197254 0.0918466 0.09150362 0.09111327 0.09115379 0.091909 0.09308876 0.09412069
 0.09471454 0.09497988 0.09508075 0.09495406 0.0944168 0.09352711 0.09275797 0.09266145 0.09333174 0.09433354
 0.09516413 0.09562868 0.0957887 0.095768 0.09566975 0.09555352 0.09545102 0.09543361 0.09559813 0.09593594
 0.09629748 0.09653986 0.096643 0.09665369 0.09659062 0.09644836 0.09625904 0.0961106 0.09609127 0.09621964
 0.09644122 0.09668513 0.09689447 0.09701584 0.09701712 0.09692863 0.09682513 0.09675841 0.096735 0.09675403
 0.09682745 0.09695329 0.09709536 0.09720695 0.09726799 0.09728892 0.09728505 0.0972619 0.09722596 0.0971965
 0.09720092 0.09725681 0.09735277 0.09745441 0.09754473 0.09764633 0.09777677 0.09789832 0.09795119 0.09792963
 0.09789036 0.09788935 0.09793761 0.09801324 0.09808922 0.09814153 0.09814782 0.09810121 0.09803554 0.09801927
 0.09810328 0.09828198 0.09851427 0.09875958 0.09898099 0.09914719 0.09925703 0.09934205 0.09942737 0.09950769
 0.09956941 0.0996217 0.09969887 0.09983422 0.1000275 0.1002394 0.1004248 0.100564 0.1006624 0.1007431
 0.1008447 0.1009904 0.1011474 0.1012527 0.101294 0.1013314 0.1014225 0.1015554 0.1016722 0.1017391
 0.1017761 0.1018263 0.1019107 0.1020156 0.1021165 0.1022078 0.1023074 0.1024307 0.1025588 0.1026412
 0.1026455 0.102598 0.1025574 0.1025546 0.102578 0.1026133 0.1026682 0.102749 0.1028343 0.1028886
 0.1028996 0.1028909 0.102894 0.1029128 0.102921 0.1028949 0.1028382 0.1027756 0.1027313 0.102713
 0.102709 0.1026967 0.1026595 0.1025975 0.1025226 0.1024451 0.1023669 0.1022914 0.1022364 0.1022282
 0.1022671 0.102302 0.1022607 0.1021148 0.1019096 0.1017216 0.1015924 0.1015049 0.1014133 0.1012876
 0.1011333 0.1009765 0.1008382 0.1007203 0.1006111 0.1005005 0.1003933 0.1003105 0.1002691 0.1002546
 0.1002212 0.1001329 0.1000002 0.0998667 0.09976532 0.09969787 0.09964874 0.09960406 0.09956188 0.09953409
 0.09953336 0.09955192 0.09956326 0.09955184 0.09953165 0.09953179 0.09957416 0.09966284 0.09977813 0.09987965
 0.09993605 0.09995811 0.09998903 0.1000588 0.1001605 0.1002727 0.1003883 0.1005144 0.100656 0.1008108
 0.1009775 0.1011601 0.1013629 0.1015834 0.1018103 0.102031 0.1022428 0.1024582 0.1026945 0.1029592
 0.1032443 0.1035332 0.1038134 0.1040839 0.1043527 0.1046271 0.1049066 0.1051893 0.1054815 0.1057913
 0.1061164 0.1064433 0.1067626 0.1070765 0.1073927 0.1077152 0.1080428 0.108375 0.1087187 0.1090844
 0.109467 0.1098365 0.1101607 0.110439 0.1107062 0.111001 0.1113364 0.1116942 0.1120386 0.1123416
 0.1126076 0.1128705 0.1131581 0.1134652 0.1137713 0.1140786 0.1144128 0.1147862 0.1151692 0.1155087
 0.1157762 0.1159946 0.116214 0.1164604 0.1167154 0.116948 0.1171558 0.1173632 0.1175877 0.1178243
 0.1180671 0.1183248 0.1186031 0.1188849 0.1191422 0.1193656 0.1195685 0.1197645 0.1199508 0.1201132
 0.1202419 0.1203448 0.1204481 0.1205757 0.1207246 0.1208709 0.1210027 0.1211356 0.1212912 0.1214742
 0.1216791 0.1219073 0.1221598 0.1224224 0.1226758 0.1229259 0.1232002 0.1235042 0.1237986 0.12404
 0.1242323 0.1244164 0.1246182 0.1248328 0.1250561 0.1253028 0.1255851 0.1258923 0.1261995 0.1264897
 0.1267681 0.1270564 0.1273689 0.1276879 0.1279729 0.1281988 0.1283816 0.1285631 0.1287768 0.1290305
 0.1293097 0.1295931 0.1298648 0.1301126 0.1303207 0.1304735 0.1305735 0.1306446 0.1307051 0.1307395
 0.1307085 0.1305814 0.1303499 0.1300124 0.1295591 0.1289838 0.1283091 0.1275978 0.1269394 0.1264249
 0.1261241 0.1260755 0.1262828 0.1267135 0.1272982 0.1279416 0.1285436 0.1290169 0.1292904 0.1293142
 0.129074 0.1285996 0.1279501 0.1271897 0.1263729 0.1255406 0.1247229 0.1239581 0.1233231 0.1229403
 0.1229419 0.1234209 0.1243984 0.1258077 0.1274921 0.1292392 0.1308608 0.1322628 0.1334492 0.1344715
 0.1353808 0.136214 0.1369973 0.137743 0.1384499 0.1391137 0.1397381 0.1403295 0.1408848 0.1413888
 0.1418217 0.1421649 0.1424104 0.1425693 0.1426669 0.1427242 0.142751 0.1427559 0.1427478 0.1427152
 0.142614 0.1423899 0.1420155 0.1415111 0.1409502 0.1404582 0.1402026 0.1403529 0.1410128 0.142159
 0.1436362 0.1452247 0.1467298 0.148031 0.1490836 0.1499031 0.150545 0.1510741 0.1515361 0.1519544
 0.1523431 0.1527139 0.1530738 0.1534244 0.153767 0.1541051 0.1544435 0.1547855 0.1551291 0.1554694
 0.1558046 0.1561396 0.1564818 0.1568336 0.1571889 0.1575378 0.1578779 0.1582192 0.1585714 0.1589292
 0.1592762 0.1596034 0.1599176 0.1602331 0.1605602 0.1609003 0.1612442 0.1615765 0.1618886 0.1621858
 0.1624797 0.162775 0.1630676 0.1633536 0.1636339 0.163913 0.1641938 0.1644768 0.1647618 0.1650483
 0.1653324 0.1656063 0.1658655 0.1661156 0.1663678 0.1666273 0.1668895 0.167147 0.1673978 0.1676472
 0.1679031 0.1681692 0.1684413 0.1687107 0.1689718 0.169225 0.169473 0.1697186 0.1699653 0.1702163
 0.170472 0.1707294 0.1709853 0.1712399 0.1714956 0.1717527 0.1720079 0.1722586 0.1725044 0.1727476
 0.172991 0.1732372 0.1734882 0.1737442 0.1740035 0.1742618 0.1745138 0.1747563 0.1749912 0.1752226
 0.175453 0.175683 0.1759149 0.1761518 0.1763947 0.1766406 0.1768855 0.177128 0.1773702 0.1776148
 0.1778619 0.1781084 0.1783514 0.1785903 0.1788276 0.179068 0.1793141 0.1795631 0.1798096 0.1800519
 0.1802914 0.1805295 0.1807674 0.1810068 0.1812485 0.1814909 0.1817334 0.1819762 0.1822185 0.1824591
 0.1826975 0.1829326 0.1831632 0.1833914 0.1836208 0.183852 0.1840841 0.1843175 0.1845527 0.1847887
 0.1850245 0.1852601 0.1854952 0.1857298 0.185966 0.1862052 0.1864468 0.1866895 0.1869322 0.1871735
 0.1874129 0.1876511 0.187888 0.1881225 0.1883557 0.1885905 0.1888283 0.1890703 0.1893175 0.1895677
 0.1898157 0.1900585 0.1902986 0.1905409 0.1907898 0.1910452 0.1913011 0.1915516 0.1917982 0.1920471
 0.1923017 0.1925618 0.1928259 0.1930906 0.1933534 0.1936144 0.1938727 0.194124 0.1943666 0.1946039
 0.1948379 0.1950665 0.1952889 0.1955082 0.1957286 0.195955 0.1961904 0.1964318 0.1966736 0.1969145
 0.1971551 0.1973946 0.1976348 0.1978803 0.1981326 0.1983874 0.1986408 0.1988908 0.1991376 0.1993854
 0.1996396 0.1998997 0.2001629 0.2004296 0.2006994 0.2009672 0.2012316 0.2014963 0.2017624 0.2020288
 0.2022977 0.2025695 0.2028391 0.203104 0.2033685 0.2036351 0.2039034 0.2041748 0.2044483 0.2047196
 0.2049888 0.2052596 0.2055303 0.2057971 0.2060632 0.206332 0.2066027 0.2068767 0.2071575 0.2074408
 0.2077198 0.2079957 0.2082705 0.2085421 0.2088128 0.2090873 0.2093613 0.2096291 0.2098954 0.2101641
 0.2104311 0.2106965 0.2109646 0.2112283 0.2114637 0.2116164 0.2115502 0.2109875 0.2094698 0.2063611
 0.2009694 0.192824 0.1819609 0.1690031 0.1549865 0.141037 0.1280693 0.1166615 0.10712 0.09959716
 0.09418145 0.09097803 0.09016663 0.09208108 0.09732314 0.1064073 0.1184441 0.130001 0.1363874 0.1352074
 0.1285316 0.1210182 0.1161203 0.1143926 0.1146682 0.1157935 0.1173096 0.1193246 0.1221185 0.125733
 0.1299279 0.1345798 0.1399137 0.1461563 0.1530884 0.160124 0.1668015 0.1730812 0.1791726 0.1851683
 0.1909039 0.1961168 0.2006498 0.2045022 0.2077751 0.2106077 0.2131242 0.2154057 0.2175048 0.2194514
 0.2212153 0.2226869 0.223741 0.224337 0.2245678 0.2246174 0.2246582 0.2247751 0.2249772 0.2252559
 0.2256081 0.2260257 0.226494 0.2269996 0.227529 0.228071 0.2286201 0.2291681 0.2296986 0.2301995
 0.2306721 0.2311205 0.2315466 0.231955 0.2323504 0.2327318 0.2330989 0.2334577 0.2338137 0.234168
 0.2345213 0.2348714 0.2352103 0.2355308 0.2358317 0.2361123 0.2363738 0.2366254 0.2368785 0.2371367
 0.2373977 0.2376587 0.2379159 0.2381671 0.2384151 0.2386636 0.2389119 0.2391583 0.2394028 0.2396443
 0.2398815 0.2401165 0.2403526 0.2405892 0.240826 0.2410649 0.241306 0.2415474 0.2417893 0.2420326
 0.2422769 0.2425253 0.242783 0.2430502 0.243322 0.2435948 0.2438666 0.2441349 0.2444007 0.2446697
 0.2449444 0.2452218 0.2454996 0.2457768 0.2460466 0.2462986 0.2465291 0.2467466 0.2469664 0.2471999
 0.2474468 0.2476982 0.2479477 0.2481935 0.2484353 0.2486745 0.2489171 0.2491663 0.2494207 0.2496819
 0.2499568 0.2502439 0.2505323 0.2508157 0.2510995 0.2513899 0.2516869 0.2519872 0.2522851 0.2525717
 0.252842 0.2531046 0.2533822 0.2536958 0.2540449 0.2544032 0.2547411 0.2550521 0.255352 0.2556598
 0.255985 0.2563205 0.2566378 0.2569063 0.2571344 0.2573763 0.2576833 0.2580574 0.2584579 0.2588436
 0.2591988 0.2595304 0.2598498 0.2601575 0.2604425 0.2606966 0.2609327 0.2611891 0.2615054 0.2618805
 0.2622683 0.2626244 0.2629425 0.263239 0.2635267 0.2638119 0.2640864 0.2643115 0.2644547 0.2645649
 0.2647664 0.2651402 0.265633 0.266113 0.2665028 0.2668275 0.2671427 0.2674635 0.267774 0.2680448
 0.2682061 0.2681824 0.2680318 0.2679938 0.268294 0.2689159 0.2696317 0.2702345 0.2706747 0.2710069
 0.271296 0.2715747 0.2718257 0.2719808 0.2719918 0.2719373 0.2720149 0.2723624 0.2729024 0.2734266
 0.2738159 0.27411 0.274393 0.2746983 0.27499 0.2751431 0.2749989 0.2745786 0.2742279 0.2743909
 0.2751814 0.2762538 0.2771484 0.2777009 0.2780468 0.2783034 0.2783983 0.2782074 0.2777098 0.2769952
 0.2763102 0.2760997 0.276715 0.2779663 0.2792 0.2799537 0.280352 0.2807777 0.2813723 0.2819771
 0.2823966 0.2825768 0.2825707 0.2824191 0.2821301 0.2818177 0.2817851 0.2823068 0.2833083 0.2843856
 0.2851871 0.2856904 0.2860382 0.2861273 0.2855032 0.2838981 0.2819377 0.2809833 0.2819217 0.2842315
 0.2865475 0.2880105 0.2887371 0.2891799 0.2895401 0.2897122 0.2892711 0.2876081 0.2847563 0.2821186
 0.2816173 0.2837974 0.2872155 0.2898418 0.2906133 0.2896487 0.2877297 0.2859407 0.2852851 0.2861413
 0.2881035 0.2903945 0.2923311 0.2935121 0.2938504 0.2935345 0.2929476 0.2925638 0.2926497 0.2928637
 0.2924684 0.2912889 0.2900532 0.2892731 0.2883062 0.2864047 0.2843809 0.2841024 0.2861822 0.2890935
 0.2909423 0.2914079 0.2913973 0.2912133 0.289812 0.2861767 0.2812025 0.2776682 0.2778573 0.2812772
 0.2851481 0.2871367 0.2872013 0.2867913 0.2868089 0.286652 0.285105 0.2820585 0.2791756 0.2784027
 0.2797878 0.2814067 0.2814924 0.2796707 0.2760303 0.2706822 0.2652271 0.2630549 0.2663521 0.2733824
 0.2800228 0.2833229 0.282426 0.277341 0.2692523 0.2618044 0.2594619 0.2633895 0.2700927 0.2748026
 0.2752345 0.27168 0.2650653 0.256549 0.2485316 0.2443572 0.2461886 0.2532734 0.2620696 0.2677666
 0.2667472 0.2594985 0.2513352 0.2483907 0.2518469 0.2571573 0.2593907 0.2578672 0.2551334 0.2534927
 0.2537323 0.2555557 0.2579209 0.2598617 0.26123 0.2613268 0.2575351 0.2482135 0.237011 0.2309363
 0.2331339 0.2403474 0.2482267 0.2557071 0.2625995 0.2664526 0.2651601 0.261137 0.2597817 0.2637103
 0.2702655 0.274913 0.275842 0.2746972 0.2735772 0.2725331 0.2706168 0.2685837 0.2689162 0.2727402
 0.2780618 0.2819284 0.2833865 0.2834815 0.2832769 0.2829603 0.2823902 0.2815356 0.2804341 0.279212
 0.2780798 0.2771011 0.2761423 0.2751415 0.2740416 0.2721942 0.268409 0.2624984 0.2566059 0.2537299
 0.254577 0.2571146 0.2594936 0.2613867 0.261549 0.2568184 0.2462482 0.2348034 0.2299432 0.2344083
 0.2440352 0.2524231 0.2559961 0.2544459 0.248554 0.239821 0.231975 0.2303382 0.2377307 0.2515084
 0.2659242 0.276984 0.2839748 0.2872429 0.2866514 0.2827023 0.277816 0.2753792 0.2774163 0.2832577
 0.2900568 0.2941217 0.2925141 0.2854611 0.2779683 0.2768061 0.283801 0.2934101 0.2988371 0.2991537
 0.2983285 0.2989286 0.2999139 0.300108 0.3006554 0.3030853 0.3067948 0.3095457 0.3094724 0.3058688
 0.2991816 0.2915543 0.2864903 0.286082 0.2886994 0.2908593 0.2908021 0.2885271 0.2836024 0.2761165
 0.269426 0.2683567 0.2737184 0.2810749 0.2858015 0.2873934 0.2880297 0.288655 0.2878686 0.2842678
 0.2789313 0.2749546 0.27442 0.2764363 0.2786137 0.2796529 0.2795572 0.2781413 0.2750378 0.2712964
 0.2695256 0.2715743 0.2765495 0.2816836 0.2848764 0.2859732 0.2859604 0.2856931 0.2854411 0.2850442
 0.284328 0.2836907 0.2841388 0.2862184 0.2890667 0.291196 0.2922137 0.2931514 0.2950162 0.2975599
 0.2996657 0.3005885 0.3006118 0.3006788 0.3015377 0.3031269 0.304637 0.3052242 0.3048415 0.3043928
 0.3049235 0.3066232 0.3087487 0.3104756 0.3115889 0.3123703 0.3131293 0.3139367 0.3145914 0.3147917
 0.3145363 0.314361 0.3149384 0.31638 0.3181033 0.3194209 0.3201038 0.3203436 0.3203599 0.3201894
 0.3197946 0.3192427 0.3187183 0.3183851 0.3182704 0.3182858 0.3183264 0.3183367 0.3183132 0.3182891
 0.3183135 0.3184145 0.3185816 0.3187881 0.3190115 0.3192215 0.3193812 0.3194869 0.3195772 0.3196755
 0.3197393 0.3196849 0.3194444 0.3189802 0.3182651 0.3172722 0.315975 0.314336 0.3123192 0.3099894
 0.3076705 0.3059766 0.3055591 0.3066944 0.3090647 0.3119374 0.3145829 0.3165908 0.3179069 0.3186752
 0.3190731 0.3192331 0.3192373 0.3191297 0.31893 0.3186525 0.3183179 0.317953 0.3175859 0.3172417
 0.3169348 0.3166601 0.3163939 0.3161036 0.3157613 0.3153521 0.3148761 0.3143398 0.3137462 0.3130863
 0.3123369 0.311475 0.3105054 0.309474 0.3084478 0.3074766 0.306569 0.3056969 0.304819 0.303892
 0.3028575 0.3016436 0.3002351 0.2987581 0.2974395 0.2964282 0.2956639 0.2949455 0.2941054 0.2930949
 0.2919438 0.2906976 0.2893948 0.2880618 0.2867054 0.2853125 0.2838585 0.2823184 0.2806762 0.2789332
 0.2771026 0.2752018 0.2732531 0.2712796 0.2692761 0.2671728 0.2648316 0.262087 0.2587975 0.2548753
 0.2502995 0.2451309 0.2395222 0.2336928 0.2278725 0.222258 0.2170086 0.2122598 0.2081295 0.2047131
 0.20208 0.2002736 0.1993155 0.199212 0.1999519 0.2014957 0.2037659 0.2066463 0.2099859 0.2136037
 0.2172984 0.2208766 0.2242011 0.2272349 0.2300304 0.2326553 0.2351219 0.2373885 0.2394134 0.2411878
 0.2427212 0.2440196 0.2450877 0.2459469 0.24664 0.2472173 0.2477176 0.2481566 0.2485284 0.2488208
 0.2490365 0.2492005 0.2493489 0.2495111 0.2497032 0.2499295 0.2501904 0.2504906 0.2508461 0.2512802
 0.2518091 0.2524299 0.253122 0.2538612 0.254636 0.255455 0.2563448 0.2573448 0.258494 0.2598126
 0.2612933 0.2629032 0.26458 0.2662262 0.267724 0.2689728 0.2699226 0.2705745 0.2709596 0.2711129
 0.2710611 0.2708261 0.2704295 0.2698926 0.2692367 0.2684877 0.2676739 0.2668144 0.265913 0.2649675
 0.2639827 0.2629768 0.2619739 0.2609881 0.2600185 0.2590638 0.2581329 0.2572359 0.2563726 0.2555374
 0.254729 0.2539524 0.2532151 0.2525194 0.2518545 0.2511948 0.2505056 0.249746 0.2488738 0.2478555
 0.2466725 0.2453198 0.2438078 0.2421623 0.2404107 0.2385653 0.2366275 0.2346037 0.2325073 0.230346
 0.2281099 0.2257769 0.2233485 0.2208863 0.2184978 0.2162734 0.214241 0.2123758 0.2106356 0.2089864
 0.2074118 0.2059056 0.204461 0.2030746 0.2017513 0.2004931 0.1992945 0.198157 0.1970981 0.1961385
 0.1952911 0.1945605 0.1939417 0.1934211 0.1929823 0.1926094 0.192298 0.1920769 0.1919949 0.1920593
 0.1922 0.1923149 0.1923411 0.1922802 0.1921796 0.1920947 0.192053 0.1920506 0.1920669 0.1920595
 0.1919453 0.1916186 0.1909872 0.1899857 0.1885811 0.1867909 0.184693 0.18242 0.1801451 0.1780448
 0.1762422 0.1747876 0.1736791 0.1728686 0.1722659 0.1717877 0.1714206 0.1712244 0.1712763 0.1715849
 0.1720238 0.1723845 0.1725621 0.1726727 0.1729506 0.1735489 0.174449 0.1755079 0.1765557 0.1774759
 0.1782228 0.1787862 0.1791757 0.1794305 0.1795926 0.1796678 0.1796396 0.1795014 0.1792541 0.1789009
 0.1784546 0.1779212 0.1772888 0.1765555 0.1757368 0.1748333 0.1738324 0.1727318 0.1715124 0.1701328
 0.1686353 0.1672346 0.1662425 0.1658971 0.1662377 0.16709 0.1681911 0.1693659 0.1705454 0.1716323
 0.1724994 0.1731905 0.1740198 0.1753654 0.1773492 0.1797115 0.1819892 0.1838182 0.1850617 0.1857135
 0.1858064 0.1854077 0.1845686 0.1832735 0.181531 0.1794564 0.1771962 0.1748749 0.1726438 0.1706427
 0.1689219 0.1674911 0.1663546 0.1655088 0.1650175 0.1646081 0.1626967 0.1569383 0.1475498 0.139467
 0.1386205 0.1455471 0.1546509 0.1602162 0.1612611 0.1601751 0.1589462 0.1580077 0.1572919 0.1568743
 0.1568114 0.1570035 0.1572346 0.1572693 0.156999 0.1564369 0.1554631 0.153584 0.1499226 0.1435342
 0.134103 0.1225879 0.1110197 0.101424 0.0948195 0.09100806 0.08900909 0.08774114 0.08664088 0.08586059
 0.08590768 0.08712281 0.08948959 0.09279016 0.09676191 0.1010671 0.1052422 0.1088445 0.1116819 0.1138222
 0.1153816 0.1163989 0.1169011 0.1169638 0.1166747 0.1161066 0.115325 0.1143652 0.1132087 0.1118333
 0.1103064 0.1088256 0.1076393 0.1068823 0.1064906 0.106301 0.1062083 0.1061914 0.1062439 0.1063464
 0.1064856 0.1066613 0.1068873 0.1071827 0.1075354 0.1078865 0.1081726 0.1083685 0.1084781 0.108501
 0.1084114 0.1081761 0.1078171 0.1074256 0.1070361 0.1065047 0.1056221 0.1043839 0.1030937 0.1021752
 0.1018838 0.1021542 0.1026761 0.1031264 0.1033686 0.1034634 0.1035149 0.1035159 0.1033376 0.1028702
</values></Ydata></ScRf><Data_Parameters_AB><parameter name="DPF">1</parameter><parameter name="NPT">3497</parameter><parameter name="FXV">3996</parameter><parameter name="LXV">500</parameter><parameter name="CSF">1</parameter><parameter name="MXY">0.0343052931129932</parameter><parameter name="MNY">-0.0760051012039185</parameter><parameter name="DAT">18/01/2024</parameter><parameter name="TIM">12:09:31.252 (GMT+1)</parameter><parameter name="DXU">WN</parameter></Data_Parameters_AB><AB__Qtest><MainReport name="Quality Test Report"><Header><Line><Legend>Test result ok/not ok [1/0]: </Legend><Value>0</Value></Line><Line><Legend>Method file: </Legend><Value>C:\Users\Public\Documents\Bruker\OPUS_8.2.28\QT\IRBT_v3_default.QT</Value></Line></Header><Matrix><Line><Legend></Legend><Legend>min</Legend><Legend>max</Legend><Legend>measured</Legend></Line><Line><Value>Absorption (X-Range 1):</Value><Value>0.400000</Value><Value>2.000000</Value><Value>0.074885</Value></Line><Line><Value>Noise (X-Range 4):</Value><Value></Value><Value>0.000300</Value><Value>0.000032</Value></Line><Line><Value>Signal/Noise (X-Range 2):</Value><Value>200.000000</Value><Value></Value><Value>38.247908</Value></Line><Line><Value>Signal/Noise (X-Range 3):</Value><Value>40.000000</Value><Value></Value><Value>25.664656</Value></Line><Line><Value>Water vapour (X-Range 5):</Value><Value></Value><Value>0.000300</Value><Value>0.000008</Value></Line><Line><Value>Signal/Water (X-Range 2):</Value><Value>100.000000</Value><Value></Value><Value>151.768055</Value></Line><Line><Value>Signal/Water (X-Range 3):</Value><Value>20.000000</Value><Value></Value><Value>101.837594</Value></Line><Line><Value>Fringes (X-Range 6):</Value><Value></Value><Value>0.000100</Value><Value>0.000021</Value></Line></Matrix></MainReport></AB__Qtest><Data_Parameters_ScSm><parameter name="DPF">1</parameter><parameter name="NPT">1814</parameter><parameter name="FXV">3996.63438082617</parameter><parameter name="LXV">499.579297603271</parameter><parameter name="CSF">1</parameter><parameter name="MXY">0.337985754013062</parameter><parameter name="MNY">0.0824471116065979</parameter><parameter name="DAT">18/01/2024</parameter><parameter name="TIM">12:09:31.252 (GMT+1)</parameter><parameter name="DXU">WN</parameter></Data_Parameters_ScSm><Data_Parameters_ScRf><parameter name="DPF">1</parameter><parameter name="NPT">1820</parameter><parameter name="FXV">4004.34989121387</parameter><parameter name="LXV">495.721542409425</parameter><parameter name="CSF">1</parameter><parameter name="MXY">0.320359945297241</parameter><parameter name="MNY">0.0692628100514412</parameter><parameter name="DAT">18/01/2024</parameter><parameter name="TIM">12:09:04.517 (GMT+1)</parameter><parameter name="DXU">WN</parameter></Data_Parameters_ScRf><Optic_Parameters_Rf><parameter name="APR">0</parameter><parameter name="APT">Open</parameter><parameter name="BMS">KBr</parameter><parameter name="DTC">RT-DLaTGS_IR-Biotyper [Microplate reader]</parameter><parameter name="HPF">0</parameter><parameter name="LPF">10.0</parameter><parameter name="LPV">4000</parameter><parameter name="PGR">0</parameter><parameter name="RCH">Module port</parameter><parameter name="RDX">0</parameter><parameter name="SRC">MIR</parameter><parameter name="VEL">10.0</parameter><parameter name="SON">Off</parameter></Optic_Parameters_Rf><Acquisition_Parameters_Rf><parameter name="ADT">1</parameter><parameter name="AQM">DD</parameter><parameter name="CFE">0</parameter><parameter name="COR">0</parameter><parameter name="DEL">0</parameter><parameter name="DLY">0</parameter><parameter name="HFW">8000</parameter><parameter name="LFW">0</parameter><parameter name="NSR">32</parameter><parameter name="PLF">AB</parameter><parameter name="RES">6</parameter><parameter name="RGN">-1</parameter><parameter name="STR">0</parameter><parameter name="TCL">MakeCompatibleScalar (0, {WSV=1.000000, ARV=0});</parameter><parameter name="TDL">37</parameter><parameter name="RPO">0</parameter></Acquisition_Parameters_Rf><FT_-_Parameters_Rf><parameter name="APF">B3</parameter><parameter name="HFQ">500</parameter><parameter name="LFQ">4000</parameter><parameter name="NLI">0</parameter><parameter name="PHR">24</parameter><parameter name="PHZ">ML</parameter><parameter name="SPZ">NO</parameter><parameter name="ZFF">1</parameter></FT_-_Parameters_Rf><Optic_Parameters_><parameter name="APR">0</parameter><parameter name="APT">Open</parameter><parameter name="BMS">KBr</parameter><parameter name="CHN">Module port</parameter><parameter name="DTC">RT-DLaTGS_IR-Biotyper [Microplate reader]</parameter><parameter name="HPF">0</parameter><parameter name="LPF">10.0</parameter><parameter name="LPV">4000</parameter><parameter name="PGN">0</parameter><parameter name="RDX">0</parameter><parameter name="SRC">MIR</parameter><parameter name="VEL">10.0</parameter><parameter name="SON">Off</parameter></Optic_Parameters_><FT_-_Parameters_><parameter name="APF">B3</parameter><parameter name="HFQ">500</parameter><parameter name="LFQ">4000</parameter><parameter name="NLI">0</parameter><parameter name="PHR">24</parameter><parameter name="PHZ">ML</parameter><parameter name="SPZ">NO</parameter><parameter name="ZFF">1</parameter></FT_-_Parameters_><Acquisition_Parameters_><parameter name="ADT">1</parameter><parameter name="AQM">DD</parameter><parameter name="CFE">0</parameter><parameter name="COR">0</parameter><parameter name="DEL">0</parameter><parameter name="DLY">0</parameter><parameter name="HFW">8000</parameter><parameter name="LFW">0</parameter><parameter name="NSS">32</parameter><parameter name="PLF">AB</parameter><parameter name="RES">6</parameter><parameter name="SOT">0</parameter><parameter name="TCL">MakeCompatibleScalar (0, {WSV=1.000000, ARV=0});</parameter><parameter name="TDL">37</parameter><parameter name="SPO">0</parameter><parameter name="SGN">-1</parameter></Acquisition_Parameters_><Instrument_Parameters_Rf><parameter name="HFL">15801.365274</parameter><parameter name="LFL">0</parameter><parameter name="LWN">15801.365274</parameter><parameter name="ABP">32157</parameter><parameter name="SSP">1</parameter><parameter name="ARG">2</parameter><parameter name="ASG">2</parameter><parameter name="ASS">32</parameter><parameter name="GFW">16</parameter><parameter name="GBW">16</parameter><parameter name="BFW">0</parameter><parameter name="BBW">0</parameter><parameter name="PKA">9307</parameter><parameter name="PKL">4987</parameter><parameter name="PRA">9273</parameter><parameter name="PRL">5010</parameter><parameter name="P2A">1</parameter><parameter name="P2L">1</parameter><parameter name="P2R">1</parameter><parameter name="P2K">1</parameter><parameter name="DAQ">0</parameter><parameter name="AG2">1</parameter><parameter name="SSM">1</parameter><parameter name="RSN">46666</parameter><parameter name="CRR">0</parameter><parameter name="SRT">1705579744.518</parameter><parameter name="DUR">19.6449890136719</parameter><parameter name="TSC">31</parameter><parameter name="MVD">0.434165447950363</parameter><parameter name="AN1">0.225973710188803</parameter><parameter name="AN2">0</parameter><parameter name="VSN">2.485 Apr  4 2017</parameter><parameter name="SRN">0085</parameter><parameter name="CAM">0</parameter><parameter name="INS">IR-Biotyper</parameter><parameter name="FOC">69</parameter><parameter name="RDY">1</parameter><parameter name="ARS">32</parameter></Instrument_Parameters_Rf><Sample_Parameters_><parameter name="BLD"></parameter><parameter name="CNM">Admin</parameter><parameter name="CPY"></parameter><parameter name="DPM"></parameter><parameter name="EXP">IRBT_v3_32Scans.XPM</parameter><parameter name="LCT"></parameter><parameter name="SFM">Microplate, HTS-XT</parameter><parameter name="SNM">240118-1045-Cdiff_SCFA_2_C28_232122617_B11_763a8acf-10b8-44b1-a501-8dd285f9fc0b.0</parameter><parameter name="XPP">C:\Users\Public\Documents\Bruker\OPUS_8.2.28\XPM</parameter><parameter name="IST">OK</parameter><parameter name="CPG">1252</parameter><parameter name="UID">93f25bd5-68e9-45ea-9de4-445930ed12e7</parameter></Sample_Parameters_><Instrument_Parameters_><parameter name="HFL">15801.365274</parameter><parameter name="LFL">0</parameter><parameter name="LWN">15801.365274</parameter><parameter name="ABP">32157</parameter><parameter name="SSP">1</parameter><parameter name="ASG">2</parameter><parameter name="ARG">2</parameter><parameter name="ASS">32</parameter><parameter name="GFW">16</parameter><parameter name="GBW">16</parameter><parameter name="BFW">0</parameter><parameter name="BBW">0</parameter><parameter name="PKA">10160</parameter><parameter name="PKL">4987</parameter><parameter name="PRA">10166</parameter><parameter name="PRL">5010</parameter><parameter name="P2A">1</parameter><parameter name="P2L">1</parameter><parameter name="P2R">1</parameter><parameter name="P2K">1</parameter><parameter name="DAQ">0</parameter><parameter name="AG2">1</parameter><parameter name="SSM">1</parameter><parameter name="RSN">24026</parameter><parameter name="CRR">0</parameter><parameter name="SRT">1705579771.252</parameter><parameter name="DUR">19.6449890136719</parameter><parameter name="TSC">31</parameter><parameter name="MVD">0.377518802881241</parameter><parameter name="AN1">0.226015456859393</parameter><parameter name="AN2">0</parameter><parameter name="VSN">2.485 Apr  4 2017</parameter><parameter name="SRN">0085</parameter><parameter name="CAM">0</parameter><parameter name="INS">IR-Biotyper</parameter><parameter name="FOC">69</parameter><parameter name="RDY">1</parameter></Instrument_Parameters_><History/></OPUSDataFile>
