<?xml version="1.0" encoding="UTF-8" ?>
<OPUSDataFile><AB><Ydata ylabel="Absorbance Units"><values byteorder="INTEL" format="FLOAT32" numvalues="3497"> -0.08555189 -0.08551715 -0.08547676 -0.08543531 -0.0854086 -0.08539467 -0.08539799 -0.08541263 -0.08543147 -0.08545087
 -0.08546337 -0.08547083 -0.08547209 -0.08547011 -0.08546647 -0.08546143 -0.08545572 -0.08544772 -0.08543717 -0.08542293
 -0.08540463 -0.08538274 -0.08535703 -0.08533179 -0.08530727 -0.08529001 -0.08527999 -0.0852796 -0.08528774 -0.08530006
 -0.08531555 -0.0853287 -0.08533938 -0.08534471 -0.08534478 -0.08533833 -0.08532598 -0.08530683 -0.08528492 -0.08526187
 -0.08524411 -0.08523583 -0.0852386 -0.0852553 -0.0852791 -0.08530963 -0.08533764 -0.08536161 -0.08537677 -0.08538238
 -0.08537912 -0.08536702 -0.08534949 -0.08532684 -0.08530383 -0.08528086 -0.0852626 -0.08524916 -0.08524353 -0.08524495
 -0.08525357 -0.08526763 -0.08528481 -0.08530284 -0.08531839 -0.0853302 -0.08533601 -0.0853365 -0.08533116 -0.08532205
 -0.08530972 -0.0852958 -0.08528077 -0.08526552 -0.0852503 -0.08523533 -0.08522066 -0.08520679 -0.08519378 -0.08518177
 -0.08517068 -0.08515953 -0.08514814 -0.08513472 -0.08511966 -0.08510309 -0.08508607 -0.08507112 -0.085059 -0.08505258
 -0.08505043 -0.08505269 -0.08505613 -0.08505806 -0.08505729 -0.0850517 -0.08504416 -0.08503501 -0.08502756 -0.08502296
 -0.08502145 -0.0850235 -0.08502658 -0.08503051 -0.08503294 -0.08503372 -0.08503144 -0.08502607 -0.08501679 -0.08500391
 -0.08498847 -0.08497151 -0.08495744 -0.08494673 -0.08494328 -0.08494525 -0.08495169 -0.08496004 -0.0849665 -0.08497116
 -0.08497252 -0.08497221 -0.08497137 -0.08496866 -0.08496459 -0.08495454 -0.08493713 -0.08491129 -0.08487602 -0.08483636
 -0.08479246 -0.0847517 -0.08471445 -0.08468626 -0.08466727 -0.08466064 -0.08466627 -0.08468584 -0.08471783 -0.08475932
 -0.08480569 -0.08484507 -0.08487285 -0.0848738 -0.08485243 -0.08480584 -0.08474589 -0.08468064 -0.08461975 -0.08457123
 -0.0845375 -0.08452234 -0.08452057 -0.08453263 -0.08454833 -0.08456641 -0.0845773 -0.08457968 -0.08457067 -0.08455001
 -0.08452311 -0.08449044 -0.08445999 -0.08443168 -0.08440911 -0.08439144 -0.08437743 -0.08436671 -0.08435749 -0.08435065
 -0.08434689 -0.08434708 -0.08435332 -0.08436363 -0.08437844 -0.08439154 -0.0844003 -0.08439796 -0.08438043 -0.08434796
 -0.08429812 -0.08424175 -0.08417948 -0.08412563 -0.08408196 -0.08405478 -0.08404465 -0.08404616 -0.08405869 -0.0840717
 -0.08408507 -0.08409259 -0.08409486 -0.08409104 -0.08408096 -0.0840635 -0.08403881 -0.08400566 -0.08396702 -0.08392517
 -0.08388476 -0.08385069 -0.08382481 -0.08381053 -0.08380445 -0.08380682 -0.08381118 -0.08381621 -0.08381575 -0.0838085
 -0.08379125 -0.08376321 -0.08372635 -0.08368066 -0.08363284 -0.08358336 -0.08354045 -0.08350423 -0.08347994 -0.08346666
 -0.08346415 -0.08347037 -0.08348017 -0.0834916 -0.08349857 -0.08350103 -0.08349606 -0.08348568 -0.08347048 -0.08345255
 -0.08343332 -0.08341371 -0.08339437 -0.08337579 -0.08335824 -0.08334176 -0.08332638 -0.08331218 -0.08329905 -0.08328839
 -0.08328024 -0.08327691 -0.08327836 -0.08328398 -0.08329332 -0.08330286 -0.0833121 -0.08331759 -0.0833184 -0.08331066
 -0.08329303 -0.08326004 -0.08321455 -0.0831558 -0.08309314 -0.08303402 -0.08298615 -0.08295842 -0.08294624 -0.08295254
 -0.08296048 -0.08296608 -0.0829569 -0.08292834 -0.08288579 -0.08282856 -0.08277102 -0.08271407 -0.08266693 -0.08262967
 -0.0826031 -0.08258631 -0.08257311 -0.08256228 -0.082545 -0.08252189 -0.08248911 -0.08245027 -0.08241022 -0.08237171
 -0.08234189 -0.08231704 -0.08229782 -0.08227581 -0.08224501 -0.08220379 -0.08214814 -0.08208673 -0.08202107 -0.08195863
 -0.08190184 -0.08184922 -0.08180112 -0.08175301 -0.08170456 -0.08165485 -0.08160397 -0.08155429 -0.08150576 -0.08145949
 -0.08141489 -0.08137029 -0.0813247 -0.08127441 -0.08121917 -0.08115635 -0.08108745 -0.08101319 -0.08093531 -0.08085608
 -0.08077519 -0.08069323 -0.08060928 -0.08052269 -0.08043449 -0.08034443 -0.08025549 -0.08016821 -0.08008471 -0.08000559
 -0.07992932 -0.07985602 -0.07977935 -0.07969895 -0.07960708 -0.07950377 -0.07938517 -0.07925221 -0.07910649 -0.07894941
 -0.07878508 -0.07861558 -0.07844637 -0.07827984 -0.07812168 -0.0779723 -0.07783484 -0.07770637 -0.07758641 -0.07747103
 -0.07735902 -0.07724551 -0.07713012 -0.07700321 -0.07686339 -0.07670014 -0.07651096 -0.07629996 -0.07606678 -0.07583045
 -0.07559177 -0.07536384 -0.07514571 -0.07493485 -0.07472982 -0.07452236 -0.07431339 -0.07410066 -0.0738872 -0.07367838
 -0.07347514 -0.0732829 -0.07309595 -0.07291222 -0.07272276 -0.07251982 -0.07230283 -0.07206711 -0.07182465 -0.07157806
 -0.07133666 -0.07110397 -0.07087702 -0.07065644 -0.07043329 -0.07020692 -0.06997202 -0.06972854 -0.0694784 -0.06922231
 -0.06896736 -0.06871365 -0.06846619 -0.06822295 -0.06798078 -0.06773701 -0.06748375 -0.06722207 -0.06694916 -0.06666955
 -0.06638701 -0.06610378 -0.06582327 -0.06554366 -0.06526494 -0.06498527 -0.06470364 -0.06442102 -0.06413722 -0.06385446
 -0.06357312 -0.0632937 -0.06301643 -0.06273796 -0.06245809 -0.06217111 -0.06187714 -0.06157452 -0.06126462 -0.06095289
 -0.06064056 -0.06033466 -0.06003438 -0.05974176 -0.05945472 -0.05917134 -0.05888962 -0.05860682 -0.05832196 -0.0580331
 -0.05774159 -0.05744709 -0.05715276 -0.05685998 -0.05656866 -0.05627994 -0.05598731 -0.05569037 -0.05538088 -0.05505784
 -0.05472198 -0.05437358 -0.0540253 -0.05367799 -0.05334551 -0.05302663 -0.0527235 -0.05243248 -0.05214334 -0.05185383
 -0.0515534 -0.05124418 -0.05092455 -0.0505976 -0.05026637 -0.04993141 -0.04959374 -0.04925425 -0.04891259 -0.04857351
 -0.04823804 -0.04791149 -0.04759581 -0.0472904 -0.04699607 -0.04670592 -0.04641964 -0.04612844 -0.04583197 -0.04552682
 -0.04521364 -0.0448975 -0.04457934 -0.04426723 -0.0439601 -0.04365915 -0.04336197 -0.04306337 -0.04276337 -0.04245886
 -0.04215299 -0.04184829 -0.04154593 -0.04124865 -0.04095293 -0.04065803 -0.04036003 -0.04005666 -0.03974937 -0.03943735
 -0.03912683 -0.03881864 -0.03851689 -0.03822235 -0.03793161 -0.03764446 -0.03735255 -0.03705581 -0.03674993 -0.03643633
 -0.03611976 -0.03580243 -0.03549435 -0.03519597 -0.03491413 -0.03464568 -0.03438944 -0.03414073 -0.03389373 -0.03364668
 -0.0333957 -0.03314334 -0.03289014 -0.03263751 -0.03238702 -0.03213483 -0.03188055 -0.03161991 -0.03135166 -0.0310779
 -0.03079838 -0.03052057 -0.03024482 -0.02997732 -0.02971786 -0.02946647 -0.02922219 -0.02897961 -0.02873819 -0.02849286
 -0.02824479 -0.02799377 -0.02774191 -0.0274926 -0.02724663 -0.02700638 -0.02677131 -0.02654166 -0.02631713 -0.02609784
 -0.02588282 -0.02567219 -0.02546329 -0.0252555 -0.02504723 -0.02483804 -0.02462817 -0.02441764 -0.02420586 -0.0239928
 -0.02377613 -0.02355588 -0.02333156 -0.02310359 -0.02287402 -0.02264335 -0.02241403 -0.02218703 -0.02196549 -0.02175061
 -0.02154652 -0.02135149 -0.02116657 -0.02098557 -0.02080437 -0.02061773 -0.02042028 -0.02021555 -0.0200023 -0.01979022
 -0.01958165 -0.01938179 -0.01919256 -0.0190102 -0.01883472 -0.01866002 -0.01848578 -0.01831144 -0.01813729 -0.01796733
 -0.01780133 -0.01764046 -0.01748337 -0.0173257 -0.01716683 -0.01700239 -0.01683427 -0.01666307 -0.01649208 -0.01632562
 -0.0161647 -0.01601224 -0.01586561 -0.01572451 -0.01558536 -0.01544664 -0.01530676 -0.01516482 -0.0150214 -0.0148762
 -0.01473188 -0.01458848 -0.01445118 -0.01432027 -0.01419945 -0.01408827 -0.01398173 -0.01387855 -0.01376744 -0.01364947
 -0.01352111 -0.01338738 -0.01325877 -0.0131385 -0.01303863 -0.01295452 -0.0128868 -0.01282698 -0.01276798 -0.01270595
 -0.01263605 -0.01256018 -0.01247799 -0.01239166 -0.01230178 -0.01220918 -0.0121139 -0.01201773 -0.01192078 -0.0118256
 -0.01173232 -0.01164263 -0.0115566 -0.01147558 -0.01139974 -0.01133115 -0.01126958 -0.0112158 -0.01116822 -0.01112373
 -0.01108007 -0.01103164 -0.01097814 -0.01091609 -0.01084882 -0.01077758 -0.01070619 -0.01063776 -0.01057216 -0.01051034
 -0.01045014 -0.01039038 -0.01033385 -0.01028024 -0.01023662 -0.01020396 -0.0101838 -0.01017642 -0.01017199 -0.01016985
 -0.01015728 -0.01013493 -0.01010011 -0.01005549 -0.01001006 -0.00996535 -0.009931045 -0.009904192 -0.009885131 -0.00986795
 -0.009845322 -0.00981421 -0.009768275 -0.009711102 -0.009641943 -0.009568223 -0.009492787 -0.009420138 -0.009352574 -0.009289199
 -0.00923053 -0.009172827 -0.009115756 -0.009056554 -0.008995017 -0.008930176 -0.008862017 -0.008790446 -0.008715255 -0.008635318
 -0.008549747 -0.008454476 -0.008348786 -0.008227413 -0.008093528 -0.007947822 -0.007800131 -0.007661492 -0.007542965 -0.007459715
 -0.007410963 -0.007404707 -0.007421946 -0.007459383 -0.007492058 -0.007511792 -0.007507099 -0.007472584 -0.007418382 -0.007343878
 -0.007271711 -0.00720326 -0.007156853 -0.007132576 -0.007131909 -0.007152851 -0.007182097 -0.007218086 -0.007246703 -0.007269534
 -0.007283065 -0.007290655 -0.007296914 -0.007303814 -0.007316138 -0.007333319 -0.00735707 -0.007384485 -0.007414508 -0.007444154
 -0.007470775 -0.007497691 -0.00752357 -0.007560707 -0.007611011 -0.007684332 -0.007783029 -0.007901218 -0.008038938 -0.00817882
 -0.008320211 -0.00845138 -0.008573077 -0.008685336 -0.008789206 -0.008889 -0.008985066 -0.009080359 -0.009175135 -0.009271519
 -0.009368751 -0.009467108 -0.009564648 -0.009659207 -0.009751204 -0.009839057 -0.009927974 -0.0100196 -0.01011845 -0.01022722
 -0.01034277 -0.01046589 -0.01058688 -0.01070483 -0.0108112 -0.01090524 -0.01098531 -0.01105176 -0.01111227 -0.01116805
 -0.01123221 -0.01130497 -0.01139527 -0.01150027 -0.01161755 -0.01174248 -0.01186478 -0.0119827 -0.0120887 -0.01218568
 -0.01227295 -0.01235566 -0.01243682 -0.01252001 -0.01260772 -0.01270059 -0.01279972 -0.01290278 -0.01300969 -0.01311726
 -0.01322502 -0.0133318 -0.01343745 -0.01354322 -0.0136491 -0.01375476 -0.0138598 -0.01396055 -0.01405695 -0.01414604
 -0.01422945 -0.01430983 -0.0143895 -0.01447463 -0.01456538 -0.01466538 -0.01477164 -0.01488292 -0.01499588 -0.01510778
 -0.01521754 -0.0153238 -0.0154272 -0.01552733 -0.01562642 -0.01572441 -0.01582585 -0.01593122 -0.01604443 -0.01616598
 -0.0162932 -0.01642579 -0.01655541 -0.01668201 -0.016801 -0.0169139 -0.01702521 -0.0171363 -0.01725426 -0.01737758
 -0.01750729 -0.01764 -0.01777127 -0.01789935 -0.01802035 -0.01813558 -0.01824422 -0.01834961 -0.01845253 -0.01855753
 -0.01866597 -0.01878168 -0.01890643 -0.01903735 -0.01917528 -0.01930768 -0.01943383 -0.0195399 -0.01962562 -0.01969235
 -0.01974223 -0.01979478 -0.01985195 -0.01993477 -0.02004028 -0.02017215 -0.02032316 -0.02048059 -0.02063913 -0.02078472
 -0.02091877 -0.02103623 -0.02114406 -0.02124451 -0.02134602 -0.02145337 -0.0215703 -0.02170052 -0.02183768 -0.0219824
 -0.02212077 -0.02225086 -0.02236457 -0.02246063 -0.02254564 -0.02262002 -0.02269586 -0.02277267 -0.02285129 -0.02292941
 -0.02299551 -0.02304963 -0.02308379 -0.02310405 -0.02311766 -0.02313342 -0.02316806 -0.02322391 -0.02331226 -0.02342342
 -0.02355625 -0.02369523 -0.02383229 -0.02395966 -0.0240716 -0.02417292 -0.02426336 -0.0243499 -0.0244341 -0.02451433
 -0.02459077 -0.0246574 -0.02471406 -0.02476176 -0.02480122 -0.02484007 -0.02487834 -0.02492065 -0.02496553 -0.02501047
 -0.02505486 -0.02509554 -0.0251342 -0.02517165 -0.02521035 -0.0252533 -0.02530148 -0.02535684 -0.02541846 -0.02548657
 -0.02555949 -0.02563647 -0.02571759 -0.0258021 -0.02589432 -0.02599454 -0.02610814 -0.02623591 -0.02637582 -0.02652762
 -0.02667983 -0.02683183 -0.02697234 -0.02710239 -0.02722084 -0.02733012 -0.02743745 -0.02754415 -0.02765702 -0.02777488
 -0.02789921 -0.02802764 -0.02815825 -0.02828926 -0.02841838 -0.0285462 -0.02867217 -0.02879804 -0.02892447 -0.02905177
 -0.02918036 -0.02930896 -0.02943744 -0.02956498 -0.02969157 -0.02981551 -0.0299367 -0.03005138 -0.03015967 -0.03026084
 -0.03035647 -0.03045451 -0.03055648 -0.03067278 -0.0308011 -0.03094258 -0.03109179 -0.03124043 -0.03138624 -0.03152249
 -0.03165253 -0.03177653 -0.03189828 -0.03202043 -0.03214246 -0.03226498 -0.03238593 -0.03250466 -0.03262137 -0.03273593
 -0.0328493 -0.03296176 -0.03307098 -0.03317683 -0.03327352 -0.03336075 -0.03343256 -0.03348976 -0.03353289 -0.03356462
 -0.03359394 -0.03362352 -0.03366472 -0.03371619 -0.03378231 -0.03385653 -0.03393403 -0.03400778 -0.0340706 -0.03411994
 -0.03415213 -0.03416869 -0.03416934 -0.03415589 -0.03412864 -0.0340892 -0.03403769 -0.03397628 -0.03390511 -0.03382649
 -0.03374052 -0.03364789 -0.03354848 -0.03344133 -0.0333262 -0.0332012 -0.03306624 -0.03291969 -0.03276232 -0.03259433
 -0.0324183 -0.03223791 -0.0320565 -0.03187927 -0.0317079 -0.03154571 -0.03139181 -0.03124665 -0.03110889 -0.03097771
 -0.03085411 -0.03073783 -0.03063187 -0.03053658 -0.03045482 -0.03038705 -0.03033294 -0.03029251 -0.0302607 -0.03023716
 -0.03021579 -0.03019707 -0.03018019 -0.03016691 -0.03016321 -0.03017011 -0.03019393 -0.03023243 -0.03028578 -0.03034873
 -0.03041623 -0.03048201 -0.03053987 -0.03058509 -0.03061313 -0.0306233 -0.03061362 -0.03058798 -0.03054653 -0.03049503
 -0.03043449 -0.03036816 -0.03029647 -0.03022086 -0.03014142 -0.03006139 -0.02998107 -0.02990557 -0.02983524 -0.02977468
 -0.02972439 -0.02968821 -0.0296673 -0.02966628 -0.02968616 -0.02973114 -0.02980024 -0.02989436 -0.03001112 -0.03014872
 -0.03030607 -0.03048166 -0.03067682 -0.03089183 -0.03112736 -0.03138427 -0.0316594 -0.03195287 -0.0322581 -0.03257463
 -0.03289529 -0.03321964 -0.03354245 -0.03386352 -0.0341789 -0.03448834 -0.03478835 -0.0350786 -0.0353558 -0.03562003
 -0.0358696 -0.03610526 -0.03632715 -0.03653697 -0.03673632 -0.03692786 -0.03711421 -0.03729718 -0.03747923 -0.03765835
 -0.03783533 -0.03800386 -0.03816254 -0.03830627 -0.03843328 -0.03854581 -0.03864354 -0.03873361 -0.03881646 -0.03889583
 -0.03897157 -0.03904104 -0.03910395 -0.03915673 -0.03920021 -0.03923507 -0.03926339 -0.03929028 -0.03931851 -0.03935462
 -0.03940195 -0.03946701 -0.03955203 -0.03966185 -0.03979453 -0.03995185 -0.04012591 -0.04031515 -0.04050883 -0.04070405
 -0.04089264 -0.04107247 -0.04124093 -0.04139736 -0.04154288 -0.04167751 -0.04180348 -0.04192102 -0.04203401 -0.0421434
 -0.04225731 -0.04237736 -0.04251444 -0.0426694 -0.04285084 -0.04305653 -0.04328771 -0.04353848 -0.04380313 -0.04407401
 -0.04434268 -0.0446045 -0.04485352 -0.04509125 -0.04531614 -0.04553394 -0.04574613 -0.04595594 -0.04616488 -0.04636948
 -0.04656988 -0.04675867 -0.04693536 -0.04709613 -0.0472412 -0.04737481 -0.04749788 -0.04761898 -0.04773833 -0.04786186
 -0.04798809 -0.04811631 -0.04824474 -0.04836939 -0.04849051 -0.04860631 -0.04871903 -0.04883037 -0.04894098 -0.04905266
 -0.04916199 -0.04926814 -0.04936774 -0.04945885 -0.04954406 -0.04962287 -0.04970245 -0.04978367 -0.04987017 -0.04996242
 -0.05005635 -0.0501517 -0.05024238 -0.05032873 -0.05041036 -0.05048827 -0.05056675 -0.05064574 -0.05072768 -0.05081096
 -0.05089356 -0.0509744 -0.05105054 -0.05112367 -0.05119375 -0.0512641 -0.05133715 -0.05141371 -0.05149558 -0.05157895
 -0.05166358 -0.05174391 -0.05181858 -0.05188587 -0.051945 -0.0519999 -0.05205072 -0.05210269 -0.05215595 -0.05221251
 -0.05227196 -0.05233213 -0.05239239 -0.05244872 -0.05250094 -0.05254606 -0.05258522 -0.05261869 -0.052649 -0.05267965
 -0.05271227 -0.0527504 -0.05279195 -0.05283727 -0.05288203 -0.05292407 -0.05296211 -0.05299462 -0.05302504 -0.05305373
 -0.05308394 -0.05311645 -0.05314951 -0.05318312 -0.05321291 -0.0532388 -0.05326023 -0.05327779 -0.05329609 -0.05331564
 -0.05334146 -0.05337295 -0.05341124 -0.05345501 -0.0535022 -0.05355175 -0.05360128 -0.05365051 -0.05369853 -0.05374484
 -0.05378898 -0.05383026 -0.0538681 -0.05390281 -0.05393392 -0.05396417 -0.05399374 -0.05402657 -0.05406331 -0.05410559
 -0.0541537 -0.05420572 -0.05426149 -0.05431763 -0.05437402 -0.05442835 -0.05448065 -0.05452976 -0.05457599 -0.05461934
 -0.05466073 -0.05470177 -0.05474379 -0.05478948 -0.05483915 -0.05489478 -0.05495398 -0.05501634 -0.05507788 -0.05513658
 -0.05519044 -0.05523781 -0.05528093 -0.05531962 -0.05535831 -0.05539758 -0.05544008 -0.05548614 -0.05553509 -0.05558686
 -0.0556392 -0.05569205 -0.05574385 -0.05579468 -0.05584403 -0.055892 -0.05593863 -0.0559839 -0.05602794 -0.05607036
 -0.05611076 -0.05614855 -0.05618264 -0.0562139 -0.056242 -0.05626984 -0.0562987 -0.05633053 -0.05636681 -0.05640561
 -0.05644723 -0.05648706 -0.05652447 -0.05655703 -0.05658436 -0.05660804 -0.05662819 -0.05664862 -0.05666945 -0.05669346
 -0.05672046 -0.05675114 -0.05678499 -0.05682088 -0.05685827 -0.05689553 -0.05693235 -0.05696763 -0.05700117 -0.05703221
 -0.05706117 -0.05708783 -0.05711363 -0.05713904 -0.05716562 -0.05719428 -0.05722441 -0.05725631 -0.05728761 -0.05731797
 -0.05734618 -0.05737198 -0.05739721 -0.05742198 -0.05744927 -0.05747915 -0.05751353 -0.05755216 -0.05759498 -0.05764133
 -0.05768942 -0.05773801 -0.05778357 -0.0578253 -0.05785998 -0.05788897 -0.05791186 -0.05793201 -0.05795154 -0.05797315
 -0.05799904 -0.05802907 -0.058064 -0.05810141 -0.05814096 -0.05818048 -0.05821956 -0.05825745 -0.058294 -0.05833007
 -0.05836572 -0.05840228 -0.0584397 -0.0584782 -0.0585174 -0.05855552 -0.0585923 -0.0586258 -0.05865645 -0.05868415
 -0.05870951 -0.0587336 -0.05875635 -0.05877802 -0.05879865 -0.05881788 -0.0588374 -0.05885766 -0.05888092 -0.05890831
 -0.0589398 -0.05897595 -0.05901398 -0.05905364 -0.05909217 -0.05912928 -0.0591636 -0.05919509 -0.05922398 -0.05925038
 -0.05927559 -0.0592998 -0.05932504 -0.05935101 -0.05937811 -0.05940543 -0.05943102 -0.05945444 -0.0594738 -0.0594902
 -0.05950393 -0.05951655 -0.05952952 -0.05954307 -0.05955787 -0.05957313 -0.05958853 -0.05960425 -0.0596203 -0.05963686
 -0.05965418 -0.05967066 -0.05968629 -0.05969797 -0.05970555 -0.05970813 -0.05970596 -0.05970198 -0.05969661 -0.05969389
 -0.05969357 -0.05969705 -0.05970345 -0.05971145 -0.05972035 -0.05972841 -0.05973547 -0.05974073 -0.05974416 -0.05974546
 -0.05974482 -0.05974196 -0.05973824 -0.05973386 -0.05973084 -0.05972984 -0.05973123 -0.05973541 -0.05974019 -0.05974546
 -0.0597489 -0.05975038 -0.05975053 -0.05974952 -0.05974995 -0.05975176 -0.05975609 -0.05976249 -0.05976984 -0.05977817
 -0.05978683 -0.05979662 -0.05980868 -0.05982322 -0.05984128 -0.0598616 -0.05988362 -0.05990594 -0.05992724 -0.05994829
 -0.05996877 -0.05999084 -0.06001513 -0.0600422 -0.06007255 -0.06010363 -0.06013531 -0.06016448 -0.06019095 -0.06021368
 -0.06023278 -0.06024952 -0.0602642 -0.06027913 -0.06029449 -0.06031228 -0.06033225 -0.06035509 -0.0603797 -0.06040477
 -0.06042894 -0.06044984 -0.06046762 -0.06048102 -0.0604925 -0.06050283 -0.06051459 -0.06052924 -0.06054668 -0.06056754
 -0.06058922 -0.06061142 -0.06063187 -0.06065021 -0.06066636 -0.06068028 -0.06069325 -0.06070529 -0.06071702 -0.06072835
 -0.06073872 -0.06074813 -0.06075615 -0.06076302 -0.06076906 -0.06077459 -0.06078024 -0.06078639 -0.06079369 -0.06080252
 -0.06081353 -0.0608265 -0.06084165 -0.06085804 -0.06087544 -0.06089274 -0.06090952 -0.06092569 -0.06094115 -0.06095609
 -0.06097055 -0.06098439 -0.06099759 -0.06100959 -0.06102035 -0.06102938 -0.06103668 -0.06104188 -0.06104517 -0.06104708
 -0.06104799 -0.06104922 -0.0610508 -0.06105351 -0.0610568 -0.06106013 -0.06106361 -0.06106672 -0.06107109 -0.06107761
 -0.061087 -0.06110024 -0.06111538 -0.06113223 -0.06114846 -0.06116341 -0.06117724 -0.06118983 -0.06120216 -0.06121431
 -0.06122513 -0.0612345 -0.06124046 -0.06124324 -0.0612434 -0.06124152 -0.06124029 -0.06123984 -0.0612421 -0.0612465
 -0.06125293 -0.06126071 -0.06126895 -0.06127722 -0.06128492 -0.06129173 -0.06129721 -0.06130153 -0.06130451 -0.06130694
 -0.06130897 -0.06131126 -0.06131409 -0.0613171 -0.06132038 -0.06132261 -0.06132371 -0.06132257 -0.06131921 -0.06131423
 -0.06130786 -0.06130206 -0.06129691 -0.06129393 -0.06129271 -0.06129296 -0.06129434 -0.0612959 -0.06129798 -0.06130042
 -0.0613042 -0.06131 -0.06131901 -0.06133196 -0.06135012 -0.06137408 -0.06140498 -0.06144347 -0.0614889 -0.06154167
 -0.06159832 -0.0616586 -0.06171874 -0.06177844 -0.06183692 -0.06189415 -0.06195037 -0.06200506 -0.0620547 -0.0620986
 -0.06213146 -0.06215407 -0.06216539 -0.06216761 -0.06216468 -0.06215699 -0.06214759 -0.06213332 -0.06211287 -0.06208219
 -0.06203736 -0.06197997 -0.0619081 -0.06183068 -0.06174907 -0.06167375 -0.0616068 -0.0615553 -0.06152041 -0.06150528
 -0.06151035 -0.061533 -0.06157271 -0.06161924 -0.06167142 -0.06171536 -0.061751 -0.0617698 -0.06177405 -0.06176494
 -0.06174641 -0.06172676 -0.06170774 -0.06169643 -0.06168882 -0.0616846 -0.06167723 -0.06166162 -0.06163694 -0.06160014
 -0.06155797 -0.06151154 -0.06146728 -0.06142728 -0.06139067 -0.0613579 -0.06132399 -0.06128855 -0.06124999 -0.0612084
 -0.06116689 -0.06112577 -0.06108906 -0.06105652 -0.06102962 -0.06100743 -0.06098832 -0.06097122 -0.06095318 -0.06093382
 -0.06091122 -0.06088606 -0.06085834 -0.06082865 -0.06079756 -0.06076467 -0.06072978 -0.06069323 -0.06065448 -0.0606169
 -0.06058078 -0.06055058 -0.06052704 -0.06051135 -0.06050379 -0.06050081 -0.06050214 -0.06050209 -0.06050059 -0.06049436
 -0.0604841 -0.06047101 -0.06045608 -0.06044304 -0.06043192 -0.060425 -0.06042066 -0.06041783 -0.0604145 -0.06040833
 -0.06039823 -0.06038254 -0.06036188 -0.06033567 -0.06030637 -0.06027415 -0.06024322 -0.06021432 -0.06019122 -0.06017473
 -0.06016455 -0.06016086 -0.06015932 -0.06015969 -0.0601576 -0.06015308 -0.06014473 -0.06013285 -0.06011804 -0.06010048
 -0.06008098 -0.06005957 -0.06003669 -0.06001249 -0.05998726 -0.05996146 -0.05993552 -0.05991014 -0.05988594 -0.0598633
 -0.0598427 -0.05982359 -0.05980615 -0.05978874 -0.05977109 -0.05975184 -0.05973057 -0.05970849 -0.05968558 -0.05966483
 -0.05964636 -0.05963158 -0.05962011 -0.059609 -0.05959774 -0.05958195 -0.05956211 -0.05953699 -0.05950817 -0.05947844
 -0.05944864 -0.05942165 -0.05939637 -0.0593729 -0.05934963 -0.05932506 -0.05929973 -0.05927294 -0.05924777 -0.05922507
 -0.05920695 -0.05919457 -0.05918549 -0.05917987 -0.05917233 -0.05916242 -0.05914692 -0.05912574 -0.0591004 -0.05907126
 -0.05904238 -0.05901383 -0.05898815 -0.05896499 -0.05894467 -0.05892687 -0.0589111 -0.058897 -0.05888398 -0.05887137
 -0.05885841 -0.05884431 -0.05882821 -0.05881005 -0.05878948 -0.05876707 -0.05874287 -0.05871772 -0.05869181 -0.05866558
 -0.05863911 -0.05861255 -0.05858589 -0.05855956 -0.05853356 -0.05850878 -0.05848521 -0.05846347 -0.05844336 -0.05842433
 -0.0584059 -0.05838616 -0.05836499 -0.05834097 -0.05831486 -0.05828695 -0.05825851 -0.0582311 -0.0582052 -0.05818179
 -0.0581603 -0.05814062 -0.05812244 -0.05810563 -0.05808998 -0.0580757 -0.05806109 -0.05804614 -0.05802798 -0.05800629
 -0.05798023 -0.05794977 -0.05791793 -0.05788499 -0.05785549 -0.05782927 -0.05780816 -0.05779122 -0.05777652 -0.05776283
 -0.05774645 -0.05772697 -0.05770185 -0.05767215 -0.05763753 -0.0576008 -0.05756355 -0.05752899 -0.0574994 -0.0574756
 -0.05745896 -0.05744667 -0.05743861 -0.05743089 -0.05742287 -0.05741255 -0.0573996 -0.05738439 -0.05736694 -0.0573478
 -0.057327 -0.05730467 -0.05728089 -0.05725618 -0.05723064 -0.05720499 -0.05717894 -0.05715241 -0.05712474 -0.05709467
 -0.05706252 -0.05702757 -0.05699198 -0.05695667 -0.05692473 -0.05689813 -0.05687809 -0.05686618 -0.0568594 -0.0568578
 -0.05685613 -0.05685354 -0.05684716 -0.05683649 -0.05682278 -0.05680607 -0.05678869 -0.05677062 -0.05675231 -0.05673354
 -0.05671331 -0.05669165 -0.05666809 -0.05664303 -0.05661707 -0.05659076 -0.05656525 -0.05654097 -0.05651896 -0.05649902
 -0.05648166 -0.05646538 -0.05644954 -0.05643291 -0.05641463 -0.05639514 -0.05637417 -0.05635332 -0.05633283 -0.05631364
 -0.05629595 -0.05627901 -0.05626279 -0.05624628 -0.05622945 -0.05621177 -0.05619323 -0.05617363 -0.05615289 -0.05613049
 -0.05610646 -0.0560804 -0.05605288 -0.05602445 -0.05599615 -0.05596936 -0.05594474 -0.0559236 -0.05590502 -0.05588906
 -0.05587404 -0.05585932 -0.05584409 -0.05582786 -0.0558113 -0.05579441 -0.05577816 -0.05576269 -0.05574828 -0.05573494
 -0.05572185 -0.05570891 -0.05569452 -0.05567872 -0.05566077 -0.05564119 -0.05562153 -0.05560231 -0.05558596 -0.05557185
 -0.05556037 -0.05554996 -0.05553877 -0.05552629 -0.05551102 -0.05549458 -0.05547731 -0.05546115 -0.05544712 -0.05543537
 -0.05542634 -0.05541872 -0.05541243 -0.05540585 -0.05539882 -0.05538999 -0.05537925 -0.0553657 -0.05534936 -0.05533047
 -0.05530917 -0.0552865 -0.05526247 -0.05523767 -0.05521183 -0.0551846 -0.05515573 -0.05512436 -0.05509119 -0.05505636
 -0.05502153 -0.05498802 -0.05495727 -0.05493085 -0.05490801 -0.05488925 -0.05487178 -0.0548549 -0.05483703 -0.05481755
 -0.05479745 -0.05477674 -0.05475675 -0.05473759 -0.05471849 -0.05469932 -0.05467768 -0.05465359 -0.05462575 -0.05459466
 -0.05456138 -0.05452659 -0.05449271 -0.05445975 -0.05442897 -0.05439973 -0.05437166 -0.05434442 -0.05431732 -0.054291
 -0.05426575 -0.05424169 -0.05421939 -0.05419693 -0.05417404 -0.0541485 -0.05411956 -0.05408835 -0.05405467 -0.05402293
 -0.05399341 -0.0539692 -0.05395012 -0.05393319 -0.05391776 -0.05389763 -0.05387292 -0.05384046 -0.05380179 -0.05375918
 -0.05371413 -0.05367066 -0.05362847 -0.0535889 -0.05355097 -0.05351409 -0.05347818 -0.05344294 -0.05340879 -0.05337597
 -0.05334411 -0.05331317 -0.05328268 -0.05325249 -0.0532229 -0.05319396 -0.05316572 -0.05313823 -0.05310971 -0.05308003
 -0.05304698 -0.0530107 -0.05297091 -0.05292815 -0.05288438 -0.05284005 -0.05279745 -0.05275638 -0.05271769 -0.05268075
 -0.05264505 -0.05261037 -0.05257624 -0.05254298 -0.05251068 -0.05247955 -0.0524499 -0.052421 -0.0523929 -0.05236391
 -0.05233378 -0.0523009 -0.05226498 -0.05222588 -0.05218355 -0.0521395 -0.05209384 -0.05204857 -0.05200363 -0.05195966
 -0.05191634 -0.05187264 -0.05182851 -0.05178316 -0.05173714 -0.05169112 -0.05164565 -0.05160183 -0.05155961 -0.05151954
 -0.0514806 -0.05144244 -0.05140388 -0.05136422 -0.05132326 -0.05128075 -0.05123694 -0.05119186 -0.05114555 -0.05109805
 -0.05104901 -0.05099839 -0.05094694 -0.05089473 -0.05084292 -0.05079149 -0.05074078 -0.05069071 -0.050641 -0.05059186
 -0.05054376 -0.05049673 -0.05045145 -0.05040666 -0.05036123 -0.05031335 -0.05026063 -0.05020314 -0.0501394 -0.05007297
 -0.05000469 -0.04993859 -0.04987641 -0.04981868 -0.0497662 -0.04971575 -0.0496671 -0.04961683 -0.0495646 -0.04951065
 -0.04945506 -0.04940102 -0.04934855 -0.04929966 -0.04925378 -0.04920966 -0.0491665 -0.04912136 -0.04907394 -0.04902198
 -0.04896621 -0.04890644 -0.04884407 -0.04878047 -0.04871614 -0.04865199 -0.04858736 -0.04852202 -0.04845591 -0.04838865
 -0.04832181 -0.0482557 -0.04819107 -0.04812824 -0.04806551 -0.04800282 -0.0479374 -0.04786919 -0.04779749 -0.04772262
 -0.04764699 -0.047571 -0.04749797 -0.0474275 -0.04736054 -0.04729564 -0.04723037 -0.04716362 -0.04709227 -0.04701745
 -0.04693871 -0.04685848 -0.04677844 -0.04669944 -0.0466228 -0.04654659 -0.04647055 -0.04639268 -0.04631238 -0.04622943
 -0.04614358 -0.04605628 -0.0459676 -0.04587909 -0.04579078 -0.04570245 -0.04561391 -0.0455233 -0.04543055 -0.04533428
 -0.04523485 -0.04513264 -0.04502784 -0.04492111 -0.04481234 -0.04470143 -0.04458888 -0.04447491 -0.04436063 -0.04424708
 -0.04413413 -0.04402232 -0.04390996 -0.04379658 -0.04368113 -0.04356303 -0.04344367 -0.04332307 -0.0432033 -0.04308461
 -0.04296591 -0.04284706 -0.04272365 -0.04259559 -0.04245993 -0.04231751 -0.04217085 -0.04202062 -0.04187069 -0.0417199
 -0.04156793 -0.04141281 -0.04125116 -0.04108292 -0.0409063 -0.04072327 -0.04053445 -0.04034208 -0.04014772 -0.03995127
 -0.03975375 -0.03955125 -0.03934368 -0.03912435 -0.03889199 -0.03864503 -0.03838287 -0.03811282 -0.03783522 -0.03755737
 -0.03727884 -0.03699803 -0.03671426 -0.03642269 -0.03612421 -0.03581928 -0.03550871 -0.03519528 -0.03487725 -0.03455318
 -0.03422184 -0.03387993 -0.03353175 -0.03317866 -0.03282622 -0.03247848 -0.03213462 -0.03179593 -0.03145748 -0.03111821
 -0.03077563 -0.03042915 -0.03007875 -0.02972462 -0.02936199 -0.02899051 -0.02859954 -0.0281891 -0.0277545 -0.02729797
 -0.02682915 -0.02634913 -0.02586809 -0.02538197 -0.02488741 -0.02437925 -0.02384754 -0.02329108 -0.022705 -0.02208938
 -0.02144473 -0.02076484 -0.0200488 -0.01928411 -0.01846584 -0.01758824 -0.01664667 -0.01565349 -0.01460795 -0.01353639
 -0.0124406 -0.01134682 -0.01025641 -0.009186222 -0.008135499 -0.007103489 -0.006085916 -0.005060154 -0.004021592 -0.002939075
 -0.001820001 -0.0006604086 0.0005183003 0.001682133 0.002823989 0.003917244 0.004981186 0.006021079 0.007055547 0.008098447
 0.009148475 0.01020883 0.01127231 0.01233643 0.0134045 0.01447699 0.01555434 0.01663722 0.01771466 0.01878613
 0.01984875 0.02090279 0.02195299 0.02299661 0.02402094 0.0250222 0.02597706 0.02689218 0.02776847 0.02862
 0.02947332 0.03032631 0.03119348 0.03204852 0.03287415 0.03365795 0.03438333 0.0350679 0.03571542 0.03633571
 0.03693556 0.03749743 0.03802037 0.03848368 0.03888471 0.03922031 0.03949022 0.03970027 0.03985085 0.03994754
 0.03999184 0.03999411 0.03995776 0.03989974 0.03982332 0.03974385 0.03966409 0.03959418 0.03953803 0.03950311
 0.03949364 0.03951521 0.03956978 0.03965953 0.03978617 0.03995032 0.04015511 0.04040227 0.04068903 0.04101655
 0.04137101 0.04175133 0.04214517 0.04255177 0.04297148 0.04340454 0.04385521 0.04432259 0.04480381 0.04529703
 0.04579423 0.04629412 0.04678989 0.04728062 0.04776206 0.0482333 0.04869217 0.04913676 0.04956558 0.04997503
 0.05036257 0.0507268 0.0510652 0.05138395 0.05168349 0.05197241 0.05225271 0.05252578 0.05279237 0.05304673
 0.05328856 0.05351207 0.05371715 0.05390131 0.05406435 0.05420443 0.05431983 0.05440431 0.05445414 0.05445699
 0.05441103 0.05430665 0.05414646 0.05393009 0.05365925 0.05333544 0.05295907 0.05252941 0.05205192 0.05152968
 0.05096168 0.05035301 0.04967526 0.04892688 0.04806652 0.04708721 0.04599453 0.04478787 0.04353772 0.04224648
 0.04096323 0.0396823 0.03839 0.03708222 0.03573406 0.03435078 0.03293235 0.03148639 0.03002847 0.02855635
 0.02707559 0.02557622 0.02404576 0.02249743 0.0209237 0.01937996 0.01788572 0.01648051 0.01518649 0.01397902
 0.01286001 0.0117845 0.01074683 0.009731242 0.008736227 0.007771134 0.006836202 0.005936768 0.005071612 0.004234523
 0.00342517 0.002638593 0.001876229 0.00114028 0.000429505 -0.000254969 -0.0009209128 -0.001576137 -0.002230127 -0.002894971
 -0.003571114 -0.004264095 -0.004964806 -0.005670413 -0.006376103 -0.007079343 -0.007782313 -0.008487379 -0.009179818 -0.009860423
 -0.01049037 -0.01106707 -0.01157206 -0.01200656 -0.01239302 -0.0127345 -0.01306354 -0.01337976 -0.01369945 -0.0140191
 -0.01433746 -0.01465235 -0.01495904 -0.01525712 -0.01554553 -0.01582031 -0.01607966 -0.0163144 -0.01651902 -0.0166861
 -0.01681047 -0.01689235 -0.01693048 -0.01692825 -0.01688644 -0.01680507 -0.01668464 -0.01652015 -0.01631139 -0.01605071
 -0.01573812 -0.01537243 -0.01495637 -0.01450802 -0.01403232 -0.01356036 -0.01309241 -0.01264639 -0.01221694 -0.01180191
 -0.01139819 -0.01100012 -0.01060867 -0.01022402 -0.009843403 -0.00946659 -0.009086299 -0.008697545 -0.008303733 -0.007901815
 -0.007511696 -0.007136731 -0.006790357 -0.0064759 -0.006185345 -0.005918682 -0.005656972 -0.005399306 -0.00512931 -0.004846928
 -0.004544444 -0.004221831 -0.003876054 -0.003504358 -0.003099079 -0.002654409 -0.0021559 -0.001599911 -0.0009741398 -0.0002825214
 0.0004762159 0.001296064 0.002172681 0.003105689 0.004094856 0.005136983 0.006234825 0.007367029 0.008532754 0.009697705
 0.01085812 0.01198691 0.01308186 0.01412865 0.01512642 0.0160612 0.01693135 0.01771698 0.01841749 0.01901836
 0.01952257 0.01993067 0.02024636 0.0204775 0.02062479 0.02069222 0.02067992 0.020588 0.02042083 0.02018004
 0.0198727 0.01950279 0.0190725 0.01858447 0.01803289 0.01741766 0.0167296 0.0159671 0.01512857 0.01421326
 0.01323557 0.01219649 0.01111796 0.01000046 0.008857069 0.007687885 0.00649806 0.005292166 0.004083823 0.002882133
 0.001711222 0.0005770051 -0.0005011312 -0.001525261 -0.002489705 -0.003400631 -0.004259748 -0.005074186 -0.005846932 -0.006584884
 -0.007291192 -0.00796747 -0.008615556 -0.009228927 -0.009807286 -0.01034233 -0.01083324 -0.01127898 -0.01167972 -0.01204167
 -0.01236537 -0.01265792 -0.01291952 -0.0131546 -0.01336329 -0.01354815 -0.0137096 -0.01384942 -0.01396877 -0.01406949
 -0.01415397 -0.01422434 -0.01428483 -0.014338 -0.01438944 -0.01444178 -0.01450051 -0.0145679 -0.0146469 -0.01473903
 -0.01484213 -0.01495668 -0.01507497 -0.01519664 -0.01531107 -0.01541774 -0.01550804 -0.01558208 -0.01563693 -0.01567321
 -0.01569259 -0.01569489 -0.01568069 -0.01564889 -0.01559712 -0.01552555 -0.01543238 -0.01532112 -0.01519366 -0.01505574
 -0.01491118 -0.01476583 -0.01462267 -0.01448769 -0.01436265 -0.01425459 -0.01416522 -0.01409925 -0.01405805 -0.01403945
 -0.0140437 -0.01406188 -0.01409347 -0.01412735 -0.01416288 -0.01418994 -0.01420781 -0.01420752 -0.01418875 -0.01414504
 -0.01407824 -0.01398761 -0.01387892 -0.01375855 -0.01363575 -0.01352047 -0.01342404 -0.01335608 -0.01332736 -0.01334536
 -0.01341584 -0.01354379 -0.0137239 -0.01395808 -0.01422799 -0.01453274 -0.01484694 -0.01516867 -0.01547568 -0.0157669
 -0.0160301 -0.01626554 -0.01647103 -0.01664756 -0.01679879 -0.01692583 -0.01703391 -0.01712398 -0.01720048 -0.01726406
 -0.01731772 -0.01736124 -0.01739572 -0.01741986 -0.01743305 -0.01743433 -0.01742242 -0.01739938 -0.01736486 -0.01732425
 -0.01727843 -0.01723258 -0.01718769 -0.01714548 -0.0171063 -0.01706911 -0.01703388 -0.01699984 -0.01696703 -0.01693592
 -0.01690647 -0.0168789 -0.01685285 -0.01682716 -0.0168018 -0.01677579 -0.01675017 -0.01672582 -0.01670425 -0.0166877
 -0.01667617 -0.01667116 -0.0166696 -0.01667096 -0.01667059 -0.01666688 -0.01665651 -0.016638 -0.01661223 -0.01657866
 -0.01654217 -0.01650297 -0.01646743 -0.01643588 -0.01641303 -0.01639893 -0.0163957 -0.01640321 -0.01642172 -0.01645111
 -0.01649123 -0.0165419 -0.01660288 -0.01667339 -0.01675268 -0.0168386 -0.01692898 -0.01702098 -0.01711167 -0.01719983
 -0.01728362 -0.01736461 -0.01744286 -0.0175201 -0.01759727 -0.01767232 -0.01774547 -0.01781167 -0.01787048 -0.01791825
 -0.01795478 -0.01797986 -0.01799351 -0.01799636 -0.01798809 -0.01796745 -0.0179338 -0.01788423 -0.01781864 -0.01773499
 -0.01763422 -0.01751688 -0.01738387 -0.01723697 -0.01707488 -0.01689807 -0.01670241 -0.01648627 -0.01624537 -0.01597737
 -0.01568196 -0.01535807 -0.01500943 -0.01463625 -0.01424305 -0.01383023 -0.01340108 -0.01295579 -0.01249794 -0.01202788
 -0.011551 -0.01106775 -0.01058362 -0.01009823 -0.009613464 -0.009127929 -0.008639344 -0.008146575 -0.007646322 -0.007139328
 -0.006624707 -0.006104786 -0.005580903 -0.005055381 -0.004529793 -0.004005505 -0.003483396 -0.002963851 -0.002446953 -0.001933668
 -0.001423896 -0.0009204093 -0.0004233858 6.379581E-05 0.000540928 0.001008469 0.001467092 0.001925592 0.002385581 0.002861299
 0.003353612 0.003873619 0.004420239 0.004996506 0.005600815 0.006231626 0.006888431 0.007570232 0.008276319 0.009006938
 0.009757848 0.01052865 0.01130941 0.01209833 0.01288005 0.01365193 0.01439565 0.01510837 0.01577429 0.01639141
 0.01695162 0.01745434 0.01789823 0.01828329 0.01860942 0.01887686 0.01908595 0.01923886 0.01934241 0.01940147
 0.01943062 0.01943507 0.01943001 0.0194186 0.01941008 0.01940668 0.01941273 0.01943043 0.01946226 0.01950869
 0.01957084 0.01964679 0.01973629 0.01983761 0.01995042 0.02007389 0.02020806 0.02035025 0.02050031 0.02065344
 0.02080945 0.02096517 0.02112088 0.0212771 0.02143369 0.02159121 0.02174743 0.02189815 0.02203869 0.02215988
 0.0222563 0.02231803 0.02234151 0.02232029 0.02225378 0.02213957 0.0219795 0.02177314 0.02152479 0.02123448
 0.02091069 0.02055399 0.02017674 0.01977992 0.01937633 0.01896681 0.01856135 0.01816043 0.01777209 0.01739708
 0.01704399 0.016714 0.01641627 0.01615145 0.01592624 0.01573967 0.01559385 0.01548536 0.01541167 0.01536779
 0.01534941 0.01535086 0.01536916 0.01539561 0.01542856 0.01545186 0.01546318 0.01543957 0.01537722 0.01525684
 0.01507526 0.01482809 0.01451461 0.01414476 0.01371937 0.01325357 0.01274826 0.01221655 0.01165945 0.01108753
 0.01050238 0.009912811 0.009321393 0.008736062 0.008160217 0.007601039 0.007061129 0.006545777 0.006053935 0.005587352
 0.00514117 0.004714104 0.004301348 0.003901113 0.003511743 0.003132658 0.00276338 0.002403961 0.002052328 0.001708397
 0.001368556 0.001032609 0.0006969552 0.0003615734 2.447988E-05 -0.000313981 -0.0006535726 -0.0009937133 -0.001332524 -0.001670127
 -0.002005349 -0.002339929 -0.002675099 -0.003013832 -0.003358848 -0.003713191 -0.004079547 -0.004459328 -0.004854183 -0.005262726
 -0.005685414 -0.00611823 -0.006560918 -0.007007783 -0.007458337 -0.007906579 -0.008352109 -0.008789394 -0.009218222 -0.00963513
 -0.01004029 -0.01043337 -0.01081475 -0.01118603 -0.01154707 -0.01189874 -0.01223979 -0.01256854 -0.01288328 -0.01318111
 -0.01346093 -0.01372023 -0.01396026 -0.01418028 -0.01438445 -0.01457372 -0.01475372 -0.01492608 -0.01509532 -0.01526275
 -0.01542957 -0.01559635 -0.01576092 -0.01592324 -0.01607988 -0.01623067 -0.01637292 -0.01650655 -0.01662991 -0.01674275
 -0.01684312 -0.01693095 -0.01700455 -0.01706526 -0.01711451 -0.01715442 -0.0171891 -0.01721808 -0.01724325 -0.01726096
 -0.01726947 -0.01726592 -0.01724827 -0.01721664 -0.01717067 -0.01711074 -0.01703688 -0.01694899 -0.01684668 -0.01673341
 -0.0166092 -0.01648191 -0.01635188 -0.01622545 -0.01610249 -0.01598446 -0.01587128 -0.01576299 -0.01566043 -0.01556604
 -0.01548051 -0.0154069 -0.01534393 -0.015292 -0.01524735 -0.01520715 -0.01516689 -0.01512273 -0.01507225 -0.01501322
 -0.01494564 -0.01486963 -0.01478295 -0.01468597 -0.01457182 -0.0144397 -0.01428408 -0.01410417 -0.01390405 -0.01368411
 -0.01345586 -0.01321969 -0.01298433 -0.01274898 -0.01251428 -0.01227973 -0.01204335 -0.01180703 -0.01157327 -0.01134488
 -0.01112764 -0.01092106 -0.01072786 -0.01054322 -0.01036496 -0.0101885 -0.01001041 -0.009831363 -0.009650003 -0.009471798
 -0.009297351 -0.00913263 -0.008978507 -0.008838789 -0.008713967 -0.00860362 -0.008507614 -0.008420539 -0.008342111 -0.008267094
 -0.008196253 -0.008130485 -0.008070821 -0.008021827 -0.007981738 -0.007950268 -0.007922502 -0.007891405 -0.007853127 -0.007800133
 -0.007734309 -0.007653045 -0.007564488 -0.007470458 -0.007382321 -0.007303821 -0.007243445 -0.007204512 -0.007186141 -0.007189483
 -0.00720481 -0.007231504 -0.007260693 -0.007292056 -0.007325101 -0.007360145 -0.007400524 -0.007445693 -0.007494879 -0.007546736
 -0.00759661 -0.007643695 -0.007684403 -0.007717642 -0.007741032 -0.007751836 -0.007746281 -0.007723049 -0.007678645 -0.007617788
 -0.007540513 -0.007456087 -0.007367504 -0.007281091 -0.007199251 -0.007122127 -0.007050234 -0.006981308 -0.00691525 -0.006849614
 -0.006784243 -0.006715307 -0.006642529 -0.006561241 -0.006471915 -0.006373841 -0.006269051 -0.00616342 -0.006059072 -0.005964119
 -0.005877757 -0.005803349 -0.00573642 -0.005673829 -0.005611232 -0.005543929 -0.005471667 -0.005392628 -0.005309524 -0.005223158
 -0.005134355 -0.005043736 -0.004949727 -0.004852097 -0.004750352 -0.004644318 -0.004535932 -0.004425273 -0.004313096 -0.004199059
 -0.004079846 -0.003954753 -0.003818162 -0.003669997 -0.003506389 -0.00332916 -0.003139712 -0.00294151 -0.00274039 -0.002538865
 -0.002342452 -0.002150138 -0.001963034 -0.001779226 -0.00159652 -0.001419493 -0.001247252 -0.001092846 -0.0009587424 -0.00085635
 -0.0007887791 -0.0007535981 -0.0007515104 -0.0007686619 -0.0008043453 -0.0008465745 -0.0008952214 -0.0009456638 -0.0009975714 -0.001047213
 -0.00109303 -0.00112764 -0.001150115 -0.001154178 -0.001141144 -0.001110032 -0.001063122 -0.001002321 -0.0009299121 -0.0008477034
 -0.0007587378 -0.0006650091 -0.0005684028 -0.0004706166 -0.0003695748 -0.0002651243 -0.0001550649 -3.836659E-05 8.086089E-05 0.0002027763
 0.0003169131 0.0004227178 0.0005120369 0.0005852455 0.000644096 0.0006904308 0.0007354104 0.00078082 0.0008394014 0.0009102061
 0.000998312 0.001099619 0.001210172 0.001325713 0.001439505 0.00155062 0.001655465 0.001756825 0.001854383 0.001953843
 0.002056639 0.002169162 0.002293468 0.002432069 0.002586388 0.002751477 0.002927336 0.00310492 0.003283731 0.003457996
 0.003627815 0.003793176 0.00395444 0.004113712 0.004271071 0.004427893 0.00458407 0.00474018 0.004895723 0.005050619
 0.005203092 0.005351778 0.005493255 0.005624532 0.005743004 0.005845441 0.005934636 0.006009507 0.006078992 0.006144712
 0.006215153 0.006292304 0.006378112 0.006473143 0.006575329 0.006684572 0.006800501 0.006923133 0.007053012 0.007189726
 0.007331147 0.007476487 0.007621611 0.007766312 0.007907888 0.008046854 0.008183016 0.008316485 0.008448311 0.008575429
 0.008696755 0.008806509 0.008900051 0.008978039 0.009034847 0.009093706 0.009155913 0.00925968 0.009415234 0.009619348
 0.00987607 0.01013258 0.010386 0.01059421 0.01075694 0.01086382 0.01091792 0.01093238 0.01091138 0.01087777
 0.01083291 0.01079238 0.01075353 0.0107191 0.0106856 0.01064951 0.01060962 0.01056287 0.01051192 0.01045647
 0.01040241 0.01035104 0.01031031 0.0102821 0.01027381 0.0102876 0.01032366 0.01038319 0.01045356 0.01053418
 0.01060637 0.01066951 0.01071181 0.010734 0.01073516 0.01071603 0.01067865 0.01062351 0.01055135 0.01046592
 0.01037128 0.01027797 0.01019906 0.01014574 0.01013455 0.01016197 0.01023542 0.01033138 0.0104439 0.01054857
 0.01063536 0.01070257 0.01074548 0.01078781 0.01083106 0.01090054 0.01099825 0.0111246 0.01127835 0.01143624
 0.01159707 0.01174 0.011868 0.0119809 0.01208406 0.01219173 0.01230632 0.01243989 0.01258935 0.01275631
 0.01293549 0.01312274 0.01331488 0.01350931 0.01370303 0.01389544 0.01407971 0.01425427 0.01441218 0.01455066
 0.01467445 0.01478247 0.01489483 0.01501268 0.01515646 0.01532618 0.01552171 0.01573975 0.01595676 0.01617
 0.016354 0.01651228 0.01663974 0.01674422 0.01683873 0.01692586 0.01701644 0.01710368 0.01718504 0.01725552
 0.01730797 0.01735233 0.01738848 0.01743572 0.01750068 0.01758968 0.0177077 0.01783724 0.01797772 0.01810516
 0.01821763 0.0183099 0.01838247 0.0184491 0.01850978 0.01857197 0.01863215 0.01867848 0.01870969 0.0187137
 0.01869728 0.01866706 0.01862993 0.01860108 0.01857371 0.01855045 0.01851317 0.01845127 0.01835299 0.01820838
 0.01802251 0.0177935 0.01753434 0.01724713 0.01694123 0.01661796 0.01628282 0.01593615 0.01558507 0.01522996
 0.01487865 0.01453097 0.01418923 0.01385277 0.01351932 0.01318987 0.01286531 0.01254832 0.01224468 0.01195549
 0.01168476 0.01143206 0.01119778 0.01098321 0.01078962 0.01061659 0.01046637 0.0103295 0.01020515 0.01007867
 0.009946824 0.009801974 0.009642175 0.009470024 0.009285401 0.009096386 0.008903104</values></Ydata></AB><ScSm><Ydata ylabel="Single channel"><values byteorder="INTEL" format="FLOAT32" numvalues="1814"> 0.08638345 0.08649001 0.08661163 0.08675981 0.08692691 0.08709323 0.08724371 0.08737724 0.0874992 0.08760901
 0.08770445 0.08779809 0.08791494 0.08806807 0.08824332 0.08840994 0.08854288 0.08864346 0.08874284 0.0888719
 0.08901849 0.08912611 0.08914773 0.08909778 0.08904411 0.08904716 0.08912051 0.08926535 0.08950946 0.08984312
 0.09012941 0.09019272 0.09003854 0.08988526 0.08992098 0.09011389 0.09030359 0.09037915 0.09032147 0.09018675
 0.09013118 0.09036444 0.09095995 0.09169641 0.09212505 0.09183012 0.09070687 0.08911006 0.08776768 0.08740056
 0.08820295 0.08962569 0.09078696 0.09118368 0.09096371 0.09054843 0.09019267 0.08997965 0.09001736 0.09041999
 0.09112369 0.09181152 0.09203707 0.09151854 0.09045672 0.08949856 0.0892089 0.08963293 0.09049267 0.09152326
 0.09222426 0.09161159 0.08908971 0.08577025 0.08412326 0.08569494 0.08948967 0.09300587 0.09451359 0.09396695
 0.09227773 0.09051187 0.08961125 0.09007119 0.0916158 0.09347293 0.09498841 0.09580207 0.09568705 0.09465581
 0.09317118 0.09194799 0.09155577 0.09225754 0.09390411 0.09576923 0.09683876 0.09661069 0.09547144 0.09419419
 0.09337059 0.09338254 0.09442744 0.09628149 0.09832418 0.09999913 0.1011034 0.1016596 0.101775 0.1016196
 0.1013441 0.101062 0.1009686 0.10124 0.1016935 0.1018243 0.1013685 0.1006593 0.1002896 0.100499
 0.1009685 0.1012057 0.1010335 0.1004979 0.09936836 0.09725252 0.0944055 0.09185056 0.0903786 0.08999488
 0.09057528 0.09220395 0.09438319 0.09579121 0.09561548 0.0946494 0.09443186 0.09558121 0.09740946 0.09892456
 0.09979384 0.1003938 0.1012237 0.1023416 0.1032249 0.103157 0.1019583 0.100439 0.09986033 0.1007156
 0.1022509 0.1033916 0.1038718 0.1041975 0.1047544 0.1052485 0.1049623 0.1035231 0.1015475 0.1004254
 0.1011737 0.1034281 0.1056349 0.1062262 0.1047346 0.1020444 0.09965067 0.0985855 0.09901839 0.1006837
 0.1032489 0.1061549 0.1085298 0.109632 0.1093629 0.1082435 0.1068488 0.1052736 0.1033353 0.1014079
 0.1006448 0.1019002 0.1046313 0.1073292 0.1089127 0.1093296 0.1089452 0.1078103 0.1057546 0.103141
 0.1012045 0.1011375 0.1027316 0.1044305 0.1049862 0.1046269 0.1043446 0.1045382 0.104798 0.104738
 0.1045673 0.1047887 0.1055582 0.1064888 0.1070623 0.107107 0.1068377 0.106552 0.1063483 0.1060677
 0.1055379 0.1049547 0.1048689 0.1056058 0.1068272 0.1078715 0.1084069 0.1085632 0.1085311 0.1082404
 0.1074848 0.1063321 0.1053177 0.1050627 0.1056702 0.1066497 0.1074394 0.1078203 0.1078554 0.1076788
 0.1074095 0.1071188 0.1068411 0.1066554 0.1066769 0.1069041 0.1071701 0.1073073 0.1072848 0.1071523
 0.1069341 0.1066293 0.1062758 0.1059708 0.1058117 0.1058185 0.1059286 0.1060602 0.1061486 0.1061359
 0.1059916 0.105754 0.1055051 0.1052957 0.105128 0.1050036 0.1049434 0.1049506 0.1049831 0.1049846
 0.1049313 0.1048375 0.1047199 0.1045796 0.104419 0.1042609 0.1041401 0.1040785 0.104064 0.1040582
 0.10404 0.1040317 0.1040538 0.1040696 0.1040171 0.1038894 0.1037454 0.1036452 0.1036019 0.1035918
 0.1035812 0.1035387 0.103439 0.1032795 0.103103 0.102987 0.1029861 0.1030905 0.1032504 0.1034184
 0.1035569 0.1036385 0.1036661 0.1036719 0.1036794 0.1036837 0.1036733 0.1036573 0.1036655 0.1037275
 0.1038451 0.103984 0.1041012 0.1041758 0.1042119 0.1042329 0.1042773 0.1043666 0.1044688 0.1045236
 0.104518 0.104506 0.1045432 0.1046237 0.1046956 0.1047235 0.1047226 0.1047348 0.1047821 0.1048509
 0.1049173 0.1049772 0.1050465 0.1051357 0.1052248 0.10527 0.1052458 0.1051783 0.1051197 0.1050949
 0.1050928 0.1051037 0.1051363 0.1051942 0.1052554 0.1052895 0.1052881 0.1052714 0.1052627 0.1052608
 0.1052442 0.1051987 0.1051324 0.1050636 0.1050049 0.1049587 0.1049187 0.1048729 0.1048097 0.1047257
 0.1046258 0.1045166 0.1044017 0.1042857 0.1041839 0.1041184 0.1040916 0.1040654 0.1039838 0.103825
 0.1036242 0.1034389 0.1032984 0.1031881 0.1030753 0.1029411 0.1027903 0.1026388 0.1024991 0.1023752
 0.1022654 0.102166 0.1020785 0.1020139 0.1019828 0.1019758 0.1019614 0.101913 0.101835 0.1017565
 0.1017024 0.1016776 0.1016732 0.1016789 0.1016914 0.1017158 0.1017578 0.1018101 0.1018565 0.1018909
 0.1019264 0.1019809 0.1020649 0.10218 0.1023159 0.1024478 0.1025534 0.1026375 0.10273 0.102853
 0.1030022 0.1031622 0.1033275 0.1035022 0.1036884 0.1038857 0.1040981 0.1043332 0.1045931 0.1048699
 0.1051503 0.1054238 0.1056903 0.1059616 0.1062537 0.1065748 0.1069175 0.1072645 0.1076032 0.1079357
 0.1082733 0.1086216 0.1089744 0.1093267 0.1096861 0.1100637 0.1104583 0.1108568 0.1112494 0.1116374
 0.1120277 0.1124243 0.1128272 0.1132349 0.1136497 0.1140756 0.1145083 0.1149301 0.1153236 0.1156913
 0.1160546 0.1164356 0.1168409 0.1172593 0.1176689 0.118051 0.118407 0.1187583 0.119123 0.1194954
 0.1198594 0.1202165 0.1205896 0.1209935 0.12141 0.1217986 0.1221343 0.122431 0.1227249 0.1230358
 0.1233508 0.1236459 0.1239175 0.1241833 0.1244573 0.1247363 0.1250164 0.1253074 0.1256186 0.1259379
 0.1262394 0.1265131 0.1267717 0.1270276 0.1272752 0.1274999 0.1276965 0.1278763 0.1280607 0.1282642
 0.1284821 0.1286999 0.1289155 0.1291436 0.1293958 0.1296698 0.1299613 0.1302756 0.130614 0.1309614
 0.1313009 0.1316402 0.1320028 0.1323906 0.1327698 0.1331064 0.1334019 0.1336838 0.1339704 0.1342655
 0.1345786 0.1349259 0.1353103 0.1357123 0.1361048 0.1364713 0.1368161 0.1371601 0.1375209 0.137888
 0.138227 0.1385142 0.1387608 0.1390004 0.1392579 0.1395345 0.1398136 0.1400777 0.1403174 0.1405269
 0.1406915 0.1407906 0.1408198 0.1408003 0.1407553 0.1406793 0.1405406 0.1403095 0.1399745 0.1395319
 0.1389731 0.1382945 0.1375215 0.1367202 0.1359863 0.1354181 0.1350927 0.1350538 0.1353064 0.1358102
 0.1364799 0.1372012 0.1378598 0.1383611 0.1386314 0.1386211 0.1383187 0.1377609 0.1370176 0.1361627
 0.1352577 0.1343502 0.1334799 0.1326951 0.1320798 0.1317608 0.1318764 0.1325249 0.133728 0.1354128
 0.1374098 0.1394901 0.1414457 0.1431642 0.1446388 0.1459181 0.1470557 0.1480945 0.14907 0.150006
 0.1509063 0.1517594 0.152554 0.1532875 0.1539594 0.1545622 0.15508 0.155495 0.1557999 0.1560057
 0.1561389 0.1562292 0.1563042 0.1563893 0.1564948 0.1565935 0.1566193 0.156502 0.156209 0.155762
 0.155237 0.1547693 0.1545528 0.1547983 0.1556453 0.1570749 0.1588993 0.1608492 0.1626932 0.1642995
 0.1656259 0.1666888 0.1675403 0.1682466 0.1688647 0.1694319 0.16997 0.1704889 0.1709899 0.1714725
 0.171941 0.1724035 0.1728664 0.17333 0.1737892 0.1742398 0.1746844 0.1751305 0.1755834 0.1760423
 0.1765023 0.1769582 0.1774088 0.177859 0.1783122 0.1787621 0.1791976 0.1796174 0.1800325 0.1804539
 0.1808847 0.1813217 0.1817575 0.1821806 0.1825807 0.1829573 0.1833182 0.1836726 0.1840265 0.1843828
 0.1847401 0.1850936 0.1854397 0.1857813 0.1861242 0.1864699 0.1868115 0.1871407 0.1874573 0.18777
 0.1880883 0.1884135 0.1887402 0.1890621 0.1893788 0.1896967 0.1900252 0.1903675 0.1907162 0.1910585
 0.1913874 0.191706 0.1920225 0.1923413 0.1926629 0.1929871 0.1933155 0.193649 0.1939854 0.1943215
 0.1946551 0.1949856 0.1953133 0.1956398 0.1959665 0.1962928 0.1966163 0.1969358 0.1972534 0.1975727
 0.1978956 0.1982194 0.1985385 0.1988501 0.199156 0.1994583 0.1997562 0.2000493 0.2003412 0.200636
 0.2009352 0.2012382 0.2015432 0.2018477 0.2021507 0.2024534 0.2027578 0.2030634 0.2033691 0.2036734
 0.2039762 0.2042793 0.2045859 0.2048965 0.2052085 0.2055188 0.2058255 0.2061266 0.2064219 0.2067153
 0.2070123 0.207315 0.2076218 0.2079295 0.2082354 0.2085396 0.2088445 0.2091507 0.2094558 0.2097574
 0.2100551 0.2103501 0.210645 0.2109418 0.2112397 0.2115379 0.2118387 0.2121435 0.2124485 0.2127499
 0.2130489 0.2133476 0.2136451 0.2139406 0.2142355 0.2145305 0.2148245 0.215117 0.2154079 0.2156973
 0.2159865 0.2162772 0.2165685 0.2168584 0.2171451 0.2174266 0.217703 0.2179787 0.2182587 0.2185444
 0.2188357 0.2191314 0.2194267 0.2197165 0.2200031 0.2202928 0.2205872 0.2208838 0.2211817 0.2214819
 0.2217854 0.2220915 0.2223962 0.2226939 0.2229839 0.2232705 0.2235549 0.223836 0.2241162 0.2243992
 0.2246839 0.2249679 0.2252526 0.2255392 0.2258277 0.2261195 0.2264164 0.2267174 0.2270214 0.2273281
 0.2276343 0.2279378 0.2282423 0.2285513 0.2288629 0.2291743 0.2294849 0.229793 0.2300988 0.2304078
 0.2307226 0.2310385 0.2313526 0.2316679 0.2319862 0.2323067 0.2326299 0.2329541 0.2332745 0.2335921
 0.2339117 0.2342313 0.2345461 0.2348588 0.2351743 0.2354919 0.2358108 0.2361313 0.2364507 0.236769
 0.2370925 0.2374211 0.237746 0.2380675 0.2383946 0.2387279 0.2390607 0.2393918 0.2397198 0.2400398
 0.2403544 0.2406721 0.2409925 0.2413107 0.2416278 0.2419428 0.2422498 0.2425508 0.2428502 0.2431371
 0.2433869 0.2435472 0.2434698 0.2428311 0.2410899 0.237504 0.231277 0.2218747 0.2093463 0.1944148
 0.1782764 0.1622279 0.1473174 0.1342038 0.1232362 0.1145899 0.1083653 0.1046812 0.1037445 0.1059431
 0.1119709 0.1224144 0.1362413 0.1495006 0.1568076 0.1554245 0.1477429 0.1391146 0.133497 0.1315185
 0.1318361 0.133128 0.134872 0.1371953 0.1404153 0.1445711 0.1493807 0.154706 0.1608159 0.1679776
 0.1759379 0.1840194 0.1916879 0.1988965 0.2058862 0.2127672 0.2193537 0.2253439 0.2305528 0.2349753
 0.2387266 0.2419702 0.2448548 0.2474778 0.2498976 0.2521421 0.2541689 0.2558495 0.2570441 0.2577132
 0.2579665 0.2580112 0.2580397 0.2581492 0.2583542 0.2586471 0.2590243 0.2594782 0.2599967 0.260568
 0.2611733 0.2617897 0.2624026 0.2630032 0.2635807 0.2641289 0.2646511 0.2651499 0.2656232 0.2660726
 0.2665017 0.2669119 0.2673083 0.2677013 0.2680946 0.2684828 0.2688614 0.2692282 0.2695788 0.26991
 0.270222 0.2705161 0.270797 0.2710758 0.2713594 0.2716411 0.2719118 0.2721717 0.2724264 0.2726815
 0.2729419 0.2732076 0.2734725 0.2737323 0.2739873 0.2742374 0.2744834 0.27473 0.2749796 0.2752275
 0.2754705 0.275713 0.2759592 0.276207 0.276453 0.2766972 0.2769445 0.277204 0.2774807 0.2777665
 0.2780499 0.2783301 0.2786131 0.2788988 0.2791826 0.2794639 0.2797464 0.2800326 0.2803238 0.2806165
 0.2808992 0.2811592 0.2813936 0.2816136 0.2818384 0.2820811 0.2823384 0.2825955 0.282843 0.2830856
 0.283332 0.2835856 0.2838444 0.2841034 0.2843591 0.2846166 0.2848867 0.2851736 0.2854728 0.2857803
 0.2860936 0.2864063 0.2867134 0.2870195 0.2873307 0.2876419 0.2879426 0.2882344 0.2885355 0.2888672
 0.2892311 0.2896034 0.2899548 0.2902785 0.2905914 0.2909149 0.2912595 0.2916159 0.2919506 0.2922301
 0.292466 0.2927212 0.2930522 0.293456 0.2938817 0.2942842 0.2946532 0.2950028 0.2953452 0.2956785
 0.2959887 0.2962649 0.2965178 0.2967888 0.2971236 0.2975255 0.2979466 0.2983364 0.2986832 0.2990019
 0.2993088 0.2996155 0.2999116 0.3001482 0.3002873 0.3003864 0.3005872 0.3009821 0.3015133 0.3020336
 0.3024521 0.3027904 0.3031085 0.3034286 0.3037422 0.3040201 0.3041781 0.3041214 0.3039121 0.3038258
 0.3041254 0.3047947 0.3055745 0.3062269 0.3066931 0.3070347 0.3073252 0.3076017 0.307844 0.3079756
 0.3079448 0.307844 0.3078986 0.3082625 0.308844 0.309404 0.309806 0.3100966 0.3103729 0.3106721
 0.3109502 0.311066 0.3108459 0.3103213 0.3098844 0.3100327 0.3108885 0.3120579 0.3130212 0.3135944
 0.3139327 0.3141703 0.3142244 0.3139529 0.3133318 0.3124679 0.3116465 0.3113701 0.3120287 0.313399
 0.3147381 0.3155259 0.3159093 0.3163274 0.3169404 0.3175638 0.317973 0.3181073 0.3180281 0.3177835
 0.3173855 0.3169659 0.3168656 0.317392 0.3184612 0.3196182 0.3204638 0.3209677 0.3212879 0.3213105
 0.3205285 0.318645 0.3163648 0.3152168 0.3161957 0.3187155 0.321245 0.3228202 0.3235684 0.3239931
 0.3243194 0.3244309 0.3238494 0.3218912 0.3185977 0.3155491 0.3149042 0.3172713 0.321027 0.3238911
 0.3246682 0.3234916 0.3212413 0.3191357 0.3182999 0.3191564 0.3212492 0.3237092 0.325774 0.3269952
 0.3272727 0.3268144 0.3260491 0.3255073 0.3254867 0.3256055 0.3250427 0.3236054 0.3221044 0.321106
 0.3198904 0.3176262 0.3152224 0.3147592 0.3169157 0.3199921 0.3218847 0.3222392 0.3220621 0.3216882
 0.3199627 0.3157659 0.3100919 0.3060072 0.3060248 0.3095986 0.3136652 0.3156499 0.3154983 0.3148006
 0.3145524 0.3141006 0.3121172 0.3084805 0.305003 0.3038092 0.3049551 0.3063436 0.3060439 0.3036489
 0.299267 0.2930328 0.286688 0.2839028 0.2870366 0.2942004 0.3009298 0.30404 0.3026189 0.2966937
 0.2875414 0.2790532 0.2759852 0.2795705 0.2860784 0.2904236 0.2901744 0.285654 0.2778637 0.2680321
 0.2586676 0.2532452 0.2539847 0.2600692 0.2678369 0.272396 0.2701261 0.2615646 0.2520798 0.247829
 0.2500003 0.2540601 0.2550946 0.2524242 0.2485726 0.2458046 0.2448655 0.2454504 0.2465611 0.2472726
 0.2474403 0.2464352 0.2418478 0.2321678 0.2208074 0.2143011 0.2155677 0.2215528 0.228185 0.2344705
 0.2402736 0.243392 0.2419206 0.2380717 0.236769 0.2403771 0.2464319 0.2507543 0.2516607 0.2506322
 0.2495708 0.2485112 0.2465757 0.2444459 0.2443918 0.2474586 0.251845 0.2548677 0.2556666 0.2552092
 0.2544786 0.2536548 0.2526153 0.2513402 0.2498766 0.2483535 0.2469657 0.2457594 0.2446005 0.2434307
 0.2422047 0.2403542 0.2368306 0.2314778 0.2262078 0.2236947 0.2245794 0.2270664 0.2295191 0.2316499
 0.2323418 0.2287616 0.2200706 0.2107367 0.2074636 0.2127159 0.2227491 0.2317808 0.2365272 0.2366074
 0.2326177 0.2258888 0.219947 0.21989 0.2284404 0.243084 0.2583231 0.2703267 0.2783819 0.2827587
 0.2832597 0.2803503 0.2764228 0.2748617 0.2777335 0.2844352 0.2921599 0.2971805 0.2964635 0.2901819
 0.283419 0.2830844 0.291016 0.3015018 0.3075815 0.3083562 0.3079507 0.3090084 0.310437 0.3110145
 0.3119231 0.3147268 0.3187646 0.321687 0.3215464 0.3176061 0.3103313 0.3019598 0.2961548 0.2951283
 0.2972391 0.2989123 0.2983299 0.2954872 0.2899458 0.2817954 0.274464 0.2728892 0.2779162 0.2850297
 0.2895006 0.2907803 0.2910529 0.2912634 0.2899882 0.2857956 0.2797482 0.2749392 0.2734472 0.2743673
 0.2753039 0.2749846 0.2734821 0.2707107 0.2663902 0.2615895 0.2588628 0.2600114 0.2641801 0.2687007
 0.2715435 0.2725538 0.2726762 0.2727231 0.2729391 0.2731636 0.2732347 0.2735522 0.2751002 0.2783974
 0.2825717 0.2861347 0.2886701 0.2911486 0.2945035 0.2984356 0.3018082 0.3038749 0.3049316 0.3059494
 0.3076993 0.3101108 0.3123346 0.3134928 0.3135446 0.3134415 0.3142804 0.3162684 0.3186449 0.3205667
 0.3218237 0.3227187 0.323584 0.3245111 0.3253108 0.3256731 0.3255749 0.3255424 0.3262548 0.3278224
 0.3296373 0.3309762 0.3315909 0.3316801 0.3314878 0.3310793 0.3304488 0.3296984 0.3290421 0.3286532
 0.3285456 0.3286035 0.3286915 0.3287237 0.3286732 0.3285642 0.328453 0.3283928 0.3284154 0.3285506
 0.3288297 0.3292501 0.329762 0.3303104 0.3308645 0.3313842 0.33179 0.3319934 0.3319426 0.3316167
 0.3309917 0.3300365 0.3287255 0.3270303 0.3249218 0.3224691 0.3200114 0.3181948 0.3177046 0.3188322
 0.3212475 0.3241882 0.326892 0.3289267 0.3302364 0.3309827 0.3313634 0.3315203 0.3315288 0.3314182
 0.3311977 0.3308814 0.3304996 0.3300899 0.3296866 0.3293192 0.3290096 0.3287641 0.3285676 0.3283858
 0.3281747 0.3278978 0.3275399 0.3271044 0.3265966 0.3260054 0.3253014 0.3244562 0.3234713 0.3223909
 0.3212812 0.3201911 0.319126 0.3180514 0.3169199 0.3156859 0.314288 0.3126469 0.3107401 0.3086969
 0.3067601 0.3050991 0.3036714 0.3022888 0.3007892 0.2991194 0.2972975 0.2953612 0.293353 0.2913128
 0.2892612 0.2871927 0.2850829 0.2829044 0.2806439 0.278309 0.2759131 0.2734577 0.270936 0.2683445
 0.2656665 0.2628368 0.2597309 0.2561998 0.2521227 0.2474429 0.2421802 0.2364371 0.2303937 0.224279
 0.2183193 0.2126963 0.2075392 0.2029407 0.1989758 0.1957101 0.1931946 0.1914589 0.1905131 0.1903573
 0.1909823 0.1923558 0.1944082 0.1970282 0.2000698 0.2033626 0.2067232 0.2099778 0.2130063 0.2157891
 0.218398 0.2209197 0.223381 0.2257476 0.2279734 0.2300314 0.231904 0.2335692 0.2350102 0.2362312
 0.237256 0.2381124 0.2388183 0.2393791 0.2397959 0.2400778 0.2402546 0.2403817 0.2405312 0.2407734
 0.2411583 0.2417039 0.2424007 0.24323 0.2441804 0.2452461 0.2464151 0.2476597 0.2489394 0.2502158
 0.2514754 0.2527394 0.2540529 0.2554649 0.257015 0.2587272 0.2606018 0.2626084 0.26468 0.2667177
 0.2686123 0.2702751 0.2716604 0.272767 0.2736222 0.2742606 0.2747101 0.2749917 0.2751219 0.2751119
 0.2749713 0.2747184 0.2743786 0.2739678 0.2734815 0.2729045 0.2722315 0.2714777 0.2706761 0.2698621
 0.2690591 0.2682778 0.2675208 0.2667848 0.2660638 0.2653555 0.2646587 0.2639691 0.2632829 0.2626034
 0.2619317 0.2612503 0.2605194 0.2596873 0.2587062 0.2575461 0.2561995 0.2546755 0.2529927 0.2511745
 0.2492421 0.2472134 0.2451073 0.2429416 0.2407213 0.2384335 0.2360521 0.233554 0.2309477 0.2282963
 0.2256977 0.2232317 0.2209279 0.2187761 0.2167512 0.21483 0.2130004 0.2112579 0.2095951 0.2080018
 0.2064732 0.2050107 0.2036207 0.2023168 0.2011144 0.2000249 0.1990593 0.1982303 0.1975363 0.1969564
 0.196466 0.1960485 0.1957003 0.195442 0.1953115 0.1953174 0.1954052 0.195487 0.1954991 0.1954362
 0.1953461 0.1952899 0.1952943 0.1953424 0.1953977 0.1954077 0.1952884 0.194938 0.1942672 0.1932086
 0.1917241 0.189833 0.1876277 0.1852564 0.1828949 0.1807075 0.1788068 0.1772455 0.1760331 0.1751316
 0.174454 0.1739147 0.1734937 0.1732439 0.1732389 0.1734879 0.173864 0.1741558 0.1742541 0.1742726
 0.1744454 0.174925 0.1756903 0.176598 0.1774863 0.1782528 0.1788611 0.179302 0.1795883 0.1797703
 0.1799005 0.1799809 0.179977 0.1798621 0.1796258 0.1792733 0.1788266 0.1782945 0.1776527 0.1768811
 0.1759907 0.1749973 0.1739065 0.1727226 0.1714253 0.1699765 0.1684267 0.1669914 0.1659683 0.1655768
 0.1658497 0.1666226 0.1676439 0.1687361 0.1698169 0.1707838 0.1715208 0.1720891 0.1728062 0.1740355
 0.1758804 0.1780782 0.1801828 0.1818512 0.1829551 0.1834833 0.183462 0.1829595 0.1820328 0.1806709
 0.178881 0.176773 0.1744882 0.1721449 0.1698825 0.1678292 0.1660354 0.1645229 0.1633064 0.1623821
 0.161805 0.1613063 0.1593464 0.1536479 0.1444259 0.1364803 0.1355673 0.1421952 0.1509264 0.1562285
 0.1571737 0.1560926 0.1549046 0.1540129 0.1533433 0.1529707 0.1529517 0.1531824 0.1534414 0.1534904
 0.1532195 0.1526435 0.1516574 0.1497967 0.1462149 0.139991 0.1308168 0.1196255 0.1083859 0.0990535
 0.09261012 0.08886547 0.08687675 0.0856043 0.08450606 0.08372393 0.08373831 0.0848738 0.08711976 0.09027341
 0.09408167 0.09820971 0.1021975 0.1056101 0.1082651 0.1102395 0.1116572 0.1125638 0.1129883 0.1129989
 0.1126682 0.1120563 0.1112269 0.1102227 0.1090328 0.107637 0.1060995 0.1046127 0.1034188 0.1026492
 0.1022405 0.1020297 0.1019057 0.1018407 0.101831 0.1018711 0.1019625 0.1021121 0.1023312 0.1026288
 0.1029819 0.1033287 0.103616 0.1038364 0.1040085 0.1041344 0.104179 0.1040956 0.1038993 0.1036826
 0.1034832 0.1031554 0.1024803 0.1014392 0.1003225 0.09954703 0.09936836 0.09972659 0.1003194 0.1008316
 0.1011307 0.1012757 0.101369 0.1014128</values></Ydata></ScSm><ScRf><Ydata ylabel="Single channel"><values byteorder="INTEL" format="FLOAT32" numvalues="1820"> 0.0704889 0.0706235 0.07074034 0.07084119 0.07093463 0.07103291 0.07114559 0.07127294 0.07140693 0.07153744
 0.07165782 0.07176751 0.071869 0.07196122 0.07204325 0.07212614 0.07223017 0.07236354 0.0725109 0.07264575
 0.07275033 0.07282931 0.07291029 0.07301947 0.0731466 0.07324184 0.0732611 0.0732141 0.07316045 0.0731557
 0.07321428 0.07333697 0.07354456 0.0738261 0.07406609 0.07411835 0.07398769 0.07385593 0.07388075 0.07403806
 0.07419609 0.07426235 0.0742199 0.07411419 0.07407331 0.0742693 0.07476249 0.07537166 0.07572892 0.07549212
 0.07457307 0.07326159 0.07215702 0.07185493 0.07251661 0.07368912 0.07464521 0.07497074 0.07478873 0.07444711
 0.07415632 0.07398519 0.07402158 0.07435649 0.07493517 0.07549827 0.07568185 0.07525526 0.07438263 0.07359666
 0.07336472 0.07372501 0.07444628 0.07530627 0.07588954 0.07538408 0.07329947 0.07055439 0.06918979 0.07048614
 0.07362489 0.07653934 0.07779507 0.0773491 0.07595453 0.0744957 0.07375406 0.07413912 0.07542098 0.07695948
 0.07821374 0.07888781 0.07879579 0.07794712 0.07672173 0.07570973 0.0753852 0.07597037 0.0773436 0.0789007
 0.0797966 0.07961254 0.0786701 0.07761326 0.07693353 0.07694623 0.07781488 0.07935556 0.081054 0.08244595
 0.08336058 0.08381814 0.08391201 0.08378726 0.08357071 0.08335456 0.08329535 0.08353285 0.08391286 0.08401944
 0.08363928 0.08305258 0.08275034 0.08292917 0.08332373 0.08352661 0.08339089 0.08295441 0.08202669 0.08028287
 0.07793226 0.07582029 0.07460223 0.07428487 0.07476869 0.07612678 0.07794714 0.07912906 0.07899164 0.07819133
 0.07801109 0.07897121 0.0805016 0.0817738 0.08250617 0.08300906 0.0836997 0.08463222 0.08537665 0.08533533
 0.08435389 0.08310439 0.08263834 0.08336732 0.08466233 0.08562822 0.08604451 0.08633293 0.08681387 0.08724215
 0.08702229 0.08584642 0.08422823 0.08332214 0.08397134 0.08587299 0.08773746 0.08826262 0.08705791 0.08485441
 0.08289298 0.08203404 0.08242401 0.08384834 0.08603434 0.08851631 0.09056398 0.09155193 0.09138951 0.09050763
 0.08938843 0.08811468 0.08653791 0.08497839 0.08441047 0.08555089 0.08793615 0.09029154 0.0917078 0.09214421
 0.09190725 0.09103283 0.08937214 0.08723555 0.08567695 0.08571059 0.0871563 0.08868888 0.08924868 0.08903317
 0.08888879 0.0891545 0.08947675 0.0895227 0.08947341 0.08976583 0.09053615 0.09144917 0.09205613 0.09220879
 0.09209213 0.09196156 0.09190048 0.09177111 0.09142667 0.09103996 0.09109017 0.09185739 0.09304447 0.09407479
 0.09466036 0.09491637 0.09501058 0.09488004 0.09434018 0.09344871 0.09268029 0.0925888 0.09326741 0.0942767
 0.09511024 0.09557241 0.09572659 0.09569976 0.09559776 0.09548014 0.09537579 0.09535424 0.09551457 0.09585151
 0.0962158 0.09646218 0.0965692 0.09658358 0.09652279 0.09637956 0.09618746 0.09603903 0.09602496 0.09616074
 0.09638767 0.09663439 0.09684572 0.09696819 0.09696846 0.09687781 0.09677374 0.09670911 0.09668893 0.09671036
 0.09678432 0.09690853 0.09704715 0.09715499 0.09721425 0.0972365 0.09723589 0.09721595 0.09718259 0.09715551
 0.09716143 0.09721622 0.0973089 0.09740807 0.09749806 0.09759931 0.09772737 0.09784547 0.09789504 0.09786944
 0.09782511 0.09782093 0.09787107 0.09795311 0.09803598 0.09809154 0.09809606 0.098045 0.09797643 0.09796068
 0.09804642 0.09822558 0.09845808 0.09870589 0.09893145 0.09910022 0.0992097 0.09929289 0.09937706 0.09945782
 0.09952144 0.09957603 0.09965408 0.09978761 0.0999767 0.1001833 0.1003631 0.1004976 0.1005945 0.1006784
 0.100786 0.1009362 0.1010935 0.1011972 0.1012388 0.1012797 0.101375 0.1015086 0.1016193 0.1016751
 0.1017014 0.1017458 0.1018295 0.1019373 0.1020449 0.1021469 0.1022566 0.1023825 0.1025041 0.1025768
 0.1025758 0.1025301 0.1024963 0.1025015 0.1025321 0.1025734 0.1026332 0.1027166 0.1027999 0.1028475
 0.1028503 0.1028358 0.1028369 0.1028543 0.1028585 0.1028274 0.1027707 0.1027158 0.1026816 0.1026686
 0.1026635 0.102649 0.102614 0.1025579 0.1024882 0.1024122 0.1023337 0.1022584 0.1022053 0.1021998
 0.1022402 0.102273 0.1022237 0.1020666 0.1018533 0.1016651 0.1015435 0.1014673 0.1013857 0.1012651
 0.1011092 0.1009452 0.1007968 0.1006707 0.1005598 0.1004554 0.1003581 0.1002813 0.1002387 0.1002188
 0.1001803 0.1000884 0.09995186 0.09981287 0.0997054 0.09963426 0.09958694 0.09955058 0.09951992 0.09950052
 0.0995003 0.09951247 0.09951623 0.09950118 0.09948194 0.09948397 0.09952457 0.09960654 0.09971343 0.09981025
 0.09986822 0.09989594 0.09993279 0.1000075 0.1001147 0.1002337 0.1003545 0.1004796 0.1006126 0.1007559
 0.1009145 0.1010949 0.1012996 0.1015239 0.1017569 0.1019854 0.102203 0.1024183 0.1026496 0.102909
 0.1031916 0.1034805 0.1037616 0.1040329 0.1043022 0.1045767 0.1048575 0.1051431 0.1054365 0.1057423
 0.1060594 0.1063808 0.1067015 0.1070226 0.1073473 0.1076746 0.1080001 0.108325 0.1086622 0.1090274
 0.1094148 0.1097895 0.1101165 0.1103966 0.1106656 0.1109602 0.1112905 0.1116391 0.1119741 0.112272
 0.1125393 0.1128094 0.1131073 0.1134224 0.1137291 0.1140288 0.1143539 0.1147242 0.1151116 0.1154564
 0.1157237 0.115935 0.1161443 0.116382 0.1166332 0.1168689 0.1170865 0.1173079 0.1175452 0.1177884
 0.1180298 0.1182811 0.1185541 0.1188353 0.1190958 0.1193234 0.1195303 0.11973 0.1199174 0.1200746
 0.1201914 0.1202806 0.1203735 0.1204942 0.120639 0.1207861 0.1209261 0.1210719 0.1212379 0.1214252
 0.1216302 0.1218557 0.1221026 0.1223575 0.1226061 0.122857 0.1231359 0.1234443 0.1237421 0.123987
 0.1241816 0.1243626 0.1245555 0.1247618 0.1249849 0.1252395 0.1255303 0.1258393 0.1261405 0.1264212
 0.1266915 0.1269764 0.1272907 0.1276135 0.1279002 0.1281257 0.1283105 0.1284994 0.1287221 0.1289795
 0.1292545 0.1295289 0.1297916 0.130035 0.1302445 0.1304023 0.1305063 0.1305777 0.1306362 0.1306707
 0.1306431 0.1305202 0.1302911 0.1299535 0.1294986 0.1289197 0.1282372 0.1275134 0.126843 0.1263238
 0.1260279 0.1259893 0.1262063 0.1266432 0.1272299 0.1278724 0.1284738 0.128949 0.1292257 0.1292511
 0.1290102 0.128535 0.1278867 0.1271286 0.1263129 0.1254794 0.1246597 0.1238945 0.1232622 0.1228847
 0.1228928 0.1233761 0.1243521 0.1257541 0.1274299 0.1291734 0.130798 0.132205 0.1333936 0.1344135
 0.1353167 0.1361426 0.1369205 0.1376672 0.1383821 0.1390567 0.1396886 0.1402822 0.1408358 0.1413349
 0.1417606 0.1421 0.1423499 0.1425187 0.1426227 0.1426782 0.1426992 0.1427009 0.1426935 0.142663
 0.1425642 0.1423449 0.1419803 0.1414891 0.1409379 0.1404442 0.1401732 0.1403021 0.1409462 0.1420876
 0.1435668 0.1451572 0.1466617 0.1479631 0.1490174 0.1498353 0.150468 0.1509843 0.1514403 0.1518645
 0.1522655 0.1526452 0.1530066 0.153355 0.153696 0.1540335 0.1543711 0.1547135 0.1550615 0.1554086
 0.1557483 0.1560825 0.1564205 0.1567688 0.1571234 0.157474 0.1578169 0.1581601 0.1585107 0.1588611
 0.1591955 0.1595102 0.1598196 0.1601416 0.1604817 0.1608325 0.1611808 0.1615138 0.1618254 0.1621209
 0.162411 0.1627022 0.1629928 0.1632796 0.1635633 0.1638465 0.1641295 0.1644105 0.1646903 0.1649721
 0.1652552 0.1655328 0.1657983 0.1660527 0.1663032 0.1665548 0.1668069 0.1670564 0.1673043 0.1675577
 0.1678247 0.1681042 0.1683841 0.1686504 0.1688994 0.1691384 0.1693781 0.1696239 0.1698758 0.1701302
 0.1703835 0.170634 0.1708834 0.171136 0.1713945 0.1716557 0.1719137 0.1721658 0.172414 0.1726608
 0.1729062 0.17315 0.173394 0.1736415 0.1738952 0.1741544 0.1744131 0.1746636 0.1749037 0.1751373
 0.1753704 0.1756064 0.1758463 0.1760886 0.1763304 0.1765703 0.176809 0.1770471 0.1772858 0.1775276
 0.1777737 0.1780212 0.1782662 0.1785079 0.1787495 0.1789944 0.179243 0.1794913 0.1797343 0.1799698
 0.1801997 0.1804287 0.1806618 0.1809014 0.1811449 0.1813878 0.1816276 0.181865 0.1821011 0.1823375
 0.182575 0.1828123 0.1830473 0.1832808 0.1835153 0.1837516 0.1839901 0.184232 0.1844764 0.1847193
 0.1849586 0.1851948 0.1854288 0.1856616 0.1858964 0.1861349 0.1863741 0.1866105 0.1868452 0.1870823
 0.187324 0.187568 0.1878107 0.1880505 0.1882897 0.1885296 0.1887693 0.1890094 0.1892529 0.1894994
 0.1897444 0.1899854 0.1902247 0.1904665 0.190714 0.190968 0.1912249 0.1914801 0.1917332 0.1919861
 0.1922393 0.1924936 0.1927518 0.193014 0.193277 0.1935387 0.1937973 0.1940486 0.1942898 0.1945228
 0.1947515 0.194978 0.1952039 0.1954287 0.1956504 0.1958707 0.1960956 0.1963281 0.1965659 0.1968065
 0.1970479 0.1972888 0.1975318 0.1977817 0.198037 0.1982916 0.1985429 0.1987932 0.199045 0.1992997
 0.1995573 0.1998144 0.2000703 0.2003304 0.2005977 0.2008673 0.201135 0.2014019 0.201668 0.2019327
 0.2021981 0.2024649 0.2027295 0.2029925 0.2032584 0.2035264 0.2037932 0.2040615 0.2043345 0.2046091
 0.2048834 0.2051588 0.2054329 0.2057025 0.2059711 0.2062413 0.2065101 0.2067777 0.2070507 0.2073317
 0.2076178 0.2079065 0.2081919 0.2084665 0.208733 0.2090011 0.2092726 0.2095442 0.2098169 0.2100885
 0.2103524 0.2106109 0.2108701 0.2111221 0.2113446 0.2114888 0.2114232 0.2108676 0.2093539 0.2062372
 0.2008234 0.1926465 0.1817474 0.1687544 0.1547096 0.1407452 0.1277755 0.1163718 0.1068356 0.09932024
 0.09391461 0.09071961 0.08991013 0.09182037 0.09705539 0.1061311 0.1181572 0.1297023 0.1360802 0.1348995
 0.1282294 0.1207207 0.1158201 0.1140851 0.1143565 0.115485 0.1170079 0.1190283 0.121825 0.1254411
 0.1296363 0.134285 0.1396129 0.1458519 0.152788 0.1598353 0.1665261 0.1728139 0.1789057 0.1848995
 0.1906393 0.1958662 0.2004192 0.2042925 0.2075866 0.2104428 0.2129845 0.2152877 0.2174004 0.2193528
 0.2211176 0.222589 0.2236425 0.2242363 0.2244621 0.2245039 0.2245367 0.2246496 0.224855 0.2251416
 0.2254976 0.2259086 0.2263643 0.2268621 0.2273936 0.2279416 0.2284923 0.2290364 0.2295635 0.2300671
 0.2305483 0.231007 0.23144 0.2318496 0.2322422 0.2326215 0.2329902 0.2333517 0.2337072 0.2340576
 0.2344074 0.2347559 0.2350928 0.2354088 0.2357054 0.2359879 0.2362605 0.2365263 0.2367863 0.2370389
 0.2372863 0.237535 0.2377872 0.2380399 0.2382923 0.238544 0.2387909 0.2390313 0.2392683 0.2395047
 0.2397421 0.2399835 0.2402292 0.240474 0.2407148 0.2409543 0.2411948 0.2414333 0.2416684 0.2419041
 0.2421475 0.2424049 0.2426756 0.24295 0.2432185 0.2434815 0.2437448 0.2440117 0.2442838 0.2445625
 0.2448448 0.2451243 0.2453988 0.2456704 0.2459379 0.2461958 0.2464401 0.2466725 0.2468997 0.2471294
 0.2473639 0.2475985 0.2478297 0.2480614 0.2483001 0.2485483 0.2488031 0.2490588 0.2493131 0.2495735
 0.2498494 0.2501388 0.2504283 0.2507099 0.250987 0.2512651 0.2515465 0.2518333 0.2521264 0.2524205
 0.2527084 0.2529922 0.2532859 0.253605 0.2539482 0.2542941 0.2546209 0.2549262 0.2552247 0.2555317
 0.2558546 0.2561863 0.2564996 0.2567662 0.2569969 0.257248 0.2575698 0.2579572 0.258361 0.2587378
 0.2590803 0.2594048 0.2597247 0.2600371 0.2603277 0.2605861 0.2608239 0.2610804 0.2613971 0.261773
 0.2621609 0.2625166 0.2628355 0.2631344 0.2634242 0.2637098 0.2639807 0.2641966 0.2643276 0.2644277
 0.2646234 0.2649956 0.2654912 0.2659796 0.2663816 0.2667179 0.2670395 0.2673599 0.2676661 0.267933
 0.2680928 0.2680659 0.2679058 0.2678528 0.26814 0.2687586 0.2694826 0.270099 0.2705503 0.2708875
 0.2711771 0.2714533 0.2716971 0.2718404 0.2718416 0.2717879 0.2718759 0.2722322 0.2727698 0.273284
 0.2736683 0.2739699 0.2742678 0.2745843 0.2748773 0.2750242 0.2748722 0.274448 0.2740991 0.274267
 0.2750593 0.276128 0.2770172 0.2775687 0.27792 0.2781848 0.2782841 0.2780902 0.2775833 0.2768595
 0.2761708 0.275962 0.2765806 0.277833 0.2790651 0.2798159 0.2802124 0.2806391 0.2812374 0.2818456
 0.2822662 0.2824428 0.2824264 0.2822587 0.2819532 0.2816305 0.2815949 0.2821195 0.2831298 0.2842222
 0.2850401 0.2855534 0.285902 0.2859847 0.2853488 0.2837287 0.2817566 0.2808027 0.2817557 0.2840862
 0.2864186 0.28789 0.2886204 0.2890662 0.2894281 0.2895951 0.2891358 0.2874431 0.284561 0.2819061
 0.2814064 0.2836022 0.2870414 0.2896866 0.2904682 0.2895001 0.2875668 0.2857621 0.2851 0.2859614
 0.2879333 0.2902298 0.2921661 0.2933476 0.293692 0.2933843 0.2928008 0.2924137 0.2924946 0.2927064
 0.2923119 0.2911336 0.289897 0.2891123 0.2881362 0.2862222 0.2841871 0.2839057 0.2859928 0.2889154
 0.2907705 0.2912356 0.2912229 0.2910376 0.2896312 0.2859832 0.2809935 0.2774496 0.2776394 0.2810679
 0.2849501 0.2869493 0.2870219 0.2866158 0.2866319 0.2864683 0.2849111 0.2818545 0.2789671 0.2781982
 0.2795904 0.2812111 0.2812902 0.2794571 0.2758022 0.2704364 0.2649665 0.2627947 0.2661123 0.2731739
 0.2798432 0.2831628 0.2822741 0.2771842 0.269079 0.2616107 0.2592546 0.2631794 0.2698859 0.274598
 0.2750276 0.2714659 0.2648365 0.2562985 0.248262 0.2440861 0.2459386 0.2530546 0.2618749 0.2675805
 0.2665579 0.2593013 0.2511314 0.2481848 0.2516434 0.2569581 0.259196 0.2576761 0.254943 0.2532994
 0.2535371 0.2553661 0.2577448 0.2597026 0.261086 0.261189 0.2573845 0.2480291 0.236788 0.2306921
 0.2328904 0.240114 0.248006 0.2555074 0.2624283 0.2663028 0.2650122 0.2609771 0.2596106 0.2635357
 0.2700893 0.2747295 0.2756463 0.2744923 0.2733728 0.2723363 0.2704261 0.2683941 0.2687281 0.2725595
 0.277892 0.2817679 0.283235 0.2833443 0.2831599 0.2828613 0.2822979 0.2814372 0.2803216 0.2790827
 0.277934 0.2769425 0.2759789 0.2749825 0.2738904 0.2720466 0.2682559 0.2623329 0.256428 0.2535469
 0.2543956 0.2569346 0.2593107 0.2611993 0.2613569 0.2566158 0.2460257 0.2345609 0.2296947 0.2341727
 0.2438256 0.2522446 0.2558446 0.254304 0.2483932 0.2396171 0.2317256 0.2300635 0.2374572 0.2512505
 0.2656808 0.2767473 0.2837388 0.2870039 0.2864032 0.2824368 0.2775305 0.2750826 0.2771263 0.2829898
 0.289812 0.2938827 0.2922565 0.2851721 0.2776595 0.2765056 0.2835303 0.2931708 0.2986169 0.2989438
 0.298127 0.2987314 0.2997106 0.2998929 0.3004371 0.3028809 0.3066148 0.3093859 0.3093166 0.3056957
 0.2989734 0.2913086 0.2862262 0.2858276 0.2884711 0.290656 0.2906162 0.288352 0.2834259 0.2759218
 0.2692092 0.2681382 0.2735258 0.2809175 0.2856656 0.2872603 0.2878897 0.2885065 0.2877098 0.2840943
 0.2787414 0.2747541 0.2742192 0.2762414 0.2784247 0.2794697 0.2793815 0.2779711 0.2748637 0.271109
 0.2693284 0.2713845 0.2763846 0.281547 0.2847546 0.2858464 0.2858144 0.2855256 0.2852589 0.2848555
 0.2841356 0.2834944 0.2839426 0.2860301 0.2888893 0.2910239 0.2920408 0.2929781 0.2948458 0.2973928
 0.299501 0.3004266 0.3004529 0.3005213 0.3013803 0.3029703 0.3044805 0.3050626 0.3046679 0.3042059
 0.3047282 0.3064256 0.3085535 0.3102877 0.3114134 0.3122068 0.3129681 0.3137665 0.3144087 0.3145994
 0.3143373 0.3141586 0.3147407 0.3161973 0.3179385 0.3192672 0.3199508 0.3201833 0.320186 0.3199973
 0.3195871 0.3190318 0.3185165 0.318195 0.318086 0.3181005 0.3181375 0.3181424 0.3181142 0.3180928
 0.3181289 0.3182429 0.3184157 0.3186208 0.3188413 0.3190489 0.3192054 0.3193064 0.319391 0.3194816
 0.3195351 0.3194731 0.3192353 0.3187863 0.3180887 0.317103 0.3158019 0.3141616 0.3121576 0.3098507
 0.3075512 0.3058655 0.3054475 0.3065797 0.3089473 0.3118166 0.3144542 0.3164473 0.3177437 0.3184941
 0.3188804 0.3190365 0.3190437 0.3189453 0.3187612 0.318504 0.3181903 0.3178394 0.3174716 0.3171096
 0.3167737 0.3164705 0.3161873 0.3158959 0.3155649 0.3151731 0.3147132 0.3141859 0.3135915 0.3129241
 0.3121684 0.3113067 0.3103416 0.3093142 0.3082918 0.3073289 0.3064351 0.3055744 0.304696 0.3037586
 0.3027157 0.3015037 0.3001027 0.2986269 0.2972986 0.2962731 0.2955007 0.2947854 0.2939556 0.2929545
 0.2918062 0.2905554 0.2892436 0.2879021 0.286542 0.2851524 0.2837072 0.2821759 0.2805385 0.2787949
 0.2769607 0.2750587 0.2731154 0.2711514 0.2691548 0.2670527 0.2647116 0.2619715 0.2586906 0.2547769
 0.2502064 0.2450384 0.2394249 0.2335912 0.2277774 0.222183 0.2169552 0.2122162 0.2080825 0.2046593
 0.2020234 0.2002181 0.1992619 0.1991574 0.1998929 0.2014326 0.2037034 0.2065857 0.2099196 0.2135221
 0.2172016 0.2207744 0.2241018 0.2271375 0.2299271 0.2325397 0.2349938 0.2372531 0.2392763 0.2410522
 0.2425879 0.2438878 0.244957 0.2458189 0.2465194 0.2471088 0.2476213 0.248066 0.2484336 0.2487151
 0.2489217 0.249086 0.249243 0.2494129 0.2496035 0.2498211 0.2500743 0.2503747 0.2507385 0.2511837
 0.2517198 0.2523406 0.2530262 0.253754 0.254512 0.2553112 0.256185 0.2571772 0.2583255 0.2596488
 0.2611393 0.2627581 0.2644333 0.2660671 0.2675552 0.2688114 0.2697852 0.2704645 0.2708653 0.2710166
 0.270949 0.2706938 0.2702818 0.269739 0.2690883 0.2683558 0.2675675 0.2667356 0.2658549 0.2649167
 0.2639251 0.2629015 0.2618763 0.2608725 0.2598977 0.2589504 0.2580291 0.2571345 0.2562681 0.2554333
 0.2546329 0.2538668 0.2531337 0.2524315 0.2517504 0.2510712 0.2503644 0.2495892 0.2487007 0.2476694
 0.2464872 0.2451549 0.2436746 0.2420556 0.240315 0.238469 0.2365302 0.2345102 0.2324166 0.2302487
 0.2279963 0.2256453 0.2232054 0.2207414 0.2183599 0.2161468 0.2141229 0.2122581 0.2105134 0.208865
 0.2073036 0.2058183 0.2043903 0.203007 0.201674 0.2004043 0.199205 0.1980807 0.1970366 0.1960774
 0.1952152 0.1944712 0.1938519 0.1933352 0.1928906 0.1925056 0.1921934 0.19199 0.1919337 0.1920178
 0.1921668 0.1922772 0.192286 0.1922024 0.1920871 0.1920019 0.1919685 0.1919723 0.1919859 0.191965
 0.1918336 0.1915011 0.1908855 0.1899123 0.1885265 0.1867341 0.1846236 0.1823441 0.1800724 0.1779765
 0.1761734 0.1747149 0.1736003 0.1727801 0.1721652 0.1716806 0.1713178 0.1711321 0.1711934 0.171509
 0.1719558 0.1723254 0.1725073 0.1726132 0.1728801 0.1734675 0.1743604 0.1754131 0.1764532 0.1773683
 0.1781205 0.1787029 0.1791209 0.1794037 0.1795844 0.1796669 0.1796364 0.179484 0.1792074 0.178819
 0.1783528 0.1778275 0.1772188 0.1765012 0.1756792 0.174761 0.1737478 0.172646 0.171438 0.1700798
 0.1686074 0.167226 0.1662379 0.1658797 0.1662029 0.167049 0.1681576 0.1693377 0.1705007 0.1715463
 0.1723676 0.1730366 0.1738775 0.1752504 0.1772482 0.1795987 0.181852 0.1836646 0.184908 0.1855702
 0.1856752 0.185286 0.1844507 0.1831502 0.1813951 0.1793111 0.1770553 0.1747515 0.1725385 0.1705456
 0.1688243 0.1673936 0.1662627 0.1654244 0.1649351 0.1645214 0.1626064 0.1568528 0.1474766 0.1394086
 0.1385757 0.1455123 0.1546162 0.1601647 0.1611786 0.1600615 0.1588143 0.1578726 0.1571625 0.1567543
 0.1567009 0.1568991 0.1571308 0.1571647 0.1568992 0.1563501 0.1553936 0.1535293 0.1498748 0.1434856
 0.1340525 0.1225405 0.1109806 0.101395 0.09480163 0.0910013 0.08900806 0.08773646 0.08662815 0.08584486
 0.08589701 0.08711942 0.08948772 0.09278104 0.09674077 0.1010359 0.1052052 0.108802 0.1116311 0.1137649
 0.1153251 0.1163495 0.1168593 0.1169278 0.1166485 0.1161016 0.1153513 0.1144175 0.1132653 0.1118712
 0.1103174 0.1088144 0.1076092 0.1068319 0.1064255 0.1062395 0.1061662 0.1061627 0.1062051 0.1062825
 0.1064072 0.1065916 0.1068368 0.1071429 0.1074952 0.1078438 0.1081295 0.1083231 0.108427 0.1084448
 0.1083518 0.1081096 0.1077403 0.1073468 0.1069749 0.1064763 0.1056244 0.1044031 0.1031186 0.1022028
 0.1019173 0.1022004 0.1027411 0.103208 0.1034523 0.1035267 0.1035376 0.1034936 0.1032904 0.1028322
</values></Ydata></ScRf><Data_Parameters_AB><parameter name="DPF">1</parameter><parameter name="NPT">3497</parameter><parameter name="FXV">3996</parameter><parameter name="LXV">500</parameter><parameter name="CSF">1</parameter><parameter name="MXY">0.0544569902122021</parameter><parameter name="MNY">-0.0855518877506256</parameter><parameter name="DAT">18/01/2024</parameter><parameter name="TIM">11:55:38.099 (GMT+1)</parameter><parameter name="DXU">WN</parameter></Data_Parameters_AB><AB__Qtest><MainReport name="Quality Test Report"><Header><Line><Legend>Test result ok/not ok [1/0]: </Legend><Value>0</Value></Line><Line><Legend>Method file: </Legend><Value>C:\Users\Public\Documents\Bruker\OPUS_8.2.28\QT\IRBT_v3_default.QT</Value></Line></Header><Matrix><Line><Legend></Legend><Legend>min</Legend><Legend>max</Legend><Legend>measured</Legend></Line><Line><Value>Absorption (X-Range 1):</Value><Value>0.400000</Value><Value>2.000000</Value><Value>0.105481</Value></Line><Line><Value>Noise (X-Range 4):</Value><Value></Value><Value>0.000300</Value><Value>0.000025</Value></Line><Line><Value>Signal/Noise (X-Range 2):</Value><Value>200.000000</Value><Value></Value><Value>48.878661</Value></Line><Line><Value>Signal/Noise (X-Range 3):</Value><Value>40.000000</Value><Value></Value><Value>54.880440</Value></Line><Line><Value>Water vapour (X-Range 5):</Value><Value></Value><Value>0.000300</Value><Value>0.000012</Value></Line><Line><Value>Signal/Water (X-Range 2):</Value><Value>100.000000</Value><Value></Value><Value>98.639919</Value></Line><Line><Value>Signal/Water (X-Range 3):</Value><Value>20.000000</Value><Value></Value><Value>110.751851</Value></Line><Line><Value>Fringes (X-Range 6):</Value><Value></Value><Value>0.000100</Value><Value>0.000031</Value></Line></Matrix></MainReport></AB__Qtest><Data_Parameters_ScSm><parameter name="DPF">1</parameter><parameter name="NPT">1814</parameter><parameter name="FXV">3996.63438082617</parameter><parameter name="LXV">499.579297603271</parameter><parameter name="CSF">1</parameter><parameter name="MXY">0.331993371248245</parameter><parameter name="MNY">0.0837239325046539</parameter><parameter name="DAT">18/01/2024</parameter><parameter name="TIM">11:55:38.099 (GMT+1)</parameter><parameter name="DXU">WN</parameter></Data_Parameters_ScSm><Data_Parameters_ScRf><parameter name="DPF">1</parameter><parameter name="NPT">1820</parameter><parameter name="FXV">4004.34989121387</parameter><parameter name="LXV">495.721542409425</parameter><parameter name="CSF">1</parameter><parameter name="MXY">0.320186018943787</parameter><parameter name="MNY">0.0691897943615913</parameter><parameter name="DAT">18/01/2024</parameter><parameter name="TIM">11:55:11.913 (GMT+1)</parameter><parameter name="DXU">WN</parameter></Data_Parameters_ScRf><Optic_Parameters_Rf><parameter name="APR">0</parameter><parameter name="APT">Open</parameter><parameter name="BMS">KBr</parameter><parameter name="DTC">RT-DLaTGS_IR-Biotyper [Microplate reader]</parameter><parameter name="HPF">0</parameter><parameter name="LPF">10.0</parameter><parameter name="LPV">4000</parameter><parameter name="PGR">0</parameter><parameter name="RCH">Module port</parameter><parameter name="RDX">0</parameter><parameter name="SRC">MIR</parameter><parameter name="VEL">10.0</parameter><parameter name="SON">Off</parameter></Optic_Parameters_Rf><Acquisition_Parameters_Rf><parameter name="ADT">1</parameter><parameter name="AQM">DD</parameter><parameter name="CFE">0</parameter><parameter name="COR">0</parameter><parameter name="DEL">0</parameter><parameter name="DLY">0</parameter><parameter name="HFW">8000</parameter><parameter name="LFW">0</parameter><parameter name="NSR">32</parameter><parameter name="PLF">AB</parameter><parameter name="RES">6</parameter><parameter name="RGN">-1</parameter><parameter name="STR">0</parameter><parameter name="TCL">MakeCompatibleScalar (0, {WSV=1.000000, ARV=0});</parameter><parameter name="TDL">37</parameter><parameter name="RPO">0</parameter></Acquisition_Parameters_Rf><FT_-_Parameters_Rf><parameter name="APF">B3</parameter><parameter name="HFQ">500</parameter><parameter name="LFQ">4000</parameter><parameter name="NLI">0</parameter><parameter name="PHR">24</parameter><parameter name="PHZ">ML</parameter><parameter name="SPZ">NO</parameter><parameter name="ZFF">1</parameter></FT_-_Parameters_Rf><Optic_Parameters_><parameter name="APR">0</parameter><parameter name="APT">Open</parameter><parameter name="BMS">KBr</parameter><parameter name="CHN">Module port</parameter><parameter name="DTC">RT-DLaTGS_IR-Biotyper [Microplate reader]</parameter><parameter name="HPF">0</parameter><parameter name="LPF">10.0</parameter><parameter name="LPV">4000</parameter><parameter name="PGN">0</parameter><parameter name="RDX">0</parameter><parameter name="SRC">MIR</parameter><parameter name="VEL">10.0</parameter><parameter name="SON">Off</parameter></Optic_Parameters_><FT_-_Parameters_><parameter name="APF">B3</parameter><parameter name="HFQ">500</parameter><parameter name="LFQ">4000</parameter><parameter name="NLI">0</parameter><parameter name="PHR">24</parameter><parameter name="PHZ">ML</parameter><parameter name="SPZ">NO</parameter><parameter name="ZFF">1</parameter></FT_-_Parameters_><Acquisition_Parameters_><parameter name="ADT">1</parameter><parameter name="AQM">DD</parameter><parameter name="CFE">0</parameter><parameter name="COR">0</parameter><parameter name="DEL">0</parameter><parameter name="DLY">0</parameter><parameter name="HFW">8000</parameter><parameter name="LFW">0</parameter><parameter name="NSS">32</parameter><parameter name="PLF">AB</parameter><parameter name="RES">6</parameter><parameter name="SOT">0</parameter><parameter name="TCL">MakeCompatibleScalar (0, {WSV=1.000000, ARV=0});</parameter><parameter name="TDL">37</parameter><parameter name="SPO">0</parameter><parameter name="SGN">-1</parameter></Acquisition_Parameters_><Instrument_Parameters_Rf><parameter name="HFL">15801.365274</parameter><parameter name="LFL">0</parameter><parameter name="LWN">15801.365274</parameter><parameter name="ABP">32157</parameter><parameter name="SSP">1</parameter><parameter name="ARG">2</parameter><parameter name="ASG">2</parameter><parameter name="ASS">32</parameter><parameter name="GFW">16</parameter><parameter name="GBW">16</parameter><parameter name="BFW">0</parameter><parameter name="BBW">0</parameter><parameter name="PKA">9301</parameter><parameter name="PKL">4987</parameter><parameter name="PRA">9268</parameter><parameter name="PRL">5010</parameter><parameter name="P2A">1</parameter><parameter name="P2L">1</parameter><parameter name="P2R">1</parameter><parameter name="P2K">1</parameter><parameter name="DAQ">0</parameter><parameter name="AG2">1</parameter><parameter name="SSM">1</parameter><parameter name="RSN">46636</parameter><parameter name="CRR">0</parameter><parameter name="SRT">1705578911.913</parameter><parameter name="DUR">19.64599609375</parameter><parameter name="TSC">31.1</parameter><parameter name="MVD">0.667939245700836</parameter><parameter name="AN1">0.226000436019248</parameter><parameter name="AN2">0</parameter><parameter name="VSN">2.485 Apr  4 2017</parameter><parameter name="SRN">0085</parameter><parameter name="CAM">0</parameter><parameter name="INS">IR-Biotyper</parameter><parameter name="FOC">69</parameter><parameter name="RDY">1</parameter><parameter name="ARS">32</parameter></Instrument_Parameters_Rf><Sample_Parameters_><parameter name="BLD"></parameter><parameter name="CNM">Admin</parameter><parameter name="CPY"></parameter><parameter name="DPM"></parameter><parameter name="EXP">IRBT_v3_32Scans.XPM</parameter><parameter name="LCT"></parameter><parameter name="SFM">Microplate, HTS-XT</parameter><parameter name="SNM">240118-1045-Cdiff_SCFA_2_C29_232123366_C9_ee26e467-0d60-43a5-b0ad-5072b932ee3a.0</parameter><parameter name="XPP">C:\Users\Public\Documents\Bruker\OPUS_8.2.28\XPM</parameter><parameter name="IST">OK</parameter><parameter name="CPG">1252</parameter><parameter name="UID">cc501cc0-e6fb-426e-a306-812f656fb7ef</parameter></Sample_Parameters_><Instrument_Parameters_><parameter name="HFL">15801.365274</parameter><parameter name="LFL">0</parameter><parameter name="LWN">15801.365274</parameter><parameter name="ABP">32157</parameter><parameter name="SSP">1</parameter><parameter name="ASG">2</parameter><parameter name="ARG">2</parameter><parameter name="ASS">32</parameter><parameter name="GFW">16</parameter><parameter name="GBW">16</parameter><parameter name="BFW">0</parameter><parameter name="BBW">0</parameter><parameter name="PKA">10048</parameter><parameter name="PKL">4987</parameter><parameter name="PRA">10064</parameter><parameter name="PRL">5010</parameter><parameter name="P2A">1</parameter><parameter name="P2L">1</parameter><parameter name="P2R">1</parameter><parameter name="P2K">1</parameter><parameter name="DAQ">0</parameter><parameter name="AG2">1</parameter><parameter name="SSM">1</parameter><parameter name="RSN">24011</parameter><parameter name="CRR">0</parameter><parameter name="SRT">1705578938.1</parameter><parameter name="DUR">19.6449890136719</parameter><parameter name="TSC">31.1</parameter><parameter name="MVD">0.262339890003204</parameter><parameter name="AN1">0.226024650459016</parameter><parameter name="AN2">0</parameter><parameter name="VSN">2.485 Apr  4 2017</parameter><parameter name="SRN">0085</parameter><parameter name="CAM">0</parameter><parameter name="INS">IR-Biotyper</parameter><parameter name="FOC">69</parameter><parameter name="RDY">1</parameter></Instrument_Parameters_><History/></OPUSDataFile>
