<?xml version="1.0" encoding="UTF-8" ?>
<OPUSDataFile><AB><Ydata ylabel="Absorbance Units"><values byteorder="INTEL" format="FLOAT32" numvalues="3497"> -0.03707791 -0.03707568 -0.03708393 -0.03710026 -0.03711753 -0.03713436 -0.03714406 -0.03714714 -0.03714103 -0.03712799
 -0.0371092 -0.03708715 -0.03706411 -0.0370411 -0.03701934 -0.03699851 -0.03697853 -0.03696004 -0.03694279 -0.03692963
 -0.036921 -0.03691807 -0.03692122 -0.03692611 -0.03693248 -0.0369338 -0.03693011 -0.03691908 -0.03690154 -0.03688069
 -0.036857 -0.0368338 -0.03681072 -0.03678852 -0.03676676 -0.03674511 -0.03672326 -0.03670078 -0.03667737 -0.03665243
 -0.03662663 -0.03659957 -0.03657411 -0.03655095 -0.03653296 -0.03652117 -0.03651556 -0.03651648 -0.03652156 -0.03653069
 -0.03654106 -0.03655251 -0.03656144 -0.03656764 -0.03656714 -0.03656051 -0.03654823 -0.03653205 -0.0365185 -0.03650784
 -0.03650521 -0.03650672 -0.03650902 -0.03650762 -0.03649501 -0.03647307 -0.03643927 -0.03640145 -0.03636315 -0.03632909
 -0.03630273 -0.03628127 -0.03626495 -0.03624928 -0.03623321 -0.03621736 -0.03620155 -0.03618929 -0.03618073 -0.03617582
 -0.03617416 -0.03617093 -0.03616582 -0.03615425 -0.03613709 -0.03611457 -0.03608843 -0.0360628 -0.03603841 -0.03601876
 -0.03600232 -0.03598893 -0.0359765 -0.0359632 -0.03594832 -0.03593079 -0.03591134 -0.03588977 -0.03586784 -0.03584545
 -0.03582666 -0.03581187 -0.03580594 -0.03580956 -0.03582298 -0.03584623 -0.03587158 -0.03589845 -0.03591686 -0.03592712
 -0.0359255 -0.03591338 -0.03589341 -0.03586683 -0.03583783 -0.03580689 -0.03577629 -0.03574706 -0.03572098 -0.03569937
 -0.03568427 -0.03567482 -0.03567196 -0.03567137 -0.03567214 -0.03566914 -0.03566052 -0.03564576 -0.03562412 -0.03559906
 -0.0355707 -0.03554375 -0.0355185 -0.03549857 -0.03548395 -0.03547557 -0.03547286 -0.03547336 -0.03547587 -0.035475
 -0.03546954 -0.03545336 -0.03542743 -0.03538937 -0.0353439 -0.03529497 -0.03524778 -0.03520779 -0.03517767 -0.03516131
 -0.03515562 -0.03516182 -0.03517022 -0.03517943 -0.03517791 -0.03516301 -0.03513162 -0.03508228 -0.03502639 -0.03496451
 -0.0349152 -0.03487885 -0.03486565 -0.03487356 -0.0348959 -0.03492919 -0.03495661 -0.03497753 -0.03498044 -0.03497032
 -0.03494954 -0.03492485 -0.03490598 -0.03489419 -0.03489553 -0.03490322 -0.03491583 -0.03492533 -0.03492767 -0.03492097
 -0.03490325 -0.03487845 -0.03484671 -0.03481303 -0.03477796 -0.0347445 -0.03471287 -0.03468303 -0.03465494 -0.0346281
 -0.03460268 -0.0345796 -0.03455906 -0.03454272 -0.03452975 -0.03451914 -0.03450942 -0.03449734 -0.0344828 -0.03446393
 -0.03444242 -0.03441929 -0.03439511 -0.03437091 -0.03434514 -0.03431723 -0.03428684 -0.03425311 -0.03421954 -0.03418627
 -0.03415871 -0.0341376 -0.03412465 -0.03412006 -0.0341198 -0.0341235 -0.03412481 -0.03412351 -0.03411499 -0.03409956
 -0.03407581 -0.03404449 -0.03400607 -0.03396293 -0.03391859 -0.03387704 -0.03384456 -0.03382353 -0.03381958 -0.03382847
 -0.03385105 -0.03387705 -0.03390312 -0.03392006 -0.03392387 -0.033914 -0.03388851 -0.03385727 -0.0338208 -0.03379113
 -0.03376915 -0.03375769 -0.0337563 -0.03375661 -0.03375808 -0.03375249 -0.03374131 -0.03372648 -0.033709 -0.03369371
 -0.03367778 -0.03365819 -0.03363268 -0.03359512 -0.03355083 -0.03350089 -0.03345462 -0.0334189 -0.03339573 -0.03339006
 -0.03339067 -0.03339633 -0.03339349 -0.03337824 -0.03335123 -0.03331127 -0.03327021 -0.03322879 -0.03319384 -0.03316522
 -0.03313896 -0.03311472 -0.03308749 -0.03305868 -0.0330314 -0.03300709 -0.03299229 -0.03298489 -0.03298493 -0.03298787
 -0.03298759 -0.03298209 -0.03296626 -0.03294364 -0.03291394 -0.03288392 -0.03285677 -0.032835 -0.03282082 -0.03281032
 -0.03280364 -0.03279367 -0.03277961 -0.03275681 -0.0327248 -0.03268428 -0.03263544 -0.03258256 -0.03252587 -0.03246905
 -0.032412 -0.03235607 -0.03230153 -0.03224937 -0.03220097 -0.03215944 -0.03212555 -0.03210275 -0.03208759 -0.03207911
 -0.03207133 -0.03205986 -0.03204242 -0.03201608 -0.03198427 -0.03194712 -0.03190915 -0.03187151 -0.0318351 -0.03180033
 -0.03176564 -0.03173096 -0.03169502 -0.03165776 -0.03161785 -0.03157501 -0.03152644 -0.03147191 -0.03140876 -0.03133758
 -0.03125808 -0.03117232 -0.03108348 -0.03099464 -0.03091121 -0.03083495 -0.0307703 -0.03071472 -0.03066874 -0.03062677
 -0.03058656 -0.03054426 -0.03049824 -0.03044687 -0.03038969 -0.03032515 -0.03025281 -0.03017353 -0.0300872 -0.02999882
 -0.02990861 -0.02982078 -0.02973504 -0.02965073 -0.02956754 -0.02948325 -0.02939858 -0.02931422 -0.0292314 -0.02915306
 -0.02907941 -0.02901246 -0.0289505 -0.02889344 -0.02883715 -0.02877961 -0.02871559 -0.02864181 -0.02855712 -0.0284593
 -0.02835456 -0.02824309 -0.02813429 -0.02802945 -0.02793395 -0.02784852 -0.02776944 -0.02769639 -0.0276206 -0.02754214
 -0.0274578 -0.02736875 -0.02727916 -0.02718898 -0.02710104 -0.02701282 -0.02692029 -0.02682229 -0.02671404 -0.0265996
 -0.02648022 -0.02636232 -0.02625121 -0.02614842 -0.02605719 -0.02597225 -0.0258932 -0.02581283 -0.02572924 -0.02564012
 -0.02554457 -0.02544532 -0.02534247 -0.02523916 -0.02513546 -0.02503092 -0.02492542 -0.0248175 -0.02470772 -0.02459793
 -0.0244891 -0.02438551 -0.02428685 -0.0241952 -0.02410823 -0.02402381 -0.02393919 -0.02385071 -0.02375739 -0.02365699
 -0.0235512 -0.0234399 -0.02332605 -0.02321049 -0.02309564 -0.02298223 -0.02287115 -0.02276285 -0.02265556 -0.02254926
 -0.0224403 -0.02232856 -0.02221291 -0.02209378 -0.02197479 -0.0218564 -0.0217434 -0.02163476 -0.02153017 -0.02142764
 -0.02132253 -0.02121457 -0.02110058 -0.02098331 -0.02086422 -0.02074624 -0.02063252 -0.02052248 -0.02041719 -0.02031337
 -0.02020993 -0.02010555 -0.0199993 -0.01989363 -0.01978874 -0.01968692 -0.01958854 -0.01949167 -0.01939622 -0.01929928
 -0.01920109 -0.01910294 -0.01900535 -0.01891208 -0.01882244 -0.01873645 -0.01865247 -0.01856669 -0.01847891 -0.01838657
 -0.01829191 -0.01819642 -0.01810163 -0.01800961 -0.01791928 -0.01783083 -0.01774236 -0.01765307 -0.01756266 -0.01747084
 -0.01737819 -0.01728492 -0.01719013 -0.01709378 -0.01699472 -0.01689291 -0.01678912 -0.01668352 -0.0165785 -0.01647395
 -0.01637061 -0.01626804 -0.01616501 -0.01606152 -0.01595666 -0.0158516 -0.01574772 -0.01564596 -0.01554829 -0.01545371
 -0.0153626 -0.01527231 -0.01518162 -0.0150887 -0.01499215 -0.01489354 -0.01479248 -0.01469332 -0.01459648 -0.01450647
 -0.01442377 -0.01435028 -0.01428605 -0.01422909 -0.01417897 -0.0141305 -0.01408316 -0.01403141 -0.01397524 -0.01391165
 -0.01384091 -0.01376212 -0.01367562 -0.01358093 -0.01347994 -0.01337322 -0.01326621 -0.01316231 -0.01306801 -0.0129887
 -0.01292345 -0.01287505 -0.01283251 -0.01279444 -0.01274872 -0.01269263 -0.01262442 -0.0125432 -0.01245701 -0.01236627
 -0.01227929 -0.01219605 -0.01211851 -0.01204603 -0.01197591 -0.01190775 -0.01183875 -0.01176906 -0.01169761 -0.01162471
 -0.01155033 -0.01147474 -0.0113982 -0.01132095 -0.0112432 -0.01116518 -0.0110868 -0.01100925 -0.0109326 -0.01085936
 -0.01079017 -0.01072674 -0.01066978 -0.01061712 -0.01056872 -0.01052114 -0.0104742 -0.0104283 -0.01038368 -0.01034382
 -0.01030811 -0.0102754 -0.01024372 -0.01020516 -0.01015919 -0.01009937 -0.01002939 -0.009951537 -0.009871341 -0.009796516
 -0.009728724 -0.009673051 -0.009625041 -0.009584374 -0.009544495 -0.009502726 -0.009455827 -0.009401884 -0.009343078 -0.009278999
 -0.009215538 -0.009153082 -0.00909807 -0.009050887 -0.009014009 -0.008987004 -0.008964722 -0.008946156 -0.008922113 -0.008893059
 -0.00885492 -0.008810669 -0.008765282 -0.008721386 -0.008686546 -0.008659195 -0.008641344 -0.008628274 -0.008616837 -0.008603819
 -0.008586016 -0.008564223 -0.00853773 -0.008509062 -0.008478749 -0.008448485 -0.008418773 -0.008389466 -0.008360716 -0.008330617
 -0.008299074 -0.00826396 -0.008225287 -0.008182541 -0.008136376 -0.008090395 -0.00804571 -0.008008529 -0.007979115 -0.007961981
 -0.007954945 -0.007956884 -0.007964377 -0.007972923 -0.007980386 -0.007983308 -0.007981669 -0.007974538 -0.007962392 -0.007945278
 -0.007923324 -0.00789645 -0.007865408 -0.00783023 -0.007792024 -0.00775088 -0.00770782 -0.007662897 -0.007617914 -0.007573071
 -0.007531693 -0.007494048 -0.007463604 -0.007440324 -0.007426213 -0.007420455 -0.007422573 -0.007430471 -0.007440721 -0.007450716
 -0.007455619 -0.00745502 -0.007446251 -0.007432103 -0.00741332 -0.007392615 -0.007371604 -0.007350135 -0.007328522 -0.007305947
 -0.007282083 -0.007258112 -0.007234115 -0.007211251 -0.007189628 -0.0071679 -0.007145956 -0.007121677 -0.007095156 -0.00706622
 -0.007034718 -0.007000173 -0.006961903 -0.006917323 -0.006867392 -0.006811296 -0.006753747 -0.006699535 -0.006654231 -0.006625441
 -0.006612098 -0.006617862 -0.006632575 -0.006653872 -0.006670537 -0.00667823 -0.006674772 -0.006658162 -0.00663531 -0.006606596
 -0.006579423 -0.006554355 -0.00653278 -0.006514603 -0.006497592 -0.006481912 -0.006467395 -0.006455021 -0.006448897 -0.006449296
 -0.006460001 -0.006478387 -0.006502212 -0.006527131 -0.006546545 -0.006558351 -0.006557149 -0.006546788 -0.006526682 -0.00650534
 -0.006485313 -0.006475787 -0.006479998 -0.00650246 -0.006545464 -0.00660433 -0.006679564 -0.006758202 -0.006839518 -0.006909611
 -0.006968182 -0.007010477 -0.007037709 -0.00705628 -0.007067794 -0.007082667 -0.007100745 -0.007127575 -0.007160703 -0.00719841
 -0.007237955 -0.007274593 -0.007308264 -0.007336447 -0.007362489 -0.007387383 -0.007414991 -0.007447809 -0.007485401 -0.007529059
 -0.007573009 -0.007616763 -0.00765326 -0.00768135 -0.007699292 -0.007706713 -0.007709163 -0.007707056 -0.007708809 -0.007714564
 -0.007729502 -0.007752914 -0.0077847 -0.007823819 -0.007867428 -0.007914783 -0.007963371 -0.008012349 -0.008059811 -0.008104655
 -0.008145198 -0.008180964 -0.008210419 -0.008236281 -0.008258678 -0.008282612 -0.008309955 -0.008342029 -0.008380284 -0.008418814
 -0.008457354 -0.008488195 -0.008510605 -0.00852448 -0.008530121 -0.008535713 -0.008541775 -0.008556499 -0.008579163 -0.008611365
 -0.008651245 -0.008694516 -0.008739563 -0.008780918 -0.008818801 -0.008850569 -0.008878954 -0.008905392 -0.008932642 -0.008963534
 -0.008997263 -0.009034711 -0.009072417 -0.009109221 -0.009144192 -0.009176413 -0.009209374 -0.009243377 -0.00928143 -0.009323893
 -0.009369358 -0.00941767 -0.009464799 -0.009510637 -0.009552387 -0.009590435 -0.009624994 -0.009656586 -0.009686887 -0.009716004
 -0.009745092 -0.009773633 -0.009801329 -0.009827902 -0.009852591 -0.009876521 -0.009900012 -0.009924642 -0.009951456 -0.009980346
 -0.01001187 -0.01004376 -0.01007572 -0.01010552 -0.01013282 -0.01015659 -0.01017669 -0.01019357 -0.01020736 -0.01022107
 -0.01023529 -0.01025641 -0.01028469 -0.01032528 -0.01037669 -0.01043775 -0.01050549 -0.0105733 -0.01063935 -0.0106979
 -0.01074933 -0.01079202 -0.01082658 -0.01085289 -0.01087167 -0.01088248 -0.01088884 -0.01089097 -0.01089526 -0.01090324
 -0.01091804 -0.01094085 -0.01096785 -0.01099902 -0.0110273 -0.01105243 -0.01107076 -0.01108267 -0.01109014 -0.0110936
 -0.0110964 -0.01109828 -0.01110011 -0.01110145 -0.01110134 -0.01110087 -0.01110069 -0.01110314 -0.01111106 -0.01112509
 -0.01114724 -0.01117485 -0.01120738 -0.01124195 -0.01127736 -0.01131282 -0.01134811 -0.01138221 -0.01141513 -0.01144437
 -0.01146969 -0.01149016 -0.01150577 -0.01151884 -0.01152947 -0.01153975 -0.0115494 -0.01155795 -0.01156538 -0.01157115
 -0.01157594 -0.01158097 -0.01158666 -0.01159437 -0.01160355 -0.01161402 -0.01162555 -0.01163778 -0.01165118 -0.01166592
 -0.01168206 -0.01169965 -0.01171858 -0.01173861 -0.01176103 -0.0117859 -0.0118152 -0.01184922 -0.0118869 -0.01192812
 -0.01196737 -0.01200439 -0.01203397 -0.01205678 -0.01207315 -0.01208469 -0.01209679 -0.0121104 -0.01213057 -0.0121564
 -0.01218912 -0.01222642 -0.01226641 -0.01230711 -0.01234626 -0.0123838 -0.0124186 -0.01245309 -0.01248753 -0.01252523
 -0.01256718 -0.01261426 -0.0126671 -0.01272269 -0.01278099 -0.01283669 -0.01288952 -0.01293567 -0.01297533 -0.01300916
 -0.01303793 -0.01306619 -0.01309426 -0.0131261 -0.01316057 -0.01319737 -0.01323457 -0.01326875 -0.01329955 -0.01332479
 -0.01334639 -0.01336495 -0.01338241 -0.01340016 -0.01341814 -0.01343674 -0.01345494 -0.0134722 -0.01348992 -0.01350802
 -0.01352957 -0.01355491 -0.01358501 -0.01361989 -0.01365536 -0.01369098 -0.01371986 -0.01374212 -0.01375457 -0.01375849
 -0.01375645 -0.01374981 -0.01374309 -0.01373656 -0.01373246 -0.01373098 -0.0137331 -0.01373901 -0.01374988 -0.01376331
 -0.01377952 -0.01379226 -0.01379954 -0.01379644 -0.0137806 -0.01375429 -0.01371679 -0.01367671 -0.01363475 -0.0135978
 -0.01356624 -0.01353927 -0.01351632 -0.01349026 -0.01346072 -0.01342173 -0.01337409 -0.0133173 -0.01325273 -0.01318328
 -0.01310982 -0.01303482 -0.01295914 -0.01288432 -0.01281192 -0.01274356 -0.01268026 -0.01262341 -0.01257175 -0.01252538
 -0.01248215 -0.01244156 -0.0124023 -0.01236413 -0.01232593 -0.01228756 -0.01224833 -0.01220821 -0.01216821 -0.01212856
 -0.01209262 -0.01206052 -0.01203486 -0.01201532 -0.01200208 -0.01199491 -0.01199322 -0.01199722 -0.01200734 -0.01202265
 -0.01204311 -0.01206526 -0.01208703 -0.01210384 -0.01211262 -0.01211084 -0.01209628 -0.01207072 -0.01203362 -0.01199
 -0.01194025 -0.0118904 -0.01184107 -0.01179648 -0.01175693 -0.01172306 -0.01169468 -0.01166914 -0.01164627 -0.01162331
 -0.0116011 -0.01158065 -0.01156409 -0.01155686 -0.01156081 -0.01158199 -0.01161974 -0.01167679 -0.01174847 -0.01183278
 -0.01192322 -0.01201547 -0.01210647 -0.01219302 -0.01227894 -0.01236414 -0.01245473 -0.01255215 -0.01265701 -0.01276991
 -0.0128855 -0.01300353 -0.01311822 -0.01322945 -0.01333448 -0.0134334 -0.01352524 -0.01361008 -0.01368754 -0.01375789
 -0.01382138 -0.01387874 -0.013931 -0.01397953 -0.01402585 -0.0140724 -0.01412168 -0.01417529 -0.01423586 -0.01429994
 -0.01436774 -0.01443221 -0.01449123 -0.01454176 -0.0145822 -0.01461721 -0.01464702 -0.01467649 -0.01470598 -0.01473405
 -0.01476052 -0.01478178 -0.01479823 -0.01481065 -0.01481986 -0.0148299 -0.01484026 -0.01485182 -0.01486353 -0.01487333
 -0.01488222 -0.0148897 -0.01489954 -0.01491483 -0.01493782 -0.01497162 -0.01501357 -0.01506418 -0.01511738 -0.01517171
 -0.01522264 -0.01526879 -0.01531043 -0.0153473 -0.01538196 -0.01541455 -0.01544734 -0.0154804 -0.01551513 -0.01555179
 -0.01559275 -0.01563852 -0.01569248 -0.0157545 -0.01582643 -0.01590659 -0.01599325 -0.01608387 -0.01617464 -0.0162638
 -0.01634826 -0.01642826 -0.01650278 -0.01657352 -0.01664094 -0.01670627 -0.01677014 -0.01683212 -0.01689227 -0.0169497
 -0.01700418 -0.01705677 -0.0171075 -0.01715905 -0.0172115 -0.01726613 -0.01732249 -0.01737815 -0.01743249 -0.01748166
 -0.01752579 -0.01756287 -0.01759416 -0.01762093 -0.0176446 -0.01766769 -0.01769053 -0.01771472 -0.01773871 -0.01776227
 -0.01778319 -0.01780012 -0.01781347 -0.01782245 -0.01783122 -0.0178402 -0.017854 -0.01787345 -0.0178987 -0.0179299
 -0.0179625 -0.01799621 -0.01802547 -0.01805042 -0.0180693 -0.01808293 -0.01809398 -0.01810301 -0.01811334 -0.01812422
 -0.01813595 -0.01814723 -0.01815596 -0.01816276 -0.01816678 -0.01817089 -0.0181765 -0.018186 -0.01820111 -0.01822137
 -0.0182474 -0.0182763 -0.01830797 -0.01833794 -0.01836575 -0.01838769 -0.0184034 -0.01841304 -0.01841678 -0.01841827
 -0.01841772 -0.01841873 -0.01842087 -0.01842417 -0.01842822 -0.01843165 -0.01843485 -0.0184379 -0.01844123 -0.01844566
 -0.01845076 -0.01845658 -0.01846217 -0.01846674 -0.01847038 -0.01847256 -0.01847517 -0.01847852 -0.01848463 -0.01849415
 -0.018507 -0.01852357 -0.01854024 -0.01855684 -0.01856905 -0.01857672 -0.01857761 -0.01857196 -0.0185606 -0.01854408
 -0.01852505 -0.01850452 -0.0184865 -0.01847216 -0.01846592 -0.01846766 -0.01847961 -0.01849962 -0.018527 -0.01855817
 -0.01859092 -0.01862188 -0.01864894 -0.01867064 -0.01868576 -0.01869565 -0.01870007 -0.01870214 -0.01870225 -0.0187023
 -0.0187025 -0.01870291 -0.01870358 -0.01870529 -0.01870826 -0.01871491 -0.01872509 -0.01873972 -0.01875774 -0.01877657
 -0.01879518 -0.01880999 -0.01882137 -0.01882802 -0.01883146 -0.01883249 -0.01883295 -0.01883434 -0.01883759 -0.01884387
 -0.01885184 -0.01886174 -0.01887037 -0.01887701 -0.01888007 -0.01887894 -0.01887579 -0.01887065 -0.0188674 -0.01886616
 -0.01886804 -0.01887284 -0.018879 -0.01888653 -0.01889462 -0.01890358 -0.01891408 -0.01892591 -0.01893933 -0.01895332
 -0.01896663 -0.0189783 -0.01898674 -0.01899205 -0.01899357 -0.01899248 -0.01898895 -0.01898469 -0.01898019 -0.01897693
 -0.01897533 -0.01897598 -0.01897903 -0.01898455 -0.01899259 -0.01900302 -0.0190158 -0.01902942 -0.01904362 -0.01905518
 -0.01906411 -0.01906841 -0.01906876 -0.0190662 -0.01906145 -0.01905678 -0.01905201 -0.01904778 -0.01904396 -0.01904042
 -0.01903771 -0.01903627 -0.01903619 -0.01903784 -0.01904022 -0.01904297 -0.01904602 -0.01904912 -0.01905362 -0.01905983
 -0.01906745 -0.01907662 -0.01908405 -0.01908958 -0.01909048 -0.01908699 -0.01908026 -0.01907094 -0.01906287 -0.01905644
 -0.01905508 -0.0190584 -0.01906757 -0.01908126 -0.01909825 -0.01911673 -0.01913437 -0.01915009 -0.01916221 -0.01917095
 -0.01917581 -0.01917804 -0.01917785 -0.01917667 -0.01917485 -0.01917319 -0.01917188 -0.01917078 -0.01916989 -0.01916891
 -0.01916785 -0.01916737 -0.01916759 -0.01917012 -0.01917484 -0.01918212 -0.01919149 -0.01920169 -0.01921228 -0.01922167
 -0.0192298 -0.019236 -0.01924017 -0.01924204 -0.01924139 -0.01923797 -0.01923165 -0.01922209 -0.01921013 -0.01919556
 -0.0191811 -0.01916704 -0.01915706 -0.01915181 -0.01915306 -0.01916119 -0.01917375 -0.01919058 -0.01920608 -0.01922001
 -0.01922783 -0.01922986 -0.01922526 -0.01921502 -0.01920183 -0.0191867 -0.0191733 -0.01916191 -0.01915473 -0.01915123
 -0.01915188 -0.01915554 -0.01916176 -0.01916894 -0.01917637 -0.01918227 -0.01918583 -0.01918622 -0.01918283 -0.01917692
 -0.01916841 -0.01915978 -0.01915123 -0.01914433 -0.01913917 -0.01913643 -0.01913614 -0.01913879 -0.01914431 -0.01915282
 -0.01916365 -0.01917485 -0.01918529 -0.01919134 -0.01919251 -0.01918594 -0.01917316 -0.01915397 -0.01913225 -0.01911056
 -0.01909247 -0.01908117 -0.01907581 -0.01907769 -0.01908134 -0.01908581 -0.0190863 -0.01908149 -0.01907218 -0.0190581
 -0.01904392 -0.01902988 -0.01901911 -0.01901149 -0.01900631 -0.01900325 -0.01900009 -0.01899686 -0.0189925 -0.01898729
 -0.01898135 -0.01897505 -0.01896893 -0.01896353 -0.01895978 -0.01895771 -0.01895793 -0.01895945 -0.01896217 -0.01896436
 -0.01896521 -0.01896424 -0.01896084 -0.01895707 -0.01895302 -0.01895147 -0.01895279 -0.01895756 -0.01896583 -0.01897491
 -0.01898459 -0.01899122 -0.01899485 -0.01899368 -0.01898849 -0.01898089 -0.01897196 -0.01896525 -0.01896088 -0.01896109
 -0.01896428 -0.01896967 -0.01897526 -0.01897893 -0.01898046 -0.01897871 -0.01897576 -0.01897206 -0.01896948 -0.01896876
 -0.01896987 -0.01897313 -0.01897672 -0.01898052 -0.01898292 -0.01898382 -0.0189832 -0.01898119 -0.01897952 -0.01897827
 -0.01897886 -0.01898092 -0.01898406 -0.01898754 -0.01898936 -0.01898918 -0.01898528 -0.01897824 -0.01896787 -0.01895544
 -0.01894188 -0.01892829 -0.01891557 -0.01890405 -0.01889394 -0.01888566 -0.01887928 -0.01887551 -0.01887461 -0.01887619
 -0.0188804 -0.01888462 -0.01888871 -0.0188907 -0.01889071 -0.01889007 -0.01888908 -0.01889056 -0.01889415 -0.01890018
 -0.01890744 -0.01891293 -0.01891594 -0.01891363 -0.0189066 -0.01889414 -0.01887794 -0.01885884 -0.01883919 -0.01882043
 -0.01880447 -0.01879263 -0.01878475 -0.01878146 -0.0187801 -0.01878046 -0.01877932 -0.01877616 -0.0187705 -0.01876224
 -0.01875388 -0.01874558 -0.01874052 -0.01873848 -0.01873973 -0.01874362 -0.01874768 -0.01875164 -0.0187534 -0.01875347
 -0.01875188 -0.01874882 -0.01874484 -0.0187391 -0.01873088 -0.01872023 -0.01870642 -0.01869181 -0.01867705 -0.01866436
 -0.01865486 -0.01864759 -0.01864278 -0.01863764 -0.0186318 -0.01862444 -0.01861547 -0.01860677 -0.01859845 -0.01859237
 -0.01858832 -0.01858597 -0.01858485 -0.0185828 -0.01857967 -0.01857366 -0.0185656 -0.01855594 -0.01854599 -0.0185377
 -0.01853158 -0.0185289 -0.01852919 -0.01853242 -0.01853845 -0.01854711 -0.01855873 -0.01857386 -0.01859023 -0.01860804
 -0.01862179 -0.01863079 -0.01863213 -0.01862543 -0.01861595 -0.0186041 -0.01859812 -0.01859752 -0.01860271 -0.01861232
 -0.0186201 -0.01862681 -0.01863074 -0.01863442 -0.018643 -0.01865474 -0.01867104 -0.01868523 -0.0186913 -0.01868652
 -0.01866571 -0.01863478 -0.01859426 -0.01855215 -0.01851102 -0.01847485 -0.01844473 -0.01842292 -0.01840979 -0.0184067
 -0.01841386 -0.01842876 -0.01845103 -0.01847251 -0.01849293 -0.01850585 -0.01851218 -0.01851244 -0.01850739 -0.01849967
 -0.01848876 -0.01847477 -0.01845743 -0.01843591 -0.01841173 -0.01838554 -0.01835992 -0.01833676 -0.01831735 -0.01830306
 -0.01829273 -0.01828666 -0.01828182 -0.01827775 -0.01827206 -0.01826432 -0.01825405 -0.01824116 -0.01822665 -0.01821056
 -0.01819365 -0.01817594 -0.01815775 -0.01813904 -0.01811983 -0.01809993 -0.01807876 -0.01805627 -0.01803179 -0.0180061
 -0.01797959 -0.01795408 -0.0179313 -0.01791282 -0.01790055 -0.01789377 -0.01789316 -0.01789574 -0.01790101 -0.01790551
 -0.01790843 -0.01790802 -0.01790381 -0.01789635 -0.01788561 -0.01787333 -0.0178596 -0.01784533 -0.01783054 -0.01781546
 -0.01780033 -0.01778624 -0.01777367 -0.0177648 -0.0177595 -0.017759 -0.01776174 -0.01776636 -0.01777096 -0.01777306
 -0.01777209 -0.0177666 -0.01775787 -0.01774595 -0.01773273 -0.01771882 -0.01770528 -0.01769253 -0.01768039 -0.01766895
 -0.01765703 -0.01764454 -0.0176302 -0.01761398 -0.01759598 -0.01757639 -0.01755679 -0.01753745 -0.01752053 -0.01750622
 -0.01749627 -0.01749041 -0.01748926 -0.01749151 -0.01749591 -0.01750056 -0.01750315 -0.01750275 -0.01749766 -0.01748905
 -0.01747681 -0.01746299 -0.01744837 -0.01743344 -0.01741861 -0.01740266 -0.01738542 -0.01736637 -0.01734538 -0.01732382
 -0.01730174 -0.01728096 -0.01726146 -0.01724385 -0.01722803 -0.01721368 -0.01720088 -0.01718972 -0.01718024 -0.01717277
 -0.01716679 -0.01716193 -0.01715718 -0.01715132 -0.01714406 -0.01713463 -0.01712381 -0.0171118 -0.01709924 -0.01708652
 -0.01707342 -0.01705997 -0.01704571 -0.01703051 -0.01701481 -0.0169986 -0.01698315 -0.01696851 -0.01695538 -0.01694369
 -0.01693281 -0.01692273 -0.01691299 -0.01690379 -0.01689566 -0.01688836 -0.01688204 -0.01687536 -0.01686642 -0.0168542
 -0.01683626 -0.01681449 -0.01678872 -0.01676319 -0.01674003 -0.01672139 -0.0167091 -0.01670069 -0.01669631 -0.01669146
 -0.01668548 -0.01667583 -0.01666212 -0.01664566 -0.01662657 -0.01660844 -0.01659143 -0.01657901 -0.01657075 -0.01656656
 -0.01656537 -0.01656375 -0.01656095 -0.01655331 -0.01654151 -0.01652443 -0.01650453 -0.01648365 -0.01646444 -0.01644967
 -0.0164397 -0.01643615 -0.01643575 -0.01643823 -0.01643867 -0.01643574 -0.01642738 -0.01641274 -0.01639438 -0.01637232
 -0.01635059 -0.01632938 -0.01631084 -0.01629493 -0.01628209 -0.01627214 -0.01626464 -0.01625913 -0.01625399 -0.0162486
 -0.01624056 -0.01623013 -0.01621634 -0.01620056 -0.01618385 -0.01616739 -0.01615274 -0.0161392 -0.01612696 -0.0161147
 -0.01610188 -0.01608822 -0.01607344 -0.01605823 -0.01604267 -0.0160271 -0.01601155 -0.01599623 -0.01598115 -0.01596715
 -0.01595424 -0.01594316 -0.01593361 -0.01592432 -0.01591483 -0.01590275 -0.01588834 -0.01587067 -0.01585098 -0.01583066
 -0.01581087 -0.01579355 -0.01577872 -0.01576715 -0.01575801 -0.01575102 -0.01574569 -0.01574169 -0.01573928 -0.01573865
 -0.01573918 -0.01574108 -0.01574134 -0.01573978 -0.01573307 -0.01572105 -0.01570352 -0.0156808 -0.01565644 -0.0156308
 -0.015608 -0.01558776 -0.01557142 -0.01555841 -0.01554811 -0.01554002 -0.01553318 -0.01552691 -0.01552036 -0.01551242
 -0.01550182 -0.01548836 -0.015471 -0.01545206 -0.01543178 -0.01541347 -0.01539818 -0.01538691 -0.01538031 -0.01537577
 -0.01537321 -0.0153686 -0.01536171 -0.01535152 -0.01533817 -0.01532357 -0.0153079 -0.01529331 -0.01527955 -0.01526683
 -0.01525486 -0.01524304 -0.01523135 -0.0152196 -0.01520754 -0.01519491 -0.01518133 -0.01516619 -0.01514995 -0.01513239
 -0.01511518 -0.01509889 -0.01508479 -0.01507347 -0.01506467 -0.01505861 -0.01505353 -0.0150493 -0.01504428 -0.01503836
 -0.01503064 -0.01502114 -0.01501018 -0.01499785 -0.01498491 -0.01497139 -0.01495781 -0.01494423 -0.01493099 -0.01491829
 -0.01490662 -0.01489605 -0.01488696 -0.01487897 -0.01487211 -0.01486544 -0.01485858 -0.01485048 -0.01484062 -0.01482861
 -0.01481403 -0.01479807 -0.0147806 -0.01476483 -0.01475103 -0.01474201 -0.01473797 -0.01473816 -0.01474229 -0.01474586
 -0.01474853 -0.01474586 -0.01473825 -0.01472462 -0.01470599 -0.01468417 -0.01466041 -0.01463766 -0.01461655 -0.01459921
 -0.01458514 -0.01457497 -0.01456697 -0.01456061 -0.01455351 -0.01454467 -0.01453257 -0.01451639 -0.01449665 -0.01447311
 -0.01444792 -0.0144212 -0.01439563 -0.01437137 -0.0143504 -0.01433272 -0.01431855 -0.01430759 -0.01429804 -0.01428956
 -0.01427976 -0.0142689 -0.0142562 -0.01424272 -0.01423008 -0.01421875 -0.01421044 -0.01420382 -0.01419865 -0.01419268
 -0.01418435 -0.01417306 -0.01415769 -0.01414046 -0.01412164 -0.01410365 -0.01408715 -0.01407217 -0.01405896 -0.01404503
 -0.01403022 -0.01401249 -0.01399189 -0.01396926 -0.01394505 -0.01392275 -0.01390263 -0.01388787 -0.01387769 -0.013872
 -0.01386914 -0.01386605 -0.01386171 -0.01385316 -0.01384141 -0.01382611 -0.01380914 -0.0137918 -0.01377433 -0.0137574
 -0.01373969 -0.01372079 -0.01370058 -0.01367873 -0.0136571 -0.01363588 -0.01361628 -0.0135984 -0.01358142 -0.01356529
 -0.01354895 -0.01353258 -0.01351681 -0.0135018 -0.0134887 -0.01347719 -0.01346711 -0.0134579 -0.01344851 -0.01343852
 -0.01342681 -0.01341363 -0.01339864 -0.01338281 -0.01336662 -0.01335086 -0.01333625 -0.013322 -0.01330818 -0.01329333
 -0.01327706 -0.01325924 -0.01323971 -0.01321965 -0.01319915 -0.01317861 -0.01315802 -0.01313701 -0.01311559 -0.01309359
 -0.01307125 -0.01304942 -0.01302825 -0.01300871 -0.01299043 -0.01297323 -0.01295669 -0.01294028 -0.01292364 -0.01290606
 -0.01288801 -0.01286956 -0.01285127 -0.0128336 -0.01281608 -0.01279885 -0.01278038 -0.01276022 -0.0127383 -0.01271431
 -0.01269109 -0.01266881 -0.01265036 -0.01263574 -0.01262435 -0.01261581 -0.01260697 -0.01259777 -0.01258626 -0.01257286
 -0.01255788 -0.01254154 -0.01252459 -0.01250658 -0.01248726 -0.01246595 -0.0124418 -0.01241481 -0.01238441 -0.01235189
 -0.01231731 -0.01228307 -0.01224987 -0.01221947 -0.01219256 -0.01216869 -0.01214804 -0.01212853 -0.01211004 -0.01209073
 -0.01207058 -0.01204963 -0.01202797 -0.01200632 -0.01198458 -0.01196264 -0.01194041 -0.0119175 -0.01189424 -0.01187106
 -0.01184822 -0.0118266 -0.01180522 -0.01178372 -0.01176055 -0.01173421 -0.01170515 -0.0116726 -0.01163963 -0.01160696
 -0.01157702 -0.01155069 -0.01152758 -0.0115079 -0.0114894 -0.01147194 -0.01145387 -0.01143508 -0.0114142 -0.01139113
 -0.01136449 -0.01133439 -0.01130034 -0.01126308 -0.01122432 -0.01118519 -0.01114882 -0.01111575 -0.01108851 -0.01106581
 -0.01104792 -0.01103176 -0.01101569 -0.01099651 -0.01097205 -0.01094192 -0.01090509 -0.01086396 -0.01081857 -0.01077259
 -0.01072645 -0.01068323 -0.01064319 -0.01060796 -0.01057756 -0.0105508 -0.01052744 -0.01050462 -0.01048219 -0.01045789
 -0.01043204 -0.01040438 -0.01037515 -0.01034484 -0.01031325 -0.01028035 -0.01024583 -0.01020949 -0.01017071 -0.01012908
 -0.01008389 -0.01003452 -0.009981391 -0.009924036 -0.009865202 -0.009805085 -0.009747589 -0.00969332 -0.009644333 -0.009600991
 -0.009561147 -0.009524619 -0.009486066 -0.00944539 -0.00939917 -0.009348253 -0.00929496 -0.009240129 -0.009188033 -0.009137798
 -0.009090147 -0.009042765 -0.008992479 -0.00893806 -0.008876494 -0.008809369 -0.008736281 -0.008660827 -0.00858477 -0.008509891
 -0.008437915 -0.008365752 -0.008293584 -0.008215259 -0.008129655 -0.00803531 -0.007931689 -0.007825169 -0.007716059 -0.00761055
 -0.007508209 -0.007407071 -0.007306312 -0.007200206 -0.007089576 -0.006973621 -0.006854421 -0.006736295 -0.006619895 -0.006508657
 -0.006400709 -0.006295531 -0.006191016 -0.006085198 -0.00597793 -0.005868575 -0.005757694 -0.005645573 -0.005531565 -0.005415672
 -0.00529676 -0.005174596 -0.005049082 -0.004920142 -0.004788724 -0.004654873 -0.004519303 -0.004382019 -0.004243231 -0.004103037
 -0.003962367 -0.00382077 -0.003677622 -0.003531677 -0.003379928 -0.003221533 -0.003053585 -0.002876786 -0.002690741 -0.002496419
 -0.00229502 -0.002085022 -0.001866669 -0.001635957 -0.001391639 -0.001130764 -0.0008521066 -0.0005560559 -0.0002420459 8.548082E-05
 0.0004265348 0.0007717858 0.001120709 0.00146177 0.001794919 0.002114903 0.002423591 0.002727659 0.003029998 0.003344908
 0.003671099 0.00401469 0.004368267 0.004722446 0.00507338 0.005411386 0.00574154 0.006064529 0.006385146 0.006707407
 0.007028573 0.007348739 0.007664286 0.007973454 0.00827962 0.008582769 0.008888261 0.009196789 0.009508247 0.009822636
 0.01013756 0.01045279 0.0107655 0.01107481 0.01137403 0.01166287 0.01193541 0.01219511 0.01244602 0.01269332
 0.01294876 0.01321029 0.01348304 0.01375486 0.01401754 0.01426472 0.01448867 0.01469598 0.01488755 0.01506823
 0.01524066 0.0153997 0.01554533 0.01566985 0.01577236 0.01585083 0.01590513 0.01593821 0.01595045 0.01594733
 0.01592937 0.01590253 0.01586655 0.01582369 0.01577319 0.01571397 0.01564652 0.01557017 0.01548836 0.0154037
 0.01532179 0.01524756 0.01518517 0.01513879 0.01510775 0.01509342 0.01509126 0.01510063 0.01511681 0.01513876
 0.0151652 0.01519564 0.01523343 0.01527872 0.01533496 0.01540212 0.0154804 0.01556921 0.01566525 0.0157677
 0.015872 0.01597757 0.0160807 0.01618143 0.01627796 0.01637106 0.0164609 0.01654813 0.01663347 0.01671673
 0.01679792 0.01687702 0.01695373 0.01702929 0.01710404 0.01717832 0.01725259 0.01732416 0.01739292 0.01745551
 0.01751172 0.01756061 0.01760229 0.01763831 0.01766869 0.01769488 0.01771595 0.01772968 0.01773448 0.01772484
 0.01770102 0.01766021 0.01760532 0.01753901 0.01746246 0.01737841 0.0172841 0.01717887 0.01705982 0.01692573
 0.01677468 0.01660671 0.01641652 0.01620355 0.01596142 0.01568866 0.01539131 0.01506953 0.01474272 0.01441122
 0.01408374 0.01375839 0.01342699 0.01308875 0.01273572 0.0123701 0.01199313 0.01160761 0.01121967 0.01082884
 0.01043776 0.01004289 0.009640918 0.009233438 0.008817618 0.008405947 0.008002314 0.007616989 0.007255103 0.006912756
 0.006590577 0.006280333 0.00598099 0.005690053 0.00540729 0.005132975 0.004867034 0.004607973 0.004355952 0.004110874
 0.003873804 0.003649184 0.003437142 0.003241525 0.003058791 0.002885394 0.002715882 0.002541646 0.002360952 0.002168082
 0.001967608 0.001760063 0.001551431 0.001345078 0.001140963 0.0009406566 0.000737854 0.0005309416 0.000320409 0.0001050101
 -9.997345E-05 -0.0002936809 -0.0004624923 -0.0006065544 -0.0007285994 -0.0008300002 -0.0009215988 -0.001003985 -0.001085439 -0.001165212
 -0.001245546 -0.001325517 -0.001404333 -0.001481813 -0.001557911 -0.001631097 -0.001700912 -0.001763369 -0.00181644 -0.001855806
 -0.001878778 -0.001884984 -0.001873311 -0.00184682 -0.001805669 -0.001753835 -0.001691822 -0.001621838 -0.001544114 -0.001457505
 -0.001361844 -0.001253405 -0.001132476 -0.0009987351 -0.0008538906 -0.0007048093 -0.0005528576 -0.0004055939 -0.0002623957 -0.0001255487
 5.80569E-06 0.0001322564 0.0002532501 0.0003680762 0.0004776734 0.000581352 0.0006838313 0.000786941 0.0008938691 0.001007128
 0.001121608 0.001237196 0.001346467 0.001448158 0.001541838 0.001627279 0.001709274 0.001788037 0.001867387 0.001947376
 0.002029802 0.002115216 0.002206519 0.002305065 0.002415966 0.002540304 0.00268274 0.002842945 0.003022756 0.003220393
 0.0034348 0.003664852 0.003909221 0.004168594 0.00444332 0.004732573 0.005037207 0.005351287 0.005674521 0.005997845
 0.006320228 0.006634959 0.00694153 0.007235005 0.007515007 0.007774375 0.008012519 0.008220982 0.008400314 0.008547791
 0.00866562 0.008758594 0.008828345 0.008880867 0.008915047 0.008932382 0.008929943 0.008905323 0.008857124 0.008782912
 0.008685264 0.008564191 0.008424114 0.008266657 0.008093127 0.007904591 0.00769761 0.007471884 0.007224538 0.006955142
 0.006667765 0.006362784 0.006049079 0.005726838 0.005401425 0.00507259 0.004741437 0.004408977 0.004077962 0.00375114
 0.003435154 0.003131928 0.002847435 0.002580593 0.002333091 0.002101541 0.00188461 0.001678474 0.001481015 0.001290368
 0.001105173 0.0009265491 0.0007542106 0.0005912372 0.0004380225 0.0002963739 0.0001665352 4.750947E-05 -6.079644E-05 -0.0001608507
 -0.000252747 -0.0003384368 -0.0004177112 -0.0004907615 -0.0005570921 -0.0006153001 -0.0006651637 -0.0007050937 -0.0007363714 -0.0007594965
 -0.0007774013 -0.0007929287 -0.0008085802 -0.000827225 -0.0008487765 -0.0008744211 -0.0009013847 -0.0009291579 -0.0009551261 -0.0009786123
 -0.0009983736 -0.001014043 -0.0010262 -0.00103483 -0.001041176 -0.0010453 -0.001048335 -0.001050209 -0.001050837 -0.001049908
 -0.001045948 -0.001038623 -0.001026164 -0.001008456 -0.0009843226 -0.0009540581 -0.0009173821 -0.0008751948 -0.0008279587 -0.0007773823
 -0.0007243438 -0.000671417 -0.0006196843 -0.0005720386 -0.0005294635 -0.000494405 -0.0004675994 -0.0004500992 -0.0004423292 -0.0004430714
 -0.0004524074 -0.0004662682 -0.0004844063 -0.000501408 -0.000517028 -0.0005266909 -0.0005305542 -0.0005268166 -0.0005160713 -0.000499016
 -0.0004765324 -0.0004506313 -0.0004222845 -0.0003935421 -0.0003655552 -0.0003397168 -0.0003182866 -0.0003026386 -0.0002963 -0.0003011596
 -0.0003198875 -0.0003544877 -0.0004027378 -0.0004654295 -0.0005346875 -0.0006098161 -0.000682555 -0.0007520632 -0.0008150366 -0.0008713407
 -0.0009216655 -0.0009660614 -0.001005283 -0.001039196 -0.001067424 -0.001089957 -0.001106553 -0.001117328 -0.00112249 -0.001121945
 -0.001115355 -0.001103473 -0.001086428 -0.001066495 -0.001045138 -0.001024542 -0.001006565 -0.0009906667 -0.0009774989 -0.0009641448
 -0.0009500267 -0.000933281 -0.0009133425 -0.0008911676 -0.0008667036 -0.0008424448 -0.0008185128 -0.0007966742 -0.0007769034 -0.0007595823
 -0.0007445478 -0.0007312263 -0.0007193618 -0.0007077582 -0.0006964173 -0.0006844435 -0.0006727701 -0.0006623158 -0.0006541539 -0.0006499974
 -0.0006497159 -0.0006542939 -0.0006614772 -0.0006706751 -0.0006791068 -0.0006855638 -0.000689007 -0.0006888009 -0.0006857218 -0.0006797276
 -0.0006721317 -0.0006630429 -0.0006533047 -0.000642975 -0.0006335948 -0.0006253504 -0.000620872 -0.0006202771 -0.0006259226 -0.0006371121
 -0.0006530879 -0.0006724281 -0.0006914173 -0.0007095553 -0.0007237555 -0.0007360429 -0.0007471615 -0.0007597542 -0.0007765865 -0.0007973261
 -0.0008231918 -0.0008507851 -0.0008791191 -0.0009060028 -0.0009303517 -0.0009534369 -0.0009752814 -0.0009973561 -0.001019981 -0.001041097
 -0.001060595 -0.001074523 -0.00108283 -0.001083617 -0.001077314 -0.001065335 -0.001048162 -0.001028334 -0.001005722 -0.0009815845
 -0.0009548265 -0.000924598 -0.0008890624 -0.000845862 -0.0007938396 -0.0007307514 -0.0006582745 -0.0005761816 -0.0004880108 -0.0003952614
 -0.0002990136 -0.0002005258 -9.574147E-05 1.57015E-05 0.0001378804 0.0002715811 0.000413816 0.0005644475 0.0007146406 0.0008641203
 0.001006693 0.001143221 0.001275408 0.001404579 0.001536466 0.001671322 0.001812893 0.001960043 0.00211283 0.002269485
 0.002428228 0.002587242 0.002744532 0.00289915 0.003049731 0.003197278 0.003341512 0.003484988 0.003628328 0.003773067
 0.003919765 0.004067427 0.004216124 0.004363229 0.004508594 0.004650699 0.004789685 0.004926958 0.005063135 0.005202389
 0.005345673 0.005498675 0.005661808 0.005839204 0.006030019 0.006235082 0.006452387 0.006680152 0.006916253 0.00715855
 0.007405417 0.007655709 0.007907508 0.008160276 0.008411013 0.008659152 0.008901204 0.009136558 0.009362742 0.009579421
 0.009785667 0.009981422 0.01016477 0.0103354 0.01048833 0.01062315 0.01073402 0.01082204 0.01088725 0.01093292
 0.01096687 0.0109919 0.01101697 0.01104143 0.01106826 0.01109529 0.0111211 0.01114605 0.01116962 0.01119375
 0.01121991 0.01124564 0.01127132 0.01129062 0.01130217 0.01130421 0.01129575 0.01128474 0.01127155 0.01126662
 0.01127006 0.01128491 0.01131008 0.01134005 0.01137363 0.01140332 0.01142877 0.01144528 0.01145321 0.01145094
 0.01143933 0.01141875 0.01139011 0.01135474 0.01131163 0.01126138 0.01119999 0.01112604 0.01103674 0.01093009
 0.0108099 0.01067583 0.01053631 0.01039223 0.01024901 0.01010709 0.009966677 0.00982779 0.009690238 0.00955437
 0.009422483 0.009294995 0.009174628 0.009061864 0.00895898 0.008867029 0.008788991 0.008725248 0.008678247 0.008645522
 0.008626686 0.008616772 0.008613233 0.00861114 0.008608307 0.008600384 0.008586179 0.008561152 0.008524404 0.008472553
 0.008404992 0.008321468 0.008221907 0.008107574 0.007978529 0.00783562 0.00767914 0.007511185 0.007332738 0.007148653
 0.006960162 0.006772959 0.006587666 0.006407992 0.006234059 0.006067437 0.005908116 0.005756848 0.005612696 0.005475502
 0.005343799 0.005216811 0.005094227 0.004975745 0.004861785 0.004752685 0.004646687 0.004543936 0.00443942 0.004332809
 0.004220565 0.004102805 0.003982169 0.003859485 0.003742286 0.003630775 0.003530406 0.00343952 0.003356976 0.003279903
 0.003202608 0.003122881 0.003035506 0.002939706 0.002832803 0.002715516 0.002587088 0.002449993 0.002304298 0.002155189
 0.002003828 0.001855391 0.00171137 0.001572499 0.00143936 0.00130817 0.001178704 0.001048257 0.0009168599 0.0007859315
 0.000655747 0.0005291674 0.0004060967 0.0002875352 0.0001734125 6.387057E-05 -4.068128E-05 -0.0001392491 -0.0002319262 -0.0003179379
 -0.0003989571 -0.000476143 -0.0005510536 -0.00062557 -0.0006984208 -0.0007700664 -0.0008368809 -0.0008976271 -0.0009511708 -0.0009964677
 -0.001037498 -0.001074441 -0.001112424 -0.001151931 -0.001192913 -0.001235261 -0.001275573 -0.001314036 -0.001350527 -0.001385778
 -0.001423503 -0.0014631 -0.001505529 -0.001548096 -0.001585941 -0.001617366 -0.001637215 -0.001647458 -0.001647455 -0.001641362
 -0.001631794 -0.001621068 -0.001611267 -0.001601555 -0.001592265 -0.001581492 -0.001568734 -0.001553865 -0.001536664 -0.00151882
 -0.001500459 -0.001482435 -0.001464706 -0.001445333 -0.001424219 -0.001399364 -0.001371399 -0.001341928 -0.001312062 -0.001286271
 -0.00126421 -0.001247874 -0.001235064 -0.001223585 -0.001211742 -0.00119646 -0.001179094 -0.001159176 -0.001139704 -0.001122359
 -0.001107329 -0.001095899 -0.001083321 -0.001069319 -0.001047215 -0.001016052 -0.0009720481 -0.0009147009 -0.0008452511 -0.0007638688
 -0.0006755214 -0.0005806955 -0.0004856424 -0.000390778 -0.0003014773 -0.0002176019 -0.0001417368 -7.307387E-05 -1.135845E-05 4.447736E-05
 9.595529E-05 0.0001440156 0.0001899344 0.0002347905 0.0002795781 0.0003252369 0.0003727767 0.0004212713 0.0004711527 0.0005189847
 0.0005642052 0.0006038183 0.0006370808 0.0006648035 0.0006868358 0.0007077861 0.0007278448 0.0007499536 0.0007736891 0.0007964241
 0.0008173493 0.0008307777 0.0008371104 0.0008337918 0.0008235013 0.0008099717 0.0007968221 0.0007910139 0.0007941541 0.0008113759
 0.0008397198 0.0008801064 0.000924817 0.000971086 0.001011058 0.001041001 0.001059483 0.001064524 0.001062881 0.001054937
 0.001048644 0.001044859 0.001045117 0.001049385 0.00105229 0.001053557 0.001048138 0.0010367 0.0010197 0.0009984451
 0.0009774249 0.0009570315 0.0009406704 0.0009270888 0.000915874 0.0009059367 0.0008953625 0.0008856007 0.0008766347 0.0008713251
 0.0008715948 0.000877088 0.000888926 0.0009022867 0.0009161914 0.0009277168 0.0009356515 0.0009446113 0.0009547011 0.0009734003
 0.001000995 0.001038216 0.001084352 0.001132123 0.001181066 0.001224692 0.001263856 0.001297932 0.00132782 0.001355451
 0.001380542 0.001403358 0.00142388 0.001441879 0.001458325 0.001473997 0.001489036 0.001504156 0.001517479 0.001528452
 0.00153599 0.001539301 0.001540542 0.00153958 0.001541101 0.001545444 0.001556879 0.001575611 0.001603083 0.001638947
 0.001680052 0.001725684 0.001770074 0.001813499 0.001853316 0.001891341 0.001930375 0.001971641 0.00201898 0.002070712
 0.00212708 0.00218457 0.002240369 0.002293193 0.002340989 0.002386166 0.002428925 0.002472241 0.002517368 0.00256303
 0.002609729 0.002651725 0.002688664 0.002714435 0.002728723 0.002728953 0.002715311 0.00268888 0.00265033 0.002603109
 0.00254915 0.00249592 0.002446762 0.002413077 0.002396354 0.002405699 0.002435988 0.002486932 0.00254807 0.002611643
 0.002670066 0.002715991 0.002751462 0.002774584 0.002793115 0.002808746 0.002825918 0.002846111 0.002866884 0.002888304
 0.002905648 0.002918674 0.00292556 0.002926528 0.002923677 0.002917545 0.002912105 0.002907904 0.002908829 0.002915324
 0.002930455 0.002954033 0.002987778 0.003029397 0.003077814 0.003128626 0.003178089 0.003223459 0.003261137 0.003294566
 0.003323454 0.003354332 0.003389168 0.003429787 0.003477341 0.003527421 0.003579707 0.003630904 0.003680816 0.003731072
 0.003781748 0.003834346 0.003888613 0.003943563 0.0039993 0.004055778 0.004113052 0.004172218 0.004230775 0.004285973
 0.004333415 0.004366148 0.004384191 0.004383047 0.004371461 0.004351591 0.004335247 0.004327985 0.004333815 0.004356133
 0.004388192 0.004429943 0.004471311 0.004511061 0.004545713 0.004574978 0.004603942 0.004633062 0.004670066 0.004714743
 0.004770281 0.004834915 0.004904464 0.004976218 0.005041313 0.00509875 0.005142055 0.005173685 0.005194281 0.005205272
 0.005209904 0.005202524 0.00518123 0.005140193 0.00507209 0.004994493 0.004904922 0.004849632 0.004838074 0.00488597
 0.004999354 0.005136266 0.005294608 0.005435838 0.005559718 0.005657966 0.005731924 0.005785933 0.005820167 0.005836968
 0.005836756 0.005820796 0.005791722 0.005754292 0.005711283 0.005667805 0.005625502 0.005586811 0.005554263 0.005529791
 0.005515317 0.005513032 0.005519242 0.005533924 0.005551029 0.005569024 0.005587826 0.005607029 0.005630556 0.005658679
 0.005690149 0.005724576 0.005755182 0.005781744 0.005799524 0.005808724 0.00580835 0.00579706 0.005771094 0.005728894
 0.005663652 0.005581262 0.005482247 0.00538382 0.005300447 0.005244331 0.005231123 0.005248848 0.005299185 0.005358406
 0.005418963 0.005473266 0.005516977 0.005561728 0.005608403 0.005665519 0.005733873 0.005806223 0.005881989 0.00594989
 0.006010483 0.006061976 0.006106045 0.006148277 0.006189963 0.006237803 0.006290858 0.006352015 0.006415851 0.006477868
 0.00653059 0.006564512 0.006580378 0.006572463 0.006556061 0.006534579 0.0065257 0.006536686 0.006568843 0.006625365
 0.006691366 0.006765782 0.00683455 0.006896582 0.006947957 0.006988634 0.007018351 0.007037307 0.007045459 0.007045023
 0.007043911 0.007046461 0.007069354 0.007112536 0.007186604 0.007281684 0.007391124 0.007501976 0.007598815 0.00767967
 0.007736126 0.007780112 0.007813976 0.007849913 0.007893292 0.007943599 0.008002802 0.008060114 0.008114503 0.008157996
 0.008189779 0.008213057 0.008228255 0.008244793 0.008262524 0.008285187 0.008311097 0.00833486 0.008355694 0.008367678
 0.008373431 0.008374714 0.008374951 0.00838072 0.008389834 0.008404973 0.008415912 0.008418246 0.008400558 0.008355686
 0.008282482 0.008177153 0.008051439 0.007906117 0.007755965 0.007602961 0.007455204 0.007313491 0.007179253 0.007052437
 0.0069312 0.006815141 0.006699993 0.006586014 0.006471202 0.006357856 0.00625165 0.006153755 0.006071318 0.005998349
 0.005931166 0.005860693 0.005774774 0.005676079 0.00555961 0.005440801 0.005325998 0.005222661 0.00513698 0.00505785
 0.004984114 0.004905982 0.004820277 0.004740614 0.004667299 0.004626259 0.004617914</values></Ydata></AB><ScSm><Ydata ylabel="Single channel"><values byteorder="INTEL" format="FLOAT32" numvalues="1814"> 0.07729341 0.0773958 0.07751179 0.07764538 0.07779135 0.07793718 0.07807012 0.07818584 0.07828821 0.07837996
 0.07846269 0.07854833 0.07865725 0.07879743 0.07895281 0.07909532 0.07920539 0.07928748 0.07937111 0.07948451
 0.07961637 0.07971351 0.07972977 0.07967697 0.07961971 0.07961692 0.07968149 0.07981174 0.08003084 0.08033085
 0.08059011 0.08065013 0.08051272 0.0803704 0.0803913 0.08055081 0.08071117 0.08077575 0.08072518 0.08060634
 0.08055871 0.08077061 0.08130575 0.08196273 0.08233954 0.082067 0.08105421 0.0796195 0.078414 0.07808194
 0.07879543 0.08006157 0.08109249 0.08144168 0.08124433 0.0808773 0.08056661 0.08038519 0.08042826 0.08079447
 0.08142285 0.0820296 0.08222058 0.08175026 0.08080072 0.07994772 0.07969134 0.0800685 0.08083098 0.08174543
 0.08236843 0.08182163 0.07957007 0.07660264 0.07512403 0.07651809 0.07990098 0.08304162 0.08439274 0.08390762
 0.08239675 0.08081304 0.08000135 0.08040711 0.0817854 0.08344685 0.08480582 0.08553714 0.08543463 0.08450906
 0.08317715 0.08208147 0.08173206 0.08236216 0.08383624 0.08550433 0.08645974 0.08625339 0.08523065 0.08408374
 0.0833427 0.08334909 0.08427957 0.08593541 0.08776323 0.08926457 0.09025455 0.09075005 0.09084672 0.09070005
 0.09045047 0.09020334 0.09013192 0.09038664 0.09079583 0.09090498 0.09048219 0.08983409 0.0894976 0.08968946
 0.09012175 0.09034857 0.09020579 0.08973199 0.08872287 0.08683075 0.08428401 0.08199565 0.08067391 0.08032891
 0.08085308 0.08231793 0.08427124 0.0855283 0.0853655 0.08449602 0.08429708 0.08532177 0.08695598 0.08831339
 0.08909526 0.08963549 0.09037982 0.09138252 0.09217918 0.09212821 0.09106566 0.08971404 0.08920233 0.08997402
 0.09135608 0.09238692 0.09282549 0.09312098 0.09361868 0.09405972 0.09380684 0.09252795 0.09077302 0.08978371
 0.09046905 0.09250371 0.09449761 0.09504695 0.09373242 0.09134512 0.08922362 0.08829218 0.08870246 0.09021764
 0.09254192 0.09517542 0.0973359 0.09835665 0.09814779 0.09717684 0.09595986 0.09458118 0.09287848 0.09119189
 0.09056036 0.09174886 0.09426385 0.09674476 0.09821784 0.09863725 0.09833443 0.09735745 0.09555458 0.09325458
 0.09157287 0.09158355 0.09309305 0.09469159 0.09525278 0.09498698 0.09479319 0.09503102 0.09532793 0.09533605
 0.09524953 0.09552725 0.09630767 0.09723443 0.09783542 0.09795626 0.0977925 0.09761269 0.09750429 0.09732285
 0.09691527 0.0964641 0.0964728 0.09723523 0.09843948 0.09948094 0.1000571 0.1002867 0.1003431 0.10016
 0.09954729 0.09856809 0.09771852 0.0975745 0.09823145 0.09923296 0.1000549 0.1004945 0.1006146 0.1005425
 0.100386 0.1002084 0.1000449 0.09997293 0.1000959 0.1004043 0.1007394 0.1009508 0.1010171 0.1009869
 0.1008799 0.1006905 0.1004516 0.1002553 0.1001954 0.1002927 0.1004888 0.1007067 0.1008855 0.1009698
 0.1009281 0.1007926 0.1006407 0.1005243 0.1004495 0.1004175 0.1004439 0.1005286 0.1006334 0.1007091
 0.1007351 0.1007222 0.100684 0.1006241 0.10055 0.1004846 0.1004573 0.1004839 0.1005502 0.1006198
 0.1006742 0.1007351 0.1008213 0.1008988 0.1009135 0.1008632 0.1008036 0.1007851 0.100813 0.1008631
 0.1009078 0.1009233 0.1008885 0.1007998 0.1006953 0.1006471 0.1007066 0.1008653 0.1010779 0.1013003
 0.1014951 0.101633 0.1017162 0.1017779 0.1018425 0.1019043 0.1019497 0.1019857 0.1020419 0.1021499
 0.1023136 0.1025 0.1026647 0.1027846 0.1028637 0.1029276 0.1030155 0.1031469 0.1032862 0.1033735
 0.1034 0.1034238 0.1034984 0.103612 0.1037103 0.1037614 0.1037855 0.103826 0.1039033 0.1040017
 0.1040954 0.1041791 0.1042693 0.104378 0.1044845 0.1045435 0.1045312 0.1044781 0.1044389 0.1044372
 0.1044587 0.1044911 0.1045432 0.1046176 0.1046886 0.1047213 0.1047087 0.1046803 0.1046703 0.10468
 0.1046802 0.1046474 0.1045884 0.1045283 0.1044865 0.104465 0.1044505 0.1044244 0.1043753 0.1043056
 0.1042251 0.1041412 0.1040547 0.1039673 0.1038939 0.1038588 0.1038651 0.1038697 0.1038081 0.1036546
 0.1034494 0.1032609 0.1031262 0.1030315 0.1029369 0.1028136 0.102661 0.1024997 0.1023525 0.1022286
 0.1021212 0.102018 0.1019173 0.1018356 0.1017913 0.1017767 0.1017534 0.1016861 0.1015786 0.1014647
 0.1013735 0.101311 0.101271 0.1012458 0.1012304 0.1012273 0.1012425 0.1012699 0.1012897 0.101291
 0.101287 0.1013019 0.1013519 0.1014413 0.101558 0.1016707 0.1017486 0.1017947 0.1018452 0.1019301
 0.1020472 0.102177 0.1023115 0.1024558 0.1026135 0.102782 0.1029604 0.1031548 0.1033721 0.103611
 0.1038597 0.1041033 0.1043359 0.1045674 0.1048166 0.1050959 0.1054 0.1057111 0.1060147 0.1063098
 0.1066054 0.106907 0.1072106 0.1075126 0.1078204 0.1081464 0.1084911 0.108842 0.1091882 0.1095306
 0.1098755 0.1102248 0.110575 0.1109266 0.1112891 0.1116737 0.1120751 0.1124664 0.1128198 0.1131355
 0.1134415 0.1137674 0.1141226 0.1144928 0.1148495 0.1151696 0.1154567 0.1157411 0.1160484 0.116374
 0.1166973 0.1170176 0.1173599 0.1177401 0.118134 0.1184909 0.1187799 0.1190199 0.119259 0.1195253
 0.1198034 0.1200611 0.1202914 0.1205157 0.1207512 0.1209944 0.1212411 0.1215031 0.12179 0.122085
 0.1223581 0.1225983 0.1228191 0.1230339 0.1232387 0.1234179 0.1235622 0.12368 0.123797 0.1239365
 0.1240986 0.1242651 0.1244264 0.1245926 0.1247768 0.1249814 0.1252062 0.1254576 0.125737 0.1260275
 0.1263104 0.1265917 0.1268961 0.1272264 0.127546 0.1278173 0.1280438 0.1282589 0.1284835 0.1287163
 0.1289602 0.1292316 0.129539 0.1298685 0.1301949 0.130502 0.1307949 0.1310959 0.131421 0.1317537
 0.1320521 0.1322893 0.1324824 0.1326765 0.1329061 0.1331731 0.1334557 0.1337311 0.1339882 0.1342205
 0.1344115 0.1345411 0.1346096 0.1346437 0.134666 0.1346634 0.1345962 0.1344333 0.134166 0.1337914
 0.1332975 0.1326761 0.1319491 0.131183 0.130476 0.1299281 0.1296125 0.1295646 0.1297837 0.1302344
 0.1308448 0.1315155 0.1321405 0.1326259 0.1328966 0.1329031 0.1326355 0.1321282 0.1314421 0.1306415
 0.1297827 0.1289129 0.128071 0.1273025 0.1266862 0.1263411 0.1263959 0.1269418 0.1280013 0.1295092
 0.1313059 0.1331717 0.1349079 0.1364119 0.1376864 0.1387859 0.1397644 0.1406592 0.1414971 0.1422963
 0.1430621 0.1437891 0.1444719 0.1451099 0.1457011 0.1462352 0.1466943 0.1470603 0.1473254 0.147499
 0.1476032 0.1476615 0.1476929 0.1477158 0.1477393 0.1477428 0.1476735 0.1474745 0.1471207 0.1466322
 0.1460792 0.1455878 0.1453366 0.1455146 0.1462414 0.1474924 0.1490934 0.1508014 0.1524102 0.1538029
 0.154941 0.1558385 0.1565446 0.1571239 0.1576304 0.1580956 0.1585329 0.158949 0.1593491 0.159738
 0.1601198 0.1604966 0.16087 0.1612424 0.161614 0.1619814 0.1623427 0.1627026 0.1630703 0.1634506
 0.1638385 0.1642224 0.1645963 0.164966 0.1653392 0.1657115 0.1660696 0.1664093 0.1667421 0.1670845
 0.1674446 0.1678192 0.1681957 0.1685571 0.1688918 0.1692025 0.1695025 0.1698022 0.170103 0.170403
 0.1707028 0.1710043 0.1713072 0.1716099 0.1719128 0.1722156 0.1725132 0.1727967 0.1730631 0.17332
 0.1735795 0.1738485 0.1741249 0.1744031 0.1746807 0.1749594 0.1752438 0.1755357 0.1758302 0.1761174
 0.1763902 0.1766514 0.1769101 0.1771736 0.1774424 0.1777134 0.1779837 0.1782521 0.1785198 0.1787898
 0.1790641 0.1793397 0.1796105 0.1798744 0.180135 0.1803966 0.18066 0.1809241 0.1811891 0.1814572
 0.1817291 0.1820024 0.1822706 0.1825273 0.182772 0.1830102 0.1832498 0.1834961 0.1837507 0.1840104
 0.1842692 0.1845237 0.1847755 0.1850272 0.18528 0.1855342 0.1857902 0.1860481 0.1863078 0.1865697
 0.1868338 0.1870982 0.1873588 0.1876122 0.1878595 0.1881059 0.1883564 0.1886116 0.188869 0.1891256
 0.1893789 0.1896278 0.1898747 0.1901235 0.1903754 0.1906284 0.1908802 0.19113 0.1913791 0.1916288
 0.1918788 0.192127 0.1923736 0.1926219 0.1928729 0.1931222 0.1933663 0.1936062 0.1938474 0.1940951
 0.1943503 0.1946082 0.1948626 0.1951118 0.1953586 0.1956056 0.1958539 0.1961043 0.1963558 0.1966067
 0.1968569 0.1971072 0.1973566 0.1976038 0.1978496 0.1980962 0.1983468 0.1986043 0.1988666 0.1991255
 0.199376 0.1996214 0.1998685 0.2001213 0.2003804 0.2006422 0.2009017 0.2011593 0.2014204 0.2016883
 0.2019607 0.2022332 0.2025012 0.2027592 0.2030064 0.2032484 0.2034893 0.2037292 0.2039671 0.204203
 0.2044376 0.2046752 0.2049195 0.2051674 0.205413 0.2056568 0.2059036 0.2061559 0.2064139 0.2066759
 0.2069375 0.2071952 0.2074531 0.2077165 0.2079852 0.2082568 0.2085289 0.2087972 0.2090604 0.2093253
 0.209598 0.209875 0.2101505 0.2104232 0.2106928 0.2109594 0.2112269 0.2114978 0.2117707 0.2120462
 0.2123274 0.2126131 0.2129005 0.2131909 0.2134827 0.2137688 0.2140471 0.2143222 0.2145955 0.2148671
 0.2151422 0.2154225 0.2157018 0.2159787 0.2162597 0.2165472 0.2168386 0.2171326 0.2174248 0.2177093
 0.2179902 0.2182748 0.2185581 0.2188331 0.2191059 0.2193828 0.2196584 0.2199287 0.2201947 0.2204501
 0.2206758 0.2208216 0.2207471 0.220158 0.2185697 0.2153165 0.209678 0.2011645 0.1898142 0.1762802
 0.1616471 0.1470906 0.1335606 0.1216555 0.1116965 0.1038474 0.09820117 0.09486298 0.0940166 0.09601109
 0.1014758 0.1109461 0.1234909 0.1355283 0.1421696 0.1409241 0.1339578 0.1261266 0.1210223 0.1192173
 0.119496 0.1206611 0.1222375 0.1243396 0.1272585 0.1310339 0.1354094 0.1402523 0.1457987 0.1522911
 0.1595072 0.1668383 0.1738 0.1803445 0.1866851 0.1929187 0.1988788 0.2042971 0.2090122 0.2130235
 0.2164347 0.2193894 0.2220153 0.2243952 0.2265836 0.2286123 0.2304477 0.231973 0.233059 0.23367
 0.2339067 0.2339562 0.2339901 0.2340953 0.234288 0.2345644 0.2349191 0.2353394 0.2358114 0.236326
 0.2368701 0.2374261 0.2379834 0.2385365 0.2390757 0.239592 0.240082 0.2405433 0.2409746 0.2413833
 0.2417788 0.2421631 0.2425361 0.2429011 0.2432597 0.2436126 0.2439637 0.2443141 0.244654 0.2449714
 0.245263 0.245533 0.2457898 0.2460439 0.2463016 0.2465602 0.2468157 0.2470679 0.2473167 0.2475623
 0.2478091 0.2480603 0.2483118 0.2485562 0.2487894 0.249013 0.2492346 0.2494648 0.2497065 0.2499524
 0.2501948 0.2504349 0.2506763 0.250919 0.251159 0.2513925 0.2516216 0.2518566 0.2521071 0.2523716
 0.2526422 0.2529156 0.2531909 0.253464 0.2537319 0.2539978 0.2542658 0.2545364 0.2548097 0.2550836
 0.2553504 0.2556013 0.255833 0.2560504 0.2562642 0.2564859 0.2567204 0.2569624 0.2572052 0.2574481
 0.2576926 0.2579383 0.2581818 0.2584192 0.2586526 0.2588933 0.2591539 0.2594345 0.2597249 0.2600194
 0.2603179 0.260617 0.2609109 0.2611993 0.2614848 0.2617655 0.2620379 0.2623066 0.2625877 0.2628992
 0.2632417 0.2635917 0.2639201 0.2642205 0.2645103 0.2648107 0.2651312 0.2654625 0.2657737 0.2660331
 0.2662525 0.2664927 0.266809 0.2671966 0.2676028 0.2679815 0.2683246 0.2686486 0.2689672 0.2692769
 0.2695629 0.269816 0.2700488 0.2703019 0.2706167 0.2709929 0.2713836 0.2717423 0.2720605 0.2723538
 0.272637 0.2729201 0.2731948 0.2734194 0.2735614 0.2736715 0.2738735 0.2742452 0.2747328 0.2752074
 0.275594 0.2759153 0.2762228 0.2765315 0.2768291 0.2770872 0.277232 0.2771823 0.2769978 0.2769285
 0.2772138 0.2778429 0.2785806 0.279203 0.2796485 0.2799748 0.2802565 0.280531 0.2807759 0.2809164
 0.2809047 0.2808272 0.2808901 0.2812332 0.2817725 0.2822932 0.2826769 0.2829691 0.2832554 0.2835631
 0.2838488 0.2839843 0.2838113 0.2833552 0.282972 0.2831179 0.2839085 0.284987 0.2858818 0.2864278
 0.2867677 0.2870203 0.287105 0.2868913 0.2863587 0.2856039 0.2848832 0.2846521 0.2852676 0.2865316
 0.2877735 0.288521 0.2889038 0.2893176 0.2899095 0.2905157 0.290932 0.2910973 0.2910612 0.2908659
 0.2905265 0.2901693 0.2901089 0.2906241 0.291635 0.2927257 0.2935347 0.2940372 0.2943778 0.294449
 0.2937821 0.2921015 0.2900505 0.2890295 0.2899533 0.2922913 0.2946444 0.2961278 0.2968559 0.297289
 0.2976318 0.2977758 0.2972843 0.2955337 0.2925631 0.2898189 0.2892787 0.2915 0.2949937 0.2976688
 0.2984305 0.2974014 0.2953879 0.293508 0.2927957 0.2936396 0.2956184 0.2979296 0.2998735 0.3010458
 0.3013617 0.3010111 0.3003786 0.2999447 0.2999841 0.3001512 0.2996955 0.2984397 0.2971285 0.2962833
 0.2952453 0.2932507 0.2911333 0.290806 0.2928945 0.2958326 0.2976772 0.2980974 0.2980227 0.2977672
 0.2962666 0.2924835 0.2873338 0.2836557 0.2837809 0.2872084 0.2911021 0.2930755 0.2930753 0.2925715
 0.2924874 0.2922228 0.2905502 0.2873549 0.2843156 0.2834066 0.284684 0.2861999 0.2861554 0.284163
 0.280314 0.2747326 0.2690555 0.2667238 0.2699455 0.2769462 0.2835392 0.2867369 0.2856798 0.2803864
 0.2720595 0.2643793 0.2618473 0.2656326 0.2722045 0.2767495 0.2769652 0.2731542 0.266258 0.2574424
 0.2491123 0.244616 0.2461107 0.2528288 0.2612276 0.266526 0.2651492 0.2575924 0.2491238 0.2458158
 0.2488425 0.2537136 0.2555591 0.2537092 0.2506762 0.248723 0.24861 0.2500398 0.2519973 0.2535444
 0.254539 0.2543089 0.2503188 0.2409764 0.229823 0.2236626 0.2255469 0.2323121 0.2397315 0.246773
 0.2532702 0.2568748 0.2555616 0.2516574 0.250361 0.2541878 0.2605689 0.2651246 0.2661012 0.265078
 0.2640714 0.2631186 0.2612944 0.259328 0.2596241 0.263276 0.2683569 0.272013 0.2733254 0.2733078
 0.2729916 0.2725628 0.2718902 0.2709481 0.2697768 0.2685023 0.2673272 0.266307 0.2653078 0.2642717
 0.2631482 0.2613165 0.2576319 0.2519155 0.2462355 0.2434863 0.2443531 0.2468766 0.2492724 0.2512285
 0.25155 0.2471891 0.237229 0.226456 0.2220675 0.226714 0.2363839 0.2448951 0.2487746 0.2476909
 0.2423654 0.2342413 0.2269672 0.2257696 0.2334278 0.2473557 0.2619135 0.2731725 0.2804205 0.2839837
 0.2837124 0.2800887 0.2754985 0.2733046 0.2755431 0.2815834 0.288612 0.2929387 0.2916033 0.284814
 0.2775777 0.2766706 0.2839069 0.2937185 0.2992971 0.2997312 0.2990173 0.2997324 0.300826 0.3011146
 0.3017469 0.3042537 0.3080158 0.3107737 0.3106514 0.3069468 0.3001176 0.2923211 0.2870753 0.2864842
 0.2889253 0.29092 0.2907093 0.2882923 0.2832372 0.2756289 0.2688114 0.2676002 0.2728124 0.2800331
 0.2846482 0.2861416 0.2866726 0.2871772 0.2862591 0.2825198 0.2770296 0.2728619 0.2720776 0.2737801
 0.2755923 0.2762354 0.2757369 0.2739429 0.2705131 0.2664972 0.2644752 0.2662739 0.2710143 0.2759648
 0.2790473 0.2801076 0.2801264 0.2799554 0.2798575 0.2796625 0.279192 0.2788439 0.2796174 0.2820451
 0.2852586 0.2877764 0.2892072 0.2905636 0.292824 0.2957213 0.2981386 0.2993406 0.2996215 0.2999316
 0.3010194 0.3028166 0.3045059 0.3052408 0.3049771 0.3046253 0.3052359 0.3070002 0.3091761 0.3109412
 0.3120841 0.312889 0.3136688 0.3145003 0.3151866 0.3154205 0.3151903 0.3150272 0.3156087 0.3170515
 0.3187708 0.3200715 0.3207185 0.3209023 0.3208449 0.3205894 0.3201128 0.3195009 0.3189505 0.3186229
 0.3185318 0.3185734 0.3186314 0.3186423 0.3186015 0.3185505 0.3185468 0.3186203 0.3187585 0.3189419
 0.3191671 0.3194204 0.3196636 0.3198726 0.3200597 0.3202322 0.3203468 0.3203301 0.320124 0.3196909
 0.3189943 0.3179981 0.3166769 0.3150043 0.312955 0.3105973 0.3082541 0.3065388 0.3061029 0.3072221
 0.3095769 0.3124335 0.3150598 0.3170403 0.3183185 0.3190464 0.3194155 0.3195687 0.3195857 0.3194983
 0.3193144 0.3190432 0.3187069 0.3183348 0.3179572 0.3176036 0.3172965 0.3170372 0.3168007 0.3165474
 0.3162435 0.3158737 0.3154375 0.3149369 0.3143693 0.3137241 0.3129821 0.3121238 0.3111532 0.3101143
 0.3090752 0.3080878 0.3071569 0.3062428 0.3052927 0.3042642 0.3031116 0.3017741 0.300235 0.2986096
 0.2971187 0.2959171 0.2949583 0.2940527 0.2930356 0.2918542 0.2905302 0.2891027 0.2876098 0.286084
 0.2845397 0.2829666 0.2813375 0.2796247 0.2778148 0.2759155 0.2739422 0.2719051 0.2698124 0.2676739
 0.2654773 0.2631544 0.2605769 0.2575946 0.2540805 0.2499558 0.2452049 0.2398932 0.2341762 0.228275
 0.2224223 0.2168193 0.211623 0.2069546 0.202909 0.1995634 0.1969802 0.1952037 0.1942544 0.1941346
 0.1948339 0.1963217 0.1985281 0.201334 0.2045796 0.2080821 0.2116507 0.2151066 0.2183246 0.2212752
 0.224014 0.2266086 0.229073 0.2313703 0.2334606 0.235328 0.2369695 0.2383805 0.2395625 0.2405376
 0.2413485 0.2420409 0.2426427 0.2431561 0.243568 0.2438727 0.2440873 0.2442508 0.2444099 0.2446044
 0.2448595 0.245184 0.2455787 0.2460486 0.2466055 0.2472576 0.2479982 0.248806 0.249656 0.2505323
 0.2514365 0.2523851 0.2534032 0.2545224 0.255779 0.257202 0.2587945 0.260522 0.2623104 0.2640548
 0.2656441 0.2669939 0.2680647 0.2688571 0.2693929 0.2696973 0.2697908 0.2696945 0.2694372 0.269051
 0.2685632 0.2679957 0.2673653 0.266678 0.2659256 0.2650975 0.2641995 0.2632602 0.2623163 0.2613901
 0.2604854 0.2596026 0.2587463 0.2579161 0.2571032 0.2563034 0.2555239 0.2547749 0.254061 0.2533785
 0.2527149 0.2520478 0.2513468 0.2505732 0.2496833 0.2486417 0.2474328 0.2460592 0.2445341 0.2428749
 0.2410968 0.239212 0.2372347 0.2351802 0.2330575 0.2308652 0.2285939 0.2262314 0.2237849 0.2213085
 0.2188926 0.2166124 0.2144961 0.2125366 0.2107142 0.2090068 0.2073943 0.2058593 0.2043859 0.2029647
 0.2015969 0.2002879 0.1990436 0.1978747 0.1967951 0.1958131 0.1949343 0.1941697 0.1935257 0.1929931
 0.1925505 0.192175 0.1918574 0.1916238 0.1915222 0.1915639 0.1916865 0.1917917 0.1918139 0.1917521
 0.1916547 0.1915799 0.1915556 0.191575 0.1916126 0.1916202 0.1915134 0.1911895 0.1905581 0.1895499
 0.1881285 0.1863176 0.1842086 0.1819399 0.1796755 0.1775765 0.17576 0.1742834 0.1731523 0.1723184
 0.1716869 0.1711766 0.1707821 0.1705699 0.170617 0.1709254 0.1713599 0.1717072 0.1718622 0.1719434
 0.1721877 0.172751 0.173617 0.1746409 0.1756483 0.1765224 0.177223 0.1777469 0.1781074 0.1783428
 0.1784919 0.1785599 0.1785326 0.1784035 0.1781675 0.1778225 0.1773829 0.1768576 0.17623 0.1754894
 0.1746502 0.1737221 0.1727014 0.1715866 0.1703553 0.1689676 0.1674707 0.1660798 0.1650983 0.1647535
 0.1650812 0.1659109 0.1669822 0.1681169 0.1692428 0.1702676 0.1710747 0.1717163 0.1725042 0.1738058
 0.1757327 0.1780268 0.1802381 0.1820153 0.1832215 0.1838419 0.1839041 0.1834798 0.1826265 0.1813283
 0.1795878 0.1775169 0.175263 0.1729499 0.1707216 0.1687101 0.1669666 0.1655095 0.1643512 0.1634906
 0.1629874 0.1625697 0.1606804 0.155019 0.145801 0.1378695 0.1370369 0.14382 0.152723 0.15814
 0.1591167 0.1580114 0.1567861 0.1558664 0.1551775 0.1547845 0.154735 0.1549231 0.155135 0.1551507
 0.1548777 0.1543282 0.1533714 0.1515114 0.1478853 0.1415695 0.1322622 0.1209158 0.1095331 0.1001021
 0.09361213 0.08985625 0.08786894 0.08659686 0.08549619 0.08471706 0.08475344 0.08593819 0.08825518 0.09148765
 0.0953742 0.09958263 0.1036593 0.1071726 0.1099406 0.1120373 0.1135755 0.1145825 0.1150746 0.1151236
 0.1148202 0.1142441 0.1134676 0.1125239 0.1113794 0.1099953 0.1084404 0.106931 0.1057306 0.104971
 0.1045749 0.1043705 0.1042512 0.1041986 0.1042124 0.1042816 0.1043981 0.1045626 0.1047888 0.1050958
 0.1054661 0.1058279 0.1061108 0.1063005 0.1064215 0.1064826 0.1064468 0.1062646 0.1059544 0.1056167
 0.1052966 0.1048507 0.1040595 0.1029039 0.1016804 0.1008153 0.1005704 0.1008854 0.1014517 0.1019451
 0.102225 0.1023458 0.1024051 0.1023959</values></Ydata></ScSm><ScRf><Ydata ylabel="Single channel"><values byteorder="INTEL" format="FLOAT32" numvalues="1820"> 0.07050515 0.07063846 0.07075961 0.07086848 0.07096732 0.07106252 0.07116459 0.07128192 0.07141416 0.07155119
 0.07167973 0.07179333 0.07189418 0.07198468 0.07206587 0.07214704 0.07224625 0.07237329 0.07251713 0.07265325
 0.07276174 0.07284461 0.07292855 0.07303979 0.07316841 0.07326591 0.07328947 0.07324798 0.07319879 0.07319584
 0.07325235 0.07336856 0.07356801 0.07384562 0.07408887 0.0741478 0.07402148 0.07389051 0.07391534 0.07407369
 0.07423329 0.07430097 0.07425988 0.07415584 0.07411701 0.07431483 0.07480802 0.07541426 0.0757663 0.07552388
 0.07460006 0.0732854 0.07217993 0.07187872 0.07254139 0.07371409 0.07467036 0.07499628 0.07481315 0.07446793
 0.07417347 0.07400279 0.0740456 0.07439084 0.07497947 0.07554823 0.07573217 0.07530321 0.07442926 0.07364368
 0.07341075 0.07376532 0.07447691 0.07532772 0.07590684 0.07540421 0.0733287 0.07059538 0.06923962 0.07053775
 0.07367203 0.07658003 0.07783039 0.07738078 0.07598534 0.07453065 0.07379788 0.07419157 0.07547537 0.07700719
 0.0782509 0.07891786 0.07882521 0.07797927 0.07675552 0.07574305 0.0754168 0.07599831 0.07736503 0.07891542
 0.07980944 0.07963014 0.0786958 0.07764564 0.07696851 0.07697919 0.07784203 0.07937615 0.08107173 0.08246726
 0.08339103 0.0838595 0.08396131 0.08383764 0.08361447 0.08338796 0.08332098 0.08355698 0.08394051 0.08405232
 0.0836768 0.08309324 0.08279184 0.0829687 0.08335979 0.08356103 0.08342871 0.0829999 0.08207904 0.08033624
 0.07798104 0.07586364 0.07464406 0.07433033 0.07482058 0.07618392 0.07800591 0.07918657 0.07904676 0.07824308
 0.07805783 0.07901265 0.08053987 0.08181176 0.08254685 0.08305657 0.08375679 0.08469537 0.08543749 0.08538956
 0.08440581 0.08316001 0.08269663 0.08342148 0.08470798 0.08566678 0.08607935 0.08636567 0.08684571 0.08727647
 0.08706382 0.08589777 0.08428717 0.08338225 0.08402572 0.08591855 0.08777584 0.08829707 0.08709024 0.08488619
 0.08292757 0.08207458 0.08246968 0.08389433 0.08607619 0.08855286 0.09059666 0.09158288 0.09142077 0.09054071
 0.08942448 0.08815574 0.08658695 0.08503672 0.08447517 0.08561637 0.08799824 0.09034875 0.09175848 0.09218492
 0.0919359 0.09105303 0.08939241 0.08726268 0.08571188 0.08575129 0.08720307 0.0887439 0.0893108 0.0890955
 0.08894315 0.08919743 0.08951106 0.08955444 0.08950822 0.08980742 0.09058601 0.091506 0.09211572 0.09226609
 0.09214446 0.09200968 0.09194656 0.09181722 0.09147484 0.09109166 0.09114411 0.09190886 0.09308855 0.0941105
 0.09469108 0.0949466 0.09504323 0.0949171 0.09438473 0.09350319 0.09274191 0.09264921 0.09331932 0.09432033
 0.09515145 0.09561615 0.09577434 0.09575115 0.09565122 0.09553237 0.09542409 0.09539983 0.09556121 0.09590071
 0.09626547 0.0965097 0.09661416 0.09662735 0.09656674 0.09642411 0.09623156 0.09608067 0.09606323 0.09619714
 0.09642435 0.09667145 0.09688155 0.09700216 0.09700234 0.09691375 0.09681136 0.09674458 0.09671754 0.09673081
 0.09680068 0.09692748 0.09707288 0.09718741 0.0972517 0.09727873 0.09728378 0.09726921 0.09723881 0.09721098
 0.09721251 0.09726044 0.09734536 0.09743664 0.09751906 0.09761435 0.09774043 0.09786212 0.09791983 0.09790349
 0.09786615 0.09786572 0.09791806 0.09800172 0.09808408 0.09813543 0.09813361 0.09807721 0.09800583 0.09799045
 0.09808104 0.09826921 0.09851035 0.09876137 0.09898447 0.09914884 0.09925501 0.09933666 0.09942047 0.09950043
 0.0995609 0.09961033 0.09968471 0.09981956 0.1000148 0.1002288 0.1004132 0.1005486 0.1006453 0.1007323
 0.1008468 0.1010028 0.1011602 0.1012585 0.1012935 0.1013295 0.1014216 0.101553 0.1016631 0.1017202
 0.1017493 0.1017976 0.1018857 0.1019958 0.1021012 0.1021964 0.1022994 0.1024236 0.1025487 0.1026269
 0.1026292 0.1025819 0.102541 0.1025357 0.1025563 0.1025922 0.1026518 0.1027375 0.1028234 0.1028743
 0.1028823 0.1028748 0.1028822 0.1029029 0.1029069 0.102872 0.1028093 0.1027492 0.1027133 0.102701
 0.1026964 0.1026807 0.1026433 0.1025855 0.1025163 0.1024439 0.1023707 0.1022988 0.1022436 0.1022308
 0.1022629 0.1022902 0.1022395 0.1020842 0.1018733 0.1016853 0.1015604 0.1014796 0.1013976 0.1012845
 0.1011413 0.100988 0.1008435 0.1007144 0.1005976 0.100489 0.1003922 0.1003208 0.1002846 0.1002664
 0.1002233 0.1001242 0.09998322 0.09984524 0.09974223 0.09967467 0.09962758 0.09958912 0.09955685 0.09953822
 0.09954111 0.09955665 0.09956101 0.09954302 0.09952056 0.09952326 0.09956882 0.09965689 0.09976898 0.09987001
 0.09993011 0.09995492 0.09998278 0.1000457 0.1001435 0.1002584 0.1003801 0.100509 0.1006468 0.1007955
 0.1009605 0.1011479 0.1013579 0.1015825 0.1018093 0.102028 0.1022381 0.1024513 0.1026833 0.1029423
 0.1032229 0.103511 0.1037932 0.1040661 0.1043358 0.1046089 0.1048847 0.105162 0.1054479 0.1057528
 0.1060764 0.1064067 0.1067335 0.1070569 0.1073809 0.1077072 0.1080344 0.108365 0.1087094 0.1090781
 0.109463 0.1098317 0.1101531 0.1104292 0.110695 0.110986 0.1113134 0.1116628 0.112006 0.1123167
 0.112592 0.1128579 0.1131424 0.1134474 0.1137561 0.1140661 0.1143987 0.1147685 0.1151527 0.1155
 0.1157762 0.1159975 0.1162134 0.1164547 0.1167075 0.1169418 0.1171531 0.1173632 0.1175867 0.1178184
 0.1180546 0.118307 0.1185835 0.1188663 0.1191264 0.1193535 0.1195603 0.11976 0.1199483 0.1201091
 0.1202313 0.1203245 0.1204187 0.1205416 0.1206922 0.120847 0.1209911 0.1211338 0.1212912 0.1214692
 0.1216689 0.1218941 0.1221422 0.1223956 0.1226391 0.1228837 0.1231572 0.1234612 0.1237558 0.1240005
 0.1241998 0.1243906 0.1245954 0.1248112 0.1250378 0.1252906 0.1255789 0.1258878 0.1261897 0.1264682
 0.1267325 0.1270112 0.1273227 0.127648 0.1279408 0.1281722 0.128357 0.1285383 0.1287522 0.1290084
 0.1292924 0.1295804 0.129853 0.1300965 0.1302956 0.1304384 0.1305313 0.1306005 0.1306638 0.130705
 0.1306826 0.1305628 0.1303351 0.1299975 0.1295409 0.128959 0.1282743 0.1275521 0.1268868 0.1263721
 0.1260768 0.1260352 0.1262473 0.1266783 0.1272601 0.1279012 0.1285061 0.1289882 0.1292734 0.1293079
 0.1290753 0.1286042 0.1279529 0.1271868 0.1263633 0.1255261 0.1247063 0.1239412 0.1233058 0.1229225
 0.1229256 0.1234091 0.1243912 0.1258015 0.1274831 0.1292274 0.1308475 0.1322478 0.1334322 0.1344545
 0.1353667 0.136203 0.1369861 0.1377286 0.1384319 0.1390942 0.1397193 0.1403113 0.140864 0.141362
 0.1417893 0.1421323 0.1423821 0.1425433 0.1426367 0.1426871 0.142712 0.1427223 0.1427217 0.1426927
 0.142592 0.1423711 0.1420062 0.141514 0.1409594 0.1404624 0.1401919 0.1403264 0.1409788 0.1421286
 0.143614 0.145206 0.1467074 0.148004 0.1490573 0.149881 0.1505237 0.1510463 0.1514979 0.1519073
 0.1522907 0.1526597 0.1530212 0.1533777 0.1537287 0.1540739 0.1544169 0.1547635 0.1551138 0.1554594
 0.1557924 0.1561166 0.1564465 0.1567938 0.1571555 0.157517 0.1578681 0.1582146 0.1585671 0.1589213
 0.1592598 0.1595737 0.159874 0.1601802 0.1605064 0.1608543 0.1612119 0.1615583 0.1618777 0.1621728
 0.1624579 0.1627428 0.1630277 0.163311 0.1635952 0.1638825 0.1641698 0.1644525 0.1647309 0.1650095
 0.1652891 0.1655643 0.1658309 0.1660917 0.1663519 0.1666107 0.1668635 0.1671085 0.1673506 0.1675988
 0.1678608 0.1681372 0.1684191 0.1686939 0.1689547 0.1692025 0.1694432 0.1696827 0.169926 0.1701759
 0.1704311 0.1706876 0.1709423 0.1711957 0.1714512 0.1717105 0.1719707 0.1722268 0.1724771 0.1727243
 0.1729709 0.173217 0.173462 0.173708 0.1739587 0.1742149 0.1744713 0.1747199 0.1749572 0.1751862
 0.1754129 0.1756424 0.1758764 0.1761142 0.1763546 0.1765971 0.1768412 0.1770859 0.177331 0.1775768
 0.1778225 0.1780679 0.1783142 0.1785621 0.1788099 0.179056 0.1793013 0.1795461 0.1797896 0.1800307
 0.1802689 0.1805036 0.1807356 0.1809677 0.1812014 0.1814363 0.1816729 0.1819123 0.1821544 0.1823972
 0.1826389 0.1828777 0.1831124 0.1833442 0.1835749 0.1838053 0.184037 0.1842741 0.1845179 0.184765
 0.1850103 0.1852506 0.1854848 0.1857152 0.1859463 0.1861819 0.1864229 0.1866686 0.1869167 0.1871631
 0.1874049 0.1876427 0.1878779 0.1881122 0.1883493 0.188592 0.1888375 0.189081 0.1893205 0.1895568
 0.1897923 0.1900302 0.1902722 0.1905175 0.1907656 0.1910178 0.1912714 0.1915213 0.1917674 0.1920151
 0.192268 0.192526 0.1927876 0.1930508 0.1933146 0.1935783 0.193839 0.1940913 0.1943329 0.1945671
 0.194797 0.1950245 0.195252 0.1954806 0.1957082 0.1959343 0.1961614 0.1963907 0.1966223 0.1968594
 0.197103 0.1973491 0.1975943 0.1978403 0.1980883 0.1983368 0.1985867 0.1988391 0.1990936 0.1993504
 0.1996101 0.1998685 0.2001214 0.2003735 0.2006316 0.2008962 0.201165 0.2014363 0.2017066 0.2019728
 0.2022375 0.2025021 0.2027639 0.2030242 0.20329 0.2035633 0.2038391 0.2041142 0.2043875 0.2046579
 0.2049289 0.2052054 0.2054847 0.205761 0.2060342 0.2063054 0.2065731 0.2068413 0.2071177 0.2074003
 0.2076817 0.2079603 0.2082365 0.2085084 0.2087797 0.2090568 0.2093368 0.2096133 0.2098877 0.2101614
 0.2104302 0.2106948 0.2109578 0.2112101 0.2114304 0.2115715 0.2115029 0.2109453 0.2094326 0.2063221
 0.2009203 0.1927587 0.1818751 0.1688956 0.1548641 0.1409134 0.1279549 0.116555 0.1070142 0.09949036
 0.09407815 0.09087858 0.09006356 0.09196791 0.09720191 0.106285 0.1183242 0.1298808 0.1362626 0.1350762
 0.128395 0.1208779 0.1159758 0.1142421 0.1145111 0.1156325 0.1171516 0.1191784 0.1219902 0.1256214
 0.1298238 0.1344704 0.139791 0.1460211 0.1529487 0.1599898 0.1666787 0.1729694 0.1790664 0.1850637
 0.1908025 0.1960234 0.2005662 0.2044246 0.2076978 0.2105287 0.2130464 0.2153344 0.2174447 0.2194047
 0.2211806 0.2226595 0.2237146 0.2243075 0.2245333 0.2245761 0.2246079 0.2247157 0.2249129 0.225192
 0.2255452 0.2259604 0.2264265 0.2269368 0.2274787 0.2280321 0.2285825 0.229121 0.229638 0.2301292
 0.2305986 0.2310483 0.2314757 0.2318833 0.2322789 0.2326661 0.2330461 0.2334193 0.2337843 0.2341402
 0.2344914 0.2348386 0.2351722 0.2354822 0.2357693 0.2360394 0.236299 0.2365569 0.2368189 0.2370836
 0.2373462 0.237604 0.2378558 0.2381029 0.2383501 0.2385997 0.2388486 0.239095 0.2393404 0.2395828
 0.2398191 0.2400527 0.2402905 0.2405342 0.2407821 0.2410329 0.2412831 0.2415264 0.2417597 0.2419871
 0.2422187 0.242465 0.2427279 0.2429964 0.2432597 0.2435211 0.2437907 0.2440697 0.2443509 0.2446297
 0.2449052 0.2451773 0.2454472 0.2457169 0.2459844 0.2462424 0.2464837 0.2467088 0.2469282 0.2471562
 0.2473984 0.2476487 0.2478998 0.2481503 0.2484003 0.2486481 0.2488934 0.2491375 0.2493834 0.2496378
 0.249907 0.2501892 0.2504765 0.2507645 0.2510529 0.2513398 0.2516258 0.2519174 0.2522172 0.2525161
 0.2528021 0.253077 0.2533583 0.2536661 0.2540048 0.2543558 0.2546929 0.255005 0.2553011 0.2555984
 0.2559114 0.2562392 0.2565542 0.2568222 0.2570499 0.2572957 0.2576145 0.2580024 0.2584096 0.2587933
 0.2591446 0.2594756 0.2597958 0.2601019 0.2603835 0.2606349 0.2608706 0.2611291 0.2614487 0.2618279
 0.2622204 0.2625799 0.2628974 0.2631887 0.2634709 0.2637568 0.2640396 0.2642765 0.2644291 0.2645405
 0.2647319 0.2650885 0.2655675 0.2660466 0.2664476 0.2667841 0.2671001 0.2674095 0.2677051 0.2679665
 0.2681266 0.2681067 0.2679595 0.2679209 0.2682182 0.2688407 0.2695651 0.2701801 0.2706271 0.2709571
 0.2712387 0.271511 0.2717594 0.2719145 0.2719255 0.2718701 0.2719474 0.2722979 0.2728446 0.2733776
 0.2737739 0.2740709 0.2743528 0.2746555 0.2749447 0.2750956 0.2749492 0.2745283 0.2741804 0.2743481
 0.2751399 0.2762071 0.2770944 0.2776438 0.2779919 0.2782515 0.2783454 0.2781502 0.2776493 0.2769364
 0.2762572 0.2760509 0.2766651 0.2779114 0.2791401 0.2798905 0.2802875 0.2807156 0.2813178 0.2819327
 0.2823601 0.2825416 0.2825273 0.28236 0.2820536 0.2817289 0.2816922 0.2822181 0.2832294 0.2843162
 0.2851208 0.2856205 0.2859633 0.2860488 0.2854211 0.2838104 0.2818431 0.2808827 0.2818195 0.2841354
 0.286464 0.2879401 0.2886747 0.28912 0.2894793 0.289647 0.2891968 0.2875222 0.2846613 0.28202
 0.2815212 0.2837109 0.2871462 0.2897921 0.2905748 0.289606 0.2876706 0.2858622 0.2851926 0.2860438
 0.288009 0.2903076 0.2922524 0.2934397 0.29378 0.2934604 0.2928663 0.2924773 0.2925648 0.2927865
 0.292401 0.2912271 0.2899871 0.2891932 0.2882091 0.2862944 0.2842635 0.2839831 0.2860655 0.2889832
 0.2908406 0.2913166 0.2913181 0.2911451 0.2897466 0.2861021 0.2811114 0.2775633 0.2777474 0.2811698
 0.2850459 0.2870387 0.2871054 0.2866937 0.2867056 0.2865424 0.2849937 0.2819519 0.2790772 0.278312
 0.2797008 0.2813187 0.2814014 0.2795781 0.2759359 0.2705824 0.2651199 0.2629446 0.2662465 0.2732846
 0.2799304 0.283234 0.2823435 0.2772706 0.269196 0.2617559 0.2594102 0.2633257 0.2700145 0.2747131
 0.2751383 0.2715816 0.2649661 0.2564467 0.2484232 0.2442451 0.2460817 0.2531809 0.2619949 0.2677048
 0.2666901 0.2594389 0.2512698 0.2483189 0.2517702 0.2570799 0.2593205 0.2578115 0.2550905 0.2534502
 0.2536774 0.2554863 0.2578458 0.2597917 0.2611693 0.2612706 0.2574726 0.248137 0.2369245 0.230853
 0.2330631 0.2402866 0.2481686 0.2556502 0.2625467 0.2664025 0.2651054 0.2610723 0.25971 0.2636401
 0.2702006 0.2748461 0.2757611 0.2745989 0.273472 0.2724355 0.2705334 0.26851 0.2688434 0.2726628
 0.2779814 0.2818517 0.283321 0.2834295 0.2832337 0.2829164 0.2823368 0.2814691 0.2803575 0.2791327
 0.2780055 0.2770364 0.2760872 0.2750919 0.2739906 0.2721347 0.2683348 0.2624066 0.2564982 0.2536133
 0.2544609 0.2570071 0.2593994 0.2613069 0.2614798 0.2567493 0.2461659 0.2347016 0.2298277 0.2342929
 0.2439323 0.2523369 0.2559224 0.2543751 0.2484756 0.239728 0.2318667 0.2302194 0.2376081 0.2513857
 0.2658013 0.2768594 0.2838486 0.2871151 0.2865187 0.2825598 0.2776633 0.2752232 0.2772667 0.2831216
 0.2899358 0.2940107 0.2924031 0.2853402 0.2778346 0.2766651 0.2836602 0.2932733 0.2987038 0.2990243
 0.2982056 0.2988124 0.2997988 0.2999869 0.3005279 0.30296 0.3066817 0.3094481 0.3093847 0.30578
 0.2990803 0.2914345 0.2863563 0.2859472 0.2885771 0.2907559 0.2907177 0.288459 0.2835426 0.2760527
 0.2693495 0.2682708 0.2736345 0.2810028 0.2857431 0.2873437 0.2879795 0.2885954 0.2877966 0.2841885
 0.2788553 0.274891 0.2743706 0.2763942 0.2785689 0.2795993 0.2794947 0.2780721 0.2749633 0.2712179
 0.2694468 0.2715019 0.2764897 0.2816372 0.2848356 0.2859268 0.2859012 0.2856212 0.2853603 0.2849574
 0.2842355 0.2835936 0.2840405 0.2861212 0.2889694 0.2910956 0.2921119 0.2930547 0.2949302 0.2974846
 0.2995967 0.3005205 0.3005416 0.3006076 0.3014694 0.3030649 0.3045803 0.3051675 0.3047779 0.3043176
 0.3048355 0.306526 0.3086509 0.3103851 0.3115045 0.3122805 0.3130226 0.3138145 0.3144675 0.3146795
 0.3144376 0.3142689 0.3148462 0.3162866 0.318011 0.3193314 0.3200166 0.3202564 0.3202685 0.3200888
 0.3196844 0.3191308 0.3186164 0.318299 0.3181955 0.3182128 0.3182493 0.3182534 0.3182255 0.3182037
 0.3182388 0.3183524 0.3185241 0.3187243 0.318936 0.3191352 0.3192884 0.3193922 0.3194816 0.3195736
 0.3196239 0.319558 0.3193185 0.3188686 0.3181714 0.3171912 0.3158993 0.3142603 0.3122398 0.3099058
 0.307588 0.3059038 0.3055015 0.3066507 0.3090284 0.3119013 0.3145403 0.3165337 0.3178264 0.3185663
 0.3189381 0.319083 0.3190874 0.3189922 0.3188096 0.3185474 0.3182243 0.317867 0.3175012 0.3171496
 0.316829 0.3165445 0.3162825 0.3160112 0.3156914 0.3152964 0.314824 0.3142855 0.3136854 0.313011
 0.3122399 0.3113574 0.3103774 0.3093482 0.3083333 0.3073779 0.3064843 0.3056172 0.3047333 0.3037971
 0.3027595 0.301549 0.3001443 0.2986695 0.297355 0.2963488 0.2955838 0.2948563 0.2940064 0.2929956
 0.2918545 0.2906204 0.2893239 0.2879887 0.2866244 0.2852222 0.2837613 0.2822176 0.2805756 0.2788371
 0.2770144 0.2751215 0.2731773 0.2712051 0.2692019 0.2670979 0.2647544 0.2620084 0.2587221 0.2548071
 0.2502379 0.2450715 0.2394606 0.2336288 0.2278117 0.2222079 0.216972 0.2122341 0.2081115 0.2047025
 0.2020771 0.2002772 0.1993243 0.1992243 0.1999632 0.2014991 0.2037568 0.2066261 0.20996 0.2135767
 0.2172707 0.2208443 0.2241589 0.2271807 0.2299673 0.2325909 0.2350637 0.2373382 0.2393661 0.2411371
 0.2426646 0.2439558 0.2450142 0.2458632 0.2465516 0.2471329 0.2476421 0.2480892 0.2484657 0.2487601
 0.2489757 0.2491375 0.2492809 0.2494356 0.2496193 0.2498396 0.2500996 0.2504063 0.250777 0.2512313
 0.2517759 0.2523983 0.2530774 0.2537987 0.2545618 0.2553797 0.2562762 0.2572836 0.258435 0.2597491
 0.2612215 0.2628232 0.2644955 0.2661439 0.2676518 0.2689178 0.2698864 0.2705501 0.2709308 0.2710604
 0.2709733 0.2707045 0.2702861 0.269743 0.2690971 0.2683735 0.2675953 0.2667708 0.2658927 0.2649527
 0.2639575 0.2629302 0.2619015 0.2608955 0.2599244 0.2589919 0.2580945 0.2572212 0.2563628 0.2555214
 0.2547039 0.2539132 0.2531539 0.2524357 0.2517581 0.2510967 0.2504095 0.2496496 0.2487738 0.2477504
 0.2465646 0.2452157 0.2437153 0.2420843 0.2403411 0.2384935 0.2365465 0.2345128 0.2324081 0.2302385
 0.2279934 0.2256538 0.2232254 0.2207709 0.2183928 0.2161731 0.2141373 0.2122691 0.2105373 0.2089103
 0.2073639 0.2058822 0.2044537 0.203073 0.2017448 0.2004775 0.1992755 0.198144 0.1970916 0.1961278
 0.1952654 0.1945195 0.1938924 0.1933655 0.1929153 0.1925277 0.1922086 0.1919937 0.1919278 0.1920072
 0.192153 0.1922621 0.1922786 0.1922137 0.192119 0.1920447 0.1920116 0.1920139 0.1920341 0.1920293
 0.1919132 0.19158 0.1909409 0.1899324 0.1885182 0.1867146 0.1846081 0.1823437 0.1800963 0.1780275
 0.1762442 0.1747946 0.1736843 0.1728678 0.1722508 0.171752 0.1713679 0.171166 0.1712209 0.1715327
 0.1719686 0.1723213 0.1724912 0.1725993 0.1728786 0.1734777 0.1743773 0.1754371 0.1764881 0.1774114
 0.1781587 0.1787226 0.1791193 0.179392 0.1795782 0.1796749 0.1796587 0.179519 0.1792526 0.1788643
 0.1783825 0.1778361 0.1772216 0.1765208 0.1757247 0.1748239 0.1738138 0.1727042 0.1714802 0.1700989
 0.1686015 0.1672025 0.1662105 0.1658603 0.1661938 0.1670443 0.1681515 0.1693315 0.1705017 0.1715618
 0.1723978 0.1730721 0.173903 0.1752553 0.1772378 0.179592 0.1818664 0.1837049 0.1849693 0.185644
 0.1857488 0.1853413 0.1844747 0.1831483 0.1813876 0.1793149 0.1770702 0.1747636 0.1725349 0.1705248
 0.1687955 0.1673688 0.1662497 0.1654234 0.164941 0.1645299 0.1626174 0.156868 0.1474943 0.1394215
 0.1385784 0.1455089 0.1546208 0.160193 0.161238 0.1601454 0.1589069 0.1579576 0.1572311 0.156803
 0.1567277 0.1569037 0.1571184 0.1571446 0.1568806 0.1563379 0.1553879 0.1535262 0.1498696 0.1434759
 0.1340383 0.1225196 0.1109489 0.1013513 0.09475015 0.09094779 0.08895699 0.08769201 0.08659463 0.08582397
 0.0858865 0.08711575 0.08948887 0.09278546 0.09674522 0.1010372 0.1052028 0.1087961 0.1116189 0.1137421
 0.1152949 0.1163254 0.1168544 0.1169416 0.1166651 0.116101 0.1153223 0.1143642 0.1132021 0.1118135
 0.1102752 0.1087937 0.1076153 0.1068668 0.10648 0.1062931 0.106199 0.1061702 0.1061993 0.1062777
 0.106405 0.1065844 0.1068252 0.1071419 0.1075197 0.1078922 0.1081871 0.1083779 0.1084755 0.1084849
 0.1083787 0.1081205 0.1077373 0.1073332 0.1069521 0.1064452 0.1055887 0.1043696 0.1030935 0.1021852
 0.1018955 0.1021614 0.1026841 0.1031447 0.1033935 0.1034773 0.1035056 0.1034919 0.1033199 0.1028729
</values></Ydata></ScRf><Data_Parameters_AB><parameter name="DPF">1</parameter><parameter name="NPT">3497</parameter><parameter name="FXV">3996</parameter><parameter name="LXV">500</parameter><parameter name="CSF">1</parameter><parameter name="MXY">0.0177344754338264</parameter><parameter name="MNY">-0.0371471382677555</parameter><parameter name="DAT">18/01/2024</parameter><parameter name="TIM">12:02:59.559 (GMT+1)</parameter><parameter name="DXU">WN</parameter></Data_Parameters_AB><AB__Qtest><MainReport name="Quality Test Report"><Header><Line><Legend>Test result ok/not ok [1/0]: </Legend><Value>0</Value></Line><Line><Legend>Method file: </Legend><Value>C:\Users\Public\Documents\Bruker\OPUS_8.2.28\QT\IRBT_v3_default.QT</Value></Line></Header><Matrix><Line><Legend></Legend><Legend>min</Legend><Legend>max</Legend><Legend>measured</Legend></Line><Line><Value>Absorption (X-Range 1):</Value><Value>0.400000</Value><Value>2.000000</Value><Value>0.032164</Value></Line><Line><Value>Noise (X-Range 4):</Value><Value></Value><Value>0.000300</Value><Value>0.000021</Value></Line><Line><Value>Signal/Noise (X-Range 2):</Value><Value>200.000000</Value><Value></Value><Value>19.702797</Value></Line><Line><Value>Signal/Noise (X-Range 3):</Value><Value>40.000000</Value><Value></Value><Value>20.296167</Value></Line><Line><Value>Water vapour (X-Range 5):</Value><Value></Value><Value>0.000300</Value><Value>0.000008</Value></Line><Line><Value>Signal/Water (X-Range 2):</Value><Value>100.000000</Value><Value></Value><Value>54.560808</Value></Line><Line><Value>Signal/Water (X-Range 3):</Value><Value>20.000000</Value><Value></Value><Value>56.203961</Value></Line><Line><Value>Fringes (X-Range 6):</Value><Value></Value><Value>0.000100</Value><Value>0.000020</Value></Line></Matrix></MainReport></AB__Qtest><Data_Parameters_ScSm><parameter name="DPF">1</parameter><parameter name="NPT">1814</parameter><parameter name="FXV">3996.63438082617</parameter><parameter name="LXV">499.579297603271</parameter><parameter name="CSF">1</parameter><parameter name="MXY">0.320902347564697</parameter><parameter name="MNY">0.0751240253448486</parameter><parameter name="DAT">18/01/2024</parameter><parameter name="TIM">12:02:59.559 (GMT+1)</parameter><parameter name="DXU">WN</parameter></Data_Parameters_ScSm><Data_Parameters_ScRf><parameter name="DPF">1</parameter><parameter name="NPT">1820</parameter><parameter name="FXV">4004.34989121387</parameter><parameter name="LXV">495.721542409425</parameter><parameter name="CSF">1</parameter><parameter name="MXY">0.320268511772156</parameter><parameter name="MNY">0.0692396238446236</parameter><parameter name="DAT">18/01/2024</parameter><parameter name="TIM">12:02:33.135 (GMT+1)</parameter><parameter name="DXU">WN</parameter></Data_Parameters_ScRf><Optic_Parameters_Rf><parameter name="APR">0</parameter><parameter name="APT">Open</parameter><parameter name="BMS">KBr</parameter><parameter name="DTC">RT-DLaTGS_IR-Biotyper [Microplate reader]</parameter><parameter name="HPF">0</parameter><parameter name="LPF">10.0</parameter><parameter name="LPV">4000</parameter><parameter name="PGR">0</parameter><parameter name="RCH">Module port</parameter><parameter name="RDX">0</parameter><parameter name="SRC">MIR</parameter><parameter name="VEL">10.0</parameter><parameter name="SON">Off</parameter></Optic_Parameters_Rf><Acquisition_Parameters_Rf><parameter name="ADT">1</parameter><parameter name="AQM">DD</parameter><parameter name="CFE">0</parameter><parameter name="COR">0</parameter><parameter name="DEL">0</parameter><parameter name="DLY">0</parameter><parameter name="HFW">8000</parameter><parameter name="LFW">0</parameter><parameter name="NSR">32</parameter><parameter name="PLF">AB</parameter><parameter name="RES">6</parameter><parameter name="RGN">-1</parameter><parameter name="STR">0</parameter><parameter name="TCL">MakeCompatibleScalar (0, {WSV=1.000000, ARV=0});</parameter><parameter name="TDL">37</parameter><parameter name="RPO">0</parameter></Acquisition_Parameters_Rf><FT_-_Parameters_Rf><parameter name="APF">B3</parameter><parameter name="HFQ">500</parameter><parameter name="LFQ">4000</parameter><parameter name="NLI">0</parameter><parameter name="PHR">24</parameter><parameter name="PHZ">ML</parameter><parameter name="SPZ">NO</parameter><parameter name="ZFF">1</parameter></FT_-_Parameters_Rf><Optic_Parameters_><parameter name="APR">0</parameter><parameter name="APT">Open</parameter><parameter name="BMS">KBr</parameter><parameter name="CHN">Module port</parameter><parameter name="DTC">RT-DLaTGS_IR-Biotyper [Microplate reader]</parameter><parameter name="HPF">0</parameter><parameter name="LPF">10.0</parameter><parameter name="LPV">4000</parameter><parameter name="PGN">0</parameter><parameter name="RDX">0</parameter><parameter name="SRC">MIR</parameter><parameter name="VEL">10.0</parameter><parameter name="SON">Off</parameter></Optic_Parameters_><FT_-_Parameters_><parameter name="APF">B3</parameter><parameter name="HFQ">500</parameter><parameter name="LFQ">4000</parameter><parameter name="NLI">0</parameter><parameter name="PHR">24</parameter><parameter name="PHZ">ML</parameter><parameter name="SPZ">NO</parameter><parameter name="ZFF">1</parameter></FT_-_Parameters_><Acquisition_Parameters_><parameter name="ADT">1</parameter><parameter name="AQM">DD</parameter><parameter name="CFE">0</parameter><parameter name="COR">0</parameter><parameter name="DEL">0</parameter><parameter name="DLY">0</parameter><parameter name="HFW">8000</parameter><parameter name="LFW">0</parameter><parameter name="NSS">32</parameter><parameter name="PLF">AB</parameter><parameter name="RES">6</parameter><parameter name="SOT">0</parameter><parameter name="TCL">MakeCompatibleScalar (0, {WSV=1.000000, ARV=0});</parameter><parameter name="TDL">37</parameter><parameter name="SPO">0</parameter><parameter name="SGN">-1</parameter></Acquisition_Parameters_><Instrument_Parameters_Rf><parameter name="HFL">15801.365274</parameter><parameter name="LFL">0</parameter><parameter name="LWN">15801.365274</parameter><parameter name="ABP">32157</parameter><parameter name="SSP">1</parameter><parameter name="ARG">2</parameter><parameter name="ASG">2</parameter><parameter name="ASS">32</parameter><parameter name="GFW">16</parameter><parameter name="GBW">16</parameter><parameter name="BFW">0</parameter><parameter name="BBW">0</parameter><parameter name="PKA">9306</parameter><parameter name="PKL">4987</parameter><parameter name="PRA">9269</parameter><parameter name="PRL">5010</parameter><parameter name="P2A">1</parameter><parameter name="P2L">1</parameter><parameter name="P2R">1</parameter><parameter name="P2K">1</parameter><parameter name="DAQ">0</parameter><parameter name="AG2">1</parameter><parameter name="SSM">1</parameter><parameter name="RSN">46652</parameter><parameter name="CRR">0</parameter><parameter name="SRT">1705579353.136</parameter><parameter name="DUR">19.6449890136719</parameter><parameter name="TSC">31.1</parameter><parameter name="MVD">0.280783832073212</parameter><parameter name="AN1">0.225979051663345</parameter><parameter name="AN2">0</parameter><parameter name="VSN">2.485 Apr  4 2017</parameter><parameter name="SRN">0085</parameter><parameter name="CAM">0</parameter><parameter name="INS">IR-Biotyper</parameter><parameter name="FOC">69</parameter><parameter name="RDY">1</parameter><parameter name="ARS">32</parameter></Instrument_Parameters_Rf><Sample_Parameters_><parameter name="BLD"></parameter><parameter name="CNM">Admin</parameter><parameter name="CPY"></parameter><parameter name="DPM"></parameter><parameter name="EXP">IRBT_v3_32Scans.XPM</parameter><parameter name="LCT"></parameter><parameter name="SFM">Microplate, HTS-XT</parameter><parameter name="SNM">240118-1045-Cdiff_SCFA_2_C29_232123366_C10_df567533-f061-4a16-af7b-8882125ad411.0</parameter><parameter name="XPP">C:\Users\Public\Documents\Bruker\OPUS_8.2.28\XPM</parameter><parameter name="IST">OK</parameter><parameter name="CPG">1252</parameter><parameter name="UID">fb3dc621-3f02-41f3-af77-003baf29d64b</parameter></Sample_Parameters_><Instrument_Parameters_><parameter name="HFL">15801.365274</parameter><parameter name="LFL">0</parameter><parameter name="LWN">15801.365274</parameter><parameter name="ABP">32157</parameter><parameter name="SSP">1</parameter><parameter name="ASG">2</parameter><parameter name="ARG">2</parameter><parameter name="ASS">32</parameter><parameter name="GFW">16</parameter><parameter name="GBW">16</parameter><parameter name="BFW">0</parameter><parameter name="BBW">0</parameter><parameter name="PKA">9507</parameter><parameter name="PKL">4987</parameter><parameter name="PRA">9514</parameter><parameter name="PRL">5010</parameter><parameter name="P2A">1</parameter><parameter name="P2L">1</parameter><parameter name="P2R">1</parameter><parameter name="P2K">1</parameter><parameter name="DAQ">0</parameter><parameter name="AG2">1</parameter><parameter name="SSM">1</parameter><parameter name="RSN">24019</parameter><parameter name="CRR">0</parameter><parameter name="SRT">1705579379.56</parameter><parameter name="DUR">19.6449890136719</parameter><parameter name="TSC">31.1</parameter><parameter name="MVD">0.275332808494568</parameter><parameter name="AN1">0.22602505493947</parameter><parameter name="AN2">0</parameter><parameter name="VSN">2.485 Apr  4 2017</parameter><parameter name="SRN">0085</parameter><parameter name="CAM">0</parameter><parameter name="INS">IR-Biotyper</parameter><parameter name="FOC">69</parameter><parameter name="RDY">1</parameter></Instrument_Parameters_><History/></OPUSDataFile>
