<?xml version="1.0" encoding="UTF-8" ?>
<OPUSDataFile><AB><Ydata ylabel="Absorbance Units"><values byteorder="INTEL" format="FLOAT32" numvalues="3497"> -0.05183074 -0.05177438 -0.05173029 -0.05169733 -0.05167296 -0.05165464 -0.05163494 -0.0516145 -0.05159046 -0.0515659
 -0.05154326 -0.05152388 -0.05151009 -0.05150023 -0.05149409 -0.05149021 -0.05148789 -0.05148702 -0.05148749 -0.05148934
 -0.05149269 -0.05149628 -0.05150003 -0.05150267 -0.05150415 -0.05150483 -0.05150476 -0.05150471 -0.0515045 -0.0515039
 -0.05150223 -0.05149727 -0.05148829 -0.05147241 -0.05144976 -0.05141872 -0.05138137 -0.05133855 -0.05129422 -0.05125108
 -0.05121311 -0.05118342 -0.05116238 -0.05115171 -0.05114663 -0.05114683 -0.05114589 -0.05114274 -0.05113412 -0.05111952
 -0.05109935 -0.05107361 -0.05104417 -0.05101126 -0.05097812 -0.0509454 -0.05091866 -0.050898 -0.05088728 -0.05088457
 -0.05088792 -0.0508946 -0.05089926 -0.05090116 -0.05089697 -0.05088861 -0.05087647 -0.05086225 -0.05084718 -0.05083114
 -0.05081427 -0.05079667 -0.05077815 -0.05076025 -0.05074321 -0.05072805 -0.05071503 -0.05070261 -0.05069071 -0.05067562
 -0.05065738 -0.05063489 -0.05060895 -0.0505833 -0.05055889 -0.05054148 -0.05053025 -0.05052708 -0.05052861 -0.05053084
 -0.05052992 -0.0505196 -0.05049923 -0.05046512 -0.0504219 -0.05037011 -0.05031697 -0.05026495 -0.05021957 -0.05018284
 -0.05015616 -0.05014042 -0.05013276 -0.05013319 -0.05013634 -0.0501419 -0.0501456 -0.0501474 -0.05014604 -0.05014176
 -0.05013536 -0.05012702 -0.05011768 -0.05010744 -0.05009701 -0.05008643 -0.05007618 -0.05006577 -0.05005498 -0.05004287
 -0.05002838 -0.05001175 -0.0499921 -0.04997271 -0.04995441 -0.04994023 -0.04993175 -0.04992676 -0.04992566 -0.04992206
 -0.04991523 -0.04990317 -0.04988572 -0.04986801 -0.0498503 -0.04983799 -0.04983013 -0.0498244 -0.04981862 -0.0498032
 -0.04977794 -0.04973551 -0.04968189 -0.04962272 -0.04956534 -0.04952212 -0.04949182 -0.0494791 -0.04947591 -0.04947942
 -0.04948233 -0.04948075 -0.04947313 -0.04945771 -0.04943834 -0.04941517 -0.0493932 -0.04937301 -0.04935692 -0.04934511
 -0.04933539 -0.04932747 -0.04931671 -0.04930324 -0.04928527 -0.0492638 -0.04924177 -0.0492194 -0.04919947 -0.04917983
 -0.04915821 -0.04913257 -0.04909848 -0.04905836 -0.04901209 -0.04896389 -0.04891691 -0.04887068 -0.04882592 -0.04878065
 -0.04873344 -0.0486887 -0.0486464 -0.04861429 -0.04859354 -0.04858423 -0.04858653 -0.04859166 -0.04859917 -0.04860016
 -0.04859522 -0.04858341 -0.048566 -0.04854755 -0.04852829 -0.0485115 -0.04849565 -0.0484798 -0.04846188 -0.04843877
 -0.04841011 -0.04837395 -0.04833262 -0.04828667 -0.04823878 -0.04819043 -0.04814192 -0.04809362 -0.04804524 -0.04799638
 -0.04794976 -0.04790558 -0.04786664 -0.04783313 -0.04780424 -0.04777983 -0.04775772 -0.04773809 -0.04772132 -0.0477074
 -0.04769702 -0.04768894 -0.04768037 -0.04767018 -0.04765424 -0.04763439 -0.04761039 -0.04758665 -0.04756708 -0.04755385
 -0.04755074 -0.04755311 -0.04756115 -0.04756577 -0.0475642 -0.04755229 -0.04752773 -0.04749711 -0.04746047 -0.04742851
 -0.047402 -0.04738313 -0.04737142 -0.04735811 -0.04734252 -0.0473152 -0.04727697 -0.04722575 -0.04716337 -0.04709282
 -0.04701701 -0.04694192 -0.04687107 -0.0468118 -0.04676421 -0.04673211 -0.04671052 -0.04669815 -0.04668897 -0.04668006
 -0.04666848 -0.04665254 -0.0466328 -0.046609 -0.04658251 -0.04655347 -0.04652264 -0.04649011 -0.04645539 -0.04641848
 -0.0463789 -0.04633691 -0.04629402 -0.04625071 -0.04621 -0.04617169 -0.04613718 -0.0461051 -0.04607385 -0.04604167
 -0.04600567 -0.04596493 -0.04591703 -0.04586383 -0.04580486 -0.04574524 -0.04568708 -0.04563355 -0.04558674 -0.04554411
 -0.04550577 -0.04546764 -0.04542911 -0.04538939 -0.04534837 -0.04530611 -0.04526245 -0.04521408 -0.04516082 -0.04509942
 -0.04503077 -0.04495678 -0.04487854 -0.04480033 -0.04472182 -0.04464453 -0.0445674 -0.0444891 -0.04441045 -0.044331
 -0.04425377 -0.04418061 -0.04411317 -0.04405365 -0.04399835 -0.04394773 -0.04389307 -0.04383279 -0.0437607 -0.04367517
 -0.04358035 -0.04347629 -0.04337113 -0.04326498 -0.04315795 -0.04304929 -0.04293244 -0.04280806 -0.042675 -0.0425358
 -0.04239703 -0.04226043 -0.0421331 -0.04201362 -0.04190377 -0.0417996 -0.04169803 -0.04159644 -0.04149148 -0.04138476
 -0.04127627 -0.04116737 -0.0410597 -0.04094781 -0.04083156 -0.04070213 -0.04055778 -0.04039919 -0.0402259 -0.04005065
 -0.03987404 -0.03970764 -0.03955113 -0.03940725 -0.03927476 -0.03914991 -0.03903132 -0.03891313 -0.03879469 -0.03867185
 -0.03854484 -0.03841259 -0.03827445 -0.03812953 -0.03797727 -0.0378158 -0.0376493 -0.03747811 -0.03730981 -0.03714754
 -0.03699233 -0.03684583 -0.03670133 -0.0365581 -0.03641165 -0.03626138 -0.03611024 -0.03595842 -0.03581137 -0.03566898
 -0.0355328 -0.03540194 -0.03527333 -0.03514561 -0.03501322 -0.03487537 -0.0347272 -0.03457046 -0.03440484 -0.03423411
 -0.0340619 -0.03389053 -0.03372291 -0.03355895 -0.03339921 -0.03324346 -0.03309164 -0.03294407 -0.03280102 -0.03266135
 -0.03252526 -0.03238863 -0.03225123 -0.0321083 -0.03195968 -0.0318037 -0.03164078 -0.03147373 -0.03130324 -0.0311342
 -0.03096676 -0.03080408 -0.03064559 -0.03049178 -0.03034186 -0.03019508 -0.0300504 -0.02990667 -0.0297628 -0.02961768
 -0.02947088 -0.02932185 -0.02917085 -0.02901778 -0.02886313 -0.02870675 -0.02855051 -0.02839454 -0.02824106 -0.02809032
 -0.02794203 -0.02779613 -0.02765014 -0.02750406 -0.02735668 -0.02720826 -0.02705951 -0.02691031 -0.02676074 -0.02661057
 -0.02645914 -0.02630694 -0.02615436 -0.02600197 -0.02585077 -0.0257002 -0.02555045 -0.02540002 -0.02524848 -0.02509377
 -0.02493498 -0.02477145 -0.02460229 -0.02443096 -0.02425737 -0.02408833 -0.0239244 -0.02377005 -0.02362542 -0.02348945
 -0.02336177 -0.02323862 -0.02311962 -0.02300129 -0.02288292 -0.0227603 -0.02263319 -0.02249838 -0.02235756 -0.02221137
 -0.02206252 -0.02191428 -0.02176769 -0.02162481 -0.02148486 -0.02134795 -0.02121338 -0.02108096 -0.02095009 -0.02082078
 -0.02069153 -0.02056217 -0.02043107 -0.02029806 -0.02016251 -0.0200244 -0.01988417 -0.01974198 -0.01959953 -0.01945729
 -0.0193185 -0.01918369 -0.01905654 -0.01893671 -0.01882569 -0.01872177 -0.01862339 -0.01852816 -0.01843286 -0.0183363
 -0.01823613 -0.0181337 -0.01802856 -0.01792404 -0.01782111 -0.01772233 -0.0176289 -0.01753948 -0.01745445 -0.01736893
 -0.01728254 -0.0171912 -0.01709474 -0.01699465 -0.01689142 -0.01679104 -0.01669364 -0.01660348 -0.01651925 -0.01643907
 -0.01636114 -0.0162803 -0.01619616 -0.01610524 -0.0160095 -0.0159093 -0.01580768 -0.01570686 -0.01560943 -0.01551749
 -0.01543159 -0.01535265 -0.01527928 -0.01521156 -0.01514703 -0.01508554 -0.01502385 -0.01496173 -0.01489575 -0.01482573
 -0.01475009 -0.01466905 -0.01458467 -0.01449741 -0.01441105 -0.0143258 -0.01424424 -0.01416654 -0.01409427 -0.01402772
 -0.01396828 -0.01391536 -0.01386969 -0.01382812 -0.01378922 -0.01374832 -0.01370226 -0.01364952 -0.01358763 -0.0135221
 -0.0134531 -0.01338925 -0.01333221 -0.01328551 -0.01325005 -0.01322088 -0.01319775 -0.01317392 -0.01314926 -0.01312051
 -0.01308792 -0.01305133 -0.01301092 -0.01296693 -0.01292005 -0.01287172 -0.01282295 -0.01277611 -0.01273138 -0.0126899
 -0.01265133 -0.01261542 -0.01258302 -0.01255452 -0.01253057 -0.01251223 -0.01249655 -0.01248366 -0.01246747 -0.01244692
 -0.01241849 -0.01238133 -0.01233929 -0.01229255 -0.01224994 -0.01221177 -0.0121843 -0.01216675 -0.01215775 -0.01215601
 -0.01215583 -0.01215731 -0.01215754 -0.01215796 -0.01215996 -0.01216392 -0.01217137 -0.01218051 -0.01219043 -0.01219973
 -0.01220695 -0.0122132 -0.01221834 -0.01222464 -0.01223296 -0.01224324 -0.01225607 -0.01226739 -0.012277 -0.01227971
 -0.0122752 -0.01226352 -0.01224518 -0.01222777 -0.01221194 -0.01220633 -0.01220986 -0.01222361 -0.01224516 -0.01226877
 -0.01229372 -0.01231554 -0.0123364 -0.01235707 -0.01237961 -0.01240692 -0.01243701 -0.01247038 -0.01250206 -0.01252989
 -0.01255214 -0.01256702 -0.01257917 -0.01258872 -0.01260241 -0.01262118 -0.01264622 -0.01267769 -0.01271038 -0.01274399
 -0.01277312 -0.01279802 -0.01281768 -0.01283283 -0.01284579 -0.01285695 -0.01286854 -0.01288032 -0.01289283 -0.01290587
 -0.01291905 -0.01293331 -0.01294907 -0.0129677 -0.01299048 -0.01301672 -0.0130473 -0.01307762 -0.01310698 -0.01313001
 -0.01314538 -0.01315197 -0.01314924 -0.01314074 -0.01312664 -0.01311098 -0.01309391 -0.01307822 -0.01306399 -0.01305344
 -0.01304627 -0.0130431 -0.01304244 -0.01304086 -0.01303708 -0.01302618 -0.01301056 -0.01298989 -0.01297049 -0.0129577
 -0.01295571 -0.01297027 -0.01299638 -0.01303485 -0.01307467 -0.01311261 -0.01314338 -0.01316442 -0.01318164 -0.01319509
 -0.01321367 -0.01323801 -0.01327023 -0.01331015 -0.01335367 -0.01340062 -0.01344789 -0.01349574 -0.01354373 -0.0135918
 -0.0136395 -0.01368689 -0.01373347 -0.01378034 -0.01382891 -0.01387937 -0.01393337 -0.01398747 -0.01404043 -0.01408835
 -0.01412809 -0.01416279 -0.01419129 -0.01422425 -0.01426338 -0.01431681 -0.01438632 -0.01446889 -0.01456461 -0.01466333
 -0.01476463 -0.0148608 -0.01495211 -0.01503681 -0.01511551 -0.01518976 -0.01526022 -0.01532923 -0.0153976 -0.01546812
 -0.01554049 -0.01561592 -0.01569251 -0.01576887 -0.01584388 -0.0159159 -0.01598636 -0.01605548 -0.01612447 -0.01619428
 -0.01626264 -0.01632935 -0.01639209 -0.01645021 -0.01650621 -0.01656013 -0.01661721 -0.01667761 -0.01674371 -0.01681512
 -0.01688987 -0.01696748 -0.01704481 -0.01712177 -0.01719637 -0.01726906 -0.01733955 -0.01740883 -0.01747789 -0.01754803
 -0.01762094 -0.01769692 -0.01777718 -0.01785977 -0.01794477 -0.01802795 -0.01810813 -0.01818235 -0.0182494 -0.01831077
 -0.0183662 -0.01842029 -0.01847334 -0.01852877 -0.01858667 -0.01864816 -0.01871327 -0.01878287 -0.01885692 -0.01893617
 -0.01901981 -0.0191063 -0.01919428 -0.01928036 -0.01936396 -0.01944291 -0.01951726 -0.01958633 -0.01965027 -0.01970856
 -0.01976286 -0.0198132 -0.01986334 -0.01991445 -0.0199689 -0.02002771 -0.0200897 -0.02015491 -0.02022169 -0.02028982
 -0.02036091 -0.02043507 -0.02051501 -0.02060053 -0.02069146 -0.02078704 -0.02088374 -0.02098103 -0.02107557 -0.02116739
 -0.02125482 -0.0213385 -0.02141847 -0.0214956 -0.0215708 -0.02164434 -0.02171701 -0.02178743 -0.02185518 -0.02191917
 -0.02197852 -0.02203491 -0.02208817 -0.02214232 -0.02219801 -0.02225668 -0.0223186 -0.02238103 -0.02244387 -0.02250498
 -0.0225648 -0.02262648 -0.02269046 -0.02276098 -0.02283694 -0.02291772 -0.0230012 -0.02308252 -0.02316098 -0.02323296
 -0.02330034 -0.02336308 -0.02342473 -0.02348735 -0.02355431 -0.023628 -0.02370896 -0.02379878 -0.02389265 -0.02399044
 -0.02408442 -0.02417341 -0.02425374 -0.02432484 -0.02438988 -0.02444903 -0.02450596 -0.02456044 -0.02461164 -0.02465915
 -0.02470016 -0.02473521 -0.02476422 -0.0247885 -0.02481046 -0.02483163 -0.02485491 -0.02488193 -0.02491542 -0.02495598
 -0.02500576 -0.02506143 -0.02512284 -0.02518388 -0.02524218 -0.02529573 -0.02534275 -0.02538882 -0.0254343 -0.02548544
 -0.02554306 -0.02560542 -0.02567232 -0.02573593 -0.02579612 -0.02584819 -0.02589297 -0.02593215 -0.02596648 -0.02599927
 -0.02603051 -0.02606162 -0.02609274 -0.02612443 -0.02615736 -0.02619251 -0.02622992 -0.02627015 -0.0263123 -0.02635595
 -0.02640088 -0.02644663 -0.02649451 -0.02654454 -0.02659885 -0.02665772 -0.0267227 -0.02679406 -0.02687088 -0.02695305
 -0.02703555 -0.02711786 -0.02719257 -0.02725985 -0.02731615 -0.0273632 -0.0274044 -0.02744192 -0.02748236 -0.02752621
 -0.02757759 -0.02763467 -0.02769745 -0.0277631 -0.02782974 -0.02789501 -0.02795719 -0.02801545 -0.02806869 -0.0281189
 -0.02816592 -0.02821415 -0.02826429 -0.028319 -0.02837883 -0.02844095 -0.02850517 -0.02856442 -0.02861856 -0.02866291
 -0.02869847 -0.0287279 -0.02875274 -0.0287798 -0.02880903 -0.02884403 -0.02888296 -0.02892442 -0.02896732 -0.02900924
 -0.02905201 -0.02909609 -0.0291434 -0.02919585 -0.02925125 -0.02931001 -0.02936679 -0.02942042 -0.02946737 -0.02950662
 -0.02953922 -0.02956502 -0.02958721 -0.02960595 -0.02962326 -0.02963912 -0.02965383 -0.0296674 -0.02967975 -0.02969122
 -0.02970284 -0.02971495 -0.02972901 -0.02974474 -0.02976246 -0.0297815 -0.02980113 -0.02982113 -0.0298411 -0.02986096
 -0.02988095 -0.02989966 -0.02991704 -0.02993027 -0.02993856 -0.02994071 -0.02993623 -0.0299263 -0.02991094 -0.02989214
 -0.02986998 -0.02984481 -0.02981658 -0.02978469 -0.02974914 -0.02970959 -0.02966633 -0.02962019 -0.02957122 -0.02952005
 -0.02946628 -0.02940955 -0.02934949 -0.02928513 -0.02921765 -0.02914689 -0.02907634 -0.02900752 -0.0289439 -0.02888774
 -0.02883792 -0.02879552 -0.02875375 -0.02871183 -0.02866344 -0.0286075 -0.02854602 -0.02847908 -0.02841667 -0.0283593
 -0.02831608 -0.02828646 -0.02827194 -0.02827145 -0.02828179 -0.02830275 -0.02833228 -0.02837041 -0.02841678 -0.0284701
 -0.02852947 -0.0285917 -0.02865481 -0.02871402 -0.02876697 -0.02880799 -0.02883428 -0.02884331 -0.02883296 -0.02880796
 -0.02876811 -0.02872251 -0.02867205 -0.02862234 -0.02857375 -0.02852641 -0.02848038 -0.02843624 -0.02839449 -0.02835872
 -0.02832922 -0.02830918 -0.028298 -0.02829564 -0.02830186 -0.02831601 -0.02833851 -0.02836982 -0.02840967 -0.02845811
 -0.0285145 -0.02857775 -0.02865025 -0.02873159 -0.02882844 -0.02894212 -0.02907888 -0.02924057 -0.02942624 -0.02963667
 -0.02986144 -0.03010006 -0.03033658 -0.03057033 -0.03078841 -0.03099125 -0.0311747 -0.03134003 -0.03148964 -0.03162437
 -0.03174761 -0.03185904 -0.03195949 -0.03204877 -0.03212663 -0.03219407 -0.03225125 -0.03230087 -0.03234392 -0.03238433
 -0.03242366 -0.03246504 -0.03250998 -0.03255799 -0.03260967 -0.03266076 -0.03271099 -0.032756 -0.03279551 -0.03282829
 -0.03285436 -0.03287423 -0.03288765 -0.03289316 -0.03289052 -0.03287737 -0.03285506 -0.03282467 -0.03279038 -0.03275948
 -0.03273628 -0.03272997 -0.03273944 -0.03276844 -0.03280965 -0.03286012 -0.03291349 -0.03296565 -0.03301739 -0.03306806
 -0.03311984 -0.03317397 -0.03322488 -0.03327258 -0.03330659 -0.03332618 -0.0333278 -0.03331201 -0.03328793 -0.03325735
 -0.03323667 -0.03322759 -0.03324569 -0.03329111 -0.03337336 -0.03348853 -0.03363601 -0.03380685 -0.03399103 -0.03417803
 -0.03435547 -0.03451728 -0.03465536 -0.03477176 -0.0348643 -0.03494084 -0.03500246 -0.03505826 -0.03510995 -0.03516397
 -0.03522144 -0.03528374 -0.03535115 -0.03541905 -0.03548709 -0.03554825 -0.03560261 -0.03564697 -0.03568259 -0.03571292
 -0.03573916 -0.03576675 -0.03579499 -0.03582534 -0.03585619 -0.0358858 -0.03591388 -0.0359393 -0.03596304 -0.0359857
 -0.03600698 -0.03602719 -0.03604468 -0.03605895 -0.0360694 -0.03607546 -0.03607941 -0.0360813 -0.03608469 -0.03608987
 -0.03609807 -0.03610915 -0.03611998 -0.03613015 -0.03613491 -0.03613479 -0.03612911 -0.03611956 -0.03611047 -0.03610301
 -0.03610187 -0.03610598 -0.03611609 -0.03613016 -0.03614653 -0.03616411 -0.03618157 -0.03619914 -0.03621646 -0.03623448
 -0.03625338 -0.03627387 -0.03629631 -0.03631971 -0.03634425 -0.0363663 -0.03638564 -0.036399 -0.03640636 -0.03640831
 -0.03640525 -0.03640062 -0.03639459 -0.03638985 -0.03638609 -0.03638377 -0.03638274 -0.03638298 -0.03638439 -0.03638702
 -0.03639025 -0.03639377 -0.03639633 -0.03639689 -0.03639518 -0.03639044 -0.03638429 -0.03637676 -0.03637074 -0.03636685
 -0.03636665 -0.03637059 -0.03637762 -0.03638774 -0.0363983 -0.0364092 -0.03641946 -0.03642923 -0.03643947 -0.03644996
 -0.03646063 -0.0364705 -0.03647652 -0.03647856 -0.03647419 -0.03646568 -0.03645464 -0.03644425 -0.03643869 -0.03643785
 -0.03644375 -0.03645245 -0.03646273 -0.03647145 -0.03647686 -0.03648005 -0.0364807 -0.03648185 -0.03648401 -0.03648785
 -0.03649357 -0.03649827 -0.03650181 -0.03650143 -0.03649741 -0.03649073 -0.03648215 -0.03647587 -0.03647189 -0.03647278
 -0.03647709 -0.03648319 -0.03648963 -0.03649333 -0.03649471 -0.0364929 -0.03648901 -0.03648365 -0.03647717 -0.03646966
 -0.03646204 -0.03645398 -0.03644909 -0.03644791 -0.03645398 -0.03646828 -0.03648869 -0.03651534 -0.03654033 -0.03656328
 -0.03657764 -0.03658376 -0.03658191 -0.03657318 -0.03656292 -0.03655148 -0.03654303 -0.03653646 -0.03653165 -0.03652706
 -0.03652024 -0.03651078 -0.0364969 -0.03648023 -0.03646076 -0.03644187 -0.0364249 -0.03641311 -0.03640824 -0.03641002
 -0.03641928 -0.03643157 -0.03644646 -0.03646024 -0.03647243 -0.03648408 -0.03649526 -0.03650887 -0.03652468 -0.03654181
 -0.0365595 -0.03657331 -0.03658318 -0.03658615 -0.0365837 -0.03657735 -0.03656885 -0.03656174 -0.03655609 -0.03655387
 -0.03655266 -0.03655165 -0.03654799 -0.0365396 -0.03652695 -0.03650908 -0.03649012 -0.03647069 -0.03645445 -0.03644228
 -0.03643382 -0.03642926 -0.0364252 -0.0364215 -0.03641519 -0.03640649 -0.03639634 -0.03638547 -0.03637831 -0.03637499
 -0.03637885 -0.03638816 -0.03640134 -0.03641563 -0.03642594 -0.03643144 -0.03642878 -0.03641981 -0.0364045 -0.03638557
 -0.03636432 -0.0363425 -0.03632076 -0.03630094 -0.03628338 -0.03627028 -0.03626209 -0.0362596 -0.03626304 -0.03627046
 -0.03628173 -0.03629199 -0.03630098 -0.03630384 -0.03630089 -0.03629084 -0.03627494 -0.03625658 -0.03623679 -0.03621975
 -0.03620515 -0.03619459 -0.0361867 -0.03618067 -0.0361753 -0.03616962 -0.03616245 -0.03615292 -0.03614061 -0.03612479
 -0.03610729 -0.03608804 -0.03607046 -0.03605508 -0.0360438 -0.03603699 -0.03603328 -0.03603259 -0.03603274 -0.03603363
 -0.03603373 -0.03603303 -0.03603068 -0.03602654 -0.03601962 -0.03601009 -0.03599766 -0.03598307 -0.03596736 -0.03595105
 -0.03593541 -0.0359197 -0.03590378 -0.03588701 -0.03586864 -0.0358498 -0.03583049 -0.03581277 -0.03579738 -0.03578415
 -0.03577344 -0.03576237 -0.03575063 -0.03573726 -0.0357222 -0.03570845 -0.03569616 -0.03568837 -0.03568465 -0.03568416
 -0.03568609 -0.03568709 -0.03568691 -0.03568344 -0.03567671 -0.03566591 -0.03565113 -0.03563189 -0.03560898 -0.03558224
 -0.03555439 -0.03552654 -0.03550154 -0.03548094 -0.03546491 -0.03545422 -0.03544586 -0.03543961 -0.035432 -0.0354226
 -0.03541082 -0.03539662 -0.03538143 -0.03536527 -0.03534895 -0.03533222 -0.03531395 -0.03529419 -0.03527231 -0.03524917
 -0.03522649 -0.03520501 -0.03518695 -0.03517195 -0.03516069 -0.03515204 -0.03514518 -0.03513978 -0.03513546 -0.03513219
 -0.03513019 -0.03512822 -0.03512637 -0.03512184 -0.03511418 -0.03510178 -0.03508431 -0.03506289 -0.03503758 -0.03501165
 -0.03498523 -0.03496096 -0.03493875 -0.03491958 -0.03490309 -0.03488859 -0.03487573 -0.0348633 -0.03485123 -0.03483874
 -0.03482609 -0.03481331 -0.03480048 -0.03478776 -0.03477476 -0.03476138 -0.03474697 -0.03473109 -0.03471408 -0.0346958
 -0.03467749 -0.03465932 -0.03464227 -0.03462651 -0.03461154 -0.03459735 -0.03458301 -0.03456855 -0.03455415 -0.03454002
 -0.03452767 -0.03451719 -0.03450974 -0.03450492 -0.03450241 -0.03450155 -0.03450109 -0.03450054 -0.03449899 -0.03449563
 -0.03448972 -0.03448016 -0.03446587 -0.03444733 -0.03442369 -0.03439904 -0.03437394 -0.03435342 -0.03433882 -0.03433049
 -0.03432898 -0.034329 -0.03433026 -0.03432713 -0.03431964 -0.03430749 -0.03429122 -0.03427407 -0.03425619 -0.03423999
 -0.03422504 -0.03421154 -0.03419897 -0.03418665 -0.03417395 -0.03416004 -0.03414404 -0.03412474 -0.03410227 -0.03407582
 -0.03404785 -0.03401873 -0.03399212 -0.03396909 -0.03395174 -0.0339409 -0.03393539 -0.0339354 -0.03393706 -0.03394016
 -0.03393991 -0.03393617 -0.0339259 -0.03390956 -0.03388838 -0.03386344 -0.03383963 -0.03381753 -0.03380163 -0.03379067
 -0.03378499 -0.03378196 -0.0337784 -0.03377257 -0.03376145 -0.03374595 -0.03372533 -0.03370246 -0.03367824 -0.03365504
 -0.03363388 -0.03361493 -0.03359854 -0.03358334 -0.03356925 -0.03355487 -0.03354008 -0.03352509 -0.03350994 -0.03349606
 -0.03348341 -0.03347249 -0.03346294 -0.03345345 -0.03344373 -0.0334321 -0.03341908 -0.03340462 -0.03338984 -0.03337623
 -0.0333643 -0.03335518 -0.0333484 -0.03334403 -0.03334153 -0.03334073 -0.03334126 -0.03334323 -0.0333452 -0.03334719
 -0.03334619 -0.03334187 -0.03333184 -0.03331584 -0.03329506 -0.03326976 -0.03324541 -0.03322241 -0.03320679 -0.03319788
 -0.0331968 -0.03320124 -0.03320587 -0.03320815 -0.03320041 -0.03318277 -0.03315138 -0.03310976 -0.0330589 -0.03300424
 -0.03294886 -0.03289808 -0.03285495 -0.0328219 -0.03280076 -0.03278954 -0.03278869 -0.03279268 -0.0328012 -0.03280723
 -0.03281025 -0.03280563 -0.03279346 -0.03277666 -0.03275593 -0.03273838 -0.03272359 -0.03271391 -0.03270777 -0.03270184
 -0.03269551 -0.03268578 -0.03267342 -0.0326584 -0.03264103 -0.03262177 -0.03260015 -0.03257569 -0.03254905 -0.03251981
 -0.03249104 -0.03246344 -0.03243987 -0.0324214 -0.03240677 -0.03239622 -0.03238545 -0.03237415 -0.03235951 -0.03234152
 -0.03232116 -0.03229873 -0.03227731 -0.03225675 -0.03223816 -0.03222083 -0.03220323 -0.03218501 -0.03216447 -0.0321422
 -0.03211826 -0.03209333 -0.03206829 -0.03204278 -0.0320168 -0.03199014 -0.03196217 -0.03193509 -0.03190899 -0.03188779
 -0.0318725 -0.03186434 -0.03186406 -0.03186728 -0.03187388 -0.03187669 -0.03187545 -0.0318662 -0.03184943 -0.03182734
 -0.03180082 -0.03177525 -0.03175072 -0.03173065 -0.03171382 -0.03169956 -0.0316865 -0.03167224 -0.03165665 -0.03163834
 -0.03161893 -0.03159886 -0.03158016 -0.03156405 -0.0315509 -0.03154162 -0.03153352 -0.03152652 -0.03151648 -0.03150273
 -0.03148377 -0.03145929 -0.0314325 -0.03140362 -0.03137758 -0.03135433 -0.0313356 -0.03132085 -0.03130835 -0.03129782
 -0.03128742 -0.03127749 -0.03126798 -0.03125896 -0.03125075 -0.03124273 -0.03123449 -0.03122541 -0.03121495 -0.03120281
 -0.03118875 -0.03117253 -0.03115398 -0.03113315 -0.03110987 -0.03108521 -0.0310592 -0.0310336 -0.03100853 -0.03098534
 -0.03096408 -0.03094509 -0.0309283 -0.03091321 -0.03089973 -0.03088712 -0.03087547 -0.03086457 -0.03085476 -0.03084671
 -0.03084025 -0.0308358 -0.03083193 -0.03082746 -0.03082109 -0.03081114 -0.03079853 -0.03078285 -0.03076666 -0.03075086
 -0.03073634 -0.03072367 -0.03071156 -0.03069995 -0.03068747 -0.03067395 -0.0306594 -0.0306438 -0.03062711 -0.03060928
 -0.0305898 -0.03056884 -0.03054678 -0.03052418 -0.03050297 -0.03048354 -0.03046787 -0.0304554 -0.0304466 -0.03043969
 -0.03043317 -0.03042547 -0.03041482 -0.03040113 -0.03038353 -0.0303638 -0.03034221 -0.03032062 -0.03029953 -0.03027973
 -0.03026144 -0.03024455 -0.03022908 -0.03021496 -0.03020219 -0.03019038 -0.03017952 -0.03016908 -0.03015906 -0.03014913
 -0.03013938 -0.03012997 -0.03012094 -0.03011252 -0.03010447 -0.03009665 -0.03008864 -0.03008008 -0.03007038 -0.03005893
 -0.03004556 -0.03002996 -0.03001231 -0.02999248 -0.02997129 -0.02994865 -0.02992664 -0.02990537 -0.02988781 -0.02987422
 -0.02986688 -0.02986586 -0.02986906 -0.02987595 -0.02988022 -0.02988148 -0.02987396 -0.02985871 -0.02983562 -0.02980692
 -0.02977741 -0.02974869 -0.0297257 -0.02970777 -0.02969649 -0.02968933 -0.02968515 -0.02968119 -0.02967557 -0.02966733
 -0.0296554 -0.0296411 -0.02962431 -0.02960749 -0.02959103 -0.02957613 -0.02956296 -0.02955163 -0.02954215 -0.02953452
 -0.02952877 -0.02952522 -0.02952366 -0.02952332 -0.02952374 -0.02952286 -0.02952061 -0.02951566 -0.02950842 -0.02949903
 -0.02948768 -0.0294747 -0.02946005 -0.02944363 -0.02942612 -0.02940764 -0.02938954 -0.02937255 -0.02935646 -0.02934159
 -0.02932603 -0.02930942 -0.02929119 -0.02927108 -0.02925169 -0.02923314 -0.02921851 -0.02920767 -0.02920029 -0.02919581
 -0.02919087 -0.02918534 -0.02917679 -0.02916595 -0.02915318 -0.02913932 -0.029126 -0.0291133 -0.0291021 -0.02909182
 -0.02908228 -0.02907309 -0.02906409 -0.0290548 -0.02904509 -0.02903429 -0.02902227 -0.02900825 -0.02899199 -0.02897382
 -0.02895361 -0.02893378 -0.02891444 -0.028898 -0.0288844 -0.02887375 -0.02886563 -0.0288577 -0.02884962 -0.0288389
 -0.02882555 -0.02880823 -0.02878739 -0.02876283 -0.02873595 -0.0287079 -0.02868081 -0.02865682 -0.02863699 -0.028623
 -0.02861312 -0.02860739 -0.02860292 -0.02859887 -0.0285942 -0.02858861 -0.02858183 -0.02857387 -0.0285637 -0.02855126
 -0.02853604 -0.02851818 -0.02849957 -0.02848053 -0.0284641 -0.02844994 -0.02843866 -0.02842945 -0.02842068 -0.02841185
 -0.02840136 -0.02838915 -0.02837462 -0.02835754 -0.02833743 -0.02831454 -0.02828834 -0.02826119 -0.02823344 -0.0282087
 -0.02818797 -0.02817352 -0.02816627 -0.0281644 -0.02816807 -0.02817235 -0.02817697 -0.02817737 -0.02817351 -0.028164
 -0.02814914 -0.02813 -0.02810691 -0.02808152 -0.02805399 -0.02802532 -0.02799606 -0.02796747 -0.02794013 -0.02791534
 -0.02789291 -0.02787342 -0.02785555 -0.02783876 -0.02782197 -0.02780439 -0.02778659 -0.02776837 -0.02775159 -0.02773666
 -0.02772416 -0.02771434 -0.0277053 -0.02769696 -0.02768688 -0.02767507 -0.02766114 -0.02764526 -0.02762849 -0.02761096
 -0.02759371 -0.02757664 -0.02756009 -0.0275437 -0.02752716 -0.0275098 -0.02749061 -0.02746923 -0.0274446 -0.02741787
 -0.0273889 -0.02736055 -0.02733397 -0.0273108 -0.0272921 -0.02727641 -0.0272639 -0.02725136 -0.02723843 -0.02722308
 -0.02720514 -0.0271848 -0.02716212 -0.0271382 -0.02711313 -0.02708817 -0.02706328 -0.02703897 -0.02701505 -0.02699134
 -0.0269676 -0.02694328 -0.02691818 -0.0268917 -0.02686422 -0.02683559 -0.02680704 -0.02677914 -0.02675319 -0.02673006
 -0.02670948 -0.02669193 -0.02667493 -0.02665815 -0.02663942 -0.02661826 -0.02659596 -0.02657254 -0.02655114 -0.02653181
 -0.02651552 -0.02650189 -0.02648864 -0.02647552 -0.02646021 -0.0264431 -0.02642398 -0.02640339 -0.02638225 -0.02636077
 -0.02633958 -0.02631879 -0.02629881 -0.02627939 -0.02626061 -0.02624185 -0.02622288 -0.02620325 -0.02618263 -0.02616166
 -0.0261404 -0.02611958 -0.02609933 -0.02607981 -0.02606105 -0.02604256 -0.02602427 -0.02600515 -0.02598509 -0.0259628
 -0.0259384 -0.02591175 -0.02588319 -0.02585369 -0.02582324 -0.02579243 -0.0257608 -0.02572788 -0.02569366 -0.02565757
 -0.02562092 -0.02558426 -0.02554893 -0.02551582 -0.02548488 -0.02545642 -0.02542933 -0.02540346 -0.02537789 -0.02535243
 -0.02532703 -0.02530168 -0.02527676 -0.02525227 -0.02522784 -0.02520342 -0.02517828 -0.02515258 -0.02512645 -0.02510024
 -0.02507524 -0.02505106 -0.02502785 -0.02500441 -0.02497903 -0.02495136 -0.02491996 -0.02488648 -0.02485132 -0.02481658
 -0.02478349 -0.02475235 -0.02472377 -0.02469626 -0.02466968 -0.02464264 -0.02461492 -0.02458604 -0.02455595 -0.02452506
 -0.02449342 -0.02446191 -0.02443055 -0.02439986 -0.02436986 -0.02434099 -0.02431325 -0.024287 -0.0242618 -0.02423724
 -0.02421218 -0.0241848 -0.02415461 -0.02412005 -0.02408241 -0.02404175 -0.02400032 -0.02395912 -0.02391974 -0.02388297
 -0.02384899 -0.02381808 -0.02378923 -0.02376248 -0.0237358 -0.02370906 -0.02368037 -0.02364969 -0.02361647 -0.02358089
 -0.02354417 -0.02350654 -0.02346978 -0.02343389 -0.02339993 -0.02336745 -0.02333622 -0.02330535 -0.02327356 -0.02324007
 -0.02320342 -0.02316404 -0.02312139 -0.02307743 -0.02303273 -0.02298941 -0.02294847 -0.02291 -0.02287449 -0.02283975
 -0.02280565 -0.02276967 -0.02273155 -0.02269113 -0.02264843 -0.02260494 -0.02256071 -0.02251687 -0.02247313 -0.02242874
 -0.02238343 -0.02233587 -0.02228635 -0.02223458 -0.02218144 -0.02212805 -0.02207504 -0.02202366 -0.02197342 -0.02192459
 -0.02187585 -0.02182673 -0.02177599 -0.02172302 -0.02166781 -0.02161012 -0.02155092 -0.02149029 -0.02142931 -0.02136814
 -0.02130587 -0.02124244 -0.0211757 -0.02110577 -0.02103263 -0.02095692 -0.02088198 -0.02080791 -0.02073728 -0.02066871
 -0.02060071 -0.02053159 -0.02045784 -0.02037978 -0.02029578 -0.02020863 -0.02011939 -0.02003153 -0.01994709 -0.01986759
 -0.01979457 -0.01972552 -0.0196608 -0.01959417 -0.01952494 -0.01944741 -0.01936084 -0.01926586 -0.01916257 -0.01905646
 -0.01894776 -0.01884096 -0.01873579 -0.01863336 -0.01853305 -0.01843378 -0.01833449 -0.01823253 -0.01812701 -0.018015
 -0.01789763 -0.01777411 -0.01764839 -0.01752315 -0.01740064 -0.0172836 -0.01716899 -0.01705708 -0.01694201 -0.01682257
 -0.0166948 -0.01655781 -0.01641099 -0.01625416 -0.01608823 -0.01591327 -0.01573078 -0.01554114 -0.01534872 -0.0151542
 -0.01496407 -0.01477746 -0.01459568 -0.01441584 -0.01423246 -0.01404306 -0.01384109 -0.01362665 -0.01339721 -0.01315422
 -0.01289837 -0.01262944 -0.01234804 -0.01205165 -0.01173911 -0.01141064 -0.011065 -0.01070936 -0.01034398 -0.009979622
 -0.009617228 -0.009264343 -0.008921346 -0.008590266 -0.00827068 -0.007959132 -0.007654301 -0.007347505 -0.00703747 -0.006713897
 -0.006379832 -0.006035207 -0.005687747 -0.005350359 -0.005025347 -0.004722382 -0.004433935 -0.004157878 -0.003886488 -0.003613909
 -0.003341139 -0.003066392 -0.002795805 -0.002530782 -0.002273932 -0.002026057 -0.001786384 -0.001554849 -0.001331912 -0.001117596
 -0.0009123797 -0.0007163213 -0.0005298027 -0.0003534967 -0.0001913026 -4.398919E-05 8.318625E-05 0.0001912519 0.000279428 0.0003502592
 0.0004074292 0.0004526709 0.0004895353 0.0005179637 0.0005387805 0.0005523653 0.0005587047 0.0005596142 0.0005557581 0.0005482083
 0.0005374707 0.000523227 0.0005053964 0.000484439 0.0004602958 0.0004349977 0.0004086462 0.0003812987 0.00035261 0.0003181884
 0.0002777008 0.0002263494 0.0001653606 9.598166E-05 2.05978E-05 -5.465175E-05 -0.0001282154 -0.0001948289 -0.000254153 -0.0003040665
 -0.0003439988 -0.0003734284 -0.0003901625 -0.0003934676 -0.0003797768 -0.0003477831 -0.000294574 -0.0002187113 -0.0001214496 -2.362025E-06
 0.0001336901 0.0002861907 0.0004528827 0.0006336119 0.0008324363 0.001049627 0.001290187 0.001553536 0.001839106 0.002145377
 0.002466553 0.00280176 0.003145785 0.003499184 0.003860499 0.004230671 0.004610603 0.004999814 0.005398684 0.005805139
 0.006218253 0.006636248 0.007058186 0.007483521 0.007912293 0.008342464 0.008774096 0.009202798 0.009628299 0.01004545
 0.01045395 0.01084917 0.01123096 0.0115961 0.01194509 0.01227926 0.01259944 0.01291035 0.01321026 0.01349869
 0.01377047 0.01401679 0.01423392 0.01441373 0.01455567 0.01465664 0.01471731 0.01473675 0.01471765 0.01466134
 0.01456754 0.01443906 0.01426059 0.01403216 0.01372503 0.01333538 0.01285431 0.01228071 0.01165033 0.0109654
 0.01026657 0.00955243 0.008832876 0.00810657 0.007372414 0.006633459 0.005896848 0.005165386 0.004448853 0.003743632
 0.003050718 0.002361942 0.001668848 0.0009727834 0.000267762 -0.0004267999 -0.001104947 -0.00175161 -0.002358758 -0.002934744
 -0.003478956 -0.004006006 -0.004517945 -0.005017084 -0.005503755 -0.005972576 -0.006423491 -0.006855052 -0.007267756 -0.007664543
 -0.008045278 -0.008411062 -0.00876126 -0.009094259 -0.009410935 -0.009711409 -0.009998465 -0.01027544 -0.01054463 -0.01080956
 -0.01106974 -0.01132621 -0.01157678 -0.01182037 -0.0120573 -0.01228724 -0.01251195 -0.01273241 -0.01294459 -0.01314866
 -0.01333494 -0.01350273 -0.01364915 -0.01377454 -0.01388546 -0.0139824 -0.01407177 -0.0141535 -0.01423061 -0.01430286
 -0.01437144 -0.01443562 -0.01449519 -0.01454809 -0.01459185 -0.01462455 -0.01464332 -0.01464842 -0.01463887 -0.01461665
 -0.01458241 -0.01453735 -0.0144822 -0.01441617 -0.01433941 -0.01424992 -0.01414764 -0.0140297 -0.01389593 -0.01374267
 -0.01357004 -0.01337954 -0.01317295 -0.01296339 -0.01275334 -0.01256108 -0.01238532 -0.01223309 -0.01209949 -0.01197871
 -0.01186722 -0.01175772 -0.01164991 -0.01154153 -0.01143168 -0.0113201 -0.01120309 -0.0110786 -0.01094609 -0.01080392
 -0.01065826 -0.01051016 -0.01036323 -0.01021863 -0.01007093 -0.00991993 -0.00975769 -0.009583981 -0.009395103 -0.009191503
 -0.008974842 -0.008745599 -0.008506889 -0.008258326 -0.008000867 -0.007732916 -0.007451895 -0.007156715 -0.006844233 -0.006516029
 -0.006172227 -0.005815005 -0.005446519 -0.005065299 -0.004671515 -0.004262479 -0.003836638 -0.003396383 -0.002941164 -0.002478399
 -0.002008943 -0.001537543 -0.00106467 -0.0005900722 -0.0001139292 0.0003609491 0.0008325964 0.001285171 0.001714944 0.002097556
 0.002430219 0.002692998 0.002884355 0.002992653 0.003016209 0.002947705 0.002787669 0.002532296 0.002188484 0.00175679
 0.001252259 0.0006789144 5.763973E-05 -0.0006063818 -0.001291244 -0.001992464 -0.002692901 -0.003390107 -0.004072267 -0.004738451
 -0.005378624 -0.005992269 -0.006570253 -0.00711262 -0.007615176 -0.008079134 -0.008507284 -0.008901478 -0.009268405 -0.009609202
 -0.009929395 -0.01022882 -0.01050924 -0.01077094 -0.01101409 -0.01124101 -0.01145271 -0.01165266 -0.01184257 -0.01202483
 -0.01220051 -0.01237074 -0.01253581 -0.01269691 -0.01285422 -0.01300845 -0.01315977 -0.01330594 -0.01344674 -0.01357714
 -0.01369688 -0.01380141 -0.01389098 -0.01396426 -0.01402169 -0.01406394 -0.01409113 -0.01410368 -0.01410182 -0.01408563
 -0.01405643 -0.01401534 -0.01396385 -0.01390326 -0.01383437 -0.01375728 -0.01367474 -0.01358629 -0.01350043 -0.01341793
 -0.01335064 -0.01330027 -0.01327401 -0.01327282 -0.01329488 -0.01333994 -0.01340021 -0.01347513 -0.01355668 -0.01364452
 -0.01373306 -0.01382164 -0.01390569 -0.01398381 -0.01405098 -0.01410628 -0.01414564 -0.01417067 -0.01418049 -0.01417984
 -0.01417119 -0.01415954 -0.01414802 -0.01413871 -0.01413325 -0.01413055 -0.01413061 -0.01413258 -0.01413616 -0.01414258
 -0.01415188 -0.01416567 -0.01418396 -0.01420586 -0.01423102 -0.01425568 -0.01427956 -0.01429905 -0.01431467 -0.01432585
 -0.01433365 -0.0143402 -0.01434572 -0.01435165 -0.01435726 -0.014362 -0.01436639 -0.01436991 -0.0143755 -0.01438441
 -0.01439868 -0.01442012 -0.01444546 -0.01447506 -0.01450162 -0.01452412 -0.01453826 -0.01454337 -0.01454152 -0.01453283
 -0.0145222 -0.01450971 -0.01449788 -0.01448637 -0.01447475 -0.01446272 -0.01444916 -0.01443391 -0.01441603 -0.01439571
 -0.01437263 -0.01434758 -0.01432112 -0.01429422 -0.01426814 -0.01424216 -0.0142169 -0.01418899 -0.01415767 -0.01411944
 -0.01407301 -0.01401867 -0.01395582 -0.0138893 -0.01381933 -0.01375213 -0.01368799 -0.01363026 -0.01357878 -0.01353292
 -0.01349234 -0.01345489 -0.01342051 -0.01338785 -0.01335708 -0.01332804 -0.01330079 -0.01327536 -0.01325171 -0.01322984
 -0.01320953 -0.01319072 -0.01317288 -0.01315578 -0.01313899 -0.01312218 -0.01310571 -0.01308941 -0.01307471 -0.01306181
 -0.01305169 -0.01304448 -0.01304013 -0.01303862 -0.01303906 -0.01304142 -0.01304498 -0.01304962 -0.01305434 -0.01305906
 -0.01306288 -0.01306594 -0.01306809 -0.01306951 -0.01307053 -0.01307093 -0.0130706 -0.01306938 -0.01306695 -0.01306379
 -0.01306007 -0.01305627 -0.01305287 -0.0130489 -0.01304432 -0.01303768 -0.01302859 -0.01301773 -0.01300501 -0.01299303
 -0.01298193 -0.01297239 -0.01296417 -0.01295461 -0.01294346 -0.01292756 -0.01290755 -0.01288363 -0.01285707 -0.01283087
 -0.01280573 -0.01278438 -0.01276605 -0.01275131 -0.01273804 -0.01272511 -0.01271006 -0.01269129 -0.01266747 -0.01263765
 -0.01260191 -0.01256024 -0.01251214 -0.01245784 -0.0123943 -0.01232128 -0.01223609 -0.01213858 -0.01203042 -0.01191204
 -0.0117893 -0.01166263 -0.0115376 -0.0114142 -0.01129519 -0.01118042 -0.01107093 -0.01096639 -0.01086718 -0.01077186
 -0.01067937 -0.01058731 -0.01049358 -0.01039633 -0.01029373 -0.01018607 -0.0100728 -0.009955692 -0.009835063 -0.009712388
 -0.009588005 -0.009462307 -0.009335385 -0.0092071 -0.009077447 -0.008946343 -0.008813727 -0.008678912 -0.008541595 -0.008399569
 -0.008252559 -0.008098132 -0.007936805 -0.007768253 -0.007593947 -0.007416155 -0.007235999 -0.00705618 -0.006875564 -0.006694776
 -0.006510459 -0.006320936 -0.006123913 -0.005917368 -0.005703744 -0.00548266 -0.005259862 -0.005036349 -0.004815214 -0.004597126
 -0.004380079 -0.004163997 -0.003946009 -0.003726277 -0.003506599 -0.003287581 -0.003074154 -0.002866235 -0.002666597 -0.00247376
 -0.002285384 -0.002100492 -0.001915483 -0.001732498 -0.001551523 -0.001378009 -0.001216225 -0.001070403 -0.0009450114 -0.0008384708
 -0.00075203 -0.0006798889 -0.0006206427 -0.0005709865 -0.0005298681 -0.0004979036 -0.0004751306 -0.0004613606 -0.000456626 -0.0004570585
 -0.0004623587 -0.0004672919 -0.0004717459 -0.0004724108 -0.0004694234 -0.0004613359 -0.0004487395 -0.0004319317 -0.0004125132 -0.0003929564
 -0.0003755855 -0.0003641539 -0.000360121 -0.0003661105 -0.0003820897 -0.0004086442 -0.0004457622 -0.0004932307 -0.0005524757 -0.0006237737
 -0.0007085191 -0.0008072844 -0.0009187852 -0.001043164 -0.00117657 -0.001318787 -0.001466028 -0.001618197 -0.001773755 -0.001932541
 -0.002093254 -0.002254732 -0.002412098 -0.002563501 -0.002701252 -0.002825449 -0.002931567 -0.003023657 -0.003104099 -0.003178686
 -0.003253064 -0.003331107 -0.003416532 -0.003511384 -0.003616794 -0.00373581 -0.003869383 -0.004019923 -0.004188758 -0.004371841
 -0.004569478 -0.004771103 -0.004976109 -0.005174311 -0.005365443 -0.005545022 -0.005713289 -0.005869879 -0.006014782 -0.006147837
 -0.006268602 -0.006375838 -0.00646916 -0.006547349 -0.006610129 -0.006656415 -0.006686907 -0.006700839 -0.006702185 -0.006691176
 -0.006677759 -0.006664664 -0.006664526 -0.006681565 -0.006722566 -0.006790448 -0.006881145 -0.006995038 -0.007122384 -0.007262572
 -0.007408435 -0.007559692 -0.007712065 -0.007865067 -0.008013377 -0.008155956 -0.008285474 -0.008401563 -0.008499059 -0.008579196
 -0.008641257 -0.008688161 -0.008722977 -0.00874901 -0.008770424 -0.008788546 -0.008806083 -0.008820602 -0.008831996 -0.008836894
 -0.008833718 -0.008823351 -0.008804904 -0.008785075 -0.00876422 -0.008750788 -0.008745395 -0.008753202 -0.008774308 -0.008809474
 -0.008858448 -0.008919564 -0.008992848 -0.009077482 -0.009173824 -0.00928287 -0.009403896 -0.009536973 -0.009678748 -0.009825559
 -0.009972796 -0.01011469 -0.01024952 -0.01037365 -0.01049009 -0.01059896 -0.01070423 -0.01080749 -0.01090913 -0.01100983
 -0.01110679 -0.01119965 -0.01128707 -0.01136885 -0.01144655 -0.01152021 -0.0115907 -0.01165757 -0.01171767 -0.01177048
 -0.01181157 -0.01184182 -0.01186085 -0.01187113 -0.01187736 -0.01188102 -0.01188693 -0.01189303 -0.01189958 -0.01190295
 -0.0119004 -0.01189128 -0.0118739 -0.01185152 -0.0118248 -0.01179604 -0.01176628 -0.01173362 -0.01169813 -0.01165637
 -0.01160803 -0.01155258 -0.01149009 -0.01142311 -0.01135203 -0.01128081 -0.0112103 -0.01114605 -0.01108949 -0.01104778
 -0.01102142 -0.01101578 -0.01102802 -0.01105768 -0.01109862 -0.01114522 -0.01119198 -0.01123319 -0.0112676 -0.01129298
 -0.01131075 -0.0113213 -0.011324 -0.0113192 -0.01130348 -0.01127635 -0.01123634 -0.01118316 -0.01111991 -0.01104679
 -0.01096825 -0.01088433 -0.01079685 -0.0107057 -0.01061083 -0.01051307 -0.01041435 -0.01031663 -0.01022479 -0.01014021
 -0.0100678 -0.01000537 -0.009953965 -0.009906936 -0.009860633 -0.009808677 -0.009746213 -0.009673979 -0.009589924 -0.009502122
 -0.00941163 -0.009326226 -0.009247435 -0.009176561 -0.009114011 -0.009055853 -0.009001845 -0.008946404 -0.008889349 -0.008826423
 -0.008758268 -0.008685078 -0.008608851 -0.008535609 -0.008467159 -0.008410991 -0.008365517 -0.008332922 -0.008307534 -0.00828486
 -0.008259567 -0.008225676 -0.008183751 -0.00813114 -0.008075224 -0.008017644 -0.007964812 -0.007919439 -0.007878563 -0.007842909
 -0.007801954 -0.007754784 -0.007695984 -0.007625528 -0.007551829 -0.007475884 -0.007411407 -0.007357621 -0.007318461 -0.007291099
 -0.007268362 -0.007249112 -0.007226605 -0.007203232 -0.007179609 -0.007158074 -0.00714229 -0.007130308 -0.00712269 -0.007114711
 -0.00710404 -0.007088313 -0.007065768 -0.007037835 -0.007004358 -0.006967839 -0.006928783 -0.006887197 -0.00684315 -0.006795659
 -0.006744748 -0.006693568 -0.006642624 -0.006598636 -0.006561433 -0.006534333 -0.006515393 -0.006500056 -0.006486855 -0.006469518
 -0.006449908 -0.006427765 -0.006406051 -0.006388868 -0.006374648 -0.006364799 -0.006353184 -0.006336855 -0.006312684 -0.006277927
 -0.006236359 -0.006187836 -0.006138864 -0.006090645 -0.006045048 -0.00600258 -0.005959458 -0.005915523 -0.005868477 -0.005818823
 -0.005771286 -0.005726614 -0.005692376 -0.005666636 -0.005648097 -0.00563214 -0.005607297 -0.005572124 -0.005517375 -0.005449206
 -0.005369692 -0.005287413 -0.005210199 -0.005140328 -0.005082032 -0.005031102 -0.004986956 -0.004946175 -0.004907651 -0.004870747
 -0.004835348 -0.004800188 -0.004765165 -0.004728934 -0.004691439 -0.004653877 -0.004616498 -0.004582862 -0.00455273 -0.004527146
 -0.00450459 -0.004480818 -0.004453845 -0.004416487 -0.004369301 -0.004308558 -0.004239553 -0.004165914 -0.00409408 -0.004031191
 -0.00397698 -0.003934628 -0.003896875 -0.003861722 -0.003824357 -0.003782553 -0.003738205 -0.003691371 -0.003643415 -0.003594712
 -0.003541807 -0.003484542 -0.003422456 -0.003356154 -0.003293266 -0.00323425 -0.003186279 -0.003147884 -0.003117864 -0.003094425
 -0.003072422 -0.003051921 -0.003030857 -0.00300952 -0.002988143 -0.002964881 -0.002938502 -0.002907325 -0.002869722 -0.002826444
 -0.002777125 -0.002723866 -0.002666888 -0.002608834 -0.002549788 -0.002494438 -0.002443214 -0.00240009 -0.002365308 -0.00233514
 -0.002308882 -0.002275901 -0.002236188 -0.002183422 -0.002119931 -0.002050423 -0.001977486 -0.001910098 -0.001848182 -0.001796166
 -0.00175154 -0.001713532 -0.001678778 -0.001644574 -0.001608119 -0.001566647 -0.001520821 -0.001469091 -0.001417941 -0.001368495
 -0.001326814 -0.001295037 -0.001268886 -0.001248674 -0.001222734 -0.001190395 -0.001147678 -0.001095213 -0.001041579 -0.0009872777
 -0.0009405783 -0.0008993967 -0.0008605632 -0.0008217347 -0.0007746872 -0.0007207374 -0.0006574491 -0.0005893036 -0.00052059 -0.0004545862
 -0.0003961554 -0.0003440974 -0.0003004968 -0.0002583029 -0.0002174252 -0.0001632305 -9.24188E-05 7.688703E-06 0.0001420049 0.0002998046
 0.0004816652 0.0006620879 0.0008395663 0.001000335 0.001144482 0.001271474 0.001382179 0.00148191 0.001570737 0.001652365
 0.001724896 0.001785719 0.001832611 0.001860067 0.001868329 0.001854706 0.001822511 0.001772975 0.0017107 0.001638098
 0.001559949 0.001478303 0.001397309 0.001318142 0.001244566 0.001177067 0.001120243 0.001074478 0.001044939 0.001032011
 0.001035962 0.001056136 0.001082232 0.001112584 0.001130387 0.001135938 0.001119248 0.001086344 0.001045346 0.001006562
 0.0009930736 0.001007413 0.00106729 0.001154953 0.001265681 0.001370765 0.001451214 0.001493272 0.001483733 0.001432449
 0.001336355 0.001222252 0.001092258 0.0009808736 0.0008922619 0.0008475564 0.0008487809 0.0008826978 0.0009475629 0.001010302
 0.00107092 0.001112492 0.001139168 0.001158616 0.001173989 0.001197875 0.001229894 0.001274783 0.001332128 0.001403169
 0.001487714 0.001587537 0.00169727 0.001816735 0.001932696 0.002040589 0.00212796 0.002188707 0.002225339 0.002235122
 0.00223793 0.002235132 0.002248037 0.002278331 0.00233039 0.002403585 0.002485003 0.002573228 0.002651987 0.002721074
 0.002770439 0.002801922 0.002813699 0.002811377 0.002802756 0.002796257 0.002806606 0.002836224 0.002895615 0.002973391
 0.003067578 0.003161734 0.003246829 0.003320094 0.00337615 0.003430578 0.003484435 0.003556907 0.003651141 0.00377084
 0.003916961 0.004071257 0.004232261 0.004370638 0.004485854 0.004558682 0.004592864 0.004592647 0.004564244 0.004527307
 0.004484077 0.004449571 0.004418826 0.004392107 0.004362708 0.004323143 0.004274073 0.004211765 0.004145319 0.004077639
 0.004015773 0.003963986 0.003917466 0.003877189 0.003830136 0.003774808 0.003702677 0.003612809 0.003507699 0.003387891
 0.003265597 0.003142148 0.003033673 0.002940487 0.00287401 0.002830641 0.002808029 0.002798489 0.002786736 0.00276639
 0.00272115 0.002652789 0.00255494 0.002438353 0.002305998 0.002173172 0.002046472 0.001938549 0.001855661 0.001798459
 0.001770098 0.001755392 0.001753496 0.001746075 0.001731506 0.001705429 0.001667745</values></Ydata></AB><ScSm><Ydata ylabel="Single channel"><values byteorder="INTEL" format="FLOAT32" numvalues="1814"> 0.07895853 0.07905051 0.07915862 0.0792895 0.07943597 0.07958332 0.07971875 0.07983822 0.07994439 0.08003819
 0.08012088 0.08020627 0.08031751 0.0804636 0.0806264 0.08077396 0.08088457 0.080964 0.08104488 0.0811571
 0.08128919 0.08138728 0.08140447 0.08135093 0.08128994 0.08128151 0.08134168 0.08147176 0.08169577 0.08200268
 0.08226313 0.08231177 0.08215439 0.08199836 0.08202294 0.08219846 0.08237165 0.08243544 0.08237197 0.08223732
 0.08218104 0.08239843 0.08295345 0.08363594 0.08402739 0.08374143 0.08267939 0.0811707 0.07989699 0.07953694
 0.08027542 0.08159715 0.08267386 0.08303468 0.08282123 0.08242971 0.08209613 0.08189372 0.08192144 0.08228814
 0.08293777 0.08357514 0.08378031 0.08328608 0.08227983 0.08137068 0.0810912 0.08148352 0.08228409 0.08324346
 0.08389599 0.08332466 0.0809711 0.07786828 0.07632031 0.07777505 0.08130907 0.08458762 0.08599046 0.0854712
 0.08388402 0.08222885 0.08138496 0.08181059 0.0832455 0.0849698 0.08637517 0.08712603 0.08700854 0.08603172
 0.08462881 0.08347321 0.08310184 0.08375844 0.08529741 0.08703674 0.08802993 0.08780997 0.08673891 0.08553898
 0.08476126 0.08476025 0.08572155 0.08744179 0.08934597 0.09091256 0.09194466 0.09245615 0.09254534 0.09237704
 0.09210301 0.09183603 0.09175549 0.09201665 0.09244117 0.09255502 0.09211352 0.09143366 0.09107555 0.09126629
 0.09170502 0.09192652 0.0917623 0.0912571 0.09019895 0.08822207 0.08556151 0.08317 0.08178791 0.08142442
 0.08196465 0.08348502 0.08551934 0.08683379 0.08667018 0.0857701 0.08557226 0.08665466 0.08837143 0.08979011
 0.09059562 0.09113932 0.09189157 0.09291214 0.09371686 0.09363639 0.09250176 0.09107096 0.09052569 0.09132806
 0.09276991 0.09384151 0.09429129 0.09459315 0.09510891 0.0955625 0.09528268 0.0939246 0.09206906 0.09101421
 0.09170355 0.09379241 0.09583285 0.09636877 0.09496789 0.09245262 0.09021355 0.0892135 0.0896129 0.09116554
 0.09356127 0.09627844 0.09850371 0.09954385 0.09930377 0.09826704 0.09696969 0.09550166 0.0936965 0.09190767
 0.09121415 0.09241209 0.09499159 0.09754217 0.09905466 0.09948136 0.09916188 0.09813942 0.09625169 0.09383851
 0.09205887 0.09203208 0.09356338 0.09519178 0.09574357 0.09543107 0.0951874 0.0953925 0.09566724 0.09565349
 0.0955492 0.09582405 0.09661695 0.09755704 0.09815489 0.09825186 0.09805416 0.09784398 0.09771216 0.09750503
 0.09705944 0.09656261 0.09653677 0.0972889 0.09850018 0.09954799 0.1001194 0.1003347 0.1003712 0.1001602
 0.09950395 0.09846625 0.09756021 0.09738401 0.09803906 0.09905379 0.0998847 0.1003201 0.1004233 0.1003265
 0.1001438 0.09994355 0.0997605 0.09967049 0.09977781 0.1000736 0.100397 0.1005941 0.100643 0.1005931
 0.1004642 0.100251 0.09998837 0.09976959 0.09968778 0.09976153 0.09993248 0.1001273 0.1002884 0.1003599
 0.1003066 0.1001604 0.09999889 0.09987202 0.09978232 0.09973216 0.09974441 0.09982401 0.09992959 0.1000037
 0.1000222 0.1000001 0.09995684 0.09989628 0.09982055 0.09974702 0.09970419 0.09971242 0.09976365 0.09982504
 0.09987795 0.09994248 0.1000353 0.1001192 0.1001345 0.1000765 0.1000036 0.09997258 0.0999943 0.1000459
 0.1000968 0.1001175 0.1000825 0.099988 0.09987686 0.0998265 0.09989107 0.1000612 0.1002882 0.1005248
 0.1007307 0.1008759 0.1009627 0.1010251 0.1010883 0.101147 0.1011894 0.1012253 0.1012863 0.1014032
 0.1015775 0.1017734 0.1019476 0.1020803 0.1021767 0.102259 0.1023618 0.1025032 0.1026491 0.1027415
 0.102774 0.1028083 0.1028995 0.1030318 0.1031439 0.1032016 0.1032292 0.1032764 0.1033663 0.1034815
 0.103593 0.1036931 0.1037986 0.1039243 0.1040527 0.1041369 0.1041455 0.1041034 0.1040695 0.1040779
 0.1041191 0.1041755 0.1042475 0.1043358 0.1044204 0.1044728 0.1044878 0.1044904 0.1045072 0.1045348
 0.1045445 0.1045176 0.1044659 0.1044169 0.1043897 0.1043853 0.1043895 0.1043817 0.1043483 0.10429
 0.1042172 0.1041395 0.1040604 0.103984 0.1039275 0.1039152 0.103947 0.1039735 0.1039259 0.1037807
 0.1035847 0.1034099 0.1032919 0.1032133 0.1031334 0.103025 0.1028903 0.1027508 0.1026257 0.102519
 0.1024235 0.1023324 0.1022506 0.1021947 0.1021775 0.1021846 0.1021748 0.1021158 0.1020174 0.101919
 0.1018497 0.1018118 0.1017936 0.1017846 0.1017817 0.1017907 0.101818 0.101856 0.1018852 0.101898
 0.1019095 0.1019433 0.1020164 0.1021339 0.1022822 0.1024238 0.1025228 0.1025819 0.1026414 0.1027362
 0.1028665 0.1030132 0.1031673 0.1033328 0.1035124 0.103703 0.1039038 0.104121 0.1043619 0.1046252
 0.1048981 0.1051646 0.1054185 0.1056715 0.1059435 0.1062445 0.1065673 0.106896 0.1072189 0.1075348
 0.1078503 0.1081717 0.1084994 0.1088321 0.1091743 0.1095323 0.1099051 0.1102829 0.110657 0.111026
 0.111393 0.1117613 0.1121328 0.112511 0.1129041 0.11332 0.1137507 0.1141661 0.1145373 0.1148669
 0.1151889 0.1155377 0.1159219 0.116323 0.1167099 0.1170599 0.1173777 0.1176936 0.1180329 0.1183909
 0.1187449 0.1190915 0.1194559 0.1198577 0.1202756 0.1206575 0.1209693 0.1212285 0.1214843 0.1217653
 0.1220571 0.1223312 0.1225835 0.1228337 0.1230949 0.1233622 0.1236333 0.1239219 0.1242369 0.1245608
 0.1248621 0.1251265 0.125365 0.1255919 0.1258068 0.1259981 0.126159 0.1263008 0.1264492 0.1266223
 0.1268116 0.1269949 0.1271662 0.1273427 0.1275413 0.1277624 0.1280033 0.1282694 0.128563 0.128869
 0.1291701 0.1294724 0.1297986 0.1301474 0.1304788 0.1307557 0.1309867 0.1312103 0.1314479 0.1316966
 0.1319598 0.1322558 0.1325911 0.1329455 0.1332893 0.1336078 0.133911 0.1342244 0.1345626 0.1349061
 0.1352123 0.1354562 0.1356567 0.135858 0.1360944 0.1363717 0.1366726 0.1369719 0.1372513 0.1374998
 0.1377037 0.1378461 0.1379259 0.1379662 0.1379892 0.1379862 0.1379203 0.1377577 0.1374856 0.1370991
 0.1365875 0.1359433 0.1351909 0.134401 0.1336764 0.1331183 0.1328004 0.1327603 0.1330003 0.1334831
 0.1341308 0.1348381 0.1354969 0.1360102 0.1362983 0.136308 0.1360292 0.1354987 0.1347832 0.1339555
 0.1330783 0.1321974 0.1313446 0.1305599 0.1299247 0.1295676 0.1296292 0.1302111 0.1313398 0.1329451
 0.134855 0.1368335 0.1386682 0.140251 0.1415889 0.142745 0.1437782 0.144724 0.145605 0.1464355
 0.1472203 0.1479605 0.14866 0.1493214 0.1499366 0.1504876 0.1509552 0.1513236 0.1515835 0.1517426
 0.1518272 0.1518693 0.1518939 0.1519172 0.1519424 0.1519455 0.1518739 0.1516693 0.1513007 0.1507845
 0.1501953 0.1496723 0.14941 0.1496102 0.1503946 0.1517271 0.1534152 0.155203 0.1568791 0.1583229
 0.1594924 0.1604047 0.1611208 0.1617157 0.1622431 0.1627265 0.1631759 0.1636004 0.1640086 0.1644044
 0.1647902 0.1651706 0.1655519 0.1659377 0.1663231 0.1666991 0.167063 0.1674237 0.1677944 0.1681797
 0.1685698 0.1689517 0.1693242 0.1696996 0.1700853 0.1704711 0.1708393 0.1711863 0.1715264 0.1718776
 0.1722469 0.1726288 0.1730085 0.1733695 0.1737039 0.174018 0.1743262 0.1746387 0.1749552 0.1752699
 0.1755785 0.1758813 0.1761823 0.1764869 0.1767981 0.1771133 0.1774235 0.1777197 0.1780011 0.1782749
 0.1785477 0.1788203 0.1790918 0.1793639 0.1796386 0.179917 0.1802014 0.1804937 0.1807904 0.1810818
 0.1813594 0.1816234 0.1818826 0.182147 0.1824198 0.1826968 0.1829717 0.1832427 0.1835111 0.1837786
 0.1840473 0.1843205 0.1846003 0.1848837 0.1851646 0.1854395 0.1857085 0.185973 0.1862336 0.1864924
 0.1867547 0.1870237 0.1872953 0.1875624 0.1878228 0.1880787 0.1883313 0.1885812 0.1888323 0.189089
 0.1893514 0.189615 0.1898765 0.1901372 0.1903999 0.1906647 0.1909271 0.191183 0.1914338 0.1916852
 0.19194 0.1921973 0.1924553 0.1927125 0.1929679 0.1932226 0.1934784 0.1937349 0.1939898 0.1942423
 0.1944921 0.1947389 0.1949833 0.1952281 0.1954753 0.1957258 0.1959796 0.1962351 0.1964883 0.196736
 0.1969784 0.1972187 0.197461 0.1977076 0.1979562 0.1982017 0.1984421 0.1986803 0.1989203 0.1991639
 0.1994112 0.1996617 0.1999145 0.2001686 0.2004209 0.2006682 0.2009125 0.2011602 0.201413 0.2016662
 0.2019159 0.202163 0.2024083 0.2026524 0.2028977 0.2031468 0.2033999 0.2036555 0.2039113 0.2041645
 0.2044138 0.2046617 0.204911 0.2051634 0.2054199 0.2056805 0.205944 0.2062107 0.2064805 0.2067498
 0.2070144 0.2072748 0.2075327 0.2077855 0.2080308 0.2082701 0.2085068 0.2087428 0.2089798 0.2092171
 0.2094512 0.2096817 0.2099115 0.2101425 0.2103753 0.2106127 0.2108562 0.2111036 0.2113541 0.2116102
 0.2118706 0.2121311 0.2123902 0.2126494 0.2129076 0.2131642 0.2134205 0.2136779 0.2139387 0.2142081
 0.2144866 0.2147679 0.2150479 0.2153266 0.2156016 0.2158691 0.2161332 0.2164008 0.2166744 0.2169527
 0.2172326 0.2175078 0.2177772 0.2180476 0.2183236 0.2186014 0.2188779 0.2191549 0.2194311 0.219705
 0.21998 0.2202581 0.2205375 0.2208212 0.2211136 0.2214076 0.2216939 0.2219745 0.2222557 0.2225381
 0.2228223 0.2231086 0.2233891 0.2236597 0.2239286 0.2242024 0.2244758 0.2247455 0.225012 0.225266
 0.2254864 0.2256239 0.2255429 0.2249546 0.2233758 0.2201333 0.2144921 0.2059461 0.1945182 0.1808532
 0.1660417 0.1512805 0.1375448 0.1254495 0.1153227 0.1073334 0.1015821 0.09818108 0.09731911 0.09935084
 0.1049153 0.1145543 0.1273178 0.1395624 0.1463179 0.1450496 0.1379537 0.129966 0.1247476 0.1228928
 0.1231717 0.1243631 0.1259767 0.1281221 0.131091 0.1349247 0.1393668 0.1442855 0.1499188 0.1565082
 0.1638237 0.171248 0.1782925 0.1849122 0.1913218 0.1976155 0.2036208 0.2090655 0.2137879 0.2177901
 0.2211832 0.2241212 0.2267399 0.2291228 0.2313178 0.233348 0.2351777 0.2366942 0.2377722 0.2383745
 0.2385982 0.2386314 0.2386525 0.2387544 0.2389531 0.2392393 0.2396019 0.2400247 0.2404958 0.2410116
 0.2415635 0.2421318 0.242699 0.243254 0.2437876 0.2442955 0.2447797 0.2452404 0.2456756 0.2460884
 0.246484 0.2468648 0.2472358 0.2476039 0.2479687 0.2483255 0.2486763 0.2490248 0.2493664 0.2496915
 0.2499937 0.2502719 0.2505324 0.2507885 0.2510476 0.2513062 0.2515607 0.2518146 0.2520684 0.2523185
 0.2525646 0.2528107 0.2530586 0.2533083 0.2535586 0.2538049 0.2540433 0.2542766 0.2545103 0.2547464
 0.2549859 0.2552305 0.2554766 0.2557181 0.2559544 0.2561899 0.2564292 0.256678 0.2569414 0.2572159
 0.2574928 0.2577679 0.2580429 0.258319 0.2585983 0.2588846 0.2591768 0.259466 0.2597455 0.2600147
 0.2602732 0.2605181 0.2607483 0.2609687 0.2611893 0.2614195 0.2616605 0.2619057 0.2621502 0.2623962
 0.2626474 0.2629039 0.263163 0.2634198 0.2636723 0.2639288 0.2642024 0.2644944 0.2647917 0.2650845
 0.2653739 0.2656635 0.2659529 0.266243 0.2665356 0.2668273 0.2671114 0.2673888 0.2676741 0.2679874
 0.2683333 0.2686908 0.2690312 0.2693451 0.2696467 0.2699546 0.2702793 0.2706152 0.2709336 0.2712013
 0.2714257 0.2716658 0.2719781 0.2723614 0.2727666 0.2731494 0.2735004 0.2738335 0.2741606 0.2744789
 0.2747734 0.2750318 0.2752659 0.2755191 0.2758375 0.2762214 0.2766204 0.2769857 0.2773102 0.27761
 0.2778973 0.2781792 0.278448 0.2786652 0.2788001 0.2789042 0.2791037 0.2794806 0.2799802 0.2804668
 0.2808589 0.2811798 0.2814853 0.2817917 0.2820857 0.2823393 0.2824785 0.2824205 0.2822268 0.2821562
 0.2824545 0.2831055 0.2838627 0.2844979 0.2849511 0.2852799 0.2855569 0.2858212 0.2860554 0.2861879
 0.2861695 0.286086 0.2861482 0.2865001 0.2870541 0.2875849 0.2879676 0.2882495 0.2885228 0.2888193
 0.2890947 0.2892137 0.2890103 0.2885153 0.2881045 0.2882525 0.2890737 0.2901934 0.2911231 0.2916921
 0.2920457 0.292302 0.2923741 0.2921265 0.2915437 0.290734 0.2899682 0.2897197 0.2903569 0.29167
 0.2929572 0.2937279 0.2941235 0.2945582 0.2951765 0.2957965 0.2962039 0.2963439 0.2962775 0.296051
 0.2956772 0.2952845 0.2952029 0.2957281 0.2967776 0.2979114 0.2987455 0.2992522 0.2995843 0.2996307
 0.298903 0.2971155 0.294946 0.2938668 0.2948378 0.2972957 0.2997621 0.3013039 0.3020463 0.3024807
 0.3028252 0.3029631 0.3024331 0.3005812 0.2974495 0.2945542 0.2939656 0.2962674 0.2999039 0.3026879
 0.3034699 0.302373 0.3002418 0.2982534 0.2974955 0.2983742 0.3004445 0.3028642 0.3048997 0.3061237
 0.306441 0.3060484 0.3053553 0.3048766 0.3049065 0.305081 0.3046053 0.3032854 0.3018985 0.3009953
 0.2998912 0.2977877 0.295556 0.2951985 0.2973712 0.3004342 0.3023523 0.3027797 0.3026899 0.3024123
 0.300834 0.2968698 0.2914751 0.2876165 0.2877339 0.2913046 0.2953588 0.2973969 0.2973655 0.2968116
 0.2967092 0.2964331 0.2946954 0.2913681 0.2881998 0.2872524 0.2885881 0.2901786 0.2901527 0.2881134
 0.2841558 0.2783966 0.2725232 0.2701153 0.2734832 0.2807905 0.2876766 0.2910204 0.2899188 0.2843899
 0.2756881 0.2676472 0.2649583 0.2688471 0.2756451 0.2803383 0.2805184 0.2764937 0.2692535 0.2600299
 0.2513372 0.2466573 0.2482225 0.255222 0.2639672 0.2694953 0.2681017 0.2602996 0.251548 0.248146
 0.2513212 0.2564242 0.2584 0.2565448 0.2534642 0.2515184 0.2515123 0.2531396 0.2553359 0.2571169
 0.2583335 0.2582828 0.2543178 0.2447799 0.2333654 0.2271618 0.229336 0.2365883 0.244533 0.2521076
 0.2591076 0.2630224 0.2617071 0.2576259 0.2562755 0.2603156 0.267033 0.2718 0.2727677 0.2716193
 0.270503 0.2694649 0.2675126 0.2653861 0.2656011 0.2693104 0.2744941 0.2781514 0.2793147 0.2790544
 0.2784612 0.2777321 0.2767243 0.2754067 0.2738239 0.2721157 0.2705035 0.2690518 0.2676251 0.2661642
 0.2646174 0.2623483 0.258189 0.2519671 0.245807 0.2426701 0.2432564 0.2455704 0.2478031 0.2496464
 0.2498838 0.2454049 0.2352829 0.2244188 0.2201723 0.2252532 0.2355557 0.2447349 0.2491888 0.2485136
 0.2433941 0.2352958 0.228003 0.2269493 0.2350288 0.249575 0.2647689 0.2765695 0.2842453 0.2881072
 0.2879683 0.2843227 0.2796618 0.277492 0.2799324 0.2863233 0.2937292 0.2982931 0.2969152 0.2898152
 0.2822411 0.2812904 0.2888572 0.2991077 0.3049227 0.3053633 0.3046163 0.3053622 0.3064799 0.3067274
 0.307326 0.3098975 0.3137991 0.3166599 0.31651 0.3126093 0.3054309 0.2972331 0.2917096 0.2910786
 0.2936502 0.2957786 0.2956108 0.2931363 0.2879004 0.2799906 0.2728978 0.2716458 0.2770784 0.2845746
 0.289312 0.2907573 0.2911764 0.2915585 0.2904565 0.2864185 0.2805646 0.2761002 0.2751701 0.2768321
 0.2786012 0.2791404 0.2784763 0.2764452 0.2726851 0.2682772 0.2659008 0.2674716 0.2721198 0.2770695
 0.2802218 0.2814511 0.2817739 0.2820436 0.282487 0.2828781 0.2829807 0.2831642 0.2844394 0.287347
 0.2909749 0.293777 0.2953588 0.2968044 0.2991595 0.3021572 0.3046355 0.3058319 0.3060618 0.3063289
 0.3074285 0.3092982 0.3110782 0.311866 0.3115991 0.3112246 0.3118442 0.3136604 0.3158935 0.3176772
 0.3187855 0.3195131 0.320187 0.3208966 0.3214595 0.321587 0.3212922 0.3211389 0.3218251 0.3234511
 0.3253835 0.3268794 0.327681 0.3279794 0.3280077 0.3278201 0.3273963 0.3268185 0.3262814 0.3259538
 0.3258622 0.3259129 0.3259945 0.3260434 0.3260506 0.3260503 0.3260959 0.3262177 0.326405 0.3266356
 0.3268933 0.3271474 0.3273518 0.3274909 0.327596 0.3276885 0.3277298 0.327647 0.3273824 0.3268973
 0.3261514 0.3251055 0.3237339 0.3220097 0.3199021 0.3174707 0.3150372 0.3132297 0.312724 0.3138118
 0.3161703 0.319048 0.321697 0.3236963 0.3249898 0.3257272 0.326095 0.3262338 0.3262265 0.3261117
 0.3259053 0.3256237 0.3252897 0.3249258 0.3245513 0.3241885 0.3238583 0.3235663 0.3232965 0.3230165
 0.32269 0.322292 0.3218158 0.3212676 0.3206521 0.3199617 0.3191752 0.3182722 0.3172593 0.3161851
 0.3151209 0.3141211 0.3131931 0.3123001 0.3113915 0.3104229 0.309338 0.3080605 0.3065649 0.3049726
 0.3035161 0.3023532 0.3014296 0.3005497 0.299552 0.2983914 0.2970949 0.2957022 0.2942487 0.2927614
 0.2912468 0.2896889 0.2880609 0.2863393 0.2845135 0.2825884 0.280578 0.2784981 0.2763659 0.2741953
 0.2719724 0.2696261 0.2670244 0.2640068 0.2604299 0.2562023 0.2513071 0.2458176 0.2398991 0.2337781
 0.2276887 0.2218319 0.216369 0.211434 0.2071397 0.2035766 0.2008123 0.1988941 0.1978511 0.1976935
 0.1984078 0.1999497 0.2022356 0.2051418 0.2085092 0.2121512 0.2158644 0.219453 0.2227797 0.225813
 0.2286156 0.2312633 0.233773 0.2361055 0.238221 0.24011 0.2417777 0.243224 0.2444498 0.2454753
 0.2463398 0.2470831 0.2477298 0.2482873 0.2487548 0.2491354 0.2494467 0.2497241 0.2500126 0.2503485
 0.2507448 0.2511905 0.2516682 0.2521735 0.2527189 0.2533186 0.2539748 0.2546747 0.255398 0.2561315
 0.2568853 0.2576997 0.25863 0.2597244 0.2610108 0.2624963 0.264167 0.26598 0.2678537 0.2696694
 0.2712979 0.2726409 0.2736567 0.2743546 0.2747663 0.2749206 0.2748406 0.2745571 0.2741142 0.2735581
 0.2729271 0.2722509 0.2715505 0.2708327 0.2700895 0.2693082 0.2684826 0.267621 0.2667431 0.2658686
 0.2650075 0.264163 0.263334 0.2625155 0.2617047 0.2609076 0.260132 0.259377 0.258643 0.2579389
 0.2572678 0.2566058 0.2559046 0.2551101 0.2541797 0.2530892 0.2518315 0.2504079 0.2488264 0.2471037
 0.2452632 0.2433287 0.2413229 0.2392627 0.2371509 0.2349764 0.2327195 0.2303613 0.2279056 0.2254065
 0.2229576 0.2206433 0.2185003 0.2165202 0.2146707 0.2129175 0.2112417 0.2096398 0.2081092 0.2066441
 0.2052417 0.2039019 0.2026253 0.2014179 0.2002923 0.1992626 0.1983443 0.1975503 0.1968757 0.1962973
 0.1957961 0.195369 0.1950246 0.1947859 0.1946814 0.1947053 0.1947911 0.1948471 0.1948153 0.1946998
 0.1945536 0.1944383 0.1943809 0.1943671 0.1943652 0.1943303 0.1941887 0.1938439 0.1932012 0.1921805
 0.1907364 0.1888897 0.1867335 0.1844107 0.1820919 0.179946 0.1780963 0.1765994 0.1754566 0.1746175
 0.1739919 0.1735026 0.1731379 0.1729478 0.1729941 0.1732782 0.173679 0.1739993 0.174139 0.174214
 0.1744615 0.1750394 0.1759252 0.1769628 0.1779761 0.1788584 0.1795785 0.180131 0.1805195 0.1807724
 0.1809207 0.1809651 0.1808929 0.1807049 0.1804061 0.180003 0.1795153 0.1789526 0.1782956 0.1775318
 0.1766752 0.175732 0.1746923 0.1735525 0.1722961 0.1708886 0.1693749 0.1679654 0.1669638 0.1666012
 0.1669149 0.1677357 0.1688077 0.1699548 0.1710976 0.1721347 0.172951 0.1736061 0.1744133 0.1757359
 0.1776849 0.1800009 0.1822251 0.1839961 0.1851813 0.1857822 0.1858389 0.1854205 0.1845708 0.1832632
 0.1815036 0.1794175 0.1771602 0.1748488 0.1726174 0.1706001 0.1688591 0.1674154 0.166269 0.1654035
 0.1648757 0.164426 0.1625096 0.1568221 0.1475611 0.1395571 0.1386307 0.14532 0.1541443 0.1594972
 0.1604143 0.1592475 0.1579633 0.157 0.1562916 0.1559027 0.1558749 0.1560976 0.1563525 0.1564125
 0.1561768 0.1556531 0.1547058 0.1528302 0.1491561 0.1427632 0.1333595 0.1219043 0.1104065 0.1008713
 0.0943134 0.09053749 0.08856831 0.08733483 0.08628026 0.08554497 0.08561467 0.08682266 0.08916374 0.09243178
 0.09636553 0.1006237 0.1047412 0.1082766 0.1110418 0.1131137 0.1146194 0.1156045 0.1160934 0.1161498
 0.1158491 0.1152607 0.1144567 0.1134788 0.1123087 0.1109209 0.1093815 0.1078873 0.1066825 0.1058992
 0.1054779 0.1052633 0.1051491 0.1051025 0.1051085 0.1051548 0.1052464 0.1053964 0.1056168 0.1059153
 0.1062718 0.1066287 0.106927 0.107142 0.1072743 0.1073213 0.1072562 0.1070462 0.1067179 0.1063706
 0.1060397 0.1055672 0.1047272 0.1035177 0.1022644 0.1014073 0.1011948 0.1015419 0.1021229 0.1026076
 0.1028585 0.1029426 0.102979 0.1029775</values></Ydata></ScSm><ScRf><Ydata ylabel="Single channel"><values byteorder="INTEL" format="FLOAT32" numvalues="1820"> 0.06960706 0.06973382 0.06985409 0.06996594 0.07006909 0.0701689 0.07027604 0.0703986 0.07053497 0.07067346
 0.07080038 0.07091033 0.07100633 0.07109027 0.07116348 0.0712383 0.07133599 0.07146525 0.07160982 0.07174095
 0.07183968 0.07191272 0.07199099 0.07210173 0.07223308 0.07233344 0.07235733 0.07231276 0.0722587 0.07225256
 0.07231082 0.0724346 0.07264413 0.0729275 0.07316623 0.07321118 0.07306944 0.07292964 0.07295351 0.07311384
 0.07327291 0.0733352 0.07328469 0.07317033 0.07312455 0.07332204 0.07382186 0.0744375 0.07479399 0.07454376
 0.07359844 0.07225527 0.07112624 0.07081765 0.07149173 0.07268497 0.07365538 0.07398176 0.07379163 0.07344122
 0.07314344 0.07296433 0.07299156 0.07332154 0.07390383 0.0744752 0.07466181 0.07422644 0.07333601 0.07253117
 0.07228459 0.07263497 0.07335102 0.07421172 0.07479912 0.07429263 0.07219622 0.06943662 0.06807126 0.06938674
 0.07255149 0.07547979 0.07673048 0.07626827 0.07485732 0.0733876 0.07264076 0.07302462 0.07430827 0.0758519
 0.07711352 0.07779153 0.07769343 0.07682934 0.07558896 0.07457241 0.07425605 0.0748577 0.07624882 0.07781751
 0.07871246 0.07851548 0.07755566 0.0764842 0.07579419 0.07579965 0.07666484 0.07820923 0.07992154 0.08133676
 0.08227719 0.08275267 0.08285028 0.08271734 0.08248788 0.08226104 0.08219801 0.08243927 0.08282495 0.0829302
 0.08253816 0.0819356 0.08162339 0.08180045 0.0821941 0.08239015 0.08224448 0.08180073 0.08086479 0.07910164
 0.07672066 0.07458164 0.07335407 0.07304727 0.07355605 0.07494465 0.07678904 0.07797879 0.07783574 0.07703076
 0.07685882 0.07783934 0.07939172 0.08067794 0.08141501 0.08191872 0.08261065 0.08354257 0.08427846 0.08421799
 0.08321168 0.08194287 0.08147366 0.0822165 0.08353154 0.08451094 0.08493063 0.08521807 0.08569948 0.08612845
 0.08590186 0.08470643 0.0830619 0.0821384 0.08278938 0.08470471 0.08657476 0.08708146 0.08583543 0.08358532
 0.08159216 0.08072457 0.08112417 0.08256973 0.08478588 0.08730143 0.08937365 0.09036659 0.0901914 0.08929005
 0.08815256 0.08685991 0.08525936 0.08367588 0.08309822 0.08425371 0.08667277 0.08906217 0.09049737 0.09093586
 0.09069152 0.08980638 0.0881319 0.0859789 0.08440956 0.08444877 0.08591511 0.08746735 0.08803067 0.08780178
 0.08763635 0.08788087 0.0881857 0.08822325 0.08818039 0.0884943 0.08929333 0.09023102 0.09085101 0.09100479
 0.0908825 0.09074514 0.09067789 0.09054127 0.09018704 0.08978991 0.08983348 0.09060082 0.09179395 0.09283285
 0.0934261 0.0936868 0.09378161 0.09364669 0.09309653 0.0921896 0.09140439 0.0913004 0.09197427 0.0929866
 0.09382835 0.0942998 0.09445972 0.09443228 0.09432423 0.09419872 0.09408886 0.09406771 0.09423596 0.0945864
 0.09496468 0.09522 0.09532768 0.09533499 0.09526356 0.09511153 0.09491538 0.09476599 0.09475043 0.09488266
 0.09510508 0.09534812 0.09555759 0.09568064 0.09568499 0.09560204 0.09550641 0.09544533 0.09541975 0.09542921
 0.09549268 0.09561414 0.09575632 0.09586813 0.09592892 0.0959524 0.09595426 0.09593564 0.09589937 0.09586585
 0.09586561 0.09591706 0.09600791 0.09610356 0.09618814 0.09628575 0.0964153 0.09653936 0.09659678 0.09657943
 0.0965423 0.09654116 0.09658869 0.09666547 0.09674481 0.09679938 0.09680266 0.09674795 0.09667423 0.09665496
 0.09674143 0.09692495 0.09716196 0.09741208 0.09763885 0.09780878 0.09791701 0.09799314 0.09806499 0.09813283
 0.09818795 0.09824006 0.09831931 0.09845404 0.09864323 0.0988511 0.09903542 0.09917616 0.09927768 0.09936383
 0.0994734 0.09962709 0.09978904 0.09989557 0.09993565 0.09997062 0.1000589 0.1001874 0.100295 0.1003474
 0.1003699 0.1004128 0.1004977 0.1006058 0.1007087 0.1008022 0.1009068 0.1010366 0.1011683 0.1012494
 0.1012492 0.1011972 0.1011547 0.1011533 0.1011805 0.1012206 0.1012787 0.101358 0.1014352 0.1014775
 0.1014782 0.1014659 0.1014708 0.1014903 0.1014944 0.101463 0.1014071 0.1013533 0.1013192 0.1013042
 0.1012946 0.1012746 0.101236 0.1011806 0.101116 0.1010481 0.1009777 0.1009071 0.1008529 0.1008424
 0.1008793 0.1009141 0.1008715 0.1007222 0.1005148 0.1003291 0.1002053 0.1001224 0.1000338 0.09991141
 0.0997604 0.09960404 0.0994615 0.0993372 0.09922403 0.09911402 0.09901094 0.09893436 0.09890088 0.09889454
 0.09886649 0.09877858 0.09864214 0.09850315 0.09839614 0.09832463 0.09827577 0.09823713 0.09820313 0.09817865
 0.09817193 0.09817734 0.09817538 0.09815747 0.0981398 0.09814703 0.09819345 0.09828018 0.09839199 0.09849459
 0.0985561 0.09858082 0.09860747 0.09866804 0.09876052 0.09886575 0.09897658 0.09910074 0.09924381 0.09940191
 0.0995706 0.09975307 0.09995511 0.1001747 0.1003993 0.1006152 0.1008202 0.1010279 0.1012579 0.10152
 0.1018056 0.1020961 0.1023775 0.1026494 0.1029193 0.1031919 0.1034655 0.1037393 0.1040206 0.1043188
 0.1046342 0.1049573 0.1052786 0.1055959 0.1059137 0.1062362 0.1065639 0.1068967 0.1072408 0.107606
 0.1079859 0.1083496 0.1086659 0.1089387 0.1092054 0.1095023 0.1098361 0.1101847 0.1105138 0.1108007
 0.1110539 0.1113094 0.111595 0.1119037 0.112211 0.1125146 0.1128406 0.1132072 0.1135911 0.113939
 0.1142147 0.114433 0.1146433 0.1148794 0.1151305 0.115365 0.1155734 0.1157756 0.1159909 0.1162189
 0.1164559 0.1167112 0.1169917 0.1172799 0.1175447 0.1177722 0.1179735 0.1181627 0.1183382 0.1184867
 0.1186003 0.1186907 0.1187872 0.1189138 0.1190655 0.119217 0.1193552 0.119492 0.1196441 0.1198164
 0.1200099 0.1202313 0.120481 0.1207405 0.1209906 0.1212397 0.121516 0.1218224 0.1221184 0.122362
 0.1225577 0.1227439 0.1229431 0.1231508 0.1233677 0.1236125 0.1238973 0.1242073 0.124514 0.124801
 0.1250753 0.1253603 0.1256696 0.1259837 0.1262612 0.1264786 0.1266546 0.1268314 0.127041 0.1272908
 0.1275676 0.1278499 0.1281194 0.128364 0.1285703 0.1287233 0.1288221 0.1288872 0.128939 0.1289697
 0.1289458 0.1288344 0.1286181 0.1282876 0.1278331 0.1272547 0.1265819 0.1258788 0.1252315 0.1247262
 0.1244304 0.124383 0.1245884 0.1250128 0.1255854 0.1262132 0.1268024 0.1272707 0.1275477 0.1275794
 0.1273465 0.1268771 0.126233 0.125481 0.1246763 0.1238586 0.1230578 0.1223123 0.121698 0.1213356
 0.1213574 0.1218556 0.1228469 0.1242573 0.1259249 0.1276386 0.1292166 0.1305729 0.1317194 0.1327129
 0.1336049 0.1344276 0.1352023 0.1359409 0.136644 0.1373066 0.1379278 0.1385099 0.1390502 0.1395368
 0.139954 0.1402867 0.1405283 0.1406881 0.140787 0.1408427 0.1408645 0.1408646 0.1408556 0.140826
 0.1407277 0.1405051 0.1401354 0.1396455 0.1391082 0.138641 0.1384044 0.1385662 0.1392285 0.1403615
 0.1418059 0.1433497 0.1448141 0.1460898 0.1471291 0.1479361 0.1485582 0.1490626 0.1495042 0.1499131
 0.150302 0.1506746 0.1510317 0.1513755 0.1517114 0.1520449 0.1523809 0.1527229 0.1530685 0.1534105
 0.1537437 0.1540719 0.1544059 0.1547538 0.1551122 0.1554693 0.1558176 0.1561617 0.1565081 0.1568514
 0.1571779 0.1574848 0.1577842 0.1580914 0.1584143 0.1587524 0.1590961 0.1594296 0.159741 0.1600326
 0.1603172 0.1606039 0.1608928 0.16118 0.161464 0.1617461 0.162028 0.1623104 0.1625936 0.1628764
 0.1631539 0.1634191 0.1636703 0.1639148 0.1641632 0.1644188 0.1646764 0.1649291 0.1651766 0.1654255
 0.1656834 0.1659514 0.1662224 0.1664864 0.1667392 0.1669846 0.1672288 0.1674751 0.1677236 0.1679735
 0.1682245 0.1684757 0.1687269 0.1689785 0.1692308 0.1694818 0.169728 0.1699693 0.1702109 0.1704582
 0.1707109 0.1709624 0.1712073 0.1714488 0.1716963 0.1719551 0.1722196 0.1724769 0.1727188 0.1729468
 0.173168 0.1733884 0.1736103 0.1738344 0.1740623 0.1742963 0.1745373 0.1747828 0.1750292 0.175274
 0.1755169 0.1757597 0.1760043 0.17625 0.1764935 0.176734 0.1769745 0.1772176 0.1774606 0.1776981
 0.1779273 0.1781522 0.1783805 0.1786172 0.1788602 0.1791043 0.1793459 0.1795842 0.1798176 0.1800453
 0.1802705 0.1804986 0.1807332 0.1809726 0.1812111 0.1814446 0.1816748 0.1819063 0.1821401 0.1823745
 0.1826088 0.1828432 0.183076 0.1833057 0.1835342 0.1837643 0.1839975 0.1842344 0.1844738 0.1847127
 0.1849508 0.1851918 0.1854379 0.1856862 0.1859317 0.1861715 0.1864066 0.1866413 0.1868793 0.1871188
 0.1873556 0.1875901 0.1878256 0.1880634 0.188304 0.18855 0.1888025 0.1890576 0.1893102 0.1895591
 0.1898077 0.1900617 0.1903221 0.1905838 0.1908419 0.1910986 0.1913556 0.1916074 0.1918474 0.1920767
 0.1923002 0.1925213 0.1927417 0.1929627 0.1931859 0.1934136 0.1936468 0.1938824 0.1941165 0.1943503
 0.1945866 0.1948255 0.1950676 0.195315 0.1955665 0.1958189 0.1960722 0.1963274 0.1965814 0.196832
 0.1970813 0.1973316 0.1975848 0.1978431 0.1981052 0.1983663 0.1986253 0.198885 0.1991455 0.1994066
 0.1996716 0.19994 0.200205 0.200464 0.2007222 0.200983 0.2012457 0.2015113 0.2017801 0.2020484
 0.2023152 0.2025847 0.2028586 0.2031362 0.203416 0.2036927 0.2039603 0.204223 0.2044913 0.2047668
 0.2050456 0.2053269 0.2056074 0.2058802 0.206147 0.206416 0.2066876 0.2069576 0.2072284 0.2075008
 0.2077689 0.2080317 0.208292 0.208541 0.2087569 0.2088934 0.2088274 0.2082944 0.2068459 0.2038549
 0.198638 0.1907268 0.1801438 0.1674872 0.1537695 0.1401025 0.1273907 0.1162009 0.1068313 0.0994348
 0.09410556 0.09095366 0.09016058 0.09205789 0.09723659 0.1061955 0.1180485 0.1294126 0.1356772 0.1344967
 0.1279158 0.1205154 0.1156865 0.1139741 0.1142364 0.1153445 0.116847 0.1188455 0.1216104 0.1251809
 0.1293189 0.1338987 0.1391376 0.1452602 0.152058 0.1589616 0.1655168 0.1716778 0.1776427 0.1835011
 0.1890956 0.194173 0.1985813 0.2023224 0.2054997 0.2082522 0.2106986 0.2129134 0.2149478 0.216836
 0.2185515 0.2199854 0.2210115 0.221589 0.2218102 0.2218558 0.221894 0.2220081 0.2222077 0.222483
 0.2228279 0.2232354 0.2236975 0.2242053 0.224742 0.2252863 0.2258252 0.2263518 0.2268575 0.2273383
 0.2277977 0.2282377 0.2286577 0.2290614 0.2294535 0.2298343 0.230205 0.2305695 0.2309267 0.2312732
 0.2316121 0.2319472 0.2322727 0.2325797 0.2328667 0.2331372 0.2333963 0.2336509 0.2339055 0.2341587
 0.23441 0.2346628 0.2349179 0.2351725 0.2354253 0.2356756 0.235921 0.2361619 0.2364026 0.2366447
 0.2368862 0.2371264 0.2373663 0.2376056 0.2378453 0.238087 0.2383282 0.2385642 0.2387951 0.2390245
 0.2392564 0.239497 0.2397525 0.2400216 0.2402974 0.2405757 0.2408562 0.2411359 0.2414105 0.2416794
 0.2419459 0.2422146 0.24249 0.2427703 0.2430429 0.2432934 0.2435184 0.2437287 0.2439418 0.2441703
 0.2444134 0.24466 0.2449026 0.2451428 0.2453838 0.2456256 0.2458675 0.2461095 0.2463524 0.2466035
 0.2468743 0.2471657 0.2474637 0.2477557 0.248043 0.2483322 0.2486245 0.2489157 0.2492016 0.2494801
 0.2497519 0.2500226 0.2503043 0.2506117 0.2509471 0.251292 0.2516205 0.2519254 0.2522214 0.2525279
 0.2528539 0.2531895 0.253503 0.2537633 0.2539825 0.2542213 0.2545358 0.2549238 0.2553344 0.255718
 0.256061 0.2563791 0.2566901 0.2569948 0.2572799 0.2575362 0.2577754 0.2580339 0.2583489 0.2587197
 0.2591035 0.259459 0.2597811 0.2600866 0.2603864 0.2606815 0.2609557 0.261167 0.2612899 0.2613829
 0.2615743 0.2619439 0.2624379 0.2629254 0.2633269 0.2636605 0.2639746 0.264284 0.2645794 0.264838
 0.2649895 0.2649522 0.2647822 0.2647263 0.26502 0.2656491 0.2663801 0.2669964 0.2674413 0.2677701
 0.2680543 0.2683328 0.268587 0.2687419 0.2687462 0.268683 0.2687575 0.2691094 0.2696566 0.270185
 0.2705744 0.2708682 0.2711536 0.2714621 0.2717536 0.2719 0.2717416 0.2713031 0.270938 0.2710979
 0.2718957 0.2729767 0.2738747 0.2744273 0.2747762 0.2750377 0.27513 0.2749231 0.2744002 0.2736621
 0.2729641 0.2727534 0.2733783 0.2746404 0.2758772 0.2766261 0.2770214 0.2774555 0.2780675 0.2786862
 0.2791074 0.2792782 0.2792572 0.2790889 0.2787812 0.2784511 0.2784089 0.2789364 0.279958 0.2810591
 0.2818767 0.2823856 0.2827311 0.2828077 0.2821515 0.2804932 0.278478 0.2774989 0.2784591 0.280821
 0.2831864 0.2846768 0.2854136 0.2858623 0.2862278 0.286398 0.2859352 0.2842197 0.2812903 0.2785831
 0.278062 0.2802841 0.283776 0.2864619 0.287248 0.2862487 0.2842653 0.2824166 0.2817373 0.2826136
 0.2846217 0.28696 0.2889309 0.2901307 0.2904736 0.2901503 0.2895488 0.2891515 0.2892318 0.289443
 0.289036 0.2878324 0.2865703 0.2857687 0.2847759 0.2828351 0.2807765 0.2805024 0.2826338 0.2856094
 0.2874952 0.287965 0.2879481 0.287758 0.2863332 0.2826371 0.2775795 0.2739896 0.2741927 0.2776868
 0.2816381 0.283668 0.283734 0.283313 0.2833269 0.2831674 0.2815976 0.2784993 0.2755576 0.2747577
 0.2761607 0.2778158 0.277921 0.2760913 0.2724191 0.2670212 0.2615213 0.2593542 0.2627327 0.2698922
 0.2766498 0.2800163 0.2791277 0.2739957 0.2658179 0.2582809 0.2559061 0.2598783 0.2666632 0.271429
 0.2718553 0.2682359 0.2615151 0.2528781 0.2447686 0.2405815 0.2425 0.249738 0.2586889 0.2644834
 0.2634743 0.2561592 0.2479108 0.2449345 0.2484332 0.2538109 0.256078 0.2545475 0.2517964 0.2501557
 0.250424 0.2523031 0.2547345 0.2567354 0.2581538 0.2582756 0.2544392 0.2449808 0.2336093 0.2274322
 0.2296272 0.2368934 0.2448432 0.2524145 0.2594021 0.2632933 0.261946 0.2578277 0.2564307 0.2604053
 0.267038 0.2717155 0.2726071 0.2714051 0.2702608 0.2692268 0.2673214 0.2652909 0.2656485 0.2695417
 0.2749511 0.2788824 0.2803723 0.2804861 0.2803016 0.2800025 0.2794408 0.2785856 0.2774797 0.2762572
 0.2751367 0.2741819 0.2732503 0.2722712 0.2711795 0.2693111 0.2654555 0.2594308 0.2534291 0.2505037
 0.2513652 0.2539378 0.2563418 0.2582552 0.2584237 0.2536335 0.2429104 0.2312856 0.2263374 0.2308666
 0.240665 0.2492397 0.2529459 0.2514405 0.2454854 0.2365907 0.2285518 0.2267883 0.2341657 0.247996
 0.2624601 0.273536 0.2805216 0.2837628 0.2831031 0.2790426 0.2740365 0.2715213 0.2735534 0.2794597
 0.2863536 0.2904747 0.2888228 0.2816299 0.2740033 0.2728361 0.2799676 0.2897386 0.295241 0.295558
 0.2947386 0.295374 0.2963818 0.296571 0.2971328 0.2996381 0.303461 0.3063059 0.3062684 0.3026336
 0.2958612 0.2881392 0.2830399 0.2826895 0.2854149 0.2876625 0.2876465 0.2853762 0.2804147 0.2728482
 0.2660862 0.2650334 0.2705111 0.2780092 0.2828287 0.284461 0.2851262 0.2857879 0.2850188 0.2813867
 0.2759902 0.2719857 0.271491 0.2735841 0.2758202 0.2768812 0.2767822 0.2753365 0.2721624 0.268329
 0.2665081 0.2685975 0.2736838 0.2789279 0.2821737 0.2832648 0.2832175 0.2829104 0.2826165 0.2821698
 0.2813966 0.2807124 0.2811465 0.2832476 0.2861291 0.2882805 0.2893142 0.2902793 0.292183 0.2947565
 0.2968631 0.297755 0.2977307 0.2977598 0.2986104 0.300217 0.3017426 0.3023183 0.3018982 0.3014119
 0.3019296 0.3036448 0.3058015 0.3075598 0.3086959 0.3094881 0.3102493 0.3110575 0.3117122 0.3119009
 0.3116158 0.3114075 0.3119725 0.3134288 0.3151777 0.3165144 0.3172061 0.3174503 0.3174709 0.3173032
 0.3169082 0.3163556 0.3158352 0.3155124 0.3154102 0.3154341 0.3154789 0.315493 0.3154768 0.315464
 0.3154999 0.3156096 0.3157845 0.3160014 0.3162357 0.3164502 0.3166079 0.3167128 0.3168073 0.3169077
 0.3169645 0.3169008 0.3166617 0.3162132 0.3155188 0.3145409 0.313251 0.3116187 0.3096151 0.3073072
 0.3050166 0.3033512 0.3029541 0.304094 0.3064503 0.3092967 0.3119135 0.3138957 0.3151892 0.3159386
 0.316325 0.3164855 0.3165024 0.3164144 0.3162365 0.3159807 0.3156665 0.3153157 0.3149493 0.3145912
 0.3142642 0.3139763 0.3137122 0.3134395 0.3131238 0.3127413 0.3122845 0.3117575 0.3111672 0.31051
 0.3097637 0.3089024 0.3079312 0.3069038 0.3058968 0.3049611 0.3040946 0.3032539 0.3023905 0.3014683
 0.3004421 0.2992432 0.2978473 0.2963738 0.2950554 0.2940518 0.2933057 0.2926126 0.2918013 0.2908205
 0.2896937 0.2884599 0.2871596 0.2858289 0.2844821 0.283104 0.2816643 0.2801358 0.2785066 0.2767815
 0.2749743 0.2731023 0.2711873 0.2692478 0.2672694 0.2651746 0.2628261 0.2600664 0.256762 0.2528279
 0.2482408 0.2430588 0.2374367 0.2316011 0.2257883 0.2201942 0.214971 0.2102497 0.2061498 0.2027693
 0.2001735 0.198398 0.1974616 0.1973766 0.1981403 0.1997154 0.2020185 0.2049265 0.2082864 0.2119206
 0.215632 0.2192278 0.2225692 0.2256181 0.2284261 0.2310611 0.233537 0.2358137 0.2378481 0.2396271
 0.2411579 0.2424479 0.2435059 0.2443557 0.245041 0.2456138 0.2461158 0.2465624 0.2469418 0.2472363
 0.2474475 0.2476022 0.2477368 0.2478818 0.2480574 0.2482741 0.2485355 0.248847 0.2492222 0.249676
 0.2502138 0.2508262 0.251496 0.2522089 0.2529645 0.2537764 0.2546666 0.2556633 0.2567997 0.2581018
 0.2595712 0.261176 0.2628487 0.2644901 0.2659857 0.2672394 0.2681992 0.2688594 0.2692433 0.2693833
 0.2693107 0.2690545 0.2686432 0.2681034 0.2674604 0.2667419 0.2659719 0.265159 0.264294 0.2633677
 0.2623887 0.2613854 0.2603878 0.2594098 0.2584515 0.2575136 0.2566004 0.2557099 0.2548364 0.2539848
 0.2531691 0.2523973 0.2516682 0.2509779 0.2503183 0.2496684 0.2489917 0.2482395 0.247364 0.246336
 0.2451515 0.2438183 0.242345 0.2407422 0.2390235 0.2371994 0.2352768 0.2332628 0.2311673 0.229
 0.2267617 0.2244409 0.2220399 0.2196119 0.2172536 0.2150492 0.2130288 0.2111762 0.2094565 0.2078353
 0.2062892 0.2048043 0.2033696 0.201982 0.2006544 0.1994027 0.1982287 0.1971253 0.1960915 0.1951379
 0.194286 0.1935576 0.1929542 0.1924516 0.1920197 0.1916431 0.1913296 0.1911155 0.1910444 0.1911133
 0.1912452 0.1913382 0.1913388 0.1912664 0.1911812 0.1911309 0.1911214 0.1911337 0.1911493 0.1911346
 0.1910143 0.190687 0.1900613 0.1890676 0.1876668 0.1858778 0.1837881 0.1815376 0.179295 0.1772216
 0.1754295 0.1739714 0.1728563 0.172044 0.1714444 0.1709742 0.1706228 0.1704498 0.1705231 0.1708396
 0.171271 0.1716197 0.1717912 0.1719024 0.1721807 0.1727725 0.1736599 0.1747085 0.1757575 0.1766924
 0.1774623 0.1780524 0.1784708 0.1787512 0.1789261 0.178998 0.1789562 0.1787996 0.1785282 0.178148
 0.177686 0.1771633 0.1765642 0.1758648 0.1750623 0.1741593 0.1731566 0.1720591 0.1708491 0.1694905
 0.1680319 0.1666818 0.1657312 0.1654011 0.1657313 0.1665618 0.1676421 0.1687981 0.1699545 0.1710147
 0.1718641 0.1725588 0.1734058 0.1747597 0.1767257 0.1790514 0.1812955 0.183107 0.1843451 0.1849957
 0.1850915 0.1847046 0.1838868 0.1826188 0.1809067 0.1788652 0.1766395 0.174352 0.172152 0.1701786
 0.1684819 0.1670729 0.1659577 0.1651316 0.164653 0.1642531 0.1623789 0.1567261 0.1475004 0.1395479
 0.1387058 0.145514 0.1544701 0.1599374 0.1609381 0.1598323 0.1585962 0.1576653 0.1569654 0.1565587
 0.1564925 0.1566642 0.1568634 0.1568695 0.1565876 0.1560322 0.1550736 0.1532056 0.1495412 0.1431365
 0.1336915 0.1221865 0.1106633 0.1011394 0.09460967 0.09084868 0.08886425 0.08758837 0.08648315 0.08571475
 0.0857844 0.08701745 0.08938724 0.09267586 0.09662728 0.1009101 0.1050638 0.1086476 0.1114739 0.1136134
 0.1151776 0.1161962 0.116693 0.1167503 0.1164642 0.1159089 0.1151441 0.114196 0.1130367 0.1116412
 0.1100881 0.108594 0.1074135 0.1066695 0.1062836 0.106094 0.1060064 0.1060051 0.1060786 0.1061992
 0.1063465 0.1065179 0.1067311 0.1070133 0.1073582 0.1077053 0.1079857 0.1081721 0.1082741 0.108297
 0.108211 0.1079713 0.1075972 0.1071912 0.1068 0.1062792 0.1054104 0.1041865 0.1029174 0.1020288
 0.1017669 0.1020558 0.1025848 0.1030367 0.103276 0.1033584 0.1033877 0.1033691 0.103191 0.1027488
</values></Ydata></ScRf><Data_Parameters_AB><parameter name="DPF">1</parameter><parameter name="NPT">3497</parameter><parameter name="FXV">3996</parameter><parameter name="LXV">500</parameter><parameter name="CSF">1</parameter><parameter name="MXY">0.0147367538884282</parameter><parameter name="MNY">-0.0518307387828827</parameter><parameter name="DAT">17/01/2024</parameter><parameter name="TIM">13:07:22.157 (GMT+1)</parameter><parameter name="DXU">WN</parameter></Data_Parameters_AB><AB__Qtest><MainReport name="Quality Test Report"><Header><Line><Legend>Test result ok/not ok [1/0]: </Legend><Value>0</Value></Line><Line><Legend>Method file: </Legend><Value>C:\Users\Public\Documents\Bruker\OPUS_8.2.28\QT\IRBT_v3_default.QT</Value></Line></Header><Matrix><Line><Legend></Legend><Legend>min</Legend><Legend>max</Legend><Legend>measured</Legend></Line><Line><Value>Absorption (X-Range 1):</Value><Value>0.400000</Value><Value>2.000000</Value><Value>0.033829</Value></Line><Line><Value>Noise (X-Range 4):</Value><Value></Value><Value>0.000300</Value><Value>0.000028</Value></Line><Line><Value>Signal/Noise (X-Range 2):</Value><Value>200.000000</Value><Value></Value><Value>16.340653</Value></Line><Line><Value>Signal/Noise (X-Range 3):</Value><Value>40.000000</Value><Value></Value><Value>14.934089</Value></Line><Line><Value>Water vapour (X-Range 5):</Value><Value></Value><Value>0.000300</Value><Value>0.000012</Value></Line><Line><Value>Signal/Water (X-Range 2):</Value><Value>100.000000</Value><Value></Value><Value>37.339994</Value></Line><Line><Value>Signal/Water (X-Range 3):</Value><Value>20.000000</Value><Value></Value><Value>34.125857</Value></Line><Line><Value>Fringes (X-Range 6):</Value><Value></Value><Value>0.000100</Value><Value>0.000026</Value></Line></Matrix></MainReport></AB__Qtest><Data_Parameters_ScSm><parameter name="DPF">1</parameter><parameter name="NPT">1814</parameter><parameter name="FXV">3996.63438082617</parameter><parameter name="LXV">499.579297603271</parameter><parameter name="CSF">1</parameter><parameter name="MXY">0.328007698059082</parameter><parameter name="MNY">0.0763203129172325</parameter><parameter name="DAT">17/01/2024</parameter><parameter name="TIM">13:07:22.157 (GMT+1)</parameter><parameter name="DXU">WN</parameter></Data_Parameters_ScSm><Data_Parameters_ScRf><parameter name="DPF">1</parameter><parameter name="NPT">1820</parameter><parameter name="FXV">4004.34989121387</parameter><parameter name="LXV">495.721542409425</parameter><parameter name="CSF">1</parameter><parameter name="MXY">0.3174709379673</parameter><parameter name="MNY">0.068071261048317</parameter><parameter name="DAT">17/01/2024</parameter><parameter name="TIM">13:06:56.296 (GMT+1)</parameter><parameter name="DXU">WN</parameter></Data_Parameters_ScRf><Optic_Parameters_Rf><parameter name="APR">0</parameter><parameter name="APT">Open</parameter><parameter name="BMS">KBr</parameter><parameter name="DTC">RT-DLaTGS_IR-Biotyper [Microplate reader]</parameter><parameter name="HPF">0</parameter><parameter name="LPF">10.0</parameter><parameter name="LPV">4000</parameter><parameter name="PGR">0</parameter><parameter name="RCH">Module port</parameter><parameter name="RDX">0</parameter><parameter name="SRC">MIR</parameter><parameter name="VEL">10.0</parameter><parameter name="SON">Off</parameter></Optic_Parameters_Rf><Acquisition_Parameters_Rf><parameter name="ADT">1</parameter><parameter name="AQM">DD</parameter><parameter name="CFE">0</parameter><parameter name="COR">0</parameter><parameter name="DEL">0</parameter><parameter name="DLY">0</parameter><parameter name="HFW">8000</parameter><parameter name="LFW">0</parameter><parameter name="NSR">32</parameter><parameter name="PLF">AB</parameter><parameter name="RES">6</parameter><parameter name="RGN">-1</parameter><parameter name="STR">0</parameter><parameter name="TCL">MakeCompatibleScalar (0, {WSV=1.000000, ARV=0});</parameter><parameter name="TDL">37</parameter><parameter name="RPO">0</parameter></Acquisition_Parameters_Rf><FT_-_Parameters_Rf><parameter name="APF">B3</parameter><parameter name="HFQ">500</parameter><parameter name="LFQ">4000</parameter><parameter name="NLI">0</parameter><parameter name="PHR">24</parameter><parameter name="PHZ">ML</parameter><parameter name="SPZ">NO</parameter><parameter name="ZFF">1</parameter></FT_-_Parameters_Rf><Optic_Parameters_><parameter name="APR">0</parameter><parameter name="APT">Open</parameter><parameter name="BMS">KBr</parameter><parameter name="CHN">Module port</parameter><parameter name="DTC">RT-DLaTGS_IR-Biotyper [Microplate reader]</parameter><parameter name="HPF">0</parameter><parameter name="LPF">10.0</parameter><parameter name="LPV">4000</parameter><parameter name="PGN">0</parameter><parameter name="RDX">0</parameter><parameter name="SRC">MIR</parameter><parameter name="VEL">10.0</parameter><parameter name="SON">Off</parameter></Optic_Parameters_><FT_-_Parameters_><parameter name="APF">B3</parameter><parameter name="HFQ">500</parameter><parameter name="LFQ">4000</parameter><parameter name="NLI">0</parameter><parameter name="PHR">24</parameter><parameter name="PHZ">ML</parameter><parameter name="SPZ">NO</parameter><parameter name="ZFF">1</parameter></FT_-_Parameters_><Acquisition_Parameters_><parameter name="ADT">1</parameter><parameter name="AQM">DD</parameter><parameter name="CFE">0</parameter><parameter name="COR">0</parameter><parameter name="DEL">0</parameter><parameter name="DLY">0</parameter><parameter name="HFW">8000</parameter><parameter name="LFW">0</parameter><parameter name="NSS">32</parameter><parameter name="PLF">AB</parameter><parameter name="RES">6</parameter><parameter name="SOT">0</parameter><parameter name="TCL">MakeCompatibleScalar (0, {WSV=1.000000, ARV=0});</parameter><parameter name="TDL">37</parameter><parameter name="SPO">0</parameter><parameter name="SGN">-1</parameter></Acquisition_Parameters_><Instrument_Parameters_Rf><parameter name="HFL">15801.365274</parameter><parameter name="LFL">0</parameter><parameter name="LWN">15801.365274</parameter><parameter name="ABP">32157</parameter><parameter name="SSP">1</parameter><parameter name="ARG">2</parameter><parameter name="ASG">2</parameter><parameter name="ASS">32</parameter><parameter name="GFW">16</parameter><parameter name="GBW">16</parameter><parameter name="BFW">0</parameter><parameter name="BBW">0</parameter><parameter name="PKA">9109</parameter><parameter name="PKL">4987</parameter><parameter name="PRA">9124</parameter><parameter name="PRL">5010</parameter><parameter name="P2A">1</parameter><parameter name="P2L">1</parameter><parameter name="P2R">1</parameter><parameter name="P2K">1</parameter><parameter name="DAQ">0</parameter><parameter name="AG2">1</parameter><parameter name="SSM">1</parameter><parameter name="RSN">46310</parameter><parameter name="CRR">0</parameter><parameter name="SRT">1705496816.296</parameter><parameter name="DUR">19.6439971923828</parameter><parameter name="TSC">30.8</parameter><parameter name="MVD">0.2701316177845</parameter><parameter name="AN1">0.225994758109555</parameter><parameter name="AN2">0</parameter><parameter name="VSN">2.485 Apr  4 2017</parameter><parameter name="SRN">0085</parameter><parameter name="CAM">0</parameter><parameter name="INS">IR-Biotyper</parameter><parameter name="FOC">69</parameter><parameter name="RDY">1</parameter><parameter name="ARS">32</parameter></Instrument_Parameters_Rf><Sample_Parameters_><parameter name="BLD"></parameter><parameter name="CNM">Admin</parameter><parameter name="CPY"></parameter><parameter name="DPM"></parameter><parameter name="EXP">IRBT_v3_32Scans.XPM</parameter><parameter name="LCT"></parameter><parameter name="SFM">Microplate, HTS-XT</parameter><parameter name="SNM">240117-1222-Cdiff_SCFA_1_C2_232113922_B6_02d566c7-84af-4ca5-9e6c-02e9082a666d.0</parameter><parameter name="XPP">C:\Users\Public\Documents\Bruker\OPUS_8.2.28\XPM</parameter><parameter name="IST">OK</parameter><parameter name="CPG">1252</parameter><parameter name="UID">ee30b304-09b3-4948-8104-ba40b1a308db</parameter></Sample_Parameters_><Instrument_Parameters_><parameter name="HFL">15801.365274</parameter><parameter name="LFL">0</parameter><parameter name="LWN">15801.365274</parameter><parameter name="ABP">32157</parameter><parameter name="SSP">1</parameter><parameter name="ASG">2</parameter><parameter name="ARG">2</parameter><parameter name="ASS">32</parameter><parameter name="GFW">16</parameter><parameter name="GBW">16</parameter><parameter name="BFW">0</parameter><parameter name="BBW">0</parameter><parameter name="PKA">9560</parameter><parameter name="PKL">4987</parameter><parameter name="PRA">9657</parameter><parameter name="PRL">5010</parameter><parameter name="P2A">1</parameter><parameter name="P2L">1</parameter><parameter name="P2R">1</parameter><parameter name="P2K">1</parameter><parameter name="DAQ">0</parameter><parameter name="AG2">1</parameter><parameter name="SSM">1</parameter><parameter name="RSN">23848</parameter><parameter name="CRR">0</parameter><parameter name="SRT">1705496842.157</parameter><parameter name="DUR">19.6439971923828</parameter><parameter name="TSC">30.9</parameter><parameter name="MVD">0.897968411445618</parameter><parameter name="AN1">0.226007914122633</parameter><parameter name="AN2">0</parameter><parameter name="VSN">2.485 Apr  4 2017</parameter><parameter name="SRN">0085</parameter><parameter name="CAM">0</parameter><parameter name="INS">IR-Biotyper</parameter><parameter name="FOC">69</parameter><parameter name="RDY">1</parameter></Instrument_Parameters_><History/></OPUSDataFile>
