<?xml version="1.0" encoding="UTF-8" ?>
<OPUSDataFile><AB><Ydata ylabel="Absorbance Units"><values byteorder="INTEL" format="FLOAT32" numvalues="3497"> -0.01323408 -0.01322858 -0.01322042 -0.01320937 -0.01319382 -0.01317578 -0.01315847 -0.01314432 -0.0131392 -0.01314189
 -0.01315498 -0.01317152 -0.0131878 -0.01319737 -0.01319457 -0.01318257 -0.01315976 -0.01313677 -0.01311616 -0.01310232
 -0.01309712 -0.01309394 -0.01309237 -0.0130871 -0.01307799 -0.01306844 -0.01305861 -0.01305193 -0.01304715 -0.01303908
 -0.01302699 -0.01300452 -0.01297476 -0.01294072 -0.01290683 -0.01288212 -0.0128661 -0.01286291 -0.012867 -0.01287554
 -0.01288467 -0.01289082 -0.01289587 -0.01289923 -0.01290512 -0.01291471 -0.01292895 -0.01294855 -0.0129701 -0.01299349
 -0.01301413 -0.01303178 -0.01304295 -0.01304765 -0.01304467 -0.01303448 -0.01301858 -0.01299795 -0.01297624 -0.01295475
 -0.01293826 -0.01292703 -0.01292423 -0.01292753 -0.01293642 -0.01294631 -0.0129537 -0.01295542 -0.01294809 -0.01293369
 -0.01291124 -0.01288715 -0.01286237 -0.01284372 -0.0128325 -0.01283177 -0.01284221 -0.01286039 -0.01288611 -0.0129099
 -0.01293115 -0.01293924 -0.01293483 -0.01291519 -0.01288309 -0.01284615 -0.01280717 -0.01277697 -0.01275483 -0.01274544
 -0.01274422 -0.01274819 -0.01275288 -0.01275325 -0.01274936 -0.0127395 -0.0127264 -0.01271069 -0.01269433 -0.01267784
 -0.01266261 -0.01264881 -0.01263852 -0.01263205 -0.01262948 -0.01263082 -0.01263325 -0.01263675 -0.01264005 -0.01264385
 -0.01265188 -0.01266403 -0.01268275 -0.01270559 -0.01272839 -0.01274847 -0.01275871 -0.01276048 -0.01275187 -0.01273694
 -0.0127186 -0.01269853 -0.01267891 -0.01265813 -0.01263541 -0.0126122 -0.01258776 -0.01256914 -0.01255755 -0.01255672
 -0.01256781 -0.01258248 -0.01260035 -0.01260854 -0.01260721 -0.01259503 -0.01257394 -0.0125552 -0.01253965 -0.01253762
 -0.01254552 -0.01256069 -0.0125778 -0.01258551 -0.01258441 -0.01256971 -0.01254646 -0.01251753 -0.01248535 -0.01245231
 -0.01241826 -0.01238325 -0.01234864 -0.01231428 -0.01228388 -0.01225791 -0.01223996 -0.01223062 -0.01222989 -0.01223783
 -0.01224934 -0.01226401 -0.01227484 -0.01228199 -0.01228266 -0.0122782 -0.01227196 -0.01226532 -0.01226379 -0.01226674
 -0.0122761 -0.01228941 -0.01230478 -0.01231968 -0.01233116 -0.01233875 -0.01234095 -0.01233964 -0.01233509 -0.01232929
 -0.01232315 -0.01231595 -0.01230794 -0.0122964 -0.01228104 -0.01226015 -0.01223359 -0.01220296 -0.01216851 -0.01213413
 -0.01210007 -0.01206975 -0.0120432 -0.01202232 -0.01200685 -0.0119974 -0.01199301 -0.01199266 -0.01199477 -0.011997
 -0.01199834 -0.0119966 -0.01199328 -0.01198813 -0.01198447 -0.01198375 -0.01198731 -0.0119966 -0.01200752 -0.01201986
 -0.01202823 -0.01203175 -0.01203066 -0.01202487 -0.01201989 -0.01201581 -0.01201472 -0.01201578 -0.01201413 -0.01200921
 -0.01199541 -0.01197443 -0.01194711 -0.0119167 -0.01188948 -0.01186707 -0.01185481 -0.01185049 -0.01185473 -0.0118631
 -0.01187312 -0.01188213 -0.01188826 -0.01189138 -0.01189101 -0.01188796 -0.01188212 -0.01187543 -0.01186793 -0.01186298
 -0.01186079 -0.0118634 -0.01187061 -0.01187883 -0.01188747 -0.01189027 -0.01188762 -0.0118776 -0.01186133 -0.01184101
 -0.01181702 -0.01179061 -0.01176294 -0.01173519 -0.01171048 -0.0116921 -0.01168137 -0.01168129 -0.01168738 -0.01169947
 -0.01170985 -0.01171577 -0.01171538 -0.01170727 -0.01169602 -0.01168206 -0.01166839 -0.01165533 -0.01164076 -0.01162457
 -0.01160403 -0.01157927 -0.01154977 -0.01151603 -0.0114796 -0.01144148 -0.01140482 -0.01137108 -0.01134462 -0.01132558
 -0.01131679 -0.01131522 -0.01132017 -0.01132606 -0.0113293 -0.01132637 -0.01131379 -0.01129493 -0.01126924 -0.01124428
 -0.01122146 -0.01120521 -0.01119666 -0.01119316 -0.01119473 -0.01119469 -0.0111929 -0.01118712 -0.011178 -0.01116944
 -0.01116174 -0.01115863 -0.01115895 -0.01116167 -0.01116495 -0.01116463 -0.01116012 -0.01114853 -0.01113109 -0.01110755
 -0.01108019 -0.01104983 -0.01102009 -0.01099237 -0.01097031 -0.01095559 -0.01094848 -0.01095017 -0.01095423 -0.01096039
 -0.01095956 -0.01095095 -0.0109326 -0.01090477 -0.01087475 -0.01084297 -0.01081669 -0.01079448 -0.01077419 -0.01075378
 -0.01072557 -0.01069053 -0.01064566 -0.01059586 -0.0105463 -0.01050114 -0.01046706 -0.01044275 -0.01043046 -0.01042399
 -0.0104214 -0.01041734 -0.01040974 -0.01039601 -0.01037524 -0.01034664 -0.01030977 -0.01026684 -0.01021786 -0.01016796
 -0.01011734 -0.01006934 -0.01002381 -0.009981058 -0.009940985 -0.009903271 -0.009868124 -0.009836189 -0.009807184 -0.00978094
 -0.00975696 -0.009734382 -0.009713245 -0.009693329 -0.009674602 -0.009657704 -0.009639982 -0.00962065 -0.009596795 -0.0095668
 -0.009531889 -0.009491617 -0.009450185 -0.009408156 -0.009367547 -0.009328599 -0.009290841 -0.009254343 -0.009221222 -0.009191913
 -0.009171583 -0.009159757 -0.009157843 -0.009163272 -0.009169552 -0.009173909 -0.009167119 -0.009149437 -0.009116543 -0.009071942
 -0.009017041 -0.008956128 -0.008892019 -0.008828954 -0.008769494 -0.008716146 -0.008670696 -0.008631795 -0.00859997 -0.008570397
 -0.008542429 -0.008513469 -0.008483141 -0.008453188 -0.008423678 -0.008396137 -0.008370161 -0.008342641 -0.008313077 -0.008277056
 -0.008235235 -0.008187067 -0.008133905 -0.00807836 -0.008021054 -0.007963961 -0.007907263 -0.007851435 -0.007797753 -0.007746943
 -0.007700831 -0.007660729 -0.007626557 -0.007599073 -0.007575361 -0.007555091 -0.007535096 -0.007514792 -0.007493325 -0.007470528
 -0.007447408 -0.007423964 -0.00739913 -0.00737261 -0.007340847 -0.007304063 -0.007260911 -0.007213031 -0.007164727 -0.007117479
 -0.007077303 -0.007042565 -0.007014201 -0.006988241 -0.006960785 -0.006929779 -0.006891795 -0.006848983 -0.006801331 -0.006751585
 -0.006700971 -0.006649549 -0.006597436 -0.006544864 -0.006491453 -0.006441254 -0.0063944 -0.006357444 -0.006330657 -0.006316665
 -0.006314785 -0.006319603 -0.006329515 -0.006333489 -0.006330689 -0.006311973 -0.006279099 -0.006230484 -0.006170407 -0.006103859
 -0.006035912 -0.005973698 -0.005919962 -0.005880059 -0.005850527 -0.005832681 -0.005816625 -0.00579972 -0.005773241 -0.005733606
 -0.005683032 -0.005620314 -0.005557653 -0.005495913 -0.005445488 -0.005406807 -0.005379061 -0.005361485 -0.00534544 -0.005330602
 -0.005310399 -0.005285996 -0.005257629 -0.005226727 -0.005196924 -0.00516798 -0.005141283 -0.005115728 -0.005090254 -0.005065297
 -0.005040638 -0.005017479 -0.004997162 -0.00497729 -0.004957968 -0.004934205 -0.004904425 -0.004867997 -0.004823919 -0.004778494
 -0.004732103 -0.00469111 -0.00465581 -0.004626151 -0.004601806 -0.004578906 -0.004557387 -0.004534971 -0.004511827 -0.004487527
 -0.004461773 -0.004433761 -0.004403017 -0.004367981 -0.004329753 -0.004288309 -0.004246595 -0.004206579 -0.004170991 -0.004142411
 -0.004119586 -0.004103311 -0.004089001 -0.004075804 -0.00405999 -0.004040608 -0.004017779 -0.003991305 -0.003963598 -0.003934783
 -0.003907423 -0.003881588 -0.003859008 -0.003839406 -0.003822326 -0.003807065 -0.003790942 -0.003773565 -0.003752382 -0.003728227
 -0.003701093 -0.003672379 -0.003643669 -0.003615768 -0.003589887 -0.003566007 -0.003544396 -0.003524998 -0.003507888 -0.003492862
 -0.00348023 -0.003467811 -0.003455534 -0.003439892 -0.003420479 -0.003395804 -0.003365773 -0.003333703 -0.003299908 -0.003269596
 -0.003242451 -0.00321941 -0.003199598 -0.003179994 -0.003161025 -0.003141811 -0.003124017 -0.003110759 -0.003100949 -0.003095844
 -0.003090196 -0.003080286 -0.003062556 -0.003032526 -0.002994738 -0.002948565 -0.002903954 -0.002863396 -0.002832731 -0.002814022
 -0.002804072 -0.002803092 -0.002803403 -0.002804582 -0.002801549 -0.002794368 -0.002782854 -0.002767368 -0.002749876 -0.002730692
 -0.002711788 -0.002693658 -0.002678477 -0.002666482 -0.002659671 -0.002656245 -0.002655538 -0.00265408 -0.002648608 -0.002637855
 -0.002619199 -0.002596454 -0.002569939 -0.002545102 -0.002523754 -0.002507256 -0.002496626 -0.002487964 -0.002481061 -0.002471718
 -0.002459662 -0.00244474 -0.002427178 -0.002410398 -0.002394559 -0.002382537 -0.002373904 -0.002368627 -0.002366162 -0.002365159
 -0.00236532 -0.002365732 -0.002365772 -0.002364692 -0.002361052 -0.002353377 -0.002340974 -0.00232254 -0.002299844 -0.002272809
 -0.002244923 -0.002216927 -0.002191918 -0.002170533 -0.002154544 -0.002144241 -0.002140159 -0.002142372 -0.002148987 -0.00215974
 -0.002170335 -0.002180387 -0.002185013 -0.002184521 -0.002177117 -0.002164124 -0.002147814 -0.002129536 -0.002112913 -0.00209789
 -0.002086074 -0.002076297 -0.002067988 -0.002060635 -0.002053488 -0.002047482 -0.002043089 -0.002039843 -0.002038144 -0.002035094
 -0.002030172 -0.002021856 -0.002009676 -0.001996136 -0.001981353 -0.0019683 -0.001956916 -0.001946299 -0.001936086 -0.001923037
 -0.001907595 -0.001889696 -0.001870201 -0.001851731 -0.001833734 -0.001816739 -0.001799186 -0.001778846 -0.001756191 -0.00173008
 -0.00170381 -0.001679022 -0.001657953 -0.001642576 -0.0016309 -0.001622973 -0.0016158 -0.001608576 -0.001601342 -0.00159379
 -0.001589038 -0.001587271 -0.001590676 -0.001599204 -0.001611987 -0.001628573 -0.001645588 -0.001662349 -0.001674186 -0.001680999
 -0.001679742 -0.001671657 -0.001657268 -0.001638559 -0.001618139 -0.001597609 -0.001579085 -0.001563866 -0.001552943 -0.001548279
 -0.00155095 -0.001561929 -0.001582265 -0.001609295 -0.001643062 -0.001678834 -0.001716041 -0.001751951 -0.001786312 -0.001819189
 -0.001850564 -0.00188013 -0.001907815 -0.001932591 -0.001954962 -0.001976395 -0.001997621 -0.002021818 -0.002048264 -0.002077663
 -0.00210761 -0.002135172 -0.002158975 -0.002175928 -0.002188341 -0.00219604 -0.002203691 -0.002213272 -0.002227609 -0.002248372
 -0.002274436 -0.00230621 -0.002340031 -0.002375718 -0.002408486 -0.002438019 -0.002460164 -0.002474844 -0.002481115 -0.002479437
 -0.002472707 -0.002461643 -0.002450847 -0.002440671 -0.002434421 -0.002432126 -0.002435395 -0.002444026 -0.00245859 -0.002478287
 -0.00250301 -0.002530755 -0.002560421 -0.002590027 -0.002618347 -0.002644803 -0.002668951 -0.002690861 -0.002710488 -0.002727885
 -0.002743035 -0.00275617 -0.002767288 -0.002777157 -0.002785804 -0.002793682 -0.002800792 -0.0028072 -0.002813135 -0.002819615
 -0.00282694 -0.002836745 -0.002848544 -0.002862506 -0.002877214 -0.002890825 -0.002902371 -0.002909856 -0.002914327 -0.002915192
 -0.002915936 -0.002917479 -0.002924209 -0.002937814 -0.002960064 -0.002992306 -0.003030461 -0.003074703 -0.003116305 -0.003154639
 -0.003183478 -0.003202755 -0.00321424 -0.003218614 -0.003222674 -0.003226361 -0.003233366 -0.003242358 -0.003251155 -0.003259185
 -0.003263492 -0.003266175 -0.00326864 -0.003273421 -0.003284408 -0.003299929 -0.003321031 -0.003342357 -0.003361399 -0.003375909
 -0.003383382 -0.003389631 -0.00339496 -0.003407213 -0.003428 -0.003456875 -0.003494256 -0.003530637 -0.003565558 -0.003590244
 -0.003605138 -0.003610105 -0.003606644 -0.003601771 -0.003596285 -0.003596702 -0.003601775 -0.003612729 -0.003626463 -0.003639005
 -0.003648528 -0.00365081 -0.003648399 -0.003640547 -0.003633893 -0.003631413 -0.003637165 -0.003654195 -0.003678659 -0.003711041
 -0.003742791 -0.003772658 -0.003796504 -0.00381367 -0.003827397 -0.003837869 -0.003849951 -0.003863376 -0.003877721 -0.003892172
 -0.003902269 -0.003908129 -0.003907106 -0.003901346 -0.003893677 -0.003886733 -0.003886113 -0.003891506 -0.003905576 -0.003924381
 -0.003946242 -0.003967367 -0.003984971 -0.003999319 -0.004009607 -0.004018251 -0.004026026 -0.004032224 -0.004037138 -0.004037094
 -0.004031718 -0.004020322 -0.004002988 -0.003985131 -0.003967169 -0.003955623 -0.003949997 -0.003951704 -0.003959037 -0.003967409
 -0.003975596 -0.003978383 -0.003976503 -0.003968198 -0.003956256 -0.003942693 -0.003930183 -0.003921472 -0.003917132 -0.003918524
 -0.003923912 -0.003933123 -0.003944199 -0.003956711 -0.003969233 -0.003981485 -0.003992864 -0.004003265 -0.004012894 -0.004021776
 -0.004031224 -0.004041276 -0.004052837 -0.004065806 -0.004080139 -0.004095718 -0.004112105 -0.004129333 -0.004147455 -0.004166018
 -0.004184655 -0.004202168 -0.004217147 -0.004228868 -0.00423603 -0.004239565 -0.004239358 -0.00423723 -0.004233831 -0.004230028
 -0.004226078 -0.00422264 -0.004219653 -0.00421921 -0.004221455 -0.004228583 -0.004240687 -0.004257539 -0.004278875 -0.004301721
 -0.004325821 -0.004348177 -0.004368957 -0.004387146 -0.004403027 -0.004416682 -0.004428424 -0.00443875 -0.004447906 -0.004456697
 -0.004464078 -0.004469967 -0.004472008 -0.004468622 -0.004459735 -0.004443987 -0.004426443 -0.004407795 -0.004393344 -0.004384675
 -0.004378988 -0.004376518 -0.004368595 -0.004354807 -0.004331681 -0.004299677 -0.004263148 -0.004222606 -0.004183189 -0.004144679
 -0.004108533 -0.004075415 -0.004047262 -0.004025378 -0.00401331 -0.00400994 -0.004016384 -0.004028295 -0.004042948 -0.004056645
 -0.004066316 -0.004071839 -0.00407217 -0.004069426 -0.004063736 -0.004057838 -0.004052135 -0.004048762 -0.004048086 -0.004049442
 -0.004052795 -0.004053722 -0.004052011 -0.004043642 -0.004028942 -0.004007592 -0.003980277 -0.003949319 -0.003914844 -0.003878589
 -0.003839629 -0.003797588 -0.003750697 -0.003696874 -0.003634842 -0.003562341 -0.003480923 -0.00339018 -0.003293996 -0.003193789
 -0.003091697 -0.002988989 -0.00288373 -0.00277585 -0.002663069 -0.002544894 -0.002423797 -0.002299892 -0.002179732 -0.002063591
 -0.00195686 -0.001859185 -0.001771336 -0.001692598 -0.001620556 -0.001555465 -0.001496428 -0.001444694 -0.001402022 -0.001369021
 -0.001347811 -0.001336236 -0.001334217 -0.001336841 -0.001342068 -0.001344283 -0.001341301 -0.001328384 -0.00130421 -0.001264726
 -0.001209003 -0.001135346 -0.001043308 -0.0009345387 -0.0008090884 -0.0006727119 -0.000525973 -0.0003776381 -0.0002285138 -8.799886E-05
 4.357109E-05 0.0001595303 0.0002609918 0.0003469121 0.0004194537 0.0004819684 0.0005353687 0.0005829826 0.0006220219 0.0006523775
 0.0006681672 0.0006661772 0.00064234 0.0005935491 0.0005216693 0.0004258988 0.0003122306 0.0001814662 3.833597E-05 -0.0001165306
 -0.0002813776 -0.0004560843 -0.0006382244 -0.0008274144 -0.001017733 -0.001208433 -0.001391686 -0.001567267 -0.001729824 -0.001880324
 -0.002018129 -0.002145057 -0.002263958 -0.002375981 -0.002484064 -0.002587269 -0.002686282 -0.002778451 -0.002862515 -0.002936441
 -0.002998652 -0.003050323 -0.003090834 -0.003124823 -0.003152649 -0.003180175 -0.003208085 -0.00323988 -0.003275852 -0.003315073
 -0.003357217 -0.003396971 -0.003433803 -0.003461513 -0.003480093 -0.003485956 -0.003479941 -0.003461913 -0.003433728 -0.003398121
 -0.003357588 -0.003316041 -0.003275591 -0.003239612 -0.003208049 -0.003182569 -0.003159685 -0.003139052 -0.003115184 -0.003086667
 -0.003049333 -0.003001968 -0.002944222 -0.002875683 -0.002799536 -0.002715927 -0.002628737 -0.002538234 -0.002448525 -0.002360612
 -0.002282403 -0.002216575 -0.002177445 -0.002168029 -0.002204458 -0.002285473 -0.002418532 -0.002594987 -0.002809424 -0.003047826
 -0.003297639 -0.003545673 -0.00378065 -0.003995914 -0.004185179 -0.004350606 -0.004490662 -0.004613228 -0.004719274 -0.004816035
 -0.004904677 -0.00498665 -0.005062181 -0.00512881 -0.005186533 -0.005235022 -0.005274864 -0.005310139 -0.005341428 -0.005373523
 -0.005406025 -0.005440454 -0.005475859 -0.005511079 -0.005545748 -0.005578865 -0.005610549 -0.00564067 -0.005669069 -0.005695935
 -0.005719982 -0.005740919 -0.005756999 -0.005767579 -0.005772019 -0.00576966 -0.00576333 -0.005752996 -0.005744108 -0.005737026
 -0.005735877 -0.005740654 -0.005750521 -0.005765038 -0.005780475 -0.005796697 -0.005811113 -0.005824018 -0.005835016 -0.005844132
 -0.00585123 -0.005856267 -0.005858983 -0.005859807 -0.005858805 -0.005857071 -0.005855199 -0.005854277 -0.005854819 -0.005857823
 -0.005863814 -0.005872639 -0.005884571 -0.005897855 -0.005912434 -0.0059257 -0.005937463 -0.005946139 -0.005951709 -0.005954163
 -0.005953718 -0.00595183 -0.005949057 -0.005948607 -0.005950812 -0.005958795 -0.005971241 -0.005987654 -0.006005343 -0.006020278
 -0.006031421 -0.006035602 -0.006035292 -0.006030785 -0.006025474 -0.006021133 -0.006018912 -0.006019869 -0.00602244 -0.006026626
 -0.006030243 -0.006033104 -0.006032836 -0.006029214 -0.006021742 -0.006010517 -0.005998416 -0.00598579 -0.005977025 -0.005971862
 -0.0059718 -0.005975672 -0.005980866 -0.005986613 -0.00598983 -0.005991234 -0.005990352 -0.005988494 -0.005986873 -0.00598594
 -0.005986558 -0.005988046 -0.005990339 -0.005992733 -0.00599514 -0.005996413 -0.005996343 -0.005993906 -0.005988808 -0.005981787
 -0.005972773 -0.005965314 -0.005959565 -0.005958371 -0.005961377 -0.005966921 -0.005974217 -0.005978469 -0.005979847 -0.005975928
 -0.005968292 -0.005958966 -0.005949139 -0.005941616 -0.00593605 -0.00593319 -0.005932191 -0.005932484 -0.005934254 -0.00593734
 -0.005942415 -0.005949764 -0.005959325 -0.005971325 -0.005984396 -0.005998507 -0.00601155 -0.006023398 -0.00603168 -0.00603629
 -0.006035568 -0.006029689 -0.006019292 -0.006005036 -0.005990271 -0.00597571 -0.005965496 -0.005959292 -0.005958815 -0.005962355
 -0.005968466 -0.005975062 -0.005979064 -0.005980868 -0.005979128 -0.005977052 -0.00597574 -0.005977782 -0.005984849 -0.005995302
 -0.006009649 -0.006022597 -0.006033497 -0.006038609 -0.006037421 -0.006031148 -0.006019931 -0.006008968 -0.005998465 -0.005992685
 -0.005991106 -0.005993686 -0.005999257 -0.006004073 -0.006007727 -0.006007181 -0.006003578 -0.005997087 -0.005989365 -0.00598216
 -0.005976501 -0.00597375 -0.005973928 -0.005977705 -0.005983576 -0.005991784 -0.00599825 -0.006002119 -0.006000604 -0.005992739
 -0.005981299 -0.005966225 -0.005954237 -0.005945622 -0.005943595 -0.00594782 -0.005955945 -0.005967774 -0.00598105 -0.005996054
 -0.006012997 -0.006031071 -0.006049098 -0.006065189 -0.006075698 -0.006080399 -0.006076968 -0.006068097 -0.006054739 -0.006039849
 -0.006025371 -0.006011948 -0.006000233 -0.005990053 -0.005981331 -0.005974805 -0.005970669 -0.005968603 -0.005968719 -0.005968243
 -0.005967045 -0.005963013 -0.005956393 -0.00594893 -0.005941206 -0.005937524 -0.005937515 -0.005942611 -0.005951323 -0.005961084
 -0.005970829 -0.005977668 -0.005981633 -0.005981706 -0.005978147 -0.005970835 -0.005960025 -0.005945351 -0.005928833 -0.005910566
 -0.00589444 -0.005881388 -0.005873823 -0.005872553 -0.005875985 -0.005884194 -0.005893249 -0.005902949 -0.005910036 -0.005914512
 -0.005915264 -0.005912536 -0.005906962 -0.005898884 -0.005889776 -0.00587978 -0.005869904 -0.005860188 -0.005851066 -0.005842692
 -0.005835314 -0.005829247 -0.005824908 -0.005822105 -0.005821086 -0.005820702 -0.005820718 -0.005819805 -0.005817558 -0.005813475
 -0.005807299 -0.005799878 -0.005791223 -0.005782729 -0.005774471 -0.005767737 -0.005762532 -0.005759327 -0.005758009 -0.005758231
 -0.005759833 -0.005762082 -0.005764926 -0.005767916 -0.005770999 -0.005773861 -0.005776579 -0.005779065 -0.00578157 -0.005784227
 -0.005787318 -0.005791094 -0.005795469 -0.005800827 -0.005805376 -0.005808958 -0.005809026 -0.005804968 -0.005796679 -0.005783847
 -0.005770574 -0.005757072 -0.005747752 -0.005742469 -0.00574069 -0.005741719 -0.005740982 -0.00573856 -0.00573181 -0.005722342
 -0.005712533 -0.005703868 -0.005700376 -0.005701143 -0.005707406 -0.005715807 -0.00572428 -0.00572995 -0.005730303 -0.005725537
 -0.005714697 -0.005700644 -0.005683714 -0.005667119 -0.005651467 -0.005638339 -0.005627999 -0.005620576 -0.005616089 -0.005613566
 -0.005612906 -0.005612511 -0.005612374 -0.00561151 -0.00561025 -0.005609176 -0.005608762 -0.005610641 -0.005614541 -0.0056212
 -0.005628954 -0.005636377 -0.005641593 -0.005642281 -0.005638643 -0.005629575 -0.005617899 -0.005604256 -0.005591474 -0.005580647
 -0.005571925 -0.005565688 -0.005560063 -0.005554846 -0.005549458 -0.005543844 -0.005539339 -0.005536015 -0.005535325 -0.005537085
 -0.005540917 -0.005546495 -0.005552397 -0.005558514 -0.005563806 -0.005568501 -0.005572534 -0.005576101 -0.005579535 -0.005582558
 -0.005585352 -0.005586669 -0.005586027 -0.005581947 -0.005573424 -0.005561046 -0.005544143 -0.005526939 -0.005509856 -0.00549747
 -0.005490535 -0.005488857 -0.005492513 -0.005496309 -0.005500034 -0.005499453 -0.005495003 -0.005487323 -0.005477184 -0.005467962
 -0.005459826 -0.00545504 -0.005453042 -0.005454022 -0.005457043 -0.005461172 -0.005465405 -0.005468589 -0.005470204 -0.00546945
 -0.005466898 -0.005462649 -0.005456967 -0.005450103 -0.005441258 -0.005430282 -0.005416897 -0.005400913 -0.005384137 -0.005366664
 -0.005350291 -0.005335017 -0.005320745 -0.005307536 -0.005295466 -0.005285182 -0.005279298 -0.005278285 -0.005285233 -0.005298841
 -0.005318826 -0.005342295 -0.005365656 -0.005386711 -0.005401968 -0.005411836 -0.005415166 -0.005414371 -0.005410089 -0.005404373
 -0.00539794 -0.005391739 -0.005386071 -0.005381168 -0.005377075 -0.005374052 -0.005372126 -0.00537082 -0.005370113 -0.005369555
 -0.005369247 -0.005369787 -0.00537113 -0.005373665 -0.005376764 -0.005378951 -0.00537978 -0.005377281 -0.005372649 -0.005366251
 -0.005360189 -0.005356792 -0.005356142 -0.005359638 -0.005364323 -0.00536939 -0.005372277 -0.005371674 -0.005368531 -0.005362588
 -0.00535658 -0.005350856 -0.005346452 -0.00534347 -0.005341668 -0.005341165 -0.005344299 -0.005351395 -0.005366438 -0.005388738
 -0.005418132 -0.005452555 -0.005486564 -0.005518273 -0.005541399 -0.005555946 -0.005558961 -0.00555233 -0.005536411 -0.005513822
 -0.005486138 -0.005455451 -0.005423045 -0.005389775 -0.005355978 -0.005322684 -0.0052898 -0.005260259 -0.00523421 -0.005215905
 -0.00520571 -0.005204301 -0.005211437 -0.005221465 -0.005233844 -0.005241312 -0.005244654 -0.005243112 -0.005238291 -0.005234402
 -0.005231999 -0.005234679 -0.005240758 -0.005250148 -0.005259356 -0.00526511 -0.005265318 -0.005256731 -0.005242206 -0.005221203
 -0.005200496 -0.005182008 -0.005170026 -0.005166292 -0.005168858 -0.00517807 -0.005187958 -0.005198165 -0.005203131 -0.005202688
 -0.0051946 -0.005179207 -0.005157945 -0.005131598 -0.005104318 -0.005076655 -0.005052358 -0.005031357 -0.005015388 -0.005003836
 -0.004996667 -0.004993095 -0.004992551 -0.004993965 -0.004996645 -0.004999393 -0.005001565 -0.005002297 -0.005001127 -0.004998029
 -0.004992901 -0.004985983 -0.004977258 -0.004967265 -0.004956025 -0.004944372 -0.004932357 -0.004920923 -0.004910062 -0.004900169
 -0.004891113 -0.004882482 -0.004874237 -0.004866016 -0.004857943 -0.00485005 -0.004842574 -0.004835843 -0.004830054 -0.004825396
 -0.004822347 -0.00482118 -0.00482255 -0.004827066 -0.00483407 -0.004843839 -0.004853999 -0.004864209 -0.004872228 -0.004877673
 -0.004879821 -0.004878594 -0.004873555 -0.004864678 -0.004851309 -0.00483357 -0.004812038 -0.004787274 -0.004762173 -0.004737261
 -0.004715705 -0.004697413 -0.004683839 -0.004674332 -0.004668637 -0.004666054 -0.004665988 -0.004667441 -0.004669658 -0.004671764
 -0.00467316 -0.004673467 -0.004672408 -0.004670074 -0.00466646 -0.004661539 -0.004655299 -0.004647756 -0.004638889 -0.004629207
 -0.004618752 -0.004608516 -0.004598555 -0.004589809 -0.004582231 -0.004576157 -0.004571371 -0.0045675 -0.004564121 -0.004560018
 -0.004555378 -0.004549586 -0.004544002 -0.00453959 -0.00453788 -0.00454073 -0.004547137 -0.004557943 -0.004568643 -0.004578215
 -0.004582281 -0.004579278 -0.004569494 -0.004552286 -0.004532984 -0.004511892 -0.004494511 -0.004481058 -0.004473274 -0.004470885
 -0.004472017 -0.004476261 -0.004480551 -0.004484887 -0.004487516 -0.004488989 -0.004489598 -0.004489867 -0.004491001 -0.004492378
 -0.004494106 -0.004494634 -0.004492732 -0.004487994 -0.004479405 -0.004469034 -0.004457157 -0.004446296 -0.004437231 -0.004430396
 -0.004426142 -0.004422732 -0.004420068 -0.00441643 -0.004411752 -0.004405884 -0.004398973 -0.004392501 -0.004386574 -0.004382741
 -0.004380525 -0.004379496 -0.004378551 -0.004375096 -0.004368436 -0.004355964 -0.004338785 -0.004316513 -0.004292038 -0.004266862
 -0.004244524 -0.004227216 -0.004216684 -0.004214505 -0.004218824 -0.004230077 -0.004243035 -0.004257106 -0.004267711 -0.004274271
 -0.004276306 -0.004273813 -0.004269768 -0.004264283 -0.004259702 -0.004255703 -0.004251798 -0.004247615 -0.004241425 -0.004233669
 -0.00422426 -0.004214255 -0.004205312 -0.004197916 -0.004193668 -0.004191188 -0.004190229 -0.004188707 -0.004185263 -0.004179582
 -0.004170872 -0.004161146 -0.0041507 -0.004141258 -0.004133265 -0.004126388 -0.004120663 -0.004115145 -0.004109797 -0.004105262
 -0.004101572 -0.004099465 -0.004098657 -0.004097977 -0.004097077 -0.004093898 -0.004088927 -0.004082021 -0.004074296 -0.004067613
 -0.004062212 -0.004059345 -0.004058025 -0.004057949 -0.004058158 -0.00405796 -0.004057263 -0.004055897 -0.00405391 -0.004051411
 -0.004047699 -0.004042706 -0.004035715 -0.004026598 -0.004015788 -0.004003311 -0.003991055 -0.003979134 -0.00396951 -0.003962101
 -0.003957618 -0.003955607 -0.003954953 -0.003955157 -0.003954494 -0.003952793 -0.003948901 -0.003943182 -0.00393534 -0.003926567
 -0.003917411 -0.003909654 -0.003904473 -0.003902569 -0.003904933 -0.003909526 -0.003916285 -0.003922081 -0.003926249 -0.003928075
 -0.003927285 -0.003925945 -0.003924156 -0.003922706 -0.003921425 -0.003918157 -0.003912834 -0.003903609 -0.003891302 -0.003877558
 -0.00386376 -0.003854274 -0.003849156 -0.003851134 -0.003857821 -0.003867961 -0.003878339 -0.003885798 -0.003889195 -0.003886579
 -0.003879705 -0.003868673 -0.003855546 -0.00384093 -0.003825636 -0.003809853 -0.003794122 -0.003778438 -0.003764312 -0.003751829
 -0.00374205 -0.003734917 -0.003729797 -0.003726615 -0.003724485 -0.003723627 -0.003724473 -0.003727034 -0.003731919 -0.003738117
 -0.003744508 -0.003749473 -0.0037505 -0.003747222 -0.003737882 -0.003724785 -0.003708455 -0.003691747 -0.003676204 -0.003661947
 -0.003649593 -0.003637016 -0.003623755 -0.0036097 -0.003594551 -0.003581857 -0.003571809 -0.003567173 -0.003567815 -0.003572165
 -0.003579805 -0.00358718 -0.003594371 -0.003599766 -0.003603767 -0.003606793 -0.003608554 -0.003608971 -0.003607099 -0.003601626
 -0.003592399 -0.003578379 -0.003561289 -0.003541389 -0.003521604 -0.003503047 -0.003487904 -0.003477141 -0.003470873 -0.003469507
 -0.003470971 -0.003475175 -0.003479493 -0.003483762 -0.003485836 -0.00348565 -0.003481894 -0.003474753 -0.003464613 -0.003452018
 -0.003439131 -0.003426604 -0.003417357 -0.003411242 -0.003409666 -0.003411332 -0.003415417 -0.003420277 -0.003424145 -0.003426425
 -0.003426036 -0.003423847 -0.003419857 -0.003415286 -0.003410616 -0.003405756 -0.003400839 -0.00339502 -0.003388137 -0.003380656
 -0.003372579 -0.003365336 -0.003358928 -0.003353547 -0.003348904 -0.003343048 -0.003335858 -0.003325658 -0.003312882 -0.003297756
 -0.003280813 -0.003262948 -0.003244907 -0.003227701 -0.003212597 -0.003201081 -0.003193679 -0.003191651 -0.003193072 -0.00319785
 -0.003202745 -0.003206769 -0.003208303 -0.003206691 -0.003202735 -0.003196375 -0.003189297 -0.003181597 -0.003174943 -0.0031694
 -0.003166301 -0.003165424 -0.003166 -0.00316744 -0.003166837 -0.00316401 -0.003156702 -0.003145767 -0.003131591 -0.003115311
 -0.003098631 -0.003081936 -0.003066204 -0.003051273 -0.003037175 -0.003024214 -0.003012564 -0.003002268 -0.00299362 -0.002985244
 -0.002976987 -0.002967396 -0.002956125 -0.002944065 -0.002931195 -0.002920732 -0.002912771 -0.002909079 -0.002909263 -0.002911232
 -0.002914495 -0.002915663 -0.002915058 -0.002911605 -0.00290634 -0.002900841 -0.002895453 -0.00289164 -0.002888303 -0.002885123
 -0.002880646 -0.002873578 -0.002864161 -0.002851779 -0.00283862 -0.002825051 -0.002813431 -0.002804491 -0.002798064 -0.002794357
 -0.002791339 -0.00278887 -0.002785949 -0.002782571 -0.002779121 -0.002775493 -0.002771195 -0.002765764 -0.002756595 -0.002744024
 -0.002727204 -0.002707714 -0.002688056 -0.002669681 -0.00265599 -0.00264634 -0.002641802 -0.002639954 -0.002639687 -0.002638856
 -0.002636173 -0.002630871 -0.002622351 -0.002610999 -0.00259663 -0.002580702 -0.002563179 -0.002547196 -0.002532962 -0.002523171
 -0.002517844 -0.002516474 -0.002518654 -0.002520745 -0.002522621 -0.002521581 -0.002518269 -0.002513136 -0.002506787 -0.002500915
 -0.002494988 -0.00248914 -0.002482341 -0.002473436 -0.002462512 -0.002449038 -0.002434166 -0.002418152 -0.002402362 -0.00238724
 -0.002373706 -0.002362058 -0.002352544 -0.00234537 -0.002339197 -0.00233399 -0.002327316 -0.002319099 -0.00230851 -0.002295743
 -0.002282077 -0.002267767 -0.002254764 -0.002242894 -0.002232809 -0.002223879 -0.002215206 -0.002206206 -0.002195522 -0.002183385
 -0.002169244 -0.00215437 -0.002139491 -0.002125328 -0.002112834 -0.002100419 -0.002087815 -0.002073584 -0.002057014 -0.002039721
 -0.002021601 -0.002006327 -0.001994217 -0.00198682 -0.001984104 -0.001983468 -0.001984592 -0.00198346 -0.001980096 -0.001972336
 -0.001960732 -0.001945678 -0.00192795 -0.001909261 -0.001890195 -0.00187238 -0.001855806 -0.001841239 -0.001827854 -0.001815557
 -0.001802852 -0.001789202 -0.001772901 -0.001753128 -0.00172973 -0.001702234 -0.001672715 -0.001641267 -0.001610708 -0.001581322
 -0.001553871 -0.001528332 -0.001502571 -0.001476351 -0.001446547 -0.00141317 -0.001374655 -0.001331161 -0.001282528 -0.001228486
 -0.00116859 -0.001102069 -0.001027505 -0.0009447382 -0.0008525513 -0.0007527579 -0.000645589 -0.000534757 -0.0004219725 -0.0003100386
 -0.0002005491 -9.324956E-05 1.16398E-05 0.0001148508 0.0002167709 0.0003150583 0.0004097235 0.0004954374 0.0005719311 0.0006346729
 0.0006836036 0.0007163564 0.000733137 0.0007333376 0.000717873 0.0006888124 0.000647967 0.0005999248 0.0005464882 0.0004919294
 0.0004381312 0.0003882378 0.0003442455 0.0003086517 0.0002818986 0.0002653135 0.000256763 0.0002559728 0.0002605165 0.0002696672
 0.0002828832 0.0003000243 0.0003207926 0.0003452737 0.0003708996 0.000397527 0.0004217546 0.0004437661 0.0004640104 0.0004833108
 0.0005064571 0.0005335042 0.0005675562 0.0006072472 0.0006510319 0.0006979683 0.0007454079 0.000794568 0.0008452235 0.0009001908
 0.0009614414 0.001030838 0.00111029 0.001198701 0.001296394 0.001400854 0.001511517 0.001627 0.001746979 0.001871316
 0.002000109 0.002130905 0.002263551 0.002393459 0.002520471 0.002641056 0.002755708 0.002864892 0.002969853 0.003074872
 0.003180939 0.003292785 0.003409595 0.003532558 0.003659564 0.003788797 0.003918707 0.004047635 0.004174619 0.004298786
 0.0044196 0.004536422 0.004650339 0.004761233 0.004871577 0.004981815 0.005092905 0.005205123 0.005316356 0.005426499
 0.005533224 0.005636566 0.005736304 0.005832548 0.005926071 0.006016362 0.006102487 0.006183025 0.006254375 0.006315349
 0.006361573 0.006395217 0.006415321 0.006429241 0.006442173 0.006459321 0.00648609 0.006519575 0.006560613 0.006602953
 0.006645407 0.006682902 0.006714632 0.00673656 0.006748341 0.00674561 0.006728124 0.00669454 0.00664551 0.006588661
 0.006525176 0.006466752 0.006412045 0.006363244 0.006316893 0.006265426 0.006208027 0.00613864 0.006061592 0.005978358
 0.005895926 0.005820483 0.005755359 0.005705073 0.005666303 0.005639223 0.005618887 0.005603679 0.005592882 0.005585696
 0.005586067 0.005594396 0.005612301 0.005639898 0.005673406 0.005712494 0.005751587 0.005790899 0.00582855 0.005865652
 0.005905157 0.005947972 0.005998026 0.006054856 0.006119814 0.006191184 0.00626766 0.006347488 0.006428755 0.006510819
 0.006592462 0.006674982 0.006758439 0.006844626 0.006934142 0.007027364 0.007124652 0.007224362 0.00732638 0.007429255
 0.007532893 0.007637304 0.007742546 0.007849618 0.007958395 0.008069022 0.008180554 0.008290085 0.00839578 0.008491493
 0.008576663 0.008646651 0.008704298 0.008750393 0.008789676 0.00882626 0.008863118 0.008903769 0.008946585 0.008993152
 0.009035426 0.009073266 0.009091981 0.009089939 0.009050472 0.008971043 0.008849089 0.008684115 0.008498051 0.00829218
 0.008090119 0.007890935 0.007700037 0.007515957 0.007335639 0.007159457 0.006986955 0.006818673 0.006656155 0.006497438
 0.006341468 0.006184522 0.006022557 0.005855302 0.005679973 0.005502941 0.005325927 0.005154226 0.004990459 0.004832486
 0.004680515 0.004530867 0.004382952 0.004237249 0.004093729 0.003954811 0.003820581 0.003692485 0.003570689 0.003456886
 0.003351472 0.003257254 0.003173741 0.003101875 0.003039132 0.002981954 0.002927221 0.00286955 0.002807622 0.002738031
 0.002662206 0.002579718 0.002493265 0.002404102 0.002312833 0.002220206 0.002124223 0.00202411 0.001922051 0.001817533
 0.001720895 0.001632763 0.001560988 0.001505337 0.001461611 0.001428634 0.001396038 0.001363602 0.001324217 0.001279988
 0.001232555 0.001184438 0.001141364 0.001103517 0.001073819 0.00105056 0.001033019 0.001020483 0.001011783 0.001008624
 0.001011172 0.001021897 0.001041612 0.001071334 0.001111444 0.001161804 0.001222393 0.001293468 0.001375004 0.001469241
 0.001576228 0.001697494 0.001832025 0.001974031 0.002120903 0.002258836 0.00238608 0.002490199 0.0025727 0.002629804
 0.002665691 0.002683941 0.002688434 0.002683904 0.002672222 0.002655193 0.002635802 0.002614818 0.00259783 0.002586909
 0.002583826 0.002590137 0.002599797 0.002612306 0.002622697 0.00263047 0.002637609 0.002644298 0.002654724 0.002668634
 0.002686109 0.002706451 0.002726432 0.002746297 0.002764802 0.002783117 0.002802787 0.002824891 0.00285165 0.002883076
 0.002920318 0.002961882 0.003007401 0.003054852 0.003102924 0.003151887 0.003200791 0.003254152 0.003312276 0.003381305
 0.003462184 0.003557115 0.003666469 0.003786452 0.003916726 0.004049962 0.004185883 0.004318876 0.00444925 0.004575483
 0.004697721 0.004816195 0.004929447 0.00503546 0.005131242 0.005212008 0.005275743 0.005318352 0.005340891 0.005342442
 0.005325797 0.005292166 0.005242604 0.005177742 0.00509748 0.005001463 0.004892291 0.004769723 0.004641086 0.004506796
 0.004374987 0.004245944 0.004123398 0.00400706 0.003896019 0.003790231 0.003688775 0.003592457 0.003503296 0.003421595
 0.003349617 0.003285409 0.003227931 0.003173504 0.003118417 0.003059868 0.002994612 0.002922601 0.002842571 0.002756973
 0.002665838 0.002573363 0.002480159 0.00239058 0.002305298 0.00222663 0.002154886 0.002089107 0.002029203 0.001972622
 0.001919354 0.001868224 0.001819428 0.001773272 0.001729865 0.0016896 0.001652693 0.001619471 0.001590849 0.001568319
 0.001552267 0.001544127 0.001542257 0.001546571 0.001553666 0.001561942 0.001569333 0.001574623 0.001578097 0.001579528
 0.001580022 0.001579795 0.001578627 0.001576547 0.001572586 0.001566697 0.001558005 0.001546538 0.001532163 0.001515
 0.001495422 0.001473771 0.001451086 0.001428016 0.001406392 0.001386577 0.001370109 0.00135633 0.00134549 0.001335846
 0.00132623 0.001315674 0.001302923 0.00128967 0.001275667 0.001264955 0.00125837 0.001258625 0.001266649 0.001279668
 0.001297744 0.001313943 0.001327944 0.001334463 0.00133389 0.001327672 0.001316794 0.001307063 0.00129862 0.001295325
 0.001295855 0.001299373 0.001304497 0.001308507 0.001311636 0.001312966 0.00131351 0.001313876 0.001314208 0.001314701
 0.001315429 0.001316256 0.001318182 0.001321374 0.001326764 0.001334687 0.001343938 0.001354474 0.001364598 0.001374262
 0.001384137 0.001394405 0.001407359 0.001422793 0.00144101 0.001461315 0.001481524 0.001501453 0.001519436 0.00153614
 0.001551866 0.001567161 0.001582915 0.00159876 0.001614769 0.001630348 0.001645041 0.001659191 0.001672608 0.001686613
 0.001701383 0.001718376 0.001737887 0.001760307 0.001785772 0.001813079 0.001842145 0.001870308 0.001897365 0.001920155
 0.001938682 0.001951022 0.001957857 0.001960097 0.001959039 0.001957831 0.001957656 0.001961992 0.001970454 0.001984365
 0.002001681 0.002021833 0.002041512 0.002059243 0.002071683 0.00207737 0.002074445 0.002061898 0.002040835 0.002010957
 0.001976112 0.001936505 0.001896789 0.001857208 0.001820748 0.001787372 0.001757762 0.001731547 0.001707144 0.001684131
 0.00166007 0.001635223 0.001608707 0.001581627 0.001555241 0.001530581 0.001509468 0.001491728 0.001477928 0.001467266
 0.00145947 0.001453997 0.001450857 0.001448552 0.001447001 0.001443533 0.001437581 0.001428548 0.001416065 0.001404391
 0.001393746 0.001389303 0.00139099 0.001399599 0.001414438 0.001431937 0.001451779 0.001470906 0.001489658 0.001507259
 0.001524267 0.001541073 0.001558519 0.001577532 0.001599128 0.001624642 0.001653715 0.001686958 0.001722118 0.001758445
 0.001794666 0.001829924 0.00186605 0.001903102 0.001943506 0.001987608 0.002035249 0.002086432 0.002139353 0.002193956
 0.002249199 0.002304978 0.002360234 0.002414714 0.002466777 0.00251666 0.002563752 0.002609259 0.002654867 0.002701483
 0.002751276 0.002803101 0.002857328 0.00291096 0.00296246 0.003009934 0.003051869 0.003089566 0.003122662 0.003154787
 0.003186481 0.003220151 0.003256181 0.00329457 0.00333534 0.003377314 0.003420473 0.003464356 0.00350895 0.003554015
 0.003599377 0.003644224 0.003688532 0.00373164 0.0037741 0.003816433 0.00385937 0.003903909 0.00395064 0.004000302
 0.004053356 0.004109981 0.004171422 0.004238158 0.004311131 0.004391075 0.004476251 0.004567022 0.00465772 0.00474795
 0.004831643 0.004908404 0.004977341 0.00503879 0.005097766 0.005154518 0.005213625 0.00527393 0.005333793 0.005391493
 0.00544149 0.005484059 0.005516295 0.00554145 0.005561918 0.005581229 0.005603657 0.005629157 0.005659787 0.00569127
 0.005723014 0.005749187 0.005768146 0.005776344 0.005772686 0.005757195 0.005729537 0.005693016 0.005647785 0.00559866
 0.005545815 0.005492702 0.005439003 0.005384417 0.005328406 0.00526842 0.005204911 0.005137185 0.005067232 0.004998138
 0.004931494 0.004871141 0.004815647 0.004765877 0.004717731 0.004669136 0.004617139 0.00455945 0.004497501 0.004430702
 0.004363549 0.004296761 0.004233295 0.004173741 0.004117342 0.004064112 0.004011344 0.00395895 0.003905317 0.00385055
 0.003794523 0.003737468 0.003680082 0.003622802 0.003566855 0.003513142 0.003463882 0.003419463 0.003381731 0.003349213
 0.003321847 0.00329648 0.0032712 0.003244139 0.003213606 0.00318099 0.003146015 0.003111845 0.003079166 0.003048994
 0.003021771 0.002994765 0.002967849 0.002937596 0.002904041 0.002867665 0.002829154 0.002793658 0.002761593 0.002737969
 0.002721433 0.002711514 0.00270552 0.002698102 0.002688211 0.0026713 0.002650541 0.002626634 0.002604028 0.002586257
 0.00257359 0.002567982 0.002564403 0.002561855 0.002556391 0.002546561 0.002534235 0.002519243 0.002506136 0.002495278
 0.002486968 0.002480975 0.002472157 0.002460266 0.002440793 0.002414391 0.002381229 0.002342385 0.002301011 0.002257368
 0.002213462 0.002168979 0.002124085 0.002079132 0.002034214 0.001990495 0.001948618 0.001909688 0.00187441 0.001843017
 0.00181594 0.001792025 0.001771431 0.00175115 0.001730964 0.001707417 0.001680219 0.001648459 0.001612208 0.00157348
 0.001532405 0.001490948 0.001448964 0.001406555 0.001364157 0.001322755 0.001283446 0.001249201 0.00121955 0.001196086
 0.00117512 0.001154077 0.001129476 0.001097314 0.001059707 0.001015704 0.0009713763 0.0009285585 0.0008901676 0.0008577346
 0.0008278501 0.0008003087 0.0007718639 0.0007421311 0.0007135647 0.0006863349 0.0006645806 0.0006478701 0.0006347042 0.0006240765
 0.0006103541 0.0005937787 0.0005717018 0.000545861 0.000518568 0.0004906677 0.0004644562 0.0004396061 0.0004161761 0.0003951436
 0.0003768245 0.0003630958 0.000355501 0.0003525149 0.0003548584 0.0003566509 0.000356879 0.0003511055 0.000338185 0.0003203436
 0.0002974854 0.0002766572 0.0002581592 0.0002470417 0.0002430453 0.000246263 0.0002561048 0.0002699423 0.0002875083 0.0003068598
 0.0003276079 0.0003483755 0.0003681442 0.0003849309 0.0003981381 0.0004059935 0.0004099575 0.0004102941 0.0004088705 0.0004071636
 0.0004039134 0.0003993313 0.0003906454 0.0003768944 0.0003590468 0.000336776 0.0003145045 0.0002925521 0.0002738449 0.0002584625
 0.0002462186 0.0002372261 0.0002322936 0.0002319045 0.0002390747 0.000253566 0.0002768772 0.000307043 0.0003411929 0.000376762
 0.0004087033 0.0004362236 0.0004560905 0.0004704629 0.0004792071 0.0004864499 0.0004939766 0.0005048342 0.0005206504 0.0005415155
 0.0005681601 0.0005973722 0.0006290348 0.0006586627 0.0006858933 0.0007076437 0.0007238273 0.0007347458 0.0007406888 0.0007444264
 0.0007462268 0.0007487888 0.0007522327 0.0007583628 0.0007670766 0.0007792595 0.0007941302 0.0008112467 0.0008290827 0.0008458324
 0.0008609007 0.000872855 0.0008832916 0.0008924233 0.0009023098 0.0009138656 0.0009273552 0.0009432306 0.0009598879 0.0009772653
 0.0009932332 0.001007619 0.001018886 0.001026966 0.001031273 0.001031852 0.001028838 0.001022415 0.001013269 0.001002139
 0.0009914788 0.00098234 0.0009785922 0.0009795721 0.0009869535 0.00099695 0.001006453 0.001012212 0.001009741 0.001001814
 0.0009875357 0.0009740582 0.0009637996 0.0009604284 0.0009660427 0.0009769001 0.0009931994 0.00100767 0.00101974 0.001023875
 0.001019849 0.001007143 0.0009864079 0.0009638161 0.0009405653 0.0009265782 0.0009214462 0.0009302994 0.0009492945 0.0009732021
 0.000997418 0.001011694 0.001016591 0.001007203 0.0009905659 0.0009697085 0.0009517624 0.0009420353 0.000940499 0.0009494431
 0.0009619968 0.0009772056 0.0009887082 0.000995063 0.0009958593 0.0009907008 0.0009842019 0.000976588 0.0009720256 0.0009703715
 0.0009716505 0.0009751776 0.0009773243 0.0009776158 0.0009721085 0.0009618495 0.000946464 0.0009290131 0.0009135199 0.0009036323
 0.000905463 0.0009187814 0.0009468517 0.000983321 0.001026701 0.001068768 0.001105991 0.001135139 0.001154246 0.00116577
 0.001169626 0.001169502 0.001165643 0.001161733 0.001157987 0.001158945 0.001164619 0.001177129 0.001195449 0.001215177
 0.001235032 0.001247607 0.001254078 0.00125249 0.001246858 0.001242748 0.001242725 0.001253267 0.001270456 0.001294713
 0.001317926 0.001335272 0.001344323 0.001341236 0.001334679 0.001325482 0.001323772 0.001332233 0.001348697 0.001373769
 0.001395653 0.001413754 0.001421725 0.001420208 0.001415451 0.001408507 0.001409214 0.001416582 0.001433009 0.001455577
 0.001478371 0.001500192 0.001515072 0.001526979 0.001537117 0.001551889 0.001577926 0.001614731 0.001666223 0.001721325
 0.001777649 0.001823558 0.001854646 0.00187057 0.001869511 0.001861955 0.001848425 0.001841301 0.001841287 0.001854505
 0.001880444 0.001914412 0.001954626 0.001987871 0.002013535 0.002021246 0.002014152 0.001993839 0.001965075 0.001936709
 0.001910785 0.001893687 0.0018838 0.001882333 0.001885977 0.001893803 0.001901366 0.001906935 0.001907197 0.001900348
 0.001888398 0.00187078 0.001854597 0.001840573 0.001832723 0.001831336 0.001833264 0.00183816 0.001840259 0.001839754
 0.001834587 0.001825952 0.001816666 0.001808647 0.00180778 0.001815585 0.001838545 0.001873504 0.001922431 0.00197261
 0.002017311 0.00203796 0.002021343 0.001960568 0.001842629 0.001699016 0.001527366 0.001398344 0.001326366 0.001336787
 0.001438753 0.001572269 0.001734398 0.001864882 0.001963278 0.002014018 0.002021068 0.002000954 0.001957779 0.001916106
 0.001876063 0.001851141 0.001837496 0.00183517 0.001839163 0.001843278 0.001844997 0.001838829 0.001828569 0.001813638
 0.001802135 0.001797366 0.001803459 0.001823574 0.001851494 0.001887555 0.001919583 0.001946335 0.001959189 0.001957448
 0.001943613 0.001918285 0.001891796 0.001864591 0.001845284 0.001832466 0.001826164 0.001822964 0.001814623 0.001797833
 0.001761865 0.001708526 0.001633053 0.001546266 0.001454039 0.001369803 0.001304607 0.001259957 0.001241988 0.001236071
 0.001240685 0.001237749 0.001222709 0.001192232 0.001143897 0.001096701 0.00105153 0.001033521 0.001042838 0.001083761
 0.001153199 0.001231612 0.00131691 0.001389439 0.001451564 0.001499188 0.001536002 0.001567095 0.001593936 0.001620389
 0.001646841 0.001675063 0.001704435 0.00173602 0.001765625 0.001792638 0.001810357 0.001816467 0.001808596 0.001785235
 0.001750781 0.001705262 0.00165559 0.001602185 0.001550941 0.001502243 0.001462781 0.001433198 0.00142182 0.00142827
 0.001456882 0.001503883 0.001562593 0.00162715 0.001682672 0.001728714 0.001755855 0.001774118 0.001787893 0.001809168
 0.001848831 0.001905023 0.00198232 0.002065115 0.002150131 0.00222487 0.002285506 0.002332095 0.002363862 0.002386068
 0.002398995 0.002406924 0.002410174 0.002414539 0.002420531 0.00243545 0.002458369 0.00249046 0.002528037 0.002562155
 0.002588878 0.002595805 0.002583493 0.002545601 0.00248991 0.002419006 0.002346295 0.002280497 0.002231203 0.002207262
 0.00220165 0.002217079 0.002230942 0.002239419 0.002226087 0.002186983 0.002129891 0.002054726 0.00198137 0.001910376
 0.001849595 0.001797918 0.001749492 0.00170446 0.001659911 0.001617965 0.001583641 0.001557253 0.001542561 0.001536933
 0.001539302 0.001544749 0.001549871 0.001546508 0.001529063 0.001490584 0.001424334 0.001336858 0.00122554 0.001112831
 0.001001537 0.0009151893 0.0008576032 0.0008375396 0.0008564111 0.0009018133 0.0009735728</values></Ydata></AB><ScSm><Ydata ylabel="Single channel"><values byteorder="INTEL" format="FLOAT32" numvalues="1814"> 0.07316315 0.0732556 0.07335939 0.07348117 0.07361892 0.07376257 0.0738986 0.07401815 0.07412063 0.07420853
 0.07428616 0.07436633 0.07446787 0.07459851 0.07474457 0.0748798 0.0749838 0.07505931 0.07513555 0.07524219
 0.07537052 0.07547022 0.07549623 0.07545764 0.07541379 0.07542004 0.07548968 0.07562155 0.07583508 0.07611911
 0.07635763 0.07640445 0.07626739 0.07613333 0.0761621 0.07632646 0.07648932 0.07655492 0.07650661 0.07639411
 0.07635172 0.07655522 0.07706214 0.0776829 0.0780405 0.07778798 0.07683897 0.07549183 0.07435894 0.0740481
 0.07472434 0.07592484 0.07690439 0.07723711 0.07704885 0.07669795 0.07640129 0.07622869 0.07626914 0.07661547
 0.07721061 0.07778683 0.07797082 0.07752889 0.0766321 0.07582564 0.07558531 0.07594892 0.07668146 0.07755731
 0.07815048 0.07762812 0.07548931 0.0726781 0.07128531 0.07261796 0.07583206 0.07880958 0.08008538 0.07962025
 0.0781877 0.0766937 0.07593821 0.07633839 0.07765405 0.07922655 0.08050477 0.08119152 0.08109869 0.08023289
 0.07897992 0.07794443 0.07761372 0.07821504 0.07962105 0.08121051 0.08211841 0.08191898 0.08094476 0.07985593
 0.07915433 0.07916136 0.08004469 0.08161817 0.08335773 0.08478843 0.0857327 0.08620745 0.08630636 0.08617773
 0.08595118 0.08572169 0.0856521 0.08588861 0.08627424 0.08638221 0.08599341 0.08539505 0.0850893 0.0852752
 0.08567888 0.0858837 0.08574205 0.08529404 0.08434285 0.08255392 0.08014293 0.07797827 0.07673205 0.07641034
 0.07690899 0.07829975 0.08015938 0.08136378 0.08121946 0.08039722 0.08020557 0.0811767 0.08273248 0.08402972
 0.08477981 0.08529759 0.08600721 0.08696118 0.08771883 0.08767211 0.08666711 0.08538999 0.08491065 0.08564703
 0.08695897 0.0879364 0.08835631 0.0886488 0.08913971 0.08957858 0.08935678 0.0881563 0.08649641 0.08555581
 0.08620311 0.08813694 0.09003949 0.09057307 0.08933408 0.0870735 0.08506567 0.0841902 0.08459129 0.08604507
 0.08827223 0.09079695 0.09287247 0.09386218 0.09368018 0.09277189 0.0916287 0.09033001 0.08871948 0.08711996
 0.08652283 0.08766107 0.09006843 0.09245004 0.09387755 0.09430526 0.09404504 0.09313725 0.09143371 0.08925018
 0.0876577 0.08768727 0.08915479 0.09071056 0.09127437 0.09104416 0.09087937 0.09112866 0.09144166 0.09148635
 0.09144244 0.09174174 0.09251326 0.09341665 0.09400381 0.09413326 0.09399711 0.09385166 0.0937753 0.09362673
 0.09326164 0.09285856 0.09290002 0.09366466 0.09485103 0.09587874 0.09645806 0.09670401 0.09678532 0.09664017
 0.09608392 0.09517302 0.09438221 0.09426855 0.09492896 0.09592508 0.09674864 0.09720208 0.09734821 0.09731323
 0.0972003 0.0970666 0.09694237 0.09690145 0.09704499 0.09736607 0.09771472 0.09794834 0.0980477 0.09805737
 0.0979899 0.0978341 0.09762229 0.09744883 0.09740964 0.09752679 0.09774403 0.09798552 0.09818808 0.098294
 0.09827328 0.09816369 0.09804524 0.09796676 0.09792779 0.09792522 0.09797581 0.09808345 0.0982125 0.09831295
 0.09836346 0.09837651 0.09836774 0.09833949 0.09829557 0.09825605 0.09824972 0.09829341 0.09837537 0.09846294
 0.09854035 0.09862845 0.09874286 0.09884739 0.09888569 0.09885325 0.0988052 0.0987965 0.09883898 0.09891013
 0.09897868 0.09901699 0.09900487 0.09894182 0.09886572 0.09884356 0.09892225 0.09909441 0.09932031 0.09956115
 0.09977949 0.09994131 0.1000434 0.1001172 0.1001899 0.1002587 0.1003117 0.1003574 0.1004275 0.1005539
 0.1007384 0.100943 0.1011199 0.1012468 0.1013324 0.1014073 0.1015128 0.1016651 0.1018223 0.1019191
 0.1019474 0.1019718 0.1020516 0.1021751 0.1022843 0.1023451 0.1023769 0.1024222 0.1025014 0.1026007
 0.1026971 0.102786 0.1028835 0.1030012 0.103119 0.1031899 0.1031866 0.1031377 0.1031001 0.1031001
 0.1031222 0.1031523 0.1032006 0.103275 0.103353 0.1033987 0.103402 0.1033897 0.1033933 0.103413
 0.1034182 0.1033847 0.1033207 0.1032553 0.103212 0.1031931 0.1031836 0.1031641 0.1031232 0.1030621
 0.1029899 0.1029136 0.102834 0.1027533 0.1026895 0.1026703 0.1026962 0.1027148 0.1026543 0.1024922
 0.1022801 0.1020947 0.101972 0.10189 0.1018015 0.1016768 0.1015209 0.1013598 0.1012148 0.1010892
 0.1009736 0.1008608 0.1007565 0.1006804 0.1006466 0.1006385 0.1006109 0.1005299 0.1004079 0.1002873
 0.1001979 0.1001399 0.1001002 0.1000692 0.1000452 0.1000342 0.1000422 0.1000594 0.1000651 0.1000527
 0.1000414 0.1000572 0.1001134 0.1002085 0.1003251 0.1004291 0.1004913 0.1005195 0.100554 0.1006266
 0.1007343 0.1008568 0.100984 0.1011195 0.1012664 0.101424 0.1015935 0.1017815 0.1019933 0.1022256
 0.1024659 0.1026998 0.1029222 0.1031428 0.1033791 0.1036428 0.1039305 0.1042272 0.1045191 0.1048027
 0.1050843 0.1053697 0.105659 0.1059521 0.1062551 0.1065734 0.1069026 0.107233 0.1075615 0.1078921
 0.1082263 0.1085603 0.1088924 0.1092287 0.1095818 0.1099604 0.1103548 0.1107333 0.1110659 0.1113554
 0.1116361 0.111942 0.112281 0.1126354 0.1129777 0.113288 0.1135698 0.1138496 0.1141503 0.1144677
 0.114783 0.1150962 0.1154312 0.115803 0.1161871 0.1165339 0.1168131 0.1170425 0.117269 0.1175205
 0.117783 0.1180263 0.1182442 0.1184573 0.1186835 0.1189216 0.1191675 0.119428 0.1197071 0.1199881
 0.120246 0.1204732 0.1206823 0.1208844 0.1210736 0.1212334 0.1213548 0.1214501 0.1215502 0.1216804
 0.1218376 0.1219983 0.1221493 0.1223002 0.1224651 0.1226485 0.1228522 0.1230827 0.1233389 0.1236027
 0.1238582 0.1241175 0.1244082 0.1247293 0.1250368 0.1252889 0.1254924 0.1256876 0.1258982 0.1261191
 0.1263467 0.1265953 0.1268771 0.1271821 0.1274835 0.1277606 0.1280178 0.1282819 0.1285724 0.1288737
 0.1291452 0.1293644 0.1295493 0.1297394 0.1299631 0.1302244 0.130509 0.1307982 0.1310773 0.1313323
 0.1315416 0.1316851 0.1317654 0.1318108 0.131844 0.131851 0.1317892 0.1316222 0.1313396 0.1309431
 0.1304273 0.1297856 0.1290374 0.1282474 0.1275145 0.1269386 0.1265901 0.126502 0.1266772 0.1270869
 0.1276647 0.1283119 0.1289207 0.1293944 0.1296539 0.1296446 0.1293526 0.1288117 0.1280867 0.1272481
 0.1263565 0.1254582 0.124588 0.1237868 0.1231314 0.1227428 0.1227548 0.1232635 0.1242919 0.1257726
 0.1275471 0.1294007 0.1311391 0.1326589 0.1339552 0.1350729 0.1360605 0.1369571 0.137795 0.1385942
 0.139357 0.1400767 0.140751 0.1413825 0.1419681 0.1424947 0.1429446 0.1433012 0.143556 0.1437156
 0.1438004 0.143833 0.1438316 0.1438126 0.1437864 0.1437375 0.143616 0.1433627 0.142948 0.1423936
 0.1417759 0.1412258 0.1409239 0.141063 0.14177 0.1430257 0.1446541 0.1464038 0.1480568 0.1494848
 0.1506429 0.1515465 0.1522516 0.1528272 0.1533272 0.1537814 0.1542053 0.1546088 0.1549976 0.1553753
 0.1557449 0.1561091 0.1564713 0.1568343 0.1571963 0.1575503 0.1578928 0.1582301 0.1585747 0.1589329
 0.1592999 0.1596647 0.1600224 0.1603796 0.1607431 0.1611058 0.1614514 0.1617744 0.1620882 0.1624113
 0.1627527 0.1631087 0.1634673 0.1638122 0.1641324 0.1644322 0.164726 0.1650239 0.1653236 0.1656181
 0.1659057 0.1661896 0.1664734 0.1667591 0.1670471 0.1673353 0.1676181 0.1678893 0.1681477 0.1683991
 0.1686516 0.1689087 0.1691685 0.169427 0.1696843 0.169946 0.1702185 0.1705003 0.1707806 0.1710482
 0.1713025 0.1715516 0.1718027 0.1720574 0.1723142 0.1725723 0.1728318 0.1730922 0.1733513 0.1736081
 0.1738645 0.1741243 0.174388 0.174651 0.1749077 0.1751567 0.175402 0.1756483 0.1758986 0.1761529
 0.17641 0.1766679 0.1769229 0.1771711 0.1774121 0.1776491 0.1778855 0.178123 0.1783614 0.1786008
 0.1788428 0.1790895 0.1793399 0.1795895 0.1798355 0.1800805 0.1803294 0.1805825 0.1808352 0.181082
 0.1813221 0.1815605 0.1818037 0.1820527 0.1823032 0.1825527 0.1828016 0.1830491 0.1832929 0.1835324
 0.1837687 0.1840013 0.1842305 0.1844603 0.1846962 0.1849388 0.1851833 0.1854245 0.1856622 0.1859003
 0.1861407 0.1863806 0.1866176 0.1868529 0.1870884 0.1873234 0.1875574 0.1877917 0.188028 0.188267
 0.1885081 0.1887489 0.1889876 0.1892257 0.1894655 0.1897057 0.189944 0.1901813 0.1904203 0.1906618
 0.1909052 0.1911488 0.1913909 0.1916317 0.191874 0.1921193 0.1923673 0.1926176 0.1928695 0.1931206
 0.1933698 0.1936189 0.19387 0.1941243 0.1943826 0.1946425 0.1948988 0.1951508 0.1954043 0.1956636
 0.1959262 0.1961865 0.1964403 0.1966866 0.1969284 0.1971693 0.1974074 0.1976387 0.1978638 0.1980857
 0.1983062 0.1985271 0.1987516 0.1989806 0.199213 0.1994497 0.1996912 0.1999359 0.2001844 0.2004388
 0.2006966 0.2009534 0.2012095 0.2014671 0.2017237 0.2019774 0.2022316 0.2024894 0.2027517 0.2030181
 0.203286 0.203551 0.2038139 0.2040788 0.2043457 0.2046122 0.2048795 0.2051488 0.2054179 0.2056871
 0.2059588 0.2062299 0.206496 0.20676 0.2070258 0.2072929 0.2075633 0.2078407 0.2081212 0.2083976
 0.20867 0.2089399 0.2092054 0.20947 0.2097413 0.2100182 0.210294 0.2105691 0.2108478 0.2111308
 0.2114178 0.2117067 0.2119891 0.2122614 0.2125317 0.212804 0.2130722 0.213335 0.2135964 0.2138488
 0.2140705 0.2142121 0.2141394 0.2135687 0.2120314 0.2088851 0.2034344 0.1952033 0.1842201 0.171109
 0.1569208 0.142803 0.129683 0.1181415 0.1084877 0.1008816 0.09541491 0.09218747 0.09137287 0.09330838
 0.09860857 0.1077973 0.1199714 0.1316521 0.1380926 0.1368754 0.1301033 0.1224909 0.1175281 0.1157741
 0.116051 0.117195 0.1187416 0.1207958 0.1236349 0.1272976 0.1315406 0.1362415 0.1416312 0.147942
 0.1549531 0.1620697 0.1688202 0.1751617 0.1813074 0.187356 0.1931449 0.1984094 0.2029899 0.2068858
 0.2101981 0.2130647 0.2156078 0.2179087 0.2200228 0.221983 0.223759 0.2252377 0.2262908 0.2268795
 0.2271027 0.2271483 0.2271878 0.2273046 0.2275087 0.227791 0.2281441 0.2285571 0.2290197 0.2295252
 0.2300593 0.2306019 0.2311416 0.2316736 0.2321917 0.2326919 0.2331758 0.2336405 0.2340792 0.2344914
 0.2348817 0.2352525 0.2356088 0.2359603 0.2363123 0.2366642 0.2370162 0.2373649 0.2376989 0.2380097
 0.2383009 0.2385809 0.2388541 0.2391209 0.2393795 0.2396282 0.2398719 0.2401192 0.2403718 0.2406248
 0.2408756 0.2411245 0.2413709 0.241614 0.2418543 0.242091 0.2423244 0.2425588 0.242797 0.243035
 0.2432701 0.2435048 0.2437418 0.2439799 0.2442173 0.2444533 0.2446894 0.2449318 0.2451868 0.2454516
 0.2457187 0.2459879 0.2462634 0.2465434 0.2468213 0.2470941 0.2473631 0.2476314 0.2479015 0.2481722
 0.2484366 0.2486866 0.2489201 0.2491414 0.2493604 0.249588 0.2498268 0.250069 0.2503067 0.2505419
 0.2507816 0.2510288 0.2512799 0.251528 0.2517716 0.2520204 0.2522875 0.2525741 0.2528696 0.253165
 0.2534583 0.2537482 0.2540335 0.2543179 0.2546044 0.2548875 0.2551603 0.2554265 0.2557044 0.2560132
 0.2563537 0.256704 0.2570381 0.2573497 0.2576516 0.2579597 0.258283 0.2586156 0.2589285 0.2591895
 0.2594079 0.2596434 0.2599533 0.2603381 0.2607492 0.2611388 0.2614916 0.2618173 0.2621284 0.2624265
 0.2627039 0.2629539 0.2631868 0.2634379 0.2637481 0.2641216 0.2645156 0.2648825 0.2652088 0.2655053
 0.2657856 0.2660616 0.2663272 0.2665418 0.2666727 0.2667719 0.2669662 0.2673365 0.2678288 0.2683115
 0.2687064 0.2690346 0.2693466 0.2696553 0.2699484 0.2702025 0.2703522 0.2703222 0.2701681 0.2701271
 0.2704239 0.2710429 0.2717588 0.272366 0.2728133 0.2731522 0.2734452 0.273724 0.2739696 0.2741144
 0.2741145 0.2740528 0.2741275 0.2744741 0.2750132 0.2755365 0.2759246 0.2762161 0.2764927 0.2767841
 0.2770543 0.2771852 0.2770263 0.2766019 0.2762531 0.2764174 0.2772044 0.2782702 0.2791619 0.2797202
 0.2800768 0.2803386 0.2804259 0.2802173 0.2796994 0.2789671 0.2782685 0.2780483 0.2786569 0.2799005
 0.2811216 0.2818598 0.2822477 0.2826746 0.2832785 0.2838908 0.2843096 0.2844807 0.284459 0.2842867
 0.2839739 0.2836401 0.2835945 0.2841146 0.285122 0.2862057 0.2870098 0.2875121 0.2878546 0.2879295
 0.2872807 0.2856476 0.2836675 0.2827071 0.2836494 0.2859641 0.2882783 0.2897309 0.2904425 0.2908731
 0.291228 0.2913982 0.2909496 0.2892672 0.2863882 0.2837285 0.2832218 0.2854131 0.2888476 0.2914816
 0.2922443 0.2912565 0.2893083 0.2874928 0.2868189 0.2876657 0.2896233 0.2919092 0.2938368 0.2950044
 0.2953253 0.2949899 0.2943854 0.2939884 0.2940612 0.2942547 0.2938321 0.2926286 0.2913802 0.2905935
 0.2896126 0.2876834 0.2856261 0.285322 0.2873891 0.2902936 0.2921317 0.2925779 0.2925398 0.2923213
 0.2908797 0.287201 0.2821844 0.2786103 0.2787609 0.2821391 0.285958 0.287877 0.2878482 0.2873182
 0.287192 0.2868792 0.2851802 0.2819969 0.2789937 0.278115 0.2794109 0.2809658 0.281022 0.2792084
 0.2756077 0.2703196 0.2649317 0.2628187 0.2661539 0.2731962 0.2798299 0.2831176 0.2822122 0.2771259
 0.26904 0.2615886 0.2592219 0.2630978 0.269729 0.2743618 0.2747225 0.2711034 0.2644246 0.255839
 0.2477429 0.2434732 0.2451805 0.2521022 0.2607056 0.2662161 0.2650613 0.2577394 0.2495196 0.2464688
 0.2497484 0.2548569 0.2569237 0.255286 0.2524625 0.2507208 0.250829 0.2524944 0.2546961 0.2564886
 0.2577283 0.2577259 0.2539045 0.2446561 0.2335835 0.2275836 0.2297299 0.2367973 0.2445067 0.2518284
 0.2585894 0.2623814 0.2611341 0.2572244 0.2559551 0.2598867 0.2663983 0.2710336 0.2720188 0.2709714
 0.2699453 0.2689755 0.2671238 0.2651421 0.2654843 0.2692578 0.2744892 0.2782665 0.2796569 0.2796976
 0.2794365 0.2790527 0.2784025 0.2774576 0.2762636 0.2749538 0.2737371 0.2726716 0.271621 0.2705221
 0.269316 0.2673644 0.2635029 0.257561 0.2516591 0.248749 0.24952 0.2519636 0.2542515 0.2560565
 0.2561646 0.2514988 0.2411638 0.230048 0.2254535 0.2300368 0.2396922 0.2481344 0.2518469 0.2505091
 0.2448742 0.236424 0.2288503 0.2274142 0.2348999 0.2486961 0.2631294 0.2742514 0.2813474 0.2847496
 0.2843167 0.2805395 0.2758082 0.2734799 0.2755767 0.2814543 0.2882994 0.2924423 0.2909517 0.2840465
 0.2767081 0.2756724 0.2827436 0.2923895 0.2978468 0.2982115 0.2974516 0.2981178 0.2991567 0.2993883
 0.2999568 0.3023896 0.3060809 0.3087942 0.3086683 0.3049994 0.298229 0.2904872 0.285264 0.2846609
 0.2870907 0.2891225 0.2890153 0.28675 0.281872 0.2744545 0.2678233 0.2667654 0.2720855 0.2793881
 0.2840846 0.2856647 0.2862819 0.2868768 0.2860682 0.2824674 0.2771429 0.273164 0.2725932 0.2745419
 0.276639 0.2775997 0.2774253 0.2759215 0.272716 0.2688544 0.2669368 0.2688065 0.2735822 0.2785244
 0.28156 0.2825503 0.2824854 0.2822163 0.282006 0.2816918 0.2810999 0.2806209 0.2812375 0.2834696
 0.2864474 0.2886952 0.289828 0.2908668 0.2928051 0.2954012 0.2975633 0.2985669 0.2986956 0.2988787
 0.2998502 0.3015414 0.3031426 0.3038124 0.3035043 0.3031198 0.3037003 0.3054367 0.3075908 0.3093389
 0.3104622 0.3112398 0.3119857 0.3127803 0.3134313 0.3136383 0.3133948 0.3132311 0.313821 0.3152812
 0.3170308 0.318377 0.3190823 0.3193341 0.3193542 0.3191849 0.318794 0.3182511 0.3177381 0.3174123
 0.3172987 0.3173145 0.3173614 0.3173805 0.317359 0.3173273 0.3173411 0.3174354 0.3176004 0.3178087
 0.3180382 0.3182553 0.3184178 0.3185171 0.3185905 0.3186614 0.3186895 0.3185987 0.3183309 0.3178527
 0.3171304 0.3161267 0.3148113 0.3131528 0.3111218 0.3087826 0.3064538 0.304745 0.3043054 0.30541
 0.3077418 0.3105735 0.3131823 0.3151603 0.3164506 0.3171942 0.3175688 0.3177124 0.3177141 0.3176208
 0.3174507 0.3172144 0.3169273 0.316608 0.3162768 0.3159569 0.3156712 0.3154262 0.315203 0.3149641
 0.3146718 0.3143016 0.3138469 0.3133135 0.3127138 0.3120523 0.3113111 0.3104584 0.3094869 0.3084403
 0.3073938 0.3064054 0.3054835 0.3045921 0.3036836 0.30272 0.3016541 0.3004171 0.298981 0.2974566
 0.2960706 0.2949843 0.2941481 0.2933624 0.2924584 0.2913891 0.2901849 0.2888856 0.2875246 0.2861317
 0.2847231 0.2832911 0.2818065 0.2802339 0.2785527 0.2767673 0.2748979 0.2729653 0.2709883 0.2689842
 0.266943 0.2647945 0.2624053 0.259617 0.2562911 0.2523363 0.2477256 0.2425204 0.2368808 0.2310353
 0.2252164 0.2196139 0.2143758 0.209633 0.2055085 0.2021038 0.1994846 0.1976833 0.1967153 0.1965911
 0.1973096 0.198839 0.2011035 0.2039829 0.2073225 0.210942 0.2146458 0.218244 0.2215955 0.2246554
 0.2274725 0.2301182 0.2326122 0.2349171 0.2369891 0.2388137 0.2403967 0.2417441 0.242862 0.2437726
 0.2445197 0.2451546 0.2457136 0.2462044 0.2466138 0.2469303 0.2471648 0.2473505 0.2475274 0.2477249
 0.2479561 0.248222 0.2485226 0.248864 0.2492589 0.2497209 0.2502615 0.2508848 0.2515799 0.2523215
 0.2530906 0.2538966 0.254779 0.2557858 0.256951 0.2582862 0.2597829 0.2614116 0.2631104 0.2647821
 0.2663147 0.2676153 0.2686304 0.2693477 0.2697849 0.2699716 0.2699366 0.2697089 0.2693243 0.2688178
 0.2682136 0.2675292 0.2667854 0.2659982 0.2651643 0.2642663 0.2633039 0.2623102 0.2613291 0.2603794
 0.259454 0.2585477 0.2576694 0.2568234 0.2560008 0.2551935 0.2544047 0.2536416 0.2529107 0.2522177
 0.2515616 0.2509221 0.2502558 0.2495069 0.2486291 0.2476028 0.246428 0.2451049 0.2436299 0.2420085
 0.2402575 0.238395 0.2364361 0.2343955 0.2322854 0.2301105 0.227861 0.2255212 0.2231005 0.220663
 0.2183058 0.2161011 0.2140679 0.2121891 0.2104349 0.2087762 0.2071933 0.2056778 0.2042242 0.2028299
 0.2014989 0.2002343 0.1990333 0.1978975 0.1968376 0.1958651 0.1949911 0.1942301 0.193589 0.1930563
 0.1926088 0.192227 0.1919105 0.1916901 0.1916084 0.1916648 0.1917892 0.1918854 0.191894 0.1918187
 0.1917102 0.191626 0.1915919 0.191599 0.1916221 0.1916144 0.191493 0.1911601 0.1905321 0.1895403
 0.1881381 0.1863365 0.1842247 0.1819515 0.1796943 0.1776194 0.1758381 0.1743946 0.1732855 0.1724647
 0.1718478 0.1713589 0.1709866 0.1707865 0.1708315 0.1711327 0.1715708 0.1719409 0.1721318 0.1722502
 0.1725271 0.1731206 0.1740184 0.1750775 0.1761223 0.1770312 0.1777596 0.1783062 0.1786908 0.1789529
 0.1791241 0.1792001 0.1791624 0.1790058 0.1787311 0.1783476 0.1778829 0.1773529 0.1767362 0.1760129
 0.175193 0.1742862 0.1732863 0.1721856 0.1709608 0.1695793 0.1680936 0.1667149 0.1657379 0.1653867
 0.165703 0.1665264 0.167603 0.1687504 0.1698845 0.1709073 0.1717145 0.1723771 0.1732119 0.1745709
 0.176545 0.1788672 0.1810959 0.1828961 0.1841418 0.184815 0.1849314 0.1845495 0.1837184 0.1824239
 0.1806823 0.1786191 0.176383 0.1740875 0.1718716 0.1698735 0.1681522 0.1667253 0.1655968 0.1647568
 0.1642613 0.1638406 0.1619372 0.1562467 0.1469905 0.1390362 0.1382212 0.1450578 0.1540197 0.1594783
 0.1604824 0.1594002 0.1581902 0.1572683 0.1565605 0.1561453 0.1560842 0.156275 0.1564952 0.1565124
 0.1562298 0.155669 0.1547117 0.1528621 0.1492392 0.1428948 0.133515 0.1220615 0.1105627 0.1010321
 0.09447429 0.09068256 0.08868156 0.0874081 0.08631651 0.08556007 0.08563096 0.08685416 0.08920852 0.09248091
 0.09641737 0.1006892 0.1048384 0.1084208 0.1112377 0.1133541 0.1148912 0.1158973 0.1164046 0.1164845
 0.1162149 0.1156617 0.1148896 0.1139331 0.1127701 0.1113799 0.1098416 0.1083615 0.1071782 0.1064088
 0.1059867 0.105764 0.1056462 0.105609 0.1056422 0.1057302 0.105861 0.106027 0.1062372 0.1065197
 0.1068771 0.1072515 0.1075643 0.1077737 0.1078828 0.1079055 0.1078288 0.1076163 0.1072774 0.1068995
 0.1065279 0.1060274 0.10518 0.1039664 0.1026875 0.1017775 0.1015024 0.1018007 0.1023597 0.1028472
 0.1031127 0.1032044 0.1032265 0.1031924</values></Ydata></ScSm><ScRf><Ydata ylabel="Single channel"><values byteorder="INTEL" format="FLOAT32" numvalues="1820"> 0.07053211 0.07065892 0.07077368 0.07087537 0.07096697 0.07105823 0.07116219 0.07128577 0.07142428 0.07156391
 0.07169116 0.07180278 0.07190403 0.07199648 0.07207789 0.07215746 0.07225676 0.07238629 0.07253107 0.07266407
 0.07276869 0.07285085 0.07293584 0.07304583 0.07317029 0.07326421 0.07328756 0.07324874 0.07320274 0.07320248
 0.07326272 0.0733851 0.07359065 0.07386918 0.07410701 0.0741595 0.0740308 0.07390047 0.07392528 0.07408313
 0.07424441 0.07431555 0.07427626 0.07417019 0.07412562 0.07431524 0.07480063 0.07540406 0.07576086 0.07552849
 0.07461535 0.07330874 0.07220718 0.07190578 0.07256598 0.07373698 0.07469364 0.07502118 0.07484039 0.07449925
 0.07421001 0.07404104 0.07407661 0.07440586 0.07497684 0.07553455 0.07571718 0.07529442 0.07443009 0.07365425
 0.07342824 0.07378469 0.07449298 0.07533853 0.07591498 0.07541385 0.07334115 0.07060838 0.06925023 0.07054396
 0.0736725 0.07657555 0.07782672 0.07738668 0.07600554 0.07456135 0.07382974 0.07421648 0.07549103 0.0770172
 0.07826087 0.07893069 0.07883997 0.07799424 0.07677105 0.07576121 0.07543944 0.07602555 0.07739441 0.07894249
 0.07983069 0.07964613 0.07871071 0.07766357 0.07699053 0.07700317 0.07786456 0.0793948 0.08108631 0.08247891
 0.08339916 0.08386078 0.08395351 0.08382417 0.08360263 0.08338125 0.083315 0.08354494 0.08392176 0.08403386
 0.0836665 0.08309337 0.08279888 0.08297752 0.08336675 0.08356411 0.08342662 0.08299284 0.08206981 0.08032976
 0.07798149 0.07587253 0.07466052 0.07435228 0.07484505 0.07620768 0.07802673 0.07920438 0.07906313 0.07825877
 0.0780707 0.07901888 0.08053817 0.08180586 0.08254213 0.08305521 0.08375835 0.0847015 0.08545262 0.08541548
 0.08443822 0.08319194 0.08272458 0.08344734 0.08473503 0.08569559 0.08610801 0.08639286 0.08687205 0.08730298
 0.08708976 0.08591998 0.08430107 0.08338538 0.08402172 0.08591627 0.08778262 0.08831298 0.08710991 0.08490504
 0.08294557 0.08209526 0.08249603 0.0839253 0.08610643 0.08857735 0.09061535 0.09160047 0.09144211 0.09056744
 0.08945541 0.08818878 0.08661999 0.08506669 0.08449759 0.08562753 0.08799862 0.09034385 0.09175538 0.09218807
 0.09194592 0.09106845 0.08941142 0.08728369 0.08573286 0.08576971 0.0872172 0.08875497 0.08932314 0.08911326
 0.08896627 0.08922188 0.08953361 0.08957608 0.08953118 0.08982957 0.0906008 0.09150898 0.09211022 0.0922606
 0.09214512 0.09201553 0.09195224 0.09181883 0.09147272 0.09108809 0.09114072 0.09190737 0.09309278 0.09412511
 0.09471776 0.09498242 0.09508295 0.09495646 0.09442109 0.09353444 0.09276572 0.09266335 0.09332231 0.09431276
 0.09513769 0.09560332 0.09576723 0.09574846 0.09564881 0.09552956 0.09542422 0.0954044 0.09556729 0.09590569
 0.09627158 0.09652124 0.09663062 0.09664174 0.09657177 0.09641896 0.0962224 0.09607521 0.09606536 0.09620579
 0.09643538 0.09668112 0.0968895 0.09701192 0.09701794 0.09693547 0.09683529 0.09676616 0.09673437 0.0967419
 0.0968048 0.09692374 0.0970625 0.09717266 0.09723298 0.0972546 0.09725487 0.09724038 0.09721578 0.09719622
 0.09720522 0.09725935 0.09734994 0.09744658 0.09753416 0.09763426 0.09776349 0.0978851 0.09793964 0.09791911
 0.09787843 0.09787589 0.09792661 0.09800851 0.0980888 0.09813799 0.09813474 0.09807914 0.09801114 0.09799921
 0.09808944 0.09827252 0.09850752 0.09875554 0.09897938 0.09914552 0.09925254 0.09933458 0.09941971 0.09950255
 0.09956735 0.09962189 0.09969991 0.09983353 0.1000217 0.1002272 0.1004087 0.1005493 0.1006546 0.1007461
 0.1008588 0.101011 0.101167 0.1012663 0.1013011 0.1013337 0.1014213 0.1015499 0.1016607 0.1017215
 0.1017566 0.1018107 0.1019011 0.102009 0.1021097 0.1022015 0.1023039 0.1024288 0.1025531 0.1026278
 0.102626 0.1025775 0.10254 0.102541 0.1025674 0.1026064 0.1026669 0.1027533 0.1028402 0.1028901
 0.1028926 0.1028758 0.102875 0.1028944 0.1029047 0.1028795 0.1028229 0.1027628 0.1027233 0.1027075
 0.1026999 0.1026815 0.1026433 0.102588 0.1025226 0.102452 0.1023775 0.1023039 0.1022491 0.1022382
 0.1022719 0.1023002 0.1022518 0.102101 0.1018962 0.101715 0.101596 0.1015175 0.1014299 0.101302
 0.1011396 0.1009717 0.1008237 0.1007012 0.1005936 0.1004903 0.1003941 0.1003221 0.1002861 0.1002683
 0.1002258 0.1001288 0.09999202 0.09985803 0.0997567 0.09968875 0.09963979 0.09959759 0.09956048 0.09953825
 0.09953955 0.09955327 0.09955401 0.09953204 0.09950677 0.09950709 0.09955026 0.09963821 0.09975434 0.09986208
 0.09992848 0.09995809 0.09998955 0.1000541 0.1001496 0.1002581 0.1003723 0.1004963 0.1006338 0.1007836
 0.1009471 0.10113 0.1013371 0.1015652 0.1018007 0.102028 0.1022424 0.1024558 0.1026878 0.1029494
 0.1032335 0.1035211 0.1037958 0.1040576 0.1043199 0.1045941 0.1048785 0.1051675 0.1054643 0.1057764
 0.1061016 0.1064277 0.1067476 0.1070657 0.1073889 0.1077167 0.1080428 0.1083662 0.1086991 0.1090583
 0.1094417 0.1098178 0.1101501 0.1104354 0.1107076 0.1110055 0.1113416 0.1116967 0.1120361 0.1123344
 0.112598 0.112861 0.1131504 0.1134593 0.1137651 0.1140684 0.114397 0.1147676 0.1151519 0.1154943
 0.1157626 0.1159789 0.1161948 0.1164388 0.116695 0.1169341 0.1171529 0.1173726 0.1176056 0.117845
 0.1180856 0.1183396 0.1186161 0.1189001 0.1191625 0.1193914 0.1195972 0.1197924 0.1199733 0.1201252
 0.1202399 0.1203295 0.1204233 0.1205454 0.120693 0.120843 0.1209828 0.1211224 0.1212786 0.1214571
 0.1216592 0.1218894 0.1221452 0.1224077 0.1226593 0.1229095 0.1231862 0.1234912 0.123784 0.1240244
 0.124219 0.1244069 0.1246108 0.124827 0.1250553 0.1253102 0.1255989 0.1259056 0.1262062 0.1264886
 0.1267605 0.1270442 0.1273538 0.1276715 0.1279542 0.1281755 0.1283534 0.1285335 0.1287504 0.1290096
 0.1292947 0.1295842 0.1298611 0.1301122 0.1303208 0.1304709 0.1305654 0.1306297 0.1306847 0.1307176
 0.1306899 0.1305685 0.1303418 0.1300064 0.1295536 0.1289785 0.1283023 0.1275863 0.1269224 0.1264048
 0.126103 0.1260528 0.1262578 0.1266872 0.1272724 0.1279176 0.1285222 0.1289979 0.1292725 0.1292968
 0.1290588 0.1285901 0.1279486 0.1271946 0.1263779 0.1255383 0.1247104 0.12394 0.1233076 0.1229316
 0.1229382 0.1234173 0.1243922 0.1258003 0.1274873 0.1292399 0.1308669 0.132272 0.1334596 0.1344813
 0.1353859 0.1362085 0.1369775 0.1377133 0.1384218 0.1391 0.1397452 0.1403545 0.1409179 0.1414181
 0.1418386 0.1421693 0.1424094 0.1425695 0.1426691 0.1427259 0.1427505 0.1427533 0.1427429 0.1427081
 0.1426069 0.1423864 0.1420178 0.1415193 0.1409614 0.1404689 0.1402105 0.1403594 0.1410217 0.1421706
 0.1436443 0.1452209 0.1467122 0.1480074 0.1490636 0.1498877 0.1505259 0.1510447 0.1514997 0.1519205
 0.1523173 0.1526939 0.1530541 0.1534032 0.153746 0.1540854 0.1544252 0.1547702 0.1551211 0.1554724
 0.1558169 0.1561542 0.1564912 0.1568352 0.1571863 0.157537 0.1578831 0.1582314 0.1585888 0.1589476
 0.1592897 0.1596074 0.1599122 0.1602225 0.1605492 0.1608922 0.1612418 0.1615819 0.1618996 0.162194
 0.162476 0.1627574 0.1630435 0.1633324 0.1636195 0.1639021 0.1641812 0.1644601 0.1647425 0.1650294
 0.1653162 0.1655926 0.1658516 0.1660976 0.1663425 0.1665946 0.1668518 0.1671078 0.1673609 0.1676172
 0.1678844 0.1681629 0.1684431 0.1687134 0.1689683 0.1692123 0.169455 0.1697047 0.1699628 0.1702246
 0.1704856 0.1707439 0.1709989 0.1712494 0.1714962 0.1717433 0.1719929 0.1722436 0.1724933 0.1727429
 0.172995 0.1732491 0.1735017 0.1737509 0.1739995 0.1742516 0.1745046 0.1747495 0.1749811 0.1752042
 0.1754297 0.1756649 0.1759081 0.1761521 0.1763925 0.1766322 0.1768761 0.1771242 0.1773724 0.1776192
 0.177866 0.1781121 0.1783553 0.1785967 0.1788398 0.179086 0.1793325 0.1795754 0.1798137 0.1800481
 0.1802794 0.1805101 0.1807445 0.1809856 0.1812299 0.1814707 0.1817058 0.1819392 0.182175 0.1824146
 0.1826569 0.1828998 0.1831402 0.1833757 0.1836068 0.1838354 0.1840649 0.1842983 0.1845377 0.1847821
 0.1850273 0.1852682 0.185502 0.1857314 0.1859617 0.1861955 0.1864327 0.1866737 0.1869184 0.1871635
 0.1874058 0.1876456 0.1878844 0.1881235 0.1883638 0.1886064 0.1888505 0.1890953 0.1893411 0.1895875
 0.1898337 0.1900797 0.190326 0.1905712 0.1908148 0.1910585 0.1913038 0.1915514 0.191802 0.1920561
 0.192313 0.1925721 0.1928332 0.193094 0.193353 0.1936118 0.1938696 0.1941205 0.1943601 0.1945915
 0.1948201 0.1950496 0.1952818 0.1955153 0.1957461 0.1959729 0.1961986 0.1964256 0.1966552 0.1968899
 0.1971288 0.1973675 0.1976064 0.1978519 0.1981075 0.1983697 0.1986342 0.1988976 0.1991565 0.1994117
 0.1996675 0.1999249 0.2001826 0.2004411 0.2007002 0.2009575 0.2012137 0.2014723 0.2017339 0.2019986
 0.2022712 0.2025521 0.2028322 0.2031039 0.2033696 0.2036344 0.2039007 0.2041699 0.20444 0.2047064
 0.2049714 0.2052415 0.2055162 0.2057905 0.2060638 0.206337 0.2066096 0.2068854 0.2071692 0.2074569
 0.2077415 0.2080229 0.2083004 0.2085695 0.2088326 0.2090973 0.2093641 0.2096314 0.2099027 0.2101775
 0.2104475 0.2107108 0.2109709 0.2112209 0.2114401 0.2115789 0.2115044 0.2109395 0.2094246 0.2063228
 0.2009409 0.1928073 0.1819555 0.1690063 0.1549965 0.1410552 0.1280975 0.1166972 0.1071581 0.09963597
 0.09422305 0.09102284 0.09021129 0.09212302 0.09736406 0.1064505 0.1184897 0.1300454 0.1364268 0.1352392
 0.1285537 0.1210288 0.1161194 0.1143844 0.1146598 0.1157916 0.1173172 0.1193418 0.1221449 0.1257695
 0.1299736 0.1346285 0.1399561 0.1461867 0.1531083 0.1601406 0.1668214 0.1731071 0.1792026 0.185199
 0.1909326 0.1961413 0.2006692 0.204518 0.2077909 0.2106262 0.2131453 0.2154284 0.2175291 0.2194787
 0.2212453 0.2227165 0.2237661 0.2243564 0.2245847 0.224636 0.2246791 0.2247947 0.2249912 0.2252607
 0.2256002 0.2260036 0.2264625 0.2269712 0.2275167 0.2280776 0.2286366 0.2291825 0.2297063 0.2302053
 0.2306833 0.2311408 0.2315737 0.2319829 0.232373 0.2327465 0.2331081 0.2334665 0.233825 0.2341814
 0.2345349 0.2348837 0.2352189 0.2355324 0.2358239 0.2360965 0.2363557 0.2366114 0.2368717 0.2371355
 0.2373979 0.2376567 0.23791 0.2381568 0.2384005 0.238645 0.2388884 0.2391276 0.2393641 0.2396016
 0.2398423 0.2400867 0.2403316 0.2405718 0.2408077 0.2410451 0.2412868 0.2415287 0.2417666 0.2420014
 0.2422409 0.2424972 0.2427749 0.2430629 0.2433437 0.2436109 0.2438716 0.2441346 0.2444031 0.2446753
 0.2449472 0.2452173 0.2454894 0.2457654 0.2460379 0.2462945 0.2465294 0.2467498 0.2469714 0.2472065
 0.2474542 0.2477027 0.2479446 0.2481833 0.2484249 0.2486711 0.2489208 0.2491715 0.249421 0.2496741
 0.2499411 0.250225 0.2505181 0.2508125 0.2511062 0.2513993 0.2516922 0.2519876 0.2522846 0.2525738
 0.252847 0.2531109 0.2533878 0.2536993 0.2540462 0.254403 0.2547387 0.2550442 0.2553362 0.2556373
 0.2559583 0.2562898 0.2566017 0.2568662 0.2570958 0.2573448 0.2576596 0.2580356 0.2584312 0.2588108
 0.2591651 0.2595012 0.2598265 0.2601401 0.2604328 0.260695 0.2609344 0.2611875 0.2614963 0.2618642
 0.2622482 0.2626054 0.2629302 0.2632369 0.2635342 0.2638255 0.2641036 0.2643321 0.264479 0.2645887
 0.2647813 0.2651405 0.2656204 0.2660939 0.2664829 0.2668095 0.2671276 0.267452 0.2677663 0.2680392
 0.2681993 0.2681709 0.2680134 0.2679681 0.2682628 0.2688847 0.2696092 0.2702267 0.2706791 0.2710149
 0.2713003 0.271573 0.2718179 0.2719666 0.2719724 0.2719173 0.2719997 0.2723531 0.2728959 0.2734211
 0.2738148 0.2741188 0.2744131 0.2747242 0.2750122 0.275154 0.2749972 0.2745702 0.2742199 0.2743853
 0.2751741 0.2762412 0.2771331 0.2776889 0.2780415 0.2783043 0.278403 0.278215 0.2777213 0.2770131
 0.2763363 0.2761314 0.2767464 0.2779921 0.2792187 0.2799673 0.2803624 0.2807871 0.2813835 0.281992
 0.2824138 0.2825905 0.2825734 0.2824069 0.2821061 0.2817903 0.2817613 0.2822887 0.2832944 0.2843746
 0.2851778 0.2856815 0.2860286 0.286118 0.2854968 0.2838977 0.2819442 0.2809937 0.2819309 0.284236
 0.286548 0.2880104 0.2887395 0.2891852 0.2895452 0.2897127 0.2892645 0.2875953 0.2847404 0.2821034
 0.2816076 0.2837987 0.2872317 0.2898714 0.2906489 0.2896809 0.2877525 0.2859539 0.2852941 0.2861521
 0.2881174 0.2904071 0.2923368 0.29351 0.2938443 0.2935295 0.292947 0.2925681 0.2926576 0.2928717
 0.2924737 0.291291 0.2900525 0.2892687 0.2882963 0.2863894 0.2843626 0.2840837 0.2861637 0.2890738
 0.2909203 0.2913834 0.2913722 0.2911904 0.2897943 0.2861665 0.2812003 0.2776714 0.2778621 0.2812822
 0.2851559 0.287151 0.2872231 0.2868162 0.2868286 0.2866593 0.2850996 0.2820481 0.2791699 0.2784062
 0.2797979 0.2814174 0.281498 0.279667 0.276015 0.2706573 0.2651988 0.2630286 0.2663285 0.2733585
 0.2799967 0.2832988 0.2824148 0.2773546 0.2692933 0.2618607 0.2595145 0.2634255 0.2701105 0.2748057
 0.2752261 0.2716638 0.2650472 0.2565354 0.2485268 0.2443646 0.2462099 0.2533051 0.2621031 0.2677939
 0.2667693 0.2595226 0.2513641 0.2484176 0.2518632 0.2571629 0.259396 0.2578834 0.2551627 0.2535273
 0.2537612 0.255573 0.2579273 0.2598621 0.2612304 0.2613335 0.2575525 0.2482426 0.2370489 0.2309773
 0.2331708 0.240375 0.2482463 0.2557266 0.2626272 0.2664906 0.2652032 0.2611783 0.2598186 0.2637446
 0.2702961 0.2749318 0.2758407 0.2746773 0.2735506 0.2725119 0.2706054 0.2685807 0.2689204 0.2727538
 0.2780864 0.2819607 0.2834188 0.2835071 0.2832953 0.2829746 0.2824013 0.2815405 0.2804306 0.2792027
 0.2780713 0.2771 0.2761519 0.2751592 0.2740585 0.2721998 0.2683978 0.262475 0.2565819 0.2537151
 0.2545725 0.2571142 0.2594911 0.2613813 0.261544 0.2568174 0.246254 0.2348172 0.2299625 0.2344276
 0.2440517 0.2524393 0.2560143 0.2544625 0.2485617 0.2398176 0.2319659 0.2303303 0.2377267 0.2515074
 0.2659243 0.2769827 0.2839687 0.2872313 0.2866387 0.2826963 0.2778219 0.2753959 0.2774387 0.2832808
 0.2900772 0.294136 0.2925201 0.2854592 0.2779607 0.2767941 0.2837847 0.2933916 0.2988206 0.2991427
 0.2983236 0.2989283 0.2999167 0.3001137 0.3006631 0.3030927 0.3067996 0.3095495 0.3094807 0.3058857
 0.2992048 0.2915753 0.2865008 0.286079 0.288687 0.290846 0.2907957 0.2885305 0.2836125 0.2761273
 0.2694322 0.2683571 0.2737167 0.2810777 0.2858129 0.2874118 0.2880501 0.2886738 0.2878855 0.284285
 0.2789524 0.2749831 0.2744563 0.2764751 0.2786468 0.2796769 0.2795763 0.2781627 0.2750643 0.2713246
 0.2695509 0.2715964 0.2765731 0.2817131 0.2849099 0.2860033 0.2859801 0.2857008 0.285439 0.2850341
 0.2843114 0.2836729 0.2841284 0.2862199 0.2890762 0.2912065 0.2922226 0.2931604 0.2950258 0.2975679
 0.2996705 0.3005906 0.300611 0.3006735 0.3015273 0.3031145 0.304627 0.305218 0.3048358 0.304383
 0.3049062 0.3065978 0.3087184 0.3104466 0.3115666 0.3123545 0.3131141 0.3139184 0.3145736 0.3147809
 0.3145333 0.3143607 0.3149371 0.316379 0.3181049 0.3194233 0.3201017 0.320333 0.3203385 0.3201545
 0.3197442 0.3191813 0.3186595 0.3183444 0.3182545 0.3182891 0.3183366 0.3183422 0.3183085 0.3182757
 0.318296 0.3183956 0.3185624 0.3187719 0.3190028 0.3192223 0.3193904 0.3195013 0.3195895 0.3196746
 0.3197176 0.3196479 0.3194072 0.3189556 0.3182551 0.3172696 0.3159717 0.3143292 0.3123107 0.3099813
 0.3076643 0.3059759 0.305569 0.3067171 0.3090956 0.3119661 0.3145981 0.3165851 0.3178805 0.3186368
 0.3190351 0.3192078 0.319232 0.3191428 0.318952 0.3186719 0.3183284 0.3179526 0.3175726 0.3172135
 0.3168936 0.316613 0.3163512 0.3160758 0.315755 0.3153661 0.3149 0.3143607 0.313756 0.3130835
 0.3123234 0.3114542 0.3104814 0.3094501 0.3084264 0.3074604 0.3065587 0.3056874 0.3048031 0.3038723
 0.302848 0.3016546 0.30026 0.2987792 0.2974455 0.2964212 0.2956523 0.2949353 0.2940977 0.2930882
 0.2919367 0.2906891 0.289385 0.2880521 0.2866978 0.2853075 0.2838541 0.2823105 0.280662 0.2789133
 0.2770824 0.2751887 0.2732506 0.2712832 0.2692756 0.267159 0.2648021 0.2620478 0.2587578 0.2548425
 0.250276 0.2451153 0.23951 0.2336791 0.227857 0.2222455 0.2170024 0.2122563 0.208122 0.2046995
 0.2020645 0.200261 0.1993077 0.1992083 0.1999509 0.201496 0.2037654 0.2066422 0.2099767 0.2135916
 0.2172881 0.2208692 0.2241921 0.2272196 0.2300097 0.2326343 0.2351035 0.237371 0.2393937 0.2411661
 0.2427008 0.2440029 0.2450739 0.2459332 0.2466247 0.2472021 0.2477059 0.2481495 0.2485234 0.2488132
 0.2490208 0.2491734 0.2493133 0.2494766 0.2496789 0.2499161 0.2501817 0.2504835 0.2508448 0.2512892
 0.2518249 0.2524421 0.2531202 0.25384 0.2545958 0.2554008 0.2562845 0.2572857 0.2584413 0.2597718
 0.2612692 0.2628933 0.2645723 0.2662092 0.2676992 0.2689536 0.2699199 0.2705874 0.2709775 0.271124
 0.271057 0.2708034 0.2703921 0.2698507 0.2692014 0.2684661 0.2676699 0.26683 0.2659461 0.2650084
 0.2640175 0.2629947 0.2619712 0.2609683 0.2599927 0.2590474 0.2581353 0.2572543 0.2563998 0.2555715
 0.2547684 0.2539863 0.2532268 0.2525018 0.2518164 0.2511514 0.250466 0.2497096 0.2488332 0.2478048
 0.2466146 0.2452668 0.2437716 0.2421441 0.2404011 0.238555 0.2366161 0.2345949 0.2324985 0.2303277
 0.2280758 0.2257315 0.2233028 0.2208491 0.2184687 0.2162418 0.2141926 0.212304 0.210548 0.2089001
 0.2073419 0.2058574 0.2044295 0.2030494 0.2017242 0.2004659 0.1992787 0.1981651 0.1971308 0.19618
 0.1953188 0.1945624 0.1939223 0.1933915 0.19295 0.1925794 0.1922772 0.1920701 0.1919979 0.1920624
 0.1921974 0.1923074 0.1923305 0.192267 0.1921651 0.1920815 0.1920424 0.1920406 0.1920557 0.1920472
 0.1919331 0.1916061 0.1909727 0.1899669 0.1885546 0.1867543 0.1846502 0.1823807 0.180115 0.1780201
 0.1762173 0.1747653 0.1736659 0.1728619 0.1722505 0.1717505 0.1713624 0.1711565 0.1712089 0.1715215
 0.1719649 0.1723323 0.1725183 0.1726355 0.1729152 0.1735104 0.1744035 0.1754519 0.1764891 0.1774057
 0.1781606 0.1787424 0.1791557 0.1794326 0.1796073 0.1796809 0.1796407 0.179488 0.1792261 0.1788569
 0.1783975 0.1778627 0.1772427 0.1765282 0.1757245 0.1748263 0.1738204 0.1727108 0.1714894 0.1701213
 0.1686437 0.1672605 0.166276 0.1659281 0.1662607 0.1671033 0.1681934 0.1693541 0.1705153 0.171582
 0.172433 0.1731199 0.1739576 0.1753135 0.1772967 0.1796482 0.1819174 0.1837476 0.1849968 0.185652
 0.1857466 0.1853519 0.1845177 0.1832239 0.1814778 0.1793994 0.1771402 0.1748248 0.1725981 0.1705945
 0.1688656 0.1674269 0.1662877 0.1654477 0.164972 0.1645859 0.1626989 0.1569591 0.1475794 0.1394953
 0.1386419 0.145562 0.1546595 0.1602107 0.1612299 0.1601166 0.1588729 0.1579348 0.157225 0.1568101
 0.1567432 0.1569253 0.1571454 0.1571776 0.1569177 0.1563715 0.1554089 0.1535352 0.1498788 0.1434982
 0.1340761 0.122567 0.1109978 0.101393 0.09477431 0.09094721 0.0889345 0.08765812 0.08655664 0.08578061
 0.08583605 0.08706537 0.08945079 0.09276606 0.09674246 0.1010469 0.1052242 0.1088326 0.1116744 0.1138147
 0.1153704 0.1163821 0.1168787 0.1169355 0.1166378 0.1160579 0.1152678 0.1143098 0.1131639 0.1117998
 0.1102801 0.1088049 0.1076249 0.106874 0.1064872 0.1063021 0.1062112 0.1061887 0.1062285 0.106319
 0.1064536 0.1066307 0.1068591 0.107157 0.1075144 0.1078684 0.1081484 0.1083302 0.108431 0.1084605
 0.108385 0.1081523 0.1077771 0.1073641 0.1069657 0.1064413 0.1055708 0.1043392 0.1030515 0.1021402
 0.1018647 0.1021525 0.1026803 0.1031188 0.1033368 0.1034044 0.1034349 0.1034331 0.1032807 0.1028597
</values></Ydata></ScRf><Data_Parameters_AB><parameter name="DPF">1</parameter><parameter name="NPT">3497</parameter><parameter name="FXV">3996</parameter><parameter name="LXV">500</parameter><parameter name="CSF">1</parameter><parameter name="MXY">0.00909198075532913</parameter><parameter name="MNY">-0.0132340798154473</parameter><parameter name="DAT">18/01/2024</parameter><parameter name="TIM">12:11:22.229 (GMT+1)</parameter><parameter name="DXU">WN</parameter></Data_Parameters_AB><AB__Qtest><MainReport name="Quality Test Report"><Header><Line><Legend>Test result ok/not ok [1/0]: </Legend><Value>0</Value></Line><Line><Legend>Method file: </Legend><Value>C:\Users\Public\Documents\Bruker\OPUS_8.2.28\QT\IRBT_v3_default.QT</Value></Line></Header><Matrix><Line><Legend></Legend><Legend>min</Legend><Legend>max</Legend><Legend>measured</Legend></Line><Line><Value>Absorption (X-Range 1):</Value><Value>0.400000</Value><Value>2.000000</Value><Value>0.010739</Value></Line><Line><Value>Noise (X-Range 4):</Value><Value></Value><Value>0.000300</Value><Value>0.000022</Value></Line><Line><Value>Signal/Noise (X-Range 2):</Value><Value>200.000000</Value><Value></Value><Value>9.012839</Value></Line><Line><Value>Signal/Noise (X-Range 3):</Value><Value>40.000000</Value><Value></Value><Value>6.761215</Value></Line><Line><Value>Water vapour (X-Range 5):</Value><Value></Value><Value>0.000300</Value><Value>0.000008</Value></Line><Line><Value>Signal/Water (X-Range 2):</Value><Value>100.000000</Value><Value></Value><Value>23.829461</Value></Line><Line><Value>Signal/Water (X-Range 3):</Value><Value>20.000000</Value><Value></Value><Value>17.876288</Value></Line><Line><Value>Fringes (X-Range 6):</Value><Value></Value><Value>0.000100</Value><Value>0.000029</Value></Line></Matrix></MainReport></AB__Qtest><Data_Parameters_ScSm><parameter name="DPF">1</parameter><parameter name="NPT">1814</parameter><parameter name="FXV">3996.63438082617</parameter><parameter name="LXV">499.579297603271</parameter><parameter name="CSF">1</parameter><parameter name="MXY">0.319354236125946</parameter><parameter name="MNY">0.0712853148579597</parameter><parameter name="DAT">18/01/2024</parameter><parameter name="TIM">12:11:22.229 (GMT+1)</parameter><parameter name="DXU">WN</parameter></Data_Parameters_ScSm><Data_Parameters_ScRf><parameter name="DPF">1</parameter><parameter name="NPT">1820</parameter><parameter name="FXV">4004.34989121387</parameter><parameter name="LXV">495.721542409425</parameter><parameter name="CSF">1</parameter><parameter name="MXY">0.320338547229767</parameter><parameter name="MNY">0.069250226020813</parameter><parameter name="DAT">18/01/2024</parameter><parameter name="TIM">12:10:55.434 (GMT+1)</parameter><parameter name="DXU">WN</parameter></Data_Parameters_ScRf><Optic_Parameters_Rf><parameter name="APR">0</parameter><parameter name="APT">Open</parameter><parameter name="BMS">KBr</parameter><parameter name="DTC">RT-DLaTGS_IR-Biotyper [Microplate reader]</parameter><parameter name="HPF">0</parameter><parameter name="LPF">10.0</parameter><parameter name="LPV">4000</parameter><parameter name="PGR">0</parameter><parameter name="RCH">Module port</parameter><parameter name="RDX">0</parameter><parameter name="SRC">MIR</parameter><parameter name="VEL">10.0</parameter><parameter name="SON">Off</parameter></Optic_Parameters_Rf><Acquisition_Parameters_Rf><parameter name="ADT">1</parameter><parameter name="AQM">DD</parameter><parameter name="CFE">0</parameter><parameter name="COR">0</parameter><parameter name="DEL">0</parameter><parameter name="DLY">0</parameter><parameter name="HFW">8000</parameter><parameter name="LFW">0</parameter><parameter name="NSR">32</parameter><parameter name="PLF">AB</parameter><parameter name="RES">6</parameter><parameter name="RGN">-1</parameter><parameter name="STR">0</parameter><parameter name="TCL">MakeCompatibleScalar (0, {WSV=1.000000, ARV=0});</parameter><parameter name="TDL">37</parameter><parameter name="RPO">0</parameter></Acquisition_Parameters_Rf><FT_-_Parameters_Rf><parameter name="APF">B3</parameter><parameter name="HFQ">500</parameter><parameter name="LFQ">4000</parameter><parameter name="NLI">0</parameter><parameter name="PHR">24</parameter><parameter name="PHZ">ML</parameter><parameter name="SPZ">NO</parameter><parameter name="ZFF">1</parameter></FT_-_Parameters_Rf><Optic_Parameters_><parameter name="APR">0</parameter><parameter name="APT">Open</parameter><parameter name="BMS">KBr</parameter><parameter name="CHN">Module port</parameter><parameter name="DTC">RT-DLaTGS_IR-Biotyper [Microplate reader]</parameter><parameter name="HPF">0</parameter><parameter name="LPF">10.0</parameter><parameter name="LPV">4000</parameter><parameter name="PGN">0</parameter><parameter name="RDX">0</parameter><parameter name="SRC">MIR</parameter><parameter name="VEL">10.0</parameter><parameter name="SON">Off</parameter></Optic_Parameters_><FT_-_Parameters_><parameter name="APF">B3</parameter><parameter name="HFQ">500</parameter><parameter name="LFQ">4000</parameter><parameter name="NLI">0</parameter><parameter name="PHR">24</parameter><parameter name="PHZ">ML</parameter><parameter name="SPZ">NO</parameter><parameter name="ZFF">1</parameter></FT_-_Parameters_><Acquisition_Parameters_><parameter name="ADT">1</parameter><parameter name="AQM">DD</parameter><parameter name="CFE">0</parameter><parameter name="COR">0</parameter><parameter name="DEL">0</parameter><parameter name="DLY">0</parameter><parameter name="HFW">8000</parameter><parameter name="LFW">0</parameter><parameter name="NSS">32</parameter><parameter name="PLF">AB</parameter><parameter name="RES">6</parameter><parameter name="SOT">0</parameter><parameter name="TCL">MakeCompatibleScalar (0, {WSV=1.000000, ARV=0});</parameter><parameter name="TDL">37</parameter><parameter name="SPO">0</parameter><parameter name="SGN">-1</parameter></Acquisition_Parameters_><Instrument_Parameters_Rf><parameter name="HFL">15801.365274</parameter><parameter name="LFL">0</parameter><parameter name="LWN">15801.365274</parameter><parameter name="ABP">32157</parameter><parameter name="SSP">1</parameter><parameter name="ARG">2</parameter><parameter name="ASG">2</parameter><parameter name="ASS">32</parameter><parameter name="GFW">16</parameter><parameter name="GBW">16</parameter><parameter name="BFW">0</parameter><parameter name="BBW">0</parameter><parameter name="PKA">9305</parameter><parameter name="PKL">4987</parameter><parameter name="PRA">9273</parameter><parameter name="PRL">5010</parameter><parameter name="P2A">1</parameter><parameter name="P2L">1</parameter><parameter name="P2R">1</parameter><parameter name="P2K">1</parameter><parameter name="DAQ">0</parameter><parameter name="AG2">1</parameter><parameter name="SSM">1</parameter><parameter name="RSN">46670</parameter><parameter name="CRR">0</parameter><parameter name="SRT">1705579855.434</parameter><parameter name="DUR">19.6449890136719</parameter><parameter name="TSC">31</parameter><parameter name="MVD">0.256525099277496</parameter><parameter name="AN1">0.225988690757861</parameter><parameter name="AN2">0</parameter><parameter name="VSN">2.485 Apr  4 2017</parameter><parameter name="SRN">0085</parameter><parameter name="CAM">0</parameter><parameter name="INS">IR-Biotyper</parameter><parameter name="FOC">69</parameter><parameter name="RDY">1</parameter><parameter name="ARS">32</parameter></Instrument_Parameters_Rf><Sample_Parameters_><parameter name="BLD"></parameter><parameter name="CNM">Admin</parameter><parameter name="CPY"></parameter><parameter name="DPM"></parameter><parameter name="EXP">IRBT_v3_32Scans.XPM</parameter><parameter name="LCT"></parameter><parameter name="SFM">Microplate, HTS-XT</parameter><parameter name="SNM">240118-1045-Cdiff_SCFA_2_C30_232124963_D11_d3a06b40-f7bc-4d60-9f6f-6372f7402a60.0</parameter><parameter name="XPP">C:\Users\Public\Documents\Bruker\OPUS_8.2.28\XPM</parameter><parameter name="IST">OK</parameter><parameter name="CPG">1252</parameter><parameter name="UID">ab201072-9a84-49f7-82e3-c384e8ecd432</parameter></Sample_Parameters_><Instrument_Parameters_><parameter name="HFL">15801.365274</parameter><parameter name="LFL">0</parameter><parameter name="LWN">15801.365274</parameter><parameter name="ABP">32157</parameter><parameter name="SSP">1</parameter><parameter name="ASG">2</parameter><parameter name="ARG">2</parameter><parameter name="ASS">32</parameter><parameter name="GFW">16</parameter><parameter name="GBW">16</parameter><parameter name="BFW">0</parameter><parameter name="BBW">0</parameter><parameter name="PKA">9353</parameter><parameter name="PKL">4987</parameter><parameter name="PRA">9331</parameter><parameter name="PRL">5010</parameter><parameter name="P2A">1</parameter><parameter name="P2L">1</parameter><parameter name="P2R">1</parameter><parameter name="P2K">1</parameter><parameter name="DAQ">0</parameter><parameter name="AG2">1</parameter><parameter name="SSM">1</parameter><parameter name="RSN">24028</parameter><parameter name="CRR">0</parameter><parameter name="SRT">1705579882.229</parameter><parameter name="DUR">19.6449890136719</parameter><parameter name="TSC">31</parameter><parameter name="MVD">0.273089826107025</parameter><parameter name="AN1">0.225996448341961</parameter><parameter name="AN2">0</parameter><parameter name="VSN">2.485 Apr  4 2017</parameter><parameter name="SRN">0085</parameter><parameter name="CAM">0</parameter><parameter name="INS">IR-Biotyper</parameter><parameter name="FOC">69</parameter><parameter name="RDY">1</parameter></Instrument_Parameters_><History/></OPUSDataFile>
