<?xml version="1.0" encoding="UTF-8" ?>
<OPUSDataFile><AB><Ydata ylabel="Absorbance Units"><values byteorder="INTEL" format="FLOAT32" numvalues="3497"> -0.04114196 -0.04113976 -0.04113515 -0.04112821 -0.04111852 -0.04110739 -0.04109789 -0.04108976 -0.04108495 -0.04107986
 -0.04107183 -0.04105714 -0.04103096 -0.04099611 -0.04095069 -0.04090575 -0.04086431 -0.0408353 -0.04082289 -0.04082175
 -0.04083283 -0.04084025 -0.04084256 -0.04083144 -0.04080665 -0.04077706 -0.04074362 -0.04072025 -0.04070596 -0.04070325
 -0.04070941 -0.04071661 -0.04072405 -0.04072555 -0.0407231 -0.04071751 -0.04070937 -0.04070008 -0.04068829 -0.040673
 -0.04065473 -0.04063271 -0.04061052 -0.04058937 -0.04057094 -0.0405563 -0.04054326 -0.04053152 -0.04052046 -0.04050989
 -0.04050216 -0.04049737 -0.04049541 -0.04049592 -0.04049463 -0.04049176 -0.04048594 -0.04047862 -0.04047436 -0.04047335
 -0.04047913 -0.04048894 -0.04050021 -0.04051024 -0.04051442 -0.04051356 -0.04050633 -0.04049556 -0.04048225 -0.04046879
 -0.04045632 -0.04044569 -0.04043752 -0.04043102 -0.04042656 -0.04042004 -0.04041125 -0.04039511 -0.04037138 -0.04033952
 -0.04030007 -0.04025924 -0.04021771 -0.04018278 -0.04015403 -0.04013443 -0.04012205 -0.04011419 -0.0401087 -0.04010051
 -0.04008986 -0.0400741 -0.04005709 -0.04004068 -0.0400286 -0.04002414 -0.04002596 -0.04003511 -0.04004619 -0.04005812
 -0.04006706 -0.04007211 -0.04007256 -0.04006821 -0.0400596 -0.04004675 -0.04003024 -0.04001011 -0.03998691 -0.03996079
 -0.03993279 -0.03990323 -0.03987345 -0.03984432 -0.03981818 -0.03979627 -0.03978167 -0.03977491 -0.03977882 -0.0397902
 -0.03980877 -0.03982757 -0.03984337 -0.03984958 -0.03984212 -0.03982176 -0.03978651 -0.03974628 -0.0397019 -0.03966398
 -0.03963383 -0.03961524 -0.03960848 -0.03960973 -0.03961853 -0.03962823 -0.03963845 -0.03964373 -0.03964402 -0.03963586
 -0.03962002 -0.03959605 -0.03956612 -0.03953334 -0.0395 -0.03947013 -0.03944429 -0.03942434 -0.03940983 -0.03940123
 -0.03939713 -0.03939763 -0.03939927 -0.03940142 -0.03940023 -0.03939467 -0.03938468 -0.03936983 -0.03935492 -0.03934021
 -0.03933011 -0.03932454 -0.03932339 -0.03932629 -0.0393308 -0.039337 -0.03934399 -0.03935192 -0.03936109 -0.03937054
 -0.03937937 -0.03938518 -0.0393851 -0.03937653 -0.03935597 -0.03932361 -0.03927759 -0.03922243 -0.03915848 -0.03909342
 -0.03902918 -0.03897124 -0.03892111 -0.03887927 -0.03884603 -0.03881968 -0.03880013 -0.0387874 -0.03878156 -0.03878411
 -0.03879448 -0.03881019 -0.03882965 -0.0388453 -0.03885638 -0.03885618 -0.0388471 -0.03882968 -0.03880764 -0.03878638
 -0.03876609 -0.0387496 -0.03873329 -0.03871579 -0.03869468 -0.0386677 -0.03863811 -0.03860579 -0.03857642 -0.0385512
 -0.03853212 -0.03851984 -0.03851125 -0.03850623 -0.03850131 -0.03849646 -0.03849115 -0.0384854 -0.03847947 -0.03847289
 -0.03846408 -0.03845247 -0.03843534 -0.0384134 -0.03838621 -0.03835576 -0.03832434 -0.03829334 -0.03826489 -0.03823891
 -0.03821578 -0.03819579 -0.03817877 -0.03816659 -0.03815987 -0.03815916 -0.03816507 -0.03817483 -0.03818834 -0.03820194
 -0.03821538 -0.03822671 -0.0382358 -0.03824054 -0.03824066 -0.03823312 -0.03821807 -0.03819398 -0.03816221 -0.03812497
 -0.0380848 -0.03804721 -0.03801392 -0.03798989 -0.03797377 -0.03796701 -0.03796489 -0.03796552 -0.03796376 -0.0379568
 -0.03794295 -0.03792057 -0.03789266 -0.0378594 -0.03782395 -0.03778683 -0.03774825 -0.03770826 -0.03766665 -0.0376236
 -0.03758239 -0.03754346 -0.0375118 -0.03748696 -0.0374703 -0.03746016 -0.03745264 -0.03744691 -0.03743932 -0.03743054
 -0.03742018 -0.03740823 -0.03739535 -0.03737878 -0.03735689 -0.03732831 -0.03729101 -0.03724929 -0.03720357 -0.03715932
 -0.03711803 -0.03708016 -0.03704612 -0.03701353 -0.03698221 -0.03695309 -0.03692632 -0.03690558 -0.03689061 -0.03688182
 -0.03687768 -0.0368721 -0.03686357 -0.03684423 -0.03681504 -0.03677298 -0.03672256 -0.0366682 -0.03661404 -0.03656619
 -0.03652407 -0.03648948 -0.03645964 -0.03643383 -0.03640983 -0.03638694 -0.03636346 -0.03633922 -0.03631135 -0.03627936
 -0.03624308 -0.03620236 -0.03616191 -0.03612195 -0.03608635 -0.03605447 -0.03602307 -0.03599071 -0.03594912 -0.03589827
 -0.03583286 -0.03575582 -0.03566932 -0.0355783 -0.03549014 -0.03540843 -0.03533997 -0.03528318 -0.03524014 -0.03520456
 -0.03517463 -0.03514422 -0.03511114 -0.03507188 -0.03502547 -0.03496975 -0.03490412 -0.03482972 -0.03474639 -0.03466099
 -0.03457392 -0.0344935 -0.03441982 -0.03435745 -0.03430546 -0.03426258 -0.03422694 -0.03419278 -0.03415827 -0.03411679
 -0.03406842 -0.03400999 -0.03394378 -0.03387047 -0.03379319 -0.03371426 -0.0336353 -0.03355768 -0.03348167 -0.03340751
 -0.03333556 -0.03326587 -0.033199 -0.03313509 -0.03307385 -0.03301531 -0.03295733 -0.03289973 -0.03283937 -0.03277606
 -0.03270676 -0.03263156 -0.03254897 -0.03246003 -0.03236654 -0.03227053 -0.03217703 -0.032087 -0.03200474 -0.03192788
 -0.03185601 -0.03178589 -0.03171469 -0.03164243 -0.03156789 -0.03149394 -0.03142144 -0.03135137 -0.03128447 -0.03121862
 -0.03115377 -0.03108704 -0.03101824 -0.03094421 -0.0308648 -0.03077788 -0.03068397 -0.03058657 -0.03048723 -0.03039571
 -0.0303122 -0.0302436 -0.03018636 -0.0301372 -0.03009112 -0.03003923 -0.02997956 -0.02990573 -0.0298214 -0.02972597
 -0.02962695 -0.0295273 -0.02943359 -0.02934926 -0.02927423 -0.02921009 -0.02914925 -0.02909133 -0.02902629 -0.02895311
 -0.0288687 -0.02877308 -0.02867236 -0.02856718 -0.02846619 -0.02836922 -0.02828041 -0.02819847 -0.02812174 -0.02804905
 -0.02797707 -0.0279054 -0.02783206 -0.02775709 -0.02767991 -0.02760029 -0.02751765 -0.02743283 -0.02734554 -0.02725866
 -0.02717296 -0.02709079 -0.02701317 -0.02693903 -0.02686863 -0.02679839 -0.02672805 -0.02665483 -0.02657859 -0.02649813
 -0.02641349 -0.02632449 -0.02623153 -0.02613614 -0.02603934 -0.02594491 -0.02585392 -0.02577078 -0.02569518 -0.02562909
 -0.02557027 -0.02551765 -0.02546778 -0.02541815 -0.0253656 -0.02530763 -0.02524391 -0.02517307 -0.02509895 -0.02502182
 -0.02494689 -0.02487527 -0.02480744 -0.02474378 -0.02467935 -0.02461392 -0.02454415 -0.02447043 -0.02439616 -0.02432177
 -0.02425193 -0.0241857 -0.02412256 -0.02406121 -0.02399816 -0.02393368 -0.0238665 -0.02379767 -0.02372821 -0.02365786
 -0.0235866 -0.02351459 -0.02344112 -0.02336936 -0.0232999 -0.02323681 -0.02318176 -0.02313369 -0.02309339 -0.02305322
 -0.02301269 -0.02296425 -0.02290758 -0.02284321 -0.02277186 -0.02270183 -0.02263354 -0.02257431 -0.02252243 -0.02247634
 -0.02243365 -0.0223877 -0.0223386 -0.02228288 -0.02222351 -0.02216258 -0.02210204 -0.02204461 -0.02198905 -0.02193573
 -0.02188215 -0.02182731 -0.02177046 -0.02171093 -0.02165047 -0.02158902 -0.0215299 -0.0214734 -0.0214221 -0.02137613
 -0.02133392 -0.02129509 -0.02125467 -0.0212126 -0.02116561 -0.02111485 -0.0210624 -0.02100946 -0.02096021 -0.02091423
 -0.02087334 -0.02083499 -0.02079717 -0.02075753 -0.02071311 -0.02066442 -0.02061018 -0.0205543 -0.02049756 -0.02044443
 -0.02039654 -0.0203541 -0.02031785 -0.02028337 -0.02025039 -0.02021435 -0.020175 -0.02013247 -0.02008702 -0.02004198
 -0.01999717 -0.01995347 -0.01990983 -0.01986273 -0.01981211 -0.01975533 -0.01969471 -0.01963247 -0.01957149 -0.01951664
 -0.01946733 -0.01942535 -0.01938728 -0.01935177 -0.01931627 -0.01927923 -0.01924083 -0.01920087 -0.01915965 -0.01911723
 -0.01907362 -0.01902871 -0.01898408 -0.01893982 -0.01889844 -0.01885984 -0.01882328 -0.01878827 -0.01875128 -0.01871253
 -0.01867035 -0.01862636 -0.01858333 -0.01854322 -0.0185108 -0.01848645 -0.01847321 -0.01846856 -0.01847229 -0.0184795
 -0.01848779 -0.01849262 -0.01849151 -0.0184832 -0.01846658 -0.01844349 -0.01841403 -0.01837988 -0.01834132 -0.01829775
 -0.01824914 -0.01819557 -0.01813734 -0.01807875 -0.01802059 -0.01797018 -0.0179274 -0.0178964 -0.01787514 -0.01786101
 -0.01785154 -0.01784099 -0.01782898 -0.01781248 -0.01779296 -0.01777096 -0.01774671 -0.01772074 -0.01769209 -0.01766009
 -0.01762589 -0.01758903 -0.0175541 -0.01752187 -0.01749514 -0.01747468 -0.01745681 -0.01744141 -0.01742035 -0.01739336
 -0.0173551 -0.0173064 -0.01724977 -0.01718686 -0.01712528 -0.0170659 -0.0170151 -0.01697197 -0.01693834 -0.01691174
 -0.01689035 -0.01687088 -0.0168501 -0.01682574 -0.0167948 -0.01675938 -0.01671875 -0.01667886 -0.01664134 -0.01660942
 -0.01658479 -0.01656219 -0.01654158 -0.01651431 -0.01647981 -0.01643548 -0.01638161 -0.01632322 -0.0162607 -0.01619941
 -0.01613851 -0.01607758 -0.0160157 -0.01594954 -0.01588046 -0.01580818 -0.01573722 -0.01567278 -0.01561887 -0.0155818
 -0.01555972 -0.01555503 -0.0155591 -0.01556972 -0.0155777 -0.01557956 -0.01557275 -0.0155554 -0.01553321 -0.01550617
 -0.01548397 -0.01546726 -0.01546211 -0.01546842 -0.01548424 -0.01550864 -0.01553388 -0.01555998 -0.01558243 -0.01560304
 -0.01562453 -0.015648 -0.01567758 -0.01571096 -0.01574743 -0.01578315 -0.01581393 -0.01583941 -0.01585699 -0.01587168
 -0.01588412 -0.01590168 -0.01592655 -0.01596317 -0.01601329 -0.01607493 -0.01614859 -0.01622642 -0.01630797 -0.01638526
 -0.01645815 -0.01652459 -0.01658516 -0.01664323 -0.01669909 -0.01675592 -0.01681315 -0.01687071 -0.0169283 -0.01698513
 -0.01704176 -0.01709886 -0.01715611 -0.01721399 -0.01727056 -0.01732485 -0.01737522 -0.01742009 -0.01746145 -0.01749909
 -0.01753734 -0.01757725 -0.01762005 -0.01766645 -0.01771184 -0.01775601 -0.01779341 -0.017824 -0.01784821 -0.01786679
 -0.01788587 -0.01790566 -0.0179308 -0.01795993 -0.0179915 -0.01802453 -0.01805597 -0.01808674 -0.01811677 -0.01814701
 -0.01817915 -0.01821103 -0.01824219 -0.01826948 -0.01829055 -0.01830729 -0.01831898 -0.01833172 -0.0183468 -0.01836697
 -0.01839317 -0.01842162 -0.0184521 -0.01848179 -0.01851076 -0.01854219 -0.01857624 -0.01861607 -0.01866045 -0.01870555
 -0.01875013 -0.01878775 -0.0188202 -0.01884749 -0.01887266 -0.01890069 -0.01893105 -0.01896601 -0.01900111 -0.01903372
 -0.01906217 -0.01908384 -0.01910353 -0.01912167 -0.01914443 -0.01917356 -0.01920987 -0.01925418 -0.0193014 -0.01935127
 -0.01939875 -0.01944368 -0.01948413 -0.01952043 -0.01955437 -0.01958639 -0.01961954 -0.01965384 -0.01969119 -0.01973068
 -0.01977164 -0.01981252 -0.01985086 -0.01988585 -0.01991538 -0.01994071 -0.01996156 -0.01998073 -0.01999914 -0.02001978
 -0.02004361 -0.02007315 -0.02010921 -0.02015238 -0.02020328 -0.02025759 -0.02031521 -0.02036798 -0.02041558 -0.02045299
 -0.02048084 -0.0205024 -0.02051889 -0.02053804 -0.02055982 -0.02058859 -0.02062258 -0.02066036 -0.02070022 -0.02073886
 -0.02077607 -0.02081025 -0.02084242 -0.02087284 -0.02090216 -0.02093098 -0.02095851 -0.02098469 -0.02100862 -0.02102993
 -0.0210493 -0.02106665 -0.02108392 -0.02110129 -0.02111956 -0.02113872 -0.0211571 -0.02117444 -0.02118748 -0.02119587
 -0.02119572 -0.02118773 -0.02117096 -0.0211484 -0.02112512 -0.0211051 -0.02109693 -0.0211008 -0.02112176 -0.02115336
 -0.02119362 -0.02123426 -0.02127009 -0.02129926 -0.02131891 -0.02133507 -0.0213483 -0.0213652 -0.02138726 -0.02141386
 -0.02144538 -0.0214745 -0.02150089 -0.02151894 -0.02152914 -0.02153372 -0.02153367 -0.02153545 -0.02153878 -0.02154648
 -0.02155689 -0.02156754 -0.02157791 -0.02158541 -0.02159225 -0.02159957 -0.02160963 -0.02162502 -0.02164457 -0.02166886
 -0.02169458 -0.02172039 -0.02174574 -0.02176963 -0.02179628 -0.02182607 -0.02186309 -0.02190798 -0.0219581 -0.02201324
 -0.02206498 -0.02211296 -0.02215008 -0.02217712 -0.02219399 -0.02220246 -0.02220809 -0.02221213 -0.02222022 -0.02223213
 -0.02225018 -0.02227298 -0.02229997 -0.0223299 -0.02236166 -0.02239467 -0.02242842 -0.02246258 -0.02249699 -0.02253134
 -0.02256554 -0.02259937 -0.02263292 -0.02266512 -0.02269596 -0.02272291 -0.02274586 -0.02276281 -0.02277405 -0.02278169
 -0.02278642 -0.02279325 -0.02280209 -0.02281567 -0.02283265 -0.02285149 -0.02287084 -0.02288772 -0.02290209 -0.02291238
 -0.02292013 -0.02292559 -0.02293131 -0.02293846 -0.02294942 -0.02296552 -0.02298692 -0.02301444 -0.02304464 -0.02307738
 -0.02310797 -0.02313597 -0.02315851 -0.02317542 -0.02318667 -0.0231924 -0.02319423 -0.02319242 -0.02318896 -0.02318451
 -0.02318212 -0.02318282 -0.0231907 -0.02320552 -0.0232296 -0.0232598 -0.02329446 -0.02332839 -0.02335717 -0.02337758
 -0.0233862 -0.02338414 -0.02337058 -0.02334929 -0.02332082 -0.02328897 -0.02325442 -0.02321961 -0.02318491 -0.0231506
 -0.0231167 -0.02308126 -0.02304418 -0.02300358 -0.02295954 -0.02291157 -0.02285958 -0.02280325 -0.02274189 -0.02267354
 -0.0225982 -0.02251424 -0.02242408 -0.02232923 -0.02223347 -0.02214031 -0.02205172 -0.02197018 -0.02189438 -0.02182463
 -0.02175848 -0.02169528 -0.0216339 -0.02157396 -0.02151569 -0.02145908 -0.02140428 -0.02135132 -0.02129973 -0.02124953
 -0.02120059 -0.02115325 -0.0211093 -0.02106943 -0.02103701 -0.02101245 -0.02099888 -0.02099523 -0.02100162 -0.02101565
 -0.02103509 -0.02105686 -0.02107805 -0.02109608 -0.02110894 -0.02111482 -0.02111245 -0.02110172 -0.0210821 -0.02105544
 -0.02102196 -0.02098325 -0.02093959 -0.02089052 -0.020836 -0.02077511 -0.02070798 -0.02063623 -0.02056021 -0.02048289
 -0.02040457 -0.02032771 -0.02025286 -0.02018241 -0.02011706 -0.02005944 -0.02000863 -0.0199651 -0.01992634 -0.01989026
 -0.01985597 -0.01982126 -0.01979023 -0.01976293 -0.01974691 -0.01974342 -0.01976121 -0.01980156 -0.01987278 -0.01997603
 -0.02011446 -0.02028843 -0.02048966 -0.020717 -0.02095154 -0.02119183 -0.0214189 -0.02163284 -0.0218235 -0.02199277
 -0.02213992 -0.0222674 -0.02237877 -0.02247649 -0.02256451 -0.02264532 -0.02272221 -0.02279663 -0.02287068 -0.02294329
 -0.02301486 -0.02308267 -0.02314622 -0.02320287 -0.02325199 -0.02329287 -0.02332534 -0.02334915 -0.02336428 -0.02337109
 -0.02336973 -0.02336227 -0.02334902 -0.02333313 -0.02331477 -0.02329617 -0.02327735 -0.02325912 -0.02324233 -0.02322841
 -0.02321926 -0.02321782 -0.02322501 -0.0232434 -0.02327056 -0.02330655 -0.02334648 -0.02338866 -0.0234288 -0.02346529
 -0.02349652 -0.02352182 -0.02354169 -0.02355615 -0.02356527 -0.0235691 -0.02356579 -0.02355523 -0.02353487 -0.02350509
 -0.02346643 -0.02342103 -0.02337659 -0.02333724 -0.02331722 -0.02332009 -0.02335987 -0.02343477 -0.0235506 -0.02369731
 -0.02387022 -0.02405517 -0.02424288 -0.02442343 -0.0245899 -0.02474094 -0.02487448 -0.02499334 -0.02509777 -0.02518983
 -0.02526982 -0.02533864 -0.02539633 -0.02544505 -0.02548494 -0.02551872 -0.02554646 -0.02557001 -0.02558936 -0.02560534
 -0.02561819 -0.0256288 -0.02563764 -0.02564579 -0.02565395 -0.0256633 -0.02567474 -0.02568971 -0.0257079 -0.02573024
 -0.02575363 -0.02577744 -0.02579741 -0.02581174 -0.02582041 -0.02582251 -0.02582316 -0.02582278 -0.02582619 -0.02583382
 -0.02584553 -0.02586117 -0.02587745 -0.02589424 -0.0259093 -0.02592256 -0.02593255 -0.02593908 -0.02594038 -0.02593753
 -0.02593093 -0.02592364 -0.02591984 -0.02592144 -0.02593292 -0.02595069 -0.02597488 -0.02599856 -0.02601839 -0.02603163
 -0.0260358 -0.02603537 -0.02603044 -0.02602727 -0.02602685 -0.02603074 -0.02603926 -0.02604838 -0.02605787 -0.02606284
 -0.02606345 -0.02605861 -0.0260492 -0.02603845 -0.02602691 -0.02601821 -0.02601146 -0.02600692 -0.02600296 -0.02599726
 -0.02598947 -0.02597797 -0.02596445 -0.02594919 -0.02593468 -0.02592201 -0.02591301 -0.02590859 -0.02590904 -0.02591483
 -0.02592407 -0.02593685 -0.02594876 -0.02595952 -0.02596482 -0.02596455 -0.02595823 -0.02594627 -0.02593182 -0.02591527
 -0.0259002 -0.02588641 -0.02587517 -0.02586627 -0.02585989 -0.02585596 -0.02585458 -0.02585531 -0.02585803 -0.02586167
 -0.02586547 -0.02586885 -0.02587136 -0.02587277 -0.02587306 -0.02587143 -0.02586779 -0.02586112 -0.02585105 -0.02583937
 -0.02582606 -0.02581534 -0.02580737 -0.0258052 -0.02580857 -0.02581676 -0.02582914 -0.02584255 -0.02585631 -0.02586673
 -0.02587357 -0.02587416 -0.02586983 -0.02586084 -0.02584982 -0.02583957 -0.02583124 -0.02582717 -0.02582504 -0.02582456
 -0.02582306 -0.0258193 -0.02581347 -0.02580526 -0.02579616 -0.0257864 -0.02577612 -0.02576535 -0.02575346 -0.02574043
 -0.02572695 -0.02571318 -0.02570104 -0.02569074 -0.02568451 -0.02568214 -0.02568457 -0.02569059 -0.02569858 -0.02570651
 -0.02571069 -0.02571027 -0.02570242 -0.02568921 -0.02567087 -0.02565032 -0.02562905 -0.02560857 -0.02558973 -0.0255728
 -0.02555775 -0.0255461 -0.02553796 -0.02553506 -0.02553765 -0.0255446 -0.02555577 -0.02556663 -0.02557693 -0.02558205
 -0.02558228 -0.02557641 -0.0255653 -0.02555079 -0.02553368 -0.02551642 -0.02549965 -0.02548517 -0.02547369 -0.0254666
 -0.02546412 -0.02546731 -0.0254743 -0.02548512 -0.02549569 -0.02550488 -0.02550918 -0.02550728 -0.02549947 -0.02548531
 -0.02546863 -0.02544968 -0.02543217 -0.02541623 -0.02540259 -0.02539106 -0.02538022 -0.02537007 -0.02535989 -0.0253499
 -0.02534047 -0.0253317 -0.02532406 -0.02531731 -0.02531127 -0.0253058 -0.02530065 -0.02529584 -0.02529141 -0.02528717
 -0.02528301 -0.02527893 -0.0252747 -0.02527127 -0.02526876 -0.02526819 -0.02526992 -0.025273 -0.02527751 -0.02528028
 -0.02528115 -0.02527693 -0.02526776 -0.02525383 -0.02523569 -0.02521635 -0.02519613 -0.02517783 -0.02516091 -0.02514552
 -0.02513113 -0.02511683 -0.02510268 -0.02508845 -0.02507421 -0.02506013 -0.02504559 -0.02503021 -0.02501406 -0.02499685
 -0.02497984 -0.02496327 -0.02494805 -0.02493441 -0.02492197 -0.02491069 -0.0249006 -0.02489171 -0.02488512 -0.02488076
 -0.02487835 -0.02487741 -0.024875 -0.02487106 -0.02486356 -0.02485348 -0.02484196 -0.02482997 -0.02481991 -0.02481092
 -0.02480318 -0.024795 -0.02478474 -0.02477272 -0.02475818 -0.02474366 -0.02472998 -0.02471845 -0.02470998 -0.02470246
 -0.02469579 -0.02468722 -0.02467637 -0.02466342 -0.02464838 -0.02463363 -0.02461922 -0.02460638 -0.02459493 -0.02458458
 -0.02457538 -0.0245675 -0.02456077 -0.02455532 -0.02455003 -0.02454321 -0.02453408 -0.02452051 -0.02450412 -0.02448506
 -0.02446604 -0.02444889 -0.02443373 -0.0244215 -0.02440951 -0.02439712 -0.0243832 -0.02436714 -0.0243514 -0.02433609
 -0.02432409 -0.02431555 -0.02430982 -0.0243066 -0.02430212 -0.02429624 -0.02428594 -0.02427195 -0.02425495 -0.02423634
 -0.02421997 -0.02420623 -0.02419809 -0.02419376 -0.02419274 -0.02419236 -0.02419017 -0.02418529 -0.02417637 -0.02416419
 -0.02414879 -0.02413066 -0.02410992 -0.02408684 -0.02406118 -0.02403562 -0.0240103 -0.02398869 -0.023971 -0.02395757
 -0.02394817 -0.02393984 -0.02393247 -0.02392386 -0.02391435 -0.0239042 -0.02389349 -0.02388255 -0.02387111 -0.0238587
 -0.02384565 -0.02383185 -0.02381864 -0.02380706 -0.02379808 -0.02379278 -0.0237905 -0.02379162 -0.0237937 -0.02379646
 -0.02379659 -0.02379344 -0.02378554 -0.02377251 -0.02375593 -0.02373587 -0.02371494 -0.02369318 -0.02367111 -0.02364872
 -0.02362589 -0.02360324 -0.02358296 -0.0235656 -0.02355416 -0.02354741 -0.02354518 -0.02354475 -0.02354252 -0.02353769
 -0.02352768 -0.02351498 -0.02350012 -0.02348575 -0.02347354 -0.02346267 -0.02345352 -0.0234435 -0.02343206 -0.02341887
 -0.02340367 -0.02338891 -0.02337472 -0.02336258 -0.02335234 -0.02334205 -0.02333144 -0.02331761 -0.02330093 -0.02328106
 -0.02325902 -0.02323726 -0.02321641 -0.02319887 -0.02318435 -0.02317359 -0.0231657 -0.02316031 -0.02315634 -0.02315321
 -0.02314989 -0.02314585 -0.02314056 -0.02313371 -0.02312548 -0.02311588 -0.02310485 -0.02309242 -0.02307829 -0.02306246
 -0.02304494 -0.02302581 -0.02300619 -0.02298608 -0.02296612 -0.02294607 -0.02292521 -0.0229037 -0.02288128 -0.02285893
 -0.02283832 -0.02282007 -0.02280619 -0.02279506 -0.02278643 -0.02277732 -0.02276565 -0.02275051 -0.02273038 -0.02270824
 -0.02268431 -0.02266256 -0.02264393 -0.02262958 -0.02261996 -0.02261295 -0.02260847 -0.02260363 -0.02259833 -0.02259116
 -0.02258225 -0.02257192 -0.02256028 -0.02254797 -0.02253494 -0.02252152 -0.02250728 -0.02249157 -0.02247421 -0.0224545
 -0.02243315 -0.02241013 -0.02238753 -0.02236622 -0.02234893 -0.02233713 -0.02233178 -0.02233389 -0.02234127 -0.02235401
 -0.02236796 -0.02238259 -0.02239595 -0.02240781 -0.02241962 -0.02243148 -0.02244562 -0.02246174 -0.02247899 -0.02249665
 -0.02251121 -0.02252247 -0.02252777 -0.02252795 -0.02252315 -0.02251459 -0.02250423 -0.0224919 -0.02247875 -0.02246238
 -0.02244135 -0.022415 -0.02238181 -0.02234556 -0.02230657 -0.02226997 -0.02223695 -0.02220963 -0.02218867 -0.02217217
 -0.02216013 -0.02214768 -0.02213457 -0.02211658 -0.02209392 -0.02206595 -0.02203351 -0.02199967 -0.02196521 -0.02193397
 -0.02190604 -0.0218837 -0.02186604 -0.02185292 -0.02184317 -0.02183582 -0.02182959 -0.02182378 -0.02181635 -0.0218065
 -0.02179211 -0.02177223 -0.02174657 -0.02171457 -0.02167897 -0.02163992 -0.02160068 -0.02156146 -0.02152474 -0.02149063
 -0.02146086 -0.02143536 -0.0214147 -0.02139829 -0.02138413 -0.02137131 -0.02135604 -0.02133827 -0.02131562 -0.0212899
 -0.0212621 -0.02123497 -0.02121172 -0.02119313 -0.0211815 -0.02117356 -0.02116894 -0.02116292 -0.0211537 -0.02113991
 -0.02112052 -0.02109852 -0.02107408 -0.02105047 -0.02102797 -0.02100707 -0.02098774 -0.02096905 -0.02095099 -0.0209331
 -0.02091544 -0.02089811 -0.02088111 -0.02086454 -0.0208482 -0.02083177 -0.02081487 -0.0207967 -0.02077748 -0.02075681
 -0.02073613 -0.02071618 -0.02069828 -0.02068368 -0.02067116 -0.02066098 -0.02065004 -0.02063767 -0.02062236 -0.02060358
 -0.02058315 -0.02056115 -0.02053996 -0.02051966 -0.02050066 -0.0204829 -0.02046594 -0.02044997 -0.02043556 -0.02042295
 -0.02041347 -0.0204065 -0.02040181 -0.02039778 -0.02039195 -0.0203835 -0.02037014 -0.02035361 -0.02033414 -0.02031419
 -0.02029531 -0.02027748 -0.02026134 -0.0202449 -0.02022766 -0.02020946 -0.02019004 -0.02017124 -0.0201532 -0.02013717
 -0.02012317 -0.02011077 -0.02009987 -0.02008957 -0.02007969 -0.020069 -0.02005712 -0.02004205 -0.020024 -0.02000208
 -0.01997758 -0.01995189 -0.01992623 -0.01990261 -0.01988083 -0.0198615 -0.01984371 -0.01982706 -0.01981146 -0.01979677
 -0.01978319 -0.0197709 -0.01975895 -0.01974734 -0.01973421 -0.01971938 -0.01970202 -0.01968214 -0.01966079 -0.01963811
 -0.01961602 -0.01959458 -0.01957518 -0.01955779 -0.0195432 -0.0195311 -0.01952142 -0.01951337 -0.01950592 -0.0194981
 -0.01948836 -0.0194769 -0.01946308 -0.01944835 -0.01943337 -0.01941882 -0.01940531 -0.01939186 -0.01937831 -0.01936406
 -0.01934879 -0.01933421 -0.01932041 -0.01930903 -0.01930011 -0.01929248 -0.01928587 -0.01927696 -0.01926574 -0.01925029
 -0.0192314 -0.01921054 -0.01918855 -0.01916819 -0.01914922 -0.01913261 -0.0191176 -0.0191035 -0.01909041 -0.019078
 -0.01906721 -0.01905878 -0.01905189 -0.01904686 -0.01904087 -0.01903319 -0.01902277 -0.01900901 -0.01899472 -0.01898002
 -0.0189683 -0.01895969 -0.01895379 -0.01895022 -0.01894491 -0.01893761 -0.01892458 -0.01890647 -0.01888313 -0.01885598
 -0.01882807 -0.01880051 -0.01877675 -0.01875602 -0.01873911 -0.01872409 -0.01870965 -0.01869502 -0.01867912 -0.01866306
 -0.01864692 -0.01863193 -0.01861855 -0.01860655 -0.01859603 -0.01858608 -0.01857665 -0.01856722 -0.01855776 -0.01854783
 -0.01853735 -0.01852542 -0.018512 -0.01849629 -0.01847857 -0.01845911 -0.0184387 -0.0184193 -0.01840153 -0.01838763
 -0.01837667 -0.01836897 -0.01836213 -0.01835435 -0.01834443 -0.01833075 -0.01831502 -0.01829727 -0.01828001 -0.01826413
 -0.01824956 -0.01823665 -0.01822313 -0.0182088 -0.01819221 -0.0181733 -0.01815366 -0.0181335 -0.01811588 -0.01810072
 -0.01808942 -0.01808123 -0.01807448 -0.01806824 -0.01805936 -0.01804794 -0.01803224 -0.01801401 -0.01799425 -0.01797527
 -0.01795942 -0.01794716 -0.01794007 -0.01793527 -0.0179325 -0.01792755 -0.01791905 -0.01790606 -0.01788775 -0.01786801
 -0.01784705 -0.01782898 -0.01781406 -0.01780207 -0.01779279 -0.01778284 -0.01777222 -0.01775915 -0.01774404 -0.0177276
 -0.0177099 -0.0176917 -0.01767226 -0.01765045 -0.01762637 -0.01759907 -0.01757062 -0.01754193 -0.01751583 -0.01749443
 -0.01747796 -0.01746751 -0.01746012 -0.01745532 -0.01745047 -0.01744487 -0.01743854 -0.01743137 -0.01742457 -0.01741821
 -0.01741208 -0.0174061 -0.01739901 -0.01739088 -0.01738152 -0.01737088 -0.01735874 -0.01734462 -0.01732705 -0.01730613
 -0.01728076 -0.01725285 -0.01722372 -0.01719622 -0.0171734 -0.0171558 -0.01714538 -0.0171387 -0.01713541 -0.0171306
 -0.01712288 -0.01710961 -0.01708973 -0.01706521 -0.01703591 -0.01700635 -0.01697678 -0.01695109 -0.01692935 -0.016913
 -0.01690173 -0.01689455 -0.01689093 -0.01688861 -0.01688681 -0.01688258 -0.01687531 -0.0168623 -0.01684421 -0.01682022
 -0.01679287 -0.01676374 -0.01673537 -0.01670998 -0.01668748 -0.01666874 -0.01665152 -0.01663532 -0.01661889 -0.01660174
 -0.01658492 -0.01656848 -0.01655344 -0.01653988 -0.01652676 -0.01651397 -0.01649949 -0.01648337 -0.01646486 -0.01644429
 -0.01642254 -0.01640005 -0.01637837 -0.01635769 -0.01633917 -0.01632245 -0.01630777 -0.01629405 -0.01628059 -0.01626623
 -0.01624991 -0.01623173 -0.01621103 -0.01619005 -0.01616916 -0.0161506 -0.0161351 -0.01612199 -0.01611149 -0.01609985
 -0.01608686 -0.01606994 -0.01604922 -0.01602653 -0.01600228 -0.01598031 -0.01596044 -0.01594427 -0.01593097 -0.01591921
 -0.01590846 -0.01589708 -0.01588511 -0.01587185 -0.0158576 -0.01584242 -0.01582639 -0.01580958 -0.01579205 -0.01577396
 -0.01575495 -0.01573496 -0.01571366 -0.0156908 -0.01566734 -0.01564327 -0.01562056 -0.01559936 -0.0155808 -0.01556483
 -0.01555017 -0.0155366 -0.01552189 -0.01550608 -0.01548815 -0.0154685 -0.01544766 -0.01542599 -0.01540446 -0.01538325
 -0.01536302 -0.0153437 -0.0153255 -0.01530813 -0.01529157 -0.0152753 -0.01525906 -0.01524272 -0.01522616 -0.01520949
 -0.01519274 -0.01517568 -0.01515832 -0.01513998 -0.0151206 -0.01510019 -0.01507882 -0.01505777 -0.01503705 -0.01501746
 -0.01499861 -0.01497929 -0.01495906 -0.01493583 -0.01491006 -0.01488122 -0.01485088 -0.01482078 -0.01479229 -0.01476753
 -0.01474629 -0.01472945 -0.01471496 -0.01470229 -0.01468941 -0.01467549 -0.01466001 -0.01464261 -0.01462403 -0.01460433
 -0.01458401 -0.01456313 -0.01454164 -0.01451955 -0.01449677 -0.01447338 -0.01444987 -0.01442638 -0.01440378 -0.01438234
 -0.01436344 -0.01434693 -0.01433352 -0.01432211 -0.01431185 -0.014301 -0.0142875 -0.01427078 -0.01424948 -0.01422511
 -0.01419789 -0.01416945 -0.01414044 -0.01411107 -0.01408153 -0.01405147 -0.01402085 -0.01398995 -0.01395878 -0.0139281
 -0.01389796 -0.01386939 -0.01384253 -0.01381905 -0.01379891 -0.0137832 -0.01377102 -0.01376062 -0.01375055 -0.01373691
 -0.01371952 -0.01369603 -0.01366834 -0.01363725 -0.01360485 -0.01357303 -0.01354192 -0.01351216 -0.01348298 -0.01345412
 -0.01342568 -0.01339756 -0.01337044 -0.01334445 -0.01331976 -0.01329643 -0.0132737 -0.01325149 -0.01322848 -0.01320467
 -0.01317959 -0.01315346 -0.01312704 -0.01310057 -0.01307533 -0.01305087 -0.01302704 -0.01300284 -0.01297658 -0.0129482
 -0.01291649 -0.01288338 -0.0128494 -0.01281752 -0.0127894 -0.0127663 -0.01274955 -0.01273647 -0.01272715 -0.01271654
 -0.01270399 -0.01268626 -0.01266295 -0.01263497 -0.01260241 -0.01256859 -0.01253361 -0.01249993 -0.01246723 -0.01243527
 -0.01240356 -0.0123705 -0.01233578 -0.01229785 -0.01225704 -0.012213 -0.01216655 -0.01211833 -0.01206911 -0.01201951
 -0.01197023 -0.01192149 -0.0118747 -0.01183026 -0.01178948 -0.01175299 -0.01171964 -0.01168961 -0.01165951 -0.0116291
 -0.01159571 -0.01155929 -0.01152047 -0.01147947 -0.01143873 -0.01139809 -0.0113582 -0.01131849 -0.01127752 -0.01123498
 -0.01118936 -0.01114093 -0.01108936 -0.0110352 -0.01097872 -0.0109208 -0.01086191 -0.01080347 -0.01074616 -0.01069126
 -0.01063976 -0.01059016 -0.01054279 -0.01049321 -0.01044087 -0.0103824 -0.01031731 -0.01024678 -0.01017088 -0.01009315
 -0.01001354 -0.009933055 -0.009851491 -0.009768178 -0.009683422 -0.009597821 -0.009511773 -0.009426769 -0.009342069 -0.009257576
 -0.009171548 -0.009082048 -0.008988269 -0.00888873 -0.008784323 -0.00867509 -0.008561921 -0.008445033 -0.008325362 -0.008202887
 -0.008079807 -0.007956309 -0.007835153 -0.007716749 -0.007600058 -0.007484952 -0.007364752 -0.007239225 -0.007102904 -0.00695702
 -0.006805028 -0.006648474 -0.006494906 -0.006343236 -0.006195277 -0.006048215 -0.005898561 -0.005744353 -0.005582463 -0.005411242
 -0.005229308 -0.005033254 -0.004821727 -0.004589948 -0.004335715 -0.004057576 -0.003754064 -0.003429328 -0.003083134 -0.002724112
 -0.002352674 -0.001980353 -0.001607774 -0.001246027 -0.0008950297 -0.0005583778 -0.0002342215 8.537104E-05 0.0004022119 0.0007279259
 0.001059733 0.001398589 0.001737699 0.002065651 0.002381695 0.002678969 0.002964045 0.003239947 0.003510798 0.003780394
 0.004047066 0.004310566 0.004571257 0.00482826 0.005087671 0.00535057 0.005619025 0.005893819 0.006167408 0.006439402
 0.006700627 0.006950794 0.007184373 0.007400728 0.007593674 0.007762145 0.007899038 0.008004228 0.008073732 0.008108468
 0.008107302 0.008073541 0.008008785 0.007920514 0.0078145 0.007696835 0.007572623 0.007443005 0.007309024 0.007172548
 0.007033702 0.006896663 0.006762504 0.006630631 0.006501496 0.006367667 0.006228762 0.006078104 0.005916087 0.005745351
 0.005567493 0.005393499 0.005223626 0.005065177 0.004916089 0.004774939 0.004640468 0.004509034 0.004382934 0.004262492
 0.004152465 0.004056598 0.003978119 0.003920183 0.003882429 0.003865337 0.003868405 0.003891373 0.003935207 0.004000159
 0.004085947 0.00419276 0.00431736 0.004459577 0.004616216 0.004787201 0.004970758 0.005167006 0.005375573 0.005596866
 0.005832099 0.00608162 0.006347057 0.006628017 0.006924832 0.007236351 0.007561453 0.007899112 0.00824825 0.008608026
 0.008978071 0.009356568 0.009743062 0.01013508 0.01053202 0.01093175 0.01133387 0.01173688 0.01214061 0.01254373
 0.01294617 0.01334489 0.01373961 0.01412586 0.01450315 0.01486689 0.01521562 0.01554265 0.01584431 0.01610819
 0.01633232 0.01650596 0.01663412 0.01671751 0.01676377 0.01677991 0.0167688 0.01673448 0.01667548 0.0165922
 0.0164828 0.01634727 0.01618217 0.01598702 0.01575825 0.01549485 0.0152025 0.0148814 0.0145469 0.01419934
 0.01384613 0.01348601 0.0131142 0.01273019 0.012329 0.01191238 0.0114818 0.01103982 0.01059231 0.01013845
 0.009681459 0.009214286 0.008732016 0.008230019 0.007700057 0.007156308 0.006599769 0.00605344 0.00552529 0.005020237
 0.004541589 0.004080122 0.003634969 0.00320198 0.002780756 0.002376392 0.001989149 0.001624093 0.001280765 0.0009585955
 0.0006568157 0.0003721837 0.0001042592 -0.0001495109 -0.0003896669 -0.0006178305 -0.0008356004 -0.001045033 -0.00124881 -0.001449961
 -0.001649785 -0.001850192 -0.002050307 -0.002249993 -0.002449308 -0.002647994 -0.002847737 -0.003049592 -0.003249079 -0.003446599
 -0.003628661 -0.003794395 -0.003935913 -0.004053591 -0.004154248 -0.004239278 -0.004321852 -0.004402145 -0.004488573 -0.00457887
 -0.004671951 -0.004764398 -0.004849476 -0.004925339 -0.004986753 -0.005033858 -0.005064932 -0.00508094 -0.005082095 -0.005068835
 -0.005041437 -0.004999929 -0.004944349 -0.00487476 -0.004791157 -0.004693769 -0.004582694 -0.004457275 -0.004317511 -0.004161149
 -0.003988171 -0.003797493 -0.003590336 -0.003374288 -0.003152022 -0.002938878 -0.002735876 -0.002554295 -0.002391934 -0.002250161
 -0.002126121 -0.002016803 -0.001919975 -0.001833497 -0.001753362 -0.001677914 -0.001599668 -0.001515188 -0.001419498 -0.001308987
 -0.001189413 -0.001060482 -0.0009329292 -0.0008082988 -0.000690073 -0.0005787441 -0.00047008 -0.0003637708 -0.0002536523 -0.0001395182
 -1.700833E-05 0.0001138448 0.0002554113 0.000407217 0.0005696205 0.0007411507 0.0009198194 0.001102924 0.001286041 0.001467729
 0.001644159 0.00181821 0.001989448 0.002164514 0.002345798 0.002539133 0.002746917 0.002971164 0.003213013 0.003470509
 0.003743684 0.004029414 0.00432749 0.004635807 0.00495418 0.005279448 0.005610683 0.005939641 0.00626451 0.006573277
 0.006864291 0.00712729 0.007360433 0.007556411 0.0077117 0.007819456 0.007875122 0.007872035 0.007808041 0.00767874
 0.007487747 0.007234031 0.006927304 0.006569027 0.006171903 0.005737903 0.005279764 0.00479865 0.004308862 0.00381128
 0.003322448 0.0028431 0.00238534 0.001948755 0.001535229 0.001144053 0.0007726671 0.0004217699 9.221523E-05 -0.0002154347
 -0.0004986828 -0.0007599773 -0.001000974 -0.001225644 -0.001438682 -0.001641402 -0.001836365 -0.002022499 -0.002199646 -0.002367894
 -0.002526774 -0.002678798 -0.002824318 -0.002965593 -0.003102984 -0.003237498 -0.003369235 -0.003498879 -0.003626439 -0.003751841
 -0.003874745 -0.003992445 -0.004104161 -0.004204841 -0.004293997 -0.004367346 -0.004425391 -0.0044668 -0.004493027 -0.004505073
 -0.004505451 -0.004496498 -0.0044813 -0.004462552 -0.004442135 -0.004421944 -0.004401122 -0.004379843 -0.004356765 -0.004331137
 -0.004305257 -0.004278884 -0.004258278 -0.00424386 -0.004241272 -0.004250677 -0.00427228 -0.004305582 -0.004346214 -0.004393619
 -0.004442913 -0.004493829 -0.004543202 -0.004590648 -0.004634115 -0.004672799 -0.00470486 -0.004729343 -0.004744535 -0.004750313
 -0.004745453 -0.004732355 -0.004711214 -0.004686386 -0.004659231 -0.004632903 -0.004608661 -0.004585841 -0.004564635 -0.004542958
 -0.004520592 -0.004497573 -0.004473933 -0.004451409 -0.004430027 -0.004410739 -0.004393348 -0.00437746 -0.004362744 -0.004348036
 -0.004333009 -0.004316331 -0.004298084 -0.004277466 -0.004255711 -0.004233564 -0.004212644 -0.004194462 -0.004179421 -0.004168338
 -0.004160208 -0.004154988 -0.004151301 -0.004148897 -0.004146534 -0.004143996 -0.004140629 -0.004136332 -0.004131285 -0.004125508
 -0.004119894 -0.004114405 -0.004109104 -0.004103704 -0.004096829 -0.00408815 -0.004075864 -0.004059927 -0.004039071 -0.004014198
 -0.003985724 -0.003955522 -0.003925615 -0.003897452 -0.00387336 -0.003851628 -0.003832844 -0.003812076 -0.003787732 -0.003756752
 -0.00371746 -0.003672706 -0.003622253 -0.003572421 -0.003523774 -0.003479867 -0.003440851 -0.003405797 -0.003374553 -0.003345035
 -0.003317428 -0.003291575 -0.003267882 -0.003247587 -0.003230955 -0.003219287 -0.003212356 -0.003210486 -0.003213093 -0.003219848
 -0.003229791 -0.003242074 -0.003256285 -0.003271836 -0.003289266 -0.003308522 -0.00333063 -0.003355896 -0.003384539 -0.003416742
 -0.003451617 -0.003489169 -0.003527561 -0.003566693 -0.003604482 -0.003640915 -0.003675072 -0.003707221 -0.003738376 -0.003768722
 -0.003799676 -0.003830631 -0.003860993 -0.00388999 -0.00391584 -0.003939027 -0.003959059 -0.003977566 -0.003995855 -0.004014194
 -0.004033525 -0.004051929 -0.004068999 -0.004083002 -0.004093322 -0.004099782 -0.004102249 -0.004100914 -0.00409576 -0.004087184
 -0.00407522 -0.004062505 -0.004049258 -0.00403918 -0.004031958 -0.004028096 -0.004026386 -0.004022879 -0.004016857 -0.004004295
 -0.003986218 -0.003962216 -0.003934127 -0.00390415 -0.003872532 -0.003840738 -0.003806628 -0.003769677 -0.00372741 -0.003678598
 -0.003622791 -0.003559224 -0.003490448 -0.003416463 -0.003341609 -0.003266282 -0.003193692 -0.003124027 -0.003057174 -0.002992881
 -0.002927828 -0.002861835 -0.002791848 -0.002718568 -0.002642569 -0.002565197 -0.002490002 -0.002417563 -0.002350828 -0.002288597
 -0.002231056 -0.002175767 -0.002120957 -0.002064752 -0.002005552 -0.001942931 -0.001876235 -0.001806176 -0.001732674 -0.001657099
 -0.001579558 -0.001501799 -0.001423994 -0.001347478 -0.001272339 -0.001197773 -0.001123638 -0.001047733 -0.0009700286 -0.0008891
 -0.0008053312 -0.000719401 -0.0006315654 -0.0005430621 -0.0004532316 -0.0003619269 -0.0002674261 -0.0001679584 -6.147671E-05 5.40988E-05
 0.0001803473 0.0003188813 0.0004696636 0.0006335582 0.000807886 0.0009926498 0.001182948 0.001378192 0.001573475 0.001768263
 0.001959248 0.002146207 0.002327597 0.002503399 0.00267307 0.002836713 0.002994808 0.003147228 0.003294173 0.003434549
 0.003566045 0.003687119 0.00379395 0.00388615 0.003961371 0.004020976 0.004065277 0.004095563 0.004112782 0.00411714
 0.004108693 0.004088417 0.004056277 0.004014615 0.003963895 0.003905123 0.003838584 0.003762872 0.003677911 0.003583065
 0.003478573 0.00336787 0.003251728 0.003136864 0.003023816 0.00291853 0.002820341 0.002731052 0.002648629 0.002570453
 0.002494783 0.002417821 0.00234073 0.0022626 0.00218679 0.002115233 0.002049284 0.001990594 0.001936581 0.001886992
 0.001839042 0.001791996 0.00174583 0.001700483 0.001656075 0.001612645 0.001567722 0.001521234 0.001471439 0.001418881
 0.001366316 0.001314575 0.001268707 0.00122843 0.001196019 0.001169753 0.001147795 0.001128319 0.001108246 0.001086825
 0.001062019 0.001034917 0.001005055 0.0009755073 0.0009472703 0.0009230792 0.0009044808 0.0008897485 0.0008794587 0.0008672007
 0.000852407 0.0008294835 0.0007979582 0.0007581587 0.0007103369 0.0006594252 0.0006056722 0.0005532834 0.0005019343 0.0004524624
 0.0004046254 0.0003579038 0.0003129785 0.0002704473 0.0002320011 0.0002000392 0.0001756079 0.0001610382 0.0001547195 0.0001572712
 0.0001637824 0.0001727694 0.0001792322 0.0001814501 0.0001768054 0.0001646152 0.0001432957 0.0001127625 7.005964E-05 1.498236E-05
 -5.466591E-05 -0.000138752 -0.0002345705 -0.0003412528 -0.0004513574 -0.0005638408 -0.0006703417 -0.0007705987 -0.0008593535 -0.0009375769
 -0.001004268 -0.001061414 -0.001110948 -0.001154982 -0.001195912 -0.001235435 -0.001274924 -0.001316412 -0.001360883 -0.001410271
 -0.001465662 -0.001526364 -0.001592993 -0.001660691 -0.001729106 -0.001792998 -0.001851911 -0.001905105 -0.001952652 -0.001996827
 -0.00203754 -0.002075237 -0.002109377 -0.002137463 -0.002159898 -0.002175817 -0.002187519 -0.002198702 -0.002211744 -0.002231979
 -0.002258575 -0.002293731 -0.002332578 -0.002373362 -0.002410096 -0.002439539 -0.002459178 -0.002466881 -0.002465688 -0.002455358
 -0.002441846 -0.002425821 -0.002411602 -0.002399616 -0.002390226 -0.002383388 -0.002377527 -0.00237263 -0.002368023 -0.002363684
 -0.002359229 -0.00235446 -0.002348451 -0.002341455 -0.002333315 -0.002324875 -0.002317397 -0.002310901 -0.002306379 -0.002301931
 -0.002296765 -0.00228898 -0.002277188 -0.002261835 -0.002242419 -0.002221433 -0.002199365 -0.002177532 -0.002156351 -0.002134497
 -0.002111942 -0.00208639 -0.002057793 -0.002025768 -0.001990732 -0.001955885 -0.001921906 -0.001893593 -0.001871219 -0.001858161
 -0.001854073 -0.001860024 -0.001875144 -0.001899321 -0.001929964 -0.00196562 -0.002001061 -0.002032798 -0.002056237 -0.002067561
 -0.002068178 -0.002056659 -0.002040328 -0.002020183 -0.002003191 -0.001990711 -0.001983592 -0.001982149 -0.001982711 -0.00198508
 -0.001985207 -0.00198297 -0.001975632 -0.001963206 -0.001943946 -0.001918586 -0.00188792 -0.001853726 -0.001820081 -0.001787878
 -0.001761006 -0.001736907 -0.00171507 -0.001691352 -0.001662003 -0.001627343 -0.001585499 -0.00154198 -0.001498201 -0.001457921
 -0.001423015 -0.001389904 -0.001358544 -0.001323794 -0.001285018 -0.001243981 -0.001200918 -0.00116401 -0.001133517 -0.001115624
 -0.001109266 -0.00111301 -0.001124796 -0.001137714 -0.001150274 -0.00115575 -0.001154582 -0.00114421 -0.001126544 -0.001102406
 -0.001073849 -0.001042554 -0.001009653 -0.0009760525 -0.0009423613 -0.0009087905 -0.0008764112 -0.0008455003 -0.0008167225 -0.0007904595
 -0.0007647059 -0.0007394538 -0.000710445 -0.0006774944 -0.0006381756 -0.0005927479 -0.000542768 -0.0004886989 -0.0004336805 -0.0003778522
 -0.0003229178 -0.0002696128 -0.0002199778 -0.0001754016 -0.000139374 -0.0001110069 -9.201301E-05 -7.702972E-05 -6.33376E-05 -4.525252E-05
 -1.814755E-05 1.6298E-05 5.990767E-05 0.0001036229 0.0001458039 0.000179634 0.0002031648 0.0002195752 0.0002286945 0.0002390289
 0.0002509398 0.0002677462 0.0002890846 0.000311953 0.0003365322 0.0003620819 0.000389501 0.0004221192 0.0004587141 0.0004990257
 0.0005397318 0.0005749732 0.000604692 0.0006255151 0.0006417985 0.0006563557 0.0006699755 0.0006853971 0.0006959204 0.0006995937
 0.0006926014 0.0006719903 0.0006465786 0.0006163525 0.0005962211 0.000587585 0.0005987282 0.000630012 0.0006789314 0.000744655
 0.0008176231 0.0008966892 0.0009706696 0.001039361 0.001095668 0.001141252 0.001175851 0.001202241 0.001224475 0.001244665
 0.001266734 0.001291186 0.001320058 0.001351619 0.001386034 0.001419767 0.001451708 0.001479152 0.001500962 0.001517571
 0.001528631 0.001536992 0.001542807 0.001549188 0.001556313 0.001567671 0.001583463 0.001607377 0.001639063 0.001679101
 0.001725881 0.001774569 0.001823288 0.001864941 0.001899848 0.00192467 0.001942401 0.001954648 0.001965068 0.001977088
 0.001992314 0.002012779 0.002037733 0.002067928 0.00209982 0.002133402 0.00216194 0.002184414 0.002195902 0.002195297
 0.002188268 0.002175118 0.002171649 0.002178289 0.002205749 0.00225191 0.002310747 0.002378818 0.002440466 0.002495123
 0.00253273 0.002556846 0.002568258 0.002571584 0.002572329 0.002573324 0.002579055 0.00258876 0.002603511 0.002620869
 0.002639628 0.002660559 0.002682883 0.002711969 0.002748781 0.00279557 0.002853243 0.002913824 0.002976914 0.003030429
 0.003074298 0.003104152 0.00312155 0.003133213 0.00314107 0.003155791 0.003177593 0.003213247 0.00325966 0.003316057
 0.003376097 0.003432767 0.003480164 0.003510193 0.003523923 0.003517813 0.003501598 0.003477467 0.003455444 0.003439395
 0.003429693 0.003427629 0.003426511 0.003425501 0.003423864 0.003421476 0.003427389 0.003441916 0.003471937 0.003516249
 0.003570902 0.003634465 0.003699074 0.003765433 0.003831787 0.003898146 0.003965746 0.004028846 0.004082771 0.004118458
 0.004126074 0.004103604 0.00404324 0.003960731 0.003854284 0.003763059 0.003694892 0.003687585 0.003754099 0.003873663
 0.004048098 0.004221264 0.004389796 0.004531664 0.00464772 0.004749044 0.004836653 0.004923258 0.005006215 0.005082686
 0.005148822 0.005192652 0.005214545 0.005208313 0.005179437 0.005131281 0.005070561 0.005003887 0.004935395 0.004869411
 0.004806822 0.004749108 0.004695282 0.004645421 0.004598209 0.00455345 0.004510102 0.004467968 0.004427162 0.004387646
 0.004352241 0.004321129 0.00429772 0.004281839 0.004274236 0.004274155 0.004279393 0.004288724 0.004298563 0.004306613
 0.004307724 0.004299141 0.004274129 0.004235437 0.004180112 0.004121079 0.004063995 0.004021645 0.004002759 0.004004117
 0.004029725 0.00405774 0.004086193 0.004089619 0.00406403 0.004004656 0.003910463 0.003809474 0.003703573 0.003629112
 0.003584396 0.003576874 0.003600015 0.00363094 0.003667003 0.003687437 0.00369857 0.003701367 0.003704301 0.003719915
 0.003748765 0.003798151 0.003858134 0.003926542 0.003989429 0.004039997 0.004072342 0.004081469 0.004076313 0.004056506
 0.004038465 0.004024339 0.004021337 0.004030337 0.004042315 0.004056555 0.004058537 0.004048883 0.004024093 0.003987662
 0.003951662 0.003919557 0.003908026 0.003915172 0.003947549 0.003995921 0.004052441 0.004106219 0.004144141 0.004162723
 0.004154174 0.004125668 0.00407673 0.004020559 0.00396022 0.0039074 0.003865152 0.003837461 0.003825722 0.003824749
 0.003834361 0.003847311 0.003863446 0.003880788 0.00389961 0.003921273 0.00394554 0.003971921 0.004000375 0.004030172
 0.004062276 0.004099144 0.004138819 0.004181914 0.004220138 0.0042468 0.004254309 0.004233223 0.004190117 0.00412211
 0.004050222 0.003979918 0.003925999 0.003894505 0.003877077 0.00387458 0.003865967 0.003849621 0.003817511 0.003770048
 0.003720285 0.003669593 0.003635124 0.003616104 0.003618596 0.003640294 0.003678357 0.003730011 0.003789761 0.003852993
 0.003911885 0.003961976 0.003995236 0.004013511 0.004014302 0.004005043 0.003988919 0.003968905 0.00394798 0.003919606
 0.003883251 0.003831678 0.003763166 0.003680895 0.003584511 0.003492417 0.003404897</values></Ydata></AB><ScSm><Ydata ylabel="Single channel"><values byteorder="INTEL" format="FLOAT32" numvalues="1814"> 0.07796854 0.0780687 0.07818423 0.07832003 0.07846946 0.07861796 0.07875105 0.0788638 0.07896191 0.07905208
 0.07913794 0.07922828 0.07933804 0.07947379 0.0796241 0.07976634 0.07988185 0.07997171 0.08006172 0.08017841
 0.08031042 0.08040608 0.08042196 0.08037172 0.0803187 0.08031894 0.08038472 0.08051634 0.08073801 0.08104011
 0.08129866 0.08135502 0.08121328 0.08106929 0.08109362 0.08126113 0.08143022 0.08150035 0.08145092 0.08133028
 0.08127968 0.08148944 0.08202586 0.08268888 0.08307315 0.08280266 0.08178197 0.08033189 0.07911228 0.07877674
 0.07950128 0.08078793 0.0818371 0.08219214 0.08198702 0.08160509 0.08127941 0.08108617 0.08112176 0.08148675
 0.08212149 0.08273977 0.08294075 0.08247173 0.08151323 0.08064725 0.08038274 0.08076138 0.08153433 0.08246498
 0.08310224 0.0825543 0.08027746 0.07727326 0.0757772 0.07719287 0.08062318 0.08380441 0.0851685 0.08467206
 0.08314117 0.08154309 0.08073109 0.08115108 0.08255032 0.08422972 0.08559942 0.08633474 0.08622952 0.08529398
 0.08394675 0.08283485 0.08247413 0.08310393 0.08459099 0.08627777 0.08724393 0.08703379 0.08599953 0.08484449
 0.08410296 0.08411488 0.08505619 0.086729 0.08857849 0.09010114 0.091106 0.0916069 0.09170198 0.09155282
 0.09130335 0.09105712 0.09098539 0.09124039 0.09165226 0.09176394 0.09134001 0.09068752 0.09034644 0.09053388
 0.0909592 0.09117591 0.09102453 0.09054749 0.08953469 0.08762769 0.08505459 0.08274167 0.08140752 0.08106005
 0.08158837 0.08306833 0.08504701 0.08632417 0.08616136 0.0852778 0.08507167 0.0861083 0.08776627 0.08914384
 0.08993498 0.0904793 0.09123211 0.09224984 0.09305997 0.09301011 0.09193292 0.09055947 0.0900332 0.09080511
 0.09219672 0.09323645 0.09368147 0.09398791 0.09450555 0.09496924 0.09472788 0.09343964 0.09166 0.09064977
 0.09133486 0.09338939 0.09540579 0.09596155 0.0946312 0.09221466 0.09006573 0.08912136 0.08953947 0.09108273
 0.09344752 0.09612043 0.09830739 0.09933835 0.09912778 0.0981496 0.09692312 0.09553006 0.09380363 0.0920887
 0.09144142 0.09264132 0.09519106 0.0977134 0.09922314 0.09967256 0.09939045 0.09841581 0.09658998 0.0942499
 0.09253529 0.09254335 0.09408109 0.09571633 0.09630104 0.09604447 0.09585858 0.09611063 0.09642293 0.09644046
 0.09635949 0.09664864 0.09745117 0.09840314 0.09902044 0.09914556 0.09898164 0.09880528 0.09870422 0.09852827
 0.0981204 0.09766799 0.09768613 0.09847583 0.09971918 0.1007972 0.1013979 0.1016416 0.1017076 0.1015318
 0.1009208 0.09993702 0.09908268 0.09894338 0.09961864 0.1006472 0.1014969 0.1019599 0.1020981 0.1020413
 0.1019002 0.1017382 0.1015881 0.1015271 0.1016638 0.1019919 0.1023492 0.1025784 0.1026557 0.1026316
 0.1025269 0.102337 0.1020979 0.101906 0.1018573 0.1019704 0.1021841 0.102419 0.1026122 0.1027071
 0.1026733 0.1025464 0.1024054 0.1023016 0.1022394 0.1022201 0.1022603 0.10236 0.1024798 0.1025685
 0.1026042 0.1025982 0.1025672 0.1025181 0.1024587 0.1024077 0.102389 0.1024179 0.1024858 0.1025637
 0.1026358 0.1027213 0.1028337 0.1029345 0.1029644 0.1029189 0.1028559 0.1028326 0.1028612 0.1029215
 0.102986 0.103025 0.1030087 0.1029289 0.1028277 0.1027847 0.1028542 0.1030249 0.1032477 0.103479
 0.1036839 0.1038346 0.1039322 0.104007 0.1040809 0.1041474 0.1041945 0.1042322 0.1042926 0.1044071
 0.1045766 0.1047659 0.104933 0.1050596 0.1051508 0.1052281 0.105326 0.1054632 0.1056061 0.1056957
 0.1057233 0.1057486 0.1058272 0.105947 0.1060503 0.1061038 0.1061294 0.1061731 0.1062561 0.1063613
 0.106461 0.1065471 0.1066345 0.106736 0.1068353 0.1068896 0.1068734 0.1068148 0.1067707 0.106768
 0.1067916 0.106824 0.1068705 0.1069365 0.1070029 0.1070391 0.1070359 0.1070148 0.107002 0.1069985
 0.1069811 0.1069324 0.1068608 0.1067896 0.1067364 0.1067022 0.1066753 0.1066395 0.1065838 0.1065063
 0.1064121 0.1063092 0.1062043 0.1061043 0.1060247 0.1059876 0.1059937 0.1059971 0.1059305 0.1057682
 0.1055547 0.1053627 0.1052294 0.1051362 0.1050408 0.1049177 0.1047718 0.1046233 0.1044877 0.1043679
 0.1042582 0.1041522 0.1040539 0.1039818 0.1039533 0.103957 0.1039491 0.1038915 0.1037891 0.103681
 0.1035994 0.1035489 0.1035178 0.1034952 0.1034805 0.1034835 0.1035116 0.1035517 0.1035769 0.103577
 0.1035726 0.1035942 0.1036579 0.1037619 0.1038876 0.1040006 0.1040717 0.1041083 0.1041515 0.1042341
 0.1043535 0.1044885 0.1046281 0.1047759 0.104936 0.1051083 0.1052938 0.1054989 0.1057301 0.1059842
 0.1062459 0.1064971 0.1067326 0.1069668 0.1072216 0.107508 0.1078171 0.1081302 0.108434 0.1087295
 0.1090263 0.1093306 0.1096403 0.1099541 0.1102798 0.1106259 0.1109884 0.1113524 0.1117069 0.1120536
 0.112401 0.1127549 0.1131161 0.1134852 0.1138675 0.114268 0.1146778 0.1150706 0.1154232 0.1157403
 0.1160515 0.1163849 0.1167476 0.1171249 0.1174894 0.1178184 0.1181154 0.1184111 0.1187307 0.1190664
 0.1193946 0.1197149 0.1200545 0.1204329 0.1208297 0.1211956 0.1214969 0.1217469 0.1219904 0.1222565
 0.1225335 0.1227933 0.1230299 0.1232616 0.1235028 0.1237529 0.1240127 0.1242929 0.1245951 0.1248963
 0.1251688 0.1254081 0.1256312 0.1258505 0.1260597 0.1262437 0.1263949 0.1265219 0.1266476 0.1267924
 0.1269556 0.1271205 0.12728 0.1274466 0.1276337 0.1278423 0.1280709 0.1283255 0.1286059 0.1288939
 0.1291705 0.1294446 0.1297443 0.1300734 0.1303932 0.1306616 0.1308801 0.131084 0.1312988 0.1315269
 0.1317727 0.132052 0.1323714 0.1327123 0.1330448 0.1333515 0.1336405 0.1339388 0.1342647 0.1346021
 0.1349095 0.1351603 0.1353691 0.1355749 0.1358081 0.1360744 0.1363595 0.1366441 0.1369132 0.1371545
 0.137351 0.1374855 0.1375588 0.1375929 0.1376056 0.1375843 0.1374938 0.1373061 0.1370136 0.1366138
 0.1360957 0.1354512 0.1347015 0.1339102 0.133174 0.1325957 0.1322565 0.1321993 0.1324245 0.1328912
 0.1335211 0.1342102 0.1348506 0.1353476 0.1356248 0.1356306 0.1353525 0.1348239 0.134108 0.1332716
 0.1323721 0.1314554 0.1305601 0.129732 0.1290492 0.1286322 0.1286151 0.129098 0.1301126 0.131604
 0.1334247 0.1353599 0.1372008 0.1388223 0.1402049 0.1413907 0.1424311 0.1433689 0.1442409 0.1450727
 0.1458696 0.1466229 0.147327 0.1479833 0.1485889 0.1491301 0.1495874 0.1499439 0.1501937 0.1503486
 0.1504347 0.1504795 0.1505031 0.1505195 0.150533 0.1505223 0.1504366 0.1502194 0.1498435 0.1493276
 0.1487403 0.1482036 0.1478938 0.148009 0.1486926 0.1499465 0.1516062 0.1534132 0.1551303 0.1566136
 0.157814 0.1587502 0.1594816 0.160079 0.1605964 0.1610637 0.1614969 0.1619074 0.1623024 0.1626852
 0.1630599 0.1634323 0.1638069 0.1641826 0.164554 0.164916 0.1652704 0.1656256 0.1659916 0.1663717
 0.1667593 0.1671401 0.167507 0.1678692 0.1682416 0.1686237 0.1689966 0.1693457 0.1696772 0.1700116
 0.1703651 0.1707384 0.1711161 0.1714761 0.1718052 0.1721092 0.1724054 0.1727059 0.1730098 0.1733115
 0.1736091 0.1739054 0.1742031 0.174503 0.1748061 0.1751111 0.175411 0.1756965 0.1759644 0.176222
 0.1764812 0.1767483 0.1770214 0.1772946 0.1775641 0.1778334 0.1781098 0.1783949 0.1786806 0.1789562
 0.1792195 0.179478 0.1797408 0.1800111 0.1802845 0.1805556 0.1808238 0.1810917 0.181359 0.1816222
 0.1818811 0.1821409 0.182405 0.1826706 0.182933 0.1831905 0.1834456 0.1837023 0.1839632 0.1842283
 0.1844954 0.1847619 0.1850247 0.18528 0.1855254 0.185762 0.1859953 0.186232 0.1864763 0.1867274
 0.1869823 0.1872397 0.187499 0.1877579 0.1880133 0.1882661 0.1885193 0.1887737 0.189027 0.1892769
 0.1895248 0.1897742 0.1900273 0.1902815 0.1905324 0.1907797 0.1910261 0.1912727 0.1915179 0.1917616
 0.1920057 0.1922522 0.1925015 0.1927531 0.1930049 0.1932548 0.1935014 0.1937436 0.1939817 0.1942178
 0.1944543 0.1946918 0.1949302 0.1951689 0.1954062 0.1956416 0.1958795 0.1961243 0.1963731 0.1966196
 0.1968614 0.1971013 0.1973419 0.1975844 0.1978292 0.198076 0.1983236 0.1985701 0.1988134 0.1990538
 0.1992948 0.1995395 0.1997858 0.2000309 0.2002757 0.2005224 0.2007723 0.2010275 0.2012889 0.2015527
 0.2018124 0.2020653 0.2023146 0.2025647 0.2028176 0.2030717 0.203326 0.2035841 0.2038498 0.2041204
 0.2043884 0.2046503 0.2049064 0.2051572 0.2054034 0.2056461 0.205883 0.2061121 0.2063347 0.2065533
 0.2067694 0.2069876 0.2072141 0.2074486 0.2076863 0.2079263 0.2081711 0.2084193 0.2086685 0.2089197
 0.2091742 0.2094332 0.2096984 0.2099663 0.2102289 0.2104843 0.2107394 0.2109991 0.2112615 0.2115254
 0.2117923 0.2120623 0.2123339 0.2126039 0.2128688 0.2131308 0.2133979 0.2136708 0.2139415 0.214208
 0.214478 0.2147544 0.2150327 0.2153105 0.2155868 0.2158586 0.2161263 0.2163946 0.2166652 0.2169387
 0.2172182 0.2175022 0.2177837 0.2180613 0.2183398 0.2186185 0.2188945 0.2191709 0.2194495 0.219727
 0.2200052 0.2202873 0.2205659 0.2208325 0.2210914 0.2213497 0.2216084 0.2218713 0.2221405 0.2224019
 0.222627 0.2227619 0.2226694 0.2220563 0.2204315 0.2171165 0.2113825 0.2027434 0.1912502 0.1775687
 0.1627921 0.1481021 0.1344536 0.1224486 0.1124076 0.104492 0.09879354 0.09541953 0.09455732 0.09656061
 0.1020651 0.11161 0.1242545 0.1363865 0.1430783 0.1418192 0.1347907 0.1268872 0.1217321 0.1199047
 0.1201803 0.1213519 0.1229421 0.1250647 0.1280089 0.1318108 0.1362116 0.1410797 0.1466569 0.1531908
 0.1604582 0.167844 0.174859 0.1814572 0.1878552 0.194149 0.2001674 0.2056382 0.2104009 0.2144565
 0.2179075 0.2208935 0.2235398 0.2259319 0.2281285 0.2301635 0.2320043 0.2335341 0.234621 0.2352256
 0.2354484 0.2354826 0.235508 0.2356149 0.2358153 0.2360974 0.2364509 0.2368639 0.2373272 0.2378348
 0.2383742 0.2389282 0.2394875 0.2400464 0.2405922 0.2411111 0.2415992 0.2420582 0.2424908 0.2429026
 0.2432979 0.2436774 0.2440448 0.2444083 0.2447713 0.2451313 0.2454864 0.2458323 0.2461604 0.2464667
 0.2467556 0.247031 0.2472942 0.2475508 0.2478071 0.2480636 0.2483175 0.2485671 0.2488097 0.2490447
 0.2492778 0.2495159 0.2497588 0.2500028 0.2502458 0.2504853 0.2507204 0.2509543 0.2511901 0.2514268
 0.2516635 0.2519025 0.2521431 0.2523811 0.2526124 0.2528377 0.2530639 0.2533028 0.2535604 0.25383
 0.254101 0.2543706 0.2546405 0.2549105 0.2551814 0.2554563 0.2557349 0.256011 0.2562811 0.2565454
 0.2568021 0.2570469 0.2572769 0.2574949 0.2577104 0.2579341 0.258168 0.2584047 0.2586393 0.2588755
 0.2591175 0.259364 0.2596109 0.2598544 0.2600959 0.2603451 0.2606124 0.2608944 0.2611779 0.2614578
 0.261739 0.2620237 0.2623092 0.2625952 0.262883 0.2631685 0.2634461 0.2637183 0.263999 0.2643045
 0.2646385 0.2649854 0.2653223 0.2656388 0.2659411 0.2662437 0.2665601 0.2668892 0.2672014 0.2674612
 0.2676781 0.2679147 0.2682254 0.2686023 0.2689939 0.2693608 0.2696999 0.2700247 0.2703426 0.2706496
 0.2709354 0.2711933 0.2714336 0.2716925 0.2720103 0.2723866 0.2727736 0.2731249 0.2734357 0.2737259
 0.2740095 0.2742907 0.2745562 0.2747642 0.2748841 0.2749705 0.2751535 0.2755196 0.2760187 0.2765156
 0.2769212 0.2772478 0.2775472 0.2778418 0.2781261 0.2783744 0.2785119 0.2784578 0.2782753 0.2782168
 0.278516 0.2791506 0.2798811 0.2804926 0.2809339 0.2812611 0.2815395 0.2818018 0.2820301 0.2821575
 0.2821401 0.282064 0.282132 0.2824798 0.2830216 0.2835431 0.2839251 0.2842105 0.2844833 0.2847745
 0.2850472 0.2851767 0.2850019 0.2845449 0.2841604 0.2843055 0.2850979 0.2861828 0.2870884 0.2876445
 0.2879869 0.2882313 0.2883006 0.2880704 0.2875255 0.286763 0.286036 0.2857985 0.2864114 0.2876795
 0.2889283 0.289679 0.2900622 0.2904807 0.2910844 0.2917018 0.2921181 0.2922714 0.2922212 0.2920198
 0.2916829 0.291329 0.2912683 0.291784 0.2928011 0.2939018 0.2947167 0.2952158 0.2955455 0.2956032
 0.2949228 0.2932276 0.2911645 0.2901435 0.2910855 0.2934512 0.2958238 0.29731 0.2980315 0.2984609
 0.2988073 0.2989572 0.2984664 0.2967054 0.293714 0.2909496 0.290405 0.2926416 0.2961593 0.2988506
 0.2996118 0.2985677 0.2965326 0.2946345 0.2939156 0.2947673 0.2967659 0.2991044 0.3010759 0.3022657
 0.3025806 0.3022124 0.3015595 0.3011183 0.3011688 0.3013555 0.3009122 0.2996563 0.298341 0.2974962
 0.2964578 0.2944516 0.2923144 0.2919743 0.2940645 0.2970097 0.2988576 0.2992823 0.2992236 0.2989923
 0.2975055 0.2937098 0.2885273 0.2848243 0.2849585 0.2884275 0.2923678 0.2943689 0.2943781 0.2938834
 0.2938181 0.2935736 0.2919076 0.2887055 0.2856675 0.2847868 0.2861122 0.2876715 0.2876546 0.2856823
 0.281848 0.2762638 0.2705678 0.2682337 0.2714998 0.2785804 0.2852471 0.2884815 0.2874161 0.2820695
 0.2736536 0.2658845 0.2633139 0.2671315 0.2737771 0.2783885 0.2786347 0.2748136 0.2678689 0.2589726
 0.2505516 0.2459897 0.2474709 0.2542266 0.2626835 0.2680158 0.2666145 0.2589807 0.2504373 0.2471199
 0.2502134 0.2551779 0.2570888 0.2552668 0.2522498 0.2503261 0.2502685 0.2517792 0.2538326 0.2554826
 0.2565932 0.2564923 0.25262 0.2433732 0.2323499 0.2264408 0.2287174 0.2359513 0.2438549 0.2513847
 0.258347 0.262311 0.2611984 0.2574075 0.2562771 0.2603798 0.2670652 0.271831 0.2728844 0.2718627
 0.2708475 0.2698774 0.267995 0.2659426 0.26619 0.2698637 0.2749865 0.2786257 0.2798363 0.2796592
 0.2791511 0.278497 0.2775574 0.276306 0.2747879 0.2731358 0.2715628 0.2701347 0.2687245 0.267276
 0.2657363 0.2634788 0.2593588 0.2532172 0.247158 0.2441085 0.244761 0.2471373 0.2494284 0.2513059
 0.251565 0.247147 0.2371314 0.2263166 0.2219208 0.2266047 0.2363464 0.2449426 0.2489019 0.2478815
 0.2425959 0.2344938 0.2272568 0.2261609 0.2340098 0.248193 0.2630244 0.2745444 0.2820237 0.2857651
 0.2855967 0.2820088 0.2774302 0.2752699 0.27758 0.2837104 0.290813 0.2951669 0.2937933 0.2869109
 0.2795827 0.2786573 0.2859662 0.2958773 0.3015094 0.3019462 0.3012286 0.3019531 0.3030462 0.3033068
 0.3038998 0.3063777 0.3101182 0.3128394 0.3126471 0.308832 0.3018544 0.2938923 0.2885025 0.2878202
 0.2902201 0.2922 0.2919861 0.2895702 0.2845035 0.2768587 0.2700024 0.2687907 0.2740479 0.2813196
 0.2859507 0.2874205 0.2879093 0.2883654 0.2873861 0.2835696 0.2780082 0.2738172 0.2730818 0.2748911
 0.2768315 0.2775951 0.2771897 0.2754399 0.2719883 0.2678882 0.2657431 0.2674003 0.2719871 0.2767779
 0.2797186 0.2806904 0.2807014 0.2806131 0.2806844 0.2807299 0.2805432 0.2804899 0.2815446 0.2842218
 0.2876326 0.2902768 0.2917608 0.2931177 0.2953551 0.2982286 0.3006267 0.3018048 0.302048 0.302314
 0.3033711 0.3051651 0.3068746 0.3076389 0.3074039 0.3070806 0.3077239 0.3095243 0.3117294 0.3135036
 0.3146296 0.315396 0.3161235 0.3168946 0.3175166 0.3176916 0.3174222 0.3172553 0.3178758 0.3193966
 0.3212196 0.3226337 0.3233884 0.3236646 0.3236824 0.3234863 0.3230512 0.3224574 0.3218986 0.3215389
 0.3214 0.321389 0.3214008 0.3213798 0.321323 0.3212664 0.3212607 0.3213331 0.3214739 0.3216614
 0.3218772 0.3220888 0.3222536 0.3223627 0.3224505 0.3225363 0.3225791 0.3225029 0.3222466 0.3217687
 0.3210304 0.3199985 0.3186521 0.3169635 0.3148974 0.3125112 0.3101272 0.308369 0.3078994 0.3089977
 0.3113398 0.3141868 0.3168067 0.3187897 0.3200846 0.3208412 0.3212416 0.3214204 0.3214581 0.3213944
 0.3212445 0.3210196 0.3207386 0.3204252 0.3201024 0.3197907 0.3195062 0.3192528 0.3190165 0.3187677
 0.3184732 0.3181094 0.3176666 0.317144 0.3165441 0.315866 0.3150964 0.3142167 0.3132304 0.3121818
 0.311137 0.3101435 0.3092059 0.3082927 0.3073624 0.3063754 0.3052765 0.303991 0.3024958 0.3009142
 0.2994831 0.2983654 0.2975058 0.2966968 0.2957637 0.294659 0.2934175 0.2920856 0.2906981 0.2892787
 0.2878345 0.2863529 0.2848067 0.2831682 0.2814236 0.2795789 0.2776496 0.2756528 0.2736091 0.2715383
 0.269428 0.2672011 0.2647193 0.2618225 0.2583722 0.2542788 0.2495213 0.2441664 0.2383747 0.2323729
 0.2263992 0.220657 0.2153041 0.2104695 0.2062671 0.2027937 0.2001211 0.1982931 0.1973296 0.197232
 0.1979827 0.1995424 0.2018431 0.2047761 0.2081855 0.2118782 0.2156453 0.219291 0.2226776 0.2257691
 0.2286211 0.2313032 0.2338264 0.2361471 0.2382243 0.2400499 0.2416328 0.2429784 0.2440932 0.2449995
 0.2457384 0.246357 0.2468911 0.2473554 0.2477478 0.2480634 0.2483068 0.2484978 0.2486669 0.2488479
 0.2490662 0.2493327 0.2496468 0.2500091 0.2504295 0.2509235 0.2514995 0.2521509 0.2528563 0.253593
 0.2543544 0.25516 0.2560495 0.2570699 0.2582635 0.2596551 0.2612391 0.2629724 0.264774 0.2665313
 0.2681236 0.2694572 0.2704882 0.2712181 0.2716712 0.2718775 0.2718686 0.2716765 0.2713293 0.270847
 0.2702482 0.2695569 0.2687969 0.267979 0.2671023 0.2661689 0.2651938 0.2642026 0.2632173 0.262246
 0.2612866 0.2603413 0.2594187 0.2585214 0.2576441 0.2567856 0.2559538 0.2551573 0.2544008 0.2536862
 0.2530066 0.2523383 0.2516415 0.2508658 0.2499642 0.2489089 0.2476934 0.2463201 0.2447943 0.2431304
 0.2413512 0.2394777 0.2375242 0.2355007 0.2334128 0.2312571 0.2290176 0.2266743 0.2242351 0.2217671
 0.2193757 0.2171432 0.2150927 0.2132042 0.2114434 0.2097775 0.2081848 0.2066546 0.2051803 0.2037589
 0.2023957 0.2010994 0.1998731 0.1987169 0.1976334 0.1966316 0.1957329 0.1949633 0.1943288 0.193807
 0.1933678 0.1929913 0.1926755 0.1924461 0.1923436 0.1923724 0.19247 0.1925437 0.1925343 0.1924413
 0.1923091 0.1921918 0.1921177 0.1920825 0.192064 0.1920177 0.1918645 0.1915057 0.1908512 0.1898302
 0.1884046 0.1865959 0.1844903 0.1822184 0.1799403 0.1778212 0.1759864 0.1744974 0.1733587 0.172521
 0.1718906 0.1713855 0.170996 0.1707869 0.1708389 0.1711588 0.1716107 0.1719736 0.1721327 0.1722024
 0.1724257 0.1729709 0.1738311 0.1748635 0.17589 0.1767882 0.1775131 0.1780592 0.1784404 0.1786952
 0.1788595 0.1789319 0.1788912 0.178728 0.1784421 0.178043 0.1775593 0.17701 0.1763786 0.1756457
 0.1748151 0.1738917 0.172874 0.1717657 0.1705494 0.1691855 0.1677125 0.16633 0.165331 0.1649495
 0.1652405 0.1660494 0.16712 0.168271 0.1694239 0.1704786 0.1713105 0.1719666 0.1727567 0.1740506
 0.1759698 0.1782678 0.1804976 0.1822972 0.1835165 0.1841356 0.1841874 0.1837509 0.1828897 0.1815907
 0.1798565 0.1777964 0.1755574 0.1732639 0.1710575 0.1690642 0.1673309 0.165877 0.164718 0.1638533
 0.1633429 0.1629172 0.1610152 0.1553243 0.1460562 0.1380761 0.1372296 0.1440405 0.1529818 0.1584088
 0.1593554 0.1581958 0.1569155 0.1559579 0.1552582 0.154885 0.1548819 0.1551327 0.155409 0.1554789
 0.1552458 0.1547264 0.1537946 0.1519543 0.1483383 0.1420187 0.132688 0.121296 0.1098534 0.1003675
 0.09384756 0.0900923 0.08812671 0.08688319 0.08581095 0.0850627 0.08513533 0.08635572 0.08869745 0.09194529
 0.09585673 0.1001177 0.1042682 0.1078447 0.1106359 0.1127161 0.1142266 0.1152231 0.1157269 0.1157966
 0.1155128 0.1149545 0.1141938 0.1132608 0.1121247 0.110757 0.1092299 0.1077493 0.1065662 0.1058144
 0.1054307 0.1052536 0.1051734 0.1051609 0.1052089 0.1053069 0.1054479 0.1056278 0.1058538 0.1061464
 0.1065006 0.106857 0.1071433 0.1073305 0.1074319 0.1074588 0.1073837 0.1071608 0.106806 0.1064183
 0.1060446 0.105544 0.104695 0.1034753 0.1021822 0.1012521 0.1009583 0.1012412 0.1017803 0.1022416
 0.1024879 0.1025864 0.102646 0.1026597</values></Ydata></ScSm><ScRf><Ydata ylabel="Single channel"><values byteorder="INTEL" format="FLOAT32" numvalues="1820"> 0.07048185 0.07061385 0.07073076 0.07083149 0.07092139 0.07101307 0.07112017 0.07124706 0.07138573 0.07152238
 0.07164699 0.07175902 0.07186267 0.07195682 0.07203839 0.07211775 0.07221748 0.0723485 0.07249548 0.07262999
 0.07273397 0.07281347 0.07289574 0.07300426 0.07312785 0.07322033 0.07324195 0.07320282 0.07315922 0.07316324
 0.07322647 0.07334796 0.07354994 0.07382604 0.0740638 0.07411577 0.07398391 0.07384924 0.07387082 0.07402627
 0.0741847 0.07425253 0.07421011 0.07410189 0.07405903 0.07425797 0.07475942 0.07537735 0.07573771 0.07549601
 0.0745675 0.07324845 0.07214165 0.07184035 0.07250184 0.07367212 0.07462522 0.07494752 0.074762 0.07441792
 0.07412743 0.07395959 0.07400161 0.07434423 0.07493113 0.07549869 0.07567952 0.07524529 0.07436669 0.07358022
 0.0733505 0.0737099 0.07442489 0.07527688 0.07585612 0.07535274 0.07327415 0.07053631 0.06917921 0.07048199
 0.07362321 0.07653423 0.07778241 0.07732879 0.07593027 0.07447283 0.07373589 0.07412411 0.07540415 0.07693745
 0.07818657 0.07885553 0.07875616 0.07789923 0.07667024 0.07566332 0.0753503 0.07594728 0.07732775 0.07888681
 0.07978186 0.07959659 0.07865289 0.07759342 0.07690905 0.07691582 0.07777862 0.0793154 0.08101429 0.0824129
 0.08333898 0.08380745 0.08390611 0.08377861 0.08355491 0.08333164 0.08326783 0.08350332 0.0838827 0.08398899
 0.08360851 0.08302198 0.08272122 0.08290292 0.08330052 0.08350474 0.08336808 0.08292887 0.08199653 0.08024543
 0.07788603 0.0757679 0.07455071 0.07424226 0.07473911 0.0761067 0.07792646 0.07909833 0.07894924 0.07814279
 0.07796204 0.07892372 0.08045664 0.08173399 0.08247495 0.08298838 0.08368856 0.08462667 0.08537228 0.08532968
 0.08434562 0.08309087 0.08261696 0.08333954 0.08463368 0.08560357 0.08602521 0.08631854 0.08680412 0.08723611
 0.08701652 0.08583623 0.08421111 0.08330039 0.08395022 0.08585591 0.08772242 0.08824335 0.08702895 0.08481599
 0.0828514 0.08199725 0.08239638 0.0838287 0.08601768 0.08849719 0.09054012 0.0915259 0.09136635 0.09049013
 0.08937532 0.08810258 0.08652376 0.0849601 0.08438777 0.08552638 0.08791379 0.09027293 0.09168971 0.09212045
 0.09187381 0.09099132 0.08932807 0.08719304 0.08563682 0.08567362 0.08712567 0.08866725 0.08923414 0.08901966
 0.0888703 0.08912904 0.08944814 0.08949907 0.08946171 0.08976659 0.09054388 0.0914572 0.0920602 0.09220695
 0.09208389 0.09194712 0.09187976 0.09174427 0.09139676 0.09101282 0.09106945 0.09184039 0.09302512 0.09405047
 0.09463456 0.09489519 0.09499768 0.09487456 0.09433801 0.09344497 0.09267074 0.09257092 0.09324177 0.09424792
 0.09508468 0.09555391 0.0957149 0.09569217 0.09559131 0.09547261 0.09536704 0.09534673 0.09551103 0.09585204
 0.09621808 0.09646393 0.09656937 0.09658276 0.09652378 0.09638613 0.09620021 0.09605293 0.09603342 0.09616194
 0.0963852 0.0966325 0.09684549 0.096968 0.0969667 0.09687452 0.09676965 0.09670286 0.09667589 0.09668641
 0.09675103 0.09687287 0.09701561 0.09712972 0.09719439 0.09722018 0.09722003 0.09719668 0.09715807 0.09712781
 0.09713449 0.097192 0.09728579 0.09738292 0.0974704 0.0975723 0.09770422 0.09782636 0.09787939 0.09785937
 0.09782359 0.09782729 0.09788091 0.09796263 0.09804415 0.09809859 0.09810141 0.09804705 0.09797361 0.09795314
 0.09803657 0.0982161 0.09844873 0.09869328 0.09891304 0.09907742 0.09918663 0.09927287 0.09936076 0.09944405
 0.09950878 0.09956416 0.09964392 0.09977955 0.09996887 0.100173 0.1003507 0.1004876 0.1005916 0.1006835
 0.1007962 0.1009476 0.1011041 0.1012074 0.1012498 0.1012913 0.1013861 0.1015194 0.101631 0.1016863
 0.1017084 0.1017471 0.1018281 0.1019371 0.1020462 0.1021464 0.1022522 0.1023756 0.102497 0.1025692
 0.1025646 0.1025136 0.1024764 0.102482 0.1025151 0.1025585 0.102618 0.1026978 0.1027758 0.1028201
 0.1028247 0.1028168 0.102826 0.1028505 0.1028611 0.1028352 0.1027798 0.1027206 0.1026796 0.1026615
 0.1026539 0.1026359 0.1025937 0.1025292 0.1024544 0.1023793 0.1023062 0.1022375 0.1021888 0.102184
 0.1022223 0.1022525 0.1022021 0.1020463 0.1018359 0.1016508 0.1015301 0.1014517 0.1013666 0.1012454
 0.1010945 0.1009397 0.1007994 0.1006736 0.1005535 0.1004352 0.1003278 0.1002508 0.100217 0.1002082
 0.1001775 0.1000895 0.09995531 0.09981887 0.09971301 0.09963945 0.09958419 0.09953701 0.09949782 0.09947547
 0.0994771 0.09949235 0.0994972 0.09948045 0.09945837 0.09945892 0.09950097 0.09958705 0.09969892 0.09979847
 0.09985425 0.09987497 0.09990263 0.09996848 0.1000688 0.100185 0.1003101 0.1004463 0.1005926 0.1007461
 0.1009104 0.1010938 0.1013 0.1015239 0.1017545 0.1019796 0.1021934 0.1024043 0.1026323 0.1028922
 0.1031784 0.103469 0.1037457 0.104008 0.1042692 0.1045395 0.1048184 0.1051032 0.1053986 0.1057111
 0.1060382 0.1063687 0.1066942 0.1070158 0.1073384 0.1076642 0.1079912 0.1083192 0.1086569 0.1090163
 0.1093931 0.1097591 0.1100849 0.1103715 0.110649 0.1109483 0.1112776 0.1116223 0.1119557 0.1122564
 0.1125289 0.1128018 0.1130974 0.1134077 0.1137117 0.1140122 0.1143387 0.1147097 0.1150985 0.1154479
 0.1157215 0.1159388 0.1161533 0.1163969 0.1166531 0.1168887 0.1170982 0.1173053 0.117529 0.1177664
 0.118012 0.1182737 0.1185557 0.1188386 0.1190933 0.1193119 0.119511 0.119706 0.1198918 0.1200503
 0.1201702 0.1202623 0.1203563 0.1204786 0.1206279 0.1207821 0.120928 0.1210751 0.1212376 0.1214183
 0.1216172 0.1218403 0.1220881 0.1223433 0.1225894 0.1228371 0.1231149 0.1234241 0.1237229 0.1239689
 0.1241655 0.1243504 0.1245492 0.1247625 0.1249909 0.1252462 0.1255336 0.125839 0.126139 0.1264203
 0.1266907 0.126974 0.1272852 0.1276052 0.1278896 0.1281117 0.1282899 0.1284705 0.1286887 0.1289499
 0.1292367 0.1295261 0.1298011 0.1300497 0.1302575 0.1304103 0.1305094 0.1305765 0.1306309 0.1306614
 0.1306307 0.1305053 0.1302734 0.129933 0.1294763 0.1288974 0.1282161 0.127493 0.1268204 0.1262962
 0.1259958 0.1259563 0.1261749 0.1266135 0.127202 0.1278472 0.1284513 0.1289274 0.1292035 0.1292286
 0.1289888 0.1285163 0.1278716 0.1271165 0.1263022 0.1254695 0.1246522 0.1238911 0.1232615 0.1228825
 0.1228844 0.1233588 0.1243273 0.1257269 0.1274062 0.1291551 0.1307821 0.1321882 0.1333767 0.1344001
 0.1353083 0.1361366 0.1369133 0.1376566 0.1383675 0.1390385 0.1396679 0.1402602 0.1408143 0.1413178
 0.1417514 0.1420969 0.1423448 0.1425035 0.142596 0.1426456 0.1426661 0.1426675 0.1426567 0.1426203
 0.1425167 0.1422955 0.1419306 0.1414398 0.14089 0.1403994 0.1401329 0.1402671 0.140918 0.1420683
 0.1435567 0.1451526 0.1466567 0.1479526 0.1490004 0.1498159 0.1504533 0.1509779 0.1514385 0.1518598
 0.1522545 0.1526323 0.1529982 0.1533535 0.1536995 0.1540394 0.1543769 0.1547155 0.1550565 0.155396
 0.1557296 0.156059 0.1563933 0.1567401 0.1570957 0.1574494 0.157796 0.1581421 0.1584937 0.1588435
 0.1591779 0.1594941 0.159804 0.1601219 0.1604547 0.1608005 0.16115 0.1614883 0.1618042 0.1620985
 0.1623829 0.1626689 0.1629601 0.1632532 0.1635444 0.1638319 0.1641147 0.1643928 0.1646694 0.1649494
 0.165232 0.165509 0.165773 0.1660261 0.1662774 0.1665327 0.1667902 0.1670453 0.1672964 0.1675486
 0.1678092 0.168081 0.1683576 0.1686267 0.1688806 0.1691221 0.1693613 0.1696058 0.1698574 0.1701146
 0.1703749 0.1706345 0.1708889 0.1711375 0.1713848 0.1716359 0.1718922 0.1721508 0.1724079 0.172661
 0.1729095 0.173154 0.1733962 0.1736399 0.1738903 0.1741495 0.1744121 0.174669 0.1749145 0.1751488
 0.1753745 0.1755957 0.1758179 0.176047 0.1762866 0.1765369 0.1767941 0.1770515 0.1773026 0.1775448
 0.1777799 0.1780114 0.1782441 0.1784821 0.178727 0.1789768 0.1792281 0.1794773 0.1797222 0.1799635
 0.1802031 0.1804414 0.1806773 0.1809112 0.181145 0.1813809 0.1816193 0.1818583 0.1820945 0.1823271
 0.1825594 0.1827949 0.1830335 0.1832725 0.1835098 0.183746 0.1839825 0.1842195 0.1844552 0.1846902
 0.1849289 0.1851733 0.1854194 0.1856613 0.1858969 0.1861272 0.1863556 0.1865877 0.1868266 0.1870695
 0.1873111 0.1875505 0.1877895 0.1880287 0.1882673 0.1885054 0.1887441 0.1889849 0.1892285 0.1894736
 0.1897196 0.1899687 0.1902217 0.1904756 0.1907278 0.1909795 0.1912313 0.1914817 0.1917312 0.1919824
 0.1922363 0.1924929 0.1927515 0.1930107 0.1932692 0.1935281 0.1937858 0.1940356 0.1942737 0.1945038
 0.1947307 0.1949561 0.1951807 0.1954058 0.1956322 0.1958601 0.1960899 0.1963206 0.1965522 0.1967875
 0.1970284 0.1972732 0.1975203 0.19777 0.1980201 0.198269 0.1985189 0.1987708 0.1990229 0.1992762
 0.1995352 0.1998003 0.2000685 0.2003385 0.2006075 0.2008707 0.201129 0.2013879 0.2016488 0.2019101
 0.2021738 0.2024409 0.2027079 0.2029738 0.2032423 0.2035138 0.2037874 0.2040652 0.2043464 0.2046233
 0.2048914 0.2051542 0.2054152 0.2056774 0.2059464 0.2062222 0.2064981 0.2067729 0.2070516 0.2073332
 0.2076134 0.2078941 0.208178 0.208462 0.2087438 0.2090231 0.2092956 0.2095606 0.2098255 0.2100923
 0.2103545 0.2106131 0.2108732 0.2111266 0.2113483 0.2114871 0.2114112 0.2108423 0.209315 0.2061861
 0.2007611 0.192573 0.1816643 0.1686662 0.1546218 0.1406601 0.1276906 0.1162832 0.1067403 0.09921609
 0.09380038 0.09059612 0.0897803 0.09168702 0.09691992 0.1059945 0.1180207 0.1295659 0.1359423 0.1347585
 0.1280873 0.1205841 0.1156964 0.1139756 0.1142548 0.1153835 0.1169056 0.11893 0.1217335 0.1253526
 0.1295443 0.1341868 0.1395115 0.1457521 0.1526929 0.1597453 0.166441 0.1727349 0.178836 0.1848416
 0.1905921 0.1958252 0.2003795 0.2042512 0.2075428 0.2103964 0.2129355 0.2152371 0.2173513 0.2193091
 0.221081 0.2225562 0.223609 0.2242015 0.2244306 0.2244819 0.2245267 0.2246478 0.2248527 0.2251323
 0.2254824 0.2258951 0.2263586 0.2268632 0.2273958 0.2279406 0.2284873 0.2290286 0.2295536 0.2300561
 0.230537 0.2309952 0.2314271 0.2318368 0.2322321 0.2326141 0.2329832 0.2333449 0.2337031 0.2340573
 0.2344085 0.2347567 0.2350945 0.2354139 0.2357137 0.2359964 0.2362649 0.2365252 0.2367831 0.2370408
 0.2372993 0.2375585 0.2378139 0.2380612 0.2383029 0.2385442 0.2387855 0.239027 0.2392704 0.2395146
 0.2397551 0.2399932 0.2402334 0.2404757 0.2407166 0.240955 0.2411928 0.2414322 0.2416728 0.2419114
 0.2421489 0.2423944 0.2426555 0.2429263 0.2431943 0.243458 0.2437253 0.2439985 0.244273 0.2445457
 0.244817 0.2450893 0.2453663 0.2456476 0.2459237 0.2461822 0.24642 0.2466447 0.2468686 0.2471002
 0.2473387 0.247577 0.2478122 0.2480491 0.2482926 0.2485434 0.248799 0.2490546 0.2493064 0.2495588
 0.249823 0.250103 0.2503908 0.2506786 0.2509656 0.2512534 0.2515435 0.2518386 0.2521367 0.2524278
 0.2527041 0.2529725 0.2532537 0.253566 0.2539083 0.2542574 0.2545878 0.2548955 0.2551964 0.2555073
 0.255834 0.2561669 0.2564778 0.2567393 0.2569642 0.2572111 0.2575312 0.2579195 0.2583275 0.2587117
 0.25906 0.2593831 0.2596942 0.2599957 0.2602784 0.2605335 0.2607715 0.2610295 0.2613469 0.2617243
 0.2621191 0.2624879 0.2628198 0.2631229 0.2634062 0.263681 0.263947 0.2641707 0.2643197 0.2644368
 0.2646384 0.2650047 0.2654902 0.2659706 0.266368 0.266701 0.2670196 0.2673373 0.2676398 0.2679005
 0.2680523 0.2680205 0.2678641 0.2678242 0.2681277 0.2687577 0.269485 0.2701005 0.2705507 0.2708869
 0.271172 0.2714413 0.2716818 0.2718294 0.2718371 0.2717822 0.2718611 0.2722124 0.2727591 0.2732903
 0.2736831 0.2739753 0.2742519 0.2745469 0.2748267 0.2749705 0.2748228 0.2744045 0.2740585 0.2742262
 0.2750194 0.2760917 0.2769855 0.2775392 0.2778889 0.2781484 0.2782417 0.2780459 0.2775443 0.2768302
 0.2761485 0.2759392 0.2765513 0.2777965 0.2790242 0.2797732 0.2801696 0.2805996 0.2812066 0.2818282
 0.2822617 0.282447 0.2824353 0.2822698 0.281964 0.2816379 0.2815973 0.2821178 0.2831259 0.2842166
 0.2850327 0.2855448 0.2858934 0.2859768 0.2853404 0.2837157 0.2817327 0.2807634 0.281703 0.2840273
 0.2863606 0.2878372 0.288575 0.2890306 0.2894046 0.2895844 0.2891355 0.2874464 0.2845612 0.281903
 0.2814074 0.2836147 0.2870641 0.2897108 0.2904859 0.2895094 0.2875691 0.2857581 0.2850893 0.2859455
 0.2879174 0.2902202 0.2921652 0.2933511 0.2936924 0.2933772 0.2927866 0.2923926 0.2924624 0.2926567
 0.2922436 0.2910541 0.2898177 0.2890414 0.2880746 0.2861656 0.2841316 0.2838511 0.2859408 0.2888671
 0.2907282 0.2912035 0.2912026 0.2910241 0.289616 0.2859603 0.2809597 0.2774037 0.2775846 0.2810134
 0.2849057 0.286916 0.2869926 0.286583 0.2865941 0.2864275 0.2848667 0.2818021 0.2789028 0.2781234
 0.2795113 0.2811335 0.2812187 0.2793952 0.2757505 0.2703889 0.2649144 0.2627358 0.2660548 0.2731274
 0.2798097 0.2831364 0.2822448 0.2771402 0.2690101 0.2615187 0.259156 0.2630946 0.2698221 0.2745465
 0.274975 0.2714044 0.2647665 0.2562217 0.2481773 0.2439913 0.2458389 0.2529651 0.2618108 0.2675429
 0.2665307 0.2592653 0.2510803 0.2481276 0.2515926 0.2569166 0.2591556 0.2576261 0.2548785 0.2532246
 0.2534631 0.2553033 0.2576948 0.2596584 0.2610403 0.2611389 0.2573273 0.2479607 0.2367091 0.2306108
 0.2328146 0.2400437 0.2479362 0.2554351 0.2623535 0.2662247 0.2649309 0.2608995 0.259551 0.2635067
 0.2700902 0.2747428 0.2756502 0.2744774 0.2733448 0.2723043 0.2703911 0.268353 0.2686834 0.2725216
 0.2778696 0.2817591 0.2832277 0.2833233 0.283117 0.2827992 0.2822274 0.2813688 0.2802628 0.2790396
 0.277911 0.276938 0.2759846 0.2749893 0.2738937 0.2720429 0.268239 0.2622961 0.2563707 0.2534756
 0.2543198 0.2568626 0.2592489 0.2611502 0.2613141 0.2565628 0.2459467 0.2344541 0.2295751 0.2340609
 0.2437336 0.2521706 0.2557781 0.2542345 0.2483153 0.2395303 0.2316325 0.2299686 0.237366 0.2511689
 0.2656151 0.2767015 0.2837094 0.2869786 0.2863687 0.2823868 0.2774658 0.2750058 0.2770403 0.2828993
 0.2897235 0.2937996 0.2921731 0.2850767 0.2775475 0.2763899 0.2834324 0.2930995 0.2985614 0.2988859
 0.2980575 0.2986515 0.2996265 0.2998121 0.3003657 0.3028204 0.3065606 0.3093313 0.3092589 0.3056378
 0.2989186 0.2912565 0.2861744 0.2857765 0.2884222 0.2906076 0.2905643 0.2882917 0.2833525 0.2758324
 0.2691067 0.2680327 0.2734302 0.2808396 0.2856047 0.2872096 0.2878439 0.2884657 0.2876766 0.2840686
 0.2787218 0.2747426 0.2742181 0.2762468 0.2784257 0.2794564 0.2793512 0.2779258 0.2748064 0.2710456
 0.269269 0.2713393 0.2763555 0.2815268 0.284735 0.2858265 0.2857987 0.2855148 0.285245 0.2848268
 0.2840856 0.2834266 0.2838679 0.2859596 0.288828 0.2909716 0.291997 0.2929451 0.2948274 0.2973889
 0.2995031 0.3004211 0.3004306 0.3004851 0.3013417 0.3029389 0.3044578 0.3050431 0.3046439 0.3041716
 0.3046845 0.3063815 0.3085201 0.3102681 0.311399 0.3121843 0.3129328 0.3137265 0.3143778 0.314586
 0.3143376 0.3141597 0.3147301 0.3161715 0.3179051 0.3192365 0.3199256 0.320159 0.3201613 0.3199789
 0.3195801 0.3190306 0.3185117 0.3181861 0.3180803 0.3181025 0.3181444 0.3181486 0.3181137 0.3180788
 0.3180981 0.3181998 0.3183698 0.3185795 0.3188075 0.319024 0.3191908 0.3193027 0.3193958 0.3194888
 0.319539 0.3194714 0.3192293 0.3187768 0.3180783 0.3170974 0.3158041 0.3141629 0.3121421 0.3098128
 0.3075042 0.3058284 0.3054277 0.3065706 0.3089379 0.3118017 0.3144354 0.3164284 0.3177261 0.3184762
 0.3188618 0.3190208 0.3190353 0.3189436 0.3187582 0.3184892 0.3181576 0.317792 0.3174204 0.3170655
 0.3167403 0.3164457 0.31617 0.3158892 0.3155704 0.3151843 0.314719 0.3141787 0.3135712 0.3128967
 0.3121416 0.311286 0.3103265 0.3092981 0.3082663 0.3072893 0.3063822 0.3055131 0.3046329 0.3036988
 0.3026617 0.3014551 0.3000582 0.2985871 0.2972657 0.2962479 0.2954796 0.2947627 0.2939304 0.2929324
 0.2917933 0.2905516 0.2892438 0.2879023 0.2865419 0.2851525 0.2837058 0.2821707 0.2805288 0.2787831
 0.2769509 0.2750539 0.2731154 0.2711533 0.2691528 0.2670386 0.2646793 0.2619226 0.258635 0.254726
 0.2501663 0.2450094 0.2394039 0.2335697 0.2277434 0.2221293 0.2168887 0.2121524 0.2080316 0.204618
 0.2019818 0.2001707 0.1992093 0.1991003 0.1998278 0.2013558 0.2036164 0.2064972 0.2098389 0.2134522
 0.2171382 0.220711 0.2240351 0.2270681 0.2298578 0.2324748 0.2349382 0.2372094 0.2392435 0.2410266
 0.2425672 0.2438705 0.2449387 0.2457915 0.2464763 0.247051 0.2475554 0.2479983 0.2483689 0.2486567
 0.2488679 0.2490295 0.2491793 0.2493482 0.249549 0.249781 0.2500438 0.2503478 0.2507115 0.2511522
 0.2516778 0.2522846 0.2529588 0.2536835 0.2544497 0.2552648 0.2561551 0.2571601 0.2583175 0.2596452
 0.261133 0.2627436 0.2644128 0.2660475 0.2675398 0.2687976 0.2697703 0.2704499 0.2708532 0.2710035
 0.2709266 0.2706554 0.2702285 0.2696779 0.2690243 0.2682871 0.2674894 0.2666472 0.2657593 0.2648162
 0.2638185 0.2627893 0.2617637 0.2607672 0.2598066 0.2588785 0.2579787 0.2570999 0.2562356 0.2553875
 0.2545652 0.2537784 0.2530335 0.2523321 0.2516639 0.2510042 0.2503178 0.2495605 0.2486854 0.2476596
 0.2464736 0.245132 0.2436444 0.2420253 0.2402902 0.23845 0.2365122 0.2344854 0.2323779 0.2301952
 0.2279372 0.2255969 0.2231816 0.2207438 0.2183749 0.2161544 0.2141116 0.2122339 0.210492 0.2088557
 0.2073003 0.2058066 0.2043614 0.202966 0.2016363 0.2003824 0.1991983 0.1980767 0.1970249 0.1960597
 0.1951999 0.1944588 0.1938332 0.1933046 0.1928558 0.1924791 0.1921764 0.19197 0.1918949 0.1919524
 0.192078 0.1921777 0.1921908 0.1921201 0.1920165 0.1919375 0.1919087 0.1919209 0.1919481 0.1919416
 0.1918156 0.1914713 0.19083 0.1898339 0.1884445 0.1866687 0.1845811 0.1823164 0.1800471 0.177943
 0.1761259 0.1746567 0.1735443 0.1727368 0.1721303 0.1716385 0.1712593 0.1710603 0.1711129 0.1714174
 0.1718491 0.1722076 0.1723902 0.1725083 0.1727911 0.173391 0.1742911 0.1753492 0.176395 0.177314
 0.1780647 0.1786397 0.1790465 0.1793187 0.1794924 0.17957 0.1795353 0.1793842 0.1791215 0.1787565
 0.1783093 0.1777872 0.1771694 0.176442 0.175618 0.1747075 0.1737085 0.1726195 0.1714128 0.1700418
 0.1685535 0.1671693 0.1661968 0.1658612 0.1661954 0.1670305 0.1681126 0.1692709 0.1704363 0.1715092
 0.172361 0.1730396 0.1738642 0.1752106 0.1771907 0.1795398 0.1818016 0.1836218 0.1848663 0.1855251
 0.1856255 0.1852287 0.1843794 0.1830621 0.1812952 0.179207 0.1769482 0.1746357 0.1724111 0.1704132
 0.1686974 0.1672771 0.1661568 0.1653333 0.1648659 0.1644692 0.1625454 0.1567531 0.1473338 0.1392512
 0.138442 0.1454211 0.154561 0.1601286 0.1611504 0.1600371 0.1587904 0.1578421 0.1571204 0.1567046
 0.1566545 0.156863 0.157103 0.1571392 0.1568725 0.1563184 0.1553501 0.1534701 0.1498069 0.1434235
 0.1340053 0.1225049 0.110946 0.1013514 0.09474351 0.09093153 0.08894247 0.08769709 0.0866234 0.08585707
 0.0858961 0.0870884 0.089431 0.09271207 0.09667066 0.1009742 0.1051615 0.1087794 0.1116217 0.1137539
 0.1153013 0.1163105 0.1168096 0.1168736 0.1165911 0.1160339 0.1152617 0.1143031 0.1131402 0.1117606
 0.1102402 0.1087727 0.1075924 0.1068258 0.1064144 0.1062084 0.1061089 0.1060909 0.1061434 0.1062497
 0.1064008 0.1065935 0.1068348 0.107145 0.1075209 0.1079003 0.1081982 0.1083731 0.1084424 0.108438
 0.1083478 0.1081203 0.1077537 0.1073411 0.1069411 0.1064261 0.1055777 0.1043695 0.1030937 0.1021799
 0.1018955 0.1021795 0.1027158 0.1031708 0.1034012 0.1034686 0.1034856 0.1034592 0.1032735 0.1028187
</values></Ydata></ScRf><Data_Parameters_AB><parameter name="DPF">1</parameter><parameter name="NPT">3497</parameter><parameter name="FXV">3996</parameter><parameter name="LXV">500</parameter><parameter name="CSF">1</parameter><parameter name="MXY">0.016779912635684</parameter><parameter name="MNY">-0.041141964495182</parameter><parameter name="DAT">18/01/2024</parameter><parameter name="TIM">11:50:09.086 (GMT+1)</parameter><parameter name="DXU">WN</parameter></Data_Parameters_AB><AB__Qtest><MainReport name="Quality Test Report"><Header><Line><Legend>Test result ok/not ok [1/0]: </Legend><Value>0</Value></Line><Line><Legend>Method file: </Legend><Value>C:\Users\Public\Documents\Bruker\OPUS_8.2.28\QT\IRBT_v3_default.QT</Value></Line></Header><Matrix><Line><Legend></Legend><Legend>min</Legend><Legend>max</Legend><Legend>measured</Legend></Line><Line><Value>Absorption (X-Range 1):</Value><Value>0.400000</Value><Value>2.000000</Value><Value>0.026262</Value></Line><Line><Value>Noise (X-Range 4):</Value><Value></Value><Value>0.000300</Value><Value>0.000021</Value></Line><Line><Value>Signal/Noise (X-Range 2):</Value><Value>200.000000</Value><Value></Value><Value>25.526264</Value></Line><Line><Value>Signal/Noise (X-Range 3):</Value><Value>40.000000</Value><Value></Value><Value>14.497430</Value></Line><Line><Value>Water vapour (X-Range 5):</Value><Value></Value><Value>0.000300</Value><Value>0.000013</Value></Line><Line><Value>Signal/Water (X-Range 2):</Value><Value>100.000000</Value><Value></Value><Value>40.493456</Value></Line><Line><Value>Signal/Water (X-Range 3):</Value><Value>20.000000</Value><Value></Value><Value>22.997923</Value></Line><Line><Value>Fringes (X-Range 6):</Value><Value></Value><Value>0.000100</Value><Value>0.000024</Value></Line></Matrix></MainReport></AB__Qtest><Data_Parameters_ScSm><parameter name="DPF">1</parameter><parameter name="NPT">1814</parameter><parameter name="FXV">3996.63438082617</parameter><parameter name="LXV">499.579297603271</parameter><parameter name="CSF">1</parameter><parameter name="MXY">0.323682427406311</parameter><parameter name="MNY">0.0757772028446198</parameter><parameter name="DAT">18/01/2024</parameter><parameter name="TIM">11:50:09.086 (GMT+1)</parameter><parameter name="DXU">WN</parameter></Data_Parameters_ScSm><Data_Parameters_ScRf><parameter name="DPF">1</parameter><parameter name="NPT">1820</parameter><parameter name="FXV">4004.34989121387</parameter><parameter name="LXV">495.721542409425</parameter><parameter name="CSF">1</parameter><parameter name="MXY">0.32016134262085</parameter><parameter name="MNY">0.0691792070865631</parameter><parameter name="DAT">18/01/2024</parameter><parameter name="TIM">11:49:43.069 (GMT+1)</parameter><parameter name="DXU">WN</parameter></Data_Parameters_ScRf><Optic_Parameters_Rf><parameter name="APR">0</parameter><parameter name="APT">Open</parameter><parameter name="BMS">KBr</parameter><parameter name="DTC">RT-DLaTGS_IR-Biotyper [Microplate reader]</parameter><parameter name="HPF">0</parameter><parameter name="LPF">10.0</parameter><parameter name="LPV">4000</parameter><parameter name="PGR">0</parameter><parameter name="RCH">Module port</parameter><parameter name="RDX">0</parameter><parameter name="SRC">MIR</parameter><parameter name="VEL">10.0</parameter><parameter name="SON">Off</parameter></Optic_Parameters_Rf><Acquisition_Parameters_Rf><parameter name="ADT">1</parameter><parameter name="AQM">DD</parameter><parameter name="CFE">0</parameter><parameter name="COR">0</parameter><parameter name="DEL">0</parameter><parameter name="DLY">0</parameter><parameter name="HFW">8000</parameter><parameter name="LFW">0</parameter><parameter name="NSR">32</parameter><parameter name="PLF">AB</parameter><parameter name="RES">6</parameter><parameter name="RGN">-1</parameter><parameter name="STR">0</parameter><parameter name="TCL">MakeCompatibleScalar (0, {WSV=1.000000, ARV=0});</parameter><parameter name="TDL">37</parameter><parameter name="RPO">0</parameter></Acquisition_Parameters_Rf><FT_-_Parameters_Rf><parameter name="APF">B3</parameter><parameter name="HFQ">500</parameter><parameter name="LFQ">4000</parameter><parameter name="NLI">0</parameter><parameter name="PHR">24</parameter><parameter name="PHZ">ML</parameter><parameter name="SPZ">NO</parameter><parameter name="ZFF">1</parameter></FT_-_Parameters_Rf><Optic_Parameters_><parameter name="APR">0</parameter><parameter name="APT">Open</parameter><parameter name="BMS">KBr</parameter><parameter name="CHN">Module port</parameter><parameter name="DTC">RT-DLaTGS_IR-Biotyper [Microplate reader]</parameter><parameter name="HPF">0</parameter><parameter name="LPF">10.0</parameter><parameter name="LPV">4000</parameter><parameter name="PGN">0</parameter><parameter name="RDX">0</parameter><parameter name="SRC">MIR</parameter><parameter name="VEL">10.0</parameter><parameter name="SON">Off</parameter></Optic_Parameters_><FT_-_Parameters_><parameter name="APF">B3</parameter><parameter name="HFQ">500</parameter><parameter name="LFQ">4000</parameter><parameter name="NLI">0</parameter><parameter name="PHR">24</parameter><parameter name="PHZ">ML</parameter><parameter name="SPZ">NO</parameter><parameter name="ZFF">1</parameter></FT_-_Parameters_><Acquisition_Parameters_><parameter name="ADT">1</parameter><parameter name="AQM">DD</parameter><parameter name="CFE">0</parameter><parameter name="COR">0</parameter><parameter name="DEL">0</parameter><parameter name="DLY">0</parameter><parameter name="HFW">8000</parameter><parameter name="LFW">0</parameter><parameter name="NSS">32</parameter><parameter name="PLF">AB</parameter><parameter name="RES">6</parameter><parameter name="SOT">0</parameter><parameter name="TCL">MakeCompatibleScalar (0, {WSV=1.000000, ARV=0});</parameter><parameter name="TDL">37</parameter><parameter name="SPO">0</parameter><parameter name="SGN">-1</parameter></Acquisition_Parameters_><Instrument_Parameters_Rf><parameter name="HFL">15801.365274</parameter><parameter name="LFL">0</parameter><parameter name="LWN">15801.365274</parameter><parameter name="ABP">32157</parameter><parameter name="SSP">1</parameter><parameter name="ARG">2</parameter><parameter name="ASG">2</parameter><parameter name="ASS">32</parameter><parameter name="GFW">16</parameter><parameter name="GBW">16</parameter><parameter name="BFW">0</parameter><parameter name="BBW">0</parameter><parameter name="PKA">9301</parameter><parameter name="PKL">4987</parameter><parameter name="PRA">9265</parameter><parameter name="PRL">5010</parameter><parameter name="P2A">1</parameter><parameter name="P2L">1</parameter><parameter name="P2R">1</parameter><parameter name="P2K">1</parameter><parameter name="DAQ">0</parameter><parameter name="AG2">1</parameter><parameter name="SSM">1</parameter><parameter name="RSN">46624</parameter><parameter name="CRR">0</parameter><parameter name="SRT">1705578583.069</parameter><parameter name="DUR">19.6449890136719</parameter><parameter name="TSC">31.2</parameter><parameter name="MVD">0.324776738882065</parameter><parameter name="AN1">0.225991270643525</parameter><parameter name="AN2">0</parameter><parameter name="VSN">2.485 Apr  4 2017</parameter><parameter name="SRN">0085</parameter><parameter name="CAM">0</parameter><parameter name="INS">IR-Biotyper</parameter><parameter name="FOC">69</parameter><parameter name="RDY">1</parameter><parameter name="ARS">32</parameter></Instrument_Parameters_Rf><Sample_Parameters_><parameter name="BLD"></parameter><parameter name="CNM">Admin</parameter><parameter name="CPY"></parameter><parameter name="DPM"></parameter><parameter name="EXP">IRBT_v3_32Scans.XPM</parameter><parameter name="LCT"></parameter><parameter name="SFM">Microplate, HTS-XT</parameter><parameter name="SNM">240118-1045-Cdiff_SCFA_2_C31_232124996_E8_b66e244e-660b-46cb-9f88-42b5b367bad6.0</parameter><parameter name="XPP">C:\Users\Public\Documents\Bruker\OPUS_8.2.28\XPM</parameter><parameter name="IST">OK</parameter><parameter name="CPG">1252</parameter><parameter name="UID">acece9fc-b751-4515-b62f-eaccf96c00af</parameter></Sample_Parameters_><Instrument_Parameters_><parameter name="HFL">15801.365274</parameter><parameter name="LFL">0</parameter><parameter name="LWN">15801.365274</parameter><parameter name="ABP">32157</parameter><parameter name="SSP">1</parameter><parameter name="ASG">2</parameter><parameter name="ARG">2</parameter><parameter name="ASS">32</parameter><parameter name="GFW">16</parameter><parameter name="GBW">16</parameter><parameter name="BFW">0</parameter><parameter name="BBW">0</parameter><parameter name="PKA">9605</parameter><parameter name="PKL">4987</parameter><parameter name="PRA">9608</parameter><parameter name="PRL">5010</parameter><parameter name="P2A">1</parameter><parameter name="P2L">1</parameter><parameter name="P2R">1</parameter><parameter name="P2K">1</parameter><parameter name="DAQ">0</parameter><parameter name="AG2">1</parameter><parameter name="SSM">1</parameter><parameter name="RSN">24005</parameter><parameter name="CRR">0</parameter><parameter name="SRT">1705578609.087</parameter><parameter name="DUR">19.6449890136719</parameter><parameter name="TSC">31.2</parameter><parameter name="MVD">0.454070925712585</parameter><parameter name="AN1">0.226023365812886</parameter><parameter name="AN2">0</parameter><parameter name="VSN">2.485 Apr  4 2017</parameter><parameter name="SRN">0085</parameter><parameter name="CAM">0</parameter><parameter name="INS">IR-Biotyper</parameter><parameter name="FOC">69</parameter><parameter name="RDY">1</parameter></Instrument_Parameters_><History/></OPUSDataFile>
