<?xml version="1.0" encoding="UTF-8" ?>
<OPUSDataFile><AB><Ydata ylabel="Absorbance Units"><values byteorder="INTEL" format="FLOAT32" numvalues="3497"> -0.07730106 -0.07729085 -0.07728467 -0.07728146 -0.07727788 -0.07727357 -0.07726603 -0.07725558 -0.07724173 -0.07722452
 -0.07720391 -0.07717949 -0.07715044 -0.07711831 -0.07708277 -0.07704854 -0.07701702 -0.07699177 -0.07697453 -0.07696261
 -0.07695635 -0.07694916 -0.07694045 -0.07692656 -0.07690737 -0.07688422 -0.07685733 -0.07682923 -0.07679988 -0.07677027
 -0.07674038 -0.07671083 -0.07668152 -0.0766528 -0.07662406 -0.07659432 -0.07656366 -0.07653136 -0.0764992 -0.07646812
 -0.07643991 -0.07641612 -0.07639612 -0.0763803 -0.07636646 -0.07635411 -0.07634216 -0.07633026 -0.07631905 -0.07630851
 -0.07630017 -0.07629412 -0.07629106 -0.07629077 -0.07629108 -0.0762913 -0.07628634 -0.07627619 -0.07625759 -0.07623233
 -0.07620271 -0.07617059 -0.07614066 -0.07611151 -0.07608394 -0.07605462 -0.0760204 -0.07598218 -0.07593809 -0.07589513
 -0.07585529 -0.07582361 -0.07580267 -0.07578872 -0.07578225 -0.07577397 -0.07576304 -0.07574418 -0.07571712 -0.07568301
 -0.0756421 -0.07559763 -0.07554998 -0.07550231 -0.07545585 -0.0754161 -0.07538449 -0.07536771 -0.07536456 -0.07537743
 -0.07540092 -0.07543114 -0.07546052 -0.07548207 -0.07549154 -0.07548385 -0.07546161 -0.07542336 -0.07537787 -0.07532633
 -0.07527864 -0.07523677 -0.07520456 -0.0751831 -0.07516573 -0.07515209 -0.07513085 -0.07510195 -0.07506117 -0.07500993
 -0.07495423 -0.07489521 -0.07484032 -0.07478905 -0.07474366 -0.07470361 -0.07466876 -0.07463951 -0.07461655 -0.07459936
 -0.0745886 -0.074581 -0.07457523 -0.0745682 -0.07455814 -0.07454503 -0.07452827 -0.07450989 -0.07449022 -0.07446995
 -0.07444923 -0.07442775 -0.07440548 -0.07438327 -0.07436135 -0.07434305 -0.07432869 -0.07432229 -0.07432309 -0.07433175
 -0.07434473 -0.07435453 -0.07435707 -0.07434067 -0.07430791 -0.0742557 -0.07419199 -0.074122 -0.07405158 -0.07398537
 -0.07392599 -0.07387535 -0.07383464 -0.07380462 -0.07378505 -0.07377654 -0.07377466 -0.07377937 -0.07378239 -0.07378324
 -0.07377536 -0.07375875 -0.07373229 -0.07369658 -0.07365439 -0.07360661 -0.07355761 -0.07350857 -0.0734645 -0.07342623
 -0.07339799 -0.07337836 -0.07336846 -0.0733633 -0.07336003 -0.07335247 -0.07333583 -0.07330895 -0.07326903 -0.0732222
 -0.07316901 -0.0731169 -0.07306744 -0.07302348 -0.07298569 -0.0729523 -0.07292323 -0.07289506 -0.07286766 -0.07283816
 -0.07280666 -0.07277223 -0.07273529 -0.07269687 -0.07265742 -0.0726186 -0.07258072 -0.07254498 -0.07251161 -0.07248158
 -0.07245418 -0.0724295 -0.07240562 -0.07238144 -0.07235583 -0.07232758 -0.07229852 -0.0722687 -0.07224079 -0.07221545
 -0.07219297 -0.07217364 -0.07215509 -0.0721372 -0.07211702 -0.07209443 -0.07206748 -0.07203644 -0.07200204 -0.07196479
 -0.07192718 -0.07188922 -0.07185236 -0.07181587 -0.07177881 -0.07174131 -0.07170285 -0.07166454 -0.07162762 -0.07159144
 -0.07155652 -0.07152025 -0.07148141 -0.07143949 -0.07139341 -0.07134712 -0.07130083 -0.07126004 -0.07122556 -0.0711987
 -0.07117967 -0.07116443 -0.07115266 -0.07113811 -0.07112093 -0.07109868 -0.07107248 -0.07104578 -0.07101874 -0.07099443
 -0.07097034 -0.07094309 -0.07091141 -0.07087109 -0.07082544 -0.07077533 -0.07072532 -0.0706793 -0.07063646 -0.07059824
 -0.07055949 -0.07051864 -0.07047426 -0.07042503 -0.07037657 -0.07032938 -0.07028759 -0.07025161 -0.07021835 -0.07018756
 -0.07015401 -0.07011797 -0.07007913 -0.070038 -0.06999712 -0.06995567 -0.06991252 -0.06986719 -0.06981722 -0.06976536
 -0.06971373 -0.06966601 -0.06962754 -0.0695958 -0.06957247 -0.06954861 -0.06952044 -0.0694837 -0.06943519 -0.06937965
 -0.06931719 -0.06925374 -0.06919022 -0.06912787 -0.06906688 -0.06900529 -0.06894301 -0.06887864 -0.06881226 -0.06874377
 -0.06867336 -0.06860179 -0.06852927 -0.06845671 -0.0683846 -0.06831433 -0.06824603 -0.06818079 -0.06811752 -0.06805591
 -0.06799412 -0.06793056 -0.06786539 -0.06779763 -0.06773055 -0.06766474 -0.06760344 -0.0675478 -0.06749674 -0.06745075
 -0.06740341 -0.06735441 -0.06729579 -0.06722729 -0.06714472 -0.06704859 -0.0669404 -0.06682138 -0.06669773 -0.06657021
 -0.06644409 -0.06631947 -0.06619877 -0.06608225 -0.0659712 -0.06586584 -0.06576715 -0.06567413 -0.06558657 -0.06550303
 -0.06542255 -0.06534559 -0.06527253 -0.06520178 -0.0651342 -0.06506091 -0.0649813 -0.06488499 -0.06477093 -0.06463979
 -0.06449196 -0.06433831 -0.06417947 -0.06402547 -0.06387627 -0.06373715 -0.06360754 -0.06348898 -0.06338016 -0.06327955
 -0.06318536 -0.06309468 -0.06300617 -0.06291778 -0.06282813 -0.06273639 -0.0626395 -0.06253602 -0.06242362 -0.06230057
 -0.06216951 -0.06203004 -0.06188895 -0.06174703 -0.06160956 -0.0614771 -0.06134992 -0.06122791 -0.06110756 -0.06098873
 -0.06086894 -0.06074817 -0.06062532 -0.0604998 -0.06036926 -0.06023335 -0.06008951 -0.05993965 -0.05978485 -0.05962822
 -0.05947348 -0.05932154 -0.05917437 -0.05903094 -0.05889095 -0.05875474 -0.05862213 -0.05849477 -0.0583734 -0.05825635
 -0.05814394 -0.0580303 -0.05791503 -0.05779375 -0.05766633 -0.05753304 -0.05739414 -0.05725218 -0.05710731 -0.05696132
 -0.05681463 -0.05666922 -0.05652597 -0.05638776 -0.05625473 -0.05612892 -0.05600815 -0.05589175 -0.05577536 -0.05565598
 -0.05553015 -0.055395 -0.05525103 -0.05509692 -0.05493813 -0.05477518 -0.05461484 -0.05445823 -0.05430831 -0.05416559
 -0.05402758 -0.05389414 -0.05376202 -0.05363128 -0.05350133 -0.0533724 -0.05324547 -0.05312027 -0.0529967 -0.05287392
 -0.05275045 -0.05262489 -0.05249473 -0.05235849 -0.05221331 -0.05205994 -0.05189712 -0.05172895 -0.05155666 -0.05138488
 -0.0512156 -0.05105045 -0.05089022 -0.05073486 -0.05058433 -0.05043992 -0.05030178 -0.05017021 -0.0500451 -0.04992134
 -0.04979834 -0.04966804 -0.04953077 -0.04938339 -0.04922807 -0.04906992 -0.0489109 -0.04875842 -0.04861139 -0.04847212
 -0.04833684 -0.04820261 -0.04806633 -0.04792467 -0.0477769 -0.04762165 -0.04745971 -0.0472906 -0.04711722 -0.04693959
 -0.04676313 -0.04658863 -0.04641989 -0.04625756 -0.04609897 -0.04594392 -0.04578617 -0.04562584 -0.04546183 -0.0452952
 -0.04513126 -0.04497034 -0.04481694 -0.04466926 -0.04452593 -0.04438437 -0.04423978 -0.04409155 -0.04393638 -0.04377719
 -0.04361456 -0.04345258 -0.04329379 -0.04313941 -0.04299106 -0.04284576 -0.0427033 -0.04256001 -0.04241516 -0.04226764
 -0.04211716 -0.04196533 -0.04181225 -0.04166115 -0.04151231 -0.0413701 -0.04123449 -0.04110811 -0.04098936 -0.04087462
 -0.04076163 -0.04064276 -0.04051876 -0.04038616 -0.04025013 -0.04011486 -0.03998448 -0.03986474 -0.03975303 -0.03965047
 -0.03955039 -0.03945017 -0.03934763 -0.03924096 -0.03913455 -0.03902873 -0.03892804 -0.03883317 -0.0387432 -0.0386581
 -0.03857408 -0.0384911 -0.03840729 -0.03832321 -0.03824109 -0.03816139 -0.0380872 -0.03801776 -0.03795344 -0.03789199
 -0.03782982 -0.03776587 -0.03769691 -0.03762484 -0.03754972 -0.03747453 -0.03740121 -0.03733019 -0.03726232 -0.0371963
 -0.03713177 -0.03706886 -0.03700742 -0.03694863 -0.03689261 -0.03683989 -0.03679052 -0.03674435 -0.03670139 -0.03666162
 -0.03662485 -0.03659021 -0.03655714 -0.03652302 -0.03648775 -0.0364494 -0.03640912 -0.03636747 -0.03632666 -0.03628948
 -0.0362571 -0.03623204 -0.03621236 -0.0361985 -0.03618575 -0.03617286 -0.03615482 -0.0361299 -0.03609648 -0.03605348
 -0.03600498 -0.03595091 -0.0359 -0.03585273 -0.03581592 -0.03578935 -0.03577159 -0.03576135 -0.03574979 -0.03573637
 -0.03571372 -0.03568388 -0.03564777 -0.03560822 -0.03557081 -0.035536 -0.03550733 -0.03548201 -0.03545919 -0.03543595
 -0.03540988 -0.03538151 -0.03534978 -0.03531884 -0.03528973 -0.03526459 -0.03524459 -0.03522547 -0.03520721 -0.03518208
 -0.03514962 -0.03510679 -0.03505398 -0.03499611 -0.03493425 -0.03487744 -0.03482623 -0.03478782 -0.0347611 -0.03474746
 -0.03474422 -0.03474754 -0.03475531 -0.03476293 -0.03477124 -0.03477929 -0.03478878 -0.03480119 -0.03481485 -0.03482989
 -0.03484293 -0.03485276 -0.0348591 -0.03486121 -0.03486332 -0.03486569 -0.03487278 -0.03488488 -0.03490321 -0.03492757
 -0.03495524 -0.03498586 -0.03501545 -0.03504442 -0.03507191 -0.03509935 -0.03513018 -0.03516461 -0.03520533 -0.03524974
 -0.03529608 -0.03534127 -0.0353816 -0.03541716 -0.03544658 -0.03547213 -0.03549439 -0.03551518 -0.03553513 -0.035555
 -0.03557485 -0.03559621 -0.03561921 -0.03564529 -0.03567457 -0.0357066 -0.03574114 -0.03577424 -0.03580532 -0.03582833
 -0.03584303 -0.03584484 -0.03583499 -0.03581357 -0.03578376 -0.03575062 -0.03571798 -0.03569253 -0.03567635 -0.03567411
 -0.03568407 -0.03570754 -0.03573869 -0.0357761 -0.03581303 -0.03584715 -0.03587566 -0.03589721 -0.03591442 -0.03592718
 -0.03594103 -0.03595633 -0.03597737 -0.03600417 -0.03603695 -0.03607526 -0.03611606 -0.03615909 -0.03620151 -0.03624392
 -0.03628647 -0.03632962 -0.03637481 -0.03642078 -0.03646682 -0.0365109 -0.03655067 -0.036586 -0.03661498 -0.03664216
 -0.03666801 -0.03670001 -0.03674043 -0.03679367 -0.03686187 -0.03694037 -0.03702947 -0.03711798 -0.03720515 -0.03728347
 -0.03735293 -0.03741456 -0.03746869 -0.03751854 -0.03756389 -0.03760492 -0.03764257 -0.03767856 -0.03771577 -0.037761
 -0.03781445 -0.03788099 -0.03795448 -0.03803198 -0.03810579 -0.03816909 -0.03822205 -0.03826151 -0.038296 -0.038327
 -0.03836273 -0.03840561 -0.0384562 -0.03851543 -0.03857644 -0.03863892 -0.03869484 -0.03874402 -0.0387837 -0.03881462
 -0.03884104 -0.03886404 -0.0388906 -0.03892083 -0.03895905 -0.03900376 -0.03905477 -0.039109 -0.03916256 -0.03921251
 -0.03925433 -0.03928813 -0.03931149 -0.03932967 -0.03934373 -0.03936036 -0.03938202 -0.03941131 -0.03944966 -0.03949447
 -0.03954577 -0.03959969 -0.03965594 -0.03971213 -0.03976823 -0.03982373 -0.03987883 -0.03993468 -0.03999148 -0.04005104
 -0.04011296 -0.04017727 -0.040243 -0.04030806 -0.04037239 -0.04043451 -0.04049633 -0.04055896 -0.04062438 -0.04069459
 -0.04076916 -0.04084876 -0.04093101 -0.04101541 -0.04109983 -0.04118374 -0.04126604 -0.04134654 -0.04142441 -0.04149953
 -0.04157266 -0.04164391 -0.04171611 -0.04178933 -0.04186579 -0.04194488 -0.04202502 -0.0421057 -0.04218428 -0.04226138
 -0.04233678 -0.04241168 -0.04248808 -0.04256549 -0.0426444 -0.04272345 -0.04280148 -0.04287898 -0.04295552 -0.04303315
 -0.04311263 -0.04319438 -0.04327922 -0.04336319 -0.04344611 -0.04352257 -0.04359207 -0.04365236 -0.04370345 -0.04374815
 -0.04378697 -0.04382565 -0.04386447 -0.04390809 -0.04395592 -0.04400896 -0.04406599 -0.0441252 -0.04418519 -0.04424328
 -0.04429862 -0.04434908 -0.04439552 -0.04443752 -0.0444773 -0.04451565 -0.04455461 -0.04459514 -0.04463747 -0.04468182
 -0.04472798 -0.04477584 -0.04482616 -0.04487901 -0.04493494 -0.04499386 -0.04505218 -0.04510929 -0.04515797 -0.04519797
 -0.04522365 -0.04523661 -0.04523803 -0.04523131 -0.04522383 -0.0452185 -0.04522318 -0.04523756 -0.04526506 -0.04530176
 -0.04534662 -0.04539443 -0.04544225 -0.04548774 -0.045529 -0.04556782 -0.04560408 -0.04564087 -0.04567893 -0.04571739
 -0.04575646 -0.0457906 -0.04581954 -0.0458381 -0.04584658 -0.04584572 -0.04583683 -0.04582679 -0.04581673 -0.0458142
 -0.04581872 -0.04583373 -0.04585637 -0.04588433 -0.04591426 -0.04594148 -0.04596525 -0.04598289 -0.04599709 -0.04600831
 -0.04601954 -0.0460321 -0.0460466 -0.04606339 -0.04608265 -0.04610422 -0.04613046 -0.04616154 -0.04619983 -0.04624537
 -0.04629597 -0.04635109 -0.0464041 -0.04645469 -0.04649719 -0.04653262 -0.0465608 -0.04658388 -0.04660637 -0.0466297
 -0.04665842 -0.04669169 -0.0467307 -0.04677312 -0.04681757 -0.04686265 -0.04690719 -0.04695114 -0.04699433 -0.0470366
 -0.04707811 -0.04711739 -0.04715429 -0.04718717 -0.04721584 -0.04724014 -0.04726008 -0.04727789 -0.04729381 -0.04731155
 -0.0473311 -0.04735461 -0.04738136 -0.04741035 -0.04744063 -0.04746944 -0.04749671 -0.04752091 -0.04754293 -0.04756304
 -0.04758236 -0.04760202 -0.04762179 -0.04764205 -0.04766155 -0.04767979 -0.04769652 -0.04771116 -0.04772645 -0.04774262
 -0.04776261 -0.04778691 -0.047814 -0.04784375 -0.04786954 -0.04789093 -0.04790083 -0.04789952 -0.04788424 -0.04785664
 -0.04782012 -0.04777746 -0.04773642 -0.04769893 -0.04767241 -0.0476545 -0.0476466 -0.04764254 -0.04763819 -0.04762909
 -0.04761094 -0.04758522 -0.04755111 -0.04751253 -0.04747046 -0.04742634 -0.0473807 -0.04733264 -0.04728208 -0.04722913
 -0.04717378 -0.04711634 -0.04705664 -0.04699304 -0.04692524 -0.04685042 -0.0467689 -0.04668002 -0.04658486 -0.04648537
 -0.04638297 -0.04628098 -0.04617958 -0.04608072 -0.04598251 -0.04588446 -0.04578381 -0.04567881 -0.04556847 -0.0454514
 -0.04533044 -0.04520553 -0.04508191 -0.04496018 -0.04484553 -0.0447385 -0.04464248 -0.04455768 -0.04448579 -0.04442675
 -0.04438054 -0.0443467 -0.04432272 -0.04430788 -0.04429811 -0.04429333 -0.04429101 -0.04429223 -0.04429794 -0.0443083
 -0.04432503 -0.04434437 -0.04436507 -0.04438048 -0.04438658 -0.04437957 -0.04435615 -0.04431929 -0.04426839 -0.0442105
 -0.04414669 -0.04408162 -0.04401601 -0.04395017 -0.04388418 -0.04381707 -0.04374895 -0.04368087 -0.04361318 -0.04354847
 -0.04348721 -0.04343223 -0.04338432 -0.04334653 -0.04332004 -0.04330821 -0.04331157 -0.04333231 -0.04336949 -0.04342337
 -0.04349208 -0.04357448 -0.04366995 -0.04377807 -0.0438984 -0.04403141 -0.04417321 -0.04432407 -0.04447486 -0.04462493
 -0.04476419 -0.04489198 -0.04500447 -0.04510199 -0.04518889 -0.04526596 -0.04534066 -0.04541273 -0.04548553 -0.04555762
 -0.04562718 -0.04569309 -0.0457522 -0.04580514 -0.04585097 -0.04589198 -0.04592934 -0.0459662 -0.04600477 -0.04604658
 -0.04609343 -0.04614281 -0.04619512 -0.0462442 -0.04628921 -0.04632459 -0.04634952 -0.04636262 -0.04636373 -0.04635637
 -0.04634089 -0.0463235 -0.04630441 -0.04628826 -0.04627441 -0.04626305 -0.04625332 -0.04624255 -0.04623184 -0.04622088
 -0.04621372 -0.04621489 -0.04622817 -0.04625922 -0.04630668 -0.04637278 -0.04645018 -0.04653722 -0.04662534 -0.04671178
 -0.04679215 -0.04686496 -0.04693043 -0.04698835 -0.04704041 -0.0470867 -0.04712843 -0.04716587 -0.04720301 -0.04724092
 -0.04728883 -0.04734771 -0.04742731 -0.04752573 -0.04764426 -0.04777765 -0.04791768 -0.04805902 -0.04819152 -0.04831314
 -0.04841811 -0.04850831 -0.04858239 -0.04864569 -0.04869952 -0.04875003 -0.04879936 -0.04885015 -0.0489037 -0.04895732
 -0.0490109 -0.04906143 -0.04910863 -0.04915424 -0.04919839 -0.04924398 -0.04929053 -0.04933625 -0.04938034 -0.04941789
 -0.04944984 -0.04947574 -0.04949792 -0.04952088 -0.04954496 -0.04957351 -0.04960283 -0.04963128 -0.04965436 -0.04966818
 -0.0496727 -0.04966588 -0.04965321 -0.04963529 -0.04961926 -0.04960668 -0.04960096 -0.04960298 -0.04961094 -0.04962488
 -0.0496394 -0.04965421 -0.04966395 -0.04966866 -0.04966602 -0.04965672 -0.04964224 -0.04962357 -0.04960424 -0.04958453
 -0.04956691 -0.04955043 -0.0495349 -0.0495192 -0.0495019 -0.04948355 -0.04946373 -0.04944425 -0.04942584 -0.04940952
 -0.04939603 -0.0493843 -0.04937435 -0.04936437 -0.04935415 -0.04934249 -0.04932927 -0.04931371 -0.04929581 -0.04927582
 -0.04925388 -0.04923106 -0.04920747 -0.04918422 -0.04916115 -0.04913835 -0.04911557 -0.04909245 -0.04906862 -0.04904341
 -0.04901661 -0.04898756 -0.04895702 -0.04892477 -0.04889319 -0.04886322 -0.04883673 -0.04881502 -0.04879634 -0.04878097
 -0.04876443 -0.04874614 -0.04872357 -0.04869641 -0.04866711 -0.04863583 -0.04860644 -0.04857875 -0.04855308 -0.04852883
 -0.0485033 -0.04847656 -0.04844707 -0.04841588 -0.04838438 -0.04835337 -0.04832476 -0.04829831 -0.04827467 -0.04825291
 -0.04823278 -0.04821303 -0.04819327 -0.04817178 -0.04814782 -0.04812098 -0.04809066 -0.04805951 -0.04802765 -0.04799865
 -0.04797283 -0.04795073 -0.0479323 -0.0479148 -0.04789805 -0.04787905 -0.04785803 -0.0478343 -0.04780843 -0.04778166
 -0.04775459 -0.04772929 -0.04770546 -0.04768406 -0.04766311 -0.04764117 -0.04761626 -0.04758583 -0.04755167 -0.04751302
 -0.04747547 -0.04744071 -0.04741216 -0.04739155 -0.04737562 -0.04736445 -0.04735218 -0.04733824 -0.04732094 -0.04730033
 -0.04727963 -0.04725891 -0.04724038 -0.04722337 -0.04720581 -0.04718716 -0.04716434 -0.04713823 -0.04710894 -0.04707806
 -0.04704805 -0.04701957 -0.04699455 -0.04697187 -0.04695168 -0.04693186 -0.04691155 -0.04688896 -0.04686317 -0.046834
 -0.04680092 -0.04676636 -0.04673043 -0.04669645 -0.04666479 -0.046636 -0.04661003 -0.04658312 -0.04655499 -0.04652116
 -0.04648211 -0.04643745 -0.04638863 -0.04633997 -0.04629238 -0.04625037 -0.0462129 -0.04618084 -0.04615177 -0.04612337
 -0.04609455 -0.04606334 -0.04603122 -0.04599825 -0.04596635 -0.04593655 -0.04590814 -0.04588154 -0.04585357 -0.04582384
 -0.04579021 -0.04575236 -0.04571121 -0.04566683 -0.04562172 -0.04557592 -0.04553071 -0.04548595 -0.04544137 -0.04539706
 -0.04535312 -0.04530999 -0.04526881 -0.04522966 -0.04519323 -0.04515918 -0.04512744 -0.04509762 -0.04506945 -0.04504267
 -0.04501724 -0.04499236 -0.04496782 -0.04494287 -0.04491723 -0.04489107 -0.0448643 -0.04483781 -0.04481168 -0.04478619
 -0.04476136 -0.04473739 -0.04471422 -0.04469167 -0.04466956 -0.04464678 -0.04462331 -0.04459821 -0.04457221 -0.04454645
 -0.04452163 -0.04449984 -0.04447993 -0.04446203 -0.04444338 -0.0444219 -0.0443963 -0.04436474 -0.04432955 -0.04429062
 -0.04425228 -0.04421552 -0.04418299 -0.04415545 -0.04413234 -0.04411376 -0.0440975 -0.04408344 -0.0440706 -0.04405904
 -0.04404929 -0.04404123 -0.04403475 -0.04402912 -0.04402178 -0.04401234 -0.04399831 -0.04398063 -0.04395955 -0.0439363
 -0.04391269 -0.0438883 -0.04386379 -0.04383732 -0.04380795 -0.04377497 -0.04373739 -0.04369744 -0.04365517 -0.04361431
 -0.0435755 -0.04354081 -0.04351065 -0.0434837 -0.04345991 -0.04343575 -0.0434111 -0.04338341 -0.04335313 -0.04332116
 -0.04328829 -0.04325783 -0.0432298 -0.0432063 -0.04318584 -0.04316714 -0.04314834 -0.04312642 -0.04310183 -0.04307336
 -0.04304373 -0.04301412 -0.04298611 -0.042961 -0.04293721 -0.04291468 -0.04289147 -0.04286703 -0.04284209 -0.04281657
 -0.04279268 -0.04277055 -0.0427505 -0.04273235 -0.04271369 -0.04269423 -0.04267066 -0.04264336 -0.04261139 -0.04257632
 -0.04254109 -0.04250745 -0.04247995 -0.0424583 -0.04244456 -0.04243607 -0.0424315 -0.04242845 -0.04242496 -0.04242088
 -0.0424158 -0.04240973 -0.04240296 -0.04239352 -0.04238112 -0.04236449 -0.04234322 -0.04232034 -0.04229601 -0.04227583
 -0.04225992 -0.04225129 -0.0422493 -0.04225174 -0.0422578 -0.04226327 -0.04226822 -0.04227047 -0.04227112 -0.04227101
 -0.042271 -0.04227262 -0.04227554 -0.04228035 -0.04228544 -0.04229024 -0.04229309 -0.04229318 -0.04228977 -0.0422823
 -0.04227162 -0.04225752 -0.04224287 -0.04222781 -0.04221633 -0.04220867 -0.04220761 -0.04221306 -0.04222424 -0.04224056
 -0.04225807 -0.04227616 -0.04229039 -0.04230072 -0.04230464 -0.04230294 -0.04229554 -0.04228397 -0.04226972 -0.04225484
 -0.04224147 -0.04223089 -0.04222483 -0.04222207 -0.04222294 -0.04222435 -0.04222552 -0.04222452 -0.04222057 -0.042215
 -0.04220775 -0.04220158 -0.04219668 -0.04219357 -0.04219203 -0.04218894 -0.04218403 -0.04217369 -0.04215854 -0.04213867
 -0.04211562 -0.04209336 -0.04207271 -0.04205738 -0.04204622 -0.04203966 -0.04203546 -0.04203184 -0.04202752 -0.04202117
 -0.04201271 -0.04200176 -0.04198872 -0.04197351 -0.04195702 -0.04193928 -0.04192176 -0.04190465 -0.04188889 -0.04187456
 -0.04186121 -0.04184877 -0.04183639 -0.04182413 -0.04181194 -0.04179994 -0.04178865 -0.04177788 -0.0417675 -0.04175705
 -0.0417456 -0.04173291 -0.04171824 -0.04170168 -0.04168294 -0.04166246 -0.04164037 -0.04161705 -0.04159249 -0.04156779
 -0.041543 -0.04152034 -0.04150021 -0.04148411 -0.04147248 -0.04146313 -0.04145597 -0.04144706 -0.04143633 -0.04142277
 -0.04140681 -0.04139113 -0.04137592 -0.04136369 -0.04135387 -0.0413463 -0.0413404 -0.04133492 -0.04132992 -0.04132509
 -0.04132014 -0.04131496 -0.04130848 -0.04129997 -0.04128899 -0.0412746 -0.04125939 -0.04124334 -0.04123141 -0.0412246
 -0.04122572 -0.04123559 -0.04125142 -0.04127316 -0.04129489 -0.0413164 -0.0413342 -0.04134854 -0.0413595 -0.04136722
 -0.04137236 -0.04137466 -0.04137386 -0.04136949 -0.04136077 -0.04134682 -0.04132609 -0.04129829 -0.04126164 -0.04121948
 -0.04117253 -0.04112624 -0.04108356 -0.04104573 -0.04101434 -0.04098585 -0.04095994 -0.04093301 -0.04090441 -0.04087392
 -0.0408414 -0.04081026 -0.04078067 -0.04075599 -0.04073587 -0.04071929 -0.04070567 -0.04069163 -0.04067748 -0.04066218
 -0.04064668 -0.04063254 -0.04061977 -0.04060971 -0.04060005 -0.04058963 -0.04057523 -0.04055428 -0.04052569 -0.04048762
 -0.04044311 -0.04039233 -0.04033962 -0.040286 -0.04023317 -0.04018163 -0.0401299 -0.04007787 -0.04002564 -0.03997336
 -0.03992497 -0.03988073 -0.03984496 -0.03981683 -0.03979532 -0.03977874 -0.03976171 -0.0397434 -0.03971922 -0.03969028
 -0.03965586 -0.03961805 -0.03957848 -0.03953873 -0.03950031 -0.03946385 -0.03943006 -0.03939868 -0.03936981 -0.03934286
 -0.03931777 -0.03929371 -0.03927058 -0.03924781 -0.03922538 -0.03920297 -0.03918055 -0.03915785 -0.03913485 -0.03911124
 -0.03908698 -0.03906177 -0.03903558 -0.03900816 -0.03897953 -0.03894956 -0.03891831 -0.03888579 -0.03885192 -0.03881666
 -0.03877982 -0.03874118 -0.03870095 -0.03865896 -0.03861633 -0.03857313 -0.0385314 -0.03849159 -0.03845495 -0.03842183
 -0.03839169 -0.03836457 -0.03833849 -0.03831334 -0.03828765 -0.03826147 -0.03823452 -0.03820693 -0.03817904 -0.03815082
 -0.03812239 -0.03809376 -0.0380649 -0.03803615 -0.03800792 -0.03798059 -0.03795477 -0.03793049 -0.03790814 -0.03788683
 -0.03786638 -0.03784563 -0.03782404 -0.03780153 -0.03777777 -0.03775437 -0.03773146 -0.0377108 -0.03769266 -0.03767604
 -0.03766079 -0.03764213 -0.03761985 -0.03758962 -0.03755223 -0.03750878 -0.03746096 -0.03741453 -0.03737025 -0.03733297
 -0.03730125 -0.0372753 -0.03725301 -0.03723218 -0.03721199 -0.03719099 -0.0371699 -0.03714881 -0.03712794 -0.0371076
 -0.03708663 -0.03706487 -0.03704127 -0.03701558 -0.03698814 -0.03695891 -0.03692898 -0.0368984 -0.03686739 -0.03683592
 -0.03680366 -0.03677083 -0.03673837 -0.03670656 -0.03667709 -0.03664947 -0.0366238 -0.03659874 -0.03657218 -0.03654385
 -0.03651219 -0.03647902 -0.03644508 -0.03641199 -0.03638103 -0.03635176 -0.03632443 -0.03629784 -0.03627156 -0.03624597
 -0.03622099 -0.03619757 -0.03617584 -0.03615513 -0.03613539 -0.03611487 -0.0360935 -0.03606992 -0.03604415 -0.03601549
 -0.03598405 -0.03594967 -0.03591288 -0.03587451 -0.03583544 -0.03579738 -0.03576075 -0.03572672 -0.03569494 -0.03566562
 -0.03563793 -0.03561169 -0.03558562 -0.03555932 -0.03553172 -0.03550234 -0.03547163 -0.03543945 -0.03540759 -0.03537621
 -0.03534635 -0.03531802 -0.03528957 -0.03526086 -0.03522981 -0.03519658 -0.03516074 -0.03512274 -0.03508386 -0.03504434
 -0.03500544 -0.03496696 -0.03492932 -0.03489174 -0.03485359 -0.03481421 -0.03477266 -0.0347296 -0.03468467 -0.0346403
 -0.03459722 -0.03455731 -0.03452143 -0.03448885 -0.03445971 -0.034432 -0.0344055 -0.03437927 -0.03435326 -0.03432731
 -0.03430136 -0.03427473 -0.03424732 -0.03421803 -0.03418695 -0.03415377 -0.03411871 -0.0340821 -0.0340442 -0.03400541
 -0.03396624 -0.03392723 -0.03388916 -0.03385302 -0.03381842 -0.03378578 -0.03375326 -0.03372036 -0.03368545 -0.03364768
 -0.03360838 -0.03356738 -0.03352784 -0.03349006 -0.03345582 -0.03342523 -0.03339634 -0.03336892 -0.03333932 -0.03330757
 -0.0332718 -0.03323264 -0.03319112 -0.03314807 -0.03310589 -0.0330651 -0.03302772 -0.03299357 -0.03296352 -0.03293642
 -0.03291201 -0.0328882 -0.03286399 -0.0328374 -0.03280728 -0.03277351 -0.0327356 -0.03269543 -0.03265319 -0.03261066
 -0.03256809 -0.0325256 -0.03248322 -0.03244049 -0.03239748 -0.03235476 -0.03231242 -0.03227136 -0.03223131 -0.03219193
 -0.03215265 -0.03211175 -0.03206952 -0.03202534 -0.03198064 -0.03193669 -0.03189481 -0.03185692 -0.03182206 -0.03179076
 -0.0317601 -0.03172912 -0.03169577 -0.03165894 -0.03162004 -0.03157892 -0.0315387 -0.03149973 -0.03146308 -0.03142884
 -0.03139547 -0.03136289 -0.03132956 -0.03129558 -0.03126091 -0.03122545 -0.0311889 -0.03115096 -0.03111057 -0.03106798
 -0.03102274 -0.03097625 -0.0309298 -0.03088502 -0.03084399 -0.03080652 -0.03077361 -0.03074262 -0.03071306 -0.03068168
 -0.03064728 -0.03060933 -0.03056719 -0.030524 -0.03047994 -0.03043851 -0.03039995 -0.03036412 -0.03033086 -0.03029748
 -0.03026402 -0.03022935 -0.03019381 -0.03015815 -0.03012237 -0.030087 -0.03005134 -0.03001417 -0.02997569 -0.02993515
 -0.02989435 -0.02985444 -0.02981697 -0.02978348 -0.02975337 -0.02972714 -0.02970229 -0.02967834 -0.02965305 -0.0296259
 -0.02959611 -0.02956347 -0.02952824 -0.02949041 -0.02945173 -0.02941234 -0.02937471 -0.0293387 -0.02930482 -0.02927232
 -0.02923841 -0.02920261 -0.02916188 -0.02911718 -0.02906852 -0.02901768 -0.02896695 -0.02891699 -0.02886936 -0.02882331
 -0.02877866 -0.02873548 -0.02869361 -0.02865389 -0.02861674 -0.02858156 -0.02854862 -0.02851501 -0.02848044 -0.02844299
 -0.02840249 -0.02836008 -0.02831586 -0.02827196 -0.02822839 -0.02818603 -0.02814484 -0.028105 -0.02806665 -0.02803035
 -0.0279958 -0.02796309 -0.02793098 -0.02789809 -0.02786324 -0.02782453 -0.02778276 -0.02773747 -0.0276909 -0.02764386
 -0.02759792 -0.02755386 -0.02751138 -0.02747058 -0.02743069 -0.02739159 -0.02735358 -0.02731667 -0.02728128 -0.02724732
 -0.02721352 -0.02717958 -0.02714261 -0.02710263 -0.02705804 -0.0270096 -0.02695837 -0.02690536 -0.02685301 -0.02680152
 -0.02675236 -0.02670474 -0.02665848 -0.02661278 -0.02656682 -0.02652122 -0.02647585 -0.02643208 -0.02639035 -0.02635107
 -0.02631457 -0.02627959 -0.026246 -0.02621299 -0.02618045 -0.02614937 -0.02611981 -0.02609298 -0.02606869 -0.02604611
 -0.02602486 -0.02600272 -0.02597987 -0.02595539 -0.0259301 -0.02590504 -0.02588099 -0.02585946 -0.02584065 -0.02582538
 -0.02581313 -0.02580403 -0.02579674 -0.02579091 -0.02578488 -0.02577817 -0.02576934 -0.02575789 -0.02574408 -0.02572772
 -0.02571121 -0.02569469 -0.02568082 -0.02566962 -0.02566115 -0.02565498 -0.02564768 -0.02563889 -0.02562491 -0.02560635
 -0.02558278 -0.0255555 -0.02552685 -0.02549766 -0.02547028 -0.02544419 -0.02542001 -0.02539618 -0.02537201 -0.0253461
 -0.02531751 -0.02528615 -0.02525158 -0.02521506 -0.02517666 -0.02513803 -0.0250994 -0.02506171 -0.02502507 -0.02498862
 -0.02495227 -0.02491428 -0.02487465 -0.0248324 -0.02478801 -0.02474295 -0.02469775 -0.02465501 -0.02461415 -0.02457564
 -0.02453783 -0.02449855 -0.02445707 -0.02441135 -0.02436305 -0.02431252 -0.02426149 -0.02421107 -0.02416121 -0.02411211
 -0.02406343 -0.024015 -0.02396759 -0.02392132 -0.02387629 -0.02383258 -0.02378812 -0.02374282 -0.02369479 -0.02364438
 -0.02359351 -0.02354264 -0.02349541 -0.02345091 -0.02340888 -0.02336715 -0.023321 -0.02326985 -0.02320987 -0.02314419
 -0.023074 -0.02300327 -0.02293545 -0.02287113 -0.02281214 -0.0227553 -0.0227001 -0.02264373 -0.0225853 -0.02252473
 -0.02246178 -0.02239765 -0.02233242 -0.02226694 -0.02220124 -0.02213557 -0.02206994 -0.02200456 -0.02193947 -0.02187496
 -0.02181112 -0.02174842 -0.02168669 -0.02162597 -0.02156574 -0.02150553 -0.02144432 -0.02138112 -0.02131469 -0.02124395
 -0.02116806 -0.0210859 -0.02099896 -0.02090688 -0.02081387 -0.02072064 -0.02063095 -0.02054564 -0.02046455 -0.02038788
 -0.0203117 -0.02023581 -0.02015671 -0.02007454 -0.01998933 -0.0199015 -0.0198133 -0.01972457 -0.0196362 -0.01954743
 -0.01945701 -0.01936463 -0.01926913 -0.01917095 -0.01907014 -0.01896703 -0.01886201 -0.01875471 -0.01864517 -0.01853265
 -0.018417 -0.01829731 -0.01817341 -0.0180444 -0.01790995 -0.01777107 -0.01762768 -0.01748371 -0.01733934 -0.01719758
 -0.01705821 -0.01692044 -0.0167837 -0.01664474 -0.01650312 -0.01635588 -0.01620279 -0.01604189 -0.0158734 -0.01569644
 -0.0155124 -0.01532225 -0.01512754 -0.01492995 -0.01472926 -0.01452589 -0.01431901 -0.01410783 -0.0138946 -0.01367931
 -0.01346613 -0.01325603 -0.01304847 -0.01284394 -0.01263307 -0.01241532 -0.01217712 -0.0119185 -0.01163393 -0.01132548
 -0.01100139 -0.01066263 -0.0103177 -0.009963695 -0.009598409 -0.009219177 -0.008819795 -0.008402432 -0.007966495 -0.00751604
 -0.007055277 -0.006581777 -0.006097482 -0.005591671 -0.005061432 -0.004497755 -0.003896591 -0.003261821 -0.002591992 -0.001903851
 -0.001198316 -0.0004946248 0.0002062255 0.0008910479 0.001560289 0.002213373 0.002853027 0.00349322 0.004136662 0.004802189
 0.005484905 0.006186299 0.006893021 0.007583788 0.008253244 0.008884738 0.009486512 0.01005993 0.01061098 0.01114554
 0.01165717 0.01214593 0.01260151 0.01302075 0.01340175 0.01374315 0.01405016 0.01432298 0.014568 0.0147856
 0.01498248 0.01515901 0.01532183 0.01547092 0.01560986 0.01573797 0.01585474 0.01595966 0.01605099 0.01612938
 0.0161949 0.01624869 0.01629277 0.01632546 0.01634727 0.01635275 0.01633897 0.01630319 0.01624184 0.01616281
 0.01606549 0.01596702 0.0158695 0.01578785 0.01572374 0.01568466 0.01567108 0.01568654 0.01573062 0.01580036
 0.01589322 0.01599376 0.01609868 0.01618851 0.01626131 0.01630432 0.01631377 0.01628051 0.01619531 0.01604538
 0.01582191 0.0155117 0.01511844 0.01463657 0.0140864 0.01346974 0.01282044 0.01214278 0.01148321 0.01084778
 0.01028174 0.009790817 0.009391836 0.009086013 0.008858914 0.008708902 0.00861109 0.008564232 0.008548586 0.008563801
 0.008598278 0.008651964 0.008719293 0.008799689 0.008890019 0.008989271 0.009095105 0.009206991 0.009323569 0.009445397
 0.009572524 0.009705131 0.009843875 0.009986234 0.01013215 0.01027722 0.01042082 0.01055937 0.01069237 0.01081871
 0.01093828 0.01105008 0.011154 0.01124834 0.01133295 0.01140639 0.0114681 0.01151568 0.01154773 0.01155959
 0.01155046 0.0115168 0.01145869 0.01137556 0.01126563 0.01112755 0.01095921 0.01075797 0.01052714 0.01026732
 0.009981623 0.009672768 0.009332249 0.008959891 0.00854176 0.008075226 0.007566426 0.00701536 0.006452649 0.00587924
 0.005314748 0.004756978 0.004200911 0.003645097 0.003080766 0.002509681 0.001931629 0.001349207 0.0007674703 0.000186107
 -0.0003927073 -0.0009715395 -0.001554059 -0.002134554 -0.002714977 -0.003274798 -0.003806319 -0.004296296 -0.004736563 -0.005138649
 -0.005502244 -0.005845678 -0.006171295 -0.006485606 -0.006789236 -0.007078463 -0.007353125 -0.007610057 -0.007849506 -0.008071844
 -0.008276993 -0.008464808 -0.008635099 -0.008786566 -0.008920929 -0.009039571 -0.009146825 -0.009248067 -0.009347692 -0.0094518
 -0.009560684 -0.009677081 -0.009796843 -0.009919296 -0.01003969 -0.01015676 -0.01026697 -0.01037002 -0.01046018 -0.01053703
 -0.01059353 -0.01062914 -0.01064368 -0.01063757 -0.01061849 -0.01058717 -0.01055254 -0.01051478 -0.01047991 -0.01044672
 -0.01041566 -0.01038428 -0.01034859 -0.01030645 -0.01025339 -0.01018896 -0.01011084 -0.01002058 -0.009918215 -0.009806072
 -0.009685113 -0.009556851 -0.009421992 -0.009280743 -0.00913336 -0.008979065 -0.008817943 -0.008647833 -0.008468659 -0.00827599
 -0.008069731 -0.007847471 -0.007610437 -0.007365685 -0.007115792 -0.006875372 -0.006645392 -0.006436253 -0.006246666 -0.006079229
 -0.005931939 -0.005803764 -0.005691739 -0.005593705 -0.005505081 -0.005422684 -0.005343062 -0.005263291 -0.005184955 -0.005107217
 -0.005035726 -0.004971689 -0.004917107 -0.004872845 -0.004834174 -0.004800921 -0.004765798 -0.004728547 -0.004684754 -0.004634799
 -0.004579702 -0.004519636 -0.004456278 -0.004388575 -0.004314504 -0.004233068 -0.004140849 -0.004039043 -0.003927746 -0.003808377
 -0.003683641 -0.003549832 -0.003406937 -0.00324646 -0.00306478 -0.002856347 -0.002617934 -0.002351606 -0.002057008 -0.001738222
 -0.00139609 -0.001028889 -0.0006365934 -0.0002155237 0.0002340424 0.0007052002 0.001195852 0.001685964 0.00217433 0.002644106
 0.003097644 0.003533248 0.003952634 0.004360066 0.004751565 0.005124886 0.00547268 0.005787152 0.006064332 0.006299153
 0.006491334 0.006641039 0.006742865 0.006798374 0.006788008 0.00671053 0.006536334 0.006261339 0.005867903 0.005353408
 0.004737019 0.004020838 0.003254944 0.002442339 0.001629641 0.0008172181 3.026998E-05 -0.0007299716 -0.001448329 -0.002120629
 -0.002731273 -0.003278503 -0.003751399 -0.004156292 -0.004492938 -0.004774669 -0.005008422 -0.005208995 -0.005384283 -0.005544226
 -0.005693928 -0.005835521 -0.005970601 -0.006096859 -0.006214085 -0.006321425 -0.006418727 -0.006507651 -0.006588208 -0.006660181
 -0.00672301 -0.006771784 -0.006805851 -0.006819154 -0.006812386 -0.006783946 -0.006735949 -0.006671695 -0.006593188 -0.006504603
 -0.006406973 -0.006302552 -0.006192342 -0.006077089 -0.005959254 -0.005839811 -0.005721616 -0.005605839 -0.005493722 -0.005386041
 -0.005281159 -0.005179083 -0.005077261 -0.004975498 -0.004872117 -0.00476704 -0.004659326 -0.004548837 -0.004434024 -0.00431458
 -0.004188224 -0.004054756 -0.003912382 -0.003761108 -0.003600265 -0.003429476 -0.003248123 -0.003055365 -0.00285006 -0.002631982
 -0.002400178 -0.002156297 -0.001900482 -0.001635603 -0.001362714 -0.001083118 -0.0007975529 -0.0005047236 -0.0002046134 0.0001046085
 0.0004231981 0.0007501745 0.001085404 0.001424187 0.001766062 0.002104825 0.00244019 0.002767544 0.003086828 0.003395768
 0.003693708 0.003978811 0.004248948 0.004500485 0.004731297 0.004937123 0.005119449 0.005276671 0.005415195 0.0055372
 0.005649136 0.005754296 0.005852755 0.005945704 0.006028196 0.0060993 0.006158826 0.006206261 0.006250469 0.006291917
 0.006340601 0.006396143 0.006458937 0.006527137 0.006591494 0.006650849 0.006696182 0.006728643 0.006746057 0.006750592
 0.006744714 0.006729474 0.006707113 0.006677235 0.006640435 0.006595477 0.006542216 0.006478508 0.006403965 0.006315507
 0.006212539 0.006092153 0.005953844 0.005796031 0.005618567 0.005420006 0.005200254 0.004957127 0.004690541 0.004398684
 0.0040818 0.003740117 0.003374161 0.002985819 0.002575292 0.002143934 0.001691737 0.001218873 0.0007264027 0.000214835
 -0.0003129238 -0.0008549849 -0.001408131 -0.001970332 -0.002539615 -0.00311518 -0.003694817 -0.004278657 -0.00486084 -0.005441121
 -0.00601034 -0.006567749 -0.007105797 -0.007624083 -0.00811904 -0.008590474 -0.009035259 -0.009452861 -0.009838406 -0.01019205
 -0.01051106 -0.01079738 -0.0110536 -0.01128224 -0.01148834 -0.01167345 -0.01184085 -0.01199194 -0.01212824 -0.01225219
 -0.01236545 -0.01246927 -0.01256472 -0.01265098 -0.01272792 -0.01279541 -0.01285303 -0.01290404 -0.01294865 -0.0129903
 -0.01302917 -0.01306489 -0.01309726 -0.01312349 -0.01314355 -0.01315582 -0.01316048 -0.01315745 -0.01314662 -0.01312766
 -0.01310054 -0.01306466 -0.01302123 -0.01297115 -0.01291602 -0.01285768 -0.01279594 -0.01273171 -0.01266255 -0.01258776
 -0.01250558 -0.01241514 -0.01231744 -0.01221235 -0.0121024 -0.01198787 -0.01186973 -0.01174806 -0.01162255 -0.01149337
 -0.011362 -0.0112291 -0.01109917 -0.01097274 -0.01085442 -0.01074337 -0.01064038 -0.01054322 -0.0104486 -0.01035493
 -0.01025855 -0.01016061 -0.01006029 -0.009960622 -0.009863079 -0.009769589 -0.009681561 -0.009598196 -0.00951979 -0.009444087
 -0.009370727 -0.009298476 -0.009227109 -0.009156912 -0.009087886 -0.009021515 -0.008957793 -0.00889719 -0.008839271 -0.008781971
 -0.00872425 -0.008661395 -0.00859239 -0.008512197 -0.008421067 -0.008316783 -0.008201038 -0.008074578 -0.00793989 -0.007799181
 -0.007654071 -0.007506249 -0.007355583 -0.007202383 -0.007046242 -0.006886669 -0.006725793 -0.006563426 -0.006404873 -0.006250593
 -0.006105215 -0.005969058 -0.005841378 -0.005721879 -0.005605803 -0.005493153 -0.005381212 -0.005271025 -0.005165043 -0.005064169
 -0.004972142 -0.004888564 -0.004814545 -0.004749183 -0.004691815 -0.004641843 -0.004598843 -0.004561549 -0.004529664 -0.004500387
 -0.004472649 -0.004444327 -0.004414295 -0.004383542 -0.004351793 -0.00432225 -0.004295287 -0.004272366 -0.004253641 -0.004236232
 -0.004219754 -0.004197757 -0.004169884 -0.00413023 -0.004079537 -0.004016933 -0.003944525 -0.003866719 -0.003786116 -0.003708954
 -0.003637389 -0.00357656 -0.003527147 -0.003491842 -0.003469066 -0.003459047 -0.003458827 -0.003467263 -0.003482565 -0.003503908
 -0.003531239 -0.003564657 -0.003602722 -0.003645556 -0.003688716 -0.003731944 -0.003771381 -0.003807051 -0.003839226 -0.003868271
 -0.003896954 -0.003925157 -0.003954167 -0.003983016 -0.004009999 -0.004033996 -0.004052125 -0.004064125 -0.004068078 -0.004065485
 -0.004056593 -0.004043948 -0.004029238 -0.004013616 -0.00399844 -0.003981879 -0.0039638 -0.003942033 -0.003915777 -0.003886466
 -0.0038538 -0.003823606 -0.00379622 -0.003777085 -0.003766132 -0.003762275 -0.00376446 -0.003764947 -0.003762515 -0.003748109
 -0.003721311 -0.003676064 -0.003613464 -0.00353159 -0.00343471 -0.003325521 -0.00321307 -0.003104744 -0.003011084 -0.002940926
 -0.002898343 -0.002888551 -0.002906018 -0.002951172 -0.003014055 -0.003093057 -0.003180431 -0.003274873 -0.003374392 -0.00347864
 -0.003592236 -0.003715666 -0.003858702 -0.004021513 -0.004210941 -0.00442482 -0.004659042 -0.004908888 -0.005160025 -0.005408217
 -0.005638336 -0.005850408 -0.006037434 -0.006203602 -0.006349921 -0.00648106 -0.006600496 -0.006709855 -0.00681082 -0.006902933
 -0.006986023 -0.007061333 -0.007128759 -0.007191394 -0.007249599 -0.007305347 -0.007358818 -0.007410307 -0.00745988 -0.00750881
 -0.00755731 -0.007607839 -0.007660203 -0.007715284 -0.007771917 -0.007827367 -0.007880629 -0.007928048 -0.007970512 -0.008007177
 -0.008040615 -0.008073119 -0.008105726 -0.008140743 -0.008174826 -0.008207882 -0.008233857 -0.00825071 -0.008255795 -0.008247573
 -0.008229691 -0.008202023 -0.008171734 -0.008139328 -0.008109788 -0.008083187 -0.008059331 -0.008037759 -0.008014709 -0.007989855
 -0.007959623 -0.007924358 -0.007883186 -0.007836581 -0.007785096 -0.007728942 -0.00766808 -0.007604252 -0.007537973 -0.007474075
 -0.007415419 -0.00736655 -0.007331248 -0.007307345 -0.007296391 -0.00728863 -0.007282693 -0.007269507 -0.007247347 -0.007215037
 -0.007172168 -0.007124206 -0.007071429 -0.00701924 -0.006967608 -0.006918486 -0.006871804 -0.006828183 -0.006787915 -0.006752261
 -0.006721288 -0.006695946 -0.00667558 -0.006659746 -0.006647697 -0.006638527 -0.006631909 -0.006627717 -0.006624596 -0.006622378
 -0.0066182 -0.006611118 -0.006599414 -0.006582118 -0.006561498 -0.006537596 -0.006513773 -0.006490436 -0.006466261 -0.00644104
 -0.006408322 -0.006367946 -0.006315175 -0.006251317 -0.006179473 -0.006102031 -0.006027831 -0.005957947 -0.00589946 -0.005850466
 -0.00581188 -0.005779886 -0.005751375 -0.005722738 -0.005690929 -0.005652954 -0.005606939 -0.005550379 -0.005481645 -0.005401697
 -0.005309524 -0.005212242 -0.00511022 -0.005012989 -0.004921411 -0.004839994 -0.00476885 -0.004706274 -0.00465205 -0.004603574
 -0.004560813 -0.004522609 -0.004488389 -0.004456177 -0.004424624 -0.00439016 -0.004351486 -0.004305241 -0.004250777 -0.004185848
 -0.004111615 -0.004026972 -0.003937413 -0.003844468 -0.003755201 -0.00367297 -0.003598315 -0.003533216 -0.003468725 -0.003404067
 -0.003330689 -0.003247578 -0.003154871 -0.003052597 -0.002944478 -0.002829687 -0.002703031 -0.00256085 -0.002383207 -0.002165058
 -0.001877832 -0.001524561 -0.001089045 -0.0005991646 -7.703114E-05 0.0004208831 0.0008329437 0.001109446 0.001185486 0.001076595
 0.0007558516 0.0003185 -0.0002188691 -0.0007437389 -0.001225931 -0.001612379 -0.001886529 -0.002070188 -0.002162272 -0.002213364
 -0.002225824 -0.002231661 -0.002230263 -0.002226646 -0.002219382 -0.002203494 -0.002179578 -0.002146702 -0.002106784 -0.002063619
 -0.002018319 -0.001974417 -0.001931608 -0.001890951 -0.001851634 -0.001813458 -0.001775559 -0.001737811 -0.001698271 -0.001656465
 -0.001610115 -0.001558362 -0.001501369 -0.001438642 -0.001374206 -0.001308301 -0.001245111 -0.001184825 -0.001128383 -0.001075482
 -0.001023231 -0.0009711439 -0.0009151154 -0.0008550068 -0.0007878041 -0.0007145556 -0.0006353183 -0.0005530944 -0.0004719362 -0.0003956205
 -0.0003299397 -0.0002762603 -0.0002383435 -0.0002129766 -0.0002003016 -0.0001944265 -0.000193805 -0.0001924672 -0.0001889906 -0.0001784793
 -0.0001599374 -0.0001309478 -9.087168E-05 -4.385167E-05 9.8635E-06 5.973437E-05 0.0001054925 0.0001399036 0.0001646171 0.0001845776
 0.0002023642 0.0002302207 0.0002673604 0.0003193749 0.0003810604 0.0004466612 0.0005122503 0.0005699041 0.0006223115 0.0006680294
 0.0007132887 0.0007613963 0.0008147901 0.0008759972 0.0009414197 0.001011129 0.001079336 0.001145237 0.001204406 0.001256314
 0.001298856 0.00133191 0.001356644 0.00137352 0.001388286 0.001401817 0.00142222 0.001449662 0.001489668 0.001540424
 0.001600962 0.001668375 0.001737218 0.001806683 0.001872832 0.001938783 0.002005592 0.002076161 0.002153368 0.002234685
 0.002320411 0.002405498 0.002488131 0.002568597 0.002645861 0.002727533 0.002814126 0.002912859 0.003024155 0.003151054
 0.003293776 0.003455399 0.003636875 0.003845228 0.004081753 0.00435472 0.004664872 0.005018325 0.005414482 0.005856721
 0.00633951 0.006861798 0.007406873 0.007966239 0.008511682 0.009029112 0.009488359 0.009875945 0.01017151 0.01036677
 0.01045601 0.01043613 0.01031341 0.01008735 0.009773971 0.009374072 0.008915442 0.00840034 0.007865198 0.007312519
 0.006775932 0.006256582 0.005776219 0.005335267 0.004945 0.004606609 0.004327822 0.004107028 0.003948542 0.003840487
 0.003778338 0.003741165 0.003716043 0.003690523 0.003652681 0.00361665 0.003580722 0.00357571 0.003609311 0.003680579
 0.003792496 0.003908846 0.004027606 0.004127297 0.004208294 0.004273751 0.004325083 0.004372517 0.004416675 0.004463936
 0.004516945 0.004583798 0.004670538 0.004793392 0.004949805 0.005150924 0.005368742 0.005591155 0.005773173 0.005883841
 0.00590418 0.005809999 0.005639234 0.005390348 0.005132978 0.004879016 0.004673389 0.004524465 0.004426822 0.0043809
 0.004355169 0.004348456 0.004338504 0.004326326 0.004307884 0.004284408 0.004258807 0.004230575 0.004200255 0.004166025
 0.004124922 0.004075699 0.004014823 0.003944364 0.003863609 0.003778706 0.003692341 0.003611185 0.003538513 0.003477986
 0.003431018 0.003400259 0.003386426 0.003390864 0.003414276 0.003451546 0.00350251 0.003556023 0.003611809 0.003664173
 0.00371432 0.003767962 0.003826161 0.003897008 0.003978792 0.004072072 0.004172696 0.004274447 0.004371833 0.004456036
 0.004522291 0.004562331 0.004577992 0.004565336 0.004537133 0.004496261 0.004457979 0.004427982 0.00441034 0.004407718
 0.004413278 0.004426653 0.00444135 0.004456923 0.004469485 0.004478663 0.004477533 0.004465736 0.00443653 0.004391378
 0.004332014 0.004261419 0.004187978 0.004114592 0.004049805 0.00399665 0.003962579 0.003948516 0.003959863 0.003989532
 0.004036902 0.004088467 0.004138445 0.004178353 0.004203721 0.004215522 0.004212543 0.004201299 0.004181711 0.004166177
 0.004155344 0.004165637 0.00419743 0.004257366 0.004342965 0.004439471 0.004542962 0.004628297 0.004695333 0.004728999
 0.004735447 0.004717497 0.004685052 0.004651813 0.004625228 0.004618477 0.004629114 0.004662049 0.004703775 0.004750546
 0.004789062 0.004813579 0.004822534 0.004813778 0.00479464 0.004765786 0.00473214 0.004694133 0.004653009 0.004608968
 0.004565995 0.004524646 0.004491811 0.004466714 0.004450657 0.004440429 0.004427698 0.004410182 0.00437848 0.004334981
 0.004278162 0.004213152 0.004144085 0.00407474 0.004008575 0.003947907 0.003894774 0.003849269 0.00381296 0.003779481
 0.00374806 0.003712097 0.003669593 0.003628134 0.003587801 0.003565598 0.003561797</values></Ydata></AB><ScSm><Ydata ylabel="Single channel"><values byteorder="INTEL" format="FLOAT32" numvalues="1814"> 0.08483653 0.08494323 0.08506728 0.08521006 0.08536196 0.08551042 0.08564611 0.08576628 0.08587351 0.08596957
 0.08605683 0.08614825 0.08626527 0.08641732 0.08658814 0.08674608 0.08686738 0.08695692 0.08704861 0.08717227
 0.08731291 0.08741289 0.0874255 0.08736552 0.08730153 0.0872958 0.08736343 0.08750469 0.08774409 0.08806901
 0.08834317 0.08839453 0.088231 0.08806919 0.08809432 0.08827481 0.08845305 0.08852038 0.08845863 0.08832422
 0.08827035 0.08849896 0.08907673 0.0897856 0.09019109 0.08989355 0.08879408 0.08723702 0.08592777 0.08556546
 0.08633855 0.08771348 0.088834 0.08921262 0.08899331 0.08858326 0.08822808 0.08801097 0.0880416 0.08843139
 0.08911338 0.08977518 0.08998297 0.08946578 0.08842233 0.08748502 0.0872039 0.08761867 0.0884532 0.08944854
 0.09012155 0.08951827 0.08705906 0.08382398 0.08221599 0.08373985 0.08742645 0.09084097 0.09229935 0.09175697
 0.09010332 0.08837992 0.08750542 0.08795793 0.08946194 0.09126247 0.09272507 0.09350315 0.09337818 0.09236313
 0.09090889 0.08971103 0.08932354 0.09000272 0.09160355 0.09341695 0.09445208 0.09421924 0.09309816 0.09184571
 0.09103824 0.09104444 0.09205495 0.0938538 0.09583939 0.09746942 0.09854283 0.09907822 0.09917931 0.09901474
 0.09873711 0.09846068 0.09837309 0.09863844 0.09907357 0.09918878 0.0987332 0.09803587 0.09767299 0.09787371
 0.09832349 0.09854296 0.09836362 0.09783507 0.09673494 0.09467923 0.09191149 0.08942416 0.08798803 0.08761284
 0.08818027 0.08976953 0.09189153 0.09325738 0.09307583 0.09211852 0.09188439 0.09298114 0.09474708 0.09621949
 0.09706914 0.09765367 0.09845479 0.09953119 0.1003798 0.1003075 0.09914176 0.09766896 0.09710948 0.09793641
 0.09941648 0.1005121 0.1009708 0.1012835 0.1018206 0.1022939 0.1020094 0.1006098 0.09869508 0.09761152
 0.09834169 0.1005309 0.1026733 0.103251 0.101813 0.09921721 0.09691143 0.09589358 0.09632622 0.0979525
 0.1004516 0.1032822 0.1055996 0.1066849 0.1064417 0.1053748 0.1040419 0.1025354 0.1006801 0.09884165
 0.09813952 0.09939826 0.1020868 0.1047413 0.1063165 0.1067633 0.1064329 0.1053687 0.1034036 0.1008969
 0.09905989 0.09905577 0.1006736 0.1023873 0.1029785 0.1026743 0.1024466 0.1026853 0.1029899 0.1029846
 0.1028763 0.1031582 0.1039806 0.1049602 0.1055873 0.1056951 0.1054969 0.1052852 0.1051541 0.1049453
 0.1044922 0.1039921 0.1039876 0.1047942 0.1060752 0.1071798 0.1077836 0.1080157 0.1080631 0.1078532
 0.1071784 0.1061051 0.1051683 0.1049914 0.1056798 0.106743 0.1076153 0.1080761 0.1081914 0.1080988
 0.1079159 0.1077114 0.1075203 0.1074225 0.1075296 0.1078359 0.1081756 0.1083876 0.1084461 0.1083993
 0.1082646 0.1080346 0.1077486 0.1075105 0.1074224 0.1075026 0.1076839 0.1078823 0.1080345 0.1080865
 0.1080095 0.1078394 0.1076538 0.1075015 0.1073876 0.1073184 0.1073167 0.1073831 0.1074729 0.1075292
 0.1075287 0.1074843 0.1074129 0.1073189 0.1072088 0.1071048 0.1070372 0.1070258 0.107062 0.1071116
 0.1071537 0.1072063 0.1072858 0.1073553 0.1073554 0.1072806 0.1071903 0.1071453 0.1071604 0.1072121
 0.1072653 0.1072861 0.1072472 0.1071463 0.1070287 0.1069737 0.1070346 0.1072004 0.1074232 0.1076586
 0.1078676 0.1080178 0.1081098 0.1081784 0.1082491 0.1083145 0.1083608 0.1083999 0.1084687 0.1086005
 0.1087928 0.1090029 0.1091832 0.1093149 0.1094065 0.1094829 0.1095812 0.1097213 0.1098702 0.1099691
 0.110009 0.1100472 0.1101355 0.1102588 0.1103609 0.110412 0.1104363 0.1104793 0.1105613 0.1106664
 0.1107682 0.1108591 0.1109538 0.1110651 0.1111755 0.1112404 0.1112336 0.1111834 0.1111467 0.1111508
 0.1111824 0.1112268 0.1112897 0.1113745 0.1114587 0.111511 0.1115253 0.111528 0.1115471 0.111579
 0.1115948 0.111577 0.1115381 0.1115049 0.1114921 0.1114957 0.1114999 0.1114883 0.1114537 0.1114002
 0.1113373 0.1112709 0.111201 0.1111284 0.1110684 0.1110472 0.1110693 0.1110895 0.1110387 0.1108898
 0.1106874 0.110505 0.1103805 0.1102953 0.1102062 0.1100863 0.1099403 0.1097915 0.1096599 0.1095493
 0.1094504 0.1093518 0.1092544 0.1091777 0.1091424 0.1091413 0.1091332 0.109079 0.1089803 0.1088733
 0.1087909 0.1087391 0.108707 0.1086844 0.1086717 0.1086782 0.1087085 0.1087473 0.1087698 0.1087707
 0.1087729 0.1088037 0.1088748 0.1089834 0.1091131 0.1092325 0.1093144 0.109366 0.1094249 0.1095198
 0.109646 0.1097841 0.1099275 0.1100831 0.1102561 0.1104459 0.1106536 0.1108831 0.1111358 0.1114065
 0.1116847 0.1119595 0.1122272 0.112497 0.1127871 0.113109 0.1134569 0.1138127 0.1141606 0.1144991
 0.1148372 0.1151825 0.1155332 0.1158864 0.1162477 0.116626 0.1170212 0.117422 0.1178186 0.1182108
 0.118604 0.1190023 0.1194051 0.1198115 0.1202282 0.1206645 0.1211144 0.1215479 0.1219345 0.1222758
 0.1226071 0.1229653 0.1233611 0.123776 0.1241763 0.1245364 0.1248605 0.1251818 0.125529 0.1258983
 0.1262669 0.1266301 0.1270103 0.127424 0.1278492 0.128237 0.1285571 0.1288273 0.1290941 0.1293838
 0.1296807 0.1299562 0.1302074 0.1304559 0.1307158 0.1309823 0.1312546 0.1315475 0.1318689 0.132196
 0.1324939 0.1327516 0.1329862 0.1332144 0.1334319 0.1336224 0.1337779 0.1339107 0.1340491 0.1342148
 0.1344017 0.1345857 0.1347572 0.134933 0.1351327 0.1353589 0.135607 0.1358803 0.1361795 0.1364875
 0.1367852 0.1370815 0.1374061 0.1377623 0.1381078 0.1383977 0.1386355 0.1388611 0.1390995 0.1393493
 0.1396122 0.1399058 0.1402392 0.1405957 0.1409454 0.1412692 0.1415723 0.1418795 0.1422092 0.1425474
 0.142854 0.1431033 0.1433084 0.1435078 0.1437338 0.1439957 0.1442805 0.1445649 0.1448303 0.1450651
 0.1452544 0.14538 0.1454399 0.1454565 0.145451 0.1454136 0.1453086 0.1451042 0.1447873 0.1443501
 0.1437806 0.1430743 0.1422594 0.1414096 0.140631 0.1400296 0.1396823 0.1396245 0.1398539 0.1403328
 0.1409864 0.1417082 0.1423808 0.1428978 0.1431763 0.1431665 0.1428615 0.1422987 0.1415412 0.1406569
 0.1397084 0.1387492 0.137824 0.1369837 0.1363128 0.1359382 0.1359979 0.1365924 0.1377474 0.1393887
 0.1413376 0.143352 0.1452191 0.146834 0.1482033 0.1493856 0.150437 0.1513976 0.1522972 0.1531546
 0.1539738 0.1547504 0.1554818 0.1561667 0.156797 0.1573569 0.1578297 0.1582029 0.1584722 0.1586459
 0.1587459 0.1587989 0.1588304 0.1588614 0.1588981 0.1589154 0.1588553 0.158656 0.1582873 0.1577702
 0.1571821 0.1566642 0.1564142 0.156637 0.1574538 0.1588262 0.1605609 0.1624002 0.164128 0.1656194
 0.1668335 0.1677903 0.1685489 0.1691795 0.1697353 0.1702442 0.1707178 0.1711636 0.1715895 0.1720031
 0.1724079 0.1728031 0.1731882 0.1735675 0.1739463 0.1743264 0.1747065 0.1750878 0.1754759 0.1758744
 0.1762763 0.1766669 0.1770406 0.177409 0.1777853 0.1781649 0.1785311 0.1788785 0.1792195 0.1795695
 0.1799329 0.1803042 0.1806714 0.1810214 0.1813479 0.1816567 0.1819601 0.1822663 0.1825759 0.1828849
 0.1831894 0.1834883 0.1837834 0.184077 0.1843708 0.1846647 0.1849553 0.1852362 0.1855032 0.1857611
 0.1860204 0.1862874 0.1865582 0.1868251 0.1870867 0.1873494 0.1876216 0.1879042 0.1881899 0.1884693
 0.1887378 0.1889966 0.1892496 0.1895012 0.1897558 0.1900169 0.1902852 0.1905557 0.1908219 0.1910823
 0.1913423 0.1916071 0.1918748 0.1921399 0.1923998 0.1926567 0.1929123 0.1931672 0.1934222 0.1936798
 0.1939415 0.1942046 0.1944619 0.1947075 0.194943 0.1951745 0.1954068 0.1956405 0.1958754 0.1961114
 0.1963487 0.196588 0.1968297 0.1970726 0.1973154 0.197558 0.1977999 0.1980402 0.1982787 0.1985161
 0.1987522 0.1989861 0.1992186 0.1994519 0.1996869 0.1999225 0.2001575 0.2003912 0.2006245 0.2008597
 0.2010976 0.2013372 0.2015779 0.2018203 0.2020645 0.2023088 0.2025514 0.2027923 0.2030329 0.203274
 0.2035136 0.2037497 0.2039832 0.2042181 0.2044559 0.2046955 0.204936 0.2051771 0.2054183 0.2056603
 0.2059055 0.2061543 0.2064041 0.2066523 0.206898 0.2071428 0.207389 0.2076376 0.2078845 0.208124
 0.2083566 0.2085886 0.2088255 0.2090689 0.2093164 0.2095619 0.2098013 0.2100388 0.2102826 0.210536
 0.2107955 0.2110542 0.2113069 0.2115539 0.2118012 0.212053 0.2123078 0.2125652 0.212829 0.2130996
 0.2133709 0.2136365 0.2138939 0.2141453 0.2143954 0.2146465 0.2148944 0.2151345 0.2153695 0.2156039
 0.2158377 0.2160716 0.2163107 0.216558 0.2168124 0.2170733 0.2173398 0.2176077 0.2178754 0.218147
 0.2184242 0.2187038 0.2189828 0.2192603 0.2195363 0.2198138 0.2200978 0.2203885 0.2206813 0.220973
 0.2212618 0.221546 0.221829 0.2221164 0.2224083 0.2227014 0.2229962 0.2232929 0.2235884 0.2238822
 0.2241768 0.2244691 0.2247542 0.2250344 0.2253147 0.2255968 0.2258824 0.2261727 0.2264641 0.2267535
 0.2270437 0.2273333 0.2276159 0.227894 0.2281776 0.2284684 0.2287618 0.2290576 0.2293549 0.2296484
 0.229938 0.2302274 0.2305122 0.2307877 0.2310595 0.2313325 0.2316056 0.2318813 0.2321608 0.2324303
 0.2326639 0.2328094 0.2327229 0.2320979 0.2304253 0.2270027 0.2210699 0.2121113 0.2001667 0.1859215
 0.1705165 0.1551909 0.1409456 0.1284081 0.1179135 0.1096361 0.1036806 0.1001619 0.09927084 0.1013691
 0.1071177 0.1170853 0.1302961 0.1429763 0.1499707 0.1486504 0.1412961 0.1330265 0.1276304 0.1257147
 0.126 0.1272248 0.1288877 0.1311049 0.1341763 0.1381391 0.1427247 0.147799 0.1536137 0.1604219
 0.1679848 0.1756634 0.1829551 0.1898163 0.1964703 0.2030121 0.2092602 0.2149304 0.2198555 0.2240382
 0.2275907 0.230665 0.2333962 0.2358712 0.2381449 0.2402491 0.2421508 0.2437319 0.2448557 0.2454761
 0.2456929 0.2457067 0.2457072 0.24579 0.2459668 0.246227 0.2465658 0.2469769 0.2474523 0.2479824
 0.248547 0.2491198 0.2496862 0.2502423 0.2507825 0.2513011 0.2517972 0.2522685 0.2527109 0.2531273
 0.2535257 0.2539113 0.254288 0.2546586 0.25502 0.2553691 0.2557119 0.2560543 0.2563897 0.2567057
 0.256999 0.2572733 0.2575353 0.2577915 0.2580432 0.2582871 0.2585251 0.2587655 0.2590099 0.2592525
 0.2594919 0.259731 0.2599688 0.2602006 0.2604254 0.2606459 0.2608657 0.2610883 0.2613155 0.261547
 0.2617823 0.2620209 0.2622581 0.2624885 0.2627115 0.2629311 0.2631538 0.2633877 0.2636361 0.2638918
 0.2641454 0.2643972 0.2646526 0.2649124 0.2651747 0.2654391 0.2657037 0.2659654 0.2662252 0.266485
 0.2667393 0.2669767 0.2671901 0.2673844 0.2675747 0.2677769 0.2679942 0.2682181 0.2684414 0.2686659
 0.2688937 0.2691231 0.2693515 0.2695777 0.2698025 0.2700338 0.2702829 0.2705518 0.2708289 0.2711029
 0.2713719 0.2716402 0.2719132 0.2721952 0.2724822 0.2727606 0.2730201 0.2732672 0.2735246 0.2738143
 0.2741391 0.2744761 0.2747964 0.2750909 0.2753726 0.2756594 0.2759607 0.2762688 0.2765546 0.2767882
 0.2769814 0.2771941 0.2774811 0.2778406 0.2782253 0.278591 0.278924 0.2792328 0.2795274 0.2798086
 0.280068 0.2802986 0.2805112 0.2807445 0.2810404 0.2813977 0.2817667 0.2821013 0.2823971 0.2826729
 0.2829407 0.2832057 0.2834573 0.2836536 0.2837619 0.2838344 0.2840002 0.2843451 0.2848191 0.2852902
 0.2856756 0.285991 0.2862849 0.2865735 0.2868472 0.2870815 0.2872032 0.2871308 0.2869247 0.2868391
 0.2871148 0.2877364 0.2884623 0.2890681 0.2894937 0.2897958 0.2900476 0.2902888 0.2905014 0.2906131
 0.2905748 0.2904711 0.2905093 0.2908309 0.2913514 0.2918501 0.2922051 0.2924653 0.2927242 0.2930114
 0.2932771 0.2933842 0.2931712 0.2926703 0.2922497 0.292375 0.2931613 0.294243 0.2951373 0.2956725
 0.2959895 0.296208 0.2962496 0.2959853 0.295397 0.2945836 0.2938071 0.2935359 0.2941387 0.295413
 0.2966672 0.2974148 0.2977928 0.2982117 0.2988207 0.2994436 0.2998654 0.3000253 0.2999822 0.2997868
 0.2994556 0.2991109 0.2990674 0.2996092 0.3006565 0.3017839 0.3026191 0.3031363 0.3034841 0.303552
 0.3028586 0.3011217 0.2990056 0.297953 0.2989044 0.3013096 0.3037239 0.3052369 0.3059699 0.3064004
 0.3067384 0.3068672 0.3063343 0.3045021 0.3014184 0.2985735 0.2979953 0.3002515 0.3038132 0.3065348
 0.3072903 0.3062035 0.3041039 0.3021423 0.3013816 0.3022209 0.3042289 0.3065816 0.3085542 0.3097215
 0.3099917 0.3095683 0.3088626 0.3083777 0.3083916 0.3085396 0.308045 0.3067245 0.3053407 0.304428
 0.3033139 0.301222 0.2990104 0.2986364 0.3007345 0.3036954 0.30553 0.3059031 0.3057718 0.3054623
 0.3038872 0.2999812 0.2946748 0.2908695 0.2909521 0.294409 0.2983335 0.3002833 0.3002122 0.2996351
 0.2994981 0.2991796 0.2974171 0.2940957 0.2909384 0.289964 0.2912238 0.2927226 0.2926249 0.2905396
 0.2865589 0.2808008 0.2749268 0.2724472 0.2756197 0.2826385 0.2892361 0.2923701 0.2911721 0.2856666
 0.2770726 0.2691181 0.266364 0.2699906 0.2764124 0.2807487 0.2806746 0.2765124 0.2692323 0.2600197
 0.2512938 0.2464116 0.2475265 0.253858 0.2618552 0.2667458 0.2649758 0.2570518 0.2482251 0.2445402
 0.2471728 0.2516764 0.2532273 0.2511665 0.2479915 0.2459545 0.245815 0.2472734 0.2493108 0.2509837
 0.2521381 0.2520935 0.2483265 0.2392574 0.2284002 0.2225031 0.2245987 0.231564 0.2392197 0.2465305
 0.253284 0.2570835 0.2558714 0.2519589 0.2505541 0.2542118 0.2604196 0.2648513 0.2658014 0.2649036
 0.2642261 0.2638196 0.2627082 0.2615247 0.2625743 0.2668732 0.2724474 0.2764331 0.2779403 0.2780301
 0.2777708 0.2773639 0.2766814 0.2756992 0.2744616 0.273101 0.2718278 0.270704 0.2696009 0.2684638
 0.2672419 0.2653075 0.2615067 0.255666 0.2498837 0.2470916 0.247983 0.2505774 0.2530745 0.2551609
 0.2556193 0.2513506 0.2414232 0.230696 0.2264763 0.2314555 0.2415544 0.2504786 0.2546791 0.2537996
 0.2485593 0.2404281 0.2331496 0.2320887 0.2400916 0.2544953 0.2695107 0.2811169 0.2885929 0.292272
 0.2919928 0.2882484 0.2834939 0.2811856 0.2834093 0.2895106 0.296603 0.300913 0.2994196 0.292339
 0.2847884 0.283694 0.2909148 0.3007681 0.306303 0.3065889 0.3057041 0.3062746 0.3072231 0.3073358
 0.30778 0.3101196 0.3137383 0.3163529 0.3160632 0.3121519 0.3050759 0.2970207 0.2915572 0.2908254
 0.2931884 0.2951294 0.2948735 0.2924191 0.2873168 0.2796392 0.2727699 0.2715901 0.2769277 0.2843042
 0.2890375 0.2905989 0.2911756 0.2917225 0.290833 0.287095 0.2815972 0.2774613 0.2767776 0.2786229
 0.2805634 0.2812846 0.280804 0.278952 0.275364 0.2710908 0.2687509 0.2702106 0.2745964 0.2791609
 0.2818262 0.2824647 0.2820854 0.2815514 0.2811328 0.2806897 0.2801027 0.2798369 0.2809267 0.2838741
 0.2877203 0.2908797 0.2928899 0.2947308 0.2973629 0.3005067 0.3030476 0.3042761 0.3045274 0.304792
 0.3058431 0.3076172 0.3092871 0.3099936 0.309685 0.3092692 0.3097956 0.3114554 0.3135061 0.3151253
 0.3161032 0.3167294 0.3173251 0.3179747 0.3184844 0.3185468 0.3181494 0.3178257 0.3182552 0.3195523
 0.321123 0.3222609 0.3227223 0.3226943 0.3223976 0.3218724 0.3210903 0.3201325 0.3191951 0.3184401
 0.3178843 0.3174346 0.3169969 0.3165324 0.3160524 0.3156024 0.3152427 0.3150119 0.3149059 0.3148966
 0.3149494 0.3150181 0.3150603 0.3150751 0.3150939 0.3151179 0.3150894 0.3149382 0.3146257 0.3141311
 0.3134213 0.3124568 0.3112074 0.3096414 0.3077298 0.3055431 0.303407 0.3019325 0.3017649 0.303182
 0.3058802 0.3091476 0.3122658 0.3148193 0.3167431 0.3181781 0.3193033 0.320246 0.32107 0.3217974
 0.3224338 0.3229828 0.3234479 0.3238294 0.3241308 0.324364 0.3245428 0.3246721 0.3247442 0.3247413
 0.3246417 0.3244312 0.3241119 0.3236958 0.3231912 0.3225925 0.3218809 0.3210371 0.3200682 0.3190223
 0.3179695 0.3169605 0.3159996 0.3150533 0.3140801 0.313044 0.3118904 0.3105414 0.3089728 0.3073109
 0.3057939 0.3045821 0.3036194 0.302707 0.3016829 0.3005037 0.2991958 0.297794 0.2963302 0.2948351
 0.293325 0.2917894 0.2901981 0.2885201 0.2867423 0.2848719 0.2829238 0.2809101 0.2788457 0.2767457
 0.2745957 0.2723178 0.2697728 0.2668014 0.2632689 0.2590918 0.254254 0.2488257 0.2429699 0.2369125
 0.2308847 0.2250818 0.2196643 0.2147728 0.2105298 0.20703 0.2043374 0.2024874 0.2014937 0.2013564
 0.2020649 0.2035857 0.2058467 0.2087304 0.2120784 0.2156985 0.2193789 0.2229209 0.226192 0.2291699
 0.2319251 0.2345378 0.2370212 0.2393253 0.2413983 0.2432254 0.2448116 0.2461568 0.2472626 0.2481544
 0.2488821 0.2494991 0.2500393 0.2505091 0.2508956 0.251188 0.2513959 0.251549 0.2516806 0.2518158
 0.2519726 0.2521655 0.2524057 0.2527006 0.2530573 0.2534826 0.2539735 0.2545139 0.2550876 0.2557028
 0.2563947 0.2572021 0.2581477 0.2592461 0.2605171 0.2619801 0.2636381 0.2654681 0.2674093 0.2693523
 0.2711531 0.2726818 0.27387 0.2747154 0.2752511 0.2755132 0.2755333 0.2753486 0.2750007 0.2745222
 0.2739328 0.2732528 0.2725064 0.2717071 0.270849 0.2699235 0.268942 0.2679385 0.2669456 0.2659731
 0.2650118 0.2640558 0.2631106 0.2621822 0.2612723 0.260383 0.259518 0.2586787 0.257867 0.2570872
 0.2563372 0.2556014 0.2548525 0.2540488 0.2531359 0.2520656 0.2508174 0.2493984 0.2478281 0.2461272
 0.2443121 0.2423943 0.2403857 0.2383007 0.2361504 0.233935 0.2316411 0.2292506 0.2267697 0.2242594
 0.2218222 0.2195427 0.2174447 0.2155009 0.2136713 0.2119328 0.2102831 0.2087212 0.2072325 0.2058004
 0.2044213 0.2030978 0.2018293 0.200621 0.1994891 0.1984514 0.1975237 0.1967203 0.1960435 0.1954764
 0.1949933 0.1945743 0.1942171 0.1939487 0.1938101 0.1938065 0.1938759 0.1939217 0.1938744 0.193727
 0.193527 0.1933317 0.1931581 0.192971 0.1927072 0.1923109 0.191776 0.1911672 0.1905476 0.1898514
 0.1888765 0.1874417 0.1855389 0.1833369 0.1810794 0.1789773 0.1771541 0.175658 0.1744965 0.1736351
 0.1729911 0.1724823 0.1720923 0.1718747 0.1718988 0.1721693 0.1725621 0.172876 0.1730105 0.1730821
 0.1733233 0.1738831 0.1747368 0.1757384 0.176725 0.1775957 0.1783162 0.1788761 0.1792754 0.1795397
 0.1796989 0.1797539 0.1796937 0.1795193 0.1792313 0.1788289 0.1783276 0.1777436 0.1770716 0.176305
 0.1754508 0.1745074 0.1734661 0.1723294 0.1710821 0.1696878 0.1681901 0.1667955 0.1657989 0.1654245
 0.1657127 0.1665033 0.1675471 0.1686684 0.1697847 0.1707904 0.171568 0.172178 0.1729354 0.1742001
 0.1760746 0.1782944 0.1804017 0.1820305 0.1830279 0.1833666 0.1830746 0.182245 0.1809808 0.1793254
 0.1773363 0.1751628 0.1729685 0.1708742 0.1689999 0.1674317 0.1661595 0.165143 0.1643534 0.1637701
 0.1634511 0.1631375 0.1612885 0.1556156 0.1463491 0.1383637 0.1375084 0.1443096 0.1532453 0.1586785
 0.1596483 0.1585231 0.1572658 0.1562838 0.1554817 0.1549343 0.1547469 0.1548918 0.1551906 0.15538
 0.1552802 0.154844 0.1539384 0.1520962 0.1484734 0.1421477 0.1328115 0.1214168 0.1099758 0.1004943
 0.09397909 0.09022638 0.08825694 0.08699948 0.08590264 0.08512269 0.08516485 0.08636817 0.08871314 0.09197433
 0.09588517 0.1001159 0.1042171 0.1077559 0.1105442 0.1126519 0.1141946 0.1152068 0.1157105 0.1157784
 0.1154982 0.1149436 0.1141811 0.1132444 0.1121119 0.1107603 0.1092565 0.1077927 0.1066079 0.1058374
 0.1054319 0.1052446 0.1051694 0.1051672 0.1052131 0.1052856 0.105385 0.1055297 0.1057438 0.1060446
 0.106409 0.1067633 0.107034 0.1072 0.107284 0.1073018 0.1072236 0.1069983 0.1066409 0.1062573
 0.1058997 0.1054211 0.1045905 0.103387 0.1021152 0.1012077 0.1009261 0.1012094 0.1017523 0.1022313
 0.1025015 0.102612 0.1026607 0.1026478</values></Ydata></ScSm><ScRf><Ydata ylabel="Single channel"><values byteorder="INTEL" format="FLOAT32" numvalues="1820"> 0.07054608 0.07068428 0.07080609 0.07091016 0.07100248 0.0710952 0.07120032 0.07132114 0.07145125 0.0715805
 0.07170121 0.07181148 0.07191245 0.0720024 0.07208075 0.07215957 0.07226065 0.07239409 0.07254565 0.07268734
 0.07279861 0.07288316 0.07296932 0.07308279 0.0732112 0.07330477 0.07332268 0.07327738 0.07322773 0.07322675
 0.0732868 0.07340726 0.07360837 0.07388102 0.074114 0.07416473 0.07403778 0.07391167 0.07394207 0.07410536
 0.07426938 0.07433827 0.07429295 0.07418258 0.07414133 0.07434221 0.07484081 0.07545207 0.07580844 0.07556971
 0.07464814 0.07333298 0.07222277 0.07191294 0.07256676 0.07373543 0.07469399 0.07502574 0.07484865 0.07450889
 0.07421964 0.07405315 0.07409796 0.07444328 0.07503138 0.07559925 0.075781 0.07534859 0.07447185 0.073686
 0.07345475 0.07381058 0.07452047 0.07536642 0.07594073 0.07543726 0.07336514 0.07063532 0.06927877 0.07057089
 0.07369675 0.07659893 0.07785071 0.07740966 0.07602399 0.07457255 0.07383353 0.07421543 0.07548986 0.07702085
 0.07827129 0.07894521 0.0788538 0.07800472 0.07677907 0.07576908 0.0754486 0.07603636 0.07740682 0.07895614
 0.07984439 0.07965804 0.07871996 0.07767174 0.07700131 0.07701992 0.07788798 0.07942213 0.08111273 0.0825012
 0.08341892 0.08388273 0.08397922 0.08384915 0.0836213 0.08339401 0.08332822 0.08356427 0.08394651 0.08405824
 0.08368577 0.08310848 0.08281498 0.08299866 0.0833932 0.0835941 0.08345897 0.08302709 0.08210576 0.08036794
 0.078023 0.07591728 0.07470644 0.07439674 0.07488663 0.0762464 0.07806367 0.07924164 0.07910313 0.07830293
 0.07811838 0.07906791 0.08058615 0.08185172 0.08258609 0.08309662 0.08379339 0.08472505 0.08546431 0.08542216
 0.08444809 0.08320668 0.0827387 0.0834547 0.08473469 0.08569215 0.08610736 0.0863976 0.0868798 0.08730933
 0.08709358 0.08592618 0.08431794 0.08341782 0.08406578 0.08596072 0.08781767 0.08833824 0.0871329 0.08493214
 0.08297563 0.08212255 0.08251821 0.08394654 0.08613283 0.08860967 0.09064815 0.09162787 0.09146293 0.09058481
 0.08947319 0.08820866 0.08664054 0.08508469 0.08451122 0.08563868 0.08801189 0.09036352 0.09178342 0.09222317
 0.09198354 0.09110293 0.08943942 0.08730572 0.08575186 0.0857888 0.08723836 0.08877821 0.08934668 0.08913507
 0.08898585 0.08924051 0.08955324 0.08959833 0.08955744 0.08986174 0.09064086 0.0915572 0.09216382 0.09231477
 0.09219541 0.09205978 0.09199136 0.09185603 0.09151118 0.09112902 0.09118342 0.09195048 0.093134 0.0941603
 0.09474251 0.0949956 0.09508877 0.09496227 0.09443308 0.09355465 0.09279279 0.09269543 0.09335881 0.09435295
 0.09517855 0.09563944 0.09579381 0.09576483 0.09565948 0.09554143 0.09544185 0.09542792 0.09559439 0.09593454
 0.09630077 0.09654853 0.09665476 0.09666634 0.09660463 0.09646504 0.09627748 0.09612834 0.09610797 0.09623747
 0.09646153 0.09670684 0.09691645 0.09703935 0.09704493 0.09696209 0.09686232 0.09679411 0.09676275 0.09676979
 0.09683253 0.09695363 0.09709792 0.09721664 0.09728631 0.09731412 0.09731323 0.09728976 0.09725277 0.0972233
 0.09722771 0.09728157 0.09737344 0.09747077 0.09755836 0.09765926 0.09779008 0.09791127 0.09796201 0.09793804
 0.09789944 0.09790457 0.09796391 0.09805241 0.09813844 0.0981938 0.09819479 0.09813728 0.09806039 0.09803721
 0.09812058 0.09830333 0.09854051 0.09878829 0.09900972 0.0991758 0.09928718 0.09937476 0.09946153 0.09954076
 0.09959982 0.09965063 0.09972933 0.0998681 0.1000633 0.100272 0.100448 0.1005753 0.100666 0.1007483
 0.1008581 0.1010107 0.1011686 0.101272 0.1013142 0.1013555 0.1014493 0.1015802 0.1016904 0.1017497
 0.1017825 0.1018343 0.1019241 0.1020337 0.1021367 0.1022296 0.1023319 0.102458 0.1025873 0.1026709
 0.1026783 0.1026351 0.1025985 0.1025986 0.1026239 0.102659 0.1027105 0.1027846 0.1028612 0.102908
 0.1029155 0.1029072 0.1029112 0.1029273 0.1029293 0.1028977 0.1028423 0.1027907 0.1027614 0.102752
 0.1027459 0.1027261 0.1026849 0.102625 0.1025537 0.1024772 0.1023988 0.1023247 0.1022725 0.1022651
 0.1023004 0.1023285 0.1022802 0.1021312 0.101928 0.1017453 0.1016211 0.1015366 0.1014473 0.101325
 0.1011738 0.1010179 0.1008778 0.1007569 0.1006455 0.1005346 0.1004283 0.1003451 0.1003002 0.1002798
 0.1002414 0.1001527 0.1000239 0.09989465 0.09979445 0.09972642 0.09967984 0.09964281 0.09960902 0.09958394
 0.09957807 0.09958734 0.09959103 0.09957747 0.0995599 0.09956217 0.09960024 0.09967782 0.09978206 0.09988053
 0.09994237 0.09997058 0.1000009 0.1000646 0.100163 0.1002795 0.1004038 0.1005354 0.1006758 0.1008263
 0.1009908 0.1011751 0.1013808 0.1016021 0.1018281 0.1020491 0.1022637 0.1024814 0.1027166 0.1029768
 0.1032567 0.1035417 0.1038198 0.1040905 0.104363 0.1046435 0.1049279 0.105212 0.1055023 0.1058092
 0.1061323 0.1064595 0.1067816 0.1071 0.1074196 0.107742 0.1080661 0.1083947 0.1087384 0.1091079
 0.1094951 0.1098679 0.1101944 0.1104756 0.1107455 0.1110412 0.1113746 0.1117287 0.1120708 0.1123753
 0.1126455 0.1129111 0.1131976 0.1135013 0.1138051 0.1141116 0.1144461 0.1148209 0.1152071 0.1155516
 0.1158235 0.1160433 0.1162593 0.1164991 0.1167475 0.1169758 0.1171821 0.1173909 0.1176198 0.1178633
 0.1181133 0.1183756 0.1186545 0.1189334 0.1191878 0.119411 0.1196161 0.1198143 0.1200007 0.1201601
 0.120283 0.1203783 0.1204739 0.1205958 0.1207438 0.1208958 0.1210375 0.1211786 0.1213361 0.121515
 0.1217137 0.1219358 0.1221821 0.1224387 0.1226902 0.1229449 0.1232269 0.1235358 0.1238313 0.1240748
 0.1242727 0.1244621 0.1246649 0.1248778 0.1251023 0.1253555 0.1256459 0.1259558 0.1262555 0.1265295
 0.1267892 0.1270642 0.1273734 0.1276993 0.127996 0.1282317 0.1284189 0.1286011 0.1288155 0.1290704
 0.12935 0.1296315 0.1298987 0.1301413 0.1303457 0.1304975 0.1305976 0.1306666 0.1307205 0.1307459
 0.1307086 0.1305823 0.1303589 0.1300335 0.129592 0.1290242 0.1283496 0.1276309 0.126962 0.1264393
 0.1261352 0.1260866 0.1262938 0.1267216 0.1273015 0.1279427 0.1285492 0.1290314 0.1293128 0.1293403
 0.1291024 0.1286316 0.1279854 0.127224 0.1264007 0.1255606 0.1247403 0.1239815 0.1233584 0.1229865
 0.1229929 0.1234694 0.124439 0.125838 0.1275135 0.1292579 0.1308838 0.1322928 0.1334833 0.134505
 0.1354113 0.1362423 0.1370255 0.1377742 0.1384867 0.1391558 0.1397817 0.1403706 0.1409222 0.1414244
 0.1418582 0.1422053 0.1424564 0.142619 0.1427157 0.142769 0.1427928 0.1427963 0.1427849 0.1427452
 0.1426375 0.1424132 0.1420459 0.1415526 0.1410009 0.1405121 0.1402522 0.1403938 0.1410456 0.142186
 0.1436578 0.14524 0.1467395 0.148038 0.1490903 0.1499097 0.1505521 0.1510835 0.1515499 0.151973
 0.1523659 0.1527411 0.1531052 0.1534582 0.1537995 0.1541341 0.1544705 0.1548146 0.1551642 0.155511
 0.1558484 0.1561795 0.156516 0.1568679 0.1572318 0.1575924 0.1579395 0.15828 0.1586268 0.158978
 0.1593187 0.1596413 0.159955 0.1602745 0.1606064 0.1609474 0.1612879 0.1616158 0.1619241 0.1622165
 0.1625038 0.1627944 0.1630897 0.1633873 0.1636826 0.1639706 0.1642497 0.1645238 0.1648003 0.1650827
 0.165365 0.1656366 0.1658936 0.1661437 0.1663983 0.1666602 0.1669228 0.1671786 0.1674275 0.1676778
 0.1679398 0.1682154 0.1684944 0.1687638 0.1690184 0.1692631 0.1695053 0.1697497 0.1699981 0.1702505
 0.1705068 0.1707669 0.1710296 0.1712921 0.1715503 0.171803 0.1720522 0.1723008 0.1725493 0.1727954
 0.1730381 0.173281 0.173529 0.1737835 0.1740409 0.1742955 0.1745419 0.1747788 0.1750109 0.1752445
 0.1754806 0.1757151 0.1759469 0.1761811 0.1764242 0.1766766 0.1769314 0.1771806 0.1774228 0.1776634
 0.177906 0.1781479 0.1783858 0.1786209 0.1788575 0.1790981 0.1793423 0.1795887 0.1798361 0.1800837
 0.1803301 0.1805727 0.1808112 0.1810479 0.1812846 0.1815209 0.1817578 0.1819972 0.182239 0.1824804
 0.1827194 0.1829556 0.1831908 0.1834273 0.1836645 0.1838981 0.1841259 0.1843527 0.1845864 0.1848296
 0.1850785 0.1853256 0.1855657 0.1857999 0.1860331 0.1862676 0.1865002 0.1867294 0.1869588 0.1871935
 0.1874346 0.1876793 0.1879236 0.1881657 0.1884079 0.1886526 0.1888988 0.1891443 0.1893887 0.1896318
 0.1898737 0.190116 0.1903609 0.1906086 0.1908594 0.1911133 0.1913668 0.1916152 0.1918603 0.1921078
 0.1923595 0.1926143 0.1928723 0.1931334 0.1933962 0.1936597 0.1939224 0.1941798 0.1944275 0.1946648
 0.194893 0.195114 0.1953317 0.1955508 0.1957742 0.1960046 0.1962419 0.1964801 0.1967137 0.196946
 0.1971834 0.1974254 0.1976684 0.1979128 0.1981599 0.19841 0.1986639 0.1989228 0.1991854 0.1994499
 0.199714 0.1999735 0.2002256 0.2004745 0.2007264 0.200984 0.2012495 0.2015234 0.2017991 0.2020695
 0.2023361 0.2026048 0.2028765 0.2031493 0.203421 0.2036881 0.2039513 0.2042184 0.2044927 0.2047681
 0.205039 0.2053074 0.2055755 0.2058447 0.2061187 0.2063957 0.2066684 0.2069365 0.2072072 0.2074829
 0.2077607 0.2080405 0.2083206 0.2085968 0.2088712 0.2091486 0.2094254 0.2096967 0.2099666 0.2102373
 0.2105035 0.2107651 0.2110265 0.2112815 0.2115083 0.2116548 0.211586 0.2110239 0.2095079 0.2064005
 0.2010113 0.1928736 0.1820241 0.1690812 0.1550752 0.1411311 0.1281645 0.1167531 0.1072039 0.09967467
 0.094259 0.09106131 0.09025595 0.09217364 0.09741775 0.1065048 0.1185434 0.1300978 0.1364782 0.1352939
 0.1286187 0.1211067 0.1162049 0.114468 0.1147351 0.1158583 0.1173795 0.119404 0.1222079 0.1258305
 0.1300306 0.134684 0.140016 0.146255 0.1531854 0.1602244 0.166908 0.1731903 0.1792759 0.1852599
 0.1909845 0.1961911 0.2007222 0.2045752 0.2078495 0.2106838 0.2132021 0.2154851 0.217584 0.2195284
 0.2212888 0.2227576 0.2238104 0.2244056 0.2246345 0.2246802 0.2247167 0.2248315 0.2250354 0.2253162
 0.2256655 0.2260747 0.2265374 0.2270484 0.2275918 0.228144 0.2286913 0.2292298 0.229754 0.2302575
 0.2307378 0.2311922 0.2316188 0.2320229 0.2324124 0.2327892 0.2331534 0.2335098 0.2338645 0.2342221
 0.2345849 0.2349458 0.2352889 0.235604 0.2358946 0.2361685 0.2364311 0.2366879 0.2369423 0.2371935
 0.2374428 0.2376957 0.2379535 0.2382109 0.2384646 0.2387142 0.2389597 0.239202 0.239443 0.2396816
 0.2399161 0.2401498 0.2403867 0.240626 0.2408658 0.2411068 0.2413481 0.2415874 0.2418257 0.2420666
 0.2423133 0.2425689 0.2428333 0.2430997 0.2433617 0.2436225 0.2438899 0.244164 0.2444396 0.2447144
 0.2449898 0.245267 0.2455474 0.2458299 0.2461067 0.2463668 0.2466062 0.2468317 0.2470565 0.2472894
 0.2475289 0.2477678 0.2480034 0.2482395 0.2484787 0.2487209 0.248966 0.2492132 0.2494625 0.2497196
 0.2499928 0.250281 0.2505736 0.2508645 0.2511558 0.2514493 0.2517437 0.2520394 0.2523366 0.2526298
 0.2529132 0.25319 0.2534749 0.2537835 0.2541168 0.2544564 0.2547817 0.2550901 0.2553947 0.2557085
 0.2560363 0.2563705 0.2566847 0.2569498 0.2571751 0.2574176 0.2577319 0.2581169 0.2585236 0.2589055
 0.2592508 0.2595744 0.2598912 0.2601995 0.2604856 0.26074 0.2609758 0.2612322 0.2615485 0.2619247
 0.2623169 0.262682 0.2630109 0.2633139 0.2636012 0.2638834 0.2641591 0.2643914 0.2645433 0.2646562
 0.2648506 0.2652117 0.2656955 0.2661772 0.266579 0.2669182 0.2672409 0.2675564 0.2678504 0.2681
 0.2682427 0.268208 0.2680545 0.2680192 0.2683233 0.2689475 0.2696655 0.2702743 0.2707242 0.2710669
 0.2713632 0.2716455 0.2718976 0.272052 0.2720606 0.2720037 0.2720818 0.2724319 0.2729725 0.2734927
 0.2738757 0.2741667 0.2744523 0.274761 0.2750515 0.2752009 0.275057 0.274644 0.2743025 0.2744697
 0.2752556 0.2763163 0.2771984 0.2777433 0.2780897 0.2783536 0.2784574 0.278273 0.2777796 0.2770713
 0.2763972 0.2761971 0.2768149 0.278059 0.2792813 0.2800253 0.2804179 0.2808432 0.2814438 0.2820589
 0.2824876 0.282669 0.2826536 0.282487 0.2821854 0.281868 0.2818362 0.2823616 0.2833688 0.2844517
 0.2852533 0.2857495 0.2860885 0.2861746 0.2855538 0.2839527 0.2819908 0.281028 0.2819564 0.2842624
 0.2865847 0.2880613 0.2888023 0.2892559 0.289622 0.2897945 0.2893476 0.2876746 0.2848138 0.2821733
 0.2816774 0.2838693 0.2873014 0.2899397 0.2907176 0.2897514 0.2878236 0.2860229 0.2853605 0.2862187
 0.2881851 0.290472 0.2923955 0.2935658 0.2939041 0.2935947 0.2930118 0.2926277 0.2927132 0.2929302
 0.2925424 0.2913726 0.2901427 0.2893597 0.2883841 0.2864766 0.2844516 0.2841721 0.2862457 0.2891471
 0.2909878 0.2914514 0.2914455 0.2912699 0.2898772 0.2862494 0.2812813 0.27775 0.2779365 0.2813494
 0.285212 0.287193 0.2872487 0.2868263 0.28683 0.2866656 0.2851247 0.282097 0.2792357 0.2784771
 0.2798658 0.2814808 0.2815583 0.2797272 0.2760802 0.2707317 0.2652812 0.2631134 0.2664123 0.273445
 0.280091 0.2833959 0.282498 0.2774104 0.2693275 0.2618945 0.2595644 0.26349 0.2701783 0.274873
 0.2753004 0.2717521 0.2651454 0.2566325 0.2486153 0.2444436 0.2462817 0.2533709 0.2621651 0.2678581
 0.2668418 0.259603 0.2514442 0.2484881 0.251922 0.2572161 0.2594503 0.2579415 0.2552238 0.2535904
 0.2538268 0.2556415 0.2579989 0.2599369 0.2613083 0.2614136 0.2576314 0.2483142 0.237108 0.2310257
 0.2332171 0.2404269 0.248303 0.255782 0.2626795 0.2665471 0.2652748 0.2612664 0.259911 0.2638256
 0.270361 0.2749882 0.2758984 0.2747397 0.2736174 0.2725839 0.2706841 0.2686635 0.2689985 0.2728173
 0.2781342 0.2820036 0.28347 0.2835712 0.2833669 0.2830468 0.2824701 0.2816035 0.2804874 0.2792569
 0.2781275 0.2771565 0.2762019 0.2751987 0.2740915 0.2722335 0.2684358 0.2625149 0.2566192 0.2537499
 0.2546116 0.257165 0.2595536 0.2614474 0.2616064 0.2568767 0.2463148 0.2348807 0.2300258 0.2344886
 0.2441131 0.252507 0.2560933 0.2545513 0.2486525 0.2399008 0.232038 0.2303952 0.237791 0.2515729
 0.2659877 0.2770411 0.2840261 0.2872957 0.2867131 0.2827742 0.2778938 0.2754593 0.2774997 0.2833476
 0.2901521 0.2942147 0.2925964 0.2855309 0.2780321 0.2768723 0.2838749 0.2934946 0.2989339 0.2992617
 0.2984425 0.2990411 0.3000197 0.3002083 0.3007537 0.3031825 0.306888 0.3096329 0.3095535 0.3059431
 0.2992471 0.2916121 0.2865462 0.2861418 0.2887645 0.2909295 0.2908782 0.2886105 0.2836927 0.2762117
 0.2695215 0.2684463 0.273798 0.2811465 0.2858709 0.2874634 0.2880968 0.2887136 0.2879184 0.2843177
 0.2789943 0.2750378 0.2745171 0.2765309 0.278692 0.2797126 0.2796049 0.2781863 0.2750884 0.2713578
 0.2695971 0.2716488 0.2766195 0.2817487 0.2849419 0.2860446 0.2860384 0.2857739 0.2855196 0.2851183
 0.2844 0.2837661 0.2842212 0.2863058 0.2891534 0.2912787 0.2922954 0.2932364 0.2951038 0.2976459
 0.299748 0.3006681 0.3006884 0.300752 0.3016104 0.3032036 0.3047179 0.3053043 0.3049147 0.3044563
 0.3049769 0.3066676 0.3087867 0.3105104 0.3116223 0.3124009 0.3131539 0.313955 0.3146081 0.3148128
 0.3145627 0.3143895 0.3149688 0.3164194 0.3181609 0.3194988 0.3201936 0.3204325 0.3204384 0.3202528
 0.3198419 0.3192769 0.318748 0.3184199 0.3183144 0.3183364 0.318379 0.3183866 0.3183574 0.3183299
 0.318357 0.3184637 0.318632 0.3188345 0.3190562 0.3192725 0.3194439 0.319558 0.3196459 0.3197313
 0.3197804 0.3197214 0.3194894 0.3190386 0.3183311 0.3173359 0.3160306 0.3143843 0.3123647 0.310037
 0.3077239 0.3060369 0.3056243 0.3067601 0.3091266 0.311995 0.3146382 0.3166429 0.3179497 0.3187047
 0.3190948 0.3192609 0.3192808 0.3191859 0.3189899 0.3187141 0.3183869 0.3180299 0.3176578 0.3172918
 0.3169583 0.3166676 0.316402 0.3161262 0.3158055 0.3154169 0.3149526 0.3144184 0.3138236 0.3131628
 0.3124097 0.311537 0.3105522 0.3095087 0.3084786 0.3075113 0.306612 0.3057482 0.304875 0.3039499
 0.3029186 0.3017114 0.3003099 0.2988346 0.2975109 0.296492 0.2957239 0.2950084 0.2941761 0.2931735
 0.2920263 0.2907796 0.289475 0.2881426 0.2867892 0.2853977 0.2839395 0.2823898 0.2807386 0.2789926
 0.2771633 0.2752622 0.2733096 0.2713325 0.2693289 0.2672262 0.2648824 0.2621308 0.2588312 0.2548988
 0.2503168 0.2451481 0.2395416 0.2337112 0.2278869 0.2222713 0.2170278 0.2122914 0.2081774 0.2047794
 0.2021643 0.20037 0.1994141 0.199303 0.2000311 0.2015645 0.2038269 0.2067 0.2100317 0.2136431
 0.2173352 0.2209124 0.2242332 0.22726 0.2300485 0.2326708 0.2351413 0.2374161 0.2394485 0.2412245
 0.2427521 0.2440397 0.245097 0.2459485 0.2466387 0.2472184 0.2477262 0.2481756 0.2485578 0.2488591
 0.2490818 0.2492508 0.2494022 0.2495657 0.2497563 0.2499768 0.2502279 0.2505195 0.250876 0.2513241
 0.2518743 0.2525119 0.253206 0.2539318 0.2546867 0.2554906 0.2563745 0.2573743 0.2585275 0.2598579
 0.2613582 0.2629842 0.2646619 0.2662949 0.267779 0.2690264 0.2699873 0.2706531 0.2710417 0.2711814
 0.2711032 0.2708409 0.2704288 0.269894 0.269255 0.2685284 0.2677329 0.2668811 0.2659746 0.2650134
 0.2640088 0.2629857 0.2619709 0.2609809 0.2600216 0.2590946 0.2581981 0.2573232 0.2564605 0.2556129
 0.2547919 0.2540062 0.2532595 0.2525546 0.2518876 0.2512375 0.2505625 0.2498076 0.2489218 0.247878
 0.2466762 0.2453266 0.243838 0.2422198 0.2404838 0.2386395 0.2366961 0.2346664 0.2325632 0.2303896
 0.2281343 0.2257829 0.2233478 0.2208928 0.218515 0.2162921 0.21425 0.2123726 0.2106272 0.2089836
 0.2074223 0.2059298 0.2044928 0.2031053 0.2017749 0.2005126 0.1993235 0.1982116 0.1971812 0.1962344
 0.1953793 0.1946325 0.1940006 0.1934698 0.193019 0.1926359 0.1923256 0.1921189 0.1920554 0.1921301
 0.1922674 0.1923689 0.1923789 0.192304 0.1921922 0.1920963 0.1920443 0.1920371 0.1920584 0.1920633
 0.1919637 0.1916516 0.191032 0.190032 0.1886127 0.1867982 0.1846841 0.1824136 0.1801526 0.1780611
 0.1762526 0.1747813 0.1736546 0.1728316 0.1722236 0.1717476 0.1713883 0.1712007 0.1712575 0.1715671
 0.1720063 0.1723691 0.1725493 0.1726618 0.1729428 0.173547 0.1744545 0.1755176 0.1765646 0.1774817
 0.1782277 0.1787956 0.1791956 0.1794641 0.1796392 0.179726 0.1797073 0.1795689 0.1793021 0.1789146
 0.1784404 0.177902 0.1772811 0.1765568 0.1757369 0.1748307 0.1738356 0.1727493 0.1715482 0.1701886
 0.1687115 0.1673262 0.1663371 0.1659808 0.1663051 0.1671467 0.1682463 0.1694219 0.1705949 0.1716654
 0.1725124 0.1731889 0.1740115 0.1753529 0.1773278 0.1796768 0.1819451 0.1837762 0.1850292 0.1856854
 0.1857732 0.1853704 0.1845379 0.1832536 0.1815116 0.1794242 0.1771502 0.1748268 0.1726062 0.1706207
 0.1689137 0.167492 0.1663571 0.1655042 0.1650016 0.1645877 0.1626854 0.1569457 0.1475759 0.1395065
 0.1386681 0.1455963 0.1546907 0.1602339 0.1612521 0.1601478 0.1589142 0.1579779 0.1572664 0.156859
 0.1568125 0.1570137 0.1572363 0.157256 0.156986 0.1564439 0.155494 0.1536256 0.1499581 0.1435548
 0.1341099 0.1225858 0.1110121 0.1014116 0.09480216 0.09098247 0.08896928 0.08768485 0.08657516 0.08579819
 0.08585946 0.08709383 0.08947875 0.09279189 0.09677137 0.1010852 0.1052725 0.1088835 0.1117155 0.1138363
 0.1153749 0.1163837 0.1168915 0.1169668 0.1166913 0.1161353 0.1153592 0.1143916 0.1132138 0.1118125
 0.1102661 0.1087772 0.107591 0.1068365 0.1064492 0.1062707 0.106193 0.1061824 0.1062251 0.1063131
 0.1064518 0.1066454 0.1068956 0.107207 0.1075627 0.1079065 0.1081805 0.1083658 0.1084718 0.1084998
 0.108416 0.1081744 0.107795 0.1073866 0.1070057 0.1065096 0.1056647 0.1044414 0.1031389 0.1021945
 0.1018787 0.1021357 0.1026604 0.1031272 0.1033848 0.1034771 0.103509 0.1034939 0.1033205 0.1028726
</values></Ydata></ScRf><Data_Parameters_AB><parameter name="DPF">1</parameter><parameter name="NPT">3497</parameter><parameter name="FXV">3996</parameter><parameter name="LXV">500</parameter><parameter name="CSF">1</parameter><parameter name="MXY">0.0163527484983206</parameter><parameter name="MNY">-0.077301062643528</parameter><parameter name="DAT">18/01/2024</parameter><parameter name="TIM">12:13:14.025 (GMT+1)</parameter><parameter name="DXU">WN</parameter></Data_Parameters_AB><AB__Qtest><MainReport name="Quality Test Report"><Header><Line><Legend>Test result ok/not ok [1/0]: </Legend><Value>0</Value></Line><Line><Legend>Method file: </Legend><Value>C:\Users\Public\Documents\Bruker\OPUS_8.2.28\QT\IRBT_v3_default.QT</Value></Line></Header><Matrix><Line><Legend></Legend><Legend>min</Legend><Legend>max</Legend><Legend>measured</Legend></Line><Line><Value>Absorption (X-Range 1):</Value><Value>0.400000</Value><Value>2.000000</Value><Value>0.049749</Value></Line><Line><Value>Noise (X-Range 4):</Value><Value></Value><Value>0.000300</Value><Value>0.000017</Value></Line><Line><Value>Signal/Noise (X-Range 2):</Value><Value>200.000000</Value><Value></Value><Value>75.604626</Value></Line><Line><Value>Signal/Noise (X-Range 3):</Value><Value>40.000000</Value><Value></Value><Value>22.604209</Value></Line><Line><Value>Water vapour (X-Range 5):</Value><Value></Value><Value>0.000300</Value><Value>0.000009</Value></Line><Line><Value>Signal/Water (X-Range 2):</Value><Value>100.000000</Value><Value></Value><Value>143.740007</Value></Line><Line><Value>Signal/Water (X-Range 3):</Value><Value>20.000000</Value><Value></Value><Value>42.975269</Value></Line><Line><Value>Fringes (X-Range 6):</Value><Value></Value><Value>0.000100</Value><Value>0.000022</Value></Line></Matrix></MainReport></AB__Qtest><Data_Parameters_ScSm><parameter name="DPF">1</parameter><parameter name="NPT">1814</parameter><parameter name="FXV">3996.63438082617</parameter><parameter name="LXV">499.579297603271</parameter><parameter name="CSF">1</parameter><parameter name="MXY">0.324744164943695</parameter><parameter name="MNY">0.0822159945964813</parameter><parameter name="DAT">18/01/2024</parameter><parameter name="TIM">12:13:14.025 (GMT+1)</parameter><parameter name="DXU">WN</parameter></Data_Parameters_ScSm><Data_Parameters_ScRf><parameter name="DPF">1</parameter><parameter name="NPT">1820</parameter><parameter name="FXV">4004.34989121387</parameter><parameter name="LXV">495.721542409425</parameter><parameter name="CSF">1</parameter><parameter name="MXY">0.320438385009766</parameter><parameter name="MNY">0.0692787691950798</parameter><parameter name="DAT">18/01/2024</parameter><parameter name="TIM">12:12:47.230 (GMT+1)</parameter><parameter name="DXU">WN</parameter></Data_Parameters_ScRf><Optic_Parameters_Rf><parameter name="APR">0</parameter><parameter name="APT">Open</parameter><parameter name="BMS">KBr</parameter><parameter name="DTC">RT-DLaTGS_IR-Biotyper [Microplate reader]</parameter><parameter name="HPF">0</parameter><parameter name="LPF">10.0</parameter><parameter name="LPV">4000</parameter><parameter name="PGR">0</parameter><parameter name="RCH">Module port</parameter><parameter name="RDX">0</parameter><parameter name="SRC">MIR</parameter><parameter name="VEL">10.0</parameter><parameter name="SON">Off</parameter></Optic_Parameters_Rf><Acquisition_Parameters_Rf><parameter name="ADT">1</parameter><parameter name="AQM">DD</parameter><parameter name="CFE">0</parameter><parameter name="COR">0</parameter><parameter name="DEL">0</parameter><parameter name="DLY">0</parameter><parameter name="HFW">8000</parameter><parameter name="LFW">0</parameter><parameter name="NSR">32</parameter><parameter name="PLF">AB</parameter><parameter name="RES">6</parameter><parameter name="RGN">-1</parameter><parameter name="STR">0</parameter><parameter name="TCL">MakeCompatibleScalar (0, {WSV=1.000000, ARV=0});</parameter><parameter name="TDL">37</parameter><parameter name="RPO">0</parameter></Acquisition_Parameters_Rf><FT_-_Parameters_Rf><parameter name="APF">B3</parameter><parameter name="HFQ">500</parameter><parameter name="LFQ">4000</parameter><parameter name="NLI">0</parameter><parameter name="PHR">24</parameter><parameter name="PHZ">ML</parameter><parameter name="SPZ">NO</parameter><parameter name="ZFF">1</parameter></FT_-_Parameters_Rf><Optic_Parameters_><parameter name="APR">0</parameter><parameter name="APT">Open</parameter><parameter name="BMS">KBr</parameter><parameter name="CHN">Module port</parameter><parameter name="DTC">RT-DLaTGS_IR-Biotyper [Microplate reader]</parameter><parameter name="HPF">0</parameter><parameter name="LPF">10.0</parameter><parameter name="LPV">4000</parameter><parameter name="PGN">0</parameter><parameter name="RDX">0</parameter><parameter name="SRC">MIR</parameter><parameter name="VEL">10.0</parameter><parameter name="SON">Off</parameter></Optic_Parameters_><FT_-_Parameters_><parameter name="APF">B3</parameter><parameter name="HFQ">500</parameter><parameter name="LFQ">4000</parameter><parameter name="NLI">0</parameter><parameter name="PHR">24</parameter><parameter name="PHZ">ML</parameter><parameter name="SPZ">NO</parameter><parameter name="ZFF">1</parameter></FT_-_Parameters_><Acquisition_Parameters_><parameter name="ADT">1</parameter><parameter name="AQM">DD</parameter><parameter name="CFE">0</parameter><parameter name="COR">0</parameter><parameter name="DEL">0</parameter><parameter name="DLY">0</parameter><parameter name="HFW">8000</parameter><parameter name="LFW">0</parameter><parameter name="NSS">32</parameter><parameter name="PLF">AB</parameter><parameter name="RES">6</parameter><parameter name="SOT">0</parameter><parameter name="TCL">MakeCompatibleScalar (0, {WSV=1.000000, ARV=0});</parameter><parameter name="TDL">37</parameter><parameter name="SPO">0</parameter><parameter name="SGN">-1</parameter></Acquisition_Parameters_><Instrument_Parameters_Rf><parameter name="HFL">15801.365274</parameter><parameter name="LFL">0</parameter><parameter name="LWN">15801.365274</parameter><parameter name="ABP">32157</parameter><parameter name="SSP">1</parameter><parameter name="ARG">2</parameter><parameter name="ASG">2</parameter><parameter name="ASS">32</parameter><parameter name="GFW">16</parameter><parameter name="GBW">16</parameter><parameter name="BFW">0</parameter><parameter name="BBW">0</parameter><parameter name="PKA">9308</parameter><parameter name="PKL">4987</parameter><parameter name="PRA">9275</parameter><parameter name="PRL">5010</parameter><parameter name="P2A">1</parameter><parameter name="P2L">1</parameter><parameter name="P2R">1</parameter><parameter name="P2K">1</parameter><parameter name="DAQ">0</parameter><parameter name="AG2">1</parameter><parameter name="SSM">1</parameter><parameter name="RSN">46674</parameter><parameter name="CRR">0</parameter><parameter name="SRT">1705579967.23</parameter><parameter name="DUR">19.6449890136719</parameter><parameter name="TSC">31</parameter><parameter name="MVD">0.34548032283783</parameter><parameter name="AN1">0.226025947084811</parameter><parameter name="AN2">0</parameter><parameter name="VSN">2.485 Apr  4 2017</parameter><parameter name="SRN">0085</parameter><parameter name="CAM">0</parameter><parameter name="INS">IR-Biotyper</parameter><parameter name="FOC">69</parameter><parameter name="RDY">1</parameter><parameter name="ARS">32</parameter></Instrument_Parameters_Rf><Sample_Parameters_><parameter name="BLD"></parameter><parameter name="CNM">Admin</parameter><parameter name="CPY"></parameter><parameter name="DPM"></parameter><parameter name="EXP">IRBT_v3_32Scans.XPM</parameter><parameter name="LCT"></parameter><parameter name="SFM">Microplate, HTS-XT</parameter><parameter name="SNM">240118-1045-Cdiff_SCFA_2_C32_232125399_F11_6e97340d-7add-41c3-aad9-611112dae20f.0</parameter><parameter name="XPP">C:\Users\Public\Documents\Bruker\OPUS_8.2.28\XPM</parameter><parameter name="IST">OK</parameter><parameter name="CPG">1252</parameter><parameter name="UID">a20888ce-f874-4ceb-8b04-bda4b0f10804</parameter></Sample_Parameters_><Instrument_Parameters_><parameter name="HFL">15801.365274</parameter><parameter name="LFL">0</parameter><parameter name="LWN">15801.365274</parameter><parameter name="ABP">32157</parameter><parameter name="SSP">1</parameter><parameter name="ASG">2</parameter><parameter name="ARG">2</parameter><parameter name="ASS">32</parameter><parameter name="GFW">16</parameter><parameter name="GBW">16</parameter><parameter name="BFW">0</parameter><parameter name="BBW">0</parameter><parameter name="PKA">9914</parameter><parameter name="PKL">4987</parameter><parameter name="PRA">9952</parameter><parameter name="PRL">5010</parameter><parameter name="P2A">1</parameter><parameter name="P2L">1</parameter><parameter name="P2R">1</parameter><parameter name="P2K">1</parameter><parameter name="DAQ">0</parameter><parameter name="AG2">1</parameter><parameter name="SSM">1</parameter><parameter name="RSN">24030</parameter><parameter name="CRR">0</parameter><parameter name="SRT">1705579994.025</parameter><parameter name="DUR">19.6449890136719</parameter><parameter name="TSC">31</parameter><parameter name="MVD">0.38394033908844</parameter><parameter name="AN1">0.226004836813054</parameter><parameter name="AN2">0</parameter><parameter name="VSN">2.485 Apr  4 2017</parameter><parameter name="SRN">0085</parameter><parameter name="CAM">0</parameter><parameter name="INS">IR-Biotyper</parameter><parameter name="FOC">69</parameter><parameter name="RDY">1</parameter></Instrument_Parameters_><History/></OPUSDataFile>
