<?xml version="1.0" encoding="UTF-8" ?>
<OPUSDataFile><AB><Ydata ylabel="Absorbance Units"><values byteorder="INTEL" format="FLOAT32" numvalues="3497"> -0.03158518 -0.03159843 -0.03161339 -0.03162676 -0.03162732 -0.03161611 -0.03158883 -0.03155044 -0.03150631 -0.03146052
 -0.03141988 -0.03138439 -0.03135677 -0.03133384 -0.03131453 -0.03129717 -0.03128056 -0.03126593 -0.03125337 -0.03124385
 -0.03123783 -0.03123282 -0.03122876 -0.03122156 -0.03121104 -0.03119593 -0.03117666 -0.03115727 -0.03113824 -0.03112433
 -0.03111508 -0.03111176 -0.03111315 -0.03111723 -0.03112316 -0.03112911 -0.0311338 -0.03113553 -0.03113265 -0.03112296
 -0.03110727 -0.03108414 -0.03105971 -0.03103542 -0.03101723 -0.03100768 -0.03100466 -0.03100893 -0.03101172 -0.0310123
 -0.03100454 -0.03098816 -0.03096344 -0.0309307 -0.03089331 -0.03085181 -0.03081052 -0.03077051 -0.03073783 -0.03071255
 -0.03069872 -0.03069347 -0.03069482 -0.03069841 -0.0306983 -0.03069329 -0.03067988 -0.03066079 -0.03063613 -0.03060966
 -0.03058238 -0.03055814 -0.03053771 -0.03052532 -0.030522 -0.03052818 -0.03054451 -0.03056231 -0.0305811 -0.03058791
 -0.03058271 -0.03056066 -0.03052358 -0.03047895 -0.03042875 -0.03038436 -0.03034501 -0.0303152 -0.03029176 -0.03027141
 -0.0302524 -0.03023016 -0.03020852 -0.03018805 -0.03017494 -0.03017342 -0.030184 -0.03020943 -0.03024137 -0.03027913
 -0.03031183 -0.03033768 -0.0303499 -0.03034738 -0.0303307 -0.03029984 -0.03026217 -0.03021828 -0.03017795 -0.03014098
 -0.03011185 -0.0300884 -0.03006533 -0.0300412 -0.03000861 -0.02997105 -0.02992993 -0.02989106 -0.02986286 -0.02984472
 -0.02984117 -0.02984271 -0.02984533 -0.02984274 -0.02982956 -0.02981302 -0.02979312 -0.02978089 -0.02977928 -0.02978555
 -0.02980036 -0.02981031 -0.02981469 -0.02980639 -0.02978596 -0.02975929 -0.02972726 -0.02969838 -0.02967222 -0.02965192
 -0.02963621 -0.02962366 -0.02961328 -0.02960302 -0.02959183 -0.0295779 -0.02956007 -0.02953677 -0.02950772 -0.02947162
 -0.02943123 -0.02938649 -0.02934297 -0.02930176 -0.02926828 -0.02924384 -0.02922977 -0.02922666 -0.0292302 -0.02924019
 -0.02924825 -0.02925404 -0.02925104 -0.02923964 -0.02921871 -0.02918951 -0.02915594 -0.02911912 -0.02908398 -0.02905019
 -0.02901971 -0.02899099 -0.02896256 -0.02893442 -0.02890519 -0.02887827 -0.02885484 -0.02883876 -0.02883307 -0.02883409
 -0.02884257 -0.02884885 -0.02885129 -0.02884409 -0.02882598 -0.02880093 -0.02876907 -0.02873769 -0.02870689 -0.02867934
 -0.02865465 -0.02863134 -0.02860957 -0.02858917 -0.02857051 -0.02855475 -0.02854125 -0.02852944 -0.02851865 -0.02850759
 -0.02849652 -0.0284854 -0.0284739 -0.02846229 -0.02844862 -0.02843207 -0.02841179 -0.02838697 -0.02835971 -0.0283302
 -0.02830045 -0.02827084 -0.02824048 -0.02820936 -0.02817652 -0.02814214 -0.02810897 -0.02807742 -0.02805207 -0.02803227
 -0.02801831 -0.0280084 -0.02799789 -0.02798598 -0.02796857 -0.02794715 -0.0279215 -0.02789447 -0.02786869 -0.02784506
 -0.02782543 -0.02780769 -0.02779179 -0.02777439 -0.02775428 -0.0277309 -0.02770326 -0.02767652 -0.02765088 -0.02763387
 -0.02762609 -0.02762752 -0.02763752 -0.02764391 -0.02764563 -0.02762821 -0.02759369 -0.0275416 -0.02747672 -0.02741158
 -0.02734853 -0.02729861 -0.02725919 -0.02723183 -0.0272124 -0.0271977 -0.02718534 -0.02717307 -0.02715963 -0.02714415
 -0.02712549 -0.02710288 -0.02707737 -0.0270487 -0.0270204 -0.02699297 -0.02696753 -0.02694426 -0.02691966 -0.02689353
 -0.02686241 -0.02682669 -0.02678757 -0.02674582 -0.02670554 -0.0266664 -0.02662979 -0.02659474 -0.02655981 -0.02652498
 -0.02648954 -0.02645399 -0.02641907 -0.02638329 -0.02634629 -0.02630575 -0.02625981 -0.02621045 -0.02615677 -0.02610642
 -0.02606077 -0.02602484 -0.0260002 -0.02598016 -0.02596457 -0.02593869 -0.02590217 -0.02584898 -0.02578091 -0.02570853
 -0.0256338 -0.02557151 -0.02552003 -0.02548358 -0.02545735 -0.02543428 -0.02541089 -0.02537897 -0.02533936 -0.02528945
 -0.02523243 -0.02516946 -0.02510335 -0.02503541 -0.02496784 -0.02490135 -0.02483808 -0.02477849 -0.02472449 -0.02467658
 -0.0246337 -0.02459599 -0.024556 -0.02451327 -0.02445843 -0.0243918 -0.02431108 -0.02421797 -0.02411861 -0.02401413
 -0.02391095 -0.02380894 -0.02371055 -0.02361592 -0.02352606 -0.02344132 -0.02336306 -0.02328922 -0.02321978 -0.02314977
 -0.02307728 -0.02299799 -0.02290989 -0.02281234 -0.02270429 -0.02258998 -0.02246955 -0.02234908 -0.02222906 -0.02211208
 -0.02199814 -0.02188619 -0.02177623 -0.02166793 -0.02156156 -0.02145854 -0.02135856 -0.02126185 -0.02116728 -0.02107256
 -0.02097717 -0.02087942 -0.02077914 -0.02067601 -0.02056873 -0.0204561 -0.02033821 -0.02021411 -0.02008708 -0.0199575
 -0.01982988 -0.01970523 -0.01958608 -0.01947304 -0.01936588 -0.01926477 -0.01916566 -0.01906827 -0.01896678 -0.01886128
 -0.01874981 -0.01863327 -0.01851516 -0.01839578 -0.0182783 -0.01816147 -0.01804425 -0.01792563 -0.01780329 -0.01767806
 -0.01754958 -0.01741981 -0.01728979 -0.01716144 -0.01703604 -0.01691387 -0.01679572 -0.01667935 -0.01656464 -0.01644856
 -0.01633055 -0.01621009 -0.01608699 -0.01596376 -0.01584053 -0.01571928 -0.01559977 -0.01548066 -0.01536148 -0.01523909
 -0.01511359 -0.01498336 -0.01484937 -0.01471278 -0.01457459 -0.01443686 -0.01429968 -0.01416345 -0.01402937 -0.01389771
 -0.0137716 -0.01365277 -0.01354251 -0.01344283 -0.013348 -0.01325805 -0.01316256 -0.01305987 -0.01294525 -0.01281781
 -0.01268315 -0.01254163 -0.01240338 -0.01226859 -0.01214341 -0.01202695 -0.01191841 -0.01181612 -0.01171447 -0.01161278
 -0.01150644 -0.01139687 -0.01128403 -0.01116976 -0.01105637 -0.01094359 -0.01083209 -0.01072078 -0.01060894 -0.01049739
 -0.0103863 -0.01027624 -0.01016777 -0.01005861 -0.00994863 -0.009834864 -0.009716933 -0.00959518 -0.009469681 -0.009344546
 -0.00922005 -0.009100682 -0.008986175 -0.008877853 -0.00877459 -0.008673736 -0.008573931 -0.008470526 -0.008364013 -0.008252314
 -0.008138639 -0.008025215 -0.007915524 -0.007813486 -0.007718393 -0.007632102 -0.007548508 -0.007466278 -0.007379495 -0.007286104
 -0.007185739 -0.007077679 -0.006965999 -0.006850994 -0.006735469 -0.006619548 -0.006503351 -0.006386912 -0.006270547 -0.006154522
 -0.006040611 -0.005928697 -0.005819341 -0.005712248 -0.005606819 -0.005503434 -0.005402422 -0.005304093 -0.005209427 -0.005116886
 -0.005025973 -0.004934398 -0.004840574 -0.004744366 -0.004644867 -0.004544881 -0.004444943 -0.004346842 -0.004251201 -0.004156454
 -0.00406258 -0.003967046 -0.003869748 -0.003771393 -0.003672183 -0.003574763 -0.003479049 -0.003386267 -0.003295509 -0.003204356
 -0.003112146 -0.003015934 -0.002916234 -0.002812052 -0.002705488 -0.002598242 -0.002492489 -0.002390584 -0.002293037 -0.002201347
 -0.002112925 -0.002027269 -0.001941948 -0.00185581 -0.001770412 -0.001685646 -0.001604635 -0.001527822 -0.00145452 -0.001384691
 -0.001314482 -0.001243918 -0.00117213 -0.001099558 -0.001028629 -0.0009589356 -0.000890805 -0.0008226098 -0.0007506012 -0.0006740625
 -0.0005896567 -0.0004988721 -0.0004016579 -0.0003007577 -0.0001980739 -9.600779E-05 3.927162E-06 9.956093E-05 0.0001899835 0.0002731679
 0.0003484008 0.0004149049 0.0004722265 0.000521901 0.0005638349 0.0006022209 0.0006372862 0.000673847 0.0007120494 0.0007551995
 0.0008029134 0.0008549445 0.0009103087 0.0009654739 0.001019671 0.001069001 0.001114114 0.001153826 0.001190392 0.00122586
 0.001262042 0.001301644 0.001343392 0.001388059 0.001431439 0.001472089 0.001507366 0.001535389 0.001560363 0.001581978
 0.001609547 0.001644074 0.001690445 0.001749008 0.00181296 0.001881482 0.001941539 0.001993062 0.002028584 0.002049738
 0.00205816 0.002055943 0.002048829 0.002038149 0.002028496 0.002020771 0.002017972 0.002019712 0.002027053 0.002038007
 0.002052025 0.002066668 0.002081061 0.002093008 0.002101864 0.002105941 0.002104671 0.002098551 0.002087315 0.00207507
 0.002062026 0.002053324 0.00204899 0.002050543 0.002057317 0.002066129 0.002075992 0.00208178 0.002082525 0.002072923
 0.002053518 0.002021667 0.001981531 0.001936203 0.001891306 0.001853084 0.001822694 0.001803833 0.001790985 0.001783319
 0.001774467 0.001762269 0.001744835 0.001721291 0.001692865 0.00165955 0.001622909 0.001583022 0.001542283 0.001500827
 0.001461257 0.001423335 0.001387016 0.001351533 0.001313868 0.001273639 0.00122791 0.001177834 0.001123677 0.001067635
 0.001012373 0.0009596364 0.0009118459 0.0008695686 0.000834159 0.0008042174 0.0007800613 0.0007580542 0.0007377241 0.000714191
 0.0006864435 0.0006519802 0.0006100768 0.0005638535 0.0005134173 0.0004643864 0.0004168671 0.0003729895 0.0003324266 0.000293712
 0.0002570789 0.000222602 0.0001909091 0.0001644854 0.0001416962 0.0001217689 0.0001004786 7.192734E-05 3.442866E-05 -1.687971E-05
 -7.749911E-05 -0.0001468029 -0.0002185754 -0.0002896273 -0.0003585097 -0.0004236806 -0.0004879988 -0.0005518718 -0.0006166354 -0.0006826535
 -0.0007484889 -0.0008140764 -0.0008780347 -0.0009403368 -0.001000539 -0.001058693 -0.001114769 -0.001169098 -0.00122278 -0.001276547
 -0.001333054 -0.001392376 -0.001456397 -0.001523468 -0.001592584 -0.001661437 -0.00172738 -0.001789971 -0.001847603 -0.001902651
 -0.001955286 -0.00200926 -0.002065735 -0.002126711 -0.002193142 -0.002263095 -0.002336694 -0.002409476 -0.00248114 -0.002548938
 -0.00261295 -0.002675263 -0.002736276 -0.002800168 -0.00286666 -0.002936992 -0.003010245 -0.003084534 -0.003159293 -0.003232493
 -0.003304267 -0.003373943 -0.003441874 -0.003508245 -0.003573021 -0.00363619 -0.003697853 -0.003757939 -0.003816997 -0.003875019
 -0.003933158 -0.003991452 -0.004051934 -0.004114861 -0.004181518 -0.00425207 -0.004325022 -0.004400277 -0.004475563 -0.004551151
 -0.004628057 -0.004706781 -0.004790524 -0.004878438 -0.004970639 -0.005064205 -0.005153434 -0.005236869 -0.005309117 -0.005373252
 -0.005429239 -0.005482999 -0.005538517 -0.005598595 -0.005666035 -0.005739088 -0.005817945 -0.005900051 -0.005984793 -0.006071642
 -0.006160576 -0.006250325 -0.006340892 -0.006428266 -0.006512247 -0.006588825 -0.006658359 -0.006721621 -0.006779712 -0.006837969
 -0.006896958 -0.006961413 -0.007030347 -0.007104318 -0.007181631 -0.007259925 -0.00733897 -0.007417103 -0.007496509 -0.007578017
 -0.007663653 -0.007755087 -0.007851047 -0.007952185 -0.008053684 -0.008154925 -0.008250953 -0.008340948 -0.008423076 -0.008497028
 -0.008564963 -0.008627073 -0.008687796 -0.008747498 -0.008811251 -0.008879098 -0.008954166 -0.009035751 -0.009123802 -0.009216796
 -0.009312192 -0.009407627 -0.009499094 -0.009584273 -0.00965909 -0.009723875 -0.009776499 -0.009821936 -0.009860878 -0.009901289
 -0.009945828 -0.009999197 -0.0100636 -0.0101361 -0.01021717 -0.01029835 -0.01037906 -0.01045244 -0.01051833 -0.01057668
 -0.01062822 -0.01067936 -0.01073076 -0.01078932 -0.01085422 -0.01092724 -0.011006 -0.0110866 -0.01116698 -0.01124204
 -0.0113125 -0.01137662 -0.01143758 -0.01149707 -0.01155723 -0.01162033 -0.011684 -0.01174876 -0.01180854 -0.01186203
 -0.01190585 -0.01193874 -0.01196497 -0.01198447 -0.01200784 -0.01203557 -0.01207644 -0.01212987 -0.01219497 -0.01226942
 -0.01234182 -0.01241013 -0.01246106 -0.01249651 -0.01251225 -0.01251548 -0.01251385 -0.01251539 -0.01253224 -0.01256452
 -0.01261835 -0.01268356 -0.01275791 -0.01282945 -0.01289295 -0.0129456 -0.01298473 -0.01301747 -0.01304421 -0.01307261
 -0.01310346 -0.01313883 -0.01317877 -0.01322077 -0.0132645 -0.01330602 -0.01334516 -0.01337864 -0.0134073 -0.01343161
 -0.01345332 -0.01347639 -0.01350187 -0.01353363 -0.01357009 -0.01361139 -0.01365501 -0.0136988 -0.01374258 -0.01378557
 -0.01382869 -0.01387248 -0.01391576 -0.01395859 -0.01399845 -0.01403475 -0.01406808 -0.0140983 -0.01412896 -0.0141602
 -0.01419375 -0.01422937 -0.0142652 -0.01430106 -0.01433474 -0.01436682 -0.01439795 -0.01442893 -0.01446203 -0.01449717
 -0.01453545 -0.01457578 -0.01461761 -0.01465948 -0.01470024 -0.01473868 -0.01477381 -0.01480537 -0.01483276 -0.01485753
 -0.01487967 -0.01490201 -0.01492501 -0.01495008 -0.01497755 -0.01500501 -0.01503235 -0.01505632 -0.01507722 -0.0150969
 -0.01511622 -0.01514141 -0.01517195 -0.01521049 -0.01525381 -0.01529622 -0.01533503 -0.01536225 -0.01538074 -0.01538931
 -0.01539488 -0.01540266 -0.01541568 -0.01543827 -0.01546564 -0.0154976 -0.01552753 -0.01555332 -0.01557398 -0.01558871
 -0.01560059 -0.01560992 -0.01561743 -0.01562314 -0.01562453 -0.01562159 -0.01561317 -0.0156 -0.01558544 -0.0155704
 -0.01556006 -0.01555413 -0.01555499 -0.01556081 -0.01556989 -0.01558043 -0.01558938 -0.01559721 -0.01560292 -0.01560864
 -0.01561545 -0.01562394 -0.01563523 -0.01564633 -0.01565721 -0.01566272 -0.01566211 -0.01565179 -0.01563119 -0.01560115
 -0.01556171 -0.01551782 -0.01546966 -0.01542157 -0.01537287 -0.01532221 -0.01526821 -0.01520502 -0.01513254 -0.01504701
 -0.01495064 -0.01484502 -0.01473296 -0.01461815 -0.01450237 -0.01438831 -0.01427607 -0.01416679 -0.01405863 -0.01395177
 -0.01384192 -0.01372818 -0.01360694 -0.01347722 -0.01333902 -0.01319205 -0.01303976 -0.01288232 -0.01272367 -0.01256401
 -0.01240683 -0.01225253 -0.012105 -0.01196504 -0.01183717 -0.01172259 -0.0116261 -0.01154891 -0.01149564 -0.0114654
 -0.01146065 -0.01147498 -0.01150653 -0.01154262 -0.01157735 -0.01159717 -0.01159553 -0.01156587 -0.01150436 -0.01141413
 -0.01129446 -0.0111538 -0.01099271 -0.0108196 -0.01063495 -0.01044618 -0.01025375 -0.01006575 -0.00988235 -0.009709343
 -0.009545683 -0.009391228 -0.009243635 -0.009097414 -0.008950381 -0.00879639 -0.00863452 -0.008461327 -0.00827672 -0.008078884
 -0.007870235 -0.007648865 -0.007427044 -0.007203738 -0.007010755 -0.006850914 -0.006774219 -0.00678841 -0.006934456 -0.007219654
 -0.007638753 -0.008192299 -0.008819137 -0.009514488 -0.01019672 -0.01086371 -0.0114597 -0.01198929 -0.01243889 -0.01281612
 -0.01313261 -0.01339413 -0.01361514 -0.01380014 -0.01395887 -0.01409703 -0.01422137 -0.01433846 -0.01445404 -0.01457072
 -0.01469183 -0.01481347 -0.01493592 -0.015052 -0.01516032 -0.01525748 -0.01534251 -0.0154198 -0.01548955 -0.01555855
 -0.01562678 -0.01569501 -0.01576185 -0.01581868 -0.01586393 -0.0158863 -0.01588674 -0.01586064 -0.01581277 -0.01574847
 -0.01567402 -0.01559918 -0.0155278 -0.01546699 -0.01541584 -0.01537669 -0.01534443 -0.01531853 -0.01529113 -0.01526089
 -0.01521823 -0.0151616 -0.0150827 -0.01498039 -0.0148508 -0.01469357 -0.01450793 -0.01429389 -0.01405051 -0.01377931
 -0.01348654 -0.01318025 -0.01289099 -0.0126355 -0.01247192 -0.01241281 -0.01251393 -0.01276063 -0.01316756 -0.01368622
 -0.01428689 -0.01491168 -0.01551786 -0.01607344 -0.01655174 -0.01695716 -0.01728345 -0.01755238 -0.01776654 -0.01794444
 -0.01808845 -0.01820944 -0.01830826 -0.01839295 -0.01846391 -0.01852786 -0.01858478 -0.01863784 -0.01868675 -0.01873197
 -0.01877353 -0.01881176 -0.01884684 -0.01887951 -0.01890923 -0.01893558 -0.01895814 -0.01897602 -0.0189903 -0.01900104
 -0.01901047 -0.01901976 -0.0190293 -0.01903963 -0.01904959 -0.01905891 -0.0190677 -0.01907587 -0.01908443 -0.01909349
 -0.01910196 -0.01910976 -0.01911514 -0.01911842 -0.01912115 -0.0191238 -0.01912979 -0.01913811 -0.01914814 -0.01915793
 -0.01916302 -0.01916363 -0.01915736 -0.01914749 -0.01913605 -0.01912587 -0.01911996 -0.0191172 -0.01911825 -0.01911988
 -0.01912099 -0.0191211 -0.01911956 -0.01911909 -0.01912001 -0.01912365 -0.0191302 -0.01913713 -0.0191443 -0.01914851
 -0.01914998 -0.01914898 -0.01914586 -0.01914261 -0.01913867 -0.01913349 -0.01912645 -0.01911544 -0.01910186 -0.01908606
 -0.01907116 -0.01906052 -0.01905503 -0.01905723 -0.01906345 -0.01907332 -0.01908136 -0.01908556 -0.01908414 -0.0190759
 -0.01906384 -0.01904805 -0.01903245 -0.01901742 -0.01900306 -0.0189893 -0.01897346 -0.01895563 -0.01893508 -0.01891269
 -0.01889195 -0.01887355 -0.01886181 -0.01885562 -0.01885542 -0.01885846 -0.01886108 -0.01886158 -0.01885632 -0.01884696
 -0.01883277 -0.01881807 -0.01880466 -0.01879511 -0.0187911 -0.01879107 -0.01879524 -0.01880031 -0.0188059 -0.01880976
 -0.01881171 -0.01881009 -0.0188048 -0.01879453 -0.01877948 -0.01876062 -0.01873861 -0.01871702 -0.01869624 -0.01867956
 -0.01866616 -0.01865602 -0.01864813 -0.01864083 -0.01863424 -0.01862762 -0.01862212 -0.01861852 -0.01861686 -0.01861789
 -0.01861933 -0.01862084 -0.01861977 -0.01861523 -0.01860756 -0.0185964 -0.01858519 -0.01857421 -0.01856563 -0.01855946
 -0.01855366 -0.01854801 -0.01853941 -0.01852822 -0.0185143 -0.01849849 -0.01848337 -0.01846898 -0.01845685 -0.01844608
 -0.01843601 -0.01842597 -0.0184147 -0.01840289 -0.01839039 -0.01837875 -0.01836867 -0.01836113 -0.01835681 -0.01835506
 -0.01835608 -0.01835768 -0.01835969 -0.0183599 -0.01835814 -0.01835299 -0.01834442 -0.01833243 -0.01831719 -0.01830031
 -0.01828199 -0.01826411 -0.01824669 -0.01823064 -0.01821594 -0.01820289 -0.01819169 -0.01818299 -0.01817622 -0.01817157
 -0.01816691 -0.01816088 -0.01815172 -0.01813748 -0.01812036 -0.01810017 -0.01808127 -0.01806483 -0.01805227 -0.01804425
 -0.01803861 -0.01803528 -0.01803209 -0.01802897 -0.01802573 -0.0180223 -0.01801784 -0.01801216 -0.01800349 -0.01799214
 -0.01797776 -0.01796159 -0.01794606 -0.01793219 -0.01792296 -0.01791776 -0.01791759 -0.01791994 -0.01792359 -0.01792573
 -0.01792433 -0.01791923 -0.01790948 -0.0178977 -0.01788423 -0.01787156 -0.01786027 -0.01785027 -0.01784167 -0.01783315
 -0.01782466 -0.01781614 -0.01780769 -0.01780033 -0.01779408 -0.01778976 -0.01778705 -0.01778557 -0.01778455 -0.01778221
 -0.01777785 -0.01776932 -0.01775719 -0.01774091 -0.01772223 -0.01770217 -0.01768218 -0.01766329 -0.01764596 -0.01763048
 -0.01761729 -0.0176065 -0.01759849 -0.01759353 -0.01759007 -0.0175881 -0.01758469 -0.01757968 -0.01757168 -0.01756081
 -0.01754783 -0.01753285 -0.01751668 -0.01749931 -0.01748087 -0.01746174 -0.01744271 -0.01742441 -0.01740827 -0.01739428
 -0.01738304 -0.01737424 -0.01736783 -0.01736345 -0.01736108 -0.01735974 -0.01735936 -0.01735795 -0.01735511 -0.01734892
 -0.01733884 -0.01732534 -0.0173083 -0.01729018 -0.01727112 -0.01725374 -0.0172381 -0.01722554 -0.01721596 -0.01720935
 -0.01720561 -0.01720457 -0.01720583 -0.0172087 -0.0172119 -0.01721327 -0.01721143 -0.01720351 -0.01719047 -0.01717133
 -0.0171499 -0.01712782 -0.01710819 -0.01709313 -0.0170813 -0.01707312 -0.01706492 -0.01705601 -0.0170454 -0.01703277
 -0.01702042 -0.01700845 -0.01699854 -0.01699056 -0.01698319 -0.01697624 -0.01696786 -0.01695821 -0.01694691 -0.01693434
 -0.01692119 -0.01690772 -0.01689464 -0.01688196 -0.0168701 -0.0168585 -0.016847 -0.0168347 -0.01682097 -0.01680565
 -0.01678799 -0.0167706 -0.01675384 -0.01674048 -0.01673128 -0.01672561 -0.01672371 -0.01672176 -0.01671959 -0.01671412
 -0.01670536 -0.0166925 -0.0166758 -0.01665615 -0.01663413 -0.01661213 -0.01659088 -0.01657363 -0.01655993 -0.01655099
 -0.01654471 -0.01653904 -0.01653289 -0.01652405 -0.01651452 -0.0165046 -0.01649676 -0.01649251 -0.0164909 -0.0164924
 -0.0164933 -0.0164931 -0.01648881 -0.01648001 -0.01646575 -0.01644593 -0.01642242 -0.01639553 -0.01636991 -0.0163459
 -0.01632839 -0.01631665 -0.016311 -0.01630972 -0.01630856 -0.01630686 -0.01630093 -0.01629258 -0.01628239 -0.0162722
 -0.01626438 -0.01625774 -0.0162527 -0.0162464 -0.01623747 -0.01622562 -0.01621011 -0.01619346 -0.01617608 -0.01615936
 -0.01614369 -0.01612715 -0.01610964 -0.01608904 -0.01606541 -0.01603944 -0.01601154 -0.01598464 -0.015959 -0.01593733
 -0.01591943 -0.01590646 -0.01589734 -0.01589111 -0.01588593 -0.01587918 -0.01586982 -0.01585563 -0.01583789 -0.01581622
 -0.01579373 -0.01577142 -0.0157519 -0.01573625 -0.0157249 -0.01571838 -0.01571435 -0.01571276 -0.01570988 -0.01570549
 -0.01569688 -0.01568407 -0.01566702 -0.01564608 -0.01562347 -0.0155995 -0.01557665 -0.01555494 -0.01553579 -0.01551883
 -0.01550429 -0.01549131 -0.01547905 -0.01546654 -0.01545259 -0.01543693 -0.01541881 -0.01539915 -0.01537805 -0.01535671
 -0.0153356 -0.01531487 -0.01529466 -0.01527458 -0.01525456 -0.01523472 -0.01521505 -0.01519681 -0.01518004 -0.01516541
 -0.01515281 -0.01514178 -0.01513212 -0.0151228 -0.01511385 -0.0151049 -0.01509593 -0.01508672 -0.01507716 -0.01506682
 -0.01505635 -0.01504578 -0.01503684 -0.01503052 -0.01502803 -0.01503071 -0.01503647 -0.01504568 -0.01505311 -0.01505812
 -0.01505516 -0.01504341 -0.01502081 -0.01498706 -0.01494615 -0.0148986 -0.01485423 -0.01481387 -0.01478891 -0.0147785
 -0.01478657 -0.01480892 -0.014837 -0.01486584 -0.01488123 -0.01488358 -0.01486576 -0.01483532 -0.01479599 -0.0147554
 -0.01472038 -0.01469112 -0.01467005 -0.01465272 -0.01463821 -0.01462382 -0.01460863 -0.01459313 -0.01457709 -0.01456305
 -0.01455115 -0.01454455 -0.01454331 -0.01454808 -0.01455803 -0.01456738 -0.01457498 -0.01457229 -0.01456015 -0.01453555
 -0.01450187 -0.01446386 -0.01442457 -0.01439048 -0.01436153 -0.01434043 -0.01432459 -0.01431341 -0.01430392 -0.01429488
 -0.01428365 -0.01426916 -0.01425018 -0.0142258 -0.01419903 -0.01416988 -0.0141435 -0.0141203 -0.01410232 -0.01408946
 -0.01407872 -0.01406994 -0.01406009 -0.01404962 -0.01403891 -0.01402846 -0.01402015 -0.01401356 -0.01400907 -0.01400541
 -0.0140012 -0.01399508 -0.01398518 -0.01397119 -0.0139519 -0.01392901 -0.01390248 -0.01387572 -0.01384978 -0.0138267
 -0.01380734 -0.01379074 -0.01377697 -0.01376395 -0.01375148 -0.01373937 -0.01372761 -0.01371692 -0.0137071 -0.01369709
 -0.01368655 -0.0136731 -0.01365713 -0.01363818 -0.01361764 -0.01359802 -0.01358019 -0.01356705 -0.01355711 -0.0135505
 -0.01354428 -0.01353629 -0.01352558 -0.01351041 -0.01349388 -0.01347639 -0.01346136 -0.01345008 -0.01344125 -0.01343517
 -0.01342733 -0.01341735 -0.01340363 -0.01338623 -0.01336861 -0.01335095 -0.01333676 -0.01332548 -0.01331644 -0.01330884
 -0.01329964 -0.01328901 -0.01327572 -0.01326066 -0.01324468 -0.01322824 -0.01321231 -0.0131963 -0.01318001 -0.01316315
 -0.01314535 -0.01312739 -0.01310937 -0.01309229 -0.01307643 -0.01306202 -0.01304916 -0.01303762 -0.01302738 -0.01301852
 -0.01301104 -0.01300485 -0.01299981 -0.0129948 -0.01298963 -0.01298285 -0.01297456 -0.01296414 -0.0129522 -0.01293955
 -0.01292706 -0.01291641 -0.01290786 -0.01290273 -0.01289949 -0.01289805 -0.01289508 -0.01288904 -0.01287766 -0.01285925
 -0.01283587 -0.01280706 -0.01277868 -0.01275139 -0.0127299 -0.01271481 -0.01270561 -0.0127022 -0.01269955 -0.01269741
 -0.01269107 -0.01268094 -0.01266648 -0.01264864 -0.01263011 -0.01261136 -0.01259496 -0.01258015 -0.01256699 -0.01255449
 -0.01254144 -0.01252808 -0.01251383 -0.01250034 -0.01248828 -0.01247875 -0.01247265 -0.01246851 -0.01246643 -0.0124636
 -0.01245955 -0.01245335 -0.01244478 -0.01243532 -0.01242504 -0.01241507 -0.01240533 -0.01239526 -0.01238488 -0.0123738
 -0.01236232 -0.01235136 -0.01234067 -0.01233045 -0.01231954 -0.01230609 -0.01228983 -0.01226916 -0.01224611 -0.01222141
 -0.01219744 -0.01217594 -0.01215671 -0.01214041 -0.01212486 -0.01210952 -0.01209387 -0.01207752 -0.0120626 -0.01204926
 -0.01203897 -0.01203175 -0.01202569 -0.01202055 -0.01201318 -0.01200373 -0.01199124 -0.0119765 -0.01196181 -0.01194747
 -0.01193552 -0.01192538 -0.01191722 -0.01190994 -0.01190239 -0.01189393 -0.01188357 -0.01187152 -0.01185741 -0.01184234
 -0.01182649 -0.01181119 -0.01179684 -0.01178393 -0.01177268 -0.01176259 -0.01175368 -0.0117451 -0.01173683 -0.01172825
 -0.01171932 -0.01170934 -0.01169829 -0.01168567 -0.01167166 -0.01165659 -0.01164091 -0.01162575 -0.01161142 -0.01159901
 -0.01158818 -0.01157925 -0.01157089 -0.01156222 -0.01155223 -0.01153983 -0.01152588 -0.01151009 -0.01149502 -0.01148137
 -0.01147018 -0.01146201 -0.01145486 -0.01144867 -0.01144034 -0.01142971 -0.01141629 -0.01140023 -0.01138332 -0.01136565
 -0.01134878 -0.01133231 -0.0113157 -0.01129872 -0.01128042 -0.01126121 -0.01124116 -0.01122122 -0.01120252 -0.0111854
 -0.01117087 -0.01115766 -0.01114547 -0.01113294 -0.01111931 -0.01110462 -0.01108852 -0.01107241 -0.01105643 -0.0110418
 -0.0110287 -0.01101714 -0.01100714 -0.01099755 -0.01098823 -0.01097714 -0.01096424 -0.01094783 -0.01092854 -0.01090737
 -0.01088559 -0.01086687 -0.0108516 -0.01084264 -0.01083828 -0.01083809 -0.0108393 -0.01083936 -0.01083743 -0.01083205
 -0.01082452 -0.01081505 -0.01080455 -0.01079357 -0.01078096 -0.01076666 -0.01074929 -0.01072859 -0.01070504 -0.01067865
 -0.01065198 -0.01062522 -0.01060141 -0.01058062 -0.01056511 -0.01055445 -0.01054865 -0.01054676 -0.01054664 -0.0105474
 -0.01054654 -0.01054381 -0.01053783 -0.01052908 -0.01051746 -0.01050355 -0.01048743 -0.01047027 -0.01045238 -0.01043512
 -0.01041899 -0.0104043 -0.0103913 -0.01037895 -0.01036719 -0.01035499 -0.01034227 -0.01032913 -0.01031559 -0.01030218
 -0.01028891 -0.01027605 -0.01026355 -0.01025126 -0.01023922 -0.01022742 -0.01021599 -0.01020519 -0.01019498 -0.01018553
 -0.01017634 -0.01016734 -0.01015716 -0.01014506 -0.01012994 -0.01011085 -0.01008881 -0.01006352 -0.01003797 -0.01001249
 -0.009990114 -0.00997129 -0.009956779 -0.009946676 -0.009939474 -0.009935016 -0.009930596 -0.009926058 -0.009918867 -0.009909304
 -0.009896908 -0.009882445 -0.009867658 -0.009852983 -0.009840285 -0.00982879 -0.009818536 -0.009808039 -0.009795733 -0.009781778
 -0.009765417 -0.009748623 -0.009732026 -0.009716959 -0.009704279 -0.009692561 -0.009681817 -0.009669811 -0.009656209 -0.009640662
 -0.009623103 -0.009604937 -0.009586231 -0.009568254 -0.00955087 -0.009533732 -0.009516684 -0.009498916 -0.009480435 -0.009460851
 -0.009440254 -0.009418581 -0.009396066 -0.009372885 -0.009349499 -0.00932601 -0.009303892 -0.009283844 -0.00926757 -0.009256255
 -0.009249418 -0.009247769 -0.009247391 -0.009247957 -0.009244652 -0.009236782 -0.009222737 -0.009202329 -0.009176846 -0.009146419
 -0.009113361 -0.009077949 -0.009043104 -0.009009268 -0.00897992 -0.008955039 -0.008936728 -0.008923794 -0.008915254 -0.008909528
 -0.0089042 -0.008898367 -0.008890377 -0.008880042 -0.008866819 -0.008850682 -0.008831233 -0.008809687 -0.008786051 -0.008762592
 -0.008739731 -0.008718991 -0.008700711 -0.008684412 -0.008670107 -0.008656308 -0.008642956 -0.008629083 -0.008614668 -0.008599147
 -0.008582465 -0.008563953 -0.008543832 -0.008522107 -0.008499612 -0.008477916 -0.008457582 -0.008440499 -0.008425293 -0.008411799
 -0.00839747 -0.008380376 -0.008360059 -0.008335182 -0.008308829 -0.008281521 -0.008256171 -0.008233814 -0.008213335 -0.008194836
 -0.008175869 -0.00815622 -0.008136051 -0.008115417 -0.008095958 -0.008077508 -0.008059585 -0.008041741 -0.008021582 -0.007999272
 -0.007973826 -0.00794613 -0.007917449 -0.007888347 -0.007860187 -0.007832912 -0.007806857 -0.007782108 -0.007758637 -0.007737119
 -0.007717981 -0.007701073 -0.007686736 -0.007673213 -0.007660328 -0.007646069 -0.007630131 -0.00761165 -0.007590515 -0.007567046
 -0.007541286 -0.007514157 -0.007485857 -0.007458321 -0.007431838 -0.007408994 -0.007389382 -0.007373722 -0.007360237 -0.007345805
 -0.007329146 -0.007306505 -0.007279551 -0.007247982 -0.007215169 -0.007183526 -0.007154076 -0.007128302 -0.007104485 -0.007082382
 -0.007060658 -0.007038856 -0.007017279 -0.006995958 -0.006974782 -0.006953803 -0.006931256 -0.00690705 -0.006879386 -0.006848451
 -0.00681489 -0.006779316 -0.006744881 -0.006711983 -0.00668373 -0.006659404 -0.006639415 -0.006622033 -0.006604992 -0.00658721
 -0.006566433 -0.006543534 -0.006518207 -0.006492146 -0.00646631 -0.00644074 -0.006415964 -0.006390131 -0.006362945 -0.006333034
 -0.006300026 -0.006264688 -0.006226997 -0.006188963 -0.006150671 -0.006113464 -0.006077277 -0.00604211 -0.006007847 -0.005973958
 -0.005940387 -0.005906787 -0.005872935 -0.005838245 -0.005802461 -0.005764821 -0.005725665 -0.005684852 -0.005643378 -0.0056018
 -0.005561053 -0.00552173 -0.005484248 -0.005448924 -0.005415572 -0.005384177 -0.00535476 -0.005327385 -0.005301625 -0.005277574
 -0.005252213 -0.005225326 -0.00519143 -0.005150415 -0.00509857 -0.00503688 -0.004968095 -0.004893373 -0.004818251 -0.00474193
 -0.004666097 -0.004587835 -0.0045037 -0.004411391 -0.004306702 -0.004190592 -0.00406189 -0.003923838 -0.00377762 -0.003625767
 -0.003469337 -0.00330966 -0.003146869 -0.002983538 -0.002819566 -0.002661042 -0.00250834 -0.002368065 -0.002240522 -0.002129274
 -0.002034302 -0.001956819 -0.001896691 -0.001854296 -0.001828829 -0.001818525 -0.001821439 -0.001833046 -0.001850889 -0.001869776
 -0.001887295 -0.001899408 -0.001903907 -0.00189794 -0.00188082 -0.001851152 -0.001810393 -0.001758525 -0.001697774 -0.001628468
 -0.001552991 -0.001471561 -0.001387127 -0.001299935 -0.001212539 -0.001125023 -0.001036455 -0.0009462949 -0.0008484102 -0.0007424835
 -0.0006231173 -0.0004915664 -0.0003487692 -0.0001966235 -3.988446E-05 0.0001207964 0.0002820903 0.0004448917 0.0006086234 0.0007751501
 0.0009456842 0.00112137 0.001303374 0.001491019 0.001684182 0.001882753 0.002086027 0.002298141 0.002519612 0.002753748
 0.003001385 0.003255713 0.003516315 0.003768816 0.004012962 0.004240334 0.004452845 0.004655874 0.004852292 0.00505524
 0.005264277 0.005486496 0.005716089 0.005946946 0.006175141 0.006392665 0.006602459 0.006803805 0.007001095 0.007196996
 0.007391945 0.007587059 0.007780118 0.007970577 0.008158101 0.008342453 0.008524618 0.008704716 0.008882524 0.009058033
 0.009230806 0.009400818 0.009567933 0.009731716 0.009889892 0.01004157 0.01018233 0.01031212 0.01042816 0.01053209
 0.01062488 0.01070906 0.01078767 0.0108628 0.0109373 0.01101113 0.01108524 0.01115815 0.01122967 0.01129799
 0.0113627 0.01142249 0.01147702 0.01152636 0.01157042 0.01161046 0.01164656 0.01168054 0.0117125 0.01174431
 0.0117758 0.01180712 0.01183775 0.01186583 0.0118912 0.01191229 0.01192995 0.0119446 0.01195779 0.0119713
 0.01198665 0.01200555 0.01202891 0.01205751 0.01209223 0.01213323 0.01218246 0.01224061 0.0123079 0.01238494
 0.01246759 0.01255562 0.01264379 0.0127318 0.01281993 0.01290859 0.01300377 0.01310574 0.01321953 0.01334411
 0.01347874 0.01362167 0.01376818 0.01391752 0.01406606 0.01421463 0.01436252 0.01451148 0.01466267 0.01481728
 0.0149767 0.01513979 0.01530674 0.01547507 0.01564391 0.01581302 0.0159816 0.01615476 0.01633272 0.01652228
 0.01672385 0.01693879 0.01716651 0.0173997 0.01763649 0.01786282 0.01807552 0.01825583 0.01840114 0.01849407
 0.01853802 0.0185286 0.01847623 0.01839007 0.01828187 0.01816318 0.01804393 0.01793231 0.01783456 0.01775547
 0.01769471 0.01765337 0.01762843 0.01761915 0.01762659 0.01765077 0.01769362 0.01775532 0.0178283 0.01791188
 0.01799367 0.01807429 0.01815104 0.01822632 0.01830765 0.0183969 0.018503 0.01862524 0.01876797 0.01892562
 0.01909654 0.01926625 0.01942617 0.01955346 0.01963249 0.01965099 0.01959607 0.01948346 0.01931221 0.0191104
 0.01888211 0.0186501 0.018417 0.0181992 0.01799786 0.01782094 0.0176682 0.01753661 0.01742526 0.01732629
 0.01723978 0.01716174 0.01709293 0.01703388 0.01698386 0.01694281 0.01690748 0.0168745 0.01683975 0.01679837
 0.01674885 0.01668836 0.01661897 0.01654061 0.01645623 0.01636672 0.0162734 0.01617632 0.01607821 0.01597894
 0.01588589 0.0157995 0.01572532 0.01566321 0.0156108 0.01556733 0.01552618 0.01548719 0.01544564 0.01540305
 0.01536053 0.01532072 0.01528884 0.01526654 0.01525809 0.01526371 0.01528502 0.01532181 0.01537404 0.01544276
 0.01552813 0.01563199 0.0157548 0.01589814 0.01606223 0.01624892 0.01645826 0.01669359 0.01695517 0.01724443
 0.01756088 0.01789584 0.01824692 0.01859263 0.01893129 0.01924354 0.01953152 0.01979096 0.0200247 0.02023659
 0.02042683 0.0205966 0.02074744 0.02087904 0.02099941 0.02111184 0.02122716 0.02135171 0.02148738 0.02163808
 0.02179205 0.02194813 0.02209433 0.02222853 0.02234987 0.02245802 0.02255792 0.02264972 0.02273583 0.02281592
 0.02288833 0.02295286 0.02300771 0.02305298 0.02308847 0.02311343 0.02312688 0.02312689 0.02311036 0.02307649
 0.02302303 0.02295135 0.02286193 0.022755 0.02263138 0.02248857 0.02232582 0.02214232 0.02193736 0.02171372
 0.02147187 0.02121162 0.02093321 0.02062874 0.02029778 0.0199311 0.01952944 0.01909413 0.01862733 0.01813963
 0.01763121 0.01710853 0.0165695 0.01601245 0.01543734 0.0148421 0.014231 0.01360654 0.0129743 0.01233851
 0.01170261 0.01106895 0.01043955 0.0098154 0.009197667 0.00858674 0.007982915 0.007385924 0.006799259 0.006222901
 0.005666889 0.005131749 0.004627676 0.004154327 0.003713616 0.003304265 0.002921557 0.00256471 0.002229055 0.001914508
 0.00161907 0.001342021 0.001082225 0.0008372486 0.000605136 0.0003818755 0.0001649212 -5.039569E-05 -0.0002668065 -0.0004867971
 -0.0007125484 -0.0009406944 -0.001171896 -0.001396763 -0.001614388 -0.001815993 -0.002000652 -0.002167882 -0.00231784 -0.002456848
 -0.002585039 -0.002706655 -0.002820604 -0.002924048 -0.003015923 -0.003091085 -0.003150458 -0.003192759 -0.003221004 -0.003238296
 -0.00324853 -0.003256354 -0.003264805 -0.003277554 -0.003294918 -0.003318337 -0.003345666 -0.003376429 -0.003409425 -0.003444113
 -0.003481338 -0.003521273 -0.003563522 -0.003608224 -0.003651273 -0.003692435 -0.003726775 -0.003754426 -0.003774351 -0.00378735
 -0.00379673 -0.003803022 -0.003809901 -0.003816571 -0.003823334 -0.00382885 -0.003831 -0.003829884 -0.003824329 -0.003816335
 -0.003806947 -0.00379752 -0.003789444 -0.003781328 -0.003773136 -0.00376299 -0.003750059 -0.003735868 -0.003720263 -0.003707126
 -0.003696843 -0.003690361 -0.003687638 -0.003684897 -0.003681906 -0.00367461 -0.003663645 -0.003649795 -0.003634296 -0.003621612
 -0.00361194 -0.003608191 -0.003609134 -0.003614262 -0.003622335 -0.003631799 -0.003642262 -0.003653082 -0.003663865 -0.0036745
 -0.003683863 -0.003691567 -0.003696881 -0.003699473 -0.003699667 -0.003697475 -0.003693137 -0.003686697 -0.003677825 -0.003666493
 -0.003651887 -0.003633986 -0.003612186 -0.003586655 -0.003557746 -0.003526002 -0.003493242 -0.003460061 -0.00342871 -0.003399211
 -0.003372741 -0.003348579 -0.003326621 -0.003305571 -0.003284516 -0.003262471 -0.003238484 -0.003213063 -0.003186019 -0.003158675
 -0.003131364 -0.003104585 -0.003078632 -0.003052065 -0.003024802 -0.002995362 -0.002963695 -0.002930696 -0.002896555 -0.00286371
 -0.002832151 -0.002803253 -0.00277652 -0.002751041 -0.002726434 -0.002701228 -0.002675773 -0.002649799 -0.002624181 -0.002599789
 -0.002577114 -0.002556956 -0.002538911 -0.002522888 -0.002508845 -0.002496413 -0.002487205 -0.002481447 -0.002480829 -0.002485873
 -0.00249551 -0.002509837 -0.002525295 -0.002541706 -0.002556439 -0.002569621 -0.002581883 -0.002593416 -0.002605809 -0.002618635
 -0.002631367 -0.002643358 -0.002652546 -0.002659476 -0.002663816 -0.00266698 -0.002670674 -0.00267492 -0.002680614 -0.002686319
 -0.002691455 -0.002695244 -0.002697075 -0.002697629 -0.002697165 -0.002695049 -0.002691427 -0.002683894 -0.002672143 -0.002656047
 -0.002635606 -0.002614212 -0.002591959 -0.00257123 -0.00255149 -0.002530835 -0.002508909 -0.002483117 -0.002454329 -0.002423141
 -0.002390735 -0.002359736 -0.002329453 -0.002300583 -0.002270861 -0.002238493 -0.002202893 -0.002162601 -0.002120266 -0.002076426
 -0.002033609 -0.001993219 -0.001952691 -0.001912344 -0.001865562 -0.001811653 -0.001747267 -0.001672201 -0.001591334 -0.001505253
 -0.001422983 -0.001344526 -0.001274792 -0.00121267 -0.00115682 -0.001106335 -0.001058086 -0.0010126 -0.0009691021 -0.0009289826
 -0.0008937981 -0.0008636696 -0.0008396886 -0.00082 -0.0008040642 -0.0007898411 -0.0007762057 -0.0007631574 -0.0007503514 -0.0007389386
 -0.000729205 -0.0007208396 -0.0007139928 -0.0007060927 -0.0006970048 -0.0006837834 -0.0006663954 -0.0006436153 -0.0006157865 -0.0005841636
 -0.0005494289 -0.0005145504 -0.0004802888 -0.0004501196 -0.0004239428 -0.0004036296 -0.0003874358 -0.0003745675 -0.0003620673 -0.0003476485
 -0.000328315 -0.0003017 -0.0002666712 -0.0002219193 -0.0001688188 -0.0001072645 -3.969567E-05 3.346647E-05 0.0001109011 0.0001924063
 0.0002776934 0.0003667411 0.0004585999 0.000553198 0.0006492564 0.000746817 0.0008457277 0.0009457047 0.001046058 0.001145507
 0.001240566 0.001330276 0.001411158 0.001483671 0.001547252 0.001601783 0.001647659 0.00168253 0.001704703 0.001714395
 0.001709822 0.001698215 0.001680553 0.001665335 0.001654894 0.001648802 0.001647791 0.001643425 0.001635235 0.001617029
 0.001588957 0.001552692 0.001508999 0.00146364 0.001417066 0.001374075 0.001334555 0.00130066 0.001271998 0.001248971
 0.001230909 0.001217341 0.001207227 0.001199782 0.001193556 0.001187656 0.001180675 0.001171612 0.001160809 0.001147793
 0.001135107 0.001122976 0.001114318 0.001109507 0.001109911 0.001115645 0.001126936 0.001143794 0.001166551 0.001195016
 0.001228337 0.001265782 0.001303972 0.001342447 0.001377893 0.001411301 0.001442779 0.001473677 0.001506455 0.001539669
 0.001573778 0.001604573 0.001629592 0.001646473 0.001653004 0.001651245 0.001641087 0.001625763 0.001605929 0.001582923
 0.001556904 0.001529144 0.001499683 0.00147197 0.001446198 0.001426148 0.001411554 0.001402644 0.001398464 0.001395477
 0.001392617 0.001385254 0.001372956 0.001352455 0.001324784 0.001289494 0.001248956 0.001205017 0.001159541 0.001114573
 0.001069489 0.001024787 0.0009784278 0.0009298258 0.0008781451 0.0008229643 0.0007652112 0.0007049156 0.0006430864 0.0005797716
 0.0005163201 0.0004529232 0.0003933191 0.0003377932 0.0002905419 0.0002510721 0.0002200906 0.0001958609 0.0001740568 0.0001534272
 0.000129288 0.0001022071 7.090258E-05 3.657274E-05 -1.215129E-07 -3.835726E-05 -7.76102E-05 -0.000116841 -0.000155932 -0.0001923783
 -0.0002255429 -0.0002532619 -0.0002748571 -0.0002902572 -0.0002992021 -0.0003038439 -0.0003042973 -0.0003027337 -0.0002992116 -0.0002944752
 -0.0002884865 -0.0002812301 -0.0002728162 -0.0002636194 -0.0002539829 -0.0002452813 -0.0002371892 -0.0002300698 -0.0002226234 -0.0002131363
 -0.000201125 -0.0001847985 -0.0001665572 -0.0001471257 -0.0001293606 -0.0001154502 -0.0001037533 -9.502048E-05 -8.343792E-05 -6.79241E-05
 -4.486293E-05 -1.320651E-05 2.391012E-05 6.648134E-05 0.0001072821 0.0001460182 0.0001776644 0.0002025397 0.0002207951 0.0002331921
 0.0002432596 0.0002512051 0.0002597413 0.0002679357 0.0002753425 0.0002808776 0.0002825118 0.0002807449 0.0002746121 0.0002670769
 0.0002592753 0.0002550783 0.0002566606 0.0002655254 0.0002833251 0.0003066327 0.0003356122 0.0003635985 0.0003897333 0.000409824
 0.0004233116 0.0004329446 0.0004389797 0.0004479825 0.0004599881 0.0004784707 0.000502466 0.0005294936 0.0005585548 0.0005849989
 0.000609567 0.0006310253 0.0006516859 0.0006743382 0.0007003127 0.000732729 0.0007693145 0.00081019 0.000850854 0.0008889738
 0.0009229918 0.0009511512 0.0009771092 0.001001105 0.001027575 0.001057469 0.0010902 0.001125978 0.001159211 0.001189674
 0.001213596 0.00123154 0.001246697 0.001260204 0.001279456 0.001304271 0.001338601 0.00138014 0.001426092 0.001474625
 0.001521008 0.001567258 0.001612781 0.00166235 0.001719378 0.001785692 0.001864059 0.001950506 0.002044744 0.002141582
 0.002239588 0.00233743 0.002434538 0.002532645 0.002631849 0.002733205 0.00283679 0.002944245 0.003055855 0.003175184
 0.003302132 0.0034387 0.003583368 0.003732645 0.003885024 0.004035047 0.004183794 0.004330363 0.004476476 0.004624682
 0.004772452 0.004919908 0.005061083 0.005192989 0.005312609 0.005418054 0.005509723 0.005588252 0.00564906 0.005692547
 0.005706317 0.005689423 0.005632174 0.00553431 0.005399348 0.005228675 0.005036689 0.004825276 0.004610815 0.004395132
 0.004192077 0.004003283 0.003839099 0.003699401 0.003589287 0.003505324 0.00344643 0.00340793 0.003386378 0.003378284
 0.003381558 0.003392748 0.00341111 0.003430781 0.003450579 0.003465248 0.003473439 0.003476131 0.003473027 0.003470585
 0.00346912 0.003474001 0.003485136 0.003503423 0.003528651 0.003560378 0.003598314 0.003641986 0.003689699 0.003738208
 0.003784575 0.003822701 0.00385166 0.003867032 0.003872712 0.003868931 0.003863147 0.003858793 0.003861924 0.003875915
 0.00390106 0.003938668 0.003983969 0.004036523 0.004092094 0.004150157 0.004210431 0.004272861 0.004336237 0.004399997
 0.004457374 0.004507967 0.004545225 0.004570983 0.004587263 0.0045972 0.004609182 0.004623897 0.004646766 0.004675311
 0.004708992 0.004745306 0.004781951 0.004818397 0.004853401 0.004888542 0.00492375 0.004961979 0.005003898 0.005051583
 0.0051059 0.005164037 0.005226081 0.005285156 0.005340922 0.005389511 0.005431315 0.005469825 0.00550554 0.005543821
 0.005583165 0.005621883 0.005657102 0.005680531 0.005692866 0.005689468 0.005677806 0.005663341 0.005654731 0.005661587
 0.005684101 0.005726974 0.00578033 0.005842398 0.005902496 0.005957302 0.006003144 0.006038485 0.006066176 0.006086108
 0.006104348 0.006121219 0.006142717 0.006168844 0.006201352 0.006239789 0.006282176 0.006328763 0.006378933 0.006434179
 0.006497924 0.006570601 0.006655412 0.006749406 0.006851764 0.0069561 0.007058105 0.007150633 0.007228376 0.007288953
 0.007328806 0.007354594 0.00736619 0.007375369 0.007384019 0.007399559 0.007423216 0.00745419 0.007492496 0.007534248
 0.007579335 0.007625305 0.007672385 0.007720589 0.007770335 0.007823336 0.007879329 0.007939587 0.008001076 0.008060316
 0.00811235 0.008149618 0.008170842 0.008170601 0.008155834 0.00812721 0.008096542 0.008068332 0.008050289 0.00804651
 0.008053211 0.008071437 0.008088658 0.00810363 0.008108642 0.00810314 0.008095036 0.008085238 0.008089021 0.008105734
 0.008139738 0.00818809 0.00824169 0.008299811 0.008354861 0.008410688 0.008470684 0.008537203 0.008616967 0.008702743
 0.008793623 0.008874542 0.008936872 0.008971076 0.008967985 0.008939382 0.008882235 0.008831825 0.00879466 0.008787181
 0.008814134 0.008850091 0.008893849 0.008919837 0.008928103 0.008916097 0.008885324 0.008844492 0.008793402 0.008736027
 0.008670895 0.00859528 0.008510667 0.008416941 0.008319639 0.008224483 0.008137953 0.008067532 0.008015946 0.007988129
 0.00797948 0.007990968 0.008011298 0.008038329 0.008060879 0.008076373 0.008080729 0.008072903 0.008055639 0.008029032
 0.007996756 0.00795876 0.007914479 0.007863606 0.007803127 0.007734176 0.007658335 0.007579471 0.007507875 0.007447085
 0.007409726 0.007392398 0.007397976 0.007416526 0.007440612 0.007463393 0.007478706 0.007483994 0.007477944 0.007454984
 0.007412709 0.007350924 0.007266824 0.007178987 0.007088326 0.007019291 0.006973739 0.00695319 0.006956502 0.006961965
 0.006968949 0.006961734 0.006943286 0.006917094 0.006886041 0.006859716 0.006838465 0.006827016 0.006825483 0.006835978
 0.006857976 0.006893007 0.006936203 0.006985982 0.007035603 0.007081045 0.007122329 0.007158 0.007193069 0.007229148
 0.007263341 0.007296368 0.007314907 0.007318109 0.007297113 0.007252234 0.007190018 0.007112212 0.007034439 0.006957703
 0.006894737 0.006844627 0.006812178 0.006794265 0.0067879 0.006789316 0.006792031 0.006795276 0.006795457 0.00679523
 0.006795611 0.00679731 0.006801737 0.006805258 0.006807019 0.006804826 0.006797638 0.00678789 0.006775599 0.006764328
 0.006754297 0.006748518 0.00674716 0.006753588 0.006767574 0.006789762 0.00681841 0.00684681 0.006872899 0.006886859
 0.006889605 0.006877047 0.00685408 0.006825092 0.006794812 0.006769953 0.00675002 0.006737697 0.006727589 0.006717705
 0.006705403 0.006688104 0.006672128 0.006657694 0.006653953 0.006662505 0.006684105 0.006719131 0.006759786 0.006805773
 0.006851979 0.006898667 0.006946638 0.00699462 0.007038565 0.007074743 0.007089267 0.007082902 0.007046727 0.006993259
 0.006933622 0.006883099 0.006863406 0.006871026 0.006915152 0.006971083 0.007030209 0.007074965 0.007094692 0.007099649
 0.007088339 0.007083229 0.007087804 0.007108004 0.007145084 0.007182452 0.007219865</values></Ydata></AB><ScSm><Ydata ylabel="Single channel"><values byteorder="INTEL" format="FLOAT32" numvalues="1814"> 0.07634709 0.07645078 0.07656706 0.07669801 0.07683741 0.07697493 0.07710104 0.07721262 0.07731234 0.07740174
 0.0774822 0.07756531 0.07767083 0.07780692 0.0779587 0.0780994 0.07821026 0.07829592 0.07838488 0.0785031
 0.07863699 0.07873327 0.07874858 0.07869785 0.07864507 0.07864495 0.07870743 0.07883202 0.07904363 0.07933362
 0.07957987 0.07962743 0.07948298 0.07934079 0.07936707 0.07953375 0.07969904 0.0797641 0.07971175 0.07959355
 0.07954904 0.07976031 0.08028607 0.08092876 0.08129711 0.08103082 0.08003899 0.07863081 0.07744445 0.07711579
 0.07781913 0.07907228 0.08009665 0.08044607 0.08024941 0.0798786 0.07956006 0.07936944 0.07940274 0.0797576
 0.08037354 0.08097135 0.08116244 0.0807016 0.07976376 0.07891741 0.07866333 0.07904372 0.07980895 0.08071788
 0.08132792 0.08077816 0.07854942 0.07562032 0.07416335 0.07554097 0.07888049 0.08198097 0.08331573 0.08283894
 0.08135118 0.07979365 0.07899988 0.07940695 0.0807682 0.08239932 0.08372425 0.08443065 0.0843232 0.08341248
 0.08210208 0.08101925 0.08066796 0.0812846 0.08273964 0.08438984 0.0853357 0.08513238 0.08412272 0.082991
 0.08225867 0.08226135 0.08317479 0.08480546 0.08660789 0.08808909 0.08906527 0.08955228 0.08964486 0.08949839
 0.08925241 0.08900796 0.08893161 0.08917288 0.08957031 0.08968213 0.08927754 0.08864979 0.0883204 0.08850166
 0.08891392 0.08912304 0.08897056 0.08849616 0.0874996 0.08563878 0.08313672 0.0808887 0.07958796 0.07924286
 0.07975049 0.0811877 0.08311351 0.08435897 0.08420432 0.08334705 0.08314501 0.08414827 0.08575568 0.08709373
 0.08786516 0.08839676 0.08912714 0.0901098 0.09088738 0.09082896 0.08977435 0.08843478 0.08791988 0.0886649
 0.09000903 0.09101056 0.09143662 0.09172903 0.09222248 0.09265824 0.09241042 0.09115498 0.08943124 0.08845463
 0.08911541 0.09109654 0.09303855 0.09356695 0.09226902 0.0899179 0.08782674 0.08690555 0.08730453 0.08878836
 0.0910629 0.09363742 0.09574764 0.09674251 0.09653386 0.0955779 0.09437801 0.09301506 0.09132901 0.08965395
 0.08901113 0.09015304 0.09259673 0.09501036 0.09644428 0.09685649 0.09656644 0.09560999 0.09383134 0.09155478
 0.08988047 0.08986787 0.0913312 0.09288943 0.09343566 0.09317094 0.09297263 0.09319355 0.09347166 0.09346834
 0.09337394 0.09363829 0.09439752 0.09530058 0.09588037 0.09598386 0.09580584 0.09561355 0.09549366 0.09530402
 0.09489526 0.09444703 0.09445118 0.09519239 0.09636301 0.09737071 0.0979206 0.09813073 0.09817402 0.09798965
 0.09739215 0.09643835 0.09560594 0.09545556 0.09608474 0.0970532 0.09785114 0.09827907 0.09839528 0.09832279
 0.09816857 0.09799711 0.09784183 0.09777451 0.09789452 0.0981937 0.09851781 0.09871802 0.09877264 0.09873129
 0.09861627 0.09842429 0.09818813 0.09799513 0.09793276 0.09801989 0.0982035 0.09841263 0.09858643 0.09866635
 0.09862009 0.09848287 0.09833257 0.09821813 0.09814201 0.09810468 0.09812406 0.09820318 0.09830593 0.09838212
 0.0984081 0.09839223 0.09834851 0.09828258 0.09820297 0.0981313 0.09809449 0.09810759 0.09815861 0.09821552
 0.09826271 0.09832092 0.09840535 0.09847945 0.0984875 0.09842655 0.09835185 0.09831649 0.09833139 0.09837623
 0.09842218 0.09844068 0.09840833 0.09832314 0.09822383 0.09817827 0.09823321 0.09838039 0.0985785 0.09878719
 0.09897022 0.09909929 0.09917825 0.099241 0.09930921 0.09937123 0.0994104 0.09943791 0.0994911 0.09960382
 0.09977498 0.09996479 0.1001274 0.1002433 0.100322 0.1003917 0.1004892 0.1006274 0.1007662 0.1008478
 0.100871 0.1009002 0.1009886 0.1011179 0.1012264 0.10128 0.1013026 0.1013426 0.1014236 0.1015311
 0.1016402 0.1017443 0.1018567 0.1019857 0.1021103 0.1021855 0.1021866 0.1021436 0.1021144 0.1021263
 0.1021643 0.1022128 0.1022795 0.1023711 0.1024667 0.1025328 0.1025586 0.1025667 0.102587 0.1026227
 0.1026486 0.1026419 0.1026069 0.1025672 0.1025435 0.1025403 0.1025476 0.1025483 0.1025304 0.102493
 0.1024436 0.1023887 0.1023297 0.1022698 0.102227 0.1022294 0.1022802 0.1023311 0.1023099 0.1021879
 0.1020108 0.1018551 0.1017608 0.1017081 0.101649 0.1015523 0.1014229 0.101288 0.1011697 0.1010719
 0.1009849 0.1009006 0.1008242 0.1007743 0.1007645 0.1007782 0.1007718 0.1007126 0.1006115 0.1005087
 0.1004343 0.1003912 0.1003684 0.1003555 0.1003495 0.1003571 0.1003859 0.1004275 0.1004604 0.1004749
 0.1004868 0.100522 0.1005978 0.1007163 0.1008605 0.1009949 0.101089 0.1011489 0.1012126 0.1013104
 0.1014421 0.1015918 0.1017507 0.1019192 0.1020976 0.1022864 0.1024894 0.1027119 0.1029555 0.1032158
 0.1034832 0.103746 0.1039992 0.1042513 0.1045207 0.1048206 0.1051479 0.1054852 0.105814 0.1061284
 0.1064362 0.1067476 0.1070655 0.1073909 0.10773 0.108089 0.1084627 0.1088362 0.1091996 0.1095551
 0.1099109 0.1102716 0.1106371 0.1110089 0.1113954 0.1118056 0.1122316 0.1126422 0.1130069 0.1133272
 0.1136374 0.1139731 0.1143449 0.1147352 0.1151116 0.1154488 0.115749 0.1160433 0.1163608 0.1167006
 0.1170441 0.117389 0.1177554 0.1181531 0.1185556 0.118916 0.1192111 0.1194641 0.119721 0.1200032
 0.1202908 0.1205545 0.1207935 0.1210325 0.1212868 0.1215499 0.1218152 0.1220929 0.1223914 0.1226959
 0.1229802 0.1232356 0.1234741 0.1237057 0.1239229 0.1241086 0.1242544 0.1243721 0.1244909 0.1246349
 0.1248018 0.1249704 0.1251319 0.1253007 0.1254926 0.1257072 0.1259388 0.1261897 0.1264617 0.1267421
 0.1270164 0.1272922 0.1275944 0.1279269 0.1282529 0.1285298 0.1287545 0.1289598 0.1291725 0.1293974
 0.1296377 0.1299069 0.1302115 0.1305375 0.1308585 0.131157 0.131439 0.1317302 0.1320492 0.1323796
 0.1326778 0.1329165 0.1331117 0.1333068 0.133536 0.1338043 0.1340933 0.1343784 0.1346428 0.1348764
 0.1350656 0.135195 0.135265 0.1352965 0.1353069 0.1352836 0.1351902 0.1349966 0.1346925 0.134274
 0.1337294 0.1330509 0.1322621 0.131431 0.1306558 0.1300364 0.1296487 0.1295346 0.1297015 0.1301195
 0.1307175 0.1313907 0.1320221 0.1325045 0.1327516 0.13271 0.1323741 0.1317869 0.1310177 0.1301366
 0.1292014 0.128256 0.1273322 0.1264664 0.125729 0.1252347 0.1251158 0.125481 0.1263903 0.1278352
 0.1297099 0.131804 0.1338642 0.1356999 0.1372463 0.1385406 0.1396533 0.1406441 0.1415544 0.1424098
 0.1432203 0.1439859 0.144706 0.1453818 0.1460096 0.1465781 0.1470698 0.1474639 0.1477451 0.1479149
 0.1479934 0.1480083 0.1479856 0.1479498 0.1479139 0.1478586 0.1477272 0.1474541 0.1470042 0.1463918
 0.1456838 0.1450042 0.1445409 0.1445235 0.1451468 0.1464567 0.1482885 0.1503312 0.1522759 0.1539309
 0.1552377 0.1562303 0.1569894 0.1576028 0.158134 0.1586157 0.1590631 0.1594856 0.1598893 0.1602775
 0.1606531 0.161021 0.1613882 0.1617602 0.1621345 0.1625018 0.1628565 0.1632047 0.1635586 0.1639253
 0.1643003 0.1646721 0.1650342 0.1653931 0.1657585 0.1661275 0.1664852 0.1668227 0.167148 0.1674782
 0.1678255 0.1681895 0.1685561 0.1689065 0.1692307 0.1695341 0.1698282 0.1701201 0.1704118 0.1707066
 0.1710071 0.1713096 0.1716055 0.1718912 0.1721731 0.1724599 0.172749 0.1730278 0.1732882 0.1735379
 0.1737918 0.174056 0.1743238 0.1745859 0.1748419 0.1751014 0.1753742 0.1756602 0.1759485 0.1762262
 0.1764877 0.1767367 0.1769817 0.1772306 0.1774862 0.1777464 0.1780069 0.1782642 0.1785185 0.1787726
 0.1790295 0.1792894 0.1795507 0.1798118 0.1800703 0.180324 0.1805737 0.1808233 0.1810757 0.1813309
 0.1815882 0.1818472 0.1821057 0.1823585 0.1826029 0.1828402 0.1830734 0.1833047 0.1835363 0.1837706
 0.1840096 0.1842544 0.1845034 0.1847526 0.1849988 0.1852428 0.1854868 0.185732 0.1859795 0.1862299
 0.1864814 0.1867319 0.1869814 0.1872306 0.1874771 0.1877181 0.1879545 0.1881916 0.1884338 0.1886816
 0.1889308 0.1891764 0.1894173 0.1896558 0.189894 0.1901326 0.1903726 0.1906144 0.1908566 0.1910975
 0.1913361 0.1915721 0.1918061 0.1920397 0.1922733 0.1925072 0.1927425 0.1929799 0.1932178 0.1934537
 0.1936884 0.1939247 0.1941649 0.1944098 0.1946567 0.1949013 0.1951419 0.1953812 0.1956226 0.1958669
 0.1961126 0.1963569 0.1965969 0.1968334 0.1970711 0.1973126 0.1975574 0.1978051 0.1980561 0.198309
 0.1985606 0.1988091 0.1990547 0.1993003 0.1995501 0.199805 0.2000619 0.2003197 0.2005802 0.2008431
 0.2011053 0.2013656 0.2016231 0.2018741 0.2021162 0.2023513 0.2025814 0.2028072 0.2030303 0.2032534
 0.2034778 0.2037041 0.2039331 0.2041634 0.2043939 0.2046271 0.2048659 0.2051104 0.2053599 0.2056131
 0.2058671 0.2061205 0.2063755 0.2066314 0.2068838 0.2071335 0.207386 0.2076426 0.2079023 0.2081667
 0.2084355 0.2087031 0.2089674 0.2092322 0.2094975 0.20976 0.2100217 0.2102871 0.2105555 0.2108239
 0.2110899 0.2113499 0.2116038 0.2118595 0.2121238 0.2123961 0.2126735 0.2129529 0.2132269 0.2134918
 0.213754 0.2140193 0.2142855 0.2145522 0.2148224 0.215094 0.2153642 0.2156371 0.2159142 0.2161894
 0.2164614 0.2167334 0.217003 0.2172668 0.2175295 0.2177928 0.2180513 0.2183063 0.2185632 0.2188138
 0.219033 0.2191683 0.2190844 0.2184947 0.2169195 0.2136954 0.2081068 0.1996715 0.1884284 0.17502
 0.160516 0.1460799 0.1326557 0.1208403 0.1109562 0.1031701 0.09757462 0.09426814 0.09342678 0.09539727
 0.1008101 0.1102007 0.1226439 0.1345841 0.1411712 0.1399338 0.1330174 0.1252384 0.1201648 0.1183682
 0.1186412 0.1197929 0.1213529 0.123436 0.1263291 0.1300696 0.1344034 0.1391993 0.1446896 0.1511141
 0.1582548 0.1655118 0.1724052 0.1788869 0.1851683 0.1913449 0.197249 0.2026111 0.2072695 0.2112237
 0.2145792 0.2174824 0.220064 0.2224082 0.2245681 0.2265727 0.2283868 0.2298926 0.23096 0.2315522
 0.2317726 0.2318132 0.2318472 0.2319568 0.2321509 0.2324239 0.2327728 0.2331863 0.233649 0.2341519
 0.234685 0.2352334 0.2357847 0.2363291 0.2368551 0.237356 0.2378337 0.2382892 0.2387205 0.239131
 0.2395261 0.2399064 0.2402734 0.2406324 0.2409875 0.2413399 0.2416921 0.2420421 0.2423796 0.2426968
 0.2429944 0.2432738 0.2435346 0.2437826 0.2440275 0.2442747 0.2445256 0.2447801 0.2450343 0.245283
 0.2455257 0.2457653 0.2460017 0.2462352 0.2464685 0.2467025 0.2469357 0.2471676 0.2473982 0.2476273
 0.247858 0.2480946 0.2483349 0.2485724 0.2488047 0.249035 0.2492683 0.2495108 0.249766 0.2500292
 0.2502915 0.2505502 0.2508083 0.2510701 0.2513392 0.2516161 0.2518945 0.2521669 0.2524332 0.2526975
 0.2529573 0.2532051 0.2534371 0.2536569 0.2538729 0.2540937 0.2543221 0.2545546 0.2547884 0.2550251
 0.2552652 0.2555057 0.255745 0.2559839 0.2562253 0.2564766 0.256746 0.2570302 0.2573161 0.257597
 0.2578782 0.2581642 0.258453 0.258742 0.2590297 0.2593114 0.259581 0.2598416 0.2601101 0.2604064
 0.260735 0.2610762 0.2614036 0.2617087 0.2620033 0.2623028 0.2626156 0.2629362 0.2632386 0.2634943
 0.2637125 0.2639486 0.2642555 0.2646323 0.2650326 0.2654121 0.2657601 0.2660894 0.2664106 0.2667172
 0.2669935 0.2672328 0.2674531 0.2676988 0.2680128 0.2683927 0.2687869 0.269146 0.2694624 0.2697538
 0.2700338 0.2703093 0.2705725 0.2707854 0.2709165 0.2710149 0.2712039 0.2715665 0.2720537 0.2725341
 0.2729241 0.2732411 0.2735396 0.2738393 0.2741289 0.2743795 0.2745207 0.2744767 0.2743071 0.274254
 0.2745464 0.2751689 0.2758915 0.2765015 0.276943 0.2772678 0.2775412 0.2777991 0.2780271 0.2781611
 0.2781562 0.2780918 0.2781636 0.2785055 0.2790375 0.2795524 0.2799348 0.2802268 0.2805083 0.2808042
 0.281073 0.281193 0.2810146 0.2805694 0.2802083 0.2803726 0.2811659 0.2822324 0.283109 0.2836347
 0.2839522 0.2841833 0.2842547 0.2840394 0.2835159 0.282777 0.2820732 0.2818522 0.2824668 0.2837222
 0.2849536 0.2856908 0.286063 0.2864656 0.2870478 0.2876466 0.2880577 0.2882207 0.2881876 0.2880012
 0.2876726 0.2873213 0.2872576 0.2877613 0.2887561 0.2898301 0.2906241 0.2911144 0.2914448 0.2915083
 0.2908427 0.2891793 0.2871573 0.2861599 0.2870866 0.2894087 0.2917404 0.2932067 0.2939215 0.2943431
 0.2946773 0.294818 0.2943335 0.2926082 0.2896798 0.2869742 0.286442 0.2886358 0.2920885 0.2947332
 0.2954835 0.2944604 0.2924668 0.2906111 0.2899119 0.2907472 0.2927001 0.2949833 0.2969104 0.2980805
 0.2984033 0.2980618 0.2974381 0.2970133 0.2970618 0.2972392 0.2967996 0.2955669 0.294278 0.2934478
 0.2924235 0.2904506 0.2883548 0.2880269 0.2900837 0.2929772 0.2947916 0.2952062 0.2951434 0.2949115
 0.2934541 0.2897396 0.284668 0.2810416 0.2811641 0.2845395 0.2883628 0.2902746 0.290222 0.2896581
 0.2894934 0.2891337 0.2873704 0.2841039 0.2810115 0.2800542 0.2812863 0.2827837 0.2827814 0.2809104
 0.2772547 0.2719084 0.2664564 0.2642837 0.2675742 0.2745818 0.2811739 0.2844008 0.2834134 0.2782279
 0.2700316 0.2624655 0.2599849 0.263747 0.2702609 0.2747702 0.275002 0.2712537 0.2644526 0.2557564
 0.2475581 0.2431819 0.2447617 0.2515284 0.2599653 0.2653297 0.2640727 0.2566841 0.2483962 0.2452424
 0.2483861 0.2533593 0.2553207 0.2536076 0.2507199 0.2489086 0.2489353 0.2505096 0.2526201 0.2543275
 0.2554854 0.255412 0.2515614 0.2423429 0.2313195 0.2253186 0.2273902 0.2343458 0.241942 0.249149
 0.255794 0.2594976 0.2582073 0.2542645 0.2529146 0.2567026 0.2630476 0.2675402 0.2684166 0.2672753
 0.2661583 0.2651129 0.2632085 0.2611693 0.2614052 0.2650193 0.2700865 0.2737402 0.2750416 0.274992
 0.274623 0.274127 0.2733769 0.2723488 0.2710834 0.2697066 0.2684225 0.2672882 0.2661674 0.264991
 0.2636955 0.2616579 0.2577515 0.2518341 0.2460092 0.2431853 0.2440354 0.2465734 0.2489802 0.2509076
 0.2511437 0.2466506 0.2365211 0.2255181 0.220798 0.2249989 0.2341435 0.2421024 0.2454386 0.243838
 0.2380429 0.2295127 0.2218647 0.2202447 0.2273813 0.2407393 0.2547852 0.2656449 0.2725862 0.2759118
 0.2754877 0.2718055 0.267194 0.2649081 0.2669041 0.2725616 0.2791654 0.2831692 0.2817312 0.2750523
 0.2679453 0.266932 0.2737701 0.2831138 0.2884123 0.2887765 0.2880365 0.2886612 0.2896346 0.289814
 0.2903011 0.2925684 0.2960271 0.2985133 0.2982283 0.294493 0.2877355 0.2800193 0.2747279 0.2739065
 0.2760315 0.2777884 0.2774955 0.2751471 0.270318 0.2630645 0.2565526 0.2553655 0.260288 0.2671217
 0.2714771 0.2728688 0.2733632 0.2738636 0.2730504 0.2695996 0.264541 0.2608178 0.2604044 0.2624448
 0.2646653 0.2658406 0.2659823 0.264912 0.262277 0.2590876 0.2578501 0.2603399 0.2656996 0.2712718
 0.2750334 0.2768224 0.2775719 0.2780938 0.2786371 0.27903 0.2790887 0.2792009 0.2803552 0.2830771
 0.286497 0.2891376 0.2906193 0.2919763 0.2942133 0.2970861 0.2994917 0.3007024 0.3010154 0.3013811
 0.3025424 0.3044195 0.3061803 0.3069725 0.3067579 0.3064532 0.3071059 0.3088996 0.3110894 0.3128577
 0.3140023 0.3148165 0.3156155 0.3164724 0.3171872 0.3174545 0.3172634 0.3171417 0.3177618 0.319239
 0.3209919 0.32233 0.3230207 0.3232547 0.323256 0.3230684 0.3226593 0.3220943 0.321555 0.321206
 0.3210776 0.3210822 0.3211114 0.3211047 0.321061 0.3210242 0.3210509 0.3211654 0.321348 0.3215689
 0.3218076 0.322033 0.3222051 0.3223165 0.3224017 0.3224795 0.322507 0.3224072 0.3221207 0.3216136
 0.3208557 0.3198149 0.3184629 0.3167668 0.3146953 0.3123161 0.3099548 0.3082269 0.3077824 0.3088932
 0.3112385 0.3140863 0.3167071 0.3186861 0.3199627 0.3206819 0.3210302 0.321153 0.3211388 0.3210293
 0.3208388 0.3205773 0.320262 0.3199143 0.3195581 0.3192179 0.3189115 0.3186397 0.3183842 0.3181151
 0.3177994 0.3174113 0.3169421 0.3163983 0.3157883 0.3151055 0.3143261 0.3134286 0.3124224 0.3113563
 0.3102962 0.3092908 0.3083487 0.3074378 0.306508 0.3055139 0.3044067 0.3031254 0.3016526 0.3001013
 0.2986906 0.2975761 0.2967123 0.2959083 0.2949962 0.2939209 0.292706 0.2913952 0.2900321 0.288652
 0.2872672 0.285861 0.2843986 0.282845 0.281182 0.2794146 0.2775604 0.2756378 0.2736675 0.271672
 0.2696471 0.2675218 0.265154 0.2623741 0.2590383 0.2550589 0.2504167 0.2451726 0.2394756 0.2335443
 0.2276178 0.2219059 0.2165715 0.2117455 0.2075446 0.2040688 0.2013906 0.1995532 0.1985786 0.1984726
 0.199219 0.2007731 0.203057 0.2059559 0.2093173 0.2129577 0.2166756 0.2202752 0.2236137 0.2266513
 0.2294446 0.2320683 0.2345372 0.2368076 0.2388358 0.240612 0.242143 0.2434296 0.2444742 0.2453009
 0.2459586 0.2465021 0.2469703 0.2473762 0.2477137 0.2479783 0.2481837 0.2483591 0.2485324 0.24872
 0.2489298 0.2491667 0.249436 0.2497474 0.2501185 0.2505709 0.2511197 0.2517642 0.2524853 0.2532574
 0.2540675 0.2549282 0.2558724 0.2569407 0.2581671 0.2595663 0.2611249 0.2628 0.2645209 0.2661937
 0.2677174 0.2690066 0.270011 0.2707205 0.2711554 0.2713457 0.2713165 0.2710909 0.2706962 0.2701603
 0.2695072 0.2687617 0.2679513 0.2670947 0.2661929 0.2652373 0.2642288 0.2631882 0.2621468 0.2611256
 0.2601279 0.2591509 0.2581965 0.2572698 0.2563754 0.2555178 0.2546981 0.2539125 0.2531589 0.2524411
 0.2517574 0.251088 0.2503946 0.249629 0.2487452 0.2477133 0.2465216 0.2451674 0.2436543 0.2419983
 0.2402232 0.2383488 0.2363889 0.2343521 0.2322384 0.2300411 0.2277532 0.2253736 0.2229215 0.2204536
 0.2180553 0.2157996 0.2137192 0.211809 0.2100417 0.2083825 0.2068046 0.205292 0.203831 0.2024112
 0.2010334 0.1997062 0.1984376 0.197236 0.1961109 0.1950704 0.1941248 0.1932849 0.1925483 0.1918973
 0.1913181 0.1908075 0.1903705 0.1900326 0.1898364 0.1897917 0.1898372 0.189881 0.1898742 0.1898382
 0.1898305 0.1898938 0.1900286 0.1902044 0.1903822 0.1905051 0.1904818 0.1902079 0.1896003 0.1886044
 0.1871964 0.1854035 0.1833124 0.1810569 0.1788022 0.1767145 0.1749125 0.1734474 0.1723174 0.1714755
 0.1708369 0.1703283 0.1699408 0.16973 0.1697648 0.1700506 0.1704633 0.1707976 0.1709466 0.171023
 0.1712624 0.1718227 0.1726868 0.173708 0.1747133 0.1755883 0.1762923 0.1768219 0.1771912 0.1774365
 0.1775894 0.1776466 0.177589 0.1774116 0.1771172 0.1767167 0.1762385 0.175701 0.1750849 0.1743634
 0.1735331 0.1725989 0.1715667 0.1704477 0.1692249 0.1678538 0.1663706 0.1649798 0.1639815 0.1636062
 0.1638916 0.1646667 0.165676 0.166754 0.1678409 0.1688492 0.1696611 0.1703221 0.1711325 0.1724471
 0.1743708 0.176646 0.1788282 0.1805725 0.1817505 0.1823569 0.1824274 0.1820328 0.181219 0.1799576
 0.1782463 0.1761988 0.1739681 0.171685 0.1694969 0.1675297 0.1658207 0.1643805 0.1632264 0.162364
 0.1618505 0.1614117 0.1595044 0.1538536 0.1446792 0.1367917 0.1359652 0.1427183 0.1515981 0.157037
 0.1580805 0.1570593 0.1559121 0.1550575 0.1544204 0.1540624 0.1540283 0.1542163 0.1544216 0.1544318
 0.1541587 0.1536199 0.1526899 0.1508741 0.147305 0.141052 0.1318041 0.1205039 0.1091499 0.09973492
 0.09325939 0.0895253 0.08757017 0.08633932 0.08528536 0.08455235 0.08462579 0.0858326 0.08815891 0.0913969
 0.09529385 0.09952168 0.1036261 0.1071679 0.1099532 0.1120491 0.1135756 0.1145744 0.115071 0.1151397
 0.114869 0.1143303 0.1135818 0.1126494 0.1115088 0.110141 0.1086245 0.1071654 0.1060075 0.1052749
 0.1049014 0.1047306 0.1046572 0.1046494 0.1046956 0.1047851 0.1049153 0.1050867 0.1053083 0.1056002
 0.1059571 0.1063197 0.1066138 0.1068065 0.1069085 0.1069298 0.1068414 0.1065956 0.1062103 0.1057917
 0.1053916 0.1048685 0.1040067 0.1027994 0.1015483 0.1006635 0.1003833 0.1006436 0.101153 0.1015989
 0.1018322 0.1018964 0.1018986 0.1018587</values></Ydata></ScSm><ScRf><Ydata ylabel="Single channel"><values byteorder="INTEL" format="FLOAT32" numvalues="1820"> 0.07054377 0.07067676 0.07079484 0.07089912 0.07099303 0.07108527 0.07118919 0.07131337 0.07145382 0.07159607
 0.07172555 0.07183756 0.0719363 0.07202463 0.07210332 0.07218264 0.07228237 0.07241243 0.07255962 0.07269661
 0.07280312 0.07288289 0.07296401 0.07307234 0.0731971 0.07329066 0.07331255 0.07327263 0.07322624 0.07322508
 0.07328349 0.07340479 0.07361215 0.07389547 0.074138 0.07419134 0.07405953 0.07392615 0.07395143 0.07411192
 0.07427426 0.07434356 0.07430089 0.07419141 0.07414493 0.07433631 0.07482789 0.07543831 0.07579792 0.07556329
 0.07464693 0.07333998 0.07224051 0.07193952 0.07259481 0.07375503 0.07469858 0.07501668 0.07483439 0.07449836
 0.07421517 0.07404955 0.07408886 0.0744279 0.0750146 0.07558597 0.07577219 0.07534241 0.07446659 0.07368098
 0.07344952 0.07380496 0.07451524 0.07536277 0.07593869 0.07543556 0.07336287 0.07063253 0.0692751 0.0705653
 0.07369003 0.07659523 0.0778553 0.07742494 0.07604766 0.07459925 0.07385821 0.07423596 0.07550685 0.07703525
 0.07828338 0.0789564 0.0788679 0.07802631 0.07681017 0.07580665 0.07548493 0.07606328 0.07742231 0.07896627
 0.0798578 0.07967839 0.07874405 0.07769339 0.07701537 0.07702442 0.07788466 0.07941556 0.08110742 0.08249869
 0.08341749 0.0838802 0.08397634 0.08385006 0.08363065 0.08341317 0.08335418 0.08359195 0.08397231 0.08408132
 0.08370626 0.08312499 0.08282584 0.083005 0.08339867 0.08360092 0.08346562 0.08303054 0.0821043 0.08036098
 0.07801041 0.07590069 0.07469048 0.07438674 0.07488441 0.07624874 0.07806544 0.07924004 0.07909924 0.07829967
 0.07811791 0.07907046 0.08059058 0.0818567 0.08259146 0.08310408 0.08380598 0.08474478 0.08548959 0.08544786
 0.08446905 0.08322169 0.08275122 0.08346983 0.08475496 0.08571465 0.08612552 0.08640785 0.08688685 0.08732268
 0.08711745 0.08595458 0.08434032 0.08342791 0.08406454 0.08595368 0.08781107 0.08833635 0.08713636 0.08493809
 0.0829803 0.08212414 0.08251725 0.08394413 0.08612912 0.08860461 0.0906426 0.09162354 0.09146135 0.09058627
 0.08947673 0.08821383 0.0866496 0.08510146 0.08453622 0.08566618 0.08803288 0.09037177 0.09177914 0.09221268
 0.09197545 0.09110296 0.0894475 0.08731802 0.08576486 0.08580042 0.08724745 0.08878467 0.08935139 0.08913848
 0.08898759 0.08924076 0.08955295 0.08959708 0.08955313 0.08985376 0.09063217 0.09155169 0.09216163 0.09231207
 0.09218909 0.09205115 0.09198405 0.09185144 0.09150745 0.09112372 0.09117606 0.09194252 0.09312807 0.09415947
 0.09474904 0.09500942 0.09510601 0.09497634 0.09443862 0.09355187 0.09278744 0.09269375 0.09336267 0.09436001
 0.09518568 0.09564617 0.09580256 0.09577806 0.09567612 0.09555701 0.09545282 0.09543449 0.09559867 0.09593716
 0.09630117 0.09654748 0.09665446 0.09666723 0.09660403 0.09646077 0.09627219 0.09612791 0.09611489 0.09624816
 0.09647096 0.09671313 0.09691993 0.09703935 0.09704043 0.09695475 0.09685661 0.09679389 0.09676869 0.09678017
 0.09684564 0.09696858 0.09711295 0.09722865 0.0972937 0.0973189 0.09731866 0.09729639 0.09725891 0.09722863
 0.09723411 0.09728979 0.09738185 0.09747785 0.09756453 0.09766501 0.09779471 0.0979147 0.09796625 0.09794503
 0.09790793 0.09791008 0.09796146 0.09803952 0.09811601 0.09816524 0.09816448 0.09810999 0.09804063 0.09802775
 0.09812096 0.09831122 0.09855403 0.09880584 0.09902775 0.09918922 0.09929316 0.09937465 0.09945881 0.09953794
 0.09959796 0.0996496 0.09972697 0.09986065 0.1000491 0.1002553 0.1004364 0.1005725 0.1006689 0.1007513
 0.1008595 0.1010144 0.1011795 0.1012913 0.101338 0.1013783 0.1014677 0.1015933 0.1016985 0.1017521
 0.1017788 0.1018254 0.1019129 0.1020245 0.1021332 0.102233 0.1023403 0.102468 0.1025957 0.1026756
 0.1026776 0.1026271 0.1025811 0.1025724 0.1025946 0.1026357 0.1026989 0.1027847 0.1028696 0.1029208
 0.1029287 0.102918 0.1029209 0.1029403 0.1029482 0.1029193 0.1028589 0.1027944 0.1027499 0.1027315
 0.102728 0.102719 0.1026878 0.1026313 0.1025592 0.1024828 0.102405 0.1023282 0.1022707 0.1022621
 0.1023036 0.1023395 0.1022931 0.1021393 0.1019304 0.1017453 0.1016222 0.1015399 0.1014515 0.1013269
 0.1011716 0.1010123 0.1008703 0.1007466 0.1006305 0.1005156 0.1004107 0.1003359 0.1003024 0.1002904
 0.1002542 0.1001628 0.1000307 0.0998999 0.0997986 0.0997265 0.09967174 0.09962595 0.09958805 0.09956519
 0.09956464 0.09957825 0.09958446 0.09957313 0.09955882 0.09956568 0.09960962 0.0996938 0.09980304 0.09990112
 0.09995563 0.0999736 0.09999839 0.1000649 0.1001705 0.1002928 0.1004189 0.1005497 0.1006877 0.100834
 0.1009939 0.1011756 0.1013838 0.1016133 0.1018498 0.1020779 0.1022924 0.1025046 0.1027335 0.1029902
 0.1032693 0.1035541 0.1038308 0.1040982 0.1043657 0.1046418 0.1049253 0.1052127 0.1055074 0.1058161
 0.106137 0.1064608 0.1067829 0.1071068 0.1074357 0.1077658 0.1080915 0.1084162 0.1087553 0.1091238
 0.1095137 0.109889 0.1102138 0.1104885 0.1107513 0.1110427 0.111374 0.1117244 0.1120595 0.1123562
 0.1126226 0.1128926 0.1131907 0.1135068 0.1138146 0.1141136 0.1144348 0.1148008 0.1151878 0.115538
 0.1158123 0.1160281 0.1162398 0.1164825 0.1167417 0.1169831 0.1171987 0.11741 0.1176342 0.1178688
 0.1181104 0.1183678 0.1186443 0.1189213 0.1191744 0.1193987 0.1196069 0.119808 0.1199959 0.1201565
 0.1202812 0.1203784 0.1204745 0.1205948 0.1207388 0.1208852 0.121023 0.121165 0.121328 0.121514
 0.1217195 0.1219475 0.1221981 0.1224564 0.1227067 0.1229584 0.1232386 0.1235488 0.1238475 0.1240918
 0.1242867 0.1244725 0.124674 0.1248856 0.1251041 0.1253464 0.1256266 0.1259329 0.1262374 0.1265224
 0.1267959 0.1270836 0.1273997 0.1277225 0.1280079 0.1282325 0.128416 0.128601 0.1288179 0.1290703
 0.1293437 0.12962 0.1298872 0.1301348 0.1303447 0.1304978 0.1305965 0.1306675 0.1307312 0.1307721
 0.1307488 0.1306273 0.1303961 0.1300533 0.1295922 0.1290097 0.1283286 0.1276109 0.1269479 0.1264327
 0.1261349 0.1260901 0.1262998 0.1267295 0.1273092 0.1279456 0.1285438 0.1290191 0.1292983 0.1293277
 0.1290925 0.1286245 0.1279824 0.1272253 0.1264041 0.1255626 0.1247395 0.1239785 0.1233536 0.1229792
 0.1229832 0.1234591 0.1244303 0.1258321 0.1275107 0.129257 0.1308818 0.1322863 0.1334719 0.1344926
 0.1354036 0.1362431 0.1370347 0.1377887 0.1385015 0.139167 0.1397882 0.1403746 0.1409276 0.1414318
 0.1418632 0.1422016 0.1424431 0.1426027 0.142704 0.1427629 0.1427874 0.1427887 0.1427774 0.1427409
 0.1426353 0.1424102 0.1420419 0.1415493 0.1409975 0.1405061 0.1402445 0.1403911 0.1410557 0.142211
 0.1436925 0.1452761 0.1467721 0.1480667 0.1491153 0.1499286 0.1505611 0.1510822 0.1515425 0.1519649
 0.1523598 0.1527356 0.1530976 0.1534483 0.1537912 0.1541322 0.1544766 0.1548263 0.1551775 0.1555226
 0.1558564 0.1561834 0.1565168 0.1568651 0.157222 0.1575724 0.157912 0.1582537 0.1586091 0.15897
 0.1593156 0.1596377 0.1599484 0.1602652 0.1605966 0.1609405 0.1612865 0.1616205 0.1619326 0.1622256
 0.1625117 0.1628001 0.1630904 0.1633786 0.1636634 0.1639463 0.1642275 0.1645072 0.1647882 0.1650737
 0.1653608 0.1656407 0.165906 0.166159 0.166408 0.1666597 0.1669149 0.1671711 0.167427 0.1676845
 0.1679481 0.1682189 0.1684912 0.168756 0.1690104 0.1692596 0.1695102 0.1697643 0.17002 0.170276
 0.1705307 0.1707819 0.1710276 0.1712703 0.1715157 0.1717686 0.1720273 0.1722855 0.1725381 0.1727859
 0.1730334 0.1732842 0.1735374 0.1737907 0.174045 0.1743023 0.1745594 0.1748089 0.1750461 0.1752729
 0.1754951 0.1757185 0.1759472 0.1761833 0.1764265 0.1766749 0.1769255 0.1771738 0.177416 0.1776536
 0.1778933 0.1781405 0.1783935 0.178646 0.1788936 0.1791368 0.1793787 0.1796206 0.1798615 0.1801013
 0.1803406 0.1805797 0.1808177 0.1810547 0.1812914 0.1815291 0.1817685 0.182008 0.1822456 0.1824817
 0.1827189 0.1829577 0.1831954 0.1834292 0.1836592 0.1838887 0.1841219 0.1843604 0.1846012 0.1848408
 0.1850789 0.1853153 0.1855478 0.1857764 0.186006 0.1862417 0.1864845 0.1867338 0.1869866 0.1872371
 0.1874807 0.187719 0.1879556 0.188192 0.1884287 0.1886665 0.1889058 0.1891472 0.1893912 0.1896365
 0.1898803 0.1901221 0.1903628 0.1906032 0.1908454 0.1910931 0.1913463 0.1916004 0.1918527 0.192105
 0.1923598 0.1926182 0.1928788 0.1931387 0.193397 0.1936555 0.1939136 0.1941665 0.1944104 0.1946467
 0.1948783 0.1951078 0.1953376 0.1955661 0.1957896 0.1960095 0.1962322 0.1964613 0.1966971 0.1969402
 0.1971887 0.1974372 0.1976838 0.1979327 0.1981853 0.1984373 0.1986859 0.1989313 0.1991752 0.1994239
 0.1996842 0.1999545 0.2002256 0.2004918 0.2007531 0.2010122 0.2012734 0.2015375 0.2017997 0.2020575
 0.2023184 0.2025881 0.2028621 0.2031351 0.2034076 0.2036792 0.2039486 0.2042183 0.2044904 0.2047623
 0.2050349 0.2053115 0.2055901 0.2058655 0.206138 0.2064073 0.2066699 0.2069291 0.2071941 0.2074677
 0.207747 0.2080319 0.2083195 0.2086015 0.2088766 0.2091505 0.2094243 0.2096963 0.2099696 0.2102434
 0.2105118 0.2107767 0.211043 0.2113007 0.2115245 0.2116646 0.211592 0.2110309 0.2095183 0.2064137
 0.2010244 0.1928804 0.1820168 0.1690583 0.1550461 0.1411101 0.1281615 0.1167701 0.1072378 0.09971843
 0.09430252 0.09109544 0.09027931 0.09219345 0.09744185 0.1065342 0.118574 0.1301264 0.1365046 0.1353174
 0.1286356 0.1211137 0.1162027 0.1144616 0.1147306 0.11586 0.1173891 0.1194208 0.12223 0.125855
 0.130054 0.134704 0.1400323 0.1462684 0.1531956 0.1602302 0.1669105 0.1731935 0.1792834 0.1852695
 0.1909896 0.1961861 0.2007072 0.204555 0.207829 0.2106644 0.213183 0.2154672 0.2175718 0.2195253
 0.2212928 0.2227625 0.2238119 0.2244058 0.2246379 0.2246886 0.2247279 0.2248431 0.2250469 0.2253282
 0.2256775 0.2260851 0.2265442 0.2270486 0.227583 0.2281268 0.2286697 0.2292081 0.2297328 0.2302353
 0.2307151 0.2311738 0.2316107 0.2320272 0.2324266 0.2328089 0.2331755 0.2335317 0.2338819 0.2342294
 0.2345795 0.2349311 0.2352718 0.2355896 0.2358829 0.2361563 0.2364177 0.236679 0.2369465 0.2372141
 0.2374735 0.2377252 0.237975 0.2382265 0.2384802 0.2387326 0.2389787 0.2392191 0.2394597 0.2397019
 0.2399405 0.2401718 0.2403985 0.2406258 0.2408591 0.2410997 0.2413438 0.2415857 0.2418236 0.2420591
 0.2422973 0.2425492 0.2428208 0.243103 0.2433805 0.2436495 0.2439173 0.2441892 0.244465 0.2447426
 0.2450195 0.2452945 0.2455688 0.2458417 0.2461063 0.2463557 0.2465902 0.2468162 0.2470422 0.2472742
 0.2475119 0.2477504 0.2479879 0.2482276 0.2484711 0.2487173 0.2489654 0.2492151 0.2494662 0.2497237
 0.2499956 0.2502825 0.2505753 0.2508661 0.2511546 0.2514423 0.2517311 0.2520245 0.2523224 0.2526162
 0.2528975 0.2531704 0.2534533 0.2537646 0.254105 0.2544533 0.2547863 0.2550995 0.2554048 0.2557146
 0.2560343 0.2563585 0.2566643 0.2569282 0.2571621 0.257417 0.2577351 0.2581099 0.2584997 0.2588707
 0.2592171 0.2595496 0.2598761 0.2601923 0.2604859 0.2607494 0.2609949 0.2612591 0.2615791 0.2619535
 0.2623377 0.2626905 0.2630079 0.263307 0.2635996 0.2638893 0.2641648 0.2643878 0.2645299 0.2646409
 0.2648413 0.265211 0.2657016 0.2661851 0.2665797 0.2669018 0.2672043 0.2675084 0.2678069 0.2680755
 0.2682434 0.2682299 0.268086 0.2680464 0.2683382 0.2689523 0.2696695 0.2702824 0.2707316 0.2710635
 0.2713434 0.2716111 0.271854 0.2720045 0.2720149 0.2719654 0.2720522 0.2724076 0.2729504 0.2734753
 0.2738702 0.2741781 0.2744783 0.2747948 0.2750863 0.2752318 0.27508 0.2746564 0.2743049 0.2744663
 0.2752534 0.2763224 0.2772173 0.277775 0.2781276 0.2783861 0.2784743 0.2782719 0.2777659 0.2770531
 0.2763811 0.2761891 0.2768202 0.2780782 0.2793075 0.2800483 0.2804299 0.2808426 0.281434 0.2820457
 0.2824767 0.2826628 0.2826505 0.282485 0.2821856 0.2818727 0.2818435 0.2823655 0.2833654 0.2844442
 0.2852492 0.2857541 0.2861013 0.2861914 0.2855721 0.2839753 0.2820244 0.2810766 0.2820153 0.2843197
 0.2866285 0.2880861 0.2888094 0.2892508 0.289612 0.2897862 0.2893441 0.2876741 0.2848131 0.2821727
 0.2816806 0.2838786 0.2873136 0.2899476 0.2907142 0.2897356 0.2878012 0.2860022 0.285345 0.2862058
 0.288173 0.2904637 0.2923945 0.2935707 0.2939113 0.2936034 0.2930223 0.2926373 0.2927178 0.2929288
 0.2925386 0.291372 0.2901504 0.2893785 0.2884126 0.2865095 0.2844849 0.284206 0.2862844 0.2891928
 0.2910371 0.2914966 0.2914796 0.2912908 0.2898864 0.2862483 0.2812724 0.2777394 0.2779343 0.2813621
 0.2852388 0.2872285 0.2872894 0.2868713 0.2868769 0.2867089 0.2851593 0.2821217 0.2792525 0.2784881
 0.2798715 0.2814819 0.2815585 0.2797324 0.2760937 0.2707512 0.2653009 0.2631276 0.2664161 0.2734338
 0.2800657 0.2833682 0.2824866 0.2774251 0.2693573 0.2619156 0.2595612 0.2634677 0.2701536 0.2748553
 0.2752854 0.2717323 0.2651224 0.2566137 0.2486027 0.2444308 0.2462628 0.2533488 0.2621472 0.2678466
 0.2668329 0.2595959 0.2514456 0.2485034 0.2519454 0.2572341 0.2594554 0.2579386 0.2552219 0.2535918
 0.2538266 0.2556359 0.2579907 0.2599308 0.2613045 0.261407 0.257618 0.2482971 0.2370954 0.2310235
 0.2332244 0.2404371 0.2483087 0.2557775 0.2626622 0.2665173 0.2652349 0.2612224 0.259872 0.2638001
 0.2703519 0.2749923 0.2759101 0.2747544 0.2736314 0.2725939 0.2706879 0.2686623 0.2689974 0.2728224
 0.2781476 0.2820222 0.2834907 0.2835934 0.2833895 0.283064 0.2824758 0.2815989 0.2804806 0.2792553
 0.2781323 0.2771648 0.2762107 0.2752094 0.2741095 0.2722642 0.2684793 0.2625654 0.2566687 0.2537915
 0.25464 0.2571769 0.2595499 0.2614353 0.2615955 0.2568721 0.2463154 0.2348835 0.2300292 0.2344903
 0.244108 0.2524909 0.2560695 0.2545314 0.2486493 0.2399209 0.2320767 0.2304406 0.2378323 0.2516073
 0.2660196 0.2770754 0.2840632 0.2873314 0.2867435 0.2827985 0.2779124 0.2754697 0.2774989 0.2833384
 0.2901455 0.2942234 0.2926253 0.2855737 0.278075 0.276903 0.283889 0.2934957 0.2989284 0.299253
 0.2984301 0.2990233 0.2999966 0.3001807 0.3007228 0.3031501 0.3068578 0.3096104 0.3095455 0.3059564
 0.2992841 0.291664 0.2865936 0.2861668 0.2887641 0.2909151 0.2908656 0.288609 0.2837029 0.2762295
 0.2695448 0.2684774 0.2738392 0.2811946 0.2859174 0.2875013 0.2881254 0.2887374 0.2879411 0.2843381
 0.2790098 0.2750517 0.2745405 0.2765737 0.2787532 0.2797825 0.2796734 0.2782467 0.2751364 0.2713913
 0.2696188 0.2716665 0.2766411 0.2817742 0.2849619 0.2860475 0.2860229 0.2857526 0.285508 0.2851212
 0.28441 0.2837728 0.2842202 0.2862991 0.2891452 0.2912723 0.2922924 0.2932382 0.2951118 0.2976602
 0.2997668 0.3006896 0.3007119 0.3007749 0.3016266 0.3032083 0.3047131 0.305296 0.3049067 0.3044482
 0.3049684 0.3066618 0.3087895 0.3105263 0.3116513 0.3124391 0.3131979 0.3140046 0.3146646 0.3148737
 0.3146227 0.3144454 0.3150207 0.3164648 0.3181922 0.3195091 0.3201852 0.3204166 0.3204274 0.3202549
 0.3198609 0.3193132 0.3187971 0.3184721 0.3183589 0.3183683 0.3184021 0.3184099 0.3183876 0.3183661
 0.3183937 0.3184977 0.3186647 0.3188685 0.3190907 0.3193042 0.3194718 0.3195857 0.3196796 0.3197729
 0.3198252 0.3197616 0.3195213 0.319065 0.3183559 0.3173587 0.3160473 0.3143939 0.3123719 0.3100475
 0.3077405 0.3060606 0.3056566 0.3068026 0.3091784 0.3120511 0.3146932 0.3166946 0.3179991 0.3187504
 0.31913 0.3192794 0.3192871 0.3191945 0.3190117 0.3187439 0.3184106 0.3180425 0.3176695 0.3173147
 0.3169922 0.3167049 0.3164401 0.3161675 0.3158482 0.3154545 0.3149816 0.3144391 0.3138341 0.3131616
 0.3124036 0.3115391 0.3105692 0.309537 0.3085129 0.3075513 0.3066581 0.3057937 0.3049085 0.303965
 0.3029186 0.3017018 0.30029 0.2988013 0.2974694 0.2964571 0.2957076 0.2950092 0.2941833 0.2931788
 0.2920273 0.2907733 0.2894551 0.2881061 0.2867435 0.2853569 0.2839128 0.2823739 0.2807227 0.2789701
 0.2771401 0.2752533 0.2733268 0.2713751 0.2693855 0.2672836 0.2649327 0.2621743 0.258875 0.2549515
 0.2503809 0.2452178 0.2396066 0.2337643 0.2279276 0.222304 0.2170561 0.2123132 0.2081857 0.2047683
 0.202134 0.2003264 0.1993637 0.1992517 0.1999862 0.2015375 0.2038281 0.2067295 0.2100781 0.2136917
 0.2173781 0.2209498 0.2242681 0.2272942 0.2300834 0.2327073 0.2351764 0.237443 0.239463 0.2412317
 0.2427621 0.2440584 0.2451237 0.2459827 0.246682 0.2472692 0.2477764 0.2482179 0.248593 0.2488947
 0.2491252 0.2493058 0.2494675 0.2496335 0.2498152 0.2500209 0.2502629 0.2505583 0.2509246 0.251375
 0.2519137 0.2525324 0.253213 0.2539369 0.2546983 0.2555097 0.2563998 0.2574068 0.2585663 0.2598948
 0.2613824 0.2629942 0.2646682 0.266311 0.2678102 0.269069 0.2700341 0.2706987 0.2710864 0.2712305
 0.271163 0.2709129 0.2705079 0.2699714 0.2693228 0.2685847 0.2677844 0.2669396 0.2660482 0.2651017
 0.2641064 0.2630864 0.2620673 0.2610618 0.2600756 0.2591183 0.2582006 0.2573212 0.2564701 0.2556412
 0.2548367 0.2540604 0.2533157 0.2526045 0.2519202 0.2512427 0.2505418 0.2497801 0.2489167 0.2479151
 0.24675 0.2454095 0.2439026 0.2422579 0.2405052 0.2386587 0.2367227 0.2347048 0.2326131 0.2304475
 0.2281968 0.2258495 0.2234198 0.2209707 0.218596 0.2163683 0.214311 0.2124134 0.2106545 0.2090124
 0.2074658 0.2059918 0.2045679 0.2031856 0.201857 0.2005964 0.199406 0.1982846 0.1972389 0.196279
 0.1954176 0.1946686 0.1940351 0.1935015 0.1930471 0.1926595 0.1923432 0.1921281 0.1920534 0.1921172
 0.1922502 0.1923584 0.1923847 0.1923311 0.1922411 0.1921641 0.1921241 0.1921187 0.1921336 0.1921304
 0.1920252 0.1917072 0.1910811 0.1900824 0.1886788 0.186887 0.1847854 0.18251 0.1802367 0.1781407
 0.176343 0.1748942 0.1737906 0.1729777 0.1723589 0.1718539 0.1714594 0.1712453 0.1712934 0.1716113
 0.1720679 0.1724499 0.1726479 0.1727732 0.1730545 0.1736427 0.1745253 0.175568 0.1766046 0.1775165
 0.1782573 0.1788207 0.1792229 0.1795054 0.1797037 0.1798102 0.179796 0.1796505 0.1793815 0.1790068
 0.178551 0.1780195 0.1773889 0.1766485 0.1758178 0.1749072 0.1739084 0.1728145 0.1716011 0.1702264
 0.1687357 0.1673444 0.1663594 0.1660123 0.1663417 0.1671799 0.1682718 0.1694447 0.1706234 0.1717032
 0.1725565 0.1732379 0.1740702 0.1754262 0.1774128 0.1797632 0.1820218 0.1838377 0.1850823 0.1857502
 0.1858676 0.1854898 0.1846553 0.1833462 0.1815824 0.1794951 0.177236 0.1749204 0.1726878 0.1706777
 0.1689481 0.167514 0.1663796 0.1655414 0.1650645 0.1646776 0.1627945 0.1570636 0.1476913 0.1396064
 0.1387435 0.1456505 0.1547399 0.160298 0.1613435 0.1602667 0.1590515 0.1581226 0.1574057 0.1569773
 0.1568992 0.1570761 0.1572947 0.1573227 0.1570539 0.1564992 0.1555338 0.1536585 0.1499901 0.1435803
 0.1341204 0.1225866 0.1110236 0.1014526 0.09487554 0.09108143 0.08908788 0.08781756 0.08671361 0.08593551
 0.08599295 0.08721891 0.08958486 0.0928686 0.09681568 0.1011008 0.1052676 0.1088735 0.1117223 0.1138771
 0.1154511 0.1164849 0.1170082 0.1170937 0.1168192 0.1162494 0.1154503 0.1144639 0.1132781 0.1118772
 0.110336 0.1088554 0.1076792 0.1069354 0.106558 0.1063849 0.1063067 0.1062933 0.1063358 0.1064262
 0.1065646 0.1067514 0.106989 0.1072886 0.1076422 0.1079963 0.1082841 0.1084744 0.1085727 0.1085864
 0.1084909 0.108246 0.1078711 0.1074674 0.1070831 0.1065741 0.105716 0.104489 0.103196 0.1022717
 0.1019837 0.1022702 0.1028127 0.1032735 0.1035067 0.1035751 0.1035934 0.1035701 0.1033934 0.1029596
</values></Ydata></ScRf><Data_Parameters_AB><parameter name="DPF">1</parameter><parameter name="NPT">3497</parameter><parameter name="FXV">3996</parameter><parameter name="LXV">500</parameter><parameter name="CSF">1</parameter><parameter name="MXY">0.0231268852949142</parameter><parameter name="MNY">-0.0316273160278797</parameter><parameter name="DAT">18/01/2024</parameter><parameter name="TIM">12:14:10.924 (GMT+1)</parameter><parameter name="DXU">WN</parameter></Data_Parameters_AB><AB__Qtest><MainReport name="Quality Test Report"><Header><Line><Legend>Test result ok/not ok [1/0]: </Legend><Value>0</Value></Line><Line><Legend>Method file: </Legend><Value>C:\Users\Public\Documents\Bruker\OPUS_8.2.28\QT\IRBT_v3_default.QT</Value></Line></Header><Matrix><Line><Legend></Legend><Legend>min</Legend><Legend>max</Legend><Legend>measured</Legend></Line><Line><Value>Absorption (X-Range 1):</Value><Value>0.400000</Value><Value>2.000000</Value><Value>0.025779</Value></Line><Line><Value>Noise (X-Range 4):</Value><Value></Value><Value>0.000300</Value><Value>0.000022</Value></Line><Line><Value>Signal/Noise (X-Range 2):</Value><Value>200.000000</Value><Value></Value><Value>10.571003</Value></Line><Line><Value>Signal/Noise (X-Range 3):</Value><Value>40.000000</Value><Value></Value><Value>7.329487</Value></Line><Line><Value>Water vapour (X-Range 5):</Value><Value></Value><Value>0.000300</Value><Value>0.000010</Value></Line><Line><Value>Signal/Water (X-Range 2):</Value><Value>100.000000</Value><Value></Value><Value>22.676024</Value></Line><Line><Value>Signal/Water (X-Range 3):</Value><Value>20.000000</Value><Value></Value><Value>15.722596</Value></Line><Line><Value>Fringes (X-Range 6):</Value><Value></Value><Value>0.000100</Value><Value>0.000021</Value></Line></Matrix></MainReport></AB__Qtest><Data_Parameters_ScSm><parameter name="DPF">1</parameter><parameter name="NPT">1814</parameter><parameter name="FXV">3996.63438082617</parameter><parameter name="LXV">499.579297603271</parameter><parameter name="CSF">1</parameter><parameter name="MXY">0.323255956172943</parameter><parameter name="MNY">0.0741633474826813</parameter><parameter name="DAT">18/01/2024</parameter><parameter name="TIM">12:14:10.924 (GMT+1)</parameter><parameter name="DXU">WN</parameter></Data_Parameters_ScSm><Data_Parameters_ScRf><parameter name="DPF">1</parameter><parameter name="NPT">1820</parameter><parameter name="FXV">4004.34989121387</parameter><parameter name="LXV">495.721542409425</parameter><parameter name="CSF">1</parameter><parameter name="MXY">0.320427387952805</parameter><parameter name="MNY">0.0692750960588455</parameter><parameter name="DAT">18/01/2024</parameter><parameter name="TIM">12:13:43.582 (GMT+1)</parameter><parameter name="DXU">WN</parameter></Data_Parameters_ScRf><Optic_Parameters_Rf><parameter name="APR">0</parameter><parameter name="APT">Open</parameter><parameter name="BMS">KBr</parameter><parameter name="DTC">RT-DLaTGS_IR-Biotyper [Microplate reader]</parameter><parameter name="HPF">0</parameter><parameter name="LPF">10.0</parameter><parameter name="LPV">4000</parameter><parameter name="PGR">0</parameter><parameter name="RCH">Module port</parameter><parameter name="RDX">0</parameter><parameter name="SRC">MIR</parameter><parameter name="VEL">10.0</parameter><parameter name="SON">Off</parameter></Optic_Parameters_Rf><Acquisition_Parameters_Rf><parameter name="ADT">1</parameter><parameter name="AQM">DD</parameter><parameter name="CFE">0</parameter><parameter name="COR">0</parameter><parameter name="DEL">0</parameter><parameter name="DLY">0</parameter><parameter name="HFW">8000</parameter><parameter name="LFW">0</parameter><parameter name="NSR">32</parameter><parameter name="PLF">AB</parameter><parameter name="RES">6</parameter><parameter name="RGN">-1</parameter><parameter name="STR">0</parameter><parameter name="TCL">MakeCompatibleScalar (0, {WSV=1.000000, ARV=0});</parameter><parameter name="TDL">37</parameter><parameter name="RPO">0</parameter></Acquisition_Parameters_Rf><FT_-_Parameters_Rf><parameter name="APF">B3</parameter><parameter name="HFQ">500</parameter><parameter name="LFQ">4000</parameter><parameter name="NLI">0</parameter><parameter name="PHR">24</parameter><parameter name="PHZ">ML</parameter><parameter name="SPZ">NO</parameter><parameter name="ZFF">1</parameter></FT_-_Parameters_Rf><Optic_Parameters_><parameter name="APR">0</parameter><parameter name="APT">Open</parameter><parameter name="BMS">KBr</parameter><parameter name="CHN">Module port</parameter><parameter name="DTC">RT-DLaTGS_IR-Biotyper [Microplate reader]</parameter><parameter name="HPF">0</parameter><parameter name="LPF">10.0</parameter><parameter name="LPV">4000</parameter><parameter name="PGN">0</parameter><parameter name="RDX">0</parameter><parameter name="SRC">MIR</parameter><parameter name="VEL">10.0</parameter><parameter name="SON">Off</parameter></Optic_Parameters_><FT_-_Parameters_><parameter name="APF">B3</parameter><parameter name="HFQ">500</parameter><parameter name="LFQ">4000</parameter><parameter name="NLI">0</parameter><parameter name="PHR">24</parameter><parameter name="PHZ">ML</parameter><parameter name="SPZ">NO</parameter><parameter name="ZFF">1</parameter></FT_-_Parameters_><Acquisition_Parameters_><parameter name="ADT">1</parameter><parameter name="AQM">DD</parameter><parameter name="CFE">0</parameter><parameter name="COR">0</parameter><parameter name="DEL">0</parameter><parameter name="DLY">0</parameter><parameter name="HFW">8000</parameter><parameter name="LFW">0</parameter><parameter name="NSS">32</parameter><parameter name="PLF">AB</parameter><parameter name="RES">6</parameter><parameter name="SOT">0</parameter><parameter name="TCL">MakeCompatibleScalar (0, {WSV=1.000000, ARV=0});</parameter><parameter name="TDL">37</parameter><parameter name="SPO">0</parameter><parameter name="SGN">-1</parameter></Acquisition_Parameters_><Instrument_Parameters_Rf><parameter name="HFL">15801.365274</parameter><parameter name="LFL">0</parameter><parameter name="LWN">15801.365274</parameter><parameter name="ABP">32157</parameter><parameter name="SSP">1</parameter><parameter name="ARG">2</parameter><parameter name="ASG">2</parameter><parameter name="ASS">32</parameter><parameter name="GFW">16</parameter><parameter name="GBW">16</parameter><parameter name="BFW">0</parameter><parameter name="BBW">0</parameter><parameter name="PKA">9311</parameter><parameter name="PKL">4987</parameter><parameter name="PRA">9276</parameter><parameter name="PRL">5010</parameter><parameter name="P2A">1</parameter><parameter name="P2L">1</parameter><parameter name="P2R">1</parameter><parameter name="P2K">1</parameter><parameter name="DAQ">0</parameter><parameter name="AG2">1</parameter><parameter name="SSM">1</parameter><parameter name="RSN">46676</parameter><parameter name="CRR">0</parameter><parameter name="SRT">1705580023.582</parameter><parameter name="DUR">19.6449890136719</parameter><parameter name="TSC">31</parameter><parameter name="MVD">0.465672969818115</parameter><parameter name="AN1">0.225978882454565</parameter><parameter name="AN2">0</parameter><parameter name="VSN">2.485 Apr  4 2017</parameter><parameter name="SRN">0085</parameter><parameter name="CAM">0</parameter><parameter name="INS">IR-Biotyper</parameter><parameter name="FOC">69</parameter><parameter name="RDY">1</parameter><parameter name="ARS">32</parameter></Instrument_Parameters_Rf><Sample_Parameters_><parameter name="BLD"></parameter><parameter name="CNM">Admin</parameter><parameter name="CPY"></parameter><parameter name="DPM"></parameter><parameter name="EXP">IRBT_v3_32Scans.XPM</parameter><parameter name="LCT"></parameter><parameter name="SFM">Microplate, HTS-XT</parameter><parameter name="SNM">240118-1045-Cdiff_SCFA_2_C33_232125534_G11_8bdbb5d9-fda8-4c1b-adaa-8af65c941322.0</parameter><parameter name="XPP">C:\Users\Public\Documents\Bruker\OPUS_8.2.28\XPM</parameter><parameter name="IST">OK</parameter><parameter name="CPG">1252</parameter><parameter name="UID">c1ee342f-5315-41af-8eb7-cb0b0715a427</parameter></Sample_Parameters_><Instrument_Parameters_><parameter name="HFL">15801.365274</parameter><parameter name="LFL">0</parameter><parameter name="LWN">15801.365274</parameter><parameter name="ABP">32157</parameter><parameter name="SSP">1</parameter><parameter name="ASG">2</parameter><parameter name="ARG">2</parameter><parameter name="ASS">32</parameter><parameter name="GFW">16</parameter><parameter name="GBW">16</parameter><parameter name="BFW">0</parameter><parameter name="BBW">0</parameter><parameter name="PKA">9455</parameter><parameter name="PKL">4987</parameter><parameter name="PRA">9451</parameter><parameter name="PRL">5010</parameter><parameter name="P2A">1</parameter><parameter name="P2L">1</parameter><parameter name="P2R">1</parameter><parameter name="P2K">1</parameter><parameter name="DAQ">0</parameter><parameter name="AG2">1</parameter><parameter name="SSM">1</parameter><parameter name="RSN">24031</parameter><parameter name="CRR">0</parameter><parameter name="SRT">1705580050.924</parameter><parameter name="DUR">19.6449890136719</parameter><parameter name="TSC">31</parameter><parameter name="MVD">0.864246964454651</parameter><parameter name="AN1">0.225997476344818</parameter><parameter name="AN2">0</parameter><parameter name="VSN">2.485 Apr  4 2017</parameter><parameter name="SRN">0085</parameter><parameter name="CAM">0</parameter><parameter name="INS">IR-Biotyper</parameter><parameter name="FOC">69</parameter><parameter name="RDY">1</parameter></Instrument_Parameters_><History/></OPUSDataFile>
