<?xml version="1.0" encoding="UTF-8" ?>
<OPUSDataFile><AB><Ydata ylabel="Absorbance Units"><values byteorder="INTEL" format="FLOAT32" numvalues="3497"> -0.03600695 -0.03598564 -0.03596639 -0.03594976 -0.03593803 -0.03593026 -0.03592611 -0.03592318 -0.03591778 -0.03590822
 -0.03589065 -0.03586691 -0.03583644 -0.03580352 -0.0357704 -0.03573863 -0.03570971 -0.03568157 -0.03565384 -0.03562567
 -0.03559642 -0.03557011 -0.03554709 -0.03552973 -0.03551807 -0.03550691 -0.03549583 -0.03547775 -0.03545392 -0.03542645
 -0.03539808 -0.03537955 -0.03537067 -0.03537785 -0.03539576 -0.03541994 -0.03544397 -0.03545871 -0.0354627 -0.03545079
 -0.03542762 -0.03539316 -0.03535534 -0.03531664 -0.03528328 -0.03525776 -0.03523944 -0.03522914 -0.03522052 -0.03521307
 -0.035203 -0.03519018 -0.03517798 -0.03516664 -0.03516046 -0.0351585 -0.03515808 -0.03515774 -0.03515083 -0.03513751
 -0.03511427 -0.03508356 -0.0350473 -0.03500829 -0.03497018 -0.03493494 -0.03490526 -0.03488165 -0.03486535 -0.03485504
 -0.0348511 -0.03484982 -0.03485075 -0.03484916 -0.03484429 -0.03483302 -0.03481484 -0.0347904 -0.03475974 -0.03472605
 -0.03468959 -0.03465419 -0.03461997 -0.03458974 -0.03456335 -0.03454192 -0.03452501 -0.03451225 -0.03450303 -0.03449613
 -0.03449136 -0.03448854 -0.03448603 -0.03448329 -0.03447662 -0.03446386 -0.03444302 -0.03441174 -0.0343747 -0.03433183
 -0.03429151 -0.03425525 -0.03422677 -0.03420692 -0.03419193 -0.03418165 -0.03417093 -0.03415987 -0.03414853 -0.0341373
 -0.03412892 -0.0341227 -0.03411809 -0.03411347 -0.0341045 -0.03409101 -0.03407003 -0.03404408 -0.03401433 -0.03398436
 -0.03395753 -0.03393526 -0.03391964 -0.03390935 -0.03390458 -0.03390324 -0.0339049 -0.03390792 -0.03391228 -0.03391463
 -0.03391476 -0.03390837 -0.03389522 -0.03387488 -0.03384779 -0.03381939 -0.03379013 -0.03376588 -0.03374562 -0.03372944
 -0.03371477 -0.03369531 -0.03366996 -0.03363271 -0.03358757 -0.03353598 -0.03348405 -0.03343727 -0.03339881 -0.0333727
 -0.03335687 -0.03335246 -0.0333527 -0.03335654 -0.03335679 -0.03335171 -0.03334028 -0.03332188 -0.03330145 -0.03327926
 -0.03325886 -0.03324005 -0.03322081 -0.03320079 -0.03317674 -0.03314915 -0.03311817 -0.03308458 -0.03305067 -0.03301609
 -0.03298121 -0.03294558 -0.03290835 -0.03287079 -0.03283322 -0.03279797 -0.0327667 -0.03273977 -0.03271795 -0.03269993
 -0.03268533 -0.03267414 -0.03266621 -0.03266265 -0.03266381 -0.03266714 -0.03267254 -0.03267279 -0.03266772 -0.03265315
 -0.03263027 -0.03260456 -0.03257729 -0.0325573 -0.03254233 -0.03253194 -0.03252177 -0.03250305 -0.03247589 -0.03243547
 -0.03238761 -0.0323354 -0.03228378 -0.03223703 -0.03219542 -0.03215998 -0.03213025 -0.03210595 -0.03208863 -0.03207894
 -0.03207498 -0.03207728 -0.03207553 -0.03206918 -0.03204818 -0.03201276 -0.03196558 -0.0319084 -0.03185461 -0.03180458
 -0.03176782 -0.03174146 -0.031723 -0.03170966 -0.0316947 -0.03167882 -0.03165991 -0.03164009 -0.03162135 -0.03160219
 -0.03158291 -0.0315598 -0.03153082 -0.03149626 -0.03145496 -0.03141228 -0.03136883 -0.03132967 -0.03129558 -0.03126776
 -0.03124635 -0.03123012 -0.03121888 -0.03120944 -0.0312013 -0.03118917 -0.03117314 -0.0311502 -0.03112208 -0.03109171
 -0.03106062 -0.03103372 -0.03100937 -0.03098796 -0.03096638 -0.03094167 -0.03091314 -0.0308791 -0.03084118 -0.03079987
 -0.03075563 -0.0307088 -0.0306587 -0.03060469 -0.03055016 -0.03049507 -0.03044641 -0.03040471 -0.03037206 -0.03034815
 -0.03032628 -0.03030599 -0.03028004 -0.03024963 -0.03021583 -0.0301802 -0.0301481 -0.0301186 -0.03009293 -0.0300686
 -0.03004258 -0.0300141 -0.02998109 -0.02994454 -0.02990452 -0.02986192 -0.02981711 -0.02977065 -0.02972255 -0.02967424
 -0.0296261 -0.02957848 -0.02953178 -0.02948252 -0.0294305 -0.02937183 -0.0293066 -0.02923719 -0.02916457 -0.02909763
 -0.02903651 -0.02898739 -0.02894757 -0.02891346 -0.02888098 -0.02884006 -0.02879041 -0.02872584 -0.02865245 -0.02857322
 -0.02849427 -0.02842106 -0.02835407 -0.02829539 -0.02824173 -0.02819259 -0.02814506 -0.02809844 -0.02805141 -0.02800385
 -0.02795408 -0.02790205 -0.02784457 -0.02778155 -0.0277109 -0.02763297 -0.02754952 -0.02746108 -0.02737128 -0.02727972
 -0.02718733 -0.0270928 -0.02699361 -0.0268901 -0.0267807 -0.02666902 -0.02655742 -0.02644987 -0.02635046 -0.02625812
 -0.0261744 -0.02609342 -0.02601386 -0.02593099 -0.02584335 -0.02575059 -0.02565239 -0.02555003 -0.02544359 -0.0253334
 -0.02521956 -0.02510395 -0.02498684 -0.02487129 -0.0247571 -0.02464508 -0.02453452 -0.02442345 -0.02431204 -0.02419956
 -0.02408683 -0.02397525 -0.02386378 -0.02375253 -0.02363872 -0.02351983 -0.0233967 -0.02326822 -0.02313902 -0.0230107
 -0.0228845 -0.02276161 -0.02263779 -0.02251266 -0.02238302 -0.02224846 -0.02211152 -0.02197246 -0.02183732 -0.02170614
 -0.02158218 -0.02146448 -0.02135052 -0.021239 -0.02112472 -0.02100731 -0.02088317 -0.02075355 -0.02061863 -0.02047976
 -0.02033803 -0.02019539 -0.02005275 -0.01991383 -0.01978033 -0.01965555 -0.01954182 -0.01943625 -0.01933974 -0.01924238
 -0.01914322 -0.01903266 -0.01890964 -0.01877323 -0.01862362 -0.01846969 -0.01831237 -0.01816408 -0.0180246 -0.01790036
 -0.01778874 -0.01768535 -0.01758773 -0.01748806 -0.01738698 -0.0172819 -0.01717462 -0.01706683 -0.01695724 -0.01684633
 -0.01672995 -0.01660584 -0.01647318 -0.01633022 -0.016182 -0.01602886 -0.0158774 -0.01572873 -0.01558534 -0.01544762
 -0.01531443 -0.01518574 -0.01506074 -0.01493942 -0.01482164 -0.01470719 -0.01459491 -0.01448455 -0.01437455 -0.01426514
 -0.01415631 -0.0140476 -0.01393878 -0.01382818 -0.01371379 -0.01359531 -0.01347082 -0.01334436 -0.01321695 -0.01309335
 -0.01297616 -0.01286423 -0.01275846 -0.01265285 -0.01254665 -0.01243588 -0.01231999 -0.01220019 -0.01207654 -0.01195233
 -0.01182758 -0.01170388 -0.01158107 -0.01145905 -0.011338 -0.0112184 -0.01110059 -0.01098597 -0.01087374 -0.01076368
 -0.01065404 -0.01054281 -0.01042925 -0.01031165 -0.01019171 -0.01006959 -0.009947707 -0.009826722 -0.009708975 -0.009594991
 -0.009486917 -0.00938537 -0.009289602 -0.009199839 -0.00911078 -0.009022155 -0.008928949 -0.008831339 -0.008729507 -0.00862388
 -0.008516974 -0.008408582 -0.008299121 -0.008188714 -0.0080775 -0.007966506 -0.00785761 -0.007750792 -0.007647183 -0.007545087
 -0.007443475 -0.007341596 -0.007238621 -0.007135029 -0.007030881 -0.006926283 -0.006821196 -0.00671607 -0.006610815 -0.006507228
 -0.006405556 -0.006305545 -0.006207151 -0.006105846 -0.006001481 -0.005890427 -0.005773565 -0.005653583 -0.005531904 -0.005415031
 -0.005302953 -0.005199246 -0.005102252 -0.005011015 -0.004923936 -0.004838553 -0.004755104 -0.004672997 -0.004592723 -0.004514935
 -0.004437836 -0.00436137 -0.004282116 -0.004198957 -0.004111428 -0.004018797 -0.003925486 -0.00383172 -0.003742691 -0.003658668
 -0.003581045 -0.003509557 -0.003441659 -0.003376677 -0.003309451 -0.003239735 -0.003163251 -0.00308176 -0.002996621 -0.002910901
 -0.002830927 -0.002756167 -0.002690014 -0.002626329 -0.002561538 -0.002491016 -0.002409711 -0.002321965 -0.002227067 -0.002134407
 -0.002046518 -0.001967335 -0.001898481 -0.00183624 -0.001780563 -0.001726069 -0.001672466 -0.001617408 -0.001560913 -0.001502636
 -0.001442638 -0.001380948 -0.001317802 -0.001253759 -0.001189648 -0.001127349 -0.001068306 -0.001015697 -0.0009703819 -0.0009351737
 -0.0009083705 -0.0008904352 -0.0008768115 -0.0008656403 -0.000852099 -0.0008337884 -0.0008090114 -0.000776643 -0.000737762 -0.0006923124
 -0.0006417805 -0.0005862064 -0.0005277182 -0.0004664235 -0.00040888 -0.0003555995 -0.0003154642 -0.0002881218 -0.0002768451 -0.0002791609
 -0.0002881263 -0.0003011907 -0.000307976 -0.0003094132 -0.0003015809 -0.0002884477 -0.0002734773 -0.0002584981 -0.0002471631 -0.0002365105
 -0.0002258808 -0.0002127471 -0.0001945358 -0.0001765285 -0.0001587272 -0.0001503539 -0.0001535841 -0.0001695064 -0.0001992147 -0.0002316937
 -0.0002663751 -0.0002922913 -0.0003096178 -0.0003189481 -0.0003215389 -0.0003259229 -0.0003321668 -0.0003453021 -0.0003639896 -0.0003871675
 -0.0004143893 -0.0004443754 -0.000477196 -0.0005131318 -0.0005501733 -0.0005873157 -0.0006212994 -0.0006492051 -0.0006722324 -0.0006890837
 -0.0007061723 -0.0007250172 -0.0007496501 -0.0007816872 -0.0008177226 -0.0008577307 -0.0008965406 -0.0009338018 -0.0009695429 -0.001003945
 -0.00104024 -0.001078238 -0.001118208 -0.001159768 -0.001201174 -0.001243173 -0.001286691 -0.001332685 -0.001383901 -0.00143901
 -0.001498152 -0.001558019 -0.001615767 -0.001669626 -0.001717015 -0.001760243 -0.001798968 -0.001838151 -0.00187888 -0.001925412
 -0.001978979 -0.002039662 -0.002107952 -0.002179006 -0.002252581 -0.002322976 -0.00239011 -0.002452449 -0.00251021 -0.002564434
 -0.002614639 -0.002659563 -0.002698374 -0.002727401 -0.002748371 -0.002761406 -0.002771671 -0.0027853 -0.002806765 -0.002843049
 -0.002892643 -0.002958161 -0.0030316 -0.003110984 -0.003187767 -0.003258727 -0.003321566 -0.003374646 -0.003422803 -0.003466143
 -0.003511627 -0.003559759 -0.003612699 -0.003670309 -0.003729612 -0.003790516 -0.003850734 -0.003910971 -0.003973052 -0.004037282
 -0.00410601 -0.004177666 -0.004250691 -0.004323185 -0.004391754 -0.004456426 -0.004515607 -0.004571313 -0.004624344 -0.004676083
 -0.004727233 -0.0047787 -0.004830431 -0.004885184 -0.004943153 -0.005008495 -0.005081893 -0.005164047 -0.005255169 -0.005350306
 -0.005449103 -0.005544674 -0.005636943 -0.005722002 -0.00580034 -0.005871691 -0.005936935 -0.005998176 -0.006056251 -0.006113628
 -0.00617084 -0.006229554 -0.006289975 -0.006352627 -0.006418228 -0.006487202 -0.006560594 -0.006639578 -0.006722055 -0.006808652
 -0.006892371 -0.006971993 -0.007042442 -0.007102204 -0.007156916 -0.007206629 -0.007264794 -0.007331859 -0.007415711 -0.007515085
 -0.007624243 -0.007741032 -0.007852865 -0.007959461 -0.008052847 -0.008135601 -0.008208469 -0.008274869 -0.008339911 -0.008404866
 -0.008473307 -0.008543343 -0.008614994 -0.00868581 -0.00875436 -0.008820673 -0.008883936 -0.008947305 -0.009011117 -0.009078696
 -0.009150608 -0.009227687 -0.00931011 -0.009395745 -0.009484438 -0.009572905 -0.009661142 -0.009747419 -0.00983229 -0.009917313
 -0.01000291 -0.01009145 -0.01018216 -0.01027506 -0.01036831 -0.0104596 -0.01054725 -0.01062872 -0.01070374 -0.01077078
 -0.01083231 -0.01088815 -0.01094391 -0.01100088 -0.01106472 -0.01113722 -0.01121891 -0.01131062 -0.01140657 -0.01150647
 -0.01160393 -0.01169869 -0.01178736 -0.01186999 -0.01194543 -0.0120141 -0.01207676 -0.01213475 -0.01219202 -0.01225034
 -0.01231572 -0.01238726 -0.01246696 -0.01255127 -0.01263739 -0.01272313 -0.01280545 -0.01288624 -0.01296559 -0.01304538
 -0.01312692 -0.0132077 -0.01328768 -0.01336299 -0.0134328 -0.01349795 -0.01355833 -0.01361825 -0.01367787 -0.01373887
 -0.01380093 -0.01386157 -0.01392073 -0.01397651 -0.01402988 -0.01408269 -0.01413596 -0.01419306 -0.01425352 -0.01431861
 -0.01438615 -0.01445475 -0.01452186 -0.01458505 -0.01464393 -0.01469702 -0.01474747 -0.01479551 -0.01484595 -0.01490003
 -0.01495976 -0.01502605 -0.01509518 -0.01516714 -0.01523464 -0.01529737 -0.01534976 -0.01539203 -0.01542369 -0.01544576
 -0.01546252 -0.01547543 -0.01549118 -0.01551052 -0.01553864 -0.01557448 -0.01561948 -0.01567023 -0.01572413 -0.01577776
 -0.01582743 -0.01587333 -0.01591384 -0.01595311 -0.015992 -0.01603429 -0.0160815 -0.01613241 -0.01618748 -0.01624154
 -0.0162942 -0.01634206 -0.01638504 -0.0164244 -0.01646029 -0.01649513 -0.01652857 -0.01656033 -0.01658988 -0.01661501
 -0.01663657 -0.01665482 -0.01667192 -0.01669124 -0.01671407 -0.01674338 -0.01677825 -0.01681943 -0.01686407 -0.0169113
 -0.0169578 -0.01700211 -0.01704307 -0.01707971 -0.01711453 -0.01714746 -0.0171833 -0.0172225 -0.01726694 -0.01731662
 -0.01736822 -0.01742136 -0.01747081 -0.01751667 -0.01755639 -0.01759081 -0.01762098 -0.01764807 -0.01767503 -0.01770263
 -0.01773358 -0.01776729 -0.01780463 -0.01784331 -0.01788219 -0.01791883 -0.01795145 -0.0179798 -0.01800313 -0.018023
 -0.01803946 -0.01805468 -0.01806886 -0.01808443 -0.0181016 -0.01812258 -0.01814747 -0.01817694 -0.01821082 -0.01824772
 -0.01828732 -0.01832724 -0.01836717 -0.01840486 -0.01844004 -0.0184709 -0.01849766 -0.01851937 -0.0185378 -0.01855419
 -0.01857091 -0.01859063 -0.01861291 -0.01863916 -0.01866487 -0.01868901 -0.01870732 -0.01871783 -0.01872283 -0.01872182
 -0.01872192 -0.01872377 -0.01873175 -0.01874606 -0.01876375 -0.01878443 -0.01880223 -0.01881727 -0.01882681 -0.01883172
 -0.01883343 -0.0188329 -0.01883289 -0.01883422 -0.01883962 -0.0188488 -0.01886301 -0.01887999 -0.01889895 -0.01891647
 -0.01893038 -0.01893931 -0.018942 -0.01893938 -0.01893155 -0.01891884 -0.01890155 -0.01887777 -0.01884723 -0.01881021
 -0.01876673 -0.01872215 -0.01867684 -0.01863742 -0.01860334 -0.01857552 -0.01855177 -0.01852533 -0.01849393 -0.01844828
 -0.01838928 -0.01831295 -0.01822463 -0.01812786 -0.01802967 -0.01793727 -0.01785264 -0.01778034 -0.01771396 -0.01765341
 -0.01758783 -0.01751443 -0.01742696 -0.01732333 -0.01720597 -0.01707442 -0.0169383 -0.01679811 -0.01666433 -0.01653727
 -0.01642342 -0.01632223 -0.01623412 -0.01615814 -0.01609097 -0.01603255 -0.01598057 -0.01593668 -0.0159027 -0.01587975
 -0.01587097 -0.01587323 -0.01588675 -0.01590321 -0.01591889 -0.01592562 -0.01591902 -0.01589706 -0.0158578 -0.01580473
 -0.01573808 -0.01566103 -0.01557401 -0.01547773 -0.01537223 -0.01525928 -0.01513924 -0.01501738 -0.01489424 -0.01477595
 -0.01466257 -0.0145577 -0.01446083 -0.01437278 -0.01429234 -0.01421832 -0.01414857 -0.01408025 -0.0140116 -0.0139394
 -0.01386584 -0.01378956 -0.01371888 -0.01365454 -0.01361151 -0.0135917 -0.01361614 -0.01368784 -0.01382656 -0.01403543
 -0.01431658 -0.01467056 -0.01506977 -0.01551134 -0.01594777 -0.01637673 -0.01675831 -0.01709516 -0.01737453 -0.01760326
 -0.01779148 -0.01794504 -0.01807879 -0.0181948 -0.01830113 -0.01839835 -0.01848902 -0.0185746 -0.01865643 -0.01873579
 -0.01881374 -0.01888974 -0.01896405 -0.01903489 -0.01910208 -0.01916382 -0.01921995 -0.0192688 -0.01931027 -0.01934329
 -0.01936795 -0.01938553 -0.01939617 -0.01940174 -0.01940189 -0.01939633 -0.01938444 -0.01936387 -0.01933569 -0.01929992
 -0.01925997 -0.01921964 -0.01918256 -0.01915347 -0.01913293 -0.01912349 -0.01912129 -0.01912622 -0.01913146 -0.01913572
 -0.01913154 -0.01911754 -0.01908821 -0.01904277 -0.01897859 -0.01889544 -0.01879276 -0.01867071 -0.01853081 -0.0183747
 -0.01821229 -0.01804894 -0.01790936 -0.01780158 -0.01775989 -0.01778626 -0.01790402 -0.01810015 -0.01837237 -0.01869507
 -0.01904761 -0.01940594 -0.01974956 -0.0200682 -0.02035195 -0.02060257 -0.0208184 -0.021004 -0.02115995 -0.02128934
 -0.02139237 -0.02147331 -0.02153235 -0.0215766 -0.0216065 -0.0216303 -0.02164822 -0.02166593 -0.02168298 -0.02170082
 -0.02171854 -0.02173425 -0.02174788 -0.02175784 -0.02176588 -0.02177354 -0.02178244 -0.02179533 -0.02181056 -0.02182876
 -0.02184516 -0.02185781 -0.02186394 -0.02186155 -0.02185382 -0.02184044 -0.02182831 -0.02181828 -0.02181428 -0.02181675
 -0.0218235 -0.02183424 -0.02184309 -0.02184993 -0.02185076 -0.02184632 -0.02183745 -0.02182521 -0.02181308 -0.0218012
 -0.02179167 -0.02178351 -0.02177621 -0.02176927 -0.02176175 -0.02175445 -0.0217477 -0.02174188 -0.02173767 -0.02173342
 -0.02172878 -0.02172252 -0.02171407 -0.02170457 -0.02169397 -0.02168455 -0.02167649 -0.02166992 -0.02166477 -0.02165942
 -0.02165398 -0.02164862 -0.02164371 -0.02164108 -0.02164046 -0.02164237 -0.02164574 -0.0216487 -0.0216508 -0.02165037
 -0.02164825 -0.02164461 -0.02164019 -0.02163577 -0.02163084 -0.02162547 -0.0216187 -0.02161012 -0.0215999 -0.02158788
 -0.02157534 -0.02156241 -0.02155038 -0.02153938 -0.02152938 -0.02152033 -0.02151059 -0.02150008 -0.02148702 -0.02147187
 -0.02145541 -0.02143871 -0.0214253 -0.02141564 -0.02141291 -0.02141537 -0.02142249 -0.02143115 -0.02143824 -0.02144165
 -0.02143857 -0.02143002 -0.02141541 -0.02139759 -0.02137725 -0.02135663 -0.02133644 -0.02131694 -0.02129832 -0.0212799
 -0.02126162 -0.02124348 -0.0212255 -0.02120847 -0.0211925 -0.02117875 -0.02116732 -0.02115942 -0.0211548 -0.02115369
 -0.02115518 -0.02115778 -0.02116012 -0.02115955 -0.02115564 -0.02114646 -0.02113385 -0.02111806 -0.02110201 -0.02108722
 -0.02107502 -0.02106656 -0.02106015 -0.02105585 -0.02105104 -0.02104535 -0.02103755 -0.02102745 -0.02101571 -0.02100238
 -0.02098868 -0.02097466 -0.02096118 -0.02094815 -0.0209357 -0.02092362 -0.02091138 -0.0208987 -0.02088457 -0.02086933
 -0.02085263 -0.02083604 -0.02082076 -0.0208085 -0.0208014 -0.02079818 -0.0207995 -0.02080104 -0.02080163 -0.02079797
 -0.0207887 -0.02077496 -0.02075647 -0.02073703 -0.02071693 -0.02069849 -0.02068178 -0.02066701 -0.02065406 -0.02064209
 -0.0206309 -0.0206192 -0.02060685 -0.02059248 -0.02057645 -0.02055867 -0.02053992 -0.02052125 -0.02050329 -0.02048735
 -0.02047285 -0.02045993 -0.02044754 -0.0204352 -0.02042227 -0.02040828 -0.0203938 -0.02037871 -0.02036463 -0.02035176
 -0.02034166 -0.02033458 -0.02032972 -0.02032702 -0.02032406 -0.02032076 -0.02031532 -0.0203079 -0.02029836 -0.02028672
 -0.02027293 -0.02025689 -0.02023803 -0.0202172 -0.02019505 -0.02017328 -0.02015389 -0.02013792 -0.02012722 -0.02012036
 -0.02011752 -0.02011567 -0.02011384 -0.02011004 -0.02010341 -0.02009437 -0.02008278 -0.02007006 -0.02005631 -0.02004244
 -0.02002846 -0.02001494 -0.02000194 -0.01999055 -0.01998077 -0.01997341 -0.01996787 -0.01996269 -0.01995703 -0.01994798
 -0.01993602 -0.01992017 -0.01990236 -0.01988425 -0.01986733 -0.01985376 -0.01984235 -0.01983344 -0.01982437 -0.01981413
 -0.01980166 -0.01978616 -0.01976959 -0.01975194 -0.01973634 -0.01972314 -0.01971302 -0.01970599 -0.01969916 -0.01969236
 -0.01968272 -0.01967066 -0.01965683 -0.01964202 -0.01962959 -0.01961912 -0.01961165 -0.01960549 -0.01959831 -0.01958931
 -0.01957609 -0.01956067 -0.0195435 -0.01952729 -0.01951401 -0.01950335 -0.01949613 -0.01948939 -0.01948273 -0.01947322
 -0.01946023 -0.01944307 -0.01942151 -0.01939697 -0.01936952 -0.01934214 -0.01931495 -0.01929062 -0.01926886 -0.0192495
 -0.01923222 -0.01921556 -0.01920001 -0.0191859 -0.01917405 -0.0191663 -0.01916197 -0.01916149 -0.01916245 -0.01916311
 -0.01916207 -0.01915789 -0.01915117 -0.01914186 -0.01913034 -0.01911691 -0.01910037 -0.01908049 -0.01905699 -0.01902966
 -0.01900106 -0.0189713 -0.01894416 -0.01891973 -0.01890024 -0.01888543 -0.01887495 -0.01886828 -0.01886347 -0.01886025
 -0.01885695 -0.01885364 -0.01884981 -0.01884519 -0.01883954 -0.01883201 -0.01882175 -0.01880862 -0.01879203 -0.01877316
 -0.01875235 -0.01873039 -0.01870768 -0.01868391 -0.01865897 -0.01863349 -0.01860732 -0.01858404 -0.01856382 -0.01854996
 -0.01854227 -0.01853941 -0.0185407 -0.01854133 -0.01854109 -0.01853635 -0.01852795 -0.01851598 -0.01850159 -0.01848684
 -0.01847209 -0.0184588 -0.01844636 -0.01843489 -0.01842345 -0.01841158 -0.01839867 -0.01838429 -0.01836852 -0.01835116
 -0.01833302 -0.01831417 -0.01829555 -0.01827728 -0.01825935 -0.01824175 -0.01822326 -0.01820387 -0.01818319 -0.01816156
 -0.01814092 -0.01812159 -0.01810606 -0.01809374 -0.01808471 -0.01807753 -0.01806976 -0.01806059 -0.01804765 -0.01803215
 -0.01801393 -0.01799546 -0.01797819 -0.01796333 -0.01795211 -0.01794319 -0.01793674 -0.01793005 -0.01792265 -0.01791279
 -0.01790015 -0.01788488 -0.01786697 -0.01784746 -0.01782644 -0.01780516 -0.01778373 -0.01776363 -0.01774483 -0.01772822
 -0.01771338 -0.01769982 -0.01768685 -0.01767294 -0.01765798 -0.01764099 -0.01762287 -0.0176041 -0.01758526 -0.01756711
 -0.01754884 -0.01753033 -0.01751074 -0.01748954 -0.01746773 -0.01744526 -0.01742412 -0.0174046 -0.01738734 -0.01737243
 -0.01735878 -0.01734632 -0.01733389 -0.01732161 -0.01730958 -0.01729792 -0.01728725 -0.01727723 -0.01726744 -0.01725722
 -0.01724522 -0.01723108 -0.01721371 -0.01719332 -0.01716954 -0.0171433 -0.01711495 -0.01708551 -0.01705552 -0.0170254
 -0.01699544 -0.01696546 -0.01693541 -0.01690548 -0.01687552 -0.01684752 -0.01682156 -0.01680048 -0.01678434 -0.01677404
 -0.01676918 -0.01676745 -0.0167683 -0.01676815 -0.01676695 -0.01676267 -0.01675591 -0.0167469 -0.01673604 -0.01672409
 -0.01671093 -0.01669676 -0.01668127 -0.016664 -0.0166459 -0.01662676 -0.0166093 -0.01659409 -0.01658376 -0.01657922
 -0.01657954 -0.01658513 -0.01659023 -0.01659453 -0.01659171 -0.01658175 -0.01656486 -0.01654197 -0.01652023 -0.01649996
 -0.01648718 -0.01647981 -0.01647569 -0.016472 -0.01646175 -0.01644548 -0.01641983 -0.01638967 -0.01635822 -0.01632891
 -0.01630591 -0.01628652 -0.01627109 -0.01625475 -0.01623573 -0.01621323 -0.01618639 -0.01615842 -0.01612953 -0.01610304
 -0.01607921 -0.01605901 -0.01604248 -0.01603013 -0.01602199 -0.01601904 -0.01602057 -0.01602482 -0.01602967 -0.01602824
 -0.01601963 -0.01599773 -0.0159659 -0.0159251 -0.01588108 -0.01583971 -0.01580368 -0.01577738 -0.01575783 -0.01574558
 -0.01573454 -0.01572314 -0.01570673 -0.01568357 -0.01565505 -0.01562061 -0.01558747 -0.01555609 -0.01553306 -0.01551844
 -0.01551129 -0.01551086 -0.01551057 -0.01551009 -0.01550414 -0.01549358 -0.01547811 -0.01545874 -0.01543739 -0.01541441
 -0.01539106 -0.01536745 -0.01534404 -0.01532114 -0.01529913 -0.0152781 -0.01525838 -0.01523914 -0.01522025 -0.01520087
 -0.01518065 -0.01516005 -0.01513897 -0.01511909 -0.01510052 -0.015085 -0.01507255 -0.01506322 -0.01505681 -0.01505167
 -0.01504756 -0.01504246 -0.01503644 -0.01502866 -0.01501942 -0.01500892 -0.01499743 -0.01498552 -0.01497304 -0.0149601
 -0.01494636 -0.01493163 -0.01491569 -0.01489827 -0.01487989 -0.01486061 -0.01484111 -0.01482154 -0.01480247 -0.01478398
 -0.0147668 -0.01475099 -0.01473743 -0.01472613 -0.01471646 -0.01470818 -0.01469874 -0.014688 -0.01467359 -0.01465612
 -0.01463603 -0.01461424 -0.01459301 -0.01457229 -0.01455319 -0.01453472 -0.01451621 -0.01449711 -0.01447661 -0.01445529
 -0.01443307 -0.01441101 -0.01438944 -0.01436903 -0.01434999 -0.0143326 -0.01431698 -0.01430266 -0.01428963 -0.014277
 -0.01426474 -0.01425265 -0.01424072 -0.01422895 -0.01421729 -0.01420558 -0.01419386 -0.01418206 -0.01417062 -0.01416047
 -0.01415167 -0.01414506 -0.01413958 -0.01413447 -0.01412885 -0.01412151 -0.01411335 -0.01410456 -0.01409566 -0.01408749
 -0.01407723 -0.01406453 -0.01404649 -0.01402224 -0.01399408 -0.01396195 -0.01393214 -0.01390492 -0.01388309 -0.01386623
 -0.01385121 -0.01383773 -0.01382233 -0.01380576 -0.01378858 -0.01377166 -0.0137575 -0.01374546 -0.01373598 -0.01372741
 -0.013718 -0.01370738 -0.01369426 -0.01368034 -0.01366604 -0.01365284 -0.01364159 -0.01363168 -0.01362327 -0.01361466
 -0.0136055 -0.01359598 -0.01358602 -0.01357741 -0.01357021 -0.01356443 -0.01355977 -0.01355293 -0.01354369 -0.01352872
 -0.01350887 -0.01348467 -0.01345787 -0.01343269 -0.01340991 -0.01339317 -0.01338082 -0.01337294 -0.01336642 -0.01335888
 -0.01334888 -0.01333449 -0.01331773 -0.01329859 -0.01328028 -0.01326375 -0.01324964 -0.0132384 -0.01322814 -0.01321874
 -0.01320873 -0.01319804 -0.01318698 -0.0131756 -0.01316448 -0.01315343 -0.01314171 -0.01312912 -0.01311445 -0.0130981
 -0.01308019 -0.01306164 -0.01304394 -0.01302757 -0.01301408 -0.01300206 -0.0129914 -0.01297949 -0.01296486 -0.01294638
 -0.01292282 -0.01289633 -0.01286687 -0.01283813 -0.0128107 -0.01278635 -0.0127654 -0.01274727 -0.01273195 -0.01271882
 -0.01270788 -0.01269928 -0.0126929 -0.01268841 -0.01268532 -0.01268187 -0.01267763 -0.01267061 -0.01266092 -0.0126478
 -0.01263161 -0.01261238 -0.01259057 -0.01256615 -0.01254078 -0.01251487 -0.01249117 -0.01247082 -0.01245514 -0.01244523
 -0.0124382 -0.01243416 -0.01242744 -0.01241747 -0.01240146 -0.01237928 -0.01235437 -0.01232712 -0.01230353 -0.01228345
 -0.01226949 -0.01226057 -0.01225442 -0.01224998 -0.01224347 -0.01223507 -0.01222308 -0.01220883 -0.01219313 -0.01217722
 -0.01216253 -0.01214903 -0.01213739 -0.01212626 -0.01211543 -0.01210339 -0.01208963 -0.01207374 -0.01205546 -0.01203565
 -0.01201435 -0.0119925 -0.01197014 -0.01194833 -0.01192715 -0.01190775 -0.01189024 -0.01187589 -0.01186449 -0.01185619
 -0.01185045 -0.01184617 -0.01184272 -0.01183852 -0.01183332 -0.0118262 -0.01181726 -0.01180624 -0.01179348 -0.01177899
 -0.01176343 -0.01174706 -0.01173031 -0.01171338 -0.01169631 -0.01167918 -0.01166174 -0.01164397 -0.01162612 -0.0116082
 -0.01159068 -0.01157357 -0.01155709 -0.01154112 -0.01152498 -0.01150863 -0.01149157 -0.01147401 -0.01145618 -0.01143839
 -0.01142132 -0.01140484 -0.01138929 -0.01137373 -0.01135771 -0.01133991 -0.01131928 -0.01129582 -0.01126866 -0.01124085
 -0.0112126 -0.01118858 -0.0111697 -0.01115827 -0.01115496 -0.01115661 -0.01116309 -0.01116779 -0.01117045 -0.01116606
 -0.01115511 -0.01113789 -0.01111534 -0.01109103 -0.01106549 -0.011042 -0.01102017 -0.01100089 -0.01098335 -0.0109669
 -0.01095091 -0.01093447 -0.01091791 -0.01090113 -0.0108845 -0.01086828 -0.01085199 -0.01083566 -0.01081824 -0.01079943
 -0.01077964 -0.01075871 -0.01073921 -0.0107213 -0.01070696 -0.01069607 -0.01068696 -0.01067921 -0.010669 -0.0106564
 -0.01063951 -0.01061919 -0.01059672 -0.01057276 -0.01054908 -0.01052577 -0.01050351 -0.01048249 -0.01046315 -0.01044532
 -0.01042934 -0.0104139 -0.01039877 -0.01038204 -0.01036275 -0.01034175 -0.01031861 -0.01029736 -0.01027838 -0.01026499
 -0.01025748 -0.01025422 -0.01025491 -0.01025424 -0.01025201 -0.01024394 -0.01023063 -0.01021195 -0.0101889 -0.01016384
 -0.01013751 -0.01011245 -0.01008855 -0.01006685 -0.01004647 -0.01002712 -0.01000765 -0.009987172 -0.009965593 -0.009942289
 -0.009919102 -0.009896383 -0.009875735 -0.009857798 -0.009841373 -0.009826593 -0.00980998 -0.009791305 -0.009768646 -0.009742088
 -0.009713351 -0.009682727 -0.009653158 -0.009624628 -0.009598653 -0.009575008 -0.009553729 -0.009534975 -0.009518962 -0.009506129
 -0.009497418 -0.009492187 -0.009490726 -0.0094907 -0.009491064 -0.009489197 -0.009483527 -0.009473616 -0.009458597 -0.009440954
 -0.009420947 -0.009400949 -0.009381406 -0.009362077 -0.009343012 -0.009322255 -0.009299737 -0.009274193 -0.009245808 -0.009215301
 -0.009183071 -0.00915115 -0.009119784 -0.00909078 -0.009063876 -0.009039595 -0.009017149 -0.008995768 -0.008974759 -0.008953126
 -0.008930881 -0.008907689 -0.008883934 -0.00885967 -0.008835331 -0.008811011 -0.008787184 -0.008763889 -0.008741869 -0.008721194
 -0.008702633 -0.008686259 -0.008672067 -0.008659991 -0.008648579 -0.008637638 -0.008625006 -0.008610633 -0.008592936 -0.008572417
 -0.008549519 -0.008525042 -0.008500765 -0.008477041 -0.008455371 -0.008434894 -0.008415643 -0.008395873 -0.008374558 -0.008350304
 -0.008321938 -0.008290133 -0.008254456 -0.008217683 -0.00818019 -0.008144567 -0.008111265 -0.008080903 -0.0080536 -0.008028294
 -0.008004924 -0.007982271 -0.007960306 -0.007938335 -0.007916293 -0.007893473 -0.00786992 -0.00784517 -0.007819845 -0.007794805
 -0.00777087 -0.007749797 -0.007731182 -0.007715943 -0.007701349 -0.007686106 -0.00766756 -0.007643778 -0.007615164 -0.007581012
 -0.007544294 -0.007505446 -0.007466868 -0.007428991 -0.007392334 -0.007356935 -0.007323901 -0.007293292 -0.007266518 -0.007243298
 -0.007222079 -0.007202089 -0.007178643 -0.007151891 -0.007119265 -0.007082663 -0.007044479 -0.007006665 -0.006973344 -0.006944299
 -0.006921383 -0.006902016 -0.006885327 -0.006868329 -0.006849461 -0.006826935 -0.006799705 -0.006767835 -0.006730889 -0.00669101
 -0.006648284 -0.006605649 -0.006563329 -0.006523488 -0.006486193 -0.006451743 -0.006419968 -0.006389437 -0.006360088 -0.006330863
 -0.006301897 -0.006273029 -0.006244434 -0.006216501 -0.00618903 -0.006162053 -0.00613492 -0.006107224 -0.006077794 -0.006045911
 -0.006010152 -0.005969506 -0.005923877 -0.005872591 -0.005817991 -0.005760239 -0.005702469 -0.005645137 -0.005590104 -0.005537594
 -0.005487754 -0.005440586 -0.005395802 -0.005353245 -0.005311462 -0.005270074 -0.005226518 -0.005180452 -0.005129511 -0.005073531
 -0.00501111 -0.004942046 -0.004865486 -0.004781289 -0.004688809 -0.004588664 -0.004480757 -0.004366747 -0.004247297 -0.004123896
 -0.003997246 -0.003867718 -0.003735371 -0.003600981 -0.003464228 -0.003329642 -0.003197389 -0.003074478 -0.002961227 -0.002861806
 -0.002776041 -0.002703728 -0.002644614 -0.002597424 -0.002562014 -0.002537864 -0.002523604 -0.002517079 -0.002514587 -0.0025106
 -0.002500148 -0.002475555 -0.002435799 -0.002376029 -0.002302991 -0.002217711 -0.002129598 -0.002042418 -0.001959941 -0.001884523
 -0.001812169 -0.001743076 -0.001669686 -0.001591353 -0.001503338 -0.001405438 -0.001297588 -0.00118 -0.001054788 -0.0009221928
 -0.0007845567 -0.0006419454 -0.000495924 -0.0003461406 -0.0001925504 -3.492543E-05 0.000127275 0.0002936498 0.0004640141 0.0006379101
 0.0008144022 0.0009951425 0.001179899 0.00137321 0.001576544 0.001793094 0.002024644 0.002268031 0.00252372 0.002782962
 0.003045152 0.003302036 0.003553201 0.003794992 0.004027708 0.004253075 0.004472003 0.004690261 0.00490841 0.005132198
 0.005359672 0.005589899 0.005819466 0.00604169 0.006257344 0.006463575 0.006665498 0.006866273 0.007068709 0.007276309
 0.007485243 0.007695545 0.00790102 0.008099898 0.008290192 0.008471029 0.008644594 0.008810966 0.008972449 0.009129166
 0.009282793 0.00943323 0.009580088 0.009722756 0.00985752 0.009984116 0.01009893 0.01020379 0.01030054 0.01039215
 0.01048463 0.01057838 0.01067716 0.01077732 0.01087716 0.01097434 0.0110665 0.01115531 0.01124125 0.01132417
 0.01140472 0.01147916 0.01154701 0.01160547 0.01165405 0.01169415 0.01172584 0.01175298 0.01177587 0.01179901
 0.0118224 0.0118487 0.01187703 0.01190579 0.01193389 0.01195772 0.01197764 0.01199192 0.0120032 0.01201324
 0.01202578 0.01204419 0.01207099 0.01210867 0.01215727 0.01221769 0.01228791 0.0123681 0.01245369 0.01254422
 0.01263435 0.01272337 0.01280989 0.01289378 0.01297976 0.01306825 0.01316601 0.01327296 0.01339231 0.013523
 0.01366318 0.0138117 0.01396481 0.01412221 0.01428168 0.01444344 0.01460707 0.01477241 0.01493925 0.01510729
 0.01527649 0.0154461 0.01561606 0.01578486 0.01595229 0.01611632 0.01627634 0.016433 0.01658605 0.0167396
 0.01689388 0.01705263 0.01721561 0.0173805 0.01754602 0.01770345 0.01785104 0.01797769 0.01808256 0.01815722
 0.01820373 0.01822065 0.01821323 0.01818621 0.01814593 0.01809845 0.0180494 0.01800345 0.01796353 0.01793224
 0.01790846 0.01789235 0.01788266 0.01787878 0.01788316 0.01789585 0.01792067 0.01795791 0.0180055 0.01806303
 0.0181234 0.01818661 0.01824902 0.01831175 0.01837679 0.01844555 0.01852264 0.01860834 0.01870635 0.01881314
 0.01892825 0.01904172 0.01914749 0.01923094 0.01928161 0.01929271 0.01925618 0.01918324 0.01907361 0.01894592
 0.01880306 0.0186592 0.01851622 0.01838188 0.01825681 0.01814243 0.01803867 0.01794391 0.01785832 0.01778236
 0.01771627 0.01766178 0.01761768 0.01758251 0.01755327 0.01752418 0.0174927 0.01745317 0.01740521 0.01734617
 0.01727811 0.01720104 0.01711841 0.01703154 0.01694297 0.01685386 0.0167642 0.01667401 0.01658403 0.016494
 0.01640854 0.0163279 0.01625587 0.01619243 0.01613694 0.01608896 0.01604522 0.01600526 0.01596534 0.0159257
 0.01588432 0.01584334 0.01580481 0.01577267 0.01575246 0.01574739 0.01576273 0.01579792 0.01585481 0.01592957
 0.01602104 0.01612658 0.01624482 0.01637662 0.01652154 0.01668329 0.01686205 0.01706286 0.01728607 0.01753636
 0.01781356 0.01811504 0.01843859 0.0187675 0.01909882 0.01941067 0.01970386 0.01996861 0.02020891 0.02042751
 0.02062787 0.02081538 0.02099252 0.02116234 0.02132922 0.02149606 0.02166758 0.02184761 0.02203349 0.0222268
 0.02241641 0.02260051 0.02277115 0.02292675 0.02306831 0.02319575 0.02331152 0.0234156 0.02350716 0.0235861
 0.02365111 0.02370281 0.02374313 0.02377277 0.02379523 0.0238093 0.02381521 0.02380949 0.02378785 0.02374745
 0.02368358 0.02359699 0.02348653 0.02335428 0.02320096 0.02302745 0.02283401 0.02262173 0.02239072 0.02214266
 0.02187812 0.02159471 0.0212925 0.02096267 0.02060477 0.02021011 0.01977934 0.01931324 0.01881368 0.01828962
 0.01774155 0.01717592 0.01659125 0.0159872 0.01536382 0.01471989 0.01405907 0.01338339 0.01269847 0.0120079
 0.01131707 0.01062868 0.009947653 0.009275934 0.008616482 0.00797044 0.007337402 0.006717374 0.006110239 0.00551578
 0.004939949 0.00438318 0.003855048 0.003355642 0.002890355 0.002458008 0.002056586 0.001684151 0.001334181 0.001005373
 0.0006919617 0.000393975 0.0001093559 -0.0001622701 -0.0004212548 -0.0006700651 -0.0009100052 -0.001144137 -0.001374555 -0.001601282
 -0.001825372 -0.002043147 -0.002254214 -0.002454694 -0.002643942 -0.002820633 -0.002984582 -0.003136088 -0.003275169 -0.003402419
 -0.003517804 -0.003621265 -0.003712753 -0.003791949 -0.003858982 -0.003914022 -0.003957325 -0.003989265 -0.004010591 -0.004021952
 -0.004025504 -0.004022848 -0.004017732 -0.00401265 -0.004011549 -0.00401694 -0.004030514 -0.004053657 -0.004085209 -0.004125614
 -0.00417082 -0.004220615 -0.004269594 -0.004317337 -0.004359777 -0.004396792 -0.004428196 -0.004454232 -0.00447712 -0.004496884
 -0.004515003 -0.00453088 -0.0045436 -0.00455234 -0.004554713 -0.004550943 -0.004539724 -0.004523292 -0.004503035 -0.004481771
 -0.004462143 -0.004444694 -0.00443095 -0.0044182 -0.004405942 -0.004391802 -0.004374754 -0.004356203 -0.004335976 -0.004317643
 -0.004301517 -0.004289249 -0.004280857 -0.004274459 -0.004269877 -0.004264565 -0.004258724 -0.004251965 -0.004244694 -0.00423816
 -0.004232149 -0.00422679 -0.004221844 -0.004216799 -0.004212154 -0.004208107 -0.00420547 -0.0042053 -0.004206554 -0.004209301
 -0.004211397 -0.004211968 -0.004210516 -0.004206533 -0.004201581 -0.004195876 -0.004190086 -0.004184402 -0.004176729 -0.004166962
 -0.004152771 -0.0041343 -0.004112093 -0.004086555 -0.004060176 -0.004032898 -0.004005954 -0.00397883 -0.003950855 -0.003922058
 -0.003891849 -0.003861376 -0.003831799 -0.003803356 -0.003777081 -0.003751144 -0.003724834 -0.003697075 -0.003666768 -0.003636266
 -0.003605778 -0.003578045 -0.003553855 -0.003531614 -0.003511392 -0.003489086 -0.003464519 -0.003436294 -0.003404657 -0.00337187
 -0.003338099 -0.003305538 -0.003273785 -0.003242602 -0.003211732 -0.003180225 -0.003148703 -0.003117343 -0.003087733 -0.003061646
 -0.003040062 -0.003024682 -0.003014388 -0.003009487 -0.00300723 -0.003006855 -0.003005978 -0.003003748 -0.002999836 -0.002993855
 -0.002987779 -0.002981663 -0.002978542 -0.002978558 -0.002982687 -0.002990694 -0.003000165 -0.003010839 -0.003019742 -0.003027459
 -0.003034297 -0.003041109 -0.003050437 -0.003061533 -0.003074841 -0.00308809 -0.003098791 -0.003105965 -0.003107437 -0.00310524
 -0.003099623 -0.003093205 -0.003087282 -0.003081955 -0.003077775 -0.00307263 -0.003066218 -0.00305745 -0.003046097 -0.003033325
 -0.003019187 -0.003004694 -0.002989652 -0.00297201 -0.002951436 -0.002924738 -0.002892312 -0.00285343 -0.002809541 -0.002763672
 -0.002716708 -0.002671624 -0.002628024 -0.002586672 -0.002546755 -0.002507796 -0.002469531 -0.002431975 -0.002393963 -0.002355509
 -0.002313823 -0.002268214 -0.002216885 -0.002159054 -0.002097089 -0.002030944 -0.001965704 -0.001901643 -0.001841287 -0.001784506
 -0.001730144 -0.001678094 -0.001627059 -0.001577357 -0.001529579 -0.001483727 -0.001440413 -0.001398706 -0.00135752 -0.00131568
 -0.001271109 -0.001224161 -0.001173614 -0.001122825 -0.00107235 -0.00102818 -0.000992602 -0.0009696234 -0.0009616375 -0.0009650763
 -0.0009806475 -0.0009976387 -0.001015203 -0.001023851 -0.001022995 -0.001010877 -0.0009878393 -0.000958131 -0.00092229 -0.0008856479
 -0.0008483755 -0.0008140846 -0.0007822604 -0.0007538286 -0.0007273375 -0.0007009403 -0.0006731649 -0.000641304 -0.000605467 -0.0005645285
 -0.0005200602 -0.000472785 -0.000423272 -0.0003721972 -0.0003184078 -0.0002619278 -0.000200743 -0.0001345322 -6.188606E-05 1.744668E-05
 0.000103383 0.0001959525 0.0002919762 0.0003911812 0.0004888748 0.0005850735 0.0006773365 0.0007662938 0.0008531201 0.0009380632
 0.001022793 0.001106073 0.001186831 0.001263246 0.001332678 0.001394198 0.001446127 0.001488356 0.00152031 0.0015424
 0.001554315 0.001557936 0.001553245 0.001544079 0.001531028 0.001517099 0.001502807 0.001488049 0.001472863 0.001455472
 0.00143592 0.001414625 0.001391889 0.001370145 0.001349157 0.001329625 0.001310451 0.001289148 0.001265084 0.001235449
 0.001201725 0.001163901 0.001125457 0.001089219 0.001057765 0.001034041 0.001016605 0.001006174 0.0009984479 0.0009922564
 0.0009854743 0.0009770853 0.0009696051 0.000963021 0.0009615803 0.0009655475 0.0009777558 0.0009982439 0.001027922 0.001066477
 0.001112674 0.001165475 0.001220471 0.001276232 0.001326694 0.001371487 0.001406844 0.001433962 0.001452741 0.001464586
 0.001470515 0.001471957 0.001469647 0.001465818 0.001461382 0.001458378 0.001457993 0.001458864 0.001461325 0.001461158
 0.001457901 0.001448938 0.001434011 0.001414657 0.001391094 0.001367386 0.001343801 0.001324149 0.001308476 0.001299148
 0.001295745 0.001298866 0.001306887 0.001317782 0.001328608 0.001335102 0.001334594 0.001322834 0.001300116 0.001264584
 0.001220252 0.001168061 0.001112202 0.00105437 0.0009951312 0.000934896 0.0008730612 0.0008093117 0.0007465334 0.0006848329
 0.0006293643 0.000580217 0.0005388567 0.0005046684 0.0004736571 0.0004454805 0.0004163747 0.0003869597 0.000357129 0.0003272282
 0.000298263 0.000269225 0.0002392083 0.0002074182 0.0001720525 0.0001353047 9.721716E-05 6.247285E-05 3.326786E-05 1.172463E-05
 -3.752323E-07 -6.112605E-06 -5.373908E-06 -3.701311E-06 -1.895311E-06 -1.898478E-06 -3.994696E-06 -5.629843E-06 -6.637999E-06 -3.550972E-06
 3.53283E-06 1.553873E-05 3.199686E-05 5.144086E-05 7.343715E-05 9.600412E-05 0.0001190697 0.000141381 0.0001635717 0.0001860622
 0.0002091054 0.0002334691 0.00025796 0.0002821438 0.0003047561 0.0003245736 0.0003433185 0.0003607453 0.0003809818 0.0004049854
 0.0004342531 0.0004694773 0.000506982 0.000546622 0.0005833853 0.0006171126 0.0006456889 0.0006692671 0.0006880834 0.0007023427
 0.0007129697 0.0007202078 0.0007250412 0.0007280127 0.0007307311 0.0007332647 0.0007363733 0.0007399374 0.0007439345 0.0007487908
 0.000754564 0.0007623166 0.0007726601 0.0007857475 0.0008021541 0.0008197419 0.0008383723 0.0008550628 0.0008691809 0.0008812035
 0.0008909599 0.0009035916 0.0009193666 0.0009436968 0.0009762684 0.001017107 0.00106506 0.001114815 0.001165775 0.001213083
 0.001257699 0.001298982 0.001338621 0.001378968 0.001420321 0.001464618 0.001509068 0.00155291 0.001592173 0.001624338
 0.001649231 0.001665308 0.001678031 0.001687976 0.001701166 0.001718884 0.001740517 0.001766287 0.001790664 0.001813474
 0.001832637 0.001848831 0.00186724 0.001888568 0.001919311 0.001958607 0.002007686 0.002064467 0.002125333 0.002188828
 0.002251158 0.002312382 0.002371034 0.002428124 0.002483696 0.002539325 0.002595467 0.002654289 0.002716262 0.00278423
 0.00285887 0.00294197 0.003034083 0.003133968 0.003241681 0.003353509 0.003469299 0.003586646 0.00370589 0.003829046
 0.003956848 0.004094122 0.004240846 0.004399804 0.004569827 0.004750074 0.00493891 0.005134028 0.005333217 0.005534392
 0.005733173 0.005927007 0.006109416 0.006277114 0.006424709 0.006549586 0.006650047 0.006725446 0.006774495 0.006797376
 0.006789219 0.006749743 0.006673007 0.006558849 0.006408182 0.006222303 0.006013512 0.005784286 0.005553244 0.005322154
 0.005106349 0.004905929 0.004728503 0.004573273 0.004442491 0.004334623 0.004249425 0.00418404 0.00413667 0.004104455
 0.004085377 0.004078687 0.004083889 0.004100206 0.004128197 0.004162411 0.004202573 0.004240843 0.004276391 0.004306855
 0.00433218 0.004356361 0.004379461 0.004403788 0.004428602 0.004450757 0.004470527 0.004486224 0.004500635 0.004518826
 0.004543325 0.004581084 0.004630463 0.004693628 0.004764474 0.004839758 0.004913485 0.004981659 0.005041855 0.005092352
 0.005132711 0.005162582 0.00518162 0.005189277 0.005189127 0.005180974 0.005175767 0.005174107 0.005189059 0.005220565
 0.005273152 0.005344907 0.005428437 0.005521279 0.005611531 0.005697913 0.005771472 0.005833015 0.00587903 0.005913289
 0.005937508 0.005957822 0.005979515 0.006005581 0.006040292 0.006079051 0.006122048 0.006161193 0.006194133 0.006218592
 0.006233158 0.006243641 0.006250283 0.006260181 0.006273696 0.006293692 0.006320025 0.006351882 0.006389073 0.00643034
 0.006475386 0.006522866 0.006571902 0.006620036 0.006666193 0.006707567 0.006743731 0.006772709 0.006795931 0.006813151
 0.006828002 0.006841782 0.006858928 0.006881503 0.006911133 0.006949048 0.006992894 0.007042559 0.007095398 0.007151057
 0.007209594 0.007270991 0.007334444 0.007399516 0.007460477 0.007516899 0.007562829 0.007599334 0.007626393 0.007646497
 0.007665027 0.007684618 0.007711749 0.007748101 0.007798432 0.007861947 0.007940933 0.008029457 0.008126017 0.008222302
 0.008314701 0.008399466 0.008474551 0.008541334 0.008599732 0.008651289 0.008696137 0.008735125 0.008768304 0.008800116
 0.008831015 0.008868523 0.008912327 0.008965186 0.009024886 0.00908558 0.009144218 0.009190146 0.0092231 0.009236223
 0.00923513 0.009222124 0.009206408 0.009196668 0.009196307 0.009211955 0.009234655 0.009263669 0.009286563 0.009298743
 0.009300011 0.009288188 0.009276644 0.009266331 0.009269458 0.009286804 0.009318934 0.009365265 0.00941779 0.009475661
 0.00952964 0.009579642 0.009619665 0.009651842 0.009677286 0.009700526 0.009730032 0.00976768 0.009821156 0.009883902
 0.00995472 0.01002287 0.01008139 0.01012619 0.01015218 0.010167 0.01017061 0.01017543 0.01018456 0.01019807
 0.01021706 0.01022911 0.01023352 0.01022231 0.01019565 0.0101552 0.01010189 0.01004254 0.009977218 0.009910038
 0.009840045 0.009766087 0.00968945 0.009610683 0.009534186 0.009465594 0.00940739 0.009364823 0.009334229 0.009315527
 0.009303312 0.009294962 0.009289337 0.009285373 0.009284631 0.009287521 0.009293118 0.009301598 0.009309167 0.009315623
 0.009316682 0.009312082 0.009297182 0.009271892 0.009232708 0.009180784 0.009117877 0.009046869 0.008976347 0.008907275
 0.00884731 0.008790501 0.008734136 0.008668594 0.008582276 0.008477871 0.008348907 0.008217438 0.008089 0.007986994
 0.007920658 0.007893574 0.007910324 0.007951599 0.008016751 0.008079208 0.008137198 0.008175935 0.008195516 0.008197649
 0.00818367 0.008162998 0.008137157 0.00811686 0.008103384 0.008106249 0.008123899 0.008159575 0.008206819 0.008259878
 0.008310903 0.008350525 0.008376459 0.008383436 0.008376391 0.008355713 0.008327338 0.008293215 0.008255634 0.008215111
 0.008173762 0.008131386 0.008095191 0.008065565 0.008051425 0.008052831 0.008070915 0.008104223 0.008143168 0.008185846
 0.008218981 0.008242673 0.008249737 0.008242827 0.008223103 0.008193862 0.008159888 0.008122873 0.008085968 0.00804961
 0.008014412 0.007982198 0.007953411 0.007931192 0.007917039 0.007910248 0.007911976 0.007913767 0.00791507 0.007906085
 0.007885945 0.007854482 0.007812254 0.007771447 0.007733266 0.007713111 0.007710143 0.007730382 0.007769465 0.007819555
 0.007874951 0.007920675 0.007955453 0.007969519 0.00796966 0.007957359 0.00794254 0.007932959 0.00793042 0.007939534
 0.007951227 0.007963863 0.007969839 0.007965879 0.007958533 0.007947532 0.007946432 0.007956418 0.007978305 0.008011525
 0.008040892 0.0080661 0.008076404 0.008075277 0.008071673 0.008069827 0.008087831 0.00812363 0.008184354 0.008259783
 0.008340737 0.008414992 0.008467132 0.008493197 0.008482674 0.008448361 0.008390056 0.008331972 0.008281434 0.008253469
 0.008255006 0.008274686 0.008313558 0.008343932 0.008363727 0.008358817 0.008328943</values></Ydata></AB><ScSm><Ydata ylabel="Single channel"><values byteorder="INTEL" format="FLOAT32" numvalues="1814"> 0.077126 0.07722348 0.07733357 0.07746276 0.07760581 0.07774808 0.07787549 0.07798534 0.07808426 0.07817546
 0.0782582 0.07834218 0.07844831 0.07858621 0.07873991 0.07888009 0.07898747 0.07906913 0.07915611 0.07927444
 0.07940918 0.0795061 0.07952097 0.07946777 0.07941142 0.07941006 0.0794761 0.07960783 0.07982783 0.08012624
 0.08037877 0.08042599 0.0802726 0.08011732 0.08013389 0.0802982 0.0804674 0.08053951 0.08049394 0.08037889
 0.08033222 0.08053848 0.08106141 0.08170605 0.08207791 0.08181012 0.08080906 0.07938848 0.07819522 0.07786965
 0.07858224 0.0798417 0.08086319 0.08120167 0.08099237 0.08061316 0.08029264 0.08010526 0.08014431 0.08050558
 0.0811279 0.08173077 0.08192278 0.08145714 0.08051148 0.07965831 0.07939877 0.0797734 0.08053526 0.08144915
 0.08207119 0.0815272 0.07928596 0.0763321 0.07485919 0.07624386 0.07960631 0.08272709 0.0840684 0.08358568
 0.08208571 0.08051561 0.07971474 0.08012398 0.08149517 0.0831389 0.08447546 0.08519022 0.08508418 0.08416435
 0.08283655 0.08173646 0.08137682 0.08199695 0.08346404 0.08512799 0.08608299 0.08588127 0.08486703 0.08372858
 0.08299193 0.08299629 0.08391824 0.0855604 0.0873715 0.0888558 0.08983143 0.09031792 0.09041241 0.0902703
 0.09002883 0.08978553 0.08970623 0.0899433 0.09033741 0.09044515 0.09003408 0.08940074 0.08907154 0.08925788
 0.08967303 0.08987848 0.08971965 0.08924133 0.08823911 0.08636101 0.08382992 0.08155424 0.08023879 0.07989138
 0.08040453 0.0818546 0.08379745 0.08505284 0.08489332 0.08402362 0.08381578 0.08482458 0.08644199 0.08778711
 0.08856179 0.08909597 0.08983114 0.09082119 0.09160553 0.09154736 0.09048364 0.08913118 0.08861074 0.08936311
 0.09072185 0.09173494 0.09216533 0.09245838 0.09295361 0.09339175 0.09314091 0.09187131 0.09012443 0.08912741
 0.08978343 0.09177776 0.09373933 0.09427765 0.09297287 0.09060387 0.08849447 0.08756092 0.08795542 0.08944485
 0.09173629 0.09433368 0.09646151 0.09745936 0.09723897 0.09626507 0.09505077 0.09367882 0.09198374 0.09029741
 0.08964857 0.09079877 0.09326338 0.09569842 0.09714308 0.09755322 0.09725298 0.0962829 0.0944874 0.09219052
 0.09049898 0.09048285 0.09195833 0.09353174 0.09408137 0.09380734 0.0935988 0.09381777 0.09409945 0.09409677
 0.09399751 0.09425578 0.0950112 0.09591096 0.09648599 0.09658551 0.09640832 0.09622195 0.09610876 0.09592104
 0.09550671 0.09504877 0.09504691 0.09579064 0.09696916 0.09798407 0.0985398 0.09875856 0.09881294 0.09863351
 0.09802634 0.09705065 0.09619685 0.09603688 0.09666966 0.09764796 0.09845392 0.09888428 0.09899892 0.09892491
 0.09877041 0.09859645 0.09843314 0.0983544 0.09846491 0.09875957 0.09908362 0.09928671 0.0993457 0.09930773
 0.09919213 0.09899531 0.09875371 0.09855913 0.09849912 0.09858759 0.09876645 0.09896505 0.09912791 0.09920222
 0.09915714 0.09902433 0.09887681 0.09876205 0.09868484 0.09864738 0.09866655 0.09874347 0.09884155 0.09891124
 0.0989303 0.09890939 0.09886415 0.09879923 0.09872101 0.09865016 0.09861336 0.09862441 0.09867032 0.0987203
 0.09876257 0.09882148 0.09891303 0.09899721 0.09901227 0.09895127 0.09887145 0.09883144 0.09884554 0.09889247
 0.0989413 0.09896259 0.09893154 0.09884328 0.09873571 0.09868132 0.09873413 0.09888849 0.09909821 0.09931588
 0.09950258 0.09963211 0.09971 0.09976852 0.09982826 0.09988101 0.09991591 0.0999458 0.1000036 0.100118
 0.1002871 0.1004749 0.1006396 0.100762 0.1008468 0.1009177 0.1010111 0.1011448 0.101283 0.1013685
 0.1013982 0.1014345 0.1015278 0.1016568 0.101761 0.1018125 0.1018395 0.1018874 0.1019732 0.1020795
 0.1021834 0.102282 0.1023912 0.1025209 0.1026507 0.1027342 0.1027435 0.1027058 0.1026788 0.102692
 0.1027326 0.1027847 0.1028557 0.1029525 0.1030536 0.103122 0.103145 0.1031489 0.1031687 0.1032072
 0.1032352 0.1032284 0.1031937 0.1031579 0.1031418 0.103148 0.1031635 0.1031703 0.1031574 0.1031251
 0.1030804 0.1030302 0.1029787 0.1029313 0.1029027 0.1029135 0.1029621 0.1030022 0.1029687 0.1028388
 0.1026581 0.1024989 0.1023984 0.1023384 0.1022744 0.1021771 0.10205 0.1019183 0.1018046 0.1017133
 0.1016334 0.1015525 0.1014734 0.1014169 0.1014014 0.1014127 0.101406 0.1013477 0.1012493 0.1011523
 0.1010851 0.1010472 0.1010252 0.10101 0.1010027 0.1010123 0.1010446 0.1010888 0.1011237 0.1011417
 0.1011581 0.1011947 0.1012673 0.1013828 0.1015307 0.101675 0.1017795 0.101846 0.1019132 0.1020141
 0.1021477 0.1022954 0.1024492 0.1026136 0.1027921 0.1029831 0.1031872 0.1034098 0.1036555 0.1039206
 0.1041934 0.1044609 0.1047196 0.1049797 0.1052579 0.1055633 0.1058896 0.106221 0.1065453 0.1068613
 0.1071763 0.1074953 0.1078162 0.1081375 0.1084676 0.1088182 0.1091888 0.109565 0.1099345 0.1102987
 0.1106669 0.1110426 0.1114208 0.1117981 0.1121836 0.1125914 0.1130173 0.1134292 0.1137937 0.1141117
 0.1144201 0.114758 0.1151365 0.1155353 0.1159188 0.1162609 0.1165679 0.1168737 0.1172046 0.117553
 0.117895 0.1182306 0.1185878 0.1189856 0.1193996 0.1197761 0.1200812 0.1203332 0.1205821 0.1208583
 0.1211473 0.1214181 0.1216653 0.1219104 0.1221695 0.1224364 0.1227032 0.1229791 0.1232754 0.1235813
 0.1238712 0.1241327 0.1243743 0.1246051 0.1248184 0.1249996 0.1251424 0.1252602 0.125381 0.1255279
 0.1256988 0.1258737 0.1260425 0.1262164 0.1264097 0.1266223 0.12685 0.1270976 0.1273677 0.1276465
 0.127918 0.1281921 0.1284975 0.1288373 0.1291688 0.1294458 0.129669 0.1298768 0.1300964 0.130329
 0.1305749 0.1308469 0.1311526 0.1314798 0.1318047 0.1321104 0.1324005 0.1326978 0.1330198 0.1333504
 0.1336482 0.1338878 0.1340866 0.1342861 0.1345179 0.1347867 0.135076 0.1353627 0.1356293 0.135865
 0.1360574 0.1361938 0.1362757 0.1363223 0.1363466 0.1363329 0.1362473 0.136066 0.135783 0.1353912
 0.1348723 0.1342145 0.1334409 0.1326225 0.1318618 0.1312632 0.1309037 0.130821 0.1310148 0.131449
 0.1320521 0.1327243 0.1333551 0.1338423 0.1341033 0.1340858 0.1337803 0.1332229 0.1324791 0.1316212
 0.1307122 0.1297981 0.1289098 0.1280837 0.1273938 0.1269607 0.1269209 0.1273794 0.1283776 0.1298744
 0.1317337 0.1337415 0.1356749 0.1373844 0.1388297 0.1400481 0.1411017 0.142047 0.1429264 0.1437642
 0.144564 0.1453184 0.1460237 0.1466829 0.1472944 0.1478457 0.1483167 0.1486884 0.1489512 0.1491131
 0.1491965 0.1492261 0.1492218 0.1492029 0.1491825 0.1491452 0.1490385 0.1487972 0.1483831 0.1478093
 0.1471474 0.1465319 0.1461549 0.146231 0.1469169 0.1482186 0.1499607 0.1518616 0.1536627 0.1552083
 0.1564481 0.1574035 0.1581386 0.1587301 0.1592393 0.1597017 0.1601359 0.1605515 0.1609519 0.1613373
 0.1617094 0.1620737 0.1624361 0.162799 0.163159 0.1635112 0.1638569 0.1642052 0.1645654 0.1649391
 0.1653174 0.1656883 0.1660489 0.1664085 0.1667747 0.1671402 0.1674894 0.1678188 0.1681403 0.1684687
 0.1688113 0.169167 0.1695265 0.169875 0.1702028 0.1705122 0.1708131 0.1711116 0.1714081 0.1717027
 0.1719966 0.1722893 0.1725781 0.1728625 0.1731471 0.1734366 0.1737283 0.1740111 0.1742772 0.1745309
 0.1747853 0.1750489 0.1753183 0.1755839 0.1758426 0.1761013 0.1763702 0.1766509 0.1769337 0.1772059
 0.177463 0.1777098 0.1779551 0.1782058 0.178464 0.1787269 0.1789896 0.1792494 0.1795077 0.1797673
 0.1800285 0.1802884 0.180544 0.180795 0.1810444 0.1812956 0.1815504 0.1818069 0.1820613 0.1823121
 0.1825627 0.1828181 0.1830777 0.1833346 0.1835806 0.1838135 0.1840374 0.1842608 0.1844919 0.1847339
 0.1849836 0.1852341 0.1854801 0.1857211 0.1859614 0.1862053 0.1864531 0.1867018 0.1869499 0.1871974
 0.1874446 0.1876921 0.1879404 0.1881876 0.1884309 0.1886711 0.1889127 0.1891575 0.1894037 0.1896477
 0.1898874 0.190123 0.190357 0.190593 0.1908324 0.1910734 0.1913135 0.1915511 0.1917872 0.1920246
 0.1922636 0.1924996 0.1927299 0.1929586 0.1931916 0.1934302 0.1936711 0.1939114 0.1941501 0.1943886
 0.1946279 0.1948668 0.1951047 0.1953439 0.1955874 0.1958322 0.1960735 0.1963104 0.1965462 0.196784
 0.1970238 0.1972639 0.1975023 0.1977393 0.1979765 0.1982143 0.1984523 0.1986915 0.1989328 0.1991761
 0.1994231 0.1996757 0.1999322 0.2001895 0.2004475 0.2007057 0.20096 0.2012096 0.2014602 0.2017173
 0.2019802 0.2022445 0.2025048 0.2027569 0.2030005 0.2032377 0.2034674 0.2036889 0.2039064 0.2041247
 0.2043433 0.2045614 0.2047832 0.2050119 0.205247 0.205487 0.2057299 0.2059732 0.2062177 0.2064666
 0.2067189 0.2069707 0.2072213 0.207471 0.2077189 0.2079672 0.2082211 0.2084802 0.2087386 0.2089942
 0.2092494 0.2095063 0.2097672 0.2100337 0.2103037 0.2105745 0.2108458 0.2111154 0.2113787 0.2116374
 0.2118984 0.212162 0.2124256 0.212692 0.2129631 0.2132337 0.2135009 0.213768 0.2140352 0.2143002
 0.2145647 0.2148297 0.2150932 0.2153585 0.2156315 0.21591 0.2161876 0.2164643 0.2167402 0.2170118
 0.2172805 0.2175508 0.2178192 0.2180815 0.2183419 0.2186019 0.2188555 0.2191035 0.2193516 0.2195936
 0.2198074 0.2199411 0.2198567 0.2192634 0.2176794 0.2144408 0.2088297 0.2003578 0.1890597 0.1755815
 0.1610033 0.1464995 0.1330194 0.121159 0.1112368 0.1034164 0.09779051 0.09446077 0.09360618 0.09557509
 0.1010005 0.1104208 0.1229087 0.1348944 0.1415077 0.1402665 0.1333239 0.1255151 0.1204236 0.1186255
 0.1189077 0.1200686 0.1216311 0.1237125 0.1266094 0.1303634 0.134716 0.1395306 0.14504 0.151487
 0.1586536 0.1659378 0.1728582 0.1793664 0.1856732 0.1918741 0.1978009 0.2031823 0.2078547 0.2118201
 0.2151897 0.2181118 0.2207118 0.2230667 0.2252274 0.2272275 0.2290395 0.2305506 0.2316298 0.232234
 0.232458 0.232491 0.2325127 0.2326152 0.2328109 0.2330882 0.2334379 0.2338498 0.2343147 0.2348259
 0.2353684 0.2359206 0.2364688 0.2370084 0.2375339 0.2380395 0.2385216 0.238974 0.2393934 0.2397886
 0.2401732 0.2405523 0.2409247 0.2412909 0.2416511 0.242004 0.2423521 0.2426974 0.2430341 0.2433524
 0.2436459 0.2439147 0.2441677 0.2444189 0.2446753 0.2449318 0.2451832 0.2454295 0.2456695 0.2459012
 0.2461293 0.2463613 0.2465995 0.2468408 0.2470811 0.2473163 0.2475461 0.2477771 0.2480144 0.2482548
 0.2484944 0.2487337 0.2489724 0.249206 0.2494308 0.2496499 0.2498744 0.2501169 0.2503787 0.2506451
 0.2509026 0.2511554 0.2514161 0.251687 0.2519612 0.2522335 0.2525038 0.2527734 0.2530447 0.253316
 0.2535778 0.2538194 0.2540398 0.254247 0.2544529 0.2546682 0.254896 0.2551306 0.2553648 0.2555973
 0.2558315 0.2560708 0.2563151 0.2565598 0.2568015 0.2570456 0.2573034 0.2575774 0.2578599 0.2581449
 0.2584312 0.2587156 0.2589942 0.2592703 0.2595495 0.2598296 0.2601039 0.2603748 0.2606564 0.2609633
 0.2612945 0.2616298 0.2619472 0.2622439 0.2625351 0.2628368 0.2631555 0.2634818 0.2637878 0.2640445
 0.2642628 0.2644998 0.2648087 0.2651876 0.2655875 0.2659616 0.2662977 0.2666102 0.2669144 0.2672106
 0.2674885 0.2677402 0.2679756 0.2682286 0.2685368 0.2689019 0.2692817 0.2696325 0.269946 0.2702361
 0.270514 0.270786 0.2710443 0.2712529 0.2713832 0.2714842 0.2716753 0.2720338 0.2725101 0.2729788
 0.273363 0.2736803 0.2739781 0.2742717 0.2745545 0.274806 0.2749557 0.2749187 0.2747479 0.2746896
 0.2749817 0.2756098 0.2763358 0.2769404 0.2773696 0.277683 0.2779521 0.2782132 0.2784468 0.278581
 0.2785669 0.2784886 0.2785517 0.278896 0.2794374 0.2799584 0.2803356 0.2806121 0.2808777 0.281168
 0.281445 0.2815799 0.2814097 0.2809574 0.280577 0.2807222 0.2815063 0.2825735 0.2834554 0.2839879
 0.2843113 0.2845444 0.2846126 0.2843927 0.2838684 0.2831331 0.2824329 0.2822115 0.28282 0.2840645
 0.2852848 0.2860171 0.2863952 0.2868113 0.2874047 0.2880039 0.2884035 0.2885489 0.2884989 0.2883
 0.2879633 0.2876064 0.2875383 0.2880397 0.2890362 0.290116 0.2909178 0.2914156 0.2917535 0.2918252
 0.2911661 0.2895021 0.2874713 0.2864623 0.2873812 0.2896985 0.2920234 0.2934794 0.294186 0.2946063
 0.2949461 0.2950935 0.29461 0.2928749 0.2899284 0.2872064 0.2866692 0.2888702 0.2923351 0.29499
 0.2957458 0.2947211 0.2927164 0.2908439 0.2901331 0.29097 0.2929334 0.2952223 0.2971418 0.298296
 0.2986061 0.2982614 0.2976398 0.2972133 0.2972521 0.2974159 0.2969663 0.2957302 0.294441 0.2936075
 0.2925735 0.2905884 0.2884867 0.2881657 0.2902406 0.2931545 0.2949829 0.295401 0.2953317 0.2950855
 0.2936061 0.2898635 0.2847639 0.2811213 0.2812479 0.2846452 0.2884958 0.2904298 0.2903958 0.2898559
 0.2897252 0.2894035 0.2876728 0.2844307 0.2813591 0.2804239 0.2816789 0.2831921 0.2831889 0.2812957
 0.2776002 0.2722041 0.2667001 0.2644801 0.2677325 0.2747137 0.2812913 0.2845133 0.2835229 0.2783251
 0.2701021 0.2625042 0.2600021 0.2637587 0.2702748 0.2747825 0.2750059 0.2712464 0.2644344 0.2557255
 0.2475093 0.2431122 0.2446772 0.2514439 0.2598923 0.2652644 0.2639968 0.2565804 0.248264 0.2450983
 0.2482486 0.2532347 0.2552011 0.2534821 0.2505852 0.248772 0.2488099 0.2504066 0.2525441 0.2542779
 0.2554619 0.2554145 0.2515818 0.2423603 0.2313113 0.2252756 0.2273204 0.2342642 0.2418609 0.2490745
 0.2557257 0.2594281 0.2581278 0.2541727 0.252816 0.256605 0.2629554 0.2674533 0.2683316 0.2671867
 0.2660608 0.2650028 0.263083 0.2610265 0.261246 0.2648462 0.2699012 0.2735431 0.2748355 0.2747831
 0.2744167 0.2739219 0.2731663 0.2721265 0.2708496 0.2694663 0.2681809 0.267051 0.265946 0.2648032
 0.2635592 0.2615831 0.2577395 0.2518773 0.2460897 0.2432743 0.2441016 0.2465917 0.2489364 0.2508
 0.2509829 0.2464545 0.236306 0.2252968 0.2205828 0.2248001 0.2339655 0.2419463 0.2453103 0.2437513
 0.2380103 0.229535 0.2219281 0.2203226 0.2274381 0.2407375 0.2546971 0.2654646 0.2723305 0.2756069
 0.275151 0.2714389 0.2667944 0.2644809 0.266465 0.2721251 0.2787356 0.2827409 0.2813002 0.2746205
 0.2675166 0.2665051 0.2733395 0.2826776 0.2879736 0.2883379 0.2875972 0.2882214 0.2891989 0.2893874
 0.2898834 0.2921555 0.2956174 0.2981125 0.2978474 0.2941424 0.2874214 0.2797421 0.274484 0.2736901
 0.2758361 0.277603 0.2772995 0.274911 0.270016 0.262688 0.2561122 0.2548805 0.2597749 0.2665896
 0.270931 0.2723158 0.2728134 0.2733274 0.2725339 0.2691018 0.2640541 0.2603329 0.2599198 0.2619701
 0.2642152 0.2654256 0.2656064 0.2645748 0.2619753 0.2588173 0.2576119 0.2601445 0.2655643 0.271207
 0.2750363 0.2768838 0.277685 0.278256 0.2788467 0.2792857 0.2793901 0.2795465 0.2807426 0.2835043
 0.2869623 0.2896369 0.2911475 0.2925326 0.2948011 0.2977069 0.3001412 0.3013706 0.3016884 0.3020431
 0.3031828 0.3050386 0.3067873 0.3075717 0.3073419 0.3070104 0.3076325 0.3094022 0.3115754 0.3133287
 0.3144557 0.3152513 0.316036 0.3168873 0.3176051 0.3178796 0.3176943 0.3175766 0.3182042 0.3196967
 0.3214684 0.322818 0.3235033 0.3237158 0.3236887 0.3234742 0.3230433 0.3224629 0.3219168 0.3215681
 0.3214417 0.3214448 0.32147 0.3214616 0.3214201 0.321386 0.3214097 0.3215126 0.3216784 0.3218847
 0.3221158 0.3223398 0.3225112 0.322618 0.3226939 0.3227601 0.3227775 0.3226742 0.322393 0.3218955
 0.3211427 0.3200995 0.3187444 0.31705 0.3149804 0.3125953 0.3102205 0.3084796 0.308029 0.3091409
 0.3114905 0.3143415 0.3169608 0.3189329 0.3202018 0.3209193 0.3212766 0.3214158 0.3214152 0.321308
 0.3211098 0.3208398 0.3205224 0.3201781 0.3198223 0.3194728 0.3191495 0.3188625 0.3185999 0.3183271
 0.3180029 0.3176014 0.3171214 0.316574 0.315966 0.3152882 0.3145161 0.3136254 0.31262 0.3115447
 0.3104672 0.3094411 0.3084788 0.3075518 0.3066159 0.3056279 0.3045321 0.303255 0.3017757 0.300216
 0.2988065 0.297705 0.2968574 0.2960622 0.2951488 0.2940685 0.2928535 0.2915498 0.2901936 0.2888094
 0.2874073 0.2859811 0.2845106 0.2829649 0.2813147 0.2795504 0.2776855 0.275746 0.2737634 0.2717634
 0.2697345 0.2675959 0.2652052 0.2624024 0.2590531 0.2550688 0.2504209 0.2451643 0.2394536 0.2335187
 0.2276048 0.2219173 0.2166091 0.2118016 0.2076068 0.2041293 0.2014511 0.1996189 0.1986477 0.1985345
 0.1992648 0.2008031 0.2030781 0.2059736 0.2093315 0.2129629 0.2166653 0.2202491 0.2235822 0.2266303
 0.2294443 0.2320861 0.2345633 0.2368351 0.2388634 0.2406404 0.2421719 0.2434584 0.2445001 0.245317
 0.2459574 0.2464835 0.246943 0.2473528 0.2477044 0.2479853 0.2481982 0.2483651 0.248519 0.248689
 0.2488902 0.2491232 0.2493862 0.2496901 0.2500582 0.2505107 0.2510515 0.2516709 0.2523566 0.2531008
 0.2539036 0.2547739 0.2557308 0.2568033 0.2580226 0.2594064 0.2609473 0.26261 0.2643307 0.2660163
 0.2675568 0.2688563 0.2698599 0.2705594 0.2709754 0.2711374 0.2710744 0.2708178 0.270402 0.2698554
 0.2692001 0.2684592 0.2676582 0.2668113 0.2659123 0.2649487 0.2639228 0.2628623 0.2618053 0.2607756
 0.259774 0.2587945 0.2578381 0.2569093 0.2560096 0.255142 0.2543122 0.2535234 0.252775 0.2520646
 0.2513858 0.2507192 0.2500282 0.2492613 0.2483683 0.2473215 0.2461193 0.2447663 0.2432617 0.2416091
 0.2398243 0.2379304 0.2359484 0.2338902 0.2317581 0.2295511 0.2272685 0.2249074 0.2224759 0.2200217
 0.217632 0.2153891 0.2133287 0.2114371 0.2096745 0.208002 0.2063996 0.2048637 0.2033903 0.2019733
 0.2006113 0.1993037 0.1980462 0.1968402 0.195699 0.1946426 0.1936906 0.1928551 0.19213 0.1914913
 0.1909172 0.1903975 0.1899379 0.1895728 0.1893529 0.1892901 0.1893224 0.1893582 0.1893483 0.1893122
 0.1893085 0.1893834 0.1895375 0.1897344 0.1899297 0.1900666 0.1900567 0.1897959 0.1892003 0.1882128
 0.1868047 0.1849995 0.1828884 0.180615 0.1783489 0.176253 0.1744453 0.1729835 0.17187 0.1710476
 0.1704141 0.1698883 0.1694721 0.16924 0.169271 0.1695665 0.169993 0.1703391 0.1704945 0.1705688
 0.1707953 0.1713329 0.1721698 0.1731681 0.1741641 0.1750468 0.1757691 0.1763163 0.1766979 0.1769533
 0.1771166 0.1771803 0.1771216 0.1769386 0.1766403 0.1762379 0.1757533 0.1751983 0.1745565 0.1738143
 0.1729818 0.1720653 0.1710574 0.1699532 0.1687309 0.1673526 0.1658615 0.1644641 0.1634603 0.1630825
 0.1633746 0.1641716 0.1652152 0.1663239 0.1674187 0.1684051 0.1691754 0.1697926 0.1705725 0.1718764
 0.1738056 0.1760919 0.1782821 0.1800294 0.1812083 0.1818159 0.181887 0.1814863 0.180654 0.1793656
 0.1776356 0.1755922 0.173382 0.171113 0.1689197 0.1669378 0.1652246 0.1637975 0.1626627 0.1618113
 0.1612936 0.160838 0.1589091 0.1532416 0.1440647 0.1361934 0.1353992 0.1421899 0.1510973 0.1565427
 0.1575716 0.1565247 0.1553512 0.154476 0.153825 0.15346 0.1534281 0.1536309 0.1538624 0.1539012
 0.1536491 0.1531176 0.1521819 0.1503539 0.1467784 0.1405381 0.1313266 0.1200774 0.1087748 0.09940524
 0.09297165 0.08927672 0.08734925 0.08612235 0.08504623 0.08427715 0.08431723 0.08550188 0.08781558 0.09104547
 0.09493409 0.09914897 0.1032351 0.1067609 0.1095427 0.111649 0.1131908 0.1142026 0.1147123 0.114796
 0.1145342 0.1139878 0.1132149 0.1122535 0.1110946 0.1097272 0.1082286 0.1067977 0.1056703 0.1049634
 0.1046029 0.1044266 0.1043338 0.1043082 0.1043495 0.1044429 0.1045738 0.1047366 0.104944 0.1052241
 0.105577 0.1059442 0.106246 0.1064393 0.1065281 0.1065286 0.1064274 0.1061867 0.1058178 0.1054138
 0.1050243 0.104514 0.1036618 0.1024425 0.1011519 0.1002231 0.09992556 0.1002026 0.1007425 0.1012097
 0.1014516 0.1015233 0.101541 0.1015181</values></Ydata></ScSm><ScRf><Ydata ylabel="Single channel"><values byteorder="INTEL" format="FLOAT32" numvalues="1820"> 0.0705342 0.07066581 0.07078458 0.07089029 0.07098705 0.07108362 0.07119039 0.07131217 0.07144494 0.07157833
 0.07170217 0.07181334 0.07191487 0.07200806 0.0720932 0.0721797 0.0722847 0.0724158 0.07256125 0.07269775
 0.07280564 0.07288469 0.07296037 0.07306156 0.0731826 0.07327728 0.07330253 0.07326553 0.07322143 0.07322367
 0.0732872 0.07341268 0.07361914 0.07389529 0.07412842 0.07417575 0.07404346 0.07391265 0.07394002 0.07410058
 0.07426144 0.07432911 0.07428703 0.07418284 0.07414584 0.07434614 0.07484074 0.07544735 0.07579987 0.07555869
 0.07463762 0.07332739 0.07222608 0.07192675 0.07258996 0.07376408 0.07472168 0.07504606 0.07485929 0.07451247
 0.07421986 0.07405028 0.0740886 0.07442414 0.07500339 0.07556875 0.07575637 0.07533412 0.0744641 0.07367629
 0.07343566 0.07378092 0.07448583 0.07533549 0.07591956 0.07542592 0.0733593 0.07063104 0.0692753 0.07056978
 0.07369899 0.07660292 0.07785273 0.07740685 0.07601688 0.07456487 0.07382908 0.07421523 0.07549173 0.07702127
 0.07826881 0.07894255 0.0788563 0.07801604 0.07679799 0.07579043 0.07546691 0.07604901 0.07741445 0.07896033
 0.07984582 0.0796572 0.07871829 0.07766964 0.07699533 0.07700498 0.07786395 0.07939593 0.08109249 0.08248919
 0.08341154 0.08387585 0.08397207 0.08384347 0.08361894 0.08339593 0.0833349 0.08357538 0.08396028 0.08407135
 0.08369491 0.08311187 0.08281297 0.08299319 0.08338686 0.08358927 0.08345686 0.08302753 0.08210728 0.08036737
 0.07801612 0.07590124 0.07468209 0.07436753 0.07485542 0.07621402 0.07803041 0.07920868 0.07907258 0.07827717
 0.07810004 0.07905892 0.08058561 0.0818546 0.0825862 0.08309216 0.08378877 0.08472538 0.08546859 0.08542374
 0.08444139 0.08319204 0.08272132 0.08344048 0.08472724 0.08569168 0.08611182 0.08640585 0.08689356 0.0873308
 0.08712015 0.08594881 0.08432697 0.08341116 0.08405097 0.0859482 0.08781281 0.08833954 0.08713587 0.08493328
 0.08297359 0.08211748 0.08251055 0.08393643 0.08612012 0.08859432 0.09063046 0.09160939 0.09144716 0.09057546
 0.08947136 0.08821245 0.0866473 0.08509228 0.08451781 0.08564265 0.08801162 0.09035634 0.09176695 0.09219984
 0.09196153 0.09108979 0.08943541 0.08730491 0.0857489 0.08578259 0.08723091 0.08877206 0.08934368 0.08913659
 0.08899301 0.08925322 0.08956853 0.0896107 0.08956249 0.08985943 0.09063478 0.09155089 0.09215756 0.09230617
 0.09218261 0.09204425 0.09197742 0.09184818 0.0915115 0.09113567 0.09119077 0.09195125 0.09312373 0.09414043
 0.09471907 0.09497515 0.09507518 0.09495603 0.09443189 0.09355526 0.09279308 0.09269543 0.09335964 0.09435545
 0.0951829 0.09564605 0.09580356 0.0957782 0.09567523 0.09555607 0.09545089 0.09542796 0.09558436 0.09591563
 0.09627616 0.09652317 0.09663333 0.09664983 0.09659004 0.09645031 0.0962655 0.09612411 0.09611244 0.09624676
 0.09647216 0.09671853 0.09692936 0.09705058 0.09704998 0.09695894 0.09685296 0.09678233 0.09675169 0.09676136
 0.0968275 0.09695081 0.09709357 0.09720642 0.09726908 0.09729309 0.09729363 0.09727512 0.0972434 0.09721749
 0.09722401 0.09728004 0.09737535 0.097477 0.09756789 0.09766922 0.09779831 0.09791824 0.09796854 0.09794192
 0.09789655 0.09789347 0.09794757 0.09803446 0.09811941 0.09817205 0.09816998 0.09811263 0.09804067 0.09802388
 0.09810991 0.09829158 0.09852941 0.09878244 0.09900943 0.09917612 0.09928377 0.09936689 0.09945025 0.09952775
 0.09958895 0.09964651 0.09973252 0.0998733 0.1000635 0.1002648 0.1004363 0.1005637 0.1006575 0.1007433
 0.1008572 0.1010155 0.1011806 0.1012896 0.1013323 0.101369 0.1014571 0.1015845 0.1016935 0.1017518
 0.1017837 0.1018368 0.1019308 0.1020439 0.1021455 0.1022311 0.1023252 0.1024467 0.1025744 0.102655
 0.1026565 0.1026071 0.1025657 0.1025623 0.1025865 0.1026266 0.1026897 0.1027771 0.1028632 0.1029135
 0.1029194 0.1029074 0.1029098 0.1029295 0.1029382 0.1029108 0.1028518 0.1027889 0.1027473 0.1027325
 0.1027301 0.1027176 0.1026798 0.1026167 0.1025391 0.1024586 0.1023809 0.1023106 0.1022638 0.1022638
 0.1023069 0.1023389 0.1022865 0.1021264 0.1019114 0.1017222 0.1015987 0.1015192 0.1014338 0.1013116
 0.1011584 0.1010008 0.1008596 0.1007376 0.1006259 0.1005161 0.100412 0.1003328 0.1002946 0.1002823
 0.1002492 0.1001585 0.1000211 0.09988193 0.09977469 0.09970206 0.09965067 0.09960951 0.09957699 0.0995601
 0.09956368 0.09957598 0.09957492 0.0995549 0.09953666 0.09954615 0.09959454 0.09967822 0.09978059 0.09987164
 0.09992661 0.09995358 0.09998891 0.100059 0.1001592 0.1002723 0.1003928 0.1005255 0.1006715 0.1008261
 0.100989 0.1011673 0.101368 0.1015888 0.1018168 0.1020374 0.1022478 0.102461 0.1026967 0.102965
 0.1032576 0.1035537 0.1038356 0.1041013 0.1043623 0.1046291 0.1049027 0.1051825 0.1054758 0.1057895
 0.1061172 0.1064439 0.1067621 0.1070769 0.1073964 0.1077222 0.1080512 0.1083837 0.1087279 0.1090941
 0.1094768 0.1098469 0.1101734 0.1104552 0.1107247 0.1110189 0.1113514 0.1117066 0.1120513 0.1123577
 0.1126267 0.1128889 0.1131731 0.1134782 0.1137865 0.1140981 0.1144357 0.1148102 0.1151928 0.1155313
 0.1157979 0.1160161 0.1162353 0.1164809 0.1167347 0.1169673 0.1171784 0.1173919 0.1176223 0.1178616
 0.1181027 0.1183563 0.1186323 0.1189155 0.1191776 0.1194065 0.119614 0.1198128 0.1199986 0.1201547
 0.1202708 0.1203578 0.1204458 0.1205621 0.1207072 0.1208601 0.1210074 0.1211569 0.1213219 0.1215055
 0.1217071 0.1219325 0.1221827 0.1224422 0.122693 0.1229423 0.123217 0.1235215 0.1238174 0.1240631
 0.1242615 0.1244495 0.1246509 0.1248623 0.1250834 0.1253315 0.1256189 0.1259324 0.126242 0.1265271
 0.1267938 0.12707 0.1273749 0.1276913 0.127976 0.1282012 0.1283826 0.1285632 0.1287781 0.1290347
 0.1293167 0.1296017 0.1298748 0.130125 0.1303351 0.1304859 0.1305789 0.1306411 0.1306958 0.1307309
 0.1307055 0.1305834 0.1303525 0.1300124 0.1295583 0.1289866 0.1283176 0.1276089 0.1269484 0.1264299
 0.1261278 0.1260824 0.1262954 0.1267296 0.1273129 0.1279525 0.1285535 0.1290295 0.1293052 0.1293273
 0.1290828 0.1286049 0.1279545 0.127195 0.1263806 0.125552 0.1247389 0.1239789 0.1233486 0.122969
 0.1229709 0.1234467 0.124419 0.1258231 0.127503 0.1292457 0.1308626 0.1322611 0.1334477 0.1344734
 0.1353852 0.1362174 0.1369989 0.1377479 0.1384644 0.1391391 0.1397689 0.1403586 0.1409091 0.1414105
 0.1418451 0.1421931 0.1424437 0.1426049 0.1427009 0.1427535 0.1427739 0.1427719 0.1427567 0.142718
 0.1426147 0.1423945 0.1420281 0.1415313 0.1409729 0.1404785 0.1402175 0.1403622 0.1410186 0.1421647
 0.1436448 0.1452361 0.1467405 0.1480364 0.1490803 0.1498895 0.1505214 0.1510442 0.1515072 0.1519341
 0.1523355 0.1527189 0.15309 0.1534505 0.1537989 0.1541358 0.1544684 0.1548062 0.1551509 0.1554945
 0.1558295 0.1561592 0.156495 0.1568457 0.1572078 0.1575684 0.1579197 0.1582677 0.1586211 0.1589739
 0.1593106 0.159627 0.1599364 0.1602548 0.160588 0.160932 0.1612779 0.1616134 0.1619287 0.1622239
 0.1625081 0.1627903 0.1630734 0.1633566 0.1636395 0.1639223 0.1642036 0.1644829 0.164763 0.1650466
 0.165331 0.165608 0.165872 0.1661256 0.1663758 0.1666264 0.1668768 0.1671256 0.1673757 0.1676335
 0.1679046 0.1681868 0.16847 0.1687429 0.1690012 0.1692482 0.1694906 0.1697336 0.169979 0.1702275
 0.1704795 0.1707351 0.1709933 0.1712511 0.171506 0.1717572 0.1720053 0.1722521 0.1724998 0.1727498
 0.1730026 0.1732564 0.1735086 0.173759 0.1740108 0.1742649 0.1745168 0.1747606 0.1749956 0.1752254
 0.175453 0.1756814 0.1759147 0.1761558 0.1764029 0.1766514 0.1768981 0.1771425 0.1773861 0.1776308
 0.1778772 0.1781244 0.1783723 0.1786202 0.1788659 0.1791077 0.1793471 0.1795858 0.1798237 0.1800618
 0.1803046 0.1805544 0.1808071 0.1810543 0.1812905 0.1815175 0.1817429 0.1819739 0.1822118 0.182453
 0.1826935 0.1829309 0.1831645 0.1833962 0.183629 0.1838633 0.1840972 0.18433 0.184563 0.1847983
 0.1850374 0.1852797 0.185522 0.1857605 0.1859954 0.1862296 0.1864665 0.1867072 0.186949 0.1871886
 0.187426 0.1876643 0.1879038 0.1881415 0.1883768 0.1886126 0.188852 0.1890967 0.1893462 0.1895962
 0.1898426 0.1900865 0.1903307 0.1905742 0.1908154 0.1910569 0.1913024 0.1915529 0.1918082 0.1920673
 0.1923281 0.1925901 0.1928548 0.1931219 0.193387 0.1936466 0.193899 0.1941433 0.1943803 0.194613
 0.1948429 0.19507 0.1952966 0.1955256 0.1957567 0.1959879 0.1962175 0.1964439 0.196669 0.1968992
 0.1971384 0.1973834 0.1976306 0.1978804 0.1981324 0.1983845 0.1986377 0.1988925 0.1991467 0.1994009
 0.1996601 0.1999258 0.2001925 0.200455 0.2007115 0.200965 0.2012229 0.2014913 0.2017668 0.2020412
 0.2023111 0.2025759 0.2028356 0.2030955 0.2033619 0.2036337 0.2039059 0.2041789 0.2044531 0.2047248
 0.2049946 0.2052671 0.2055408 0.205812 0.2060832 0.2063572 0.2066306 0.2069031 0.2071793 0.2074586
 0.2077367 0.2080133 0.208288 0.2085583 0.2088288 0.2091061 0.2093873 0.2096662 0.2099445 0.2102224
 0.2104944 0.2107605 0.2110231 0.2112712 0.2114823 0.2116109 0.2115307 0.2109654 0.2094507 0.206346
 0.20096 0.1928224 0.1819642 0.1690023 0.154973 0.1410094 0.1280327 0.1166218 0.1070813 0.09956197
 0.09414953 0.09094535 0.09012809 0.09203532 0.09727298 0.1063559 0.1183923 0.1299491 0.1363362 0.1351573
 0.1284811 0.1209648 0.1160624 0.1143291 0.1145988 0.115721 0.1172413 0.1192703 0.1220843 0.1257173
 0.1299218 0.1345727 0.1399012 0.1461415 0.1530758 0.1601147 0.1667936 0.1730741 0.1791671 0.1851656
 0.1909041 0.1961183 0.2006489 0.2044965 0.2077677 0.2106068 0.2131366 0.2154305 0.2175348 0.2194789
 0.2212359 0.2226999 0.2237482 0.2243406 0.224568 0.224612 0.2246462 0.2247605 0.2249673 0.2252545
 0.2256119 0.2260284 0.2264935 0.2269992 0.2275324 0.2280771 0.228624 0.2291672 0.2296967 0.2302048
 0.2306902 0.2311492 0.2315776 0.2319817 0.2323732 0.232756 0.2331299 0.2334971 0.233858 0.2342117
 0.2345608 0.234907 0.2352427 0.235557 0.2358467 0.236115 0.2363691 0.2366216 0.2368844 0.2371585
 0.2374347 0.2377016 0.2379527 0.238192 0.2384302 0.2386729 0.2389173 0.2391606 0.2394041 0.2396462
 0.2398837 0.2401192 0.2403583 0.2406011 0.2408436 0.2410833 0.2413203 0.2415565 0.2417943 0.2420346
 0.2422777 0.2425283 0.2427899 0.2430574 0.2433234 0.2435889 0.2438591 0.2441342 0.2444105 0.2446863
 0.2449607 0.2452344 0.2455112 0.2457917 0.2460657 0.2463188 0.2465466 0.2467599 0.2469773 0.2472129
 0.2474659 0.2477232 0.2479736 0.2482164 0.2484562 0.248696 0.2489371 0.2491794 0.2494237 0.2496772
 0.2499504 0.2502442 0.2505465 0.2508446 0.2511336 0.2514154 0.2516981 0.2519906 0.2522915 0.2525865
 0.2528647 0.2531337 0.2534161 0.2537295 0.2540694 0.2544115 0.2547331 0.2550343 0.2553337 0.255648
 0.255982 0.2563247 0.2566464 0.2569164 0.2571425 0.2573806 0.2576855 0.2580597 0.258458 0.2588356
 0.2591798 0.2595029 0.2598185 0.2601267 0.2604178 0.2606835 0.2609325 0.2611976 0.2615167 0.2618925
 0.2622831 0.2626443 0.2629678 0.26327 0.2635661 0.2638629 0.2641464 0.2643704 0.2645013 0.2645934
 0.2647771 0.2651383 0.2656276 0.266114 0.2665151 0.2668461 0.2671557 0.2674615 0.2677572 0.2680218
 0.2681876 0.2681741 0.2680319 0.267996 0.2682945 0.2689172 0.2696402 0.2702533 0.2707003 0.2710344
 0.2713232 0.2716006 0.2718477 0.2719976 0.2720076 0.2719583 0.2720418 0.2723874 0.2729165 0.2734283
 0.2738116 0.2741082 0.2743991 0.2747124 0.2750088 0.2751642 0.2750235 0.2746098 0.274265 0.2744286
 0.2752139 0.2762805 0.277175 0.2777328 0.2780844 0.2783424 0.2784333 0.2782357 0.2777313 0.2770128
 0.2763283 0.2761203 0.2767347 0.2779769 0.2791952 0.279936 0.2803342 0.2807764 0.2813969 0.282023
 0.2824489 0.2826204 0.282598 0.2824306 0.2821301 0.2818108 0.2817743 0.2822945 0.2832968 0.2843758
 0.2851775 0.2856797 0.2860289 0.2861243 0.2855084 0.283907 0.2819417 0.2809764 0.2819058 0.2842161
 0.2865425 0.2880185 0.2887541 0.2892019 0.2895658 0.2897391 0.2892926 0.2876187 0.2847569 0.282114
 0.2816111 0.283792 0.287217 0.289858 0.2906454 0.289688 0.2877656 0.2859695 0.2853093 0.2861626
 0.2881198 0.2904046 0.2923387 0.2935237 0.2938693 0.2935578 0.2929679 0.2925741 0.2926492 0.292859
 0.2924713 0.2913082 0.2900863 0.2893065 0.2883257 0.2864063 0.284371 0.2840895 0.2861694 0.2890791
 0.2909252 0.2913923 0.2913912 0.2912226 0.2898358 0.2862077 0.2812315 0.2776871 0.2778637 0.281277
 0.2851509 0.2871473 0.2872166 0.286805 0.2868162 0.2866514 0.2850984 0.2820514 0.279174 0.2784078
 0.279794 0.2814059 0.2814795 0.2796453 0.2759929 0.2706328 0.2651694 0.262999 0.2663103 0.2733588
 0.2800107 0.2833125 0.2824146 0.277335 0.2692581 0.2618194 0.2594748 0.2633891 0.2700742 0.2747691
 0.2751935 0.2716389 0.2650267 0.2565121 0.2484989 0.2443376 0.2461894 0.2532911 0.2620931 0.2677886
 0.2667701 0.2595274 0.2513681 0.2484162 0.2518536 0.257145 0.2593737 0.2578647 0.2551541 0.2535296
 0.2537712 0.2555886 0.2579502 0.2598948 0.2612709 0.2613714 0.2575726 0.2482347 0.2370159 0.2309334
 0.2331318 0.2403502 0.248238 0.2557316 0.262638 0.2664976 0.2652 0.2611642 0.2597974 0.2637235
 0.270284 0.2749333 0.2758515 0.2746881 0.2735572 0.2725197 0.2706212 0.2686023 0.2689356 0.2727492
 0.2780595 0.2819231 0.2833884 0.2834957 0.2833012 0.2829862 0.2824072 0.2815378 0.2804251 0.2792028
 0.2780803 0.2771137 0.2761627 0.2751637 0.2740594 0.2722008 0.2683972 0.2624662 0.2565615 0.25369
 0.254556 0.2571141 0.2595032 0.261395 0.2615519 0.2568159 0.246238 0.2347808 0.229906 0.2343597
 0.2439826 0.2523755 0.2559617 0.2544284 0.2485497 0.2398211 0.2319726 0.2303316 0.2377209 0.251496
 0.2659123 0.2769802 0.2839866 0.2872697 0.286684 0.2827308 0.277835 0.2753874 0.2774158 0.2832534
 0.2900532 0.2941177 0.2925056 0.2854468 0.2779517 0.2767912 0.2837886 0.2934001 0.2988316 0.2991552
 0.2983339 0.2989268 0.2998943 0.300073 0.3006195 0.3030612 0.3067825 0.3095387 0.3094667 0.3058634
 0.2991725 0.2915353 0.2864611 0.2860505 0.2886748 0.290845 0.2907953 0.2885237 0.2835984 0.2761084
 0.2694139 0.2683469 0.2737201 0.2810932 0.2858327 0.2874271 0.2880552 0.2886676 0.2878712 0.2842674
 0.2789341 0.2749649 0.2744383 0.2764572 0.278629 0.2796597 0.2795598 0.2781443 0.2750396 0.2712927
 0.2695183 0.2715731 0.2765651 0.281717 0.2849146 0.2859979 0.2859606 0.285671 0.2854065 0.2850084
 0.2843008 0.2836794 0.2841438 0.286231 0.2890769 0.2912034 0.2922283 0.2931809 0.2950556 0.2975966
 0.2996914 0.3006015 0.3006122 0.3006686 0.3015232 0.303116 0.3046322 0.3052218 0.3048358 0.3043804
 0.3049022 0.306592 0.3087105 0.3104378 0.3115598 0.312353 0.3131194 0.3139276 0.3145816 0.3147848
 0.3145358 0.3143673 0.3149511 0.3163996 0.3181299 0.3194513 0.3201314 0.3203618 0.3203645 0.320179
 0.3197715 0.3192152 0.318699 0.3183815 0.3182786 0.3182941 0.3183262 0.3183261 0.318295 0.31827
 0.3183007 0.3184094 0.3185784 0.3187822 0.3190075 0.3192293 0.3194048 0.3195186 0.3196024 0.3196822
 0.319725 0.3196579 0.3194176 0.318963 0.3182574 0.3172663 0.315964 0.3143208 0.3123063 0.309983
 0.3076687 0.305975 0.3055564 0.306693 0.3090667 0.3119418 0.3145857 0.3165866 0.3178907 0.3186461
 0.3190348 0.3191919 0.3191971 0.3190914 0.3188983 0.3186383 0.3183309 0.3179888 0.317625 0.3172635
 0.3169312 0.3166365 0.3163611 0.3160715 0.3157369 0.3153384 0.3148699 0.3143345 0.3137371 0.3130736
 0.3123225 0.3114574 0.31048 0.30944 0.3084125 0.307451 0.3065583 0.3056971 0.3048218 0.3038918
 0.3028529 0.3016358 0.3002269 0.2987523 0.2974361 0.2964234 0.2956545 0.2949314 0.2940868 0.2930708
 0.2919146 0.2906687 0.2893754 0.2880599 0.2867228 0.2853405 0.2838807 0.28232 0.280654 0.2788953
 0.2770614 0.2751683 0.2732346 0.2712777 0.2692849 0.2671821 0.2648349 0.2620853 0.2587954 0.2548738
 0.2502935 0.2451128 0.2394881 0.2336478 0.2278301 0.2222319 0.2170026 0.212267 0.2081405 0.2047252
 0.2020979 0.2003024 0.199353 0.1992479 0.199976 0.2015083 0.2037783 0.2066696 0.2100208 0.213643
 0.2173368 0.2209127 0.2242328 0.2272575 0.2300402 0.2326535 0.2351144 0.2373812 0.2394074 0.2411798
 0.2427087 0.244003 0.2450688 0.2459282 0.2466263 0.2472144 0.2477267 0.2481715 0.2485411 0.2488273
 0.2490376 0.2492008 0.2493549 0.2495274 0.2497248 0.2499422 0.2501808 0.2504599 0.2508109 0.2512592
 0.2518087 0.2524422 0.2531334 0.2538611 0.2546225 0.2554349 0.2563282 0.2573341 0.2584832 0.2597993
 0.2612853 0.2629087 0.2645973 0.2662499 0.2677562 0.269022 0.2699892 0.2706457 0.2710175 0.2711472
 0.2710712 0.2708152 0.270401 0.2698525 0.2691965 0.2684636 0.267681 0.2668591 0.265987 0.2650493
 0.2640497 0.2630172 0.2619871 0.2609793 0.2599981 0.2590465 0.2581294 0.2572438 0.2563811 0.2555397
 0.2547258 0.2539449 0.2531993 0.2524907 0.2518144 0.2511516 0.2504667 0.2497109 0.2488345 0.2478057
 0.2466165 0.2452722 0.2437823 0.2421602 0.2404207 0.2385756 0.2366359 0.2346137 0.2325172 0.2303484
 0.2281005 0.2257607 0.2233354 0.2208825 0.2185009 0.2162731 0.2142257 0.2123423 0.2105921 0.2089467
 0.2073871 0.2059009 0.2044762 0.2031038 0.201784 0.2005195 0.1993108 0.1981642 0.1970966 0.1961261
 0.1952668 0.1945276 0.1939058 0.1933854 0.1929482 0.1925815 0.1922852 0.1920863 0.1920249 0.1920984
 0.1922324 0.1923288 0.1923348 0.1922624 0.1921623 0.192084 0.192049 0.1920521 0.1920748 0.1920736
 0.1919627 0.1916348 0.1909985 0.189989 0.1885743 0.1867758 0.1846764 0.1824091 0.1801414 0.1780429
 0.176236 0.174775 0.1736614 0.1728475 0.1722411 0.1717607 0.1713968 0.1712118 0.1712795 0.1715997
 0.1720368 0.1723821 0.1725397 0.1726382 0.1729197 0.1735333 0.1744486 0.1755115 0.1765519 0.1774642
 0.1782151 0.1787985 0.1792185 0.1795024 0.1796798 0.1797506 0.1797022 0.179537 0.1792631 0.1788898
 0.1784363 0.1779099 0.1772885 0.1765551 0.1757222 0.1748029 0.1737978 0.1727058 0.1715017 0.1701429
 0.1686727 0.1672994 0.1663201 0.1659641 0.1662779 0.1671033 0.1681896 0.1693611 0.1705387 0.171617
 0.1724709 0.1731566 0.1739965 0.1753614 0.1773564 0.1797149 0.1819849 0.1838158 0.1850678 0.1857194
 0.1857961 0.1853748 0.1845198 0.1832185 0.1814731 0.1793934 0.177127 0.174803 0.1725757 0.1705845
 0.1688761 0.1674549 0.1663202 0.1654673 0.164963 0.1645395 0.1626166 0.1568543 0.1474762 0.1394213
 0.1386142 0.1455772 0.154699 0.160256 0.1612729 0.160156 0.1589065 0.1579582 0.1572383 0.156821
 0.1567624 0.1569582 0.1571893 0.1572268 0.1569714 0.1564339 0.1554819 0.1536109 0.1499418 0.1435358
 0.134087 0.1225635 0.1109983 0.1014098 0.09480684 0.09098653 0.08897474 0.08770268 0.08661401 0.08585423
 0.08591616 0.08713135 0.08948482 0.09276623 0.09672192 0.1010218 0.105205 0.1088234 0.1116756 0.1138238
 0.115384 0.1163975 0.116896 0.11696 0.1166788 0.1161224 0.1153506 0.1143919 0.113224 0.1118293
 0.1102895 0.1088142 0.107648 0.1069116 0.1065318 0.1063463 0.1062523 0.1062259 0.1062583 0.1063346
 0.1064504 0.1066133 0.1068405 0.107151 0.1075292 0.1079063 0.1082071 0.1084007 0.1084958 0.1085014
 0.1083964 0.1081472 0.1077764 0.1073796 0.1069945 0.1064754 0.1056065 0.1043783 0.1030952 0.1021838
 0.1018988 0.1021725 0.1026967 0.1031526 0.1034008 0.10349 0.1035157 0.1034791 0.1032725 0.1028018
</values></Ydata></ScRf><Data_Parameters_AB><parameter name="DPF">1</parameter><parameter name="NPT">3497</parameter><parameter name="FXV">3996</parameter><parameter name="LXV">500</parameter><parameter name="CSF">1</parameter><parameter name="MXY">0.0238152109086514</parameter><parameter name="MNY">-0.0360069535672665</parameter><parameter name="DAT">18/01/2024</parameter><parameter name="TIM">12:06:42.211 (GMT+1)</parameter><parameter name="DXU">WN</parameter></Data_Parameters_AB><AB__Qtest><MainReport name="Quality Test Report"><Header><Line><Legend>Test result ok/not ok [1/0]: </Legend><Value>0</Value></Line><Line><Legend>Method file: </Legend><Value>C:\Users\Public\Documents\Bruker\OPUS_8.2.28\QT\IRBT_v3_default.QT</Value></Line></Header><Matrix><Line><Legend></Legend><Legend>min</Legend><Legend>max</Legend><Legend>measured</Legend></Line><Line><Value>Absorption (X-Range 1):</Value><Value>0.400000</Value><Value>2.000000</Value><Value>0.026961</Value></Line><Line><Value>Noise (X-Range 4):</Value><Value></Value><Value>0.000300</Value><Value>0.000025</Value></Line><Line><Value>Signal/Noise (X-Range 2):</Value><Value>200.000000</Value><Value></Value><Value>9.623006</Value></Line><Line><Value>Signal/Noise (X-Range 3):</Value><Value>40.000000</Value><Value></Value><Value>6.314256</Value></Line><Line><Value>Water vapour (X-Range 5):</Value><Value></Value><Value>0.000300</Value><Value>0.000015</Value></Line><Line><Value>Signal/Water (X-Range 2):</Value><Value>100.000000</Value><Value></Value><Value>15.722364</Value></Line><Line><Value>Signal/Water (X-Range 3):</Value><Value>20.000000</Value><Value></Value><Value>10.316426</Value></Line><Line><Value>Fringes (X-Range 6):</Value><Value></Value><Value>0.000100</Value><Value>0.000024</Value></Line></Matrix></MainReport></AB__Qtest><Data_Parameters_ScSm><parameter name="DPF">1</parameter><parameter name="NPT">1814</parameter><parameter name="FXV">3996.63438082617</parameter><parameter name="LXV">499.579297603271</parameter><parameter name="CSF">1</parameter><parameter name="MXY">0.323715806007385</parameter><parameter name="MNY">0.0748591870069504</parameter><parameter name="DAT">18/01/2024</parameter><parameter name="TIM">12:06:42.211 (GMT+1)</parameter><parameter name="DXU">WN</parameter></Data_Parameters_ScSm><Data_Parameters_ScRf><parameter name="DPF">1</parameter><parameter name="NPT">1820</parameter><parameter name="FXV">4004.34989121387</parameter><parameter name="LXV">495.721542409425</parameter><parameter name="CSF">1</parameter><parameter name="MXY">0.320364505052567</parameter><parameter name="MNY">0.0692752972245216</parameter><parameter name="DAT">18/01/2024</parameter><parameter name="TIM">12:06:15.118 (GMT+1)</parameter><parameter name="DXU">WN</parameter></Data_Parameters_ScRf><Optic_Parameters_Rf><parameter name="APR">0</parameter><parameter name="APT">Open</parameter><parameter name="BMS">KBr</parameter><parameter name="DTC">RT-DLaTGS_IR-Biotyper [Microplate reader]</parameter><parameter name="HPF">0</parameter><parameter name="LPF">10.0</parameter><parameter name="LPV">4000</parameter><parameter name="PGR">0</parameter><parameter name="RCH">Module port</parameter><parameter name="RDX">0</parameter><parameter name="SRC">MIR</parameter><parameter name="VEL">10.0</parameter><parameter name="SON">Off</parameter></Optic_Parameters_Rf><Acquisition_Parameters_Rf><parameter name="ADT">1</parameter><parameter name="AQM">DD</parameter><parameter name="CFE">0</parameter><parameter name="COR">0</parameter><parameter name="DEL">0</parameter><parameter name="DLY">0</parameter><parameter name="HFW">8000</parameter><parameter name="LFW">0</parameter><parameter name="NSR">32</parameter><parameter name="PLF">AB</parameter><parameter name="RES">6</parameter><parameter name="RGN">-1</parameter><parameter name="STR">0</parameter><parameter name="TCL">MakeCompatibleScalar (0, {WSV=1.000000, ARV=0});</parameter><parameter name="TDL">37</parameter><parameter name="RPO">0</parameter></Acquisition_Parameters_Rf><FT_-_Parameters_Rf><parameter name="APF">B3</parameter><parameter name="HFQ">500</parameter><parameter name="LFQ">4000</parameter><parameter name="NLI">0</parameter><parameter name="PHR">24</parameter><parameter name="PHZ">ML</parameter><parameter name="SPZ">NO</parameter><parameter name="ZFF">1</parameter></FT_-_Parameters_Rf><Optic_Parameters_><parameter name="APR">0</parameter><parameter name="APT">Open</parameter><parameter name="BMS">KBr</parameter><parameter name="CHN">Module port</parameter><parameter name="DTC">RT-DLaTGS_IR-Biotyper [Microplate reader]</parameter><parameter name="HPF">0</parameter><parameter name="LPF">10.0</parameter><parameter name="LPV">4000</parameter><parameter name="PGN">0</parameter><parameter name="RDX">0</parameter><parameter name="SRC">MIR</parameter><parameter name="VEL">10.0</parameter><parameter name="SON">Off</parameter></Optic_Parameters_><FT_-_Parameters_><parameter name="APF">B3</parameter><parameter name="HFQ">500</parameter><parameter name="LFQ">4000</parameter><parameter name="NLI">0</parameter><parameter name="PHR">24</parameter><parameter name="PHZ">ML</parameter><parameter name="SPZ">NO</parameter><parameter name="ZFF">1</parameter></FT_-_Parameters_><Acquisition_Parameters_><parameter name="ADT">1</parameter><parameter name="AQM">DD</parameter><parameter name="CFE">0</parameter><parameter name="COR">0</parameter><parameter name="DEL">0</parameter><parameter name="DLY">0</parameter><parameter name="HFW">8000</parameter><parameter name="LFW">0</parameter><parameter name="NSS">32</parameter><parameter name="PLF">AB</parameter><parameter name="RES">6</parameter><parameter name="SOT">0</parameter><parameter name="TCL">MakeCompatibleScalar (0, {WSV=1.000000, ARV=0});</parameter><parameter name="TDL">37</parameter><parameter name="SPO">0</parameter><parameter name="SGN">-1</parameter></Acquisition_Parameters_><Instrument_Parameters_Rf><parameter name="HFL">15801.365274</parameter><parameter name="LFL">0</parameter><parameter name="LWN">15801.365274</parameter><parameter name="ABP">32157</parameter><parameter name="SSP">1</parameter><parameter name="ARG">2</parameter><parameter name="ASG">2</parameter><parameter name="ASS">32</parameter><parameter name="GFW">16</parameter><parameter name="GBW">16</parameter><parameter name="BFW">0</parameter><parameter name="BBW">0</parameter><parameter name="PKA">9307</parameter><parameter name="PKL">4987</parameter><parameter name="PRA">9275</parameter><parameter name="PRL">5010</parameter><parameter name="P2A">1</parameter><parameter name="P2L">1</parameter><parameter name="P2R">1</parameter><parameter name="P2K">1</parameter><parameter name="DAQ">0</parameter><parameter name="AG2">1</parameter><parameter name="SSM">1</parameter><parameter name="RSN">46660</parameter><parameter name="CRR">0</parameter><parameter name="SRT">1705579575.119</parameter><parameter name="DUR">19.6449890136719</parameter><parameter name="TSC">31</parameter><parameter name="MVD">0.331721603870392</parameter><parameter name="AN1">0.226022052737046</parameter><parameter name="AN2">0</parameter><parameter name="VSN">2.485 Apr  4 2017</parameter><parameter name="SRN">0085</parameter><parameter name="CAM">0</parameter><parameter name="INS">IR-Biotyper</parameter><parameter name="FOC">69</parameter><parameter name="RDY">1</parameter><parameter name="ARS">32</parameter></Instrument_Parameters_Rf><Sample_Parameters_><parameter name="BLD"></parameter><parameter name="CNM">Admin</parameter><parameter name="CPY"></parameter><parameter name="DPM"></parameter><parameter name="EXP">IRBT_v3_32Scans.XPM</parameter><parameter name="LCT"></parameter><parameter name="SFM">Microplate, HTS-XT</parameter><parameter name="SNM">240118-1045-Cdiff_SCFA_2_C33_232125534_G10_ed234663-b900-4034-b5f1-649fa02b59e9.0</parameter><parameter name="XPP">C:\Users\Public\Documents\Bruker\OPUS_8.2.28\XPM</parameter><parameter name="IST">OK</parameter><parameter name="CPG">1252</parameter><parameter name="UID">e06ca240-788c-40d1-b7ea-11add7801d74</parameter></Sample_Parameters_><Instrument_Parameters_><parameter name="HFL">15801.365274</parameter><parameter name="LFL">0</parameter><parameter name="LWN">15801.365274</parameter><parameter name="ABP">32157</parameter><parameter name="SSP">1</parameter><parameter name="ASG">2</parameter><parameter name="ARG">2</parameter><parameter name="ASS">32</parameter><parameter name="GFW">16</parameter><parameter name="GBW">16</parameter><parameter name="BFW">0</parameter><parameter name="BBW">0</parameter><parameter name="PKA">9475</parameter><parameter name="PKL">4987</parameter><parameter name="PRA">9485</parameter><parameter name="PRL">5010</parameter><parameter name="P2A">1</parameter><parameter name="P2L">1</parameter><parameter name="P2R">1</parameter><parameter name="P2K">1</parameter><parameter name="DAQ">0</parameter><parameter name="AG2">1</parameter><parameter name="SSM">1</parameter><parameter name="RSN">24023</parameter><parameter name="CRR">0</parameter><parameter name="SRT">1705579602.212</parameter><parameter name="DUR">19.6449890136719</parameter><parameter name="TSC">31</parameter><parameter name="MVD">0.30698373913765</parameter><parameter name="AN1">0.22599704231434</parameter><parameter name="AN2">0</parameter><parameter name="VSN">2.485 Apr  4 2017</parameter><parameter name="SRN">0085</parameter><parameter name="CAM">0</parameter><parameter name="INS">IR-Biotyper</parameter><parameter name="FOC">69</parameter><parameter name="RDY">1</parameter></Instrument_Parameters_><History/></OPUSDataFile>
