<?xml version="1.0" encoding="UTF-8" ?>
<OPUSDataFile><AB><Ydata ylabel="Absorbance Units"><values byteorder="INTEL" format="FLOAT32" numvalues="3497"> -0.03294506 -0.03292727 -0.03291938 -0.03292011 -0.03292575 -0.03293515 -0.03294401 -0.03295212 -0.03295727 -0.03295996
 -0.03296001 -0.03295771 -0.0329533 -0.03294676 -0.03293836 -0.0329273 -0.03291371 -0.0328953 -0.03287162 -0.03284089
 -0.03280218 -0.03275978 -0.03271358 -0.03267453 -0.03264318 -0.03262851 -0.03262986 -0.03264412 -0.0326691 -0.03269172
 -0.03271083 -0.03271468 -0.03270607 -0.03268426 -0.03265486 -0.03262628 -0.03260157 -0.03258833 -0.03258341 -0.0325877
 -0.03259522 -0.03260275 -0.03260825 -0.03260961 -0.03260983 -0.03260954 -0.03260944 -0.03261035 -0.03260675 -0.03259825
 -0.03258015 -0.03255227 -0.03251847 -0.03247946 -0.03244442 -0.03241335 -0.03239146 -0.03237729 -0.03236879 -0.03236467
 -0.03236103 -0.03235762 -0.03235255 -0.03234569 -0.03233657 -0.03232403 -0.03230672 -0.03228493 -0.03225748 -0.03222867
 -0.03219892 -0.03217528 -0.03215975 -0.03215532 -0.03216353 -0.03217878 -0.03220103 -0.03222042 -0.03223648 -0.03224472
 -0.03224557 -0.03224242 -0.03223575 -0.03223028 -0.03222546 -0.03222194 -0.03221894 -0.03221485 -0.03220947 -0.032202
 -0.03219195 -0.03217867 -0.03216128 -0.03213855 -0.03211133 -0.0320793 -0.03204498 -0.0320091 -0.03197368 -0.03193913
 -0.03190761 -0.03187918 -0.0318578 -0.03184381 -0.03184039 -0.03184772 -0.03186364 -0.03188773 -0.03191414 -0.03194236
 -0.03196663 -0.03198644 -0.03199692 -0.03199792 -0.03198612 -0.03196314 -0.03192941 -0.03188825 -0.03184341 -0.03179748
 -0.03175359 -0.03171315 -0.03167732 -0.03164814 -0.03162668 -0.0316139 -0.03161107 -0.03161357 -0.03162126 -0.03162699
 -0.03162983 -0.03162812 -0.03162174 -0.0316158 -0.03161047 -0.0316097 -0.03161259 -0.03161616 -0.03161901 -0.03161399
 -0.03160173 -0.03157902 -0.03154996 -0.03151998 -0.0314918 -0.03147205 -0.03145742 -0.03144772 -0.03143911 -0.03142871
 -0.03141705 -0.03140328 -0.03139026 -0.03137904 -0.03136881 -0.03135988 -0.03134899 -0.0313357 -0.03131981 -0.03130128
 -0.03128206 -0.03126209 -0.03124042 -0.03121704 -0.03119096 -0.03116321 -0.03113713 -0.03111361 -0.0310973 -0.03108655
 -0.03108109 -0.03107818 -0.03107394 -0.03106833 -0.0310593 -0.03105002 -0.03104185 -0.03103654 -0.03103587 -0.03103693
 -0.03103967 -0.03103957 -0.03103564 -0.0310266 -0.03101201 -0.03099422 -0.03097332 -0.03095207 -0.03093051 -0.03090967
 -0.03088959 -0.03087107 -0.03085409 -0.03083929 -0.0308261 -0.03081365 -0.03080096 -0.03078569 -0.03076797 -0.03074693
 -0.03072326 -0.03069744 -0.03066945 -0.0306392 -0.03060739 -0.03057334 -0.03054179 -0.03051331 -0.03049432 -0.03048656
 -0.03049022 -0.03050618 -0.03052533 -0.03054724 -0.03056032 -0.03056429 -0.03055362 -0.03052909 -0.03049283 -0.0304461
 -0.0303944 -0.03033923 -0.03028676 -0.03023866 -0.03020083 -0.03017352 -0.03016061 -0.0301578 -0.0301639 -0.03017164
 -0.03017617 -0.03017413 -0.0301619 -0.03014344 -0.03011844 -0.03009421 -0.03007206 -0.03005634 -0.03004801 -0.03004543
 -0.03004866 -0.03005102 -0.03005208 -0.03004356 -0.03002596 -0.02999774 -0.02996137 -0.02992583 -0.02989286 -0.0298729
 -0.02986296 -0.02986356 -0.02986871 -0.02987069 -0.0298667 -0.02985063 -0.02982518 -0.02978959 -0.029749 -0.02970515
 -0.02966231 -0.02962224 -0.02958601 -0.02955428 -0.02952574 -0.02950029 -0.02947698 -0.02945572 -0.02943705 -0.02942091
 -0.02940658 -0.02939375 -0.02937966 -0.02936432 -0.02934606 -0.02932574 -0.02930486 -0.02928409 -0.02926573 -0.02924896
 -0.02923425 -0.02921899 -0.02920129 -0.02917858 -0.02914835 -0.02911081 -0.02906459 -0.0290141 -0.02896009 -0.02890698
 -0.02885605 -0.02880762 -0.02876209 -0.02871666 -0.02867115 -0.02862436 -0.02857639 -0.02852982 -0.02848485 -0.02844432
 -0.02840773 -0.02837455 -0.02834391 -0.02831298 -0.02828168 -0.02824836 -0.02821369 -0.0281779 -0.02814166 -0.02810579
 -0.02807031 -0.02803559 -0.02800101 -0.02796676 -0.02793083 -0.02789287 -0.02785043 -0.02780264 -0.02775027 -0.02769294
 -0.02763573 -0.02757897 -0.02752689 -0.02747943 -0.02743385 -0.02738944 -0.02733904 -0.02728254 -0.0272152 -0.02713846
 -0.02705329 -0.02696247 -0.02687147 -0.02678283 -0.02670269 -0.02663078 -0.0265703 -0.02651596 -0.02646615 -0.02641384
 -0.02635505 -0.02628777 -0.02620975 -0.02612507 -0.02603404 -0.02594116 -0.02584736 -0.02575186 -0.0256548 -0.0255517
 -0.02544245 -0.02532589 -0.02520255 -0.02507616 -0.02494744 -0.02482153 -0.02469867 -0.02458206 -0.02447184 -0.02436962
 -0.02427573 -0.02419184 -0.02411649 -0.02405021 -0.02398753 -0.02392598 -0.02385861 -0.02378097 -0.02369216 -0.02358975
 -0.02348074 -0.02336585 -0.02325245 -0.02314193 -0.02303513 -0.02293242 -0.02282796 -0.02272152 -0.0226083 -0.0224889
 -0.0223663 -0.02224141 -0.02212045 -0.02200291 -0.02189078 -0.02178252 -0.02167593 -0.02157007 -0.02146271 -0.02135346
 -0.02124118 -0.02112568 -0.0210063 -0.02088387 -0.02075847 -0.02063134 -0.02050311 -0.02037333 -0.02024189 -0.02010898
 -0.01997416 -0.01984214 -0.01971316 -0.01959314 -0.01948226 -0.01938067 -0.01928771 -0.01919737 -0.01910903 -0.01901641
 -0.01891986 -0.01881714 -0.01870875 -0.01859469 -0.01847525 -0.01835063 -0.01822162 -0.01808869 -0.01795372 -0.01781791
 -0.01768337 -0.01755155 -0.01742295 -0.0172981 -0.01717667 -0.01705848 -0.01694434 -0.01683429 -0.01672942 -0.01662996
 -0.01653356 -0.01644004 -0.01634407 -0.01624556 -0.01614136 -0.01603202 -0.01591849 -0.01580153 -0.01568397 -0.01556616
 -0.01545051 -0.01533614 -0.01522345 -0.01510974 -0.01499224 -0.0148696 -0.01473867 -0.01460396 -0.0144657 -0.01433206
 -0.01420631 -0.01409102 -0.01398839 -0.01389226 -0.01380225 -0.01371156 -0.01361944 -0.01352461 -0.01342703 -0.01332818
 -0.01322795 -0.01312569 -0.01302119 -0.01291255 -0.01280046 -0.01268583 -0.01256999 -0.01245659 -0.01234556 -0.01223915
 -0.01213474 -0.0120304 -0.01192421 -0.01181335 -0.01169986 -0.01158363 -0.0114681 -0.0113548 -0.01124396 -0.01113623
 -0.0110292 -0.01092251 -0.01081551 -0.01070808 -0.01060104 -0.01049443 -0.01038789 -0.01028136 -0.01017381 -0.01006541
 -0.009956373 -0.009846967 -0.009738298 -0.009630335 -0.009523561 -0.009417803 -0.00931304 -0.009209014 -0.009105355 -0.009002183
 -0.008899398 -0.008797388 -0.008696549 -0.008596237 -0.00849661 -0.008395703 -0.008292856 -0.008188166 -0.008081271 -0.007975032
 -0.007869682 -0.00776715 -0.007667514 -0.007568953 -0.007471396 -0.00737329 -0.007275013 -0.007177995 -0.007082351 -0.00698946
 -0.006898631 -0.00680874 -0.006719823 -0.006631055 -0.006543768 -0.006459408 -0.006377972 -0.006300889 -0.006224521 -0.006147953
 -0.006066248 -0.005976843 -0.005879692 -0.005773349 -0.005664395 -0.005553417 -0.005447142 -0.005346498 -0.005251492 -0.005162135
 -0.005073592 -0.004985791 -0.00489626 -0.004805614 -0.004716146 -0.004628271 -0.004544727 -0.004465262 -0.004390683 -0.00432051
 -0.004254485 -0.0041918 -0.004131895 -0.00407288 -0.004013591 -0.003951262 -0.003884109 -0.003810646 -0.003729378 -0.003642343
 -0.003549024 -0.003455492 -0.003362405 -0.003275817 -0.003196571 -0.003125374 -0.003062292 -0.003002123 -0.002944589 -0.00288457
 -0.002822497 -0.002758122 -0.002692342 -0.002628238 -0.002566188 -0.002508802 -0.002455527 -0.002406966 -0.002361531 -0.002318042
 -0.002274141 -0.002227423 -0.002177135 -0.002121524 -0.002063295 -0.00200254 -0.001943778 -0.00188827 -0.001838214 -0.001794509
 -0.001755162 -0.001720133 -0.001686691 -0.001654677 -0.001624255 -0.00159557 -0.00157101 -0.00155026 -0.001533015 -0.001518021
 -0.001500491 -0.001479699 -0.001450841 -0.001415564 -0.001373844 -0.00132901 -0.001284632 -0.001243818 -0.001210377 -0.00118533
 -0.001170835 -0.001164689 -0.00116726 -0.001173437 -0.001182309 -0.001188663 -0.001191416 -0.001188125 -0.001178277 -0.001162743
 -0.001141531 -0.001117772 -0.001091752 -0.001068182 -0.001047301 -0.001033124 -0.001025373 -0.001025345 -0.001032256 -0.001044816
 -0.00106251 -0.001084011 -0.001108754 -0.00113566 -0.001164115 -0.001193163 -0.001222866 -0.001252762 -0.001283987 -0.001317148
 -0.001351886 -0.001388795 -0.00142429 -0.001458143 -0.001485522 -0.001505792 -0.001517091 -0.001519222 -0.001515329 -0.001505854
 -0.00149818 -0.001492745 -0.001496327 -0.001508437 -0.001531139 -0.001563022 -0.001601611 -0.001645821 -0.001692702 -0.001741661
 -0.001791042 -0.001840019 -0.001887461 -0.001932633 -0.001974532 -0.002013905 -0.002050687 -0.002086159 -0.00212067 -0.00215492
 -0.002189021 -0.002223777 -0.002259225 -0.002296852 -0.002336788 -0.002377966 -0.002420159 -0.002459198 -0.002495031 -0.002524861
 -0.002549678 -0.002571763 -0.002592298 -0.0026157 -0.002641975 -0.002673331 -0.002708865 -0.002748288 -0.002790959 -0.00283647
 -0.00288366 -0.002932174 -0.002979665 -0.003025262 -0.003066774 -0.003102988 -0.003135074 -0.003162566 -0.00319023 -0.00321846
 -0.003251664 -0.003290191 -0.003334952 -0.003385805 -0.003439936 -0.003497053 -0.003553683 -0.003609926 -0.003664149 -0.003717008
 -0.003769169 -0.003821717 -0.003877055 -0.003935481 -0.003999013 -0.004065515 -0.004134725 -0.004201883 -0.004263974 -0.004318234
 -0.004361516 -0.004398296 -0.00442797 -0.004460961 -0.004499152 -0.004549253 -0.004612895 -0.004686274 -0.004769392 -0.004852269
 -0.004934575 -0.005010383 -0.00508035 -0.005146554 -0.005209788 -0.005274656 -0.005340903 -0.005410247 -0.005481952 -0.005555535
 -0.005630182 -0.005704993 -0.005778434 -0.005849046 -0.00591516 -0.005974522 -0.006029292 -0.006078683 -0.006129611 -0.006183822
 -0.006246543 -0.00631998 -0.006400443 -0.006488367 -0.006573413 -0.006654879 -0.006726078 -0.00678708 -0.00684123 -0.006889356
 -0.006939702 -0.006992036 -0.007050104 -0.007112333 -0.007175999 -0.007240581 -0.007302876 -0.007365526 -0.007430452 -0.007500606
 -0.007580563 -0.007668005 -0.007764199 -0.007861697 -0.007957546 -0.008046857 -0.008126524 -0.008199764 -0.008266072 -0.008332867
 -0.008401089 -0.00847475 -0.008554311 -0.008638645 -0.008727591 -0.008817477 -0.008907903 -0.008994129 -0.009075775 -0.009148269
 -0.009212235 -0.00926617 -0.009312982 -0.009357098 -0.009402003 -0.009454726 -0.009515688 -0.009588836 -0.009670028 -0.009758238
 -0.009848394 -0.009937661 -0.01002449 -0.01010735 -0.01018845 -0.01026792 -0.01034787 -0.01042871 -0.01051052 -0.0105934
 -0.01067559 -0.01075697 -0.01083513 -0.01090996 -0.01097945 -0.01104369 -0.01110167 -0.01115426 -0.01120284 -0.01124956
 -0.01129903 -0.0113534 -0.01141808 -0.01149242 -0.01157894 -0.01167256 -0.01177147 -0.01186925 -0.01196233 -0.012048
 -0.01212394 -0.01219308 -0.01225533 -0.01231528 -0.01237358 -0.01243277 -0.01249317 -0.01255419 -0.01261579 -0.01267728
 -0.01273882 -0.01280167 -0.01286608 -0.01293425 -0.01300567 -0.01308036 -0.01315679 -0.01323207 -0.01330479 -0.01337151
 -0.01343235 -0.01348569 -0.01353355 -0.01357606 -0.01361733 -0.01365889 -0.01370503 -0.01375779 -0.01381775 -0.01388622
 -0.01395731 -0.01403073 -0.01409871 -0.01416049 -0.01421368 -0.01425829 -0.01429819 -0.01433355 -0.01436759 -0.01439967
 -0.01442816 -0.01445271 -0.0144705 -0.01448375 -0.01449491 -0.01450784 -0.01452948 -0.01456131 -0.01460863 -0.01466745
 -0.01473761 -0.01481225 -0.0148881 -0.01496076 -0.01502771 -0.01508902 -0.01514424 -0.01519438 -0.01523965 -0.01527945
 -0.01531372 -0.0153422 -0.01536496 -0.01538472 -0.01540177 -0.01542006 -0.01543946 -0.01546138 -0.01548535 -0.01551039
 -0.01553662 -0.01556367 -0.01559209 -0.01562272 -0.01565529 -0.01569012 -0.01572602 -0.01576203 -0.01579808 -0.01583359
 -0.01587003 -0.01590781 -0.01594778 -0.01599057 -0.01603449 -0.01607957 -0.01612265 -0.0161634 -0.0162005 -0.01623391
 -0.0162653 -0.01629486 -0.01632522 -0.01635627 -0.01638879 -0.01642266 -0.01645741 -0.01649384 -0.01653323 -0.01657668
 -0.01662691 -0.01668298 -0.01674593 -0.01681152 -0.01687752 -0.01693921 -0.01699338 -0.01703861 -0.01707301 -0.01709984
 -0.01711909 -0.01713606 -0.01715154 -0.01716899 -0.01718891 -0.01721044 -0.01723352 -0.01725549 -0.01727645 -0.01729662
 -0.01731643 -0.01733846 -0.01736245 -0.01738921 -0.01741757 -0.01744514 -0.0174716 -0.017495 -0.01751664 -0.01753703
 -0.01755789 -0.01758059 -0.01760629 -0.01763614 -0.01766974 -0.01770771 -0.0177473 -0.01778853 -0.01782613 -0.01785941
 -0.01788374 -0.01789851 -0.01790313 -0.01789757 -0.01788519 -0.01786633 -0.01784594 -0.01782422 -0.01780482 -0.01778769
 -0.01777468 -0.01776538 -0.01775979 -0.01775751 -0.01775791 -0.01776082 -0.01776595 -0.01777279 -0.0177811 -0.01778979
 -0.01779848 -0.01780565 -0.01781074 -0.01781256 -0.01781064 -0.017805 -0.01779552 -0.01778299 -0.0177675 -0.01774886
 -0.01772706 -0.01770015 -0.017668 -0.01762829 -0.01758115 -0.01752604 -0.01746325 -0.01739362 -0.01731726 -0.01723488
 -0.01714636 -0.01705161 -0.01695106 -0.01684469 -0.01673424 -0.01662082 -0.01650627 -0.01639215 -0.01627832 -0.01616557
 -0.0160511 -0.01593454 -0.0158129 -0.01568561 -0.01555122 -0.01540949 -0.01526033 -0.01510372 -0.01494034 -0.01477054
 -0.01459846 -0.01442549 -0.01426178 -0.01410883 -0.0139779 -0.01386826 -0.01378451 -0.01372339 -0.01368172 -0.0136568
 -0.01364414 -0.01364281 -0.01365174 -0.01366696 -0.0136884 -0.01370442 -0.01371189 -0.01369769 -0.01365715 -0.01358711
 -0.01348512 -0.01336078 -0.01321448 -0.01305822 -0.01289272 -0.01272354 -0.01255068 -0.01237513 -0.01219719 -0.01201923
 -0.01184186 -0.01166897 -0.01150002 -0.01133617 -0.01117543 -0.01101531 -0.01085343 -0.01068592 -0.0105117 -0.01032782
 -0.01013689 -0.00993704 -0.00974011 -0.009545809 -0.009381619 -0.009250148 -0.009193994 -0.009219423 -0.009364033 -0.00963407
 -0.01003009 -0.01055286 -0.01115273 -0.01182513 -0.01249409 -0.01315639 -0.01375219 -0.01428514 -0.01473514 -0.0151112
 -0.01542472 -0.01568409 -0.01590889 -0.01610302 -0.01627869 -0.01643694 -0.01658204 -0.01671532 -0.01683797 -0.01695288
 -0.01706107 -0.01716582 -0.01726826 -0.01736997 -0.01747163 -0.01757215 -0.01767166 -0.01776673 -0.01785718 -0.01793852
 -0.01801057 -0.01807041 -0.0181181 -0.01815272 -0.01817435 -0.01818268 -0.01817782 -0.01815934 -0.01812867 -0.01808724
 -0.0180386 -0.0179874 -0.01793674 -0.01789158 -0.01785059 -0.01781524 -0.01778049 -0.01774466 -0.01770436 -0.01765805
 -0.01760583 -0.01754805 -0.01748144 -0.01740647 -0.01731133 -0.01719539 -0.01704441 -0.01685819 -0.01663145 -0.0163671
 -0.0160792 -0.01577674 -0.0154989 -0.01526051 -0.01511969 -0.01508547 -0.01520717 -0.01546804 -0.01587695 -0.01638649
 -0.01696491 -0.01755911 -0.01812793 -0.01864546 -0.01908793 -0.01946317 -0.01976696 -0.02001961 -0.020224 -0.02039523
 -0.02053521 -0.02065409 -0.02075255 -0.02084088 -0.02091951 -0.0209967 -0.02107206 -0.02114699 -0.02122024 -0.02128733
 -0.02134763 -0.02139653 -0.02143549 -0.0214646 -0.02148649 -0.02150461 -0.02152057 -0.02153712 -0.02155452 -0.02157349
 -0.02159465 -0.02161846 -0.02164519 -0.0216759 -0.02170611 -0.02173573 -0.02175718 -0.02176939 -0.02176906 -0.02175569
 -0.0217357 -0.02170956 -0.02168681 -0.02166755 -0.02165692 -0.02165437 -0.02166019 -0.02167389 -0.02169473 -0.02172152
 -0.02175252 -0.02178464 -0.02181338 -0.02183594 -0.02184733 -0.02184927 -0.02184036 -0.02182649 -0.02180957 -0.02179484
 -0.02178457 -0.02177973 -0.02178114 -0.02178688 -0.02179698 -0.02180831 -0.02182067 -0.02183099 -0.02183916 -0.02184336
 -0.02184381 -0.02184132 -0.0218362 -0.02183024 -0.02182338 -0.02181627 -0.02180883 -0.02180094 -0.02179324 -0.02178637
 -0.02178136 -0.02177967 -0.02178087 -0.02178563 -0.02179158 -0.02179814 -0.02180238 -0.02180312 -0.02179966 -0.0217913
 -0.02178057 -0.02176753 -0.02175573 -0.02174546 -0.02173775 -0.02173256 -0.02172817 -0.02172459 -0.02172104 -0.02171784
 -0.02171627 -0.02171603 -0.02171736 -0.02171879 -0.02171745 -0.02171272 -0.02170178 -0.02168699 -0.0216691 -0.0216517
 -0.02163794 -0.02162791 -0.02162322 -0.02161983 -0.02161679 -0.02161126 -0.02160197 -0.02159098 -0.02157815 -0.02156789
 -0.02156057 -0.02155799 -0.02156013 -0.0215652 -0.02157301 -0.02158115 -0.02158947 -0.02159605 -0.02160093 -0.02160313
 -0.02160306 -0.02160087 -0.02159742 -0.0215941 -0.02159104 -0.02158916 -0.02158727 -0.02158491 -0.02158085 -0.02157408
 -0.02156534 -0.02155432 -0.02154349 -0.02153332 -0.02152547 -0.0215204 -0.02151704 -0.02151542 -0.02151258 -0.02150838
 -0.02150062 -0.02148947 -0.02147554 -0.02145926 -0.02144299 -0.02142675 -0.02141189 -0.02139799 -0.02138466 -0.02137199
 -0.0213598 -0.02134858 -0.02133891 -0.02133064 -0.0213241 -0.02131832 -0.02131274 -0.02130747 -0.02130213 -0.02129842
 -0.02129669 -0.02129777 -0.02130211 -0.02130721 -0.02131299 -0.02131502 -0.02131308 -0.02130406 -0.02128824 -0.02126681
 -0.02124064 -0.02121449 -0.02118918 -0.02117001 -0.02115661 -0.02115116 -0.02115182 -0.02115704 -0.02116463 -0.02117185
 -0.0211772 -0.02117874 -0.02117621 -0.02116876 -0.02115745 -0.02114215 -0.02112525 -0.02110711 -0.0210903 -0.02107531
 -0.02106288 -0.02105316 -0.02104543 -0.02103965 -0.02103531 -0.0210324 -0.02103084 -0.02103059 -0.02103161 -0.02103361
 -0.02103568 -0.0210375 -0.02103797 -0.02103682 -0.02103297 -0.02102691 -0.02101854 -0.02100889 -0.0209987 -0.02098843
 -0.02097856 -0.02096881 -0.02095891 -0.02094989 -0.02094174 -0.02093662 -0.02093512 -0.02093595 -0.02093926 -0.02093952
 -0.02093645 -0.02092614 -0.02090905 -0.02088881 -0.02086626 -0.0208482 -0.020834 -0.02082557 -0.02082089 -0.02081614
 -0.02081074 -0.02080151 -0.02079047 -0.02077839 -0.02076762 -0.02076058 -0.02075703 -0.02075805 -0.0207606 -0.02076417
 -0.02076521 -0.02076273 -0.02075507 -0.02074151 -0.02072415 -0.02070287 -0.02068317 -0.02066533 -0.02065434 -0.02064992
 -0.02065102 -0.02065651 -0.02065948 -0.02065967 -0.02065182 -0.0206379 -0.02061949 -0.02059912 -0.02058194 -0.02056789
 -0.02055937 -0.02055404 -0.02055092 -0.02054811 -0.02054416 -0.02053883 -0.02053179 -0.02052273 -0.02051156 -0.02049785
 -0.02048139 -0.02046283 -0.02044209 -0.02042184 -0.02040221 -0.02038636 -0.02037434 -0.02036808 -0.02036711 -0.02037018
 -0.02037626 -0.02038121 -0.02038439 -0.02038183 -0.02037466 -0.02036246 -0.02034777 -0.02033332 -0.02032057 -0.02031196
 -0.02030644 -0.02030448 -0.02030339 -0.02030239 -0.02029924 -0.02029323 -0.02028331 -0.02026916 -0.02025093 -0.02022851
 -0.02020342 -0.02017572 -0.02014785 -0.02011997 -0.02009482 -0.02007237 -0.02005417 -0.02003985 -0.02002916 -0.02002138
 -0.02001481 -0.02000892 -0.02000195 -0.0199942 -0.01998512 -0.0199759 -0.01996742 -0.01996024 -0.01995537 -0.01995117
 -0.01994765 -0.0199417 -0.0199323 -0.01991879 -0.01990045 -0.01988091 -0.01986035 -0.01984316 -0.01982961 -0.01982043
 -0.01981545 -0.01981225 -0.01981065 -0.01980842 -0.01980565 -0.01980158 -0.01979632 -0.0197896 -0.01978191 -0.01977381
 -0.0197661 -0.01976024 -0.01975569 -0.01975317 -0.01974981 -0.01974422 -0.01973443 -0.01971862 -0.01969949 -0.01967684
 -0.01965612 -0.01963841 -0.0196255 -0.01961795 -0.01961249 -0.01960896 -0.01960381 -0.01959703 -0.01958815 -0.01957742
 -0.01956629 -0.01955473 -0.0195435 -0.01953234 -0.01952096 -0.01950912 -0.01949614 -0.0194824 -0.01946794 -0.0194536
 -0.01944003 -0.01942797 -0.01941833 -0.01941027 -0.01940394 -0.01939752 -0.01939055 -0.01938202 -0.01937144 -0.0193603
 -0.01934863 -0.01933857 -0.01933026 -0.0193235 -0.01931814 -0.01931165 -0.0193039 -0.01929272 -0.01927859 -0.01926206
 -0.01924384 -0.01922624 -0.01920918 -0.01919373 -0.01917932 -0.01916566 -0.01915233 -0.01913876 -0.01912514 -0.01911135
 -0.01909798 -0.01908523 -0.01907353 -0.01906323 -0.01905345 -0.01904426 -0.01903355 -0.01902105 -0.01900565 -0.01898723
 -0.01896802 -0.01894815 -0.01893028 -0.01891409 -0.01889858 -0.01888332 -0.01886562 -0.01884623 -0.01882535 -0.01880463
 -0.01878755 -0.01877395 -0.01876577 -0.01876026 -0.01875594 -0.01874998 -0.01873991 -0.01872573 -0.01870635 -0.01868449
 -0.01866038 -0.01863764 -0.01861699 -0.01860037 -0.01858827 -0.01857942 -0.01857381 -0.01856793 -0.01856163 -0.0185521
 -0.0185395 -0.01852354 -0.01850471 -0.01848471 -0.018464 -0.01844474 -0.01842696 -0.01841193 -0.01839896 -0.01838794
 -0.01837762 -0.01836683 -0.01835486 -0.01834067 -0.01832503 -0.01830771 -0.01829071 -0.01827449 -0.0182606 -0.01824956
 -0.01824096 -0.0182349 -0.01822984 -0.0182257 -0.01822197 -0.01821869 -0.01821656 -0.01821541 -0.01821446 -0.01821324
 -0.01820925 -0.01820259 -0.01819209 -0.01817846 -0.01816263 -0.0181448 -0.01812555 -0.01810506 -0.01808343 -0.0180615
 -0.01803995 -0.01801882 -0.01799847 -0.01797788 -0.01795677 -0.01793474 -0.01791161 -0.01788763 -0.01786287 -0.017837
 -0.01781 -0.01778268 -0.01775524 -0.01773164 -0.01771197 -0.01769928 -0.01769233 -0.01768772 -0.01768399 -0.01767468
 -0.01766083 -0.01764094 -0.01761772 -0.01759433 -0.01757205 -0.01755345 -0.01753792 -0.01752561 -0.01751645 -0.01751051
 -0.01750752 -0.01750786 -0.01750921 -0.01751144 -0.01751118 -0.01750798 -0.01749991 -0.01748678 -0.01746819 -0.01744419
 -0.0174158 -0.01738353 -0.0173515 -0.01732061 -0.0172974 -0.01728155 -0.01727634 -0.0172791 -0.0172866 -0.01729564
 -0.01730024 -0.01729967 -0.01729061 -0.01727504 -0.0172531 -0.01722723 -0.01719843 -0.01716872 -0.01713868 -0.01711046
 -0.01708446 -0.0170629 -0.01704626 -0.01703441 -0.01702745 -0.01702278 -0.01702025 -0.017017 -0.01701303 -0.01700698
 -0.01699909 -0.01698958 -0.01697889 -0.01696829 -0.01695824 -0.01695035 -0.01694454 -0.01694177 -0.01694077 -0.01694107
 -0.01694044 -0.01693744 -0.01693012 -0.01691695 -0.01689829 -0.01687342 -0.01684557 -0.01681494 -0.01678592 -0.01675912
 -0.01673704 -0.01672 -0.01670754 -0.0166996 -0.0166941 -0.01669085 -0.01668748 -0.01668394 -0.01667867 -0.01667193
 -0.01666362 -0.01665428 -0.01664514 -0.01663594 -0.01662719 -0.0166176 -0.01660599 -0.0165918 -0.01657366 -0.01655368
 -0.01653217 -0.01651214 -0.0164949 -0.01648073 -0.01647034 -0.01646057 -0.01645116 -0.01643886 -0.01642331 -0.01640427
 -0.01638182 -0.01635916 -0.01633655 -0.01631775 -0.01630274 -0.01629354 -0.01628941 -0.01628936 -0.01629224 -0.01629536
 -0.01629773 -0.01629666 -0.01629218 -0.01628307 -0.01627054 -0.01625491 -0.01623778 -0.01622012 -0.01620244 -0.01618528
 -0.01616796 -0.01615037 -0.01613241 -0.01611396 -0.0160959 -0.0160783 -0.01606194 -0.01604688 -0.0160335 -0.01602183
 -0.01601247 -0.01600539 -0.01600108 -0.01599892 -0.01599743 -0.01599565 -0.01599073 -0.01598242 -0.01596882 -0.015951
 -0.01592905 -0.01590491 -0.01587981 -0.01585552 -0.01583333 -0.01581375 -0.01579746 -0.01578322 -0.01577102 -0.01575882
 -0.01574623 -0.01573282 -0.01571844 -0.01570421 -0.01569018 -0.0156767 -0.01566372 -0.01565065 -0.01563768 -0.0156253
 -0.01561388 -0.01560503 -0.01559838 -0.01559416 -0.0155911 -0.01558726 -0.01558212 -0.01557407 -0.01556402 -0.01555209
 -0.01553921 -0.01552611 -0.01551239 -0.01549805 -0.0154828 -0.01546634 -0.01544996 -0.01543366 -0.01541956 -0.01540794
 -0.01539826 -0.01539048 -0.01538147 -0.01537116 -0.0153573 -0.01534048 -0.01532249 -0.01530405 -0.01528887 -0.01527643
 -0.01526785 -0.0152613 -0.01525427 -0.01524598 -0.01523401 -0.01522021 -0.01520491 -0.01519057 -0.01517898 -0.01516981
 -0.01516375 -0.01515823 -0.01515269 -0.01514577 -0.01513705 -0.01512713 -0.01511607 -0.01510395 -0.01509077 -0.01507539
 -0.01505784 -0.01503772 -0.01501536 -0.01499241 -0.0149692 -0.01494784 -0.01492817 -0.01491093 -0.01489578 -0.01488253
 -0.01487089 -0.0148606 -0.01485106 -0.01484199 -0.01483206 -0.01482061 -0.01480643 -0.01478872 -0.01476792 -0.01474362
 -0.01471845 -0.01469258 -0.01466939 -0.01464926 -0.01463362 -0.01462256 -0.01461477 -0.01461003 -0.0146057 -0.01460167
 -0.01459614 -0.0145892 -0.01458017 -0.01456935 -0.01455703 -0.01454371 -0.01453028 -0.01451717 -0.01450534 -0.01449439
 -0.0144846 -0.01447447 -0.01446322 -0.01444998 -0.01443393 -0.01441623 -0.01439683 -0.01437798 -0.01436003 -0.01434456
 -0.0143318 -0.01432179 -0.01431454 -0.01430917 -0.01430552 -0.01430163 -0.01429723 -0.01428963 -0.014279 -0.01426417
 -0.01424622 -0.01422697 -0.01420757 -0.014191 -0.01417696 -0.01416659 -0.01415826 -0.01415114 -0.01414366 -0.01413455
 -0.01412372 -0.01411069 -0.01409638 -0.0140809 -0.01406522 -0.01404957 -0.01403431 -0.01401956 -0.01400443 -0.01398888
 -0.01397129 -0.01395169 -0.01393007 -0.01390674 -0.01388363 -0.01386096 -0.0138407 -0.01382251 -0.01380651 -0.01379247
 -0.01377991 -0.01376914 -0.01376037 -0.01375377 -0.0137499 -0.01374763 -0.01374669 -0.01374536 -0.01374284 -0.01373851
 -0.01373202 -0.01372352 -0.013713 -0.01370039 -0.01368565 -0.01366926 -0.01365122 -0.01363384 -0.01361721 -0.01360363
 -0.01359263 -0.01358262 -0.01357269 -0.01355831 -0.01353971 -0.01351436 -0.01348505 -0.01345504 -0.01342738 -0.01340775
 -0.01339532 -0.01339259 -0.01339387 -0.01339698 -0.01339651 -0.01338899 -0.01337532 -0.01335429 -0.01333199 -0.01330929
 -0.01329034 -0.01327595 -0.01326446 -0.01325583 -0.01324613 -0.01323531 -0.01322244 -0.01320781 -0.01319299 -0.01317793
 -0.0131632 -0.01314841 -0.01313265 -0.01311622 -0.01309907 -0.01308206 -0.01306655 -0.01305225 -0.01303975 -0.01302738
 -0.01301428 -0.01299945 -0.0129819 -0.01296285 -0.01294221 -0.01292237 -0.0129038 -0.0128877 -0.01287433 -0.01286327
 -0.01285452 -0.01284639 -0.01283876 -0.01282958 -0.01281883 -0.01280516 -0.01278885 -0.01277003 -0.01274923 -0.0127279
 -0.01270631 -0.01268561 -0.01266586 -0.01264767 -0.01263089 -0.01261566 -0.01260168 -0.01258914 -0.01257663 -0.01256383
 -0.01254883 -0.01253078 -0.01250987 -0.01248554 -0.01246154 -0.01243814 -0.01241923 -0.01240514 -0.01239538 -0.01238974
 -0.0123836 -0.01237675 -0.0123651 -0.01234929 -0.01232956 -0.01230696 -0.01228461 -0.01226278 -0.01224371 -0.01222639
 -0.0122106 -0.01219488 -0.01217774 -0.01215879 -0.01213701 -0.0121137 -0.0120889 -0.01206476 -0.01204189 -0.01202171
 -0.01200471 -0.0119906 -0.0119795 -0.01196993 -0.01196184 -0.01195368 -0.01194536 -0.01193533 -0.01192351 -0.0119087
 -0.01189102 -0.01187027 -0.01184694 -0.01182219 -0.01179644 -0.01177113 -0.01174621 -0.01172233 -0.01169899 -0.01167606
 -0.01165296 -0.01162911 -0.01160481 -0.01157973 -0.01155557 -0.01153266 -0.01151286 -0.01149677 -0.01148424 -0.01147556
 -0.01146767 -0.01146041 -0.01145076 -0.01143864 -0.01142308 -0.01140416 -0.01138232 -0.01135753 -0.01132981 -0.01129939
 -0.01126659 -0.01123256 -0.01119956 -0.01116868 -0.01114272 -0.0111208 -0.01110372 -0.01108843 -0.0110732 -0.01105616
 -0.01103544 -0.01101296 -0.01098869 -0.0109656 -0.01094449 -0.01092575 -0.01090975 -0.01089412 -0.01087872 -0.0108616
 -0.01084271 -0.01082244 -0.0108009 -0.01077939 -0.01075785 -0.01073673 -0.01071589 -0.01069515 -0.01067427 -0.01065279
 -0.01063026 -0.01060577 -0.01057938 -0.01055042 -0.01052034 -0.0104897 -0.01046033 -0.01043342 -0.01040911 -0.01038806
 -0.01036811 -0.01034898 -0.01032867 -0.01030683 -0.01028308 -0.01025734 -0.01023041 -0.0102023 -0.01017376 -0.0101448
 -0.01011578 -0.01008675 -0.01005798 -0.01002957 -0.01000189 -0.009975024 -0.009949354 -0.009924836 -0.009901635 -0.009879473
 -0.009858214 -0.009837401 -0.009816748 -0.009795761 -0.009774193 -0.009751587 -0.009727795 -0.009702357 -0.009675112 -0.009646086
 -0.00961524 -0.00958285 -0.009548929 -0.009513881 -0.009477733 -0.00944091 -0.009403522 -0.009366736 -0.00933067 -0.009296579
 -0.009264337 -0.009234339 -0.009206126 -0.009178939 -0.009152465 -0.009126072 -0.009099215 -0.009071338 -0.009041465 -0.009008694
 -0.008972737 -0.00893274 -0.008890735 -0.008846853 -0.008804334 -0.008764147 -0.008726674 -0.008692374 -0.008658384 -0.00862454
 -0.008588149 -0.008549119 -0.008507072 -0.008462094 -0.008414863 -0.008365349 -0.008313877 -0.008260083 -0.008203209 -0.008142522
 -0.00807641 -0.008003683 -0.007921923 -0.007830479 -0.007727472 -0.007613864 -0.007489455 -0.007356197 -0.007214852 -0.007067157
 -0.006913733 -0.006755957 -0.006593851 -0.006430435 -0.006265672 -0.006105782 -0.005951128 -0.005808942 -0.005679572 -0.005567866
 -0.005473766 -0.005398728 -0.005342297 -0.005303409 -0.005280881 -0.005271022 -0.005271691 -0.005277013 -0.005284512 -0.00528831
 -0.005286312 -0.005273913 -0.005251254 -0.005216313 -0.005172362 -0.005120277 -0.005063368 -0.005003181 -0.004940325 -0.004875278
 -0.004807524 -0.004736989 -0.004663884 -0.004588244 -0.004509971 -0.004429016 -0.00434249 -0.004250157 -0.004148133 -0.004036912
 -0.003916897 -0.003789039 -0.003656975 -0.003520409 -0.003380661 -0.003236616 -0.003086914 -0.002931436 -0.002769359 -0.002601413
 -0.002428112 -0.002249203 -0.002065104 -0.001873882 -0.001674947 -0.001467043 -0.001249504 -0.001023317 -0.000788218 -0.0005477752
 -0.0003020994 -5.687071E-05 0.0001876027 0.0004256829 0.0006574097 0.0008809759 0.001097274 0.001309951 0.001520142 0.001733982
 0.001950901 0.002173438 0.002398561 0.00262264 0.002843552 0.003056888 0.003264122 0.003464587 0.00366118 0.003855163
 0.004048678 0.004243016 0.004438016 0.004634271 0.004828935 0.00502184 0.005209323 0.005390943 0.005565797 0.005733845
 0.005898274 0.006059116 0.006218075 0.006374383 0.006524582 0.006667997 0.006799978 0.00692156 0.007032546 0.007134731
 0.007231025 0.007322121 0.007409996 0.007494409 0.007575453 0.007653932 0.007730088 0.007805229 0.00788009 0.007954435
 0.008028547 0.008100844 0.00817111 0.008238338 0.008302405 0.008362899 0.008419789 0.008471944 0.008519286 0.008560296
 0.008595318 0.008625308 0.008651156 0.008676465 0.008701815 0.00873053 0.008762239 0.008797977 0.00883676 0.008877845
 0.00892057 0.008963857 0.009008491 0.009054296 0.009103184 0.009155784 0.009213527 0.0092771 0.009345962 0.009420228
 0.009498451 0.009580469 0.009665666 0.009754 0.009847273 0.009945683 0.01005238 0.01016737 0.01029254 0.01042714
 0.01056979 0.01071922 0.01087168 0.01102669 0.01118155 0.01133696 0.01149262 0.01164952 0.01180858 0.01196974
 0.01213337 0.01229871 0.0124654 0.01263379 0.01280378 0.01297643 0.01315189 0.01333107 0.01351405 0.01370162
 0.01389385 0.0140912 0.01429343 0.01449776 0.01470289 0.01490023 0.01508703 0.01524906 0.01538365 0.01547618
 0.0155282 0.01553392 0.01550072 0.01543356 0.0153425 0.0152357 0.01512458 0.01501688 0.0149218 0.01484549
 0.01478829 0.01475266 0.01473049 0.01472117 0.0147155 0.01471212 0.01470969 0.01470799 0.01471496 0.01473097
 0.01476351 0.01481198 0.01487615 0.01495499 0.01504445 0.01514419 0.01525131 0.01536613 0.01548873 0.01561698
 0.01575105 0.01588099 0.01600194 0.01609595 0.01615134 0.01615781 0.01610531 0.0160049 0.0158558 0.01567763
 0.01547325 0.01525817 0.01503398 0.01481436 0.0146002 0.01440317 0.01422349 0.01406561 0.01392883 0.01381087
 0.01371091 0.01362482 0.01355178 0.0134882 0.01343241 0.01338035 0.01332958 0.01327549 0.01321669 0.01314987
 0.01307663 0.01299654 0.01291287 0.01282712 0.01274015 0.01265299 0.01256282 0.012469 0.01237137 0.01226925
 0.01217019 0.01207458 0.01198941 0.01191461 0.01184877 0.01179127 0.01173698 0.011686 0.01163595 0.01158775
 0.01154251 0.01150132 0.01146623 0.01143894 0.01142175 0.01141748 0.01142921 0.011459 0.01150939 0.01157954
 0.01166982 0.01177864 0.01190518 0.0120508 0.0122152 0.01240251 0.01261304 0.01285121 0.01311737 0.01341324
 0.01373841 0.01408599 0.01445349 0.01481991 0.01518249 0.01551771 0.01582667 0.01609978 0.01634073 0.01655183
 0.01673621 0.01689786 0.01704147 0.01717062 0.01729434 0.01741819 0.01755115 0.0176999 0.01786217 0.01804072
 0.01822122 0.01840143 0.01857101 0.01872785 0.0188737 0.01900847 0.01913721 0.01926001 0.0193778 0.01949021
 0.01959481 0.01969137 0.01977761 0.01985351 0.01991809 0.01997071 0.02001016 0.0200348 0.02004188 0.02003074
 0.01999915 0.01994931 0.01988163 0.01979909 0.01970324 0.01959513 0.01947552 0.01934386 0.01920041 0.01904317
 0.01887241 0.01868155 0.01847032 0.01822843 0.01795552 0.01764524 0.01729859 0.0169207 0.01651303 0.01608537
 0.01563681 0.0151701 0.01468307 0.01417182 0.01363761 0.01307906 0.01250205 0.01191095 0.01131192 0.01071046
 0.01010869 0.009509038 0.008910924 0.008314451 0.007719709 0.007126243 0.006537204 0.005952352 0.005379767 0.004819805
 0.004284506 0.003774371 0.003297671 0.002853805 0.002441708 0.002060062 0.001702348 0.001368026 0.001052094 0.0007549405
 0.000475349 0.0002128555 -3.266254E-05 -0.0002645813 -0.0004850624 -0.0006999588 -0.000913448 -0.001130014 -0.001353329 -0.001582801
 -0.001820129 -0.002058336 -0.002296981 -0.002526464 -0.00274557 -0.002947363 -0.003131081 -0.003296346 -0.003443277 -0.003576574
 -0.003696482 -0.003807313 -0.003908589 -0.004000362 -0.004082066 -0.004151709 -0.004209865 -0.004256245 -0.004292826 -0.004321881
 -0.004345894 -0.004367937 -0.004389905 -0.004413974 -0.004440909 -0.004471531 -0.004506198 -0.004545234 -0.004588534 -0.004636463
 -0.004686808 -0.004739714 -0.004789669 -0.004836279 -0.004874916 -0.004905489 -0.004929414 -0.004947243 -0.004964779 -0.004982082
 -0.005002894 -0.005026027 -0.005049929 -0.005073322 -0.005092619 -0.005107778 -0.005116913 -0.005121294 -0.005121434 -0.005118621
 -0.005113955 -0.005107955 -0.005101075 -0.005093684 -0.005085774 -0.005078573 -0.005072281 -0.005068165 -0.005066626 -0.005066566
 -0.005068059 -0.005067274 -0.005064028 -0.005055106 -0.005040783 -0.005022179 -0.005000192 -0.004980005 -0.004961855 -0.004949554
 -0.004941949 -0.004938482 -0.004938016 -0.004938174 -0.004939714 -0.004942295 -0.004947521 -0.00495681 -0.004969823 -0.004987166
 -0.005006686 -0.005028016 -0.005048623 -0.005067994 -0.005083952 -0.005096143 -0.005103022 -0.005104343 -0.005100964 -0.005092942
 -0.005082336 -0.005069071 -0.00505317 -0.005034334 -0.005010746 -0.004982847 -0.004950736 -0.00491579 -0.004881035 -0.004847361
 -0.004817695 -0.004791453 -0.004769277 -0.004749912 -0.004732749 -0.004716578 -0.004700744 -0.0046842 -0.004666407 -0.004647075
 -0.004625999 -0.004603439 -0.004579442 -0.004553904 -0.004526832 -0.004497899 -0.004467101 -0.004434901 -0.004401383 -0.004367616
 -0.004333671 -0.004300521 -0.004268114 -0.004236868 -0.004206533 -0.004176735 -0.004147362 -0.004117817 -0.00408884 -0.004060523
 -0.004034963 -0.004013567 -0.003998241 -0.003990708 -0.003990329 -0.003997805 -0.004009717 -0.004025644 -0.004041719 -0.004057276
 -0.004070229 -0.004080234 -0.004087845 -0.004093097 -0.004098371 -0.004103794 -0.004111652 -0.004121782 -0.004134645 -0.004149698
 -0.004165513 -0.004181392 -0.004195067 -0.004206199 -0.004213136 -0.004216252 -0.004215085 -0.004210841 -0.004204018 -0.004196377
 -0.004188817 -0.004182937 -0.004179655 -0.004179089 -0.004181882 -0.004185183 -0.00418888 -0.004188844 -0.00418463 -0.004174268
 -0.004157655 -0.004136937 -0.004112297 -0.004086626 -0.004059854 -0.004033036 -0.004006013 -0.003978739 -0.003951288 -0.003923953
 -0.003896476 -0.003868733 -0.003840054 -0.003809504 -0.003777104 -0.003742358 -0.003706156 -0.003669111 -0.003630797 -0.003591596
 -0.003549209 -0.003503173 -0.003451735 -0.00339436 -0.003331664 -0.003263546 -0.003192211 -0.003117775 -0.003043245 -0.002968841
 -0.002898141 -0.002831246 -0.002770852 -0.002716392 -0.002667545 -0.0026232 -0.002580496 -0.002538979 -0.002496268 -0.002453415
 -0.002410418 -0.002369131 -0.002331147 -0.002297177 -0.002268368 -0.00224356 -0.002222833 -0.002204027 -0.002186579 -0.00216933
 -0.002151934 -0.002134478 -0.00211694 -0.00209949 -0.002082137 -0.002064324 -0.002046016 -0.002026598 -0.002006062 -0.001984087
 -0.001960623 -0.001935312 -0.001908109 -0.001878645 -0.001847115 -0.001813704 -0.001778512 -0.001742197 -0.001703318 -0.001661496
 -0.001613768 -0.00155851 -0.001493454 -0.00141704 -0.0013297 -0.001230963 -0.001123194 -0.001006743 -0.0008830355 -0.0007522823
 -0.0006147246 -0.0004703787 -0.0003204386 -0.0001651013 -7.38467E-06 0.0001523871 0.0003106536 0.0004672908 0.0006202325 0.0007689258
 0.0009114867 0.00104625 0.001169758 0.00128032 0.00137418 0.001451787 0.001511735 0.001556638 0.001587634 0.001606434
 0.001614276 0.001610514 0.001595137 0.001567782 0.00152809 0.001478078 0.001417753 0.001350768 0.001277329 0.001201032
 0.001122052 0.001043495 0.0009654269 0.0008898362 0.0008167122 0.0007470016 0.0006808394 0.0006190061 0.0005616951 0.0005099007
 0.000462853 0.0004204248 0.0003806928 0.000341853 0.0003031668 0.0002631574 0.0002237797 0.0001852385 0.0001501261 0.0001193838
 9.344498E-05 7.26767E-05 5.589641E-05 4.2971E-05 3.358027E-05 2.768411E-05 2.59546E-05 2.843407E-05 3.579248E-05 4.815869E-05
 6.674126E-05 9.164708E-05 0.0001243319 0.0001639807 0.0002098955 0.0002596988 0.0003091179 0.0003558063 0.0003948777 0.0004260335
 0.0004470306 0.0004594329 0.0004634033 0.000460789 0.00045217 0.0004395509 0.0004232448 0.0004062629 0.00038899 0.0003748181
 0.0003641977 0.0003589327 0.0003592062 0.0003641572 0.0003736014 0.0003841168 0.0003953989 0.0004034704 0.0004085689 0.0004092799
 0.0004065516 0.0004023065 0.0003968976 0.0003925199 0.0003873142 0.0003803719 0.0003684475 0.0003481883 0.0003182431 0.0002761807
 0.0002241975 0.0001620532 9.416226E-05 2.159036E-05 -5.214709E-05 -0.0001262723 -0.0001985975 -0.0002688058 -0.0003354138 -0.0003982873
 -0.00045705 -0.0005117861 -0.0005642733 -0.0006147503 -0.0006659951 -0.0007177931 -0.000770849 -0.000824546 -0.0008775252 -0.0009294893
 -0.0009791426 -0.001026754 -0.001072464 -0.001115603 -0.001155852 -0.001191946 -0.001222583 -0.001248581 -0.001269209 -0.00128862
 -0.00130784 -0.001329927 -0.001356215 -0.001384262 -0.001414323 -0.00143981 -0.001460267 -0.001471604 -0.001473861 -0.001468951
 -0.001457497 -0.001445275 -0.00143246 -0.001423163 -0.001416487 -0.001412367 -0.001409199 -0.00140379 -0.001395449 -0.001381438
 -0.001363207 -0.001340536 -0.001316711 -0.001293781 -0.001273755 -0.001258669 -0.00124651 -0.001237637 -0.00122735 -0.001214582
 -0.001197544 -0.00117549 -0.001152 -0.001127214 -0.00110615 -0.001088891 -0.00107577 -0.00106629 -0.001056466 -0.001046158
 -0.001032271 -0.001015823 -0.0009978625 -0.0009799181 -0.0009656547 -0.0009554003 -0.0009517464 -0.0009526092 -0.0009573334 -0.0009629537
 -0.000967261 -0.0009688477 -0.0009662997 -0.0009602445 -0.0009505404 -0.0009381469 -0.0009232466 -0.0009063297 -0.0008873764 -0.0008677541
 -0.0008475499 -0.000828193 -0.0008096755 -0.0007909767 -0.000771859 -0.0007495699 -0.0007244574 -0.0006963376 -0.0006663725 -0.0006380025
 -0.0006116687 -0.0005904775 -0.0005727451 -0.0005579505 -0.000543101 -0.0005250915 -0.0005021719 -0.0004715472 -0.0004351806 -0.0003922528
 -0.0003488406 -0.0003061904 -0.0002707982 -0.0002446145 -0.0002288889 -0.0002246769 -0.0002256024 -0.0002314294 -0.0002330112 -0.0002299835
 -0.0002174193 -0.0001956443 -0.0001654362 -0.0001272878 -8.383037E-05 -3.532432E-05 1.639044E-05 7.06334E-05 0.0001253557 0.0001795991
 0.000230727 0.000279517 0.0003250849 0.0003705508 0.0004176153 0.000468928 0.0005264504 0.0005902376 0.0006609222 0.0007370411
 0.0008184801 0.0009035765 0.0009921199 0.001082783 0.001175415 0.001269693 0.001365658 0.001465494 0.001569472 0.001681115
 0.001800385 0.001929117 0.002066765 0.002212774 0.002366339 0.002525801 0.002689963 0.002856835 0.003024428 0.003190425
 0.003352393 0.003508154 0.003655754 0.003793995 0.003920968 0.004036418 0.004136441 0.004220818 0.004282875 0.004321903
 0.004331287 0.004310332 0.004256628 0.004170162 0.004054806 0.003911229 0.003746854 0.003563017 0.003369235 0.003168416
 0.002973853 0.002789224 0.00262929 0.002494303 0.002392416 0.002318149 0.002269656 0.002239859 0.002223025 0.002215512
 0.002214236 0.002217432 0.002224351 0.002232121 0.002239926 0.002246353 0.00225077 0.002255623 0.002261082 0.002268807
 0.00227883 0.002288777 0.002298676 0.002307452 0.002316158 0.002329939 0.00234933 0.00237978 0.002418807 0.002464236
 0.002512364 0.002556051 0.002594884 0.002624688 0.002649558 0.002670608 0.002693029 0.002720027 0.002753333 0.002795112
 0.00284149 0.002892661 0.002941199 0.002985975 0.003022573 0.003050184 0.003072093 0.003088507 0.003107667 0.003129724
 0.003159531 0.003196038 0.0032363 0.003279001 0.003317763 0.003353174 0.003382766 0.003409238 0.003435757 0.0034641
 0.003498371 0.003536115 0.003577719 0.003617773 0.003653311 0.003682075 0.003701495 0.003716259 0.003726372 0.003739437
 0.00375675 0.003781897 0.00381551 0.003856123 0.003903673 0.003955548 0.004011631 0.00407001 0.00413033 0.004189899
 0.004247922 0.004300248 0.004346443 0.004383002 0.004411161 0.004430611 0.004444585 0.004455894 0.004468706 0.004487063
 0.004513305 0.004550417 0.004596382 0.004652097 0.004711161 0.004772874 0.004828908 0.004877868 0.004914478 0.004937745
 0.004950349 0.004952428 0.004954601 0.004957498 0.004972254 0.004998326 0.005038838 0.005091829 0.005152045 0.005218361
 0.005285249 0.005353369 0.005421573 0.005490116 0.005559358 0.005627898 0.005694516 0.005759107 0.005820402 0.005882099
 0.005945252 0.00601269 0.006086482 0.006161306 0.00623748 0.006303541 0.006358275 0.00639568 0.006415369 0.006424437
 0.00642383 0.006428034 0.006437271 0.006460954 0.006497011 0.00654372 0.006597707 0.006650118 0.006698987 0.006736429
 0.006764017 0.006779713 0.00678791 0.006791181 0.006793475 0.006798057 0.006805311 0.006816622 0.006829137 0.00684238
 0.006854203 0.006863877 0.006872593 0.006880177 0.006890842 0.006904813 0.006926491 0.006955949 0.006995289 0.007044002
 0.007100569 0.007163506 0.007226923 0.007289068 0.007341983 0.007386787 0.007420341 0.007448267 0.007475646 0.007507478
 0.007551084 0.007603521 0.007667164 0.00773105 0.007792598 0.007839387 0.007866751 0.007872703 0.007854299 0.007826969
 0.007791704 0.007764075 0.007745128 0.007736165 0.007736556 0.007737147 0.00773671 0.007722293 0.007694526 0.007647469
 0.007585546 0.007516242 0.007444292 0.007382331 0.007329563 0.007291574 0.007261538 0.007236295 0.007208519 0.007172295
 0.007126858 0.007068894 0.007006579 0.006940207 0.006882849 0.006836988 0.006809932 0.00680365 0.006810091 0.006829015
 0.006842497 0.006849873 0.006838123 0.006808348 0.006760819 0.006698101 0.006629607 0.006558179 0.006495653 0.006443607
 0.0064117 0.006395844 0.006397562 0.006404731 0.00640839 0.006397727 0.006361534 0.006303673 0.006220472 0.006128379
 0.00603033 0.005942205 0.005867723 0.005812975 0.005779746 0.005761983 0.005759546 0.00575939 0.005761103 0.005756296
 0.005746378 0.005736591 0.005729355 0.005737913 0.00576165 0.005807598 0.005869414 0.005940118 0.006011556 0.006069925
 0.00611301 0.006132072 0.006134663 0.006121504 0.006103864 0.006087228 0.006075494 0.006072198 0.006070798 0.00607089
 0.006065226 0.006052383 0.006034383 0.006011116 0.005992124 0.005977697 0.005973379 0.005978344 0.005989152 0.006005049
 0.006020699 0.006037017 0.006053836 0.006071996 0.006093833 0.00611737 0.006141793 0.006163095 0.006177741 0.006182219
 0.006173485 0.006149478 0.006107904 0.006051036 0.005977414 0.005897774 0.005812797 0.005737811 0.005674829 0.005632155
 0.005610701 0.0056066 0.005619403 0.005640018 0.00566777 0.005693916 0.005717422 0.005729128 0.005728697 0.005709151
 0.005674054 0.005625391 0.005570155 0.005518236 0.005474292 0.005446805 0.005434794 0.005440304 0.005460571 0.00549502
 0.005541154 0.005599504 0.005661622 0.00572747 0.005780782 0.005819647 0.005832256 0.005817246 0.005780876 0.005724072
 0.00566776 0.005613248 0.005580349 0.005568896 0.00558916 0.00563934 0.005721197 0.005829624 0.005958245 0.0060965
 0.006229265 0.006345069 0.006426581 0.006472737 0.00647424 0.006446335 0.006391117 0.006330056 0.006270238 0.0062235
 0.006194826 0.006179466 0.006178159 0.006178123 0.006178417 0.006172385 0.006159906</values></Ydata></AB><ScSm><Ydata ylabel="Single channel"><values byteorder="INTEL" format="FLOAT32" numvalues="1814"> 0.07652953 0.07662405 0.07673876 0.07687539 0.07702339 0.0771676 0.07729658 0.07740855 0.0775087 0.0775992
 0.07767935 0.07775854 0.07785776 0.07798988 0.07814391 0.07829151 0.07840808 0.078494 0.07857919 0.07869484
 0.07883111 0.07893344 0.07895327 0.07890098 0.0788417 0.0788362 0.07889913 0.07902953 0.07924949 0.07954822
 0.07980123 0.07984993 0.07970049 0.0795517 0.07957458 0.07974093 0.07990655 0.07997236 0.07992219 0.07980631
 0.07976214 0.07997333 0.08050282 0.08115383 0.08152963 0.08126336 0.08026311 0.07884322 0.07764877 0.07731987
 0.07803018 0.0792916 0.08031806 0.08066088 0.08045445 0.08007891 0.07976429 0.07958397 0.07963011 0.07999778
 0.08062366 0.08122405 0.08140729 0.08093156 0.07998122 0.07913131 0.07887912 0.07925878 0.08002076 0.08093271
 0.08155482 0.08101311 0.07877341 0.07581957 0.07434958 0.07574498 0.07912415 0.0822589 0.08360428 0.08311717
 0.08161129 0.08003812 0.07923629 0.07964494 0.08101644 0.0826626 0.08400303 0.08472076 0.08461574 0.08369704
 0.08237357 0.08128166 0.08093143 0.08155949 0.0830321 0.08469881 0.08565283 0.08544622 0.08442552 0.08328216
 0.08254377 0.08254898 0.08347323 0.08511931 0.08693726 0.08843136 0.08941688 0.0899097 0.09000571 0.0898627
 0.08962186 0.08938411 0.08931525 0.08956245 0.089959 0.09005938 0.08963764 0.08899906 0.08867335 0.08886828
 0.08929144 0.08950084 0.08934193 0.08886171 0.0878584 0.08598144 0.0834533 0.08118069 0.07986741 0.07952257
 0.08004084 0.08149756 0.08344375 0.08469531 0.08452718 0.08365133 0.08344551 0.08446384 0.08609284 0.087447
 0.0882283 0.08876997 0.08951483 0.09051453 0.09130546 0.09124984 0.09018613 0.08883429 0.08831826 0.08907929
 0.09044743 0.09146599 0.09189691 0.09218953 0.09268835 0.09313413 0.09288922 0.09161928 0.08986922 0.08887501
 0.08954425 0.09155728 0.09353366 0.09407647 0.09276604 0.09038736 0.08827242 0.08734226 0.08774881 0.08925655
 0.09157076 0.09419277 0.09634237 0.09735511 0.09714191 0.09616895 0.09494974 0.09356694 0.09185825 0.09016328
 0.08951795 0.090684 0.09317005 0.09562434 0.09708174 0.09749708 0.09719588 0.09622216 0.09442534 0.09213424
 0.09045767 0.09046229 0.09195601 0.09353867 0.09408975 0.09381486 0.09360573 0.09382355 0.09410499 0.09410724
 0.09401982 0.09429404 0.09506546 0.09597871 0.09656306 0.09666629 0.09648736 0.09629653 0.09617952 0.09599021
 0.09557655 0.09512234 0.09512883 0.09588534 0.09707797 0.09810444 0.09866688 0.09888744 0.09894025 0.09875733
 0.09814495 0.09716386 0.09631037 0.09616259 0.09681721 0.09781633 0.09863362 0.09906651 0.09918104 0.09910829
 0.09895617 0.09878338 0.09861941 0.09854089 0.09865597 0.09895951 0.09929286 0.09950245 0.09956515 0.09952986
 0.09941718 0.09922294 0.09898175 0.09878524 0.09872453 0.0988171 0.09900378 0.09920943 0.09937578 0.09944978
 0.09940112 0.09926337 0.09911311 0.09899972 0.09892647 0.09889361 0.09891765 0.09899858 0.0990977 0.09916595
 0.09918484 0.099167 0.09912531 0.09906036 0.09897807 0.09890177 0.09886163 0.09887415 0.09892704 0.09898657
 0.09903543 0.09909494 0.09918402 0.09926805 0.09928666 0.09922912 0.09914875 0.09910474 0.09911472 0.09915886
 0.09920416 0.09921835 0.09917688 0.09907868 0.09896612 0.09891302 0.0989709 0.09913139 0.09934795 0.09957222
 0.09976077 0.09988293 0.09994713 0.09999502 0.1000535 0.1001114 0.1001502 0.1001784 0.1002306 0.1003391
 0.1005029 0.1006843 0.1008399 0.1009514 0.1010263 0.10109 0.1011807 0.1013176 0.1014642 0.1015587
 0.1015922 0.1016246 0.1017086 0.101827 0.1019211 0.1019627 0.1019801 0.1020215 0.1021057 0.1022131
 0.1023159 0.1024086 0.1025085 0.1026283 0.1027494 0.1028263 0.1028311 0.1027897 0.1027583 0.102766
 0.1028015 0.1028518 0.1029239 0.1030204 0.1031156 0.1031741 0.1031863 0.1031793 0.1031867 0.1032126
 0.1032304 0.1032166 0.1031762 0.1031349 0.1031131 0.1031135 0.1031231 0.103124 0.1031034 0.1030607
 0.1030045 0.1029438 0.102882 0.102823 0.1027849 0.102794 0.1028503 0.1029014 0.1028742 0.1027429
 0.102556 0.1023905 0.1022848 0.1022194 0.1021492 0.1020459 0.1019149 0.1017801 0.1016601 0.1015577
 0.101466 0.1013799 0.1013032 0.1012499 0.1012311 0.1012333 0.1012185 0.1011573 0.1010599 0.1009637
 0.1008952 0.1008549 0.1008315 0.100816 0.1008084 0.1008171 0.1008485 0.1008905 0.1009194 0.1009283
 0.1009379 0.1009741 0.1010495 0.1011633 0.1012999 0.1014264 0.1015127 0.101565 0.1016237 0.1017222
 0.1018594 0.1020148 0.102176 0.1023433 0.1025203 0.1027106 0.1029186 0.1031478 0.1033968 0.1036579
 0.1039201 0.1041731 0.1044165 0.1046643 0.1049369 0.1052438 0.1055747 0.1059091 0.1062325 0.1065444
 0.1068544 0.1071696 0.1074894 0.1078117 0.1081422 0.1084897 0.1088551 0.1092295 0.1096039 0.1099758
 0.1103458 0.1107136 0.1110782 0.1114433 0.1118219 0.112228 0.1126561 0.1130736 0.1134465 0.1137734
 0.1140866 0.1144213 0.1147887 0.1151739 0.1155479 0.1158872 0.1161951 0.1165016 0.1168321 0.1171802
 0.1175233 0.1178595 0.1182149 0.1186081 0.1190169 0.119391 0.1196986 0.1199572 0.1202134 0.1204934
 0.1207812 0.121047 0.1212866 0.1215224 0.1217724 0.1220336 0.1223004 0.1225801 0.1228796 0.123185
 0.1234708 0.1237263 0.1239618 0.1241894 0.1244056 0.1245938 0.124743 0.1248634 0.124985 0.1251326
 0.1253017 0.1254703 0.1256319 0.1258048 0.126006 0.1262323 0.1264737 0.1267297 0.1270012 0.1272765
 0.1275436 0.1278145 0.1281172 0.1284532 0.1287793 0.1290504 0.1292681 0.129471 0.129687 0.1299177
 0.1301658 0.130446 0.1307642 0.1311021 0.1314305 0.1317315 0.1320122 0.132299 0.1326113 0.132934
 0.133226 0.1334619 0.1336585 0.1338577 0.1340902 0.1343587 0.134645 0.1349284 0.1351962 0.1354382
 0.1356354 0.1357668 0.1358328 0.1358589 0.1358661 0.1358405 0.1357433 0.1355461 0.1352426 0.1348305
 0.1342951 0.1336248 0.1328394 0.1320038 0.131216 0.1305802 0.1301809 0.1300665 0.1302425 0.1306708
 0.1312743 0.1319499 0.1325861 0.1330759 0.1333288 0.1332884 0.132951 0.1323629 0.1315931 0.1307076
 0.1297633 0.1288082 0.1278783 0.1270099 0.1262715 0.1257792 0.1256697 0.1260542 0.1269883 0.128454
 0.1303368 0.1324266 0.13448 0.1363159 0.1378703 0.1391732 0.1402899 0.1412819 0.1421946 0.143055
 0.1438718 0.1446431 0.1453689 0.146052 0.146689 0.147265 0.1477577 0.1481459 0.1484192 0.1485867
 0.1486731 0.1487034 0.1486958 0.1486662 0.148626 0.1485623 0.1484281 0.1481637 0.14773 0.1471323
 0.146431 0.1457519 0.145289 0.1452771 0.14591 0.1472287 0.1490639 0.1511036 0.1530432 0.1546964
 0.1560078 0.157009 0.1577757 0.1583927 0.1589258 0.1594125 0.1598697 0.160303 0.1607132 0.1611024
 0.1614772 0.1618468 0.1622203 0.1626028 0.1629901 0.1633687 0.1637271 0.1640693 0.1644128 0.1647724
 0.1651471 0.1655243 0.1658978 0.1662736 0.1666562 0.167034 0.1673898 0.167722 0.1680474 0.1683828
 0.1687343 0.1690985 0.1694649 0.1698177 0.1701453 0.1704499 0.1707444 0.1710404 0.171341 0.1716446
 0.1719481 0.1722485 0.1725433 0.1728325 0.1731206 0.1734127 0.1737071 0.1739942 0.1742679 0.1745328
 0.174799 0.1750697 0.1753394 0.1756024 0.1758607 0.1761213 0.1763901 0.176667 0.1769461 0.1772193
 0.1774823 0.1777382 0.1779943 0.1782551 0.1785187 0.1787811 0.179042 0.1793033 0.1795656 0.1798271
 0.1800884 0.1803522 0.1806197 0.1808873 0.1811504 0.1814068 0.1816579 0.1819073 0.182158 0.1824119
 0.1826708 0.1829344 0.1831972 0.1834517 0.1836953 0.1839324 0.1841687 0.1844066 0.1846454 0.184885
 0.1851269 0.1853738 0.1856273 0.185886 0.1861458 0.1864023 0.1866522 0.1868953 0.1871349 0.1873752
 0.1876182 0.1878638 0.1881133 0.1883677 0.1886242 0.1888777 0.1891244 0.1893655 0.1896055 0.1898485
 0.1900938 0.1903369 0.1905765 0.1908168 0.1910631 0.1913145 0.1915645 0.1918071 0.1920436 0.1922803
 0.1925211 0.1927651 0.1930096 0.1932536 0.1934964 0.1937377 0.1939778 0.1942158 0.1944505 0.1946847
 0.194925 0.1951742 0.1954276 0.1956785 0.1959247 0.1961682 0.1964119 0.1966571 0.1969021 0.1971459
 0.1973894 0.197632 0.1978708 0.1981065 0.1983444 0.1985887 0.1988392 0.1990934 0.1993475 0.199598
 0.1998465 0.2000993 0.2003585 0.2006191 0.2008765 0.2011302 0.2013819 0.2016344 0.2018903 0.2021488
 0.2024079 0.2026673 0.2029272 0.2031839 0.2034324 0.2036713 0.203903 0.2041322 0.2043628 0.2045927
 0.2048174 0.2050395 0.2052674 0.2055044 0.2057461 0.2059891 0.2062328 0.206477 0.2067238 0.2069768
 0.2072339 0.207489 0.2077407 0.2079922 0.2082464 0.2085049 0.2087664 0.2090274 0.2092877 0.2095531
 0.2098248 0.210097 0.210366 0.2106339 0.2109002 0.2111636 0.2114272 0.2116931 0.2119575 0.2122207
 0.2124877 0.2127584 0.2130283 0.2132977 0.2135682 0.2138384 0.2141083 0.2143809 0.2146548 0.2149281
 0.2152034 0.2154813 0.2157569 0.2160299 0.2163051 0.2165821 0.216858 0.2171333 0.2174068 0.2176752
 0.2179435 0.2182181 0.2184926 0.218759 0.2190218 0.2192868 0.2195519 0.2198171 0.2200809 0.2203287
 0.2205367 0.2206589 0.2205637 0.2199595 0.2183558 0.2150775 0.2094008 0.2008405 0.1894427 0.1758666
 0.1612017 0.1466274 0.1330929 0.1211911 0.111236 0.1033888 0.09774399 0.09440791 0.09356219 0.0955513
 0.1010015 0.1104496 0.1229697 0.1349875 0.1416184 0.1403694 0.1334005 0.1255667 0.1204652 0.1186704
 0.1189601 0.1201278 0.1216981 0.1237893 0.1266932 0.1304481 0.1348013 0.1396278 0.1451677 0.1516593
 0.1588725 0.1661944 0.1731424 0.1796768 0.1860196 0.1922699 0.1982549 0.2036975 0.2084319 0.2124554
 0.2158705 0.218823 0.2214473 0.2238323 0.2260294 0.2280625 0.2298955 0.2314156 0.2324976 0.2331048
 0.2333365 0.2333824 0.2334191 0.2335346 0.2337389 0.2340195 0.2343686 0.2347788 0.2352443 0.2357593
 0.2363076 0.236866 0.2374212 0.2379695 0.2385046 0.2390181 0.2395052 0.2399621 0.2403891 0.2407959
 0.2411928 0.2415797 0.2419527 0.242314 0.2426683 0.24302 0.2433726 0.2437232 0.2440598 0.244372
 0.2446608 0.2449336 0.2451985 0.2454621 0.2457247 0.2459806 0.2462282 0.2464728 0.2467191 0.2469687
 0.2472228 0.2474781 0.2477261 0.2479629 0.248193 0.2484208 0.2486476 0.2488753 0.2491063 0.2493394
 0.2495736 0.2498107 0.2500497 0.2502869 0.2505218 0.2507579 0.2509992 0.2512494 0.2515091 0.2517719
 0.2520319 0.2522923 0.2525592 0.2528314 0.253104 0.2533752 0.2536449 0.253913 0.2541828 0.2544555
 0.2547234 0.254974 0.255204 0.2554231 0.2556448 0.2558761 0.2561136 0.2563501 0.2565834 0.2568173
 0.2570538 0.2572915 0.2575294 0.2577676 0.2580071 0.2582551 0.2585206 0.2588021 0.259087 0.2593663
 0.259642 0.2599191 0.2602004 0.2604887 0.2607829 0.2610747 0.261356 0.2616286 0.2619069 0.2622081
 0.2625369 0.262877 0.2632051 0.2635142 0.2638159 0.2641245 0.2644465 0.2647756 0.2650857 0.2653471
 0.2655674 0.265803 0.2661095 0.2664878 0.2668908 0.2672725 0.2676195 0.2679427 0.2682548 0.2685564
 0.2688375 0.2690882 0.2693169 0.26956 0.2698608 0.2702244 0.2706079 0.2709662 0.2712902 0.2715929
 0.2718839 0.2721677 0.2724351 0.2726471 0.2727736 0.2728679 0.2730586 0.2734284 0.2739215 0.2744021
 0.2747893 0.2751072 0.2754126 0.275722 0.2760195 0.2762732 0.2764105 0.2763556 0.2761709 0.2761045
 0.2763901 0.2770131 0.2777393 0.2783512 0.2787916 0.2791176 0.2794005 0.2796752 0.2799185 0.2800573
 0.2800461 0.2799732 0.2800432 0.2803919 0.280933 0.2814519 0.2818318 0.282118 0.2823961 0.2826945
 0.2829719 0.2831018 0.2829271 0.2824746 0.2820981 0.2822496 0.2830442 0.2841297 0.2850365 0.285592
 0.2859288 0.2861654 0.2862304 0.2860024 0.2854629 0.2847037 0.2839757 0.2837353 0.2843465 0.2856152
 0.2868669 0.2876232 0.2880135 0.2884349 0.2890316 0.2896349 0.2900406 0.2901932 0.2901483 0.2899495
 0.2896091 0.2892508 0.2891899 0.289708 0.2907249 0.2918204 0.2926288 0.2931242 0.2934524 0.2935066
 0.2928197 0.2911214 0.289063 0.2880504 0.2889947 0.291353 0.293716 0.2951992 0.2959251 0.2963611
 0.2967113 0.2968605 0.2963648 0.2945993 0.2916095 0.288852 0.2883105 0.2905411 0.2940493 0.2967365
 0.2975016 0.2964648 0.2944368 0.2925438 0.2918274 0.2926786 0.2946733 0.2970026 0.29896 0.3001368
 0.3004482 0.300088 0.2994484 0.2990168 0.2990683 0.2992489 0.2987991 0.2975412 0.296226 0.2953798
 0.2943428 0.2923479 0.2902287 0.2899016 0.2919956 0.294943 0.2967971 0.297226 0.2971628 0.2969233
 0.2954378 0.2916592 0.2865015 0.2828131 0.2829373 0.2863719 0.2902662 0.2922202 0.2921798 0.2916219
 0.291471 0.2911186 0.289332 0.2860099 0.2828604 0.2818815 0.2831339 0.2846663 0.284683 0.2828016
 0.2791005 0.2736724 0.268127 0.2659029 0.2692233 0.2763249 0.2830179 0.2863039 0.2853124 0.280055
 0.2717374 0.2640581 0.2615438 0.2653739 0.2720038 0.2765965 0.276838 0.2730351 0.2661397 0.257328
 0.249019 0.24458 0.2461819 0.2530525 0.2616218 0.267068 0.265785 0.258276 0.249862 0.2466709
 0.24988 0.2549486 0.2569579 0.2552322 0.2523073 0.2504711 0.2505028 0.2521115 0.2542682 0.2560158
 0.2572063 0.2571505 0.2532628 0.2439212 0.2327334 0.2266248 0.2286958 0.2357235 0.2434119 0.250713
 0.2574384 0.2611656 0.25982 0.2557924 0.2544105 0.258248 0.2646721 0.2692024 0.2700542 0.2688597
 0.2676992 0.266625 0.264693 0.2626332 0.2628799 0.2665405 0.2716584 0.2753343 0.2766303 0.2765712
 0.2762024 0.2757115 0.2749624 0.2739266 0.2726472 0.2712568 0.2699645 0.2688255 0.2676989 0.2665175
 0.2652217 0.2631813 0.2592531 0.2532882 0.2474074 0.2445457 0.2453854 0.2479291 0.25035 0.2522991
 0.2525424 0.2479971 0.2377469 0.2266255 0.2218859 0.2261917 0.235498 0.2435881 0.2469869 0.2453867
 0.2395406 0.2309192 0.2231783 0.2215243 0.2287183 0.2421974 0.2563717 0.267337 0.2743599 0.2777363
 0.2773112 0.2735721 0.2688846 0.2665612 0.2685947 0.2743549 0.2810771 0.2851489 0.2836848 0.2769021
 0.2697017 0.2687022 0.2756706 0.2851686 0.2905522 0.2909304 0.2901917 0.290834 0.2918227 0.2920045
 0.2925064 0.294826 0.2983605 0.3009024 0.3006134 0.2967997 0.2899054 0.282043 0.2766615 0.2758393
 0.2780226 0.2798361 0.2795624 0.2771868 0.2722727 0.264881 0.2582375 0.2570066 0.2619882 0.2689151
 0.2733245 0.2747193 0.2751946 0.2756675 0.2748036 0.2712663 0.2661037 0.2622996 0.2618538 0.2638966
 0.2661188 0.2672703 0.2673568 0.2661999 0.2634524 0.2601463 0.2588222 0.261276 0.266638 0.2722154
 0.2759592 0.2777073 0.2784051 0.2788723 0.2793591 0.2796966 0.2797057 0.2797791 0.2809107 0.2836252
 0.2870409 0.2896661 0.2911215 0.292456 0.2946846 0.2975589 0.2999662 0.3011746 0.3014828 0.3018446
 0.3030071 0.3048915 0.3066604 0.3074508 0.3072224 0.3069055 0.3075646 0.309385 0.3116065 0.3133963
 0.3145502 0.3153682 0.316172 0.3170375 0.3177621 0.3180321 0.3178321 0.3177 0.3183286 0.3198411
 0.3216414 0.3230172 0.323728 0.3239712 0.323976 0.3237828 0.3233571 0.3227757 0.3222355 0.3219026
 0.3217924 0.321801 0.3218178 0.3217939 0.3217411 0.3217072 0.3217425 0.3218639 0.322051 0.3222781
 0.322527 0.3227649 0.3229477 0.3230649 0.3231516 0.3232319 0.3232692 0.3231877 0.3229223 0.3224321
 0.3216831 0.3206431 0.3192869 0.3175859 0.3155105 0.3131253 0.3107529 0.3090119 0.3085603 0.3096755
 0.3120345 0.3148975 0.3175273 0.3195068 0.3207787 0.321494 0.3218444 0.3219784 0.3219824 0.3218915
 0.3217137 0.3214581 0.3211449 0.3207969 0.3204354 0.320085 0.3197686 0.3194919 0.3192357 0.3189638
 0.3186401 0.3182428 0.3177672 0.3172208 0.3166129 0.3159396 0.3151762 0.3142942 0.3132949 0.3122249
 0.3111524 0.3101307 0.3091722 0.3082482 0.3073122 0.3063216 0.3052251 0.303951 0.3024729 0.3009076
 0.2994862 0.2983687 0.2975026 0.2966906 0.2957681 0.2946876 0.2934756 0.2921736 0.2908195 0.2894423
 0.2880508 0.28663 0.2851502 0.2835818 0.2819087 0.2801344 0.2782744 0.276347 0.2743729 0.2723687
 0.2703205 0.2681562 0.265745 0.2629282 0.2595595 0.25554 0.2508446 0.2455384 0.2397784 0.2337869
 0.2278029 0.2220364 0.2166529 0.2117852 0.2075489 0.2040439 0.2013454 0.1994966 0.1985142 0.1983994
 0.1991406 0.2007007 0.2030041 0.2059322 0.2093277 0.2130046 0.21676 0.2203976 0.2237741 0.226849
 0.2296785 0.2323382 0.2348444 0.237152 0.2392129 0.2410134 0.2425604 0.2438578 0.2449114 0.2457474
 0.2464133 0.2469599 0.2474234 0.2478194 0.2481468 0.2484029 0.2485998 0.2487659 0.2489323 0.2491178
 0.2493288 0.2495655 0.2498292 0.2501299 0.2504887 0.2509297 0.2514656 0.252092 0.252792 0.2535489
 0.2543581 0.2552315 0.2561937 0.2572762 0.2585096 0.2599101 0.2614675 0.2631418 0.2648668 0.266553
 0.2680994 0.2694156 0.2704433 0.2711658 0.2716003 0.2717802 0.2717387 0.2715055 0.2711092 0.270576
 0.2699291 0.2691937 0.2683963 0.2675513 0.2666549 0.2656963 0.2646788 0.2636294 0.2625844 0.2615656
 0.2605731 0.2596013 0.2586533 0.2577366 0.2568535 0.2560023 0.2551813 0.2543894 0.2536294 0.2529067
 0.2522199 0.2515507 0.2508623 0.2501031 0.2492191 0.2481753 0.2469647 0.2455958 0.2440786 0.2424225
 0.240642 0.2387578 0.2367924 0.234758 0.2326509 0.2304591 0.2281726 0.2257873 0.2233211 0.220839
 0.21844 0.2162028 0.2141493 0.2122567 0.2104887 0.2088138 0.2072135 0.2056797 0.2042053 0.2027828
 0.2014119 0.2000972 0.1988424 0.1976515 0.1965305 0.1954867 0.1945336 0.1936886 0.1929558 0.1923196
 0.1917588 0.1912599 0.1908259 0.1904875 0.1902883 0.1902325 0.190258 0.1902806 0.1902582 0.1902105
 0.1901916 0.1902445 0.1903699 0.1905358 0.1907012 0.1908112 0.1907814 0.1905136 0.1899213 0.1889368
 0.1875256 0.1857164 0.1836051 0.1813327 0.1790679 0.1769771 0.1751743 0.1737034 0.1725626 0.1717121
 0.1710726 0.1705672 0.1701807 0.1699668 0.1699983 0.1702842 0.1707013 0.1710428 0.1712001 0.1712835
 0.171526 0.1720849 0.1729463 0.1739666 0.1749724 0.1758487 0.1765583 0.1771009 0.1774902 0.1777569
 0.1779249 0.1779844 0.1779163 0.1777216 0.1774119 0.1770014 0.1765156 0.1759678 0.1753391 0.1746101
 0.1737832 0.1728603 0.1718386 0.1707233 0.1694978 0.1681212 0.1666342 0.1652435 0.1642451 0.1638656
 0.164148 0.1649329 0.1659675 0.1670741 0.1681762 0.1691768 0.1699589 0.1705796 0.1713566 0.1726589
 0.1745943 0.1768983 0.1791143 0.1808879 0.1820862 0.182702 0.1827678 0.1823539 0.1815128 0.1802264
 0.1784987 0.1764443 0.174211 0.1719194 0.1697102 0.1677156 0.1659885 0.1645469 0.1634007 0.1625461
 0.1620388 0.1616016 0.1596744 0.1539631 0.1447002 0.1367514 0.1359444 0.1427906 0.151768 0.1572449
 0.1582623 0.1571923 0.1560089 0.1551349 0.1544836 0.1541148 0.1540842 0.1543003 0.1545551 0.1546176
 0.1543779 0.1538421 0.1528916 0.1510501 0.147465 0.1412075 0.1319585 0.1206507 0.1092773 0.09983639
 0.09334254 0.08960862 0.0876677 0.0864491 0.08539391 0.08464856 0.08470987 0.08591416 0.08824855 0.09149802
 0.09539983 0.09961997 0.1037068 0.1072318 0.1100123 0.1121185 0.1136632 0.1146807 0.1151961 0.1152846
 0.1150289 0.114489 0.1137192 0.1127535 0.1115818 0.1101926 0.1086627 0.1071941 0.1060315 0.1053015
 0.1049358 0.1047738 0.10471 0.1047151 0.104773 0.1048642 0.1049841 0.1051448 0.105369 0.1056778
 0.1060518 0.1064192 0.1067086 0.1068994 0.1070077 0.1070371 0.1069519 0.1067075 0.1063291 0.1059253
 0.105545 0.105039 0.1041764 0.1029362 0.1016262 0.1006883 0.1003899 0.100662 0.1011838 0.1016257
 0.1018501 0.1019187 0.1019397 0.1019177</values></Ydata></ScSm><ScRf><Ydata ylabel="Single channel"><values byteorder="INTEL" format="FLOAT32" numvalues="1820"> 0.07047693 0.07061404 0.07073693 0.07084267 0.0709362 0.07102992 0.07113674 0.07126082 0.07139537 0.07152782
 0.07164773 0.07175319 0.07184899 0.07193766 0.07201999 0.07210578 0.072212 0.07234424 0.07248729 0.07261708
 0.07271898 0.07280022 0.07288782 0.07300371 0.07313313 0.07322622 0.0732424 0.07319352 0.07313861 0.07313357
 0.07319507 0.07332486 0.07354118 0.07382864 0.07406873 0.07411575 0.07397821 0.07384208 0.07386684 0.07402755
 0.07419048 0.07426076 0.0742185 0.07410807 0.07406023 0.07425125 0.07474224 0.07534859 0.07569915 0.075453
 0.07452589 0.07321038 0.07210616 0.07180858 0.0724788 0.07366215 0.07462692 0.07495446 0.07476693 0.07441568
 0.07411584 0.07393931 0.07397544 0.07431579 0.0749035 0.07547402 0.07565957 0.07523162 0.07435926 0.07357532
 0.0733415 0.07369231 0.07440001 0.07524976 0.07582984 0.07532547 0.07324217 0.07049894 0.06914033 0.07044704
 0.07359548 0.0765143 0.07776947 0.077321 0.07592386 0.07446346 0.0737219 0.07410812 0.07539096 0.07693075
 0.07818767 0.07886416 0.07877085 0.07791698 0.07668658 0.07567313 0.07534945 0.07593429 0.0773047 0.07885812
 0.07975151 0.07956636 0.07862335 0.07756549 0.07688369 0.07689322 0.0777585 0.07929775 0.08099943 0.08240127
 0.08333098 0.0838026 0.08390178 0.08377074 0.08354063 0.08331163 0.08324605 0.08348478 0.08387087 0.08398458
 0.08360968 0.08302575 0.08272472 0.08290403 0.08329799 0.08349852 0.08335929 0.08291887 0.08198559 0.08023334
 0.0778742 0.07575908 0.0745448 0.0742339 0.07472215 0.07608093 0.0778981 0.07907359 0.07892973 0.07812694
 0.07794826 0.07891047 0.08044144 0.08171438 0.08245047 0.08296157 0.08366334 0.0846051 0.08535227 0.08530687
 0.08431803 0.08306147 0.08259107 0.08332029 0.0846201 0.08559223 0.08601297 0.08630437 0.08678969 0.08722448
 0.08700956 0.08583198 0.08420414 0.08328523 0.08392581 0.08582614 0.08769231 0.08821487 0.0870012 0.08478859
 0.08282553 0.08197317 0.08237231 0.08380453 0.08599865 0.08849029 0.09054548 0.09153371 0.09136403 0.09047208
 0.08934523 0.0880681 0.08649034 0.08492874 0.0843561 0.08549206 0.08787836 0.09024221 0.09166962 0.0921123
 0.09187353 0.09099242 0.08932472 0.08718236 0.08562016 0.08565541 0.08710986 0.08865401 0.08921989 0.08900017
 0.08884399 0.08909758 0.08941408 0.0894632 0.08942359 0.0897267 0.09050429 0.09141991 0.09202577 0.09217568
 0.09205765 0.0919293 0.09187225 0.09174348 0.09139325 0.09099711 0.0910394 0.0918024 0.09298826 0.09402049
 0.09461286 0.09488079 0.09498852 0.094868 0.09433165 0.09343739 0.09266163 0.09256043 0.09322961 0.09423298
 0.09506607 0.09553251 0.09569295 0.09567155 0.09557272 0.09545666 0.09535429 0.09533618 0.09549965 0.09583682
 0.09619845 0.09644112 0.09654361 0.09655235 0.0964877 0.09634677 0.09616183 0.09601863 0.09600449 0.09613941
 0.09636892 0.09661884 0.09682928 0.09694777 0.0969463 0.09685811 0.09675734 0.09669243 0.09666733 0.09668214
 0.09675211 0.09687692 0.09701887 0.0971303 0.09719303 0.097219 0.09722132 0.09720217 0.09716737 0.09713773
 0.09714141 0.09719595 0.09729033 0.09739034 0.09747802 0.09757527 0.09770115 0.09781995 0.09787166 0.097849
 0.09780949 0.09781228 0.09786981 0.09795702 0.09804101 0.09809344 0.09809176 0.09803297 0.09795669 0.09793535
 0.09802057 0.09820543 0.09844643 0.09869906 0.09892232 0.09908433 0.09918837 0.09927057 0.09935686 0.09944016
 0.09950596 0.09956282 0.09964247 0.09977455 0.09995815 0.100158 0.1003343 0.1004705 0.1005718 0.1006594
 0.1007691 0.1009212 0.1010816 0.1011886 0.1012316 0.101271 0.1013637 0.1014965 0.10161 0.1016707
 0.1017017 0.1017482 0.1018306 0.101934 0.1020358 0.1021329 0.1022419 0.1023728 0.1025031 0.102584
 0.1025865 0.102538 0.1024961 0.1024911 0.1025131 0.1025495 0.1026061 0.1026857 0.1027658 0.1028152
 0.1028262 0.1028229 0.1028326 0.1028536 0.102858 0.1028249 0.1027628 0.1026992 0.1026563 0.102638
 0.102631 0.1026161 0.10258 0.1025212 0.1024472 0.102368 0.1022901 0.1022197 0.1021722 0.1021698
 0.1022104 0.1022425 0.1021945 0.1020422 0.1018366 0.1016562 0.1015387 0.1014606 0.1013734 0.1012484
 0.1010931 0.1009342 0.1007914 0.1006664 0.10055 0.1004356 0.1003291 0.10025 0.1002129 0.1002013
 0.1001685 0.1000795 0.09994692 0.09981564 0.09971649 0.09964833 0.09959596 0.09954937 0.099509 0.09948482
 0.09948547 0.09950144 0.09950779 0.09949167 0.09946826 0.09946577 0.09950462 0.0995892 0.09970172 0.09980308
 0.09986088 0.09988381 0.09991385 0.09998073 0.1000785 0.1001881 0.1003046 0.1004339 0.1005778 0.1007334
 0.1009018 0.1010869 0.1012905 0.1015092 0.1017361 0.1019616 0.1021795 0.1023961 0.1026278 0.1028872
 0.1031702 0.1034591 0.1037382 0.1040054 0.1042697 0.1045397 0.1048167 0.1051006 0.1053974 0.1057139
 0.1060453 0.106377 0.1066991 0.1070143 0.1073311 0.1076532 0.1079779 0.1083046 0.1086434 0.1090082
 0.109394 0.1097681 0.1100955 0.1103756 0.1106433 0.1109365 0.1112676 0.1116202 0.1119612 0.1122628
 0.1125268 0.1127876 0.1130768 0.1133909 0.1137046 0.1140135 0.1143444 0.1147172 0.1151064 0.1154543
 0.1157246 0.1159376 0.1161466 0.1163833 0.1166332 0.1168667 0.1170803 0.1172958 0.1175278 0.1177697
 0.1180149 0.1182713 0.1185455 0.1188234 0.1190805 0.1193078 0.1195158 0.1197149 0.1199004 0.1200581
 0.1201803 0.1202782 0.1203794 0.1205049 0.1206498 0.1207928 0.1209259 0.1210636 0.1212225 0.1214056
 0.1216101 0.1218386 0.1220893 0.1223452 0.122591 0.1228391 0.1231185 0.1234303 0.1237308 0.123976
 0.1241702 0.1243528 0.1245488 0.1247571 0.1249781 0.1252258 0.1255089 0.1258157 0.1261229 0.1264145
 0.1266937 0.126981 0.1272906 0.1276063 0.1278886 0.1281139 0.1282993 0.1284856 0.1287042 0.1289595
 0.1292358 0.1295135 0.1297796 0.1300247 0.1302325 0.1303853 0.130484 0.1305522 0.1306092 0.1306414
 0.1306109 0.1304871 0.1302609 0.1299293 0.1294812 0.1289084 0.1282316 0.1275136 0.1268476 0.1263293
 0.1260295 0.1259835 0.1261928 0.1266258 0.1272146 0.1278627 0.1284681 0.1289422 0.1292142 0.1292349
 0.128991 0.1285143 0.1278647 0.1271043 0.1262855 0.1254507 0.1246345 0.1238768 0.1232501 0.1228715
 0.1228728 0.1233498 0.1243259 0.1257351 0.12742 0.1291676 0.1307882 0.1321874 0.1333717 0.1343947
 0.1353055 0.136137 0.136915 0.1376579 0.1383701 0.1390457 0.1396799 0.140273 0.1408231 0.1413198
 0.1417471 0.1420884 0.1423352 0.1424966 0.1425961 0.1426542 0.1426792 0.1426782 0.1426619 0.1426244
 0.1425258 0.1423095 0.1419422 0.1414424 0.1408837 0.1403908 0.1401294 0.1402716 0.1409266 0.142072
 0.1435484 0.1451342 0.1466386 0.1479447 0.1490046 0.1498273 0.1504656 0.1509869 0.151441 0.1518537
 0.1522396 0.1526102 0.152972 0.1533256 0.1536707 0.1540108 0.1543527 0.1546996 0.1550473 0.1553883
 0.1557219 0.156056 0.1563997 0.1567551 0.1571143 0.1574652 0.1578031 0.1581383 0.1584842 0.1588384
 0.1591843 0.1595117 0.1598274 0.160145 0.1604723 0.1608103 0.161153 0.1614878 0.1618025 0.1620969
 0.1623823 0.1626694 0.1629596 0.1632486 0.1635334 0.163815 0.1640956 0.1643768 0.16466 0.1649452
 0.1652292 0.1655051 0.1657678 0.1660202 0.1662724 0.1665325 0.1667986 0.167062 0.1673168 0.1675681
 0.1678266 0.1680972 0.1683717 0.1686368 0.1688858 0.1691239 0.1693615 0.1696057 0.169856 0.1701079
 0.1703585 0.1706086 0.1708604 0.1711149 0.1713717 0.1716302 0.1718885 0.1721448 0.1723986 0.1726508
 0.1729019 0.1731517 0.1734013 0.1736529 0.1739084 0.1741663 0.1744213 0.174668 0.1749037 0.1751303
 0.1753521 0.1755747 0.1758039 0.1760436 0.1762935 0.1765484 0.1768018 0.1770495 0.1772918 0.177531
 0.1777691 0.1780075 0.178248 0.178491 0.178734 0.1789757 0.1792181 0.1794629 0.1797077 0.1799478
 0.1801814 0.1804115 0.1806443 0.180883 0.1811249 0.1813645 0.1816005 0.1818355 0.1820713 0.182309
 0.1825501 0.1827943 0.1830373 0.183275 0.1835094 0.1837462 0.1839876 0.1842296 0.1844657 0.1846946
 0.1849212 0.185151 0.1853862 0.1856263 0.1858695 0.1861114 0.1863495 0.1865884 0.1868331 0.1870816
 0.1873269 0.1875665 0.1878027 0.1880389 0.1882775 0.1885187 0.1887605 0.1890024 0.1892454 0.1894887
 0.1897294 0.1899675 0.1902069 0.1904506 0.1906993 0.1909522 0.1912057 0.1914559 0.1917029 0.1919509
 0.1922036 0.1924638 0.1927313 0.1930017 0.1932686 0.1935294 0.193785 0.1940354 0.1942791 0.1945152
 0.1947433 0.1949663 0.1951903 0.1954188 0.1956492 0.1958785 0.196108 0.1963392 0.1965719 0.1968065
 0.1970437 0.1972834 0.1975262 0.1977725 0.1980206 0.1982707 0.1985258 0.1987855 0.1990434 0.1992974
 0.199551 0.1998064 0.2000644 0.2003282 0.2005979 0.2008686 0.2011378 0.2014068 0.201673 0.201933
 0.202191 0.2024518 0.2027142 0.2029761 0.203239 0.2035031 0.2037683 0.2040382 0.204313 0.2045871
 0.2048589 0.205132 0.2054065 0.2056804 0.2059553 0.2062306 0.2065032 0.2067763 0.2070563 0.2073395
 0.2076188 0.2078967 0.208176 0.2084522 0.2087231 0.2089923 0.2092598 0.2095257 0.2097961 0.2100719
 0.2103445 0.2106097 0.2108683 0.211112 0.2113228 0.2114569 0.2113848 0.2108229 0.2092986 0.2061661
 0.2007346 0.1925412 0.1816282 0.1686238 0.1545702 0.1405993 0.1276236 0.1162126 0.1066671 0.09914277
 0.09373228 0.09053817 0.0897339 0.09164973 0.0968868 0.10596 0.117982 0.1295246 0.1359012 0.1347174
 0.1280444 0.1205395 0.1156525 0.1139336 0.1142138 0.1153413 0.1168604 0.1188806 0.1216787 0.1252911
 0.1294751 0.1341106 0.1394307 0.1456683 0.1526055 0.1596554 0.1663531 0.1726547 0.1787636 0.1847701
 0.1905144 0.1957429 0.2003031 0.204191 0.2075 0.2103655 0.2129121 0.2152206 0.2173402 0.2192981
 0.2210647 0.2225338 0.2235846 0.2241786 0.224408 0.224454 0.2244894 0.2246051 0.2248164 0.2251118
 0.2254776 0.2258984 0.2263633 0.2268673 0.2273987 0.2279397 0.2284805 0.2290173 0.2295417 0.2300452
 0.2305271 0.2309862 0.2314188 0.2318274 0.2322204 0.2326033 0.2329787 0.2333492 0.2337135 0.2340682
 0.2344135 0.2347493 0.2350707 0.2353745 0.2356639 0.2359436 0.2362173 0.2364894 0.2367609 0.2370268
 0.2372837 0.2375353 0.2377851 0.2380335 0.2382813 0.2385293 0.2387758 0.2390209 0.2392671 0.2395132
 0.2397545 0.2399909 0.2402269 0.2404652 0.2407064 0.24095 0.2411945 0.2414372 0.2416762 0.2419119
 0.2421484 0.2423947 0.2426549 0.2429217 0.243187 0.243454 0.2437293 0.2440091 0.2442848 0.2445555
 0.2448272 0.2451036 0.2453837 0.2456615 0.2459282 0.2461785 0.2464147 0.2466426 0.2468685 0.2470984
 0.2473343 0.2475723 0.2478099 0.2480505 0.2482981 0.2485518 0.2488071 0.2490595 0.2493086 0.2495619
 0.2498294 0.2501119 0.250401 0.2506916 0.2509852 0.2512811 0.2515751 0.2518665 0.2521569 0.2524438
 0.2527233 0.2529984 0.2532821 0.2535883 0.2539192 0.2542593 0.2545902 0.2549077 0.2552213 0.2555396
 0.2558655 0.2561923 0.256497 0.2567551 0.2569798 0.2572271 0.2575458 0.2579293 0.25833 0.2587079
 0.2590549 0.2593832 0.2597032 0.2600131 0.2603024 0.2605635 0.2608075 0.2610695 0.261387 0.261761
 0.2621497 0.2625102 0.2628331 0.2631301 0.2634133 0.2636919 0.2639591 0.2641772 0.2643171 0.2644292
 0.2646333 0.2650052 0.2654952 0.2659817 0.26639 0.2667322 0.2670473 0.2673485 0.2676348 0.2678918
 0.2680499 0.2680225 0.2678604 0.267807 0.268097 0.2687183 0.2694408 0.2700521 0.2704988 0.2708356
 0.2711281 0.2714097 0.2716624 0.2718186 0.2718323 0.2717834 0.2718674 0.2722167 0.2727517 0.2732685
 0.2736565 0.2739589 0.2742552 0.2745696 0.2748603 0.2750044 0.27485 0.2744269 0.2740839 0.2742602
 0.2750599 0.2761321 0.2770213 0.27757 0.2779159 0.2781726 0.278263 0.2780636 0.2775585 0.2768423
 0.2761618 0.2759582 0.2765797 0.2778343 0.2790657 0.2798117 0.2802021 0.2806267 0.2812287 0.281844
 0.2822705 0.2824505 0.2824364 0.2822717 0.2819704 0.2816525 0.2816208 0.2821448 0.2831464 0.2842232
 0.285026 0.2855319 0.2858824 0.2859729 0.2853462 0.2837312 0.2817549 0.2807882 0.2817286 0.2840543
 0.2863884 0.2878611 0.2885897 0.2890351 0.2894008 0.2895736 0.2891177 0.2874221 0.2845314 0.2818686
 0.281372 0.2835861 0.2870487 0.2897056 0.2904795 0.2894922 0.28754 0.285724 0.2850597 0.2859278
 0.2879136 0.2902262 0.2921741 0.2933567 0.2936906 0.293366 0.2927677 0.2923742 0.292456 0.2926684
 0.2922687 0.2910821 0.2898418 0.2890617 0.288093 0.286182 0.2841439 0.2838573 0.2859415 0.2888647
 0.2907245 0.2911971 0.2911913 0.2910079 0.2895964 0.2859362 0.2809284 0.2773666 0.277549 0.2809847
 0.284881 0.2868882 0.2869593 0.2865488 0.2865633 0.2863991 0.2848368 0.2817691 0.2788687 0.2780925
 0.2794881 0.2811202 0.2812113 0.2793859 0.2757329 0.2703623 0.2648831 0.2627061 0.2660321 0.2731146
 0.2798054 0.2831366 0.2822449 0.2771373 0.2690035 0.2615086 0.2591447 0.2630867 0.2698213 0.2745508
 0.2749771 0.2713985 0.2647508 0.2561972 0.2481466 0.2439605 0.2458151 0.2529504 0.2617993 0.2675248
 0.2664973 0.2592111 0.2510073 0.2480485 0.2515238 0.2568657 0.2591189 0.2576003 0.2548683 0.2532335
 0.2534815 0.2553146 0.2576916 0.2596487 0.2610373 0.2611485 0.2573428 0.2479669 0.2366917 0.2305674
 0.2327571 0.2399904 0.2479002 0.2554194 0.2623523 0.2662261 0.2649212 0.2608696 0.2595018 0.2634477
 0.2700316 0.274691 0.2756061 0.2744381 0.2733068 0.2722667 0.2703588 0.2683319 0.2686731 0.2725137
 0.2778557 0.2817386 0.283208 0.2833141 0.2831215 0.2828118 0.2822378 0.2813697 0.2802547 0.2790289
 0.2779059 0.2769431 0.2759983 0.2750042 0.2739009 0.2720369 0.2682196 0.2622674 0.2563396 0.2534494
 0.2543008 0.2568463 0.259229 0.2611276 0.2612972 0.2565565 0.245942 0.2344335 0.2295302 0.2340014
 0.243679 0.2521347 0.2557626 0.2542321 0.248314 0.2395175 0.231601 0.229923 0.2373202 0.251134
 0.2655903 0.276677 0.283678 0.2869394 0.2863224 0.2823313 0.2773991 0.2749305 0.2769648 0.2828337
 0.289674 0.2937642 0.2921441 0.2850478 0.2775192 0.2763668 0.2834151 0.2930815 0.2985362 0.298856
 0.2980328 0.2986359 0.2996105 0.2997829 0.3003244 0.3027837 0.306544 0.3093355 0.3092696 0.3056358
 0.2988902 0.2912008 0.286105 0.2857133 0.2883785 0.2905844 0.2905522 0.288278 0.2833264 0.2757906
 0.2690559 0.2679855 0.2733954 0.2808183 0.2855946 0.2872092 0.2878504 0.2884704 0.2876668 0.2840353
 0.2786676 0.274681 0.2741657 0.2762145 0.2784173 0.2794699 0.2793791 0.277956 0.2748264 0.2710495
 0.2692608 0.2713295 0.2763535 0.2815329 0.2847403 0.2858215 0.2857837 0.2854994 0.2852377 0.2848274
 0.2840881 0.2834284 0.2838711 0.2859657 0.2888348 0.2909747 0.2919947 0.2929383 0.2948177 0.2973785
 0.2994944 0.3004144 0.3004212 0.300465 0.3013059 0.3028885 0.3043981 0.3049818 0.3045903 0.3041369
 0.3046761 0.3063953 0.3085399 0.3102758 0.311388 0.3121628 0.312914 0.3137148 0.3143645 0.3145591
 0.3142974 0.3141235 0.3147183 0.3161889 0.3179368 0.3192635 0.3199422 0.3201733 0.3201799 0.3199963
 0.3195856 0.3190218 0.3184961 0.3181692 0.3180591 0.3180727 0.3181086 0.3181146 0.3180885 0.3180677
 0.3181049 0.3182237 0.3184033 0.3186126 0.3188331 0.3190386 0.319193 0.3192927 0.3193766 0.3194667
 0.3195221 0.3194677 0.3192435 0.3188069 0.3181145 0.3171251 0.3158131 0.3141539 0.3121233 0.3097887
 0.3074708 0.3057811 0.305371 0.3065164 0.308897 0.3117781 0.3144273 0.3164305 0.3177319 0.3184817
 0.3188671 0.3190267 0.319038 0.3189359 0.3187375 0.318463 0.3181387 0.3177859 0.3174199 0.317059
 0.3167251 0.3164289 0.3161582 0.3158821 0.3155654 0.3151819 0.3147206 0.3141831 0.3135773 0.3129065
 0.3121572 0.311306 0.3103493 0.3093256 0.3083001 0.3073251 0.3064126 0.3055352 0.30465 0.3037157
 0.3026789 0.3014691 0.3000661 0.2985902 0.2972695 0.2962576 0.2954946 0.294776 0.2939323 0.292918
 0.2917677 0.2905286 0.2892362 0.287913 0.2865638 0.2851759 0.2837257 0.2821869 0.2805439 0.2787998
 0.2769713 0.2750778 0.2731408 0.2711777 0.2691754 0.267061 0.2647039 0.2619497 0.2586609 0.2547453
 0.2501762 0.2450118 0.2394035 0.2335709 0.2277487 0.2221404 0.2169054 0.2121732 0.2080562 0.2046481
 0.2020185 0.2002111 0.1992486 0.1991374 0.1998655 0.2013945 0.2036513 0.2065219 0.2098541 0.2134663
 0.217159 0.2207374 0.2240606 0.2270899 0.2298805 0.2325026 0.234969 0.2372383 0.2392685 0.2410478
 0.2425814 0.2438726 0.2449288 0.2457778 0.2464696 0.2470577 0.2475747 0.2480236 0.24839 0.2486654
 0.2488641 0.2490197 0.2491683 0.2493357 0.2495359 0.249773 0.2500466 0.2503595 0.2507249 0.2511643
 0.2516952 0.2523167 0.2530068 0.2537367 0.2544948 0.2552963 0.2561761 0.2571745 0.2583274 0.2596546
 0.2611464 0.2627591 0.2644209 0.266041 0.2675223 0.2687778 0.2697499 0.2704244 0.270823 0.2709778
 0.2709123 0.2706481 0.2702185 0.2696635 0.2690152 0.2682943 0.2675142 0.2666808 0.2657915 0.2648444
 0.2638492 0.2628302 0.2618137 0.2608145 0.2598357 0.2588823 0.2579619 0.257075 0.2562139 0.2553765
 0.2545693 0.2537971 0.253059 0.2523512 0.2516673 0.2509938 0.2503033 0.2495497 0.2486791 0.2476543
 0.2464668 0.2451225 0.2436284 0.2419962 0.240245 0.2383951 0.2364609 0.2344492 0.2323601 0.2301917
 0.2279411 0.2256012 0.2231773 0.2207205 0.2183271 0.2160869 0.2140379 0.2121659 0.2104328 0.208802
 0.2072509 0.2057666 0.2043368 0.2029544 0.2016259 0.2003628 0.19917 0.1980492 0.1970035 0.1960379
 0.1951655 0.1944074 0.1937735 0.1932509 0.1928167 0.1924538 0.1921598 0.191959 0.1918882 0.1919466
 0.1920672 0.192158 0.1921651 0.1920975 0.1920061 0.1919402 0.1919136 0.1919117 0.1919186 0.191906
 0.1918022 0.1914994 0.190893 0.1899036 0.188491 0.1866787 0.1845603 0.1822807 0.1800119 0.1779178
 0.1761125 0.1746479 0.1735289 0.1727098 0.172098 0.1716104 0.171238 0.1710449 0.1711091 0.171435
 0.171888 0.1722531 0.1724251 0.1725263 0.1727976 0.1733928 0.1742889 0.1753386 0.1763738 0.1772855
 0.1780333 0.1786068 0.1790141 0.179292 0.1794763 0.1795634 0.1795321 0.1793799 0.1791147 0.1787464
 0.1782938 0.1777652 0.1771429 0.1764157 0.1755971 0.1746957 0.1737065 0.1726252 0.1714216 0.1700467
 0.1685457 0.1671421 0.1661505 0.1658033 0.1661365 0.1669811 0.1680796 0.169252 0.1704184 0.1714791
 0.1723211 0.173007 0.173852 0.1752143 0.1771949 0.1795348 0.1817914 0.1836186 0.1848774 0.1855438
 0.1856369 0.1852263 0.1843743 0.183072 0.1813264 0.1792496 0.1769884 0.1746668 0.1724336 0.170429
 0.1687093 0.1672895 0.1661701 0.1653361 0.1648422 0.1644189 0.1624923 0.1567245 0.1473327 0.1392533
 0.1384203 0.14537 0.1544968 0.1600711 0.1611057 0.1599986 0.1587535 0.1578144 0.1571123 0.1567137
 0.1566643 0.1568565 0.1570743 0.1570936 0.1568204 0.1562717 0.1553173 0.1534507 0.1497904 0.1433967
 0.1339626 0.1224529 0.1108985 0.1013196 0.09472829 0.09092116 0.08891812 0.08764522 0.08654818 0.08578029
 0.08584072 0.08706129 0.08942337 0.09271327 0.09667542 0.1009772 0.105153 0.1087517 0.1115774 0.1137061
 0.115265 0.1162951 0.116817 0.1169001 0.1166295 0.1160748 0.1152962 0.1143245 0.1131445 0.1117447
 0.1102044 0.1087261 0.1075517 0.1068044 0.1064117 0.1062123 0.106109 0.1060858 0.1061343 0.1062316
 0.1063654 0.1065392 0.1067676 0.1070662 0.10742 0.1077693 0.1080524 0.108251 0.1083789 0.1084369
 0.1083806 0.1081498 0.1077593 0.1073249 0.1069147 0.1063951 0.1055413 0.1043309 0.1030647 0.10217
 0.1018968 0.1021686 0.1026725 0.1030952 0.1033106 0.1033789 0.1033998 0.1033719 0.1031831 0.1027337
</values></Ydata></ScRf><Data_Parameters_AB><parameter name="DPF">1</parameter><parameter name="NPT">3497</parameter><parameter name="FXV">3996</parameter><parameter name="LXV">500</parameter><parameter name="CSF">1</parameter><parameter name="MXY">0.0200418774038553</parameter><parameter name="MNY">-0.0329600088298321</parameter><parameter name="DAT">18/01/2024</parameter><parameter name="TIM">11:44:37.917 (GMT+1)</parameter><parameter name="DXU">WN</parameter></Data_Parameters_AB><AB__Qtest><MainReport name="Quality Test Report"><Header><Line><Legend>Test result ok/not ok [1/0]: </Legend><Value>0</Value></Line><Line><Legend>Method file: </Legend><Value>C:\Users\Public\Documents\Bruker\OPUS_8.2.28\QT\IRBT_v3_default.QT</Value></Line></Header><Matrix><Line><Legend></Legend><Legend>min</Legend><Legend>max</Legend><Legend>measured</Legend></Line><Line><Value>Absorption (X-Range 1):</Value><Value>0.400000</Value><Value>2.000000</Value><Value>0.026107</Value></Line><Line><Value>Noise (X-Range 4):</Value><Value></Value><Value>0.000300</Value><Value>0.000021</Value></Line><Line><Value>Signal/Noise (X-Range 2):</Value><Value>200.000000</Value><Value></Value><Value>10.006818</Value></Line><Line><Value>Signal/Noise (X-Range 3):</Value><Value>40.000000</Value><Value></Value><Value>10.978287</Value></Line><Line><Value>Water vapour (X-Range 5):</Value><Value></Value><Value>0.000300</Value><Value>0.000006</Value></Line><Line><Value>Signal/Water (X-Range 2):</Value><Value>100.000000</Value><Value></Value><Value>34.889754</Value></Line><Line><Value>Signal/Water (X-Range 3):</Value><Value>20.000000</Value><Value></Value><Value>38.276874</Value></Line><Line><Value>Fringes (X-Range 6):</Value><Value></Value><Value>0.000100</Value><Value>0.000024</Value></Line></Matrix></MainReport></AB__Qtest><Data_Parameters_ScSm><parameter name="DPF">1</parameter><parameter name="NPT">1814</parameter><parameter name="FXV">3996.63438082617</parameter><parameter name="LXV">499.579297603271</parameter><parameter name="CSF">1</parameter><parameter name="MXY">0.323976039886475</parameter><parameter name="MNY">0.074349582195282</parameter><parameter name="DAT">18/01/2024</parameter><parameter name="TIM">11:44:37.917 (GMT+1)</parameter><parameter name="DXU">WN</parameter></Data_Parameters_ScSm><Data_Parameters_ScRf><parameter name="DPF">1</parameter><parameter name="NPT">1820</parameter><parameter name="FXV">4004.34989121387</parameter><parameter name="LXV">495.721542409425</parameter><parameter name="CSF">1</parameter><parameter name="MXY">0.320179879665375</parameter><parameter name="MNY">0.0691403299570084</parameter><parameter name="DAT">18/01/2024</parameter><parameter name="TIM">11:44:10.279 (GMT+1)</parameter><parameter name="DXU">WN</parameter></Data_Parameters_ScRf><Optic_Parameters_Rf><parameter name="APR">0</parameter><parameter name="APT">Open</parameter><parameter name="BMS">KBr</parameter><parameter name="DTC">RT-DLaTGS_IR-Biotyper [Microplate reader]</parameter><parameter name="HPF">0</parameter><parameter name="LPF">10.0</parameter><parameter name="LPV">4000</parameter><parameter name="PGR">0</parameter><parameter name="RCH">Module port</parameter><parameter name="RDX">0</parameter><parameter name="SRC">MIR</parameter><parameter name="VEL">10.0</parameter><parameter name="SON">Off</parameter></Optic_Parameters_Rf><Acquisition_Parameters_Rf><parameter name="ADT">1</parameter><parameter name="AQM">DD</parameter><parameter name="CFE">0</parameter><parameter name="COR">0</parameter><parameter name="DEL">0</parameter><parameter name="DLY">0</parameter><parameter name="HFW">8000</parameter><parameter name="LFW">0</parameter><parameter name="NSR">32</parameter><parameter name="PLF">AB</parameter><parameter name="RES">6</parameter><parameter name="RGN">-1</parameter><parameter name="STR">0</parameter><parameter name="TCL">MakeCompatibleScalar (0, {WSV=1.000000, ARV=0});</parameter><parameter name="TDL">37</parameter><parameter name="RPO">0</parameter></Acquisition_Parameters_Rf><FT_-_Parameters_Rf><parameter name="APF">B3</parameter><parameter name="HFQ">500</parameter><parameter name="LFQ">4000</parameter><parameter name="NLI">0</parameter><parameter name="PHR">24</parameter><parameter name="PHZ">ML</parameter><parameter name="SPZ">NO</parameter><parameter name="ZFF">1</parameter></FT_-_Parameters_Rf><Optic_Parameters_><parameter name="APR">0</parameter><parameter name="APT">Open</parameter><parameter name="BMS">KBr</parameter><parameter name="CHN">Module port</parameter><parameter name="DTC">RT-DLaTGS_IR-Biotyper [Microplate reader]</parameter><parameter name="HPF">0</parameter><parameter name="LPF">10.0</parameter><parameter name="LPV">4000</parameter><parameter name="PGN">0</parameter><parameter name="RDX">0</parameter><parameter name="SRC">MIR</parameter><parameter name="VEL">10.0</parameter><parameter name="SON">Off</parameter></Optic_Parameters_><FT_-_Parameters_><parameter name="APF">B3</parameter><parameter name="HFQ">500</parameter><parameter name="LFQ">4000</parameter><parameter name="NLI">0</parameter><parameter name="PHR">24</parameter><parameter name="PHZ">ML</parameter><parameter name="SPZ">NO</parameter><parameter name="ZFF">1</parameter></FT_-_Parameters_><Acquisition_Parameters_><parameter name="ADT">1</parameter><parameter name="AQM">DD</parameter><parameter name="CFE">0</parameter><parameter name="COR">0</parameter><parameter name="DEL">0</parameter><parameter name="DLY">0</parameter><parameter name="HFW">8000</parameter><parameter name="LFW">0</parameter><parameter name="NSS">32</parameter><parameter name="PLF">AB</parameter><parameter name="RES">6</parameter><parameter name="SOT">0</parameter><parameter name="TCL">MakeCompatibleScalar (0, {WSV=1.000000, ARV=0});</parameter><parameter name="TDL">37</parameter><parameter name="SPO">0</parameter><parameter name="SGN">-1</parameter></Acquisition_Parameters_><Instrument_Parameters_Rf><parameter name="HFL">15801.365274</parameter><parameter name="LFL">0</parameter><parameter name="LWN">15801.365274</parameter><parameter name="ABP">32157</parameter><parameter name="SSP">1</parameter><parameter name="ARG">2</parameter><parameter name="ASG">2</parameter><parameter name="ASS">32</parameter><parameter name="GFW">16</parameter><parameter name="GBW">16</parameter><parameter name="BFW">0</parameter><parameter name="BBW">0</parameter><parameter name="PKA">9298</parameter><parameter name="PKL">4987</parameter><parameter name="PRA">9267</parameter><parameter name="PRL">5010</parameter><parameter name="P2A">1</parameter><parameter name="P2L">1</parameter><parameter name="P2R">1</parameter><parameter name="P2K">1</parameter><parameter name="DAQ">0</parameter><parameter name="AG2">1</parameter><parameter name="SSM">1</parameter><parameter name="RSN">46612</parameter><parameter name="CRR">0</parameter><parameter name="SRT">1705578250.279</parameter><parameter name="DUR">19.6449890136719</parameter><parameter name="TSC">31.8</parameter><parameter name="MVD">0.353226572275162</parameter><parameter name="AN1">0.226012958320196</parameter><parameter name="AN2">0</parameter><parameter name="VSN">2.485 Apr  4 2017</parameter><parameter name="SRN">0085</parameter><parameter name="CAM">0</parameter><parameter name="INS">IR-Biotyper</parameter><parameter name="FOC">69</parameter><parameter name="RDY">1</parameter><parameter name="ARS">32</parameter></Instrument_Parameters_Rf><Sample_Parameters_><parameter name="BLD"></parameter><parameter name="CNM">Admin</parameter><parameter name="CPY"></parameter><parameter name="DPM"></parameter><parameter name="EXP">IRBT_v3_32Scans.XPM</parameter><parameter name="LCT"></parameter><parameter name="SFM">Microplate, HTS-XT</parameter><parameter name="SNM">240118-1045-Cdiff_SCFA_2_C33_232125534_G7_7aea6543-b610-4bc0-a81d-a99a0cc21401.0</parameter><parameter name="XPP">C:\Users\Public\Documents\Bruker\OPUS_8.2.28\XPM</parameter><parameter name="IST">OK</parameter><parameter name="CPG">1252</parameter><parameter name="UID">dbb36808-209c-433a-b9fe-098c42a015ff</parameter></Sample_Parameters_><Instrument_Parameters_><parameter name="HFL">15801.365274</parameter><parameter name="LFL">0</parameter><parameter name="LWN">15801.365274</parameter><parameter name="ABP">32157</parameter><parameter name="SSP">1</parameter><parameter name="ASG">2</parameter><parameter name="ARG">2</parameter><parameter name="ASS">32</parameter><parameter name="GFW">16</parameter><parameter name="GBW">16</parameter><parameter name="BFW">0</parameter><parameter name="BBW">0</parameter><parameter name="PKA">9504</parameter><parameter name="PKL">4987</parameter><parameter name="PRA">9494</parameter><parameter name="PRL">5010</parameter><parameter name="P2A">1</parameter><parameter name="P2L">1</parameter><parameter name="P2R">1</parameter><parameter name="P2K">1</parameter><parameter name="DAQ">0</parameter><parameter name="AG2">1</parameter><parameter name="SSM">1</parameter><parameter name="RSN">23999</parameter><parameter name="CRR">0</parameter><parameter name="SRT">1705578277.918</parameter><parameter name="DUR">19.6449890136719</parameter><parameter name="TSC">31.8</parameter><parameter name="MVD">0.279134929180145</parameter><parameter name="AN1">0.22599373945601</parameter><parameter name="AN2">0</parameter><parameter name="VSN">2.485 Apr  4 2017</parameter><parameter name="SRN">0085</parameter><parameter name="CAM">0</parameter><parameter name="INS">IR-Biotyper</parameter><parameter name="FOC">69</parameter><parameter name="RDY">1</parameter></Instrument_Parameters_><History/></OPUSDataFile>
