<?xml version="1.0" encoding="UTF-8" ?>
<OPUSDataFile><AB><Ydata ylabel="Absorbance Units"><values byteorder="INTEL" format="FLOAT32" numvalues="3497"> -0.02813066 -0.02812333 -0.02811179 -0.02809661 -0.0280788 -0.02806031 -0.02804628 -0.02803673 -0.02803451 -0.02803716
 -0.02804345 -0.02805053 -0.02805583 -0.02805823 -0.02805604 -0.02805103 -0.02804315 -0.0280352 -0.02802784 -0.02802272
 -0.02802045 -0.02801912 -0.02801874 -0.0280152 -0.02800832 -0.02799676 -0.0279809 -0.02796423 -0.02794721 -0.02793456
 -0.02792538 -0.02791946 -0.02791537 -0.02790947 -0.02790215 -0.0278921 -0.02788107 -0.02787101 -0.02786131 -0.02785309
 -0.02784225 -0.02782691 -0.02780473 -0.02777327 -0.02773743 -0.0276968 -0.02766215 -0.02763499 -0.02762295 -0.02762736
 -0.02764371 -0.02767167 -0.02769672 -0.02771837 -0.02772561 -0.02772015 -0.027705 -0.02768273 -0.02766419 -0.02764876
 -0.02764132 -0.02763785 -0.02763398 -0.02762751 -0.02761326 -0.02759417 -0.0275704 -0.02754603 -0.02752373 -0.0275038
 -0.02748723 -0.02747221 -0.02745815 -0.02744581 -0.027435 -0.0274284 -0.02742635 -0.02742904 -0.02743647 -0.02744434
 -0.0274523 -0.02745487 -0.02745228 -0.02744242 -0.02742665 -0.02740807 -0.02738846 -0.02737365 -0.02736398 -0.02736343
 -0.02736915 -0.02738043 -0.02739214 -0.02740014 -0.02740125 -0.02739189 -0.02737407 -0.02734727 -0.02731575 -0.02728038
 -0.02724442 -0.02720848 -0.02717431 -0.02714201 -0.02711437 -0.02709153 -0.02707757 -0.02707251 -0.02707847 -0.02709439
 -0.02711573 -0.02714046 -0.02715878 -0.02717012 -0.02716721 -0.02715326 -0.02712934 -0.02710078 -0.02707419 -0.02705243
 -0.02704102 -0.02703685 -0.02704113 -0.02704543 -0.02704712 -0.02703956 -0.02701949 -0.02698998 -0.02695012 -0.02691077
 -0.02687296 -0.02684385 -0.02682391 -0.02681016 -0.02680218 -0.0267931 -0.0267834 -0.02677215 -0.02676099 -0.02675609
 -0.02675704 -0.02676773 -0.02678262 -0.02679462 -0.02679862 -0.02678368 -0.02675452 -0.02670915 -0.02665959 -0.02661132
 -0.0265744 -0.02655499 -0.02655299 -0.02657084 -0.02659917 -0.02663718 -0.0266753 -0.02671252 -0.02674264 -0.02676528
 -0.0267748 -0.02677108 -0.02675069 -0.02671471 -0.02666734 -0.02661086 -0.02655592 -0.02650383 -0.02646372 -0.02643411
 -0.02641719 -0.02640953 -0.0264081 -0.02640994 -0.02641128 -0.02641191 -0.02641041 -0.02640852 -0.02640724 -0.02640516
 -0.0264029 -0.02639469 -0.02637948 -0.02635426 -0.02631806 -0.0262764 -0.02622949 -0.02618766 -0.02615123 -0.02612729
 -0.02611505 -0.02611342 -0.02612064 -0.02612955 -0.02613884 -0.02614113 -0.02613722 -0.02612428 -0.02610582 -0.02608497
 -0.02606424 -0.02604765 -0.02603342 -0.0260222 -0.02601004 -0.025995 -0.02597678 -0.02595408 -0.02593195 -0.02591089
 -0.02589594 -0.02588798 -0.02588633 -0.02589105 -0.02589605 -0.02590097 -0.02589924 -0.02589109 -0.02587457 -0.02585087
 -0.02582339 -0.02579319 -0.02576479 -0.02573819 -0.02571557 -0.0256963 -0.02568056 -0.02566737 -0.02565605 -0.02564551
 -0.02563479 -0.02562368 -0.02561151 -0.02559994 -0.02558924 -0.02558108 -0.02557608 -0.02557305 -0.02557211 -0.02557006
 -0.02556672 -0.02556074 -0.02555216 -0.02554206 -0.02553047 -0.02551822 -0.02550516 -0.02549083 -0.02547566 -0.02546025
 -0.02544564 -0.02543421 -0.02542593 -0.02542221 -0.02542117 -0.025422 -0.02542205 -0.02541958 -0.02541273 -0.02540022
 -0.02538155 -0.02535573 -0.02532588 -0.02529188 -0.0252599 -0.02523058 -0.02520876 -0.02519491 -0.02518607 -0.02518176
 -0.0251721 -0.02515706 -0.02513077 -0.02509544 -0.02505696 -0.0250174 -0.02498631 -0.02496204 -0.02494659 -0.0249362
 -0.02492635 -0.02491603 -0.02490212 -0.02488682 -0.02487069 -0.02485521 -0.0248416 -0.02482876 -0.02481684 -0.02480367
 -0.02478904 -0.02477037 -0.0247473 -0.0247184 -0.02468343 -0.02464642 -0.02460771 -0.02457514 -0.02454855 -0.02453115
 -0.02452116 -0.02451283 -0.02450459 -0.02448853 -0.02446587 -0.02443429 -0.02439778 -0.02436069 -0.02432577 -0.02429805
 -0.02427541 -0.02425887 -0.024243 -0.02422573 -0.02420324 -0.02417311 -0.02413807 -0.02409735 -0.0240599 -0.02402673
 -0.02400387 -0.02399204 -0.02398648 -0.02398668 -0.02398185 -0.02397184 -0.02395031 -0.02391831 -0.02387677 -0.02382731
 -0.02377474 -0.02372027 -0.02366848 -0.02361979 -0.02357691 -0.02353878 -0.02350562 -0.02347558 -0.02344753 -0.02342034
 -0.02339311 -0.02336595 -0.02333881 -0.0233114 -0.02328394 -0.02325424 -0.02322219 -0.02318474 -0.02314161 -0.02309294
 -0.02303891 -0.02298475 -0.02293089 -0.02288373 -0.02284265 -0.02280889 -0.02278036 -0.0227518 -0.02272165 -0.02268353
 -0.02263929 -0.02258803 -0.02253392 -0.02248063 -0.02243096 -0.02238857 -0.02235187 -0.02232179 -0.02229334 -0.0222652
 -0.02223392 -0.0221983 -0.02215842 -0.02211389 -0.02206768 -0.02201989 -0.02197475 -0.02193241 -0.02189532 -0.02186308
 -0.02183366 -0.02180593 -0.02177372 -0.02173612 -0.02168668 -0.0216266 -0.02155436 -0.02147367 -0.02138852 -0.02130327
 -0.02122376 -0.02115186 -0.02109114 -0.0210397 -0.02099835 -0.02096185 -0.02092917 -0.02089457 -0.02085648 -0.02081262
 -0.02076217 -0.02070725 -0.02064787 -0.02058768 -0.02052685 -0.02046851 -0.0204127 -0.02036144 -0.02031432 -0.02027066
 -0.02022951 -0.02018745 -0.02014426 -0.02009745 -0.02004812 -0.01999701 -0.01994455 -0.01989192 -0.01983768 -0.01978076
 -0.01972156 -0.01965866 -0.01959813 -0.01954119 -0.01949427 -0.01945987 -0.01943598 -0.01942365 -0.01941107 -0.0193975
 -0.01937194 -0.01933402 -0.01928244 -0.01921793 -0.01914665 -0.01906954 -0.01899436 -0.01892138 -0.01885583 -0.01879638
 -0.01874348 -0.01869385 -0.01864302 -0.01858847 -0.01852474 -0.01845484 -0.0183777 -0.01830158 -0.01823011 -0.01816917
 -0.01812282 -0.01808727 -0.01806347 -0.0180409 -0.01801825 -0.01798815 -0.01794963 -0.01790366 -0.01785036 -0.01779591
 -0.0177406 -0.01768993 -0.01764348 -0.01760226 -0.01756525 -0.01752979 -0.01749517 -0.01745838 -0.01741998 -0.0173793
 -0.01733761 -0.01729637 -0.01725536 -0.01721567 -0.01717413 -0.0171295 -0.01707927 -0.0170214 -0.0169591 -0.01689185
 -0.01682785 -0.01676833 -0.01671775 -0.01667699 -0.01664073 -0.01660863 -0.01657036 -0.01652589 -0.01647101 -0.01640722
 -0.01634009 -0.01627136 -0.01621008 -0.01615579 -0.0161127 -0.0160776 -0.0160477 -0.01601965 -0.01598826 -0.01595357
 -0.01591318 -0.01587076 -0.0158276 -0.01578633 -0.01574883 -0.01571316 -0.01567958 -0.01564399 -0.01560562 -0.01556325
 -0.01551651 -0.01546802 -0.01541792 -0.01536973 -0.01532346 -0.01528034 -0.01524037 -0.01520404 -0.01517173 -0.01514511
 -0.0151242 -0.01511048 -0.0151021 -0.01509765 -0.01509319 -0.01508411 -0.01506739 -0.01503857 -0.01499896 -0.01494709
 -0.01488861 -0.01482452 -0.01476206 -0.01470322 -0.01465191 -0.0146096 -0.01457329 -0.01454313 -0.0145118 -0.01447894
 -0.01444051 -0.01439692 -0.01435195 -0.01430637 -0.01426687 -0.014233 -0.01420726 -0.01418779 -0.01417172 -0.01415744
 -0.01414117 -0.01412197 -0.01409746 -0.01406706 -0.01402932 -0.01398492 -0.01393312 -0.0138774 -0.01381831 -0.01376083
 -0.01370635 -0.01365758 -0.01361532 -0.01357943 -0.01354998 -0.01352689 -0.01351016 -0.01350008 -0.01349643 -0.01349708
 -0.01350127 -0.0135034 -0.01350302 -0.01349522 -0.01348074 -0.01345868 -0.01343051 -0.01339817 -0.01336287 -0.01332668
 -0.01329026 -0.01325479 -0.01322041 -0.01318761 -0.01315578 -0.01312489 -0.01309413 -0.01306333 -0.01303185 -0.01299956
 -0.01296595 -0.01293086 -0.01289541 -0.01285965 -0.01282724 -0.01279842 -0.01277755 -0.01276416 -0.01275799 -0.0127577
 -0.01275844 -0.01275911 -0.01275439 -0.01274455 -0.01272742 -0.01270433 -0.01267571 -0.01264364 -0.01260961 -0.01257591
 -0.01254399 -0.01251584 -0.01249258 -0.01247501 -0.0124639 -0.0124575 -0.01245618 -0.01245435 -0.01245166 -0.01244164
 -0.01242388 -0.01239709 -0.01236165 -0.0123227 -0.01228079 -0.01224206 -0.01220628 -0.0121758 -0.01215021 -0.01212974
 -0.01211383 -0.01210205 -0.01209282 -0.01208453 -0.01207483 -0.01206108 -0.01204265 -0.01201809 -0.01198889 -0.01195507
 -0.0119188 -0.01188045 -0.01184254 -0.01180543 -0.0117715 -0.0117411 -0.01171465 -0.01169221 -0.01167225 -0.01165472
 -0.01163882 -0.01162476 -0.01161358 -0.01160514 -0.01159967 -0.01159621 -0.01159248 -0.01158782 -0.01157996 -0.01156886
 -0.0115536 -0.01153441 -0.01151118 -0.01148415 -0.01145318 -0.01141943 -0.01138309 -0.01134599 -0.01130865 -0.01127232
 -0.01123733 -0.01120419 -0.01117299 -0.01114393 -0.01111703 -0.0110921 -0.0110691 -0.01104731 -0.01102659 -0.01100572
 -0.01098423 -0.01095989 -0.0109319 -0.01089692 -0.01085498 -0.01080376 -0.01074592 -0.01068289 -0.01061967 -0.01056076
 -0.0105101 -0.0104718 -0.01044549 -0.01043281 -0.01042903 -0.01043382 -0.01044025 -0.0104472 -0.01044888 -0.01044437
 -0.01043192 -0.01041127 -0.01038619 -0.01035703 -0.01033076 -0.01030756 -0.01029249 -0.01028475 -0.01028428 -0.01028956
 -0.01029671 -0.0103046 -0.01030888 -0.01031071 -0.01030935 -0.01030761 -0.010308 -0.01031143 -0.01031976 -0.01033094
 -0.01034453 -0.01035896 -0.01037324 -0.01038913 -0.01040688 -0.0104276 -0.01045172 -0.0104767 -0.01050243 -0.01052567
 -0.01054634 -0.01056334 -0.01057666 -0.01058555 -0.01059015 -0.01059 -0.01058649 -0.01058282 -0.01058097 -0.0105868
 -0.01059952 -0.01062158 -0.01064831 -0.01067643 -0.01070238 -0.01072215 -0.01073735 -0.010747 -0.01075621 -0.01076649
 -0.01078021 -0.01079868 -0.01081843 -0.01083953 -0.01085536 -0.01086542 -0.01086696 -0.01086014 -0.01084957 -0.01083597
 -0.01082726 -0.01082317 -0.01082716 -0.01083753 -0.01085152 -0.01086728 -0.01087995 -0.01088868 -0.01089016 -0.01088489
 -0.01087176 -0.01085276 -0.01082822 -0.01080183 -0.0107749 -0.0107513 -0.01073245 -0.01072039 -0.01071593 -0.01071872
 -0.01072901 -0.01074427 -0.01076443 -0.01078494 -0.01080556 -0.01082226 -0.01083514 -0.01084319 -0.01084688 -0.01084775
 -0.01084592 -0.01084261 -0.01083747 -0.01083022 -0.0108211 -0.01080994 -0.01079811 -0.01078661 -0.01077698 -0.01077048
 -0.01076808 -0.01077056 -0.01077808 -0.01079117 -0.01080805 -0.01082884 -0.01084958 -0.01086984 -0.01088653 -0.01089925
 -0.0109095 -0.01091742 -0.01092679 -0.01093734 -0.01094878 -0.01096001 -0.01096541 -0.01096495 -0.01095466 -0.01093735
 -0.01091614 -0.01089492 -0.01088107 -0.0108748 -0.01088026 -0.0108924 -0.01090963 -0.01092617 -0.01093808 -0.01094579
 -0.01094752 -0.01095023 -0.01095497 -0.01096738 -0.01098896 -0.01101659 -0.01105044 -0.01108062 -0.01110672 -0.01112177
 -0.01112647 -0.01112368 -0.01111491 -0.01110901 -0.01110619 -0.01111231 -0.01112504 -0.01114278 -0.01116263 -0.01117933
 -0.01119262 -0.01119973 -0.01120328 -0.01120414 -0.01120458 -0.01120627 -0.01120874 -0.01121243 -0.01121534 -0.01121712
 -0.0112165 -0.01121309 -0.01120808 -0.01120147 -0.01119584 -0.01119132 -0.01118974 -0.01119093 -0.01119427 -0.01119936
 -0.01120391 -0.01120791 -0.01120991 -0.01121047 -0.0112101 -0.0112091 -0.01120827 -0.01120717 -0.01120567 -0.01120332
 -0.01119943 -0.01119492 -0.01118956 -0.01118611 -0.01118537 -0.01118943 -0.01119929 -0.01121351 -0.01123243 -0.01125108
 -0.01126912 -0.01128181 -0.01128897 -0.01128973 -0.01128441 -0.01127563 -0.01126371 -0.01125166 -0.01123958 -0.01122937
 -0.0112211 -0.01121581 -0.01121354 -0.01121492 -0.01121962 -0.0112278 -0.0112382 -0.01125038 -0.01126203 -0.01127197
 -0.01127856 -0.01128052 -0.01127928 -0.0112745 -0.01127029 -0.01126716 -0.01126833 -0.01127423 -0.01128453 -0.01129921
 -0.01131671 -0.01133704 -0.01135992 -0.01138528 -0.01141287 -0.01144205 -0.01147061 -0.01149793 -0.01152141 -0.01154131
 -0.01155687 -0.01156852 -0.01157637 -0.01158106 -0.01158252 -0.01158324 -0.01158385 -0.01158839 -0.01159866 -0.01161581
 -0.01164115 -0.0116703 -0.01170299 -0.01173419 -0.01176333 -0.01178909 -0.01181141 -0.01183084 -0.01184734 -0.01186043
 -0.01187043 -0.01187837 -0.01188538 -0.01189592 -0.01191035 -0.0119326 -0.01195988 -0.01199005 -0.01201955 -0.01204291
 -0.01206076 -0.01207081 -0.01207808 -0.01208454 -0.01209386 -0.01210854 -0.01212672 -0.01214875 -0.01217056 -0.01219146
 -0.01220995 -0.01222578 -0.01223929 -0.01225049 -0.01225873 -0.01226402 -0.01226592 -0.01226493 -0.01226347 -0.01226225
 -0.01226528 -0.01227215 -0.01228429 -0.0123001 -0.01231769 -0.01233601 -0.01235301 -0.01236894 -0.01238367 -0.01239654
 -0.01240762 -0.01241477 -0.01241708 -0.01241381 -0.01240392 -0.01239143 -0.01237644 -0.01236537 -0.012359 -0.01235911
 -0.01236579 -0.01237306 -0.0123804 -0.01237928 -0.01237002 -0.01234955 -0.01231966 -0.01228486 -0.01224663 -0.01221125
 -0.01217759 -0.01214711 -0.01211688 -0.01208386 -0.01204696 -0.01200348 -0.01195633 -0.01190592 -0.01185632 -0.01180945
 -0.01176616 -0.01172737 -0.01169084 -0.01165639 -0.01162195 -0.01158718 -0.0115526 -0.01151822 -0.0114854 -0.01145419
 -0.01142573 -0.01140021 -0.0113793 -0.01136349 -0.01135566 -0.01135548 -0.01136414 -0.01137977 -0.01140007 -0.01142299
 -0.01144511 -0.01146582 -0.01148333 -0.01149839 -0.01151135 -0.01152128 -0.01152848 -0.01152958 -0.01152383 -0.01150873
 -0.01148334 -0.01144956 -0.01140714 -0.01136266 -0.01131645 -0.01127564 -0.01124043 -0.01121486 -0.01119856 -0.01119146
 -0.01119286 -0.01120022 -0.01121292 -0.01122814 -0.0112458 -0.01126427 -0.0112845 -0.01130671 -0.0113325 -0.01136311
 -0.01139996 -0.01144422 -0.0114963 -0.01155671 -0.01162507 -0.0117014 -0.01178518 -0.01187643 -0.01197408 -0.01207815
 -0.01218616 -0.012298 -0.01240848 -0.01251721 -0.01261746 -0.01270896 -0.01278617 -0.01284985 -0.0128994 -0.01293682
 -0.01296658 -0.01299062 -0.0130144 -0.0130385 -0.01306583 -0.01309601 -0.01312967 -0.01316618 -0.01320568 -0.01324646
 -0.01328841 -0.01332804 -0.01336442 -0.01339522 -0.01341964 -0.01343849 -0.01345164 -0.0134613 -0.01346761 -0.01347069
 -0.01347051 -0.013466 -0.01345735 -0.01344507 -0.01342987 -0.01341455 -0.01339999 -0.01338977 -0.01338447 -0.01338706
 -0.01339681 -0.01341471 -0.01343775 -0.01346421 -0.01349029 -0.0135129 -0.01353143 -0.01354441 -0.01355434 -0.01356167
 -0.01356815 -0.01357441 -0.01357941 -0.01358306 -0.01358475 -0.01358438 -0.01358528 -0.01358768 -0.0135963 -0.01361103
 -0.01363359 -0.01366352 -0.01369965 -0.01374213 -0.01379056 -0.01384563 -0.01390874 -0.01397937 -0.01405825 -0.01414223
 -0.01422956 -0.0143157 -0.01439766 -0.01447218 -0.01453694 -0.01459183 -0.01463595 -0.01467206 -0.01470032 -0.01472438
 -0.01474465 -0.01476383 -0.01478215 -0.01479995 -0.01481717 -0.01483295 -0.01484726 -0.01485936 -0.0148694 -0.01487741
 -0.01488374 -0.01488918 -0.01489429 -0.01490056 -0.01490789 -0.01491712 -0.01492696 -0.01493673 -0.01494499 -0.01495045
 -0.01495301 -0.01495201 -0.0149491 -0.01494437 -0.01494025 -0.01493711 -0.01493719 -0.0149408 -0.01494929 -0.01496282
 -0.01497969 -0.01499975 -0.0150196 -0.01503916 -0.01505634 -0.01507144 -0.01508478 -0.0150964 -0.01510663 -0.01511512
 -0.01512116 -0.01512497 -0.01512631 -0.01512612 -0.01512512 -0.01512414 -0.01512404 -0.01512484 -0.01512689 -0.0151295
 -0.01513267 -0.01513511 -0.01513654 -0.01513642 -0.01513446 -0.01513265 -0.01513108 -0.01513246 -0.0151368 -0.01514358
 -0.01515242 -0.01515984 -0.01516584 -0.01516841 -0.0151682 -0.0151661 -0.01516261 -0.015159 -0.01515576 -0.01515362
 -0.015154 -0.01515842 -0.01516797 -0.01518444 -0.015206 -0.01523299 -0.01526083 -0.01528838 -0.01531185 -0.01533016
 -0.01534205 -0.01534706 -0.01534673 -0.01534107 -0.01533328 -0.01532357 -0.01531588 -0.01531028 -0.01530939 -0.01531275
 -0.01532008 -0.01533021 -0.01533982 -0.01534771 -0.01534955 -0.01534597 -0.01533507 -0.01532055 -0.01530463 -0.01529185
 -0.01528651 -0.01528853 -0.01530006 -0.01531539 -0.01533352 -0.01534871 -0.01535918 -0.01536457 -0.01536427 -0.01536223
 -0.01535868 -0.01535674 -0.01535646 -0.01535793 -0.01536092 -0.01536373 -0.01536623 -0.01536686 -0.01536595 -0.01536356
 -0.0153603 -0.01535749 -0.01535534 -0.01535496 -0.01535571 -0.01535746 -0.01535954 -0.01536132 -0.01536299 -0.01536431
 -0.0153663 -0.01536932 -0.01537363 -0.01537962 -0.0153855 -0.01539119 -0.01539428 -0.01539451 -0.01539211 -0.01538716
 -0.01538315 -0.01538028 -0.01538198 -0.0153878 -0.0153975 -0.01541013 -0.01542283 -0.0154349 -0.01544353 -0.01544863
 -0.01544882 -0.01544447 -0.01543518 -0.0154222 -0.01540571 -0.01538855 -0.01537179 -0.0153585 -0.01534993 -0.01534751
 -0.01535216 -0.01536202 -0.0153773 -0.01539342 -0.01541011 -0.01542248 -0.01543036 -0.01543227 -0.01542859 -0.01542232
 -0.01541403 -0.01540824 -0.01540484 -0.01540613 -0.01541097 -0.01541835 -0.01542669 -0.01543314 -0.01543705 -0.01543625
 -0.01543224 -0.01542511 -0.01541732 -0.0154104 -0.01540453 -0.01540049 -0.01539601 -0.0153907 -0.01538301 -0.01537243
 -0.01536049 -0.01534725 -0.01533458 -0.01532256 -0.01531118 -0.01530042 -0.01528976 -0.01527945 -0.0152705 -0.01526314
 -0.01525887 -0.01525722 -0.01525812 -0.01526062 -0.01526336 -0.01526549 -0.01526557 -0.0152635 -0.01525861 -0.01525158
 -0.01524242 -0.01523213 -0.01522089 -0.01521014 -0.01520014 -0.01519254 -0.01518756 -0.01518683 -0.01519059 -0.01519843
 -0.0152103 -0.01522311 -0.01523652 -0.01524582 -0.01525081 -0.0152476 -0.01523704 -0.01521925 -0.01519647 -0.0151735
 -0.01515226 -0.01513832 -0.01513083 -0.01513175 -0.0151373 -0.01514548 -0.01515315 -0.01515775 -0.01515962 -0.01515812
 -0.01515519 -0.01515129 -0.01514706 -0.01514279 -0.01513771 -0.01513176 -0.01512468 -0.01511648 -0.01510808 -0.01509954
 -0.01509212 -0.01508578 -0.0150811 -0.0150779 -0.01507595 -0.01507507 -0.01507471 -0.01507501 -0.01507604 -0.01507759
 -0.0150797 -0.01508153 -0.01508253 -0.0150819 -0.01507891 -0.01507395 -0.01506678 -0.01505896 -0.0150508 -0.01504329
 -0.01503677 -0.01503055 -0.01502468 -0.01501722 -0.01500808 -0.01499568 -0.01498011 -0.01496189 -0.01494145 -0.01492162
 -0.01490273 -0.01488757 -0.01487582 -0.0148683 -0.01486415 -0.01486235 -0.0148623 -0.01486297 -0.01486393 -0.01486474
 -0.01486445 -0.01486259 -0.01485796 -0.01484983 -0.01483847 -0.01482347 -0.01480735 -0.01479025 -0.01477562 -0.01476382
 -0.01475642 -0.01475352 -0.01475383 -0.01475719 -0.01476109 -0.0147655 -0.01476883 -0.01477141 -0.0147736 -0.01477549
 -0.01477763 -0.01477967 -0.01478143 -0.0147823 -0.01478135 -0.01477868 -0.01477402 -0.01476781 -0.01476015 -0.01475152
 -0.01474204 -0.01473222 -0.01472207 -0.01471268 -0.01470417 -0.01469773 -0.01469359 -0.01469107 -0.01469015 -0.01468869
 -0.01468661 -0.01468233 -0.01467604 -0.01466803 -0.01465874 -0.01464995 -0.01464181 -0.01463567 -0.01463121 -0.0146286
 -0.01462737 -0.01462697 -0.01462736 -0.01462811 -0.01462999 -0.0146333 -0.01463862 -0.01464655 -0.01465591 -0.01466696
 -0.0146763 -0.0146835 -0.01468549 -0.01468174 -0.01467285 -0.01465881 -0.01464421 -0.01462929 -0.01461851 -0.01461152
 -0.01460855 -0.01460872 -0.01460881 -0.01460834 -0.0146044 -0.01459745 -0.01458683 -0.01457367 -0.01455883 -0.01454381
 -0.01453005 -0.01451864 -0.01451085 -0.01450607 -0.01450461 -0.01450463 -0.01450562 -0.01450681 -0.01450785 -0.01450965
 -0.01451229 -0.01451661 -0.01452268 -0.01452952 -0.01453704 -0.01454386 -0.01454995 -0.01455455 -0.01455765 -0.01455873
 -0.01455772 -0.01455407 -0.01454808 -0.01453982 -0.01453002 -0.01451954 -0.0145091 -0.01449956 -0.01449138 -0.01448508
 -0.0144807 -0.01447856 -0.01447792 -0.01447895 -0.0144795 -0.01447936 -0.01447598 -0.01446895 -0.01445782 -0.0144425
 -0.0144258 -0.01440794 -0.01439279 -0.01438032 -0.01437232 -0.01436826 -0.01436687 -0.01436794 -0.0143701 -0.01437396
 -0.01438013 -0.01438879 -0.01440108 -0.01441499 -0.0144298 -0.01444197 -0.014449 -0.01444958 -0.01444173 -0.01442889
 -0.01441112 -0.01439391 -0.01437836 -0.0143673 -0.01436144 -0.01435896 -0.01435982 -0.01435989 -0.01435903 -0.01435473
 -0.01434717 -0.01433621 -0.01432214 -0.01430601 -0.01428794 -0.01426866 -0.01424846 -0.01422804 -0.01420809 -0.0141895
 -0.01417339 -0.01416101 -0.0141531 -0.01415064 -0.01415329 -0.01416162 -0.0141732 -0.0141878 -0.01420203 -0.01421517
 -0.01422543 -0.01423236 -0.01423701 -0.01423941 -0.01424143 -0.01424301 -0.0142429 -0.01424051 -0.01423047 -0.01421301
 -0.01418519 -0.01414996 -0.01411321 -0.01407865 -0.01405697 -0.01404697 -0.01405298 -0.01406821 -0.01408818 -0.01410755
 -0.01412091 -0.01412882 -0.01412985 -0.01412708 -0.01412109 -0.01411428 -0.01410708 -0.01410168 -0.01409846 -0.01409828
 -0.0141013 -0.01410495 -0.014109 -0.01410853 -0.01410374 -0.01409377 -0.01407949 -0.01406441 -0.01404842 -0.01403324
 -0.01401784 -0.01400085 -0.01398209 -0.01396016 -0.01393706 -0.01391373 -0.01389316 -0.01387775 -0.01386832 -0.01386653
 -0.0138693 -0.01387664 -0.01388304 -0.0138874 -0.01388636 -0.01387907 -0.01386722 -0.01385077 -0.01383453 -0.01381873
 -0.01380777 -0.01380152 -0.01380133 -0.01380641 -0.01381439 -0.01382401 -0.01383042 -0.0138333 -0.01382923 -0.01381978
 -0.01380525 -0.01378818 -0.01377119 -0.01375557 -0.01374332 -0.01373334 -0.01372595 -0.01371867 -0.01371073 -0.01370081
 -0.01368819 -0.01367441 -0.0136594 -0.01364622 -0.01363511 -0.01362712 -0.01362217 -0.0136177 -0.01361344 -0.01360589
 -0.01359536 -0.01358113 -0.01356408 -0.0135464 -0.01352867 -0.01351326 -0.01349997 -0.01348964 -0.01348159 -0.01347544
 -0.01347082 -0.01346742 -0.0134648 -0.01346301 -0.01346045 -0.01345684 -0.01345003 -0.01343938 -0.01342456 -0.01340516
 -0.01338403 -0.01336129 -0.0133405 -0.01332174 -0.01330589 -0.01329274 -0.01328072 -0.01326992 -0.01325986 -0.01325091
 -0.01324411 -0.0132392 -0.01323651 -0.01323475 -0.01323221 -0.01322814 -0.0132208 -0.01321117 -0.01319918 -0.01318658
 -0.01317428 -0.01316302 -0.01315338 -0.01314487 -0.01313749 -0.01313076 -0.01312456 -0.01311928 -0.01311496 -0.01311189
 -0.01311005 -0.01310852 -0.01310711 -0.01310372 -0.01309826 -0.01308897 -0.01307627 -0.01306036 -0.01304213 -0.01302351
 -0.01300505 -0.01298848 -0.01297351 -0.01296055 -0.01294905 -0.01293875 -0.01292932 -0.01292069 -0.01291208 -0.01290351
 -0.01289304 -0.01288021 -0.01286407 -0.01284415 -0.01282263 -0.01279955 -0.0127789 -0.01276083 -0.01274705 -0.01273736
 -0.01273041 -0.0127259 -0.01272165 -0.01271767 -0.01271299 -0.01270749 -0.01270051 -0.0126917 -0.01267996 -0.01266585
 -0.01264914 -0.01263175 -0.01261492 -0.01260005 -0.01258864 -0.01257927 -0.01257214 -0.01256431 -0.01255497 -0.01254335
 -0.01252904 -0.01251386 -0.01249792 -0.01248287 -0.01246876 -0.01245495 -0.01244134 -0.01242684 -0.01241153 -0.01239538
 -0.01237858 -0.01236179 -0.0123449 -0.01232801 -0.01231101 -0.0122937 -0.01227632 -0.01225892 -0.01224215 -0.01222637
 -0.01221245 -0.01220091 -0.01219234 -0.01218731 -0.01218476 -0.01218494 -0.01218464 -0.01218355 -0.01217841 -0.01216884
 -0.01215406 -0.01213407 -0.01211122 -0.01208577 -0.01206118 -0.01203765 -0.01201822 -0.0120028 -0.01199296 -0.01198798
 -0.01198737 -0.01198963 -0.01199232 -0.01199422 -0.01199285 -0.01198862 -0.01198067 -0.01197106 -0.01196067 -0.01195062
 -0.0119418 -0.0119332 -0.01192486 -0.01191521 -0.01190385 -0.01189129 -0.0118775 -0.01186414 -0.0118513 -0.01183965
 -0.01182908 -0.01181849 -0.01180781 -0.01179597 -0.01178307 -0.01176892 -0.01175374 -0.0117377 -0.01172153 -0.01170617
 -0.01169288 -0.01168365 -0.01167851 -0.01167893 -0.01168182 -0.01168643 -0.01168856 -0.01168621 -0.01167849 -0.01166417
 -0.01164712 -0.01162758 -0.01161009 -0.01159521 -0.01158429 -0.01157743 -0.01157263 -0.01156968 -0.01156559 -0.01156035
 -0.01155222 -0.01154167 -0.01152915 -0.01151543 -0.01150247 -0.01149076 -0.01148201 -0.0114761 -0.01147367 -0.0114741
 -0.01147741 -0.01148209 -0.01148778 -0.0114918 -0.01149333 -0.01148968 -0.0114797 -0.01146389 -0.01144175 -0.01141727
 -0.01139063 -0.01136727 -0.01134752 -0.01133408 -0.01132685 -0.01132498 -0.01132806 -0.01133321 -0.01134013 -0.01134625
 -0.01135143 -0.01135403 -0.0113542 -0.01135146 -0.01134608 -0.01133816 -0.01132803 -0.01131584 -0.01130225 -0.01128752
 -0.01127257 -0.01125782 -0.01124382 -0.01123082 -0.01121883 -0.01120801 -0.01119752 -0.01118729 -0.01117657 -0.01116532
 -0.01115366 -0.01114166 -0.01113052 -0.01112033 -0.01111227 -0.01110602 -0.01110118 -0.01109699 -0.0110914 -0.01108402
 -0.0110729 -0.0110591 -0.01104271 -0.01102599 -0.01101085 -0.01099843 -0.0109903 -0.01098513 -0.01098298 -0.01098166
 -0.0109806 -0.01097867 -0.01097555 -0.01097104 -0.0109651 -0.0109577 -0.01094884 -0.01093917 -0.0109288 -0.01091945
 -0.01091111 -0.01090473 -0.01089981 -0.01089503 -0.01088977 -0.01088161 -0.0108709 -0.01085689 -0.01084074 -0.01082341
 -0.0108061 -0.01079027 -0.01077602 -0.0107639 -0.01075331 -0.01074426 -0.01073575 -0.01072758 -0.01071885 -0.01070932
 -0.01069881 -0.0106872 -0.0106752 -0.01066282 -0.0106513 -0.01064062 -0.01063112 -0.01062265 -0.01061455 -0.01060675
 -0.01059866 -0.01059023 -0.01058105 -0.01057089 -0.01055914 -0.01054569 -0.01052996 -0.01051257 -0.01049354 -0.01047447
 -0.01045627 -0.01043997 -0.01042645 -0.01041507 -0.01040606 -0.01039752 -0.01038913 -0.01037966 -0.01036889 -0.01035681
 -0.01034339 -0.01032999 -0.01031665 -0.01030451 -0.01029351 -0.010284 -0.01027578 -0.01026838 -0.01026142 -0.0102536
 -0.01024481 -0.01023411 -0.01022208 -0.01020893 -0.01019572 -0.01018356 -0.01017279 -0.0101643 -0.01015654 -0.01014935
 -0.01014039 -0.01012891 -0.01011383 -0.01009453 -0.01007293 -0.01004902 -0.01002651 -0.01000563 -0.009988431 -0.009974802
 -0.00996284 -0.009952175 -0.009938982 -0.009923605 -0.009905098 -0.009884698 -0.009865398 -0.009847618 -0.009833978 -0.009823115
 -0.00981433 -0.009806484 -0.009798013 -0.00978935 -0.009780376 -0.009771412 -0.009762892 -0.009753576 -0.009743143 -0.009730937
 -0.00971649 -0.009701654 -0.009686556 -0.009673041 -0.009661294 -0.009650451 -0.009640387 -0.009628327 -0.009614281 -0.009596979
 -0.00957673 -0.009554099 -0.009529456 -0.009504049 -0.009478156 -0.009452805 -0.009428273 -0.009405405 -0.009384092 -0.009364702
 -0.009346466 -0.009329009 -0.009311785 -0.009294209 -0.009277138 -0.009260448 -0.009246217 -0.009234884 -0.009227512 -0.009224589
 -0.009223268 -0.009223471 -0.009219909 -0.009212417 -0.00919827 -0.009177992 -0.009154358 -0.009128043 -0.009103748 -0.009081034
 -0.009061377 -0.0090434 -0.009024874 -0.009005627 -0.008984033 -0.008961715 -0.008939556 -0.008918966 -0.008901468 -0.008886425
 -0.008874113 -0.008863041 -0.008852893 -0.008842311 -0.00883103 -0.008817882 -0.008802673 -0.008784792 -0.008764097 -0.008742869
 -0.008721265 -0.008702889 -0.008687556 -0.008675628 -0.008666269 -0.008655757 -0.008643882 -0.008627831 -0.008608533 -0.008586491
 -0.008562516 -0.008538071 -0.008513137 -0.008488059 -0.008463154 -0.008438298 -0.008415231 -0.008394666 -0.008377887 -0.008365808
 -0.00835714 -0.008352113 -0.00834733 -0.008342417 -0.008334767 -0.008324114 -0.008310162 -0.008292928 -0.00827332 -0.008251352
 -0.008227449 -0.008201651 -0.008174126 -0.0081454 -0.008117042 -0.008089615 -0.008065341 -0.008043508 -0.008024487 -0.008006257
 -0.007986768 -0.007965422 -0.007940502 -0.007914532 -0.007887899 -0.00786401 -0.007844586 -0.007828753 -0.007817166 -0.007805064
 -0.00779192 -0.007774178 -0.007751386 -0.007724835 -0.007694653 -0.007664634 -0.007634866 -0.007607777 -0.007583059 -0.007560608
 -0.007539973 -0.007519833 -0.007499765 -0.007478116 -0.007455156 -0.007430215 -0.007404708 -0.007379786 -0.007356487 -0.007336418
 -0.00731807 -0.007301697 -0.00728371 -0.007263061 -0.00723718 -0.007205004 -0.00716735 -0.007123884 -0.007078412 -0.007031117
 -0.006986834 -0.006945785 -0.006911343 -0.006883235 -0.006860513 -0.006842321 -0.006823877 -0.006804833 -0.006781219 -0.00675413
 -0.006723833 -0.006691666 -0.00665994 -0.006628692 -0.00659928 -0.006569894 -0.006539815 -0.006507223 -0.006470665 -0.006430797
 -0.006387254 -0.006342152 -0.006295923 -0.006249827 -0.006204234 -0.006158471 -0.006112521 -0.006065642 -0.006017797 -0.005968418
 -0.005917498 -0.005864623 -0.005809999 -0.005754262 -0.005697966 -0.005643303 -0.00559036 -0.005540809 -0.005493382 -0.00544713
 -0.005400404 -0.005350729 -0.005298502 -0.005242769 -0.005185862 -0.005128739 -0.00507281 -0.005019151 -0.004966467 -0.004914865
 -0.004861903 -0.004807219 -0.004749426 -0.00468832 -0.004624239 -0.004557192 -0.004487468 -0.004414947 -0.004338377 -0.004257751
 -0.004172108 -0.004082091 -0.003989309 -0.003894242 -0.00379905 -0.003703014 -0.003606307 -0.003507255 -0.003404405 -0.003295825
 -0.003179542 -0.003054942 -0.002920923 -0.00277861 -0.002627909 -0.002470951 -0.00230819 -0.002141082 -0.001969873 -0.001795477
 -0.001617865 -0.00143994 -0.001261864 -0.001087241 -0.0009159471 -0.0007481345 -0.0005829816 -0.000416037 -0.0002468853 -7.113795E-05
 0.0001095712 0.0002941529 0.0004800551 0.0006621551 0.0008409338 0.001014277 0.001185394 0.001355989 0.001528468 0.001704832
 0.00188496 0.002069476 0.0022568 0.002446896 0.002637322 0.002827953 0.003015026 0.003198162 0.003375179 0.003545978
 0.003712951 0.003876245 0.004038867 0.004199937 0.004356378 0.004506608 0.004643346 0.004766366 0.004871307 0.004959311
 0.00503015 0.005085252 0.005125726 0.005153716 0.005170863 0.005179581 0.00518158 0.005178005 0.005169593 0.005156918
 0.005140221 0.005119947 0.005096457 0.005067999 0.00503475 0.004990532 0.004935015 0.004861278 0.004769531 0.004659973
 0.004534102 0.004401025 0.004261183 0.004121767 0.003980385 0.003835084 0.003683529 0.003520255 0.003346402 0.003159937
 0.002966139 0.002767863 0.002570865 0.002379356 0.002194984 0.002019583 0.00185182 0.001691274 0.001539066 0.00139488
 0.001263333 0.001144984 0.001041007 0.0009514986 0.0008717446 0.0008015173 0.0007363421 0.0006767744 0.000623785 0.0005782663
 0.0005442566 0.0005214509 0.0005114084 0.0005128049 0.0005242976 0.0005444649 0.0005714159 0.0006035236 0.000639286 0.0006764992
 0.0007138824 0.000749022 0.0007807671 0.0008076297 0.000828637 0.000845226 0.0008569199 0.0008694198 0.0008829918 0.0009054781
 0.000937356 0.0009813885 0.001037233 0.001100387 0.001170352 0.001241603 0.00131453 0.001387895 0.0014618 0.001536564
 0.001610407 0.001680622 0.001745439 0.001801255 0.001848647 0.001886499 0.001917042 0.001941028 0.001960808 0.001977552
 0.00199217 0.002005403 0.00201591 0.002023688 0.002026656 0.002024474 0.002017403 0.002005414 0.001991978 0.001977143
 0.001962434 0.001947279 0.001928777 0.001906291 0.001875789 0.001837272 0.001788578 0.001730349 0.001663045 0.001586303
 0.001500579 0.001403298 0.001292089 0.00116648 0.001023383 0.0008712328 0.0007115594 0.0005552845 0.0004065633 0.0002665057
 0.0001365488 1.127952E-05 -0.0001098103 -0.0002296365 -0.0003484415 -0.00046524 -0.0005800207 -0.0006924486 -0.0008026771 -0.000911808
 -0.001019592 -0.001125841 -0.001229787 -0.00132893 -0.00142385 -0.00151354 -0.001601189 -0.001689935 -0.001783247 -0.00188584
 -0.001997164 -0.00211923 -0.002247001 -0.002379149 -0.002511054 -0.002640962 -0.002767736 -0.002891153 -0.003009284 -0.003122208
 -0.003224517 -0.003315841 -0.003393814 -0.00345872 -0.003515814 -0.003565753 -0.003615803 -0.003665828 -0.003719399 -0.00377544
 -0.003832998 -0.003891105 -0.003947613 -0.004001982 -0.00405304 -0.004099502 -0.00414031 -0.004173208 -0.004196583 -0.004209038
 -0.004209303 -0.004198235 -0.00417564 -0.004143395 -0.004101836 -0.004051997 -0.003994013 -0.003928527 -0.003855536 -0.003777629
 -0.003695134 -0.003614284 -0.003535557 -0.003465674 -0.003404242 -0.003353423 -0.003312123 -0.003278422 -0.003251799 -0.003230397
 -0.003214167 -0.003202693 -0.0031949 -0.003190148 -0.003186221 -0.003181779 -0.003174763 -0.003163792 -0.003148664 -0.003128531
 -0.003106324 -0.003082112 -0.003060521 -0.003042092 -0.003030087 -0.003024851 -0.003025228 -0.003030923 -0.003035574 -0.003038765
 -0.003033988 -0.003021991 -0.003002046 -0.00297601 -0.002948807 -0.002921147 -0.002897266 -0.002875446 -0.002855745 -0.002834794
 -0.002809644 -0.002777789 -0.002736759 -0.002685616 -0.002623145 -0.002550152 -0.002466086 -0.002374583 -0.002275891 -0.002175124
 -0.00207303 -0.00197182 -0.001871799 -0.001770751 -0.001668571 -0.001562983 -0.001454288 -0.001343778 -0.001232056 -0.001122426
 -0.001015216 -0.000912807 -0.0008157532 -0.0007257814 -0.0006443951 -0.000574191 -0.0005164703 -0.0004736276 -0.000445305 -0.0004323706
 -0.0004327495 -0.0004459117 -0.0004696462 -0.0005031789 -0.0005452639 -0.0005954512 -0.0006537128 -0.0007199871 -0.0007945903 -0.0008776192
 -0.000967105 -0.001062859 -0.001160491 -0.001259841 -0.001357478 -0.001453772 -0.001548487 -0.001642193 -0.001736509 -0.001831499
 -0.001928121 -0.00202607 -0.002125423 -0.002225616 -0.002326529 -0.002426506 -0.002524739 -0.002619021 -0.002707881 -0.002791227
 -0.002868232 -0.00294174 -0.003012048 -0.003082267 -0.003153058 -0.003224029 -0.003295278 -0.003364189 -0.003430612 -0.003491726
 -0.003547332 -0.00359461 -0.003633279 -0.003660255 -0.003675916 -0.003679282 -0.003671981 -0.003656603 -0.003634907 -0.003610454
 -0.003584123 -0.003557944 -0.003532411 -0.003508246 -0.003486238 -0.003466958 -0.003450683 -0.003438007 -0.003427009 -0.003417588
 -0.003406988 -0.003394784 -0.003379652 -0.003361391 -0.003340784 -0.003317886 -0.003294221 -0.003269887 -0.003246391 -0.00322376
 -0.003202969 -0.003183876 -0.003166626 -0.003150931 -0.003136148 -0.003122407 -0.003109502 -0.003097968 -0.003088427 -0.003080716
 -0.003075478 -0.003070473 -0.003065137 -0.003056527 -0.003043159 -0.003025355 -0.003002411 -0.002978369 -0.002953654 -0.002931566
 -0.002912559 -0.002895209 -0.002879422 -0.002862053 -0.002843267 -0.002823341 -0.002802863 -0.002785089 -0.002769986 -0.002759428
 -0.002752429 -0.002747746 -0.002744782 -0.002741877 -0.002739566 -0.002737665 -0.002737122 -0.002738741 -0.002742456 -0.002748679
 -0.002756246 -0.002765029 -0.002773375 -0.002780949 -0.002786431 -0.002789605 -0.002789598 -0.002786327 -0.002779083 -0.002767852
 -0.002753099 -0.002735035 -0.002715927 -0.002696021 -0.002678018 -0.002661465 -0.002646622 -0.002632301 -0.002615971 -0.002597111
 -0.00257337 -0.002546099 -0.002515617 -0.00248379 -0.002452196 -0.002421473 -0.002392551 -0.002364659 -0.002337741 -0.002311087
 -0.002284552 -0.002257591 -0.002230201 -0.002201221 -0.002170587 -0.002136771 -0.002099704 -0.002058846 -0.002014347 -0.001967483
 -0.001918614 -0.001870325 -0.00182281 -0.001778084 -0.001736054 -0.001697512 -0.001662251 -0.001630416 -0.001601495 -0.001575316
 -0.001550509 -0.001526299 -0.00150081 -0.001472645 -0.001441756 -0.001407293 -0.001372105 -0.001336575 -0.001303594 -0.001273948
 -0.001246744 -0.001222158 -0.001195986 -0.001168021 -0.001135057 -0.001097269 -0.001055474 -0.001010286 -0.0009654012 -0.0009213032
 -0.000881618 -0.0008462732 -0.0008168934 -0.0007931684 -0.0007753348 -0.0007630605 -0.000756153 -0.0007541263 -0.0007568407 -0.0007630115
 -0.0007722381 -0.0007825479 -0.0007933109 -0.0008026583 -0.0008101409 -0.0008140908 -0.0008141766 -0.0008095263 -0.0007999472 -0.0007861894
 -0.0007683001 -0.0007495434 -0.000730137 -0.0007137795 -0.0007003309 -0.0006910519 -0.0006853659 -0.0006819743 -0.0006804355 -0.0006790604
 -0.0006777986 -0.0006758132 -0.0006732583 -0.0006698702 -0.0006662008 -0.0006626017 -0.0006594248 -0.0006571977 -0.0006551123 -0.0006533936
 -0.0006495296 -0.000643048 -0.0006316795 -0.0006148468 -0.0005924969 -0.0005644654 -0.0005325519 -0.000496848 -0.000459178 -0.0004196229
 -0.0003795531 -0.0003391512 -0.0003002531 -0.0002629113 -0.0002286386 -0.0001965929 -0.0001657364 -0.0001348621 -0.0001013454 -6.505215E-05
 -2.446059E-05 1.908156E-05 6.52197E-05 0.0001121469 0.00015869 0.0002041742 0.00024784 0.0002906122 0.0003321132 0.0003758309
 0.0004220597 0.0004750621 0.000535476 0.0006033849 0.000678838 0.0007562402 0.0008352874 0.0009102747 0.0009816741 0.001049392
 0.001114287 0.001179591 0.001245348 0.001313247 0.001383043 0.00145472 0.001529051 0.001606741 0.00168895 0.001776894
 0.001871041 0.001971932 0.002079829 0.002194936 0.002317459 0.002447882 0.002584107 0.002726299 0.002869365 0.003012807
 0.003152907 0.003289386 0.00342511 0.003560482 0.003702492 0.003850729 0.004006896 0.004168615 0.004328001 0.004483057
 0.004624078 0.004752526 0.004866183 0.004967858 0.005061033 0.005144559 0.005219654 0.005281589 0.005327416 0.005356253
 0.005365673 0.005362147 0.005346286 0.005326356 0.005303931 0.005283587 0.005266147 0.005251705 0.00524034 0.005229214
 0.005218099 0.00520298 0.005183819 0.005158025 0.005126388 0.005090254 0.005050952 0.005012556 0.004975688 0.004943655
 0.004915455 0.004891756 0.004869748 0.004847663 0.004822345 0.0047915 0.004753363 0.004706256 0.004651541 0.004588825
 0.004521796 0.00445083 0.004379988 0.00430975 0.004242639 0.004178856 0.004118767 0.004062303 0.004008272 0.003956545
 0.003905676 0.003855663 0.003805656 0.003755887 0.003706532 0.003657781 0.003610197 0.00356345 0.003517489 0.0034716
 0.003425076 0.00337772 0.003329255 0.003279563 0.003229046 0.003175438 0.003118774 0.003054302 0.002981219 0.002895983
 0.002797832 0.002688042 0.002566579 0.002438323 0.002303486 0.002166044 0.002025804 0.001883204 0.001738056 0.001589386
 0.001438141 0.001285722 0.001134484 0.0009891734 0.0008518051 0.0007273693 0.0006151193 0.0005168623 0.0004289357 0.0003501138
 0.0002760014 0.0002045238 0.0001329867 5.995056E-05 -1.435613E-05 -9.051838E-05 -0.0001651359 -0.0002381131 -0.0003042606 -0.000363211
 -0.0004119923 -0.0004506532 -0.0004805225 -0.0005021103 -0.0005198216 -0.0005339312 -0.0005481782 -0.0005619274 -0.0005756326 -0.000587988
 -0.0005966397 -0.0006011104 -0.0005995414 -0.0005927521 -0.000580883 -0.0005645474 -0.0005445893 -0.0005197635 -0.0004895952 -0.0004537035
 -0.0004111491 -0.0003656847 -0.0003174238 -0.000272309 -0.0002311427 -0.0001969265 -0.0001700268 -0.0001482411 -0.0001314026 -0.0001158447
 -0.0001017128 -8.814483E-05 -7.605144E-05 -6.863318E-05 -6.71055E-05 -7.670592E-05 -9.746791E-05 -0.0001324259 -0.0001797126 -0.0002383054
 -0.00030604 -0.0003802858 -0.0004607328 -0.0005466201 -0.0006374884 -0.0007340661 -0.0008314663 -0.0009291806 -0.001019694 -0.001101125
 -0.001170917 -0.001227857 -0.001278275 -0.001322409 -0.00136948 -0.001419696 -0.001475187 -0.001535043 -0.001592909 -0.001647925
 -0.001692494 -0.001727471 -0.00175095 -0.001765096 -0.001773126 -0.001776795 -0.001779951 -0.001782965 -0.00178751 -0.001793476
 -0.001801235 -0.001810647 -0.001821875 -0.001834182 -0.001847486 -0.001860741 -0.001873802 -0.001885531 -0.001895841 -0.0019033
 -0.001907829 -0.001907447 -0.001902102 -0.001891159 -0.001874966 -0.00185606 -0.001835032 -0.001816114 -0.001799161 -0.001786259
 -0.001776218 -0.001767674 -0.001759677 -0.001750004 -0.00173922 -0.001726937 -0.001714263 -0.001702153 -0.001690125 -0.001678519
 -0.001665435 -0.001650171 -0.001632332 -0.001611349 -0.001589685 -0.001567517 -0.001547492 -0.001529926 -0.00151404 -0.001499717
 -0.001483257 -0.001464628 -0.001441766 -0.001415305 -0.001387074 -0.001357753 -0.001330664 -0.001305248 -0.001282341 -0.001260199
 -0.001236707 -0.001210626 -0.001179628 -0.001144304 -0.001103793 -0.001060846 -0.001016057 -0.000973282 -0.0009336926 -0.0009004999
 -0.0008748245 -0.0008568984 -0.0008473049 -0.0008419245 -0.000840644 -0.0008365338 -0.0008292846 -0.0008142021 -0.0007916351 -0.0007626337
 -0.0007282277 -0.0006940497 -0.0006605228 -0.0006322543 -0.0006081787 -0.000588399 -0.0005715814 -0.0005555901 -0.0005403449 -0.0005250957
 -0.0005097084 -0.0004942673 -0.0004773188 -0.0004579758 -0.0004361312 -0.0004105752 -0.0003863301 -0.0003636966 -0.0003501319 -0.0003471179
 -0.0003557024 -0.0003764978 -0.0004010463 -0.0004288645 -0.000448708 -0.0004606188 -0.0004601828 -0.0004489044 -0.0004317743 -0.0004104344
 -0.0003928634 -0.0003791276 -0.0003735987 -0.0003746603 -0.0003819274 -0.0003935881 -0.0004076984 -0.0004229506 -0.0004378142 -0.000451768
 -0.0004640939 -0.0004750639 -0.0004846422 -0.0004930862 -0.0005007509 -0.0005058723 -0.0005083205 -0.000505967 -0.0004984466 -0.0004876441
 -0.0004737248 -0.000463207 -0.0004564134 -0.0004594206 -0.0004715855 -0.00049335 -0.0005227498 -0.000554342 -0.000585334 -0.0006072362
 -0.0006180289 -0.0006099861 -0.0005854875 -0.0005425592 -0.00048883 -0.0004282838 -0.0003693771 -0.0003176538 -0.0002764352 -0.0002486952
 -0.0002321609 -0.0002274258 -0.0002287026 -0.0002355888 -0.0002408591 -0.0002438043 -0.0002402486 -0.0002300352 -0.0002165635 -0.0002003292
 -0.0001884494 -0.000180357 -0.0001771742 -0.0001769727 -0.0001736134 -0.0001666034 -0.0001510851 -0.0001293883 -0.0001027454 -7.389436E-05
 -4.653453E-05 -2.134923E-05 -1.382032E-07 1.765586E-05 3.18481E-05 4.309926E-05 5.141736E-05 5.809377E-05 6.316364E-05 6.908796E-05
 7.6206E-05 8.648984E-05 0.0001002629 0.0001168218 0.0001361211 0.0001549021 0.0001730428 0.0001879525 0.0001999675 0.00020963
 0.0002173055 0.0002247131 0.0002315169 0.0002377414 0.0002431218 0.0002466744 0.0002499316 0.0002537689 0.0002607352 0.0002733344
 0.0002920525 0.0003183546 0.0003498866 0.000386375 0.0004248539 0.0004645224 0.0005038508 0.0005424897 0.0005796672 0.0006152252
 0.0006495743 0.0006827354 0.000716478 0.0007508083 0.0007866272 0.0008233339 0.000858065 0.0008899986 0.0009144798 0.0009317842
 0.0009399868 0.0009403415 0.0009340254 0.0009219781 0.000905489 0.0008857084 0.0008630627 0.0008411706 0.0008214385 0.0008086113
 0.0008051997 0.0008117738 0.0008297875 0.0008538862 0.0008836457 0.0009132687 0.0009419903 0.000968705 0.0009933172 0.001017892
 0.001042362 0.001066432 0.001089654 0.001108894 0.0011244 0.001135053 0.001142135 0.001148117 0.001153987 0.001162877
 0.001174022 0.001187914 0.001203173 0.001218651 0.001234135 0.00124906 0.001264065 0.001279501 0.001294805 0.001310123
 0.001323678 0.001335174 0.001343597 0.001348718 0.001351336 0.001351477 0.001351557 0.001351728 0.001354706 0.001360346
 0.001369283 0.001380949 0.001393447 0.001406703 0.001419204 0.001432093 0.001446678 0.001463698 0.001485587 0.001509341
 0.001534267 0.001554839 0.001567513 0.001569897 0.001558146 0.0015411 0.001518401 0.001508105 0.001514492 0.001539549
 0.001585371 0.001630941 0.001675119 0.001703119 0.001715416 0.0017172 0.001710096 0.001708187 0.001709927 0.001718049
 0.001727719 0.001727137 0.001715848 0.001685314 0.001643442 0.001595528 0.001550369 0.001518192 0.001499925 0.001500107
 0.001512959 0.001537662 0.001567846 0.001601649 0.001635418 0.001668197 0.001698582 0.001726305 0.001751035 0.001772744
 0.001790588 0.001804589 0.001814693 0.001821421 0.001827839 0.001835118 0.001849574 0.001871603 0.001906501 0.001951329
 0.002005039 0.002060367 0.002108658 0.002143069 0.002152805 0.002141622 0.00210585 0.002060612 0.002010623 0.001968418
 0.00193965 0.001923589 0.00192174 0.001925915 0.001935144 0.001946494 0.00195963 0.001978981 0.002004507 0.002036276
 0.002072974 0.002104925 0.002131903 0.002146537 0.002152384 0.002154886 0.002157327 0.002170172 0.002189151 0.002214746
 0.002237838 0.002248998 0.002247944 0.002228335 0.002204927 0.002181111 0.00217281 0.002187055 0.002222691 0.00228276
 0.002348571 0.002418885 0.002473635 0.002511251 0.002526513 0.002520117 0.002506225 0.002486639 0.002481994 0.002491145
 0.002521654 0.002568613 0.002622319 0.002680302 0.002732028 0.002781262 0.002828648 0.002877547 0.002933211 0.002990783
 0.00304994 0.003102393 0.00314367 0.003172637 0.003186931 0.003193148 0.003191662 0.003190807 0.003191485 0.003200314
 0.003217832 0.003247281 0.003288507 0.003338113 0.003394849 0.003447526 0.003495517 0.003528505 0.003550373 0.003564816
 0.003579363 0.003611383 0.003661315 0.003741408 0.003835994 0.003938008 0.004026009 0.004082715 0.004102657 0.004075799
 0.004017528 0.003928424 0.00383057 0.003727688 0.003637956 0.003564137 0.003515891 0.003494477 0.003492609 0.003509223
 0.003520169 0.003524288 0.003500303 0.003450664 0.003374021 0.003274694 0.00316409 0.00304465 0.002926096 0.002809714
 0.002700558 0.002600674 0.002513615 0.00244056 0.002383868 0.002341637 0.002314355 0.002297168 0.002289238 0.002284719
 0.002282429 0.002278231 0.002271555 0.002259526 0.002242043 0.002212273 0.002170103</values></Ydata></AB><ScSm><Ydata ylabel="Single channel"><values byteorder="INTEL" format="FLOAT32" numvalues="1814"> 0.07567568 0.07577461 0.07588594 0.07601557 0.07615922 0.07630453 0.07643858 0.07655614 0.07665896 0.07674849
 0.07682738 0.07691003 0.0770177 0.07715683 0.07730986 0.07745003 0.07756083 0.07764696 0.07773426 0.07784736
 0.07797572 0.07806984 0.07808502 0.07803085 0.07796969 0.07796238 0.07802652 0.0781619 0.07838666 0.07868613
 0.07893738 0.0789869 0.07884243 0.07869945 0.07872583 0.07889329 0.07905795 0.07911982 0.07906325 0.07894216
 0.07889727 0.07911104 0.07964207 0.08029102 0.08066275 0.08039406 0.07939588 0.07798325 0.0767991 0.07647817
 0.07718831 0.07844085 0.07945602 0.07979257 0.07958656 0.0792148 0.07890403 0.07872609 0.07877129 0.07913404
 0.07975444 0.0803547 0.08054608 0.08008368 0.07914509 0.0782991 0.07804169 0.07841147 0.07916409 0.08006744
 0.08068103 0.08013815 0.07791587 0.07499576 0.07355271 0.07494339 0.07828502 0.08137353 0.08269057 0.08220264
 0.08071649 0.07917094 0.07839283 0.07881244 0.0801788 0.08180761 0.08312659 0.08382685 0.08371444 0.08280116
 0.08149309 0.0804182 0.08007709 0.08070055 0.08215596 0.08380134 0.08474138 0.08453453 0.08352489 0.08239724
 0.08167303 0.08168524 0.08260471 0.08423498 0.08603316 0.08751132 0.08848859 0.0889803 0.0890789 0.08893786
 0.08869654 0.08845738 0.08838765 0.08863473 0.08903359 0.08914152 0.08873059 0.08809834 0.08776884 0.08795403
 0.08837166 0.08858519 0.08843627 0.08796641 0.08697534 0.08511767 0.0826145 0.08036347 0.07906176 0.07871878
 0.0792307 0.0806737 0.08260526 0.08385285 0.08369522 0.082834 0.08263307 0.08364364 0.0852599 0.08660416
 0.08737941 0.08791533 0.08865273 0.08964539 0.09043384 0.09038308 0.08933045 0.08799 0.08747827 0.08823459
 0.08959535 0.09061222 0.09104893 0.09134987 0.09185486 0.09230582 0.09207126 0.09082118 0.08909597 0.08811855
 0.08878663 0.09078462 0.09274694 0.09328945 0.09199487 0.08964197 0.0875532 0.08664197 0.08705731 0.08856524
 0.09087418 0.09348929 0.0956357 0.09665417 0.09645686 0.09550655 0.09431361 0.09296083 0.09128571 0.08962301
 0.08900224 0.09018445 0.09268486 0.0951588 0.09664251 0.09708753 0.09681526 0.09586678 0.09409036 0.09181596
 0.09015521 0.09017701 0.09169048 0.09329644 0.09387557 0.09363432 0.09346372 0.09372167 0.09403928 0.09406938
 0.09400125 0.0942904 0.09507874 0.096017 0.09663598 0.09677815 0.09663428 0.09647101 0.09637694 0.09621001
 0.09581967 0.09539041 0.09542517 0.09621421 0.09744206 0.09850377 0.09909951 0.09935022 0.09942952 0.09927072
 0.09868351 0.09773129 0.09691007 0.09679522 0.09748117 0.09850955 0.09935504 0.09981643 0.09995936 0.09991214
 0.09978032 0.09962504 0.09948251 0.09943451 0.09958784 0.09993067 0.1002978 0.1005332 0.1006165 0.1006012
 0.1005104 0.1003398 0.1001233 0.0999524 0.09991896 0.1000415 0.1002609 0.1005004 0.1006989 0.1008015
 0.1007783 0.1006637 0.1005355 0.1004438 0.1003921 0.1003816 0.1004308 0.1005413 0.1006728 0.1007716
 0.1008157 0.1008186 0.1007976 0.1007571 0.1007032 0.100657 0.1006462 0.1006869 0.1007671 0.1008544
 0.1009338 0.1010277 0.1011522 0.1012669 0.1013079 0.1012667 0.1012024 0.1011788 0.1012139 0.1012855
 0.1013578 0.1013972 0.10138 0.1013068 0.1012206 0.1011932 0.1012725 0.1014488 0.1016787 0.1019203
 0.1021348 0.1022897 0.1023857 0.1024573 0.1025313 0.1026026 0.1026575 0.1027049 0.1027768 0.1029043
 0.1030869 0.103287 0.1034608 0.1035892 0.1036793 0.1037568 0.1038595 0.1040046 0.1041538 0.1042454
 0.1042737 0.104303 0.1043892 0.1045157 0.1046208 0.1046712 0.104693 0.1047356 0.1048195 0.1049246
 0.1050217 0.1051063 0.1051985 0.1053132 0.1054302 0.1054997 0.1054916 0.1054341 0.1053867 0.1053801
 0.1054011 0.1054339 0.1054838 0.105555 0.1056255 0.1056621 0.1056562 0.105634 0.105628 0.1056403
 0.1056418 0.1056075 0.1055426 0.1054736 0.1054217 0.1053895 0.1053642 0.1053294 0.1052756 0.1052037
 0.1051209 0.1050348 0.1049484 0.1048642 0.1047962 0.1047676 0.1047798 0.1047853 0.1047159 0.1045481
 0.1043304 0.1041376 0.1040059 0.1039148 0.1038189 0.1036897 0.103532 0.1033702 0.1032233 0.103093
 0.1029699 0.1028495 0.1027414 0.1026664 0.1026366 0.1026315 0.1026031 0.1025165 0.1023856 0.1022565
 0.1021608 0.1020966 0.1020486 0.1020092 0.1019811 0.1019717 0.1019827 0.102001 0.1020054 0.1019907
 0.1019764 0.1019866 0.1020337 0.1021193 0.102231 0.1023361 0.1024014 0.1024291 0.1024578 0.1025212
 0.1026182 0.1027287 0.1028437 0.102969 0.103111 0.1032702 0.1034461 0.1036398 0.1038511 0.1040759
 0.1043063 0.1045336 0.1047548 0.1049782 0.10522 0.1054906 0.1057847 0.1060862 0.1063803 0.1066634
 0.1069417 0.1072231 0.1075109 0.1078049 0.1081075 0.1084231 0.108752 0.1090886 0.1094258 0.1097605
 0.1100933 0.1104267 0.1107636 0.1111081 0.1114679 0.11185 0.1122456 0.1126247 0.1129588 0.1132509
 0.1135346 0.1138433 0.1141864 0.1145479 0.1148979 0.1152108 0.1154888 0.1157628 0.1160603 0.1163761
 0.116688 0.116995 0.1173256 0.1176996 0.1180932 0.1184499 0.1187311 0.1189543 0.1191741 0.1194261
 0.1196958 0.1199483 0.1201745 0.1203957 0.1206286 0.1208686 0.1211107 0.1213671 0.1216478 0.1219374
 0.1222072 0.1224459 0.1226643 0.1228729 0.1230663 0.1232303 0.1233578 0.1234599 0.1235652 0.1236986
 0.1238574 0.1240183 0.124169 0.1243222 0.1244947 0.1246902 0.1249082 0.1251547 0.1254294 0.1257119
 0.1259812 0.1262459 0.1265356 0.1268553 0.1271664 0.1274279 0.1276432 0.127847 0.1280601 0.128281
 0.1285143 0.1287791 0.1290842 0.1294135 0.1297397 0.1300455 0.1303351 0.1306312 0.1309519 0.1312819
 0.1315781 0.1318126 0.1320045 0.1322009 0.1324343 0.1327046 0.1329922 0.1332785 0.1335535 0.1338071
 0.1340185 0.1341655 0.1342493 0.134299 0.1343389 0.1343553 0.1343049 0.1341533 0.1338923 0.1335216
 0.1330321 0.1324163 0.1316971 0.1309406 0.1302426 0.1296996 0.1293844 0.1293357 0.1295556 0.1300074
 0.1306165 0.1312836 0.1319072 0.1323971 0.1326763 0.1326901 0.1324258 0.1319207 0.1312413 0.1304542
 0.1296133 0.12876 0.1279266 0.1271536 0.126519 0.1261471 0.1261746 0.1266999 0.1277476 0.1292504
 0.131045 0.1329086 0.1346401 0.1361356 0.1373957 0.1384744 0.1394287 0.1403016 0.141124 0.1419132
 0.1426706 0.1433891 0.1440638 0.1446938 0.145274 0.1457918 0.1462304 0.1465755 0.146822 0.1469804
 0.147074 0.1471254 0.1471495 0.1471588 0.1471605 0.1471394 0.1470489 0.1468329 0.1464614 0.1459536
 0.1453852 0.144888 0.1446371 0.1448108 0.1455209 0.1467455 0.1483204 0.1500117 0.1516136 0.1529991
 0.1541186 0.1549848 0.1556562 0.1562076 0.1566947 0.1571438 0.1575642 0.1579605 0.1583374 0.1587009
 0.1590585 0.1594154 0.1597746 0.1601363 0.160497 0.1608499 0.1611931 0.1615359 0.1618928 0.16227
 0.1626581 0.1630391 0.1634036 0.1637598 0.1641206 0.1644837 0.1648344 0.1651668 0.1654915 0.1658226
 0.1661671 0.1665245 0.1668873 0.1672405 0.1675718 0.1678836 0.1681884 0.1684937 0.1687981 0.1691001
 0.1694024 0.1697059 0.1700063 0.1702999 0.1705888 0.1708777 0.1711658 0.1714464 0.1717153 0.1719783
 0.1722443 0.1725152 0.172785 0.173049 0.1733103 0.1735768 0.1738543 0.1741405 0.1744265 0.1747023
 0.1749643 0.1752177 0.1754711 0.1757296 0.1759929 0.1762574 0.1765206 0.1767815 0.1770403 0.1772991
 0.1775617 0.1778302 0.1781006 0.1783664 0.1786258 0.1788838 0.1791459 0.1794124 0.1796788 0.1799417
 0.180201 0.1804568 0.1807075 0.1809532 0.1811971 0.1814435 0.1816926 0.1819422 0.1821908 0.1824386
 0.1826862 0.1829347 0.1831846 0.1834351 0.1836842 0.183931 0.1841767 0.1844241 0.1846758 0.1849301
 0.1851814 0.1854264 0.1856677 0.1859101 0.1861553 0.1864026 0.1866509 0.1868992 0.1871471 0.1873934
 0.1876351 0.1878705 0.1881025 0.1883378 0.1885805 0.1888312 0.1890867 0.1893416 0.1895901 0.1898302
 0.1900648 0.1902981 0.1905339 0.1907745 0.1910192 0.1912654 0.1915117 0.1917566 0.1919974 0.192233
 0.1924666 0.1927027 0.1929439 0.1931904 0.19344 0.1936885 0.1939339 0.1941778 0.1944211 0.1946626
 0.1949027 0.1951439 0.1953872 0.1956314 0.1958754 0.1961182 0.1963603 0.1966055 0.1968555 0.1971075
 0.1973592 0.1976139 0.1978736 0.1981355 0.1983951 0.1986513 0.1989057 0.1991618 0.1994228 0.1996867
 0.1999494 0.2002109 0.2004737 0.200736 0.2009927 0.2012402 0.2014779 0.2017079 0.2019353 0.2021638
 0.2023939 0.2026256 0.2028591 0.2030922 0.203324 0.2035605 0.2038075 0.2040633 0.2043224 0.2045809
 0.2048369 0.2050921 0.2053521 0.205618 0.2058831 0.2061431 0.2064016 0.2066636 0.2069295 0.2071995
 0.2074721 0.2077436 0.2080118 0.2082783 0.2085432 0.2088077 0.2090755 0.2093472 0.2096193 0.209893
 0.2101724 0.2104547 0.2107342 0.2110121 0.2112899 0.2115645 0.211836 0.2121095 0.2123861 0.2126637
 0.212944 0.2132267 0.2135059 0.2137811 0.2140577 0.2143372 0.2146195 0.2149075 0.2151988 0.2154849
 0.2157665 0.2160508 0.2163348 0.2166114 0.2168837 0.2171566 0.2174272 0.2176945 0.2179593 0.2182118
 0.2184292 0.2185607 0.21847 0.2178684 0.2162746 0.213025 0.2074053 0.198936 0.1876608 0.1742292
 0.1597172 0.1452914 0.1318909 0.1201013 0.1102335 0.1024498 0.09684758 0.09353442 0.09269159 0.09466244
 0.1000693 0.1094439 0.1218675 0.1337955 0.1403847 0.1391625 0.1322689 0.1245148 0.1194633 0.1176848
 0.1179731 0.1191367 0.1207016 0.1227814 0.1256671 0.1294004 0.1337289 0.1385225 0.1440167 0.1504508
 0.1576013 0.164863 0.1717588 0.1782485 0.1845485 0.1907536 0.1966919 0.20209 0.2067847 0.2107762
 0.214169 0.2171057 0.219713 0.222076 0.224252 0.2262726 0.2281016 0.2296204 0.2306999 0.2313041
 0.2315348 0.231582 0.2316201 0.2317348 0.2319361 0.2322147 0.2325639 0.2329748 0.2334393 0.2339516
 0.2344972 0.235054 0.2356087 0.2361563 0.2366895 0.2371998 0.2376835 0.2381393 0.2385684 0.2389791
 0.2393792 0.2397683 0.2401461 0.2405164 0.2408797 0.2412328 0.2415767 0.2419143 0.2422425 0.2425552
 0.2428501 0.2431265 0.2433876 0.2436413 0.2438936 0.2441436 0.2443918 0.2446431 0.2448972 0.2451485
 0.2453946 0.2456369 0.2458745 0.2461067 0.2463368 0.2465685 0.2468019 0.2470365 0.247271 0.2475027
 0.2477328 0.2479657 0.2482017 0.2484366 0.2486674 0.2488949 0.2491235 0.2493616 0.2496152 0.2498803
 0.2501478 0.250415 0.2506848 0.250957 0.2512283 0.2514976 0.2517654 0.2520339 0.252307 0.252584
 0.2528548 0.2531053 0.2533296 0.2535361 0.2537437 0.2539686 0.2542108 0.2544569 0.2546974 0.2549337
 0.2551708 0.2554102 0.2556529 0.2558987 0.2561459 0.2563984 0.256666 0.2569516 0.2572442 0.2575308
 0.257809 0.2580847 0.2583657 0.2586571 0.258955 0.2592469 0.2595237 0.2597925 0.260074 0.2603877
 0.2607341 0.2610907 0.2614301 0.2617425 0.2620384 0.2623351 0.2626473 0.2629751 0.2632932 0.2635684
 0.2638048 0.2640557 0.2643736 0.2647574 0.2651602 0.2655385 0.2658824 0.2662067 0.266524 0.2668312
 0.2671156 0.2673699 0.2676074 0.2678655 0.2681817 0.2685539 0.2689359 0.2692852 0.2695991 0.2698976
 0.2701927 0.2704861 0.270764 0.2709858 0.2711205 0.2712193 0.2714092 0.2717763 0.272271 0.2727582
 0.2731519 0.2734706 0.2737701 0.2740707 0.2743627 0.2746198 0.2747694 0.2747298 0.2745579 0.2745009
 0.2747948 0.2754253 0.2761582 0.2767782 0.2772284 0.2775597 0.2778364 0.2780953 0.2783241 0.2784584
 0.2784513 0.2783828 0.2784526 0.2787978 0.2793369 0.2798572 0.2802394 0.2805269 0.2808059 0.2811065
 0.2813891 0.2815284 0.2813661 0.2809248 0.2805548 0.2807076 0.2814988 0.2825767 0.2834745 0.2840261
 0.2843682 0.2846172 0.284696 0.2844781 0.2839436 0.2831886 0.2824694 0.2822398 0.2828544 0.2841153
 0.2853548 0.2861035 0.2864919 0.2869137 0.2875122 0.288119 0.2885278 0.2886814 0.2886364 0.2884387
 0.2881018 0.287748 0.2876914 0.2882138 0.2892365 0.2903389 0.2911524 0.2916509 0.291984 0.2920499
 0.2913814 0.2897013 0.287654 0.2866436 0.2875854 0.2899437 0.292312 0.2938018 0.2945293 0.2949602
 0.2953058 0.2954591 0.2949778 0.2932317 0.2902601 0.2875154 0.2869766 0.2891982 0.2926916 0.2953714
 0.2961456 0.2951343 0.2931388 0.2912735 0.2905713 0.2914209 0.2934025 0.2957155 0.2976626 0.2988409
 0.2991641 0.2988187 0.2981904 0.297765 0.2978208 0.2980089 0.2975726 0.2963328 0.2950374 0.29421
 0.2931897 0.2912094 0.2891023 0.2887831 0.290881 0.2938337 0.2957017 0.2961523 0.2961088 0.2958792
 0.2943985 0.2906323 0.285501 0.2818479 0.2820073 0.2854731 0.289399 0.2913955 0.2914176 0.2909467
 0.2909061 0.2906841 0.2890444 0.2858793 0.2828855 0.2820453 0.283405 0.2850016 0.2850335 0.2831205
 0.2793549 0.2738512 0.2682391 0.2659696 0.2692693 0.2763699 0.2830714 0.2863664 0.2853826 0.2801357
 0.2718363 0.2641869 0.2617147 0.2655956 0.2722814 0.2769361 0.2772458 0.2735093 0.2666669 0.2578932
 0.2496187 0.2452255 0.2468924 0.2538471 0.2625122 0.2680506 0.2668364 0.2593646 0.2509721 0.247814
 0.2510769 0.2562024 0.2582485 0.2565344 0.2536069 0.2517651 0.2517951 0.253408 0.2555711 0.2573196
 0.2585027 0.2584321 0.2545208 0.2451503 0.2339508 0.2278778 0.2300394 0.2371905 0.2450139 0.2524603
 0.2593415 0.2632168 0.2619956 0.2580876 0.2568634 0.2609206 0.2676097 0.2724153 0.273535 0.2726087
 0.2717246 0.2709191 0.2692262 0.2673896 0.267892 0.2718642 0.2773128 0.2812829 0.2828205 0.2829706
 0.2827961 0.2824855 0.2819009 0.2810163 0.2798761 0.278615 0.2774497 0.276444 0.2754615 0.274435
 0.2732967 0.2713866 0.2675114 0.2614951 0.2555 0.252538 0.2533163 0.2557962 0.2581267 0.2599851
 0.2601271 0.2553842 0.2448044 0.2333537 0.2284952 0.2329736 0.2426323 0.2510776 0.2547302 0.2532644
 0.2474428 0.2387662 0.230988 0.2294606 0.2370109 0.2509733 0.265575 0.2768101 0.283962 0.2873707
 0.2868923 0.2830294 0.2782165 0.2758643 0.2780235 0.2840375 0.2910455 0.29531 0.2938403 0.2868542
 0.2794215 0.2783991 0.285623 0.2954634 0.3010373 0.3014232 0.3006564 0.3013365 0.302402 0.3026602
 0.3032736 0.305786 0.3095693 0.3123403 0.3122054 0.3084573 0.3015641 0.2937187 0.2884926 0.2880164
 0.2906347 0.2928088 0.2927491 0.2904475 0.2854553 0.2778557 0.2710544 0.2699526 0.2753778 0.2828345
 0.287632 0.2892532 0.2898997 0.2905232 0.2897028 0.286024 0.2805892 0.2765378 0.2759693 0.2779645
 0.280093 0.2810417 0.280825 0.2792662 0.275999 0.2720854 0.2701634 0.2721046 0.277009 0.2820796
 0.2851939 0.2862021 0.2861142 0.2858067 0.2855547 0.2851894 0.284524 0.2839556 0.2845018 0.2867131
 0.2897111 0.291986 0.2931403 0.2942177 0.296234 0.2989342 0.3011862 0.3022327 0.3023572 0.3025162
 0.3034726 0.3051676 0.3067791 0.3074496 0.3071277 0.3067224 0.307283 0.3089985 0.3111264 0.3128468
 0.3139505 0.314721 0.3154687 0.3162664 0.3169103 0.3170874 0.3167889 0.3165623 0.3171034 0.3185361
 0.320269 0.3215957 0.3222733 0.3224921 0.3224779 0.3222736 0.3218454 0.3212623 0.3207116 0.3203589
 0.3202289 0.3202275 0.3202462 0.3202299 0.3201805 0.3201384 0.3201552 0.3202564 0.320428 0.3206439
 0.3208832 0.3211123 0.321288 0.3213996 0.3214818 0.3215577 0.3215893 0.3215027 0.321237 0.3207519
 0.3200105 0.3189787 0.3176328 0.3159431 0.3138775 0.3114994 0.3091324 0.3073945 0.3069405 0.3080443
 0.3103797 0.313207 0.3157954 0.3177376 0.3189849 0.3196889 0.3200339 0.3201551 0.3201282 0.3199877
 0.3197501 0.3194334 0.31906 0.3186503 0.3182247 0.3178105 0.3174359 0.3171117 0.3168206 0.316526
 0.3161903 0.3157896 0.3153175 0.3147794 0.31418 0.3135105 0.3127461 0.3118628 0.3108679 0.309813
 0.3087697 0.3077895 0.3068787 0.3060037 0.3051182 0.3041822 0.3031454 0.3019375 0.3005322 0.2990407
 0.2976859 0.2966249 0.2958088 0.2950428 0.2941615 0.2931172 0.2919354 0.2906517 0.2892957 0.2878954
 0.2864679 0.2850094 0.2834951 0.2818909 0.2801743 0.2783501 0.2764409 0.2744686 0.2724508 0.2704042
 0.2683211 0.2661311 0.2636966 0.2608549 0.257467 0.2534427 0.2487553 0.2434656 0.2377357 0.231797
 0.2258846 0.2201898 0.2148633 0.2100404 0.2058459 0.2023781 0.1997001 0.1978486 0.1968461 0.1967033
 0.1974108 0.198929 0.2011791 0.2040413 0.207361 0.2109594 0.2146407 0.218211 0.2215268 0.2245484
 0.2273323 0.2299534 0.2324294 0.2347223 0.2367902 0.2386187 0.2402091 0.2415607 0.2426763 0.2435809
 0.2443244 0.2449621 0.2455292 0.2460312 0.2464556 0.2467928 0.2470528 0.2472668 0.247476 0.2477168
 0.2480106 0.2483617 0.2487664 0.249227 0.2497565 0.2503694 0.2510664 0.2518316 0.2526416 0.2534788
 0.2543409 0.255243 0.2562148 0.2572935 0.2585142 0.2598956 0.2614304 0.2630819 0.2647837 0.2664409
 0.267946 0.2692074 0.2701709 0.2708246 0.2711878 0.2712929 0.2711736 0.2708657 0.2704083 0.2698348
 0.269165 0.2684146 0.2676063 0.2667634 0.2658958 0.2649988 0.2640707 0.2631289 0.2622039 0.261315
 0.2604563 0.259611 0.2587719 0.257944 0.2571354 0.2563507 0.255588 0.2548433 0.2541187 0.2534234
 0.2527579 0.2521028 0.2514206 0.2506649 0.2497897 0.2487631 0.2475736 0.2462228 0.2447183 0.2430731
 0.2413039 0.2394277 0.2374619 0.2354224 0.2333178 0.2311453 0.2288911 0.2265366 0.2240861 0.2216
 0.2191828 0.2169251 0.2148588 0.2129633 0.2111977 0.2095269 0.2079338 0.2064115 0.204951 0.2035445
 0.2021939 0.2009035 0.1996736 0.1985103 0.1974293 0.1964459 0.1955718 0.1948158 0.1941752 0.1936324
 0.1931674 0.1927681 0.1924378 0.1922078 0.192122 0.1921821 0.192317 0.1924265 0.1924492 0.1923867
 0.1922855 0.1921999 0.1921583 0.1921587 0.1921799 0.1921751 0.192061 0.1917372 0.1911147 0.1901229
 0.18872 0.186923 0.1848179 0.1825441 0.1802738 0.1781783 0.1763783 0.1749258 0.17382 0.1730086
 0.1723947 0.1718948 0.1715029 0.1712878 0.1713308 0.1716383 0.1720749 0.1724234 0.172578 0.1726661
 0.1729334 0.1735296 0.1744211 0.1754549 0.1764677 0.1773596 0.1780965 0.1786676 0.1790746 0.1793467
 0.1795174 0.1795892 0.1795473 0.1793874 0.1791105 0.1787239 0.1782535 0.1777171 0.177096 0.1763657
 0.1755276 0.1745909 0.1735592 0.1724349 0.1711926 0.1697911 0.1682807 0.1668792 0.1658895 0.1655388
 0.1658651 0.1667 0.1677868 0.1689523 0.1701237 0.1711979 0.1720466 0.1727228 0.1735477 0.1748923
 0.1768624 0.1791931 0.1814337 0.1832361 0.184465 0.1851047 0.1851823 0.1847687 0.1839171 0.1826073
 0.1808468 0.1787613 0.1765078 0.1742064 0.1719905 0.1699862 0.1682455 0.1667916 0.1656408 0.1647929
 0.1643046 0.1638945 0.1619783 0.156223 0.1468567 0.1388078 0.1379831 0.1449038 0.1539829 0.1595232
 0.1605509 0.1594539 0.1582215 0.1572893 0.156586 0.15618 0.1561229 0.1563116 0.1565292 0.1565471
 0.1562682 0.1557108 0.1547526 0.1528964 0.1492617 0.1428985 0.1334888 0.1219966 0.1104602 0.1009053
 0.09434294 0.09056481 0.08858471 0.08732324 0.08622293 0.08543788 0.085472 0.08666356 0.08899935 0.09226836
 0.09621369 0.1004984 0.1046549 0.1082372 0.1110559 0.1131834 0.1147352 0.1157458 0.1162415 0.1163009
 0.1160132 0.1154487 0.1146681 0.1137015 0.112527 0.111125 0.1095703 0.1080651 0.1068556 0.1060759
 0.105668 0.1054747 0.1053846 0.1053604 0.1053881 0.1054596 0.1055787 0.10575 0.105978 0.1062687
 0.106602 0.1069197 0.1071696 0.1073435 0.1074574 0.1075073 0.1074496 0.1072315 0.1068742 0.1064903
 0.1061356 0.1056643 0.1048476 0.1036686 0.1024328 0.1015649 0.1013145 0.1016149 0.1021627 0.1026368
 0.1028888 0.1029637 0.1029686 0.1029287</values></Ydata></ScSm><ScRf><Ydata ylabel="Single channel"><values byteorder="INTEL" format="FLOAT32" numvalues="1820"> 0.07047836 0.07060875 0.07072877 0.07083447 0.07092887 0.0710237 0.07113254 0.0712598 0.07139803 0.0715341
 0.07165762 0.07176651 0.07186389 0.0719503 0.07202643 0.07210468 0.07220598 0.07233866 0.07248697 0.07262374
 0.07273087 0.07281317 0.07289723 0.07300674 0.07313033 0.07322161 0.07324159 0.07320131 0.07315651 0.07315761
 0.07321637 0.0733351 0.07353924 0.07382124 0.07406355 0.07411534 0.0739814 0.07384896 0.07387917 0.07404423
 0.07420585 0.07426927 0.07422067 0.0741103 0.07406874 0.07426722 0.07476333 0.07537317 0.07572693 0.07548109
 0.07454774 0.07322039 0.07210484 0.07180187 0.07247253 0.07365768 0.07462262 0.07495052 0.07476749 0.07442559
 0.07413545 0.07396368 0.07399847 0.07433489 0.07492097 0.07549378 0.07568177 0.0752501 0.07436677 0.07357222
 0.07333745 0.07369763 0.074417 0.075273 0.07585296 0.07534581 0.07325996 0.07051454 0.06915362 0.07045875
 0.07360762 0.07652766 0.07778153 0.07732753 0.07592297 0.07445695 0.07371345 0.07410088 0.07538661 0.07692945
 0.07818846 0.07886554 0.07877143 0.07791609 0.07668509 0.07567325 0.07535282 0.07594003 0.07731092 0.07886519
 0.07976256 0.07958384 0.07864586 0.07758889 0.07690527 0.07691373 0.07778011 0.07932086 0.08102164 0.0824194
 0.0833441 0.08381316 0.08391433 0.0837888 0.08356426 0.08333755 0.08327036 0.08350591 0.08388989 0.08400249
 0.08362535 0.08303711 0.08273183 0.08291043 0.08330813 0.08351386 0.08337718 0.08293597 0.08200209 0.08025192
 0.07789472 0.0757761 0.07455297 0.07423446 0.07472216 0.07608628 0.0779088 0.07908528 0.07893804 0.07813075
 0.07795042 0.07891533 0.08045027 0.08172387 0.08245759 0.08296882 0.08367705 0.08462861 0.085383 0.08533978
 0.08434965 0.08308931 0.0826119 0.08333112 0.08462089 0.0855872 0.08600876 0.08630621 0.08679779 0.08723439
 0.08701728 0.08583911 0.0842162 0.08330511 0.08395013 0.08584899 0.08771096 0.08823144 0.08701909 0.0848083
 0.08284375 0.08198605 0.08237965 0.08381031 0.08600675 0.08850032 0.09055381 0.09153846 0.09136797 0.09048054
 0.08936138 0.08809029 0.08651339 0.08494819 0.08437213 0.08550926 0.08790077 0.09026833 0.09169294 0.09212748
 0.09188126 0.09099802 0.08933279 0.08719343 0.08563156 0.08566357 0.08711255 0.08865264 0.08922052 0.08900984
 0.08886428 0.08912261 0.08943596 0.08947912 0.08943682 0.08974278 0.0905274 0.09145164 0.09206453 0.09221633
 0.09209292 0.09195338 0.0918844 0.09174924 0.09140149 0.09101459 0.09106712 0.09183723 0.09302695 0.09406076
 0.09465142 0.09491336 0.09501351 0.09488789 0.09434927 0.09345244 0.0926728 0.09256941 0.09324105 0.09425086
 0.09509166 0.09556431 0.09572724 0.09570365 0.09559978 0.09547926 0.09537518 0.09535792 0.09552351 0.09586273
 0.09622528 0.09646776 0.09657009 0.09657875 0.09651175 0.09636435 0.09617135 0.09602328 0.09600875 0.09614404
 0.09637222 0.09662236 0.09683849 0.09696566 0.09696826 0.09687582 0.09676695 0.09669766 0.09667446 0.0966935
 0.09676506 0.09688792 0.09702708 0.09713654 0.09719682 0.09721796 0.09721375 0.09718949 0.09715431 0.09712972
 0.09714074 0.0972 0.09729485 0.09739346 0.09747991 0.09757508 0.09769724 0.09781355 0.09786761 0.09785131
 0.09781671 0.09781858 0.09787071 0.09795354 0.09803803 0.09809476 0.09809765 0.09804207 0.09796803 0.09794798
 0.09803255 0.09821513 0.09845543 0.09871265 0.09894602 0.09911947 0.09923075 0.09931297 0.0993921 0.09946315
 0.09951505 0.09956098 0.09963626 0.09977143 0.09996359 0.1001738 0.1003579 0.1004969 0.1005981 0.1006872
 0.1008014 0.100958 0.1011185 0.1012203 0.1012543 0.1012836 0.1013671 0.1014935 0.1016048 0.1016676
 0.1017041 0.1017592 0.1018506 0.1019573 0.1020526 0.1021366 0.1022343 0.1023614 0.1024936 0.1025777
 0.1025821 0.1025342 0.1024928 0.1024904 0.102518 0.1025619 0.1026262 0.1027128 0.1027979 0.1028473
 0.1028519 0.1028384 0.1028391 0.1028552 0.1028586 0.1028271 0.1027684 0.102709 0.1026699 0.1026531
 0.102645 0.102628 0.1025915 0.1025355 0.102467 0.1023936 0.1023189 0.1022467 0.1021927 0.1021828
 0.1022197 0.1022538 0.1022111 0.1020627 0.1018548 0.1016645 0.1015334 0.1014469 0.1013623 0.1012487
 0.1011051 0.1009512 0.1008062 0.1006755 0.100554 0.1004371 0.1003309 0.1002535 0.1002182 0.1002067
 0.1001708 0.1000757 0.09993669 0.09980152 0.09970203 0.09963702 0.09959127 0.09955381 0.09952202 0.09950197
 0.09950074 0.0995106 0.09951055 0.09949134 0.09946926 0.0994704 0.09951215 0.0995982 0.09971263 0.09981725
 0.09987713 0.09989742 0.09992087 0.09998361 0.1000852 0.1002042 0.1003279 0.1004578 0.1005977 0.1007484
 0.1009113 0.1010912 0.1012914 0.1015086 0.1017338 0.1019575 0.102177 0.1024002 0.1026409 0.1029071
 0.1031923 0.10348 0.1037574 0.1040245 0.1042899 0.1045604 0.1048362 0.1051179 0.1054125 0.1057272
 0.106058 0.1063909 0.1067157 0.107034 0.1073535 0.1076775 0.1080029 0.1083283 0.1086635 0.1090238
 0.1094064 0.1097793 0.1101066 0.1103862 0.1106533 0.1109468 0.1112785 0.1116305 0.1119706 0.1122738
 0.1125441 0.1128129 0.1131059 0.1134158 0.1137193 0.1140162 0.1143363 0.1147003 0.1150842 0.1154323
 0.1157074 0.115927 0.1161436 0.1163889 0.1166463 0.1168828 0.1170943 0.1173061 0.1175354 0.117775
 0.1180172 0.1182717 0.1185471 0.1188276 0.1190856 0.1193118 0.11952 0.1197226 0.1199134 0.1200744
 0.1201953 0.1202871 0.1203791 0.1204957 0.120635 0.1207769 0.1209123 0.1210543 0.1212188 0.1214086
 0.1216197 0.1218532 0.1221066 0.1223643 0.1226108 0.1228562 0.1231289 0.1234342 0.1237327 0.1239799
 0.1241753 0.1243571 0.1245529 0.1247628 0.1249856 0.1252345 0.1255191 0.1258279 0.1261362 0.1264272
 0.1267057 0.1269937 0.1273061 0.1276237 0.1279034 0.128121 0.1282982 0.1284811 0.1287024 0.1289647
 0.1292499 0.1295361 0.1298068 0.13005 0.1302518 0.1303994 0.1304969 0.1305667 0.1306254 0.1306588
 0.13063 0.1305087 0.1302837 0.1299496 0.1294952 0.1289156 0.1282352 0.127518 0.1268558 0.1263414
 0.1260437 0.1259976 0.1262044 0.1266323 0.1272135 0.1278538 0.1284543 0.1289283 0.1292048 0.1292334
 0.1289998 0.1285334 0.1278914 0.1271344 0.1263152 0.1254774 0.1246559 0.123892 0.1232606 0.1228801
 0.1228813 0.1233585 0.1243355 0.1257467 0.1274339 0.1291824 0.1308027 0.1322014 0.1333857 0.1344084
 0.1353191 0.1361517 0.1369323 0.1376767 0.138387 0.1390584 0.139691 0.1402872 0.1408415 0.1413395
 0.1417648 0.1421044 0.1423525 0.1425153 0.1426105 0.1426561 0.1426664 0.1426587 0.142647 0.1426188
 0.1425265 0.1423133 0.1419511 0.1414588 0.1409061 0.1404155 0.1401546 0.1402975 0.1409525 0.142096
 0.143569 0.1451501 0.1466484 0.1479479 0.1490024 0.1498213 0.1504566 0.1509773 0.1514365 0.1518608
 0.15226 0.1526384 0.1529989 0.1533455 0.1536845 0.1540231 0.1543671 0.1547177 0.1550692 0.1554118
 0.1557405 0.1560625 0.1563938 0.1567447 0.1571088 0.1574684 0.157814 0.1581547 0.1585028 0.1588542
 0.1591927 0.1595122 0.1598237 0.1601427 0.1604765 0.1608225 0.16117 0.1615052 0.1618207 0.1621214
 0.1624179 0.1627152 0.1630097 0.1632966 0.1635751 0.1638483 0.1641192 0.1643902 0.1646657 0.1649483
 0.1652331 0.165508 0.1657657 0.1660128 0.1662634 0.1665259 0.1667959 0.1670615 0.1673157 0.1675636
 0.1678187 0.1680879 0.168364 0.1686324 0.1688856 0.1691282 0.1693709 0.1696209 0.1698773 0.1701344
 0.1703882 0.1706387 0.1708872 0.1711358 0.1713867 0.1716414 0.1718985 0.1721548 0.1724085 0.1726595
 0.1729087 0.1731568 0.1734046 0.1736533 0.1739053 0.1741607 0.1744156 0.1746648 0.1749057 0.1751392
 0.1753681 0.1755967 0.1758306 0.1760719 0.1763168 0.1765596 0.176798 0.1770334 0.1772698 0.1775098
 0.1777527 0.1779967 0.178243 0.1784931 0.1787441 0.1789909 0.1792334 0.179476 0.1797209 0.1799659
 0.1802076 0.1804458 0.1806832 0.1809217 0.1811597 0.1813945 0.1816275 0.1818623 0.1821002 0.182339
 0.1825766 0.1828124 0.183048 0.183287 0.1835307 0.1837738 0.18401 0.1842398 0.1844695 0.1847042
 0.1849436 0.1851833 0.1854195 0.185652 0.1858842 0.1861192 0.1863575 0.1865985 0.1868407 0.1870806
 0.1873165 0.1875504 0.1877852 0.1880215 0.1882595 0.1884992 0.1887396 0.1889807 0.1892243 0.1894717
 0.1897223 0.1899751 0.1902275 0.1904756 0.1907195 0.1909649 0.1912156 0.191471 0.1917296 0.1919901
 0.1922499 0.1925071 0.1927621 0.1930148 0.1932651 0.1935155 0.1937678 0.1940195 0.1942665 0.1945073
 0.1947417 0.1949709 0.195199 0.1954285 0.1956579 0.1958855 0.1961123 0.1963396 0.196569 0.1968054
 0.1970514 0.1973032 0.1975553 0.1978052 0.1980517 0.1982949 0.1985389 0.1987868 0.1990376 0.1992925
 0.1995543 0.1998202 0.200084 0.2003457 0.2006097 0.2008774 0.2011476 0.2014186 0.2016863 0.2019481
 0.2022081 0.20247 0.2027321 0.2029942 0.2032591 0.2035255 0.2037902 0.2040559 0.204325 0.2045953
 0.2048661 0.2051402 0.2054159 0.2056895 0.2059622 0.2062349 0.2065057 0.2067787 0.2070599 0.2073462
 0.2076309 0.2079141 0.2081956 0.2084694 0.2087347 0.2089975 0.2092596 0.2095228 0.2097947 0.2100748
 0.2103503 0.2106143 0.2108703 0.2111157 0.2113328 0.2114725 0.2114012 0.2108376 0.209314 0.2061849
 0.200755 0.1925576 0.1816366 0.1686254 0.1545716 0.1406062 0.1276364 0.1162264 0.1066782 0.09915266
 0.09374446 0.0905516 0.08974153 0.09164521 0.0968712 0.1059408 0.1179668 0.1295166 0.1358991 0.1347176
 0.1280427 0.1205345 0.1156467 0.1139318 0.1142189 0.1153532 0.1168778 0.1189037 0.1217102 0.1253333
 0.129526 0.1341649 0.1394843 0.1457208 0.1526571 0.1597018 0.1663866 0.1726703 0.178766 0.1847735
 0.1905318 0.1957747 0.2003373 0.2042146 0.2075087 0.2103619 0.2129003 0.2152038 0.217323 0.2192864
 0.2210635 0.2225454 0.2236078 0.224211 0.2244487 0.2245035 0.2245459 0.2246601 0.2248574 0.225132
 0.2254819 0.2258997 0.2263723 0.2268879 0.2274308 0.227982 0.2285294 0.2290662 0.2295855 0.2300839
 0.2305617 0.2310163 0.2314449 0.2318531 0.2322487 0.2326325 0.2330034 0.2333648 0.2337191 0.2340671
 0.2344131 0.2347589 0.2350967 0.2354167 0.2357157 0.2359944 0.2362569 0.2365128 0.2367719 0.2370355
 0.2373001 0.2375629 0.2378205 0.23807 0.2383133 0.2385542 0.2387935 0.2390329 0.2392746 0.2395166
 0.2397548 0.2399908 0.240229 0.2404693 0.2407097 0.2409512 0.2411952 0.2414397 0.2416818 0.2419211
 0.2421615 0.2424116 0.2426766 0.2429506 0.243222 0.2434866 0.2437491 0.2440159 0.2442905 0.2445735
 0.2448609 0.2451476 0.2454309 0.2457074 0.2459696 0.2462108 0.246432 0.2466423 0.2468555 0.2470839
 0.2473291 0.2475812 0.2478301 0.2480741 0.2483167 0.2485616 0.2488117 0.2490674 0.2493258 0.2495874
 0.249856 0.2501324 0.250413 0.2506963 0.2509834 0.2512728 0.2515625 0.2518543 0.2521483 0.2524383
 0.2527192 0.2529958 0.2532837 0.2535972 0.2539357 0.2542786 0.2546034 0.2549077 0.2552084 0.2555225
 0.2558557 0.2561971 0.2565159 0.2567816 0.2570047 0.257243 0.2575515 0.2579302 0.258333 0.2587162
 0.2590684 0.2594011 0.2597249 0.2600369 0.260326 0.2605868 0.260832 0.2610955 0.2614114 0.2617794
 0.2621596 0.2625148 0.2628403 0.2631477 0.2634437 0.263732 0.2640046 0.2642248 0.2643632 0.2644698
 0.2646669 0.2650348 0.2655234 0.2660047 0.2664003 0.2667292 0.2670419 0.2673531 0.2676517 0.2679131
 0.268069 0.268042 0.267888 0.2678468 0.2681463 0.2687719 0.2694966 0.2701116 0.2705628 0.2709014
 0.2711915 0.2714672 0.2717117 0.2718583 0.2718623 0.2718059 0.2718872 0.2722402 0.2727827 0.2733042
 0.2736878 0.2739773 0.27426 0.2745677 0.2748598 0.27501 0.2748615 0.2744399 0.2740935 0.2742665
 0.275068 0.2761464 0.2770412 0.277594 0.277947 0.2782148 0.2783144 0.2781161 0.2776038 0.2768762
 0.276184 0.2759703 0.2765847 0.2778353 0.2790657 0.2798126 0.2802055 0.2806354 0.2812454 0.281869
 0.2823012 0.2824827 0.2824664 0.2822965 0.2819885 0.281664 0.2816286 0.2821533 0.2831584 0.2842385
 0.2850447 0.2855571 0.2859156 0.2860094 0.2853782 0.2837567 0.2817789 0.2808159 0.2817593 0.2840849
 0.2864185 0.2878933 0.288626 0.2890744 0.2894402 0.2896106 0.2891519 0.2874551 0.2845651 0.2819033
 0.2814059 0.2836158 0.2870727 0.2897259 0.2904999 0.2895147 0.2875642 0.2857481 0.2850807 0.2859418
 0.2879186 0.2902249 0.2921718 0.2933581 0.2936994 0.2933869 0.2928029 0.2924185 0.2924975 0.2926979
 0.2922875 0.2910993 0.2898647 0.2890897 0.2881193 0.2862001 0.2841547 0.2838692 0.2859635 0.2888974
 0.290759 0.2912241 0.2912099 0.2910268 0.289626 0.2859799 0.2809815 0.2774218 0.2776025 0.281038
 0.2849359 0.2869417 0.2870035 0.2865771 0.2865767 0.2864059 0.2848458 0.2817844 0.27889 0.2781186
 0.2795188 0.281157 0.2812562 0.2794381 0.275787 0.2704115 0.2649245 0.2627424 0.2660685 0.2731535
 0.2798434 0.2831663 0.2822627 0.2771485 0.2690176 0.2615316 0.2591763 0.2631235 0.2698601 0.2745901
 0.2750168 0.2714376 0.2647877 0.2562314 0.248178 0.2439873 0.2458329 0.2529567 0.2617978 0.2675249
 0.2665094 0.2592412 0.2510524 0.2480974 0.2515655 0.2568973 0.2591461 0.2576293 0.2548988 0.2532613
 0.253505 0.2553357 0.2577112 0.2596633 0.2610438 0.2611479 0.2573405 0.2479701 0.2367069 0.2305975
 0.2327989 0.240036 0.2479427 0.2554584 0.2623929 0.2662726 0.2649708 0.2609138 0.2595349 0.2634729
 0.2700584 0.2747258 0.2756477 0.2744823 0.2733519 0.2723129 0.270403 0.2683692 0.2687039 0.2725461
 0.2778969 0.2817858 0.2832503 0.2833415 0.2831341 0.2828197 0.2822551 0.2814062 0.2803097 0.279092
 0.2779621 0.2769795 0.2760103 0.2750003 0.273899 0.2720504 0.2682473 0.2622988 0.2563692 0.2534806
 0.2543377 0.2568865 0.2592669 0.2611596 0.261321 0.2565706 0.2459491 0.2344424 0.2295495 0.2340334
 0.2437194 0.252178 0.2558053 0.2542713 0.2483464 0.2395407 0.2316165 0.2299355 0.2373344 0.2511522
 0.2656113 0.2766986 0.2836981 0.2869573 0.2863388 0.2823479 0.2774177 0.2749545 0.2769978 0.2828754
 0.2897177 0.2938008 0.2921674 0.2850575 0.2775205 0.2763683 0.2834252 0.2931033 0.2985643 0.2988802
 0.2980466 0.298644 0.2996264 0.2998174 0.3003752 0.3028376 0.3065886 0.3093669 0.3092919 0.3056583
 0.298924 0.2912525 0.2861697 0.2857773 0.2884314 0.2906266 0.290591 0.2883186 0.2833684 0.275831
 0.2690939 0.2680244 0.2734392 0.2808652 0.285636 0.2872402 0.2878788 0.2885116 0.2877279 0.2841088
 0.2787384 0.2747384 0.2742079 0.2762454 0.2784418 0.2794913 0.2793981 0.2779728 0.2748431 0.2710692
 0.2692838 0.2713527 0.2763757 0.2815582 0.2847741 0.2858617 0.2858199 0.2855226 0.2852501 0.2848402
 0.2841106 0.2834585 0.2838992 0.2859853 0.288849 0.2909924 0.2920207 0.2929707 0.2948508 0.2974066
 0.2995133 0.300425 0.3004324 0.3004885 0.3013442 0.302932 0.304436 0.3050118 0.3046169 0.3041609
 0.3046918 0.306398 0.3085343 0.3102756 0.311406 0.3122027 0.3129697 0.3137783 0.314431 0.3146244
 0.3143537 0.3141603 0.314731 0.3161849 0.3179325 0.3192725 0.3199654 0.3201999 0.3201981 0.3200026
 0.3195866 0.319028 0.3185135 0.3181972 0.3180951 0.3181167 0.3181615 0.3181738 0.3181469 0.3181165
 0.3181384 0.3182426 0.3184149 0.318626 0.3188543 0.3190699 0.3192344 0.3193414 0.3194282 0.3195192
 0.3195755 0.3195172 0.319277 0.3188155 0.3181038 0.3171144 0.31582 0.3141836 0.3121692 0.309841
 0.307523 0.3058318 0.3054222 0.306571 0.3089556 0.3118368 0.3144803 0.3164747 0.3177685 0.3185125
 0.3188924 0.3190481 0.3190625 0.3189715 0.3187839 0.3185098 0.3181731 0.3178048 0.3174328 0.317082
 0.3167703 0.3164982 0.3162438 0.3159705 0.3156417 0.3152359 0.3147513 0.3141998 0.3135922 0.3129248
 0.3121753 0.3113175 0.3103504 0.3093162 0.3082836 0.3073078 0.3064003 0.3055297 0.3046504 0.3037205
 0.3026882 0.3014854 0.3000923 0.2986264 0.2973104 0.2962973 0.2955335 0.2948208 0.2939893 0.2929882
 0.291847 0.2906089 0.2893072 0.2879663 0.2865972 0.2851931 0.283731 0.282185 0.2805426 0.2788082
 0.2769921 0.2751037 0.2731609 0.2711881 0.2691815 0.2670713 0.2647222 0.2619748 0.258691 0.2547802
 0.2502142 0.2450478 0.2394323 0.2335934 0.227773 0.222176 0.2169555 0.2122326 0.2081171 0.2047081
 0.2020786 0.2002668 0.1992872 0.1991478 0.1998497 0.2013673 0.2036295 0.2065157 0.2098649 0.2134888
 0.217185 0.22076 0.2240774 0.2271037 0.2298961 0.2325225 0.2349912 0.2372575 0.2392803 0.2410524
 0.242584 0.24388 0.2449445 0.2458005 0.2464958 0.2470845 0.2476026 0.2480569 0.2484342 0.2487224
 0.2489303 0.2490889 0.2492346 0.2493938 0.2495798 0.249799 0.2500574 0.2503648 0.2507357 0.251183
 0.2517127 0.2523222 0.2530009 0.2537338 0.2545096 0.2553312 0.2562198 0.2572122 0.2583502 0.2596635
 0.2611511 0.262774 0.2644561 0.2660947 0.2675827 0.268835 0.2698023 0.2704718 0.2708607 0.2710041
 0.2709367 0.2706859 0.270277 0.2697361 0.2690876 0.2683546 0.2675609 0.2667215 0.2658338 0.2648873
 0.2638853 0.2628541 0.2618279 0.2608283 0.2598608 0.2589263 0.258024 0.2571464 0.256283 0.2554343
 0.2546122 0.2538282 0.2530871 0.2523885 0.2517224 0.2510641 0.2503754 0.2496101 0.2487239 0.2476877
 0.2464926 0.2451432 0.243651 0.2420294 0.2402895 0.2384396 0.2364934 0.2344708 0.2323853 0.2302342
 0.2280012 0.2256679 0.2232426 0.2207864 0.2183991 0.2161663 0.2141214 0.2122501 0.2105143 0.2088757
 0.2073115 0.2058143 0.2043805 0.2030076 0.2016978 0.2004497 0.1992561 0.1981166 0.1970461 0.1960668
 0.1952012 0.1944653 0.1938542 0.1933411 0.1928985 0.1925151 0.1921985 0.1919819 0.1919098 0.1919871
 0.1921431 0.19227 0.192294 0.1922147 0.1920914 0.1919954 0.1919616 0.191979 0.1920128 0.1920093
 0.191887 0.1915509 0.1909168 0.189916 0.1885068 0.186706 0.184602 0.1823367 0.1800794 0.1779912
 0.1761847 0.1747127 0.1735843 0.1727626 0.1721627 0.1717002 0.1713544 0.171176 0.1712379 0.1715483
 0.1719802 0.1723269 0.1724888 0.1725885 0.1728622 0.1734592 0.174355 0.1754035 0.1764378 0.1773504
 0.1781029 0.1786845 0.1790979 0.1793743 0.1795512 0.1796341 0.1796071 0.1794614 0.1791944 0.1788141
 0.178349 0.1778168 0.177198 0.1764714 0.1756446 0.174729 0.173725 0.1726299 0.1714154 0.1700389
 0.1685513 0.1671731 0.1662084 0.1658809 0.1662221 0.1670612 0.1681432 0.1692975 0.1704545 0.1715175
 0.1723674 0.1730594 0.1739084 0.1752779 0.177272 0.1796275 0.1818922 0.1837124 0.1849513 0.1855975
 0.1856838 0.1852811 0.1844397 0.1831384 0.1813852 0.1793053 0.1770536 0.174749 0.1725266 0.1705164
 0.1687743 0.167324 0.1661791 0.1653378 0.1648596 0.1644648 0.1625586 0.156789 0.1473803 0.139291
 0.138469 0.145442 0.1545835 0.1601554 0.1611838 0.1600834 0.1588523 0.1579111 0.1571791 0.156739
 0.1566634 0.1568561 0.1570926 0.1571339 0.1568764 0.1563359 0.1553887 0.1535347 0.1498898 0.1435046
 0.134067 0.1225475 0.110986 0.1014043 0.09480977 0.09099713 0.08898887 0.08771156 0.08660574 0.08582065
 0.08586018 0.08706684 0.08942745 0.09272352 0.09669194 0.1009991 0.105184 0.1087963 0.1116324 0.1137604
 0.1153105 0.116336 0.116865 0.1169593 0.1166889 0.1161194 0.1153257 0.1143571 0.113197 0.1118147
 0.1102749 0.1087832 0.1075927 0.1068346 0.1064414 0.1062527 0.1061617 0.1061384 0.1061749 0.1062659
 0.1064117 0.1066072 0.1068489 0.107149 0.1075054 0.107868 0.1081662 0.1083624 0.1084599 0.1084671
 0.1083611 0.1081075 0.1077367 0.1073555 0.1069992 0.1065028 0.105636 0.1043942 0.103096 0.1021752
 0.1018867 0.1021656 0.1027053 0.1031785 0.1034304 0.1035022 0.1034984 0.1034392 0.1032305 0.102774
</values></Ydata></ScRf><Data_Parameters_AB><parameter name="DPF">1</parameter><parameter name="NPT">3497</parameter><parameter name="FXV">3996</parameter><parameter name="LXV">500</parameter><parameter name="CSF">1</parameter><parameter name="MXY">0.00536567298695445</parameter><parameter name="MNY">-0.0281306579709053</parameter><parameter name="DAT">18/01/2024</parameter><parameter name="TIM">11:45:33.700 (GMT+1)</parameter><parameter name="DXU">WN</parameter></Data_Parameters_AB><AB__Qtest><MainReport name="Quality Test Report"><Header><Line><Legend>Test result ok/not ok [1/0]: </Legend><Value>0</Value></Line><Line><Legend>Method file: </Legend><Value>C:\Users\Public\Documents\Bruker\OPUS_8.2.28\QT\IRBT_v3_default.QT</Value></Line></Header><Matrix><Line><Legend></Legend><Legend>min</Legend><Legend>max</Legend><Legend>measured</Legend></Line><Line><Value>Absorption (X-Range 1):</Value><Value>0.400000</Value><Value>2.000000</Value><Value>0.016754</Value></Line><Line><Value>Noise (X-Range 4):</Value><Value></Value><Value>0.000300</Value><Value>0.000025</Value></Line><Line><Value>Signal/Noise (X-Range 2):</Value><Value>200.000000</Value><Value></Value><Value>14.920995</Value></Line><Line><Value>Signal/Noise (X-Range 3):</Value><Value>40.000000</Value><Value></Value><Value>11.859078</Value></Line><Line><Value>Water vapour (X-Range 5):</Value><Value></Value><Value>0.000300</Value><Value>0.000013</Value></Line><Line><Value>Signal/Water (X-Range 2):</Value><Value>100.000000</Value><Value></Value><Value>29.316086</Value></Line><Line><Value>Signal/Water (X-Range 3):</Value><Value>20.000000</Value><Value></Value><Value>23.300172</Value></Line><Line><Value>Fringes (X-Range 6):</Value><Value></Value><Value>0.000100</Value><Value>0.000026</Value></Line></Matrix></MainReport></AB__Qtest><Data_Parameters_ScSm><parameter name="DPF">1</parameter><parameter name="NPT">1814</parameter><parameter name="FXV">3996.63438082617</parameter><parameter name="LXV">499.579297603271</parameter><parameter name="CSF">1</parameter><parameter name="MXY">0.322492122650146</parameter><parameter name="MNY">0.0735527127981186</parameter><parameter name="DAT">18/01/2024</parameter><parameter name="TIM">11:45:33.700 (GMT+1)</parameter><parameter name="DXU">WN</parameter></Data_Parameters_ScSm><Data_Parameters_ScRf><parameter name="DPF">1</parameter><parameter name="NPT">1820</parameter><parameter name="FXV">4004.34989121387</parameter><parameter name="LXV">495.721542409425</parameter><parameter name="CSF">1</parameter><parameter name="MXY">0.320199906826019</parameter><parameter name="MNY">0.0691536217927933</parameter><parameter name="DAT">18/01/2024</parameter><parameter name="TIM">11:45:06.605 (GMT+1)</parameter><parameter name="DXU">WN</parameter></Data_Parameters_ScRf><Optic_Parameters_Rf><parameter name="APR">0</parameter><parameter name="APT">Open</parameter><parameter name="BMS">KBr</parameter><parameter name="DTC">RT-DLaTGS_IR-Biotyper [Microplate reader]</parameter><parameter name="HPF">0</parameter><parameter name="LPF">10.0</parameter><parameter name="LPV">4000</parameter><parameter name="PGR">0</parameter><parameter name="RCH">Module port</parameter><parameter name="RDX">0</parameter><parameter name="SRC">MIR</parameter><parameter name="VEL">10.0</parameter><parameter name="SON">Off</parameter></Optic_Parameters_Rf><Acquisition_Parameters_Rf><parameter name="ADT">1</parameter><parameter name="AQM">DD</parameter><parameter name="CFE">0</parameter><parameter name="COR">0</parameter><parameter name="DEL">0</parameter><parameter name="DLY">0</parameter><parameter name="HFW">8000</parameter><parameter name="LFW">0</parameter><parameter name="NSR">32</parameter><parameter name="PLF">AB</parameter><parameter name="RES">6</parameter><parameter name="RGN">-1</parameter><parameter name="STR">0</parameter><parameter name="TCL">MakeCompatibleScalar (0, {WSV=1.000000, ARV=0});</parameter><parameter name="TDL">37</parameter><parameter name="RPO">0</parameter></Acquisition_Parameters_Rf><FT_-_Parameters_Rf><parameter name="APF">B3</parameter><parameter name="HFQ">500</parameter><parameter name="LFQ">4000</parameter><parameter name="NLI">0</parameter><parameter name="PHR">24</parameter><parameter name="PHZ">ML</parameter><parameter name="SPZ">NO</parameter><parameter name="ZFF">1</parameter></FT_-_Parameters_Rf><Optic_Parameters_><parameter name="APR">0</parameter><parameter name="APT">Open</parameter><parameter name="BMS">KBr</parameter><parameter name="CHN">Module port</parameter><parameter name="DTC">RT-DLaTGS_IR-Biotyper [Microplate reader]</parameter><parameter name="HPF">0</parameter><parameter name="LPF">10.0</parameter><parameter name="LPV">4000</parameter><parameter name="PGN">0</parameter><parameter name="RDX">0</parameter><parameter name="SRC">MIR</parameter><parameter name="VEL">10.0</parameter><parameter name="SON">Off</parameter></Optic_Parameters_><FT_-_Parameters_><parameter name="APF">B3</parameter><parameter name="HFQ">500</parameter><parameter name="LFQ">4000</parameter><parameter name="NLI">0</parameter><parameter name="PHR">24</parameter><parameter name="PHZ">ML</parameter><parameter name="SPZ">NO</parameter><parameter name="ZFF">1</parameter></FT_-_Parameters_><Acquisition_Parameters_><parameter name="ADT">1</parameter><parameter name="AQM">DD</parameter><parameter name="CFE">0</parameter><parameter name="COR">0</parameter><parameter name="DEL">0</parameter><parameter name="DLY">0</parameter><parameter name="HFW">8000</parameter><parameter name="LFW">0</parameter><parameter name="NSS">32</parameter><parameter name="PLF">AB</parameter><parameter name="RES">6</parameter><parameter name="SOT">0</parameter><parameter name="TCL">MakeCompatibleScalar (0, {WSV=1.000000, ARV=0});</parameter><parameter name="TDL">37</parameter><parameter name="SPO">0</parameter><parameter name="SGN">-1</parameter></Acquisition_Parameters_><Instrument_Parameters_Rf><parameter name="HFL">15801.365274</parameter><parameter name="LFL">0</parameter><parameter name="LWN">15801.365274</parameter><parameter name="ABP">32157</parameter><parameter name="SSP">1</parameter><parameter name="ARG">2</parameter><parameter name="ASG">2</parameter><parameter name="ASS">32</parameter><parameter name="GFW">16</parameter><parameter name="GBW">16</parameter><parameter name="BFW">0</parameter><parameter name="BBW">0</parameter><parameter name="PKA">9303</parameter><parameter name="PKL">4987</parameter><parameter name="PRA">9267</parameter><parameter name="PRL">5010</parameter><parameter name="P2A">1</parameter><parameter name="P2L">1</parameter><parameter name="P2R">1</parameter><parameter name="P2K">1</parameter><parameter name="DAQ">0</parameter><parameter name="AG2">1</parameter><parameter name="SSM">1</parameter><parameter name="RSN">46614</parameter><parameter name="CRR">0</parameter><parameter name="SRT">1705578306.606</parameter><parameter name="DUR">19.64599609375</parameter><parameter name="TSC">31.2</parameter><parameter name="MVD">0.257234007120132</parameter><parameter name="AN1">0.226003482067414</parameter><parameter name="AN2">0</parameter><parameter name="VSN">2.485 Apr  4 2017</parameter><parameter name="SRN">0085</parameter><parameter name="CAM">0</parameter><parameter name="INS">IR-Biotyper</parameter><parameter name="FOC">69</parameter><parameter name="RDY">1</parameter><parameter name="ARS">32</parameter></Instrument_Parameters_Rf><Sample_Parameters_><parameter name="BLD"></parameter><parameter name="CNM">Admin</parameter><parameter name="CPY"></parameter><parameter name="DPM"></parameter><parameter name="EXP">IRBT_v3_32Scans.XPM</parameter><parameter name="LCT"></parameter><parameter name="SFM">Microplate, HTS-XT</parameter><parameter name="SNM">240118-1045-Cdiff_SCFA_2_C34_232130435_H7_8505af2d-2e6f-4b25-9de4-a6c3fd074b62.0</parameter><parameter name="XPP">C:\Users\Public\Documents\Bruker\OPUS_8.2.28\XPM</parameter><parameter name="IST">OK</parameter><parameter name="CPG">1252</parameter><parameter name="UID">fa0f7bc3-2092-48c0-ae56-0bc10c12ccbd</parameter></Sample_Parameters_><Instrument_Parameters_><parameter name="HFL">15801.365274</parameter><parameter name="LFL">0</parameter><parameter name="LWN">15801.365274</parameter><parameter name="ABP">32157</parameter><parameter name="SSP">1</parameter><parameter name="ASG">2</parameter><parameter name="ARG">2</parameter><parameter name="ASS">32</parameter><parameter name="GFW">16</parameter><parameter name="GBW">16</parameter><parameter name="BFW">0</parameter><parameter name="BBW">0</parameter><parameter name="PKA">9494</parameter><parameter name="PKL">4987</parameter><parameter name="PRA">9487</parameter><parameter name="PRL">5010</parameter><parameter name="P2A">1</parameter><parameter name="P2L">1</parameter><parameter name="P2R">1</parameter><parameter name="P2K">1</parameter><parameter name="DAQ">0</parameter><parameter name="AG2">1</parameter><parameter name="SSM">1</parameter><parameter name="RSN">24000</parameter><parameter name="CRR">0</parameter><parameter name="SRT">1705578333.7</parameter><parameter name="DUR">19.64599609375</parameter><parameter name="TSC">31.2</parameter><parameter name="MVD">0.252912849187851</parameter><parameter name="AN1">0.22601241291852</parameter><parameter name="AN2">0</parameter><parameter name="VSN">2.485 Apr  4 2017</parameter><parameter name="SRN">0085</parameter><parameter name="CAM">0</parameter><parameter name="INS">IR-Biotyper</parameter><parameter name="FOC">69</parameter><parameter name="RDY">1</parameter></Instrument_Parameters_><History/></OPUSDataFile>
