<?xml version="1.0" encoding="UTF-8" ?>
<OPUSDataFile><AB><Ydata ylabel="Absorbance Units"><values byteorder="INTEL" format="FLOAT32" numvalues="3497"> -0.1113479 -0.111331 -0.1113183 -0.1113101 -0.1113081 -0.111311 -0.1113174 -0.1113255 -0.1113321 -0.1113368
 -0.1113378 -0.1113365 -0.1113334 -0.1113296 -0.1113259 -0.1113214 -0.1113159 -0.1113091 -0.1113002 -0.1112931
 -0.111288 -0.1112901 -0.1113001 -0.1113171 -0.1113408 -0.1113617 -0.1113794 -0.111385 -0.1113798 -0.1113648
 -0.1113424 -0.111322 -0.1113047 -0.111298 -0.1112997 -0.1113102 -0.1113259 -0.1113429 -0.1113592 -0.1113716
 -0.1113805 -0.111385 -0.1113866 -0.111386 -0.111384 -0.1113813 -0.1113775 -0.1113726 -0.1113663 -0.1113585
 -0.1113497 -0.11134 -0.1113302 -0.11132 -0.1113089 -0.1112965 -0.1112806 -0.1112613 -0.111237 -0.1112089
 -0.1111777 -0.1111461 -0.1111178 -0.1110961 -0.1110864 -0.1110901 -0.1111111 -0.1111442 -0.1111892 -0.1112361
 -0.1112814 -0.1113185 -0.1113442 -0.11136 -0.1113653 -0.1113657 -0.1113619 -0.1113575 -0.1113526 -0.1113489
 -0.1113463 -0.1113463 -0.1113486 -0.1113531 -0.1113592 -0.1113643 -0.1113685 -0.1113699 -0.11137 -0.1113708
 -0.111372 -0.1113754 -0.1113774 -0.1113757 -0.1113682 -0.1113519 -0.1113321 -0.1113093 -0.1112922 -0.1112836
 -0.1112859 -0.1113006 -0.1113211 -0.1113471 -0.1113684 -0.1113843 -0.1113882 -0.1113803 -0.1113623 -0.1113354
 -0.1113075 -0.1112792 -0.1112575 -0.111241 -0.1112297 -0.1112221 -0.1112151 -0.11121 -0.1112068 -0.1112083
 -0.1112176 -0.1112322 -0.1112532 -0.1112722 -0.1112864 -0.1112907 -0.1112822 -0.1112651 -0.1112392 -0.1112113
 -0.1111821 -0.1111556 -0.111132 -0.1111165 -0.1111095 -0.1111186 -0.111143 -0.1111838 -0.1112364 -0.1112862
 -0.1113271 -0.111335 -0.1113138 -0.1112555 -0.1111778 -0.1110986 -0.1110302 -0.110991 -0.1109773 -0.1109944
 -0.1110281 -0.1110757 -0.1111204 -0.1111579 -0.1111772 -0.1111748 -0.1111535 -0.1111122 -0.1110673 -0.1110195
 -0.1109847 -0.1109627 -0.1109533 -0.1109547 -0.1109557 -0.1109562 -0.1109499 -0.1109398 -0.1109302 -0.1109238
 -0.1109281 -0.1109407 -0.1109632 -0.110989 -0.1110137 -0.1110311 -0.1110353 -0.1110269 -0.1110029 -0.1109728
 -0.1109376 -0.110909 -0.1108895 -0.1108818 -0.110887 -0.1108968 -0.1109105 -0.1109192 -0.1109229 -0.1109223
 -0.110918 -0.1109162 -0.1109156 -0.1109162 -0.1109151 -0.1109049 -0.110886 -0.1108549 -0.1108163 -0.1107745
 -0.110733 -0.1106969 -0.1106649 -0.110638 -0.110613 -0.1105883 -0.1105638 -0.1105387 -0.1105166 -0.1104982
 -0.1104864 -0.1104822 -0.1104838 -0.1104913 -0.1104997 -0.1105087 -0.110515 -0.110519 -0.1105208 -0.1105207
 -0.1105191 -0.1105153 -0.1105076 -0.1104954 -0.1104765 -0.1104529 -0.1104251 -0.1103972 -0.1103727 -0.1103552
 -0.1103488 -0.1103525 -0.1103683 -0.1103892 -0.110414 -0.1104353 -0.1104508 -0.1104622 -0.1104691 -0.11048
 -0.1104955 -0.1105168 -0.1105432 -0.110563 -0.1105755 -0.1105698 -0.1105478 -0.1105107 -0.1104606 -0.1104039
 -0.1103415 -0.110277 -0.1102145 -0.1101594 -0.1101166 -0.1100937 -0.1100884 -0.1101041 -0.1101287 -0.1101593
 -0.1101821 -0.1101917 -0.1101848 -0.1101587 -0.1101215 -0.1100735 -0.1100244 -0.1099747 -0.1099308 -0.1098925
 -0.109862 -0.1098389 -0.1098208 -0.1098072 -0.1097938 -0.109781 -0.1097673 -0.1097538 -0.1097425 -0.1097322
 -0.1097232 -0.1097117 -0.1096937 -0.1096684 -0.1096321 -0.1095921 -0.1095503 -0.1095139 -0.1094866 -0.1094649
 -0.1094497 -0.1094315 -0.109409 -0.1093795 -0.1093425 -0.109304 -0.1092645 -0.1092309 -0.1092029 -0.1091823
 -0.1091679 -0.1091559 -0.1091438 -0.1091229 -0.1090923 -0.1090444 -0.1089836 -0.1089116 -0.1088363 -0.1087663
 -0.1087047 -0.1086572 -0.1086205 -0.1085948 -0.1085758 -0.1085623 -0.10855 -0.1085381 -0.1085213 -0.1084988
 -0.1084655 -0.1084209 -0.1083631 -0.1082921 -0.1082092 -0.108115 -0.1080138 -0.1079065 -0.1077995 -0.1076932
 -0.1075929 -0.1074981 -0.1074107 -0.1073299 -0.1072558 -0.1071869 -0.1071223 -0.1070603 -0.1069994 -0.1069389
 -0.1068785 -0.1068175 -0.1067567 -0.1066905 -0.1066186 -0.1065323 -0.1064299 -0.1063108 -0.1061745 -0.1060331
 -0.1058872 -0.1057503 -0.1056223 -0.1055086 -0.1054075 -0.1053162 -0.1052322 -0.1051475 -0.1050613 -0.1049678
 -0.1048695 -0.104768 -0.1046646 -0.1045629 -0.1044576 -0.1043466 -0.1042254 -0.1040884 -0.1039454 -0.1037965
 -0.1036575 -0.103533 -0.1034245 -0.1033343 -0.1032471 -0.1031621 -0.1030639 -0.1029522 -0.1028269 -0.1026893
 -0.1025502 -0.1024094 -0.1022724 -0.1021368 -0.1019983 -0.1018555 -0.1017031 -0.1015438 -0.1013789 -0.1012116
 -0.1010459 -0.1008821 -0.1007215 -0.1005632 -0.1004068 -0.1002536 -0.1001038 -0.09995875 -0.09981897 -0.09968264
 -0.0995499 -0.09941603 -0.09928083 -0.09913778 -0.09898656 -0.09882113 -0.0986421 -0.09845168 -0.09825256 -0.09805883
 -0.09787214 -0.09770636 -0.09755792 -0.09742731 -0.09730761 -0.09718903 -0.09706741 -0.09693399 -0.09679078 -0.09663559
 -0.09647439 -0.09630951 -0.09614499 -0.09598336 -0.09582286 -0.09566393 -0.095502 -0.09533615 -0.09516644 -0.09499253
 -0.09482007 -0.09464927 -0.09448408 -0.09432404 -0.09416658 -0.09401087 -0.09385128 -0.0936879 -0.09351764 -0.09334189
 -0.09316192 -0.09297931 -0.09279729 -0.09261565 -0.09243565 -0.09225592 -0.09207537 -0.09189484 -0.0917135 -0.0915361
 -0.09136428 -0.09120008 -0.09104528 -0.09089395 -0.0907459 -0.0905926 -0.09043306 -0.09026691 -0.09009426 -0.08992343
 -0.08975472 -0.08959486 -0.08944248 -0.08929434 -0.08914817 -0.08899459 -0.08883356 -0.08865925 -0.0884757 -0.08828576
 -0.08809467 -0.08790949 -0.08773159 -0.08756539 -0.08740621 -0.08725359 -0.08710089 -0.08694557 -0.08678452 -0.08661599
 -0.08644251 -0.0862639 -0.08608507 -0.0859065 -0.08573087 -0.08555832 -0.08538867 -0.08522189 -0.08505724 -0.08489491
 -0.08473538 -0.0845788 -0.08442628 -0.08427726 -0.08413146 -0.08398747 -0.0838433 -0.08369732 -0.0835468 -0.08339179
 -0.08323067 -0.08306678 -0.08290068 -0.08273771 -0.08257996 -0.08243012 -0.08228994 -0.08215605 -0.08202878 -0.08190006
 -0.0817692 -0.08163046 -0.08148361 -0.08133162 -0.08117524 -0.08102428 -0.08087876 -0.08074485 -0.08061993 -0.0804989
 -0.08037867 -0.08024862 -0.08011019 -0.07995924 -0.07980292 -0.079647 -0.07949802 -0.07936404 -0.07924388 -0.07914061
 -0.07904577 -0.07895727 -0.07886799 -0.07877521 -0.07867912 -0.07857914 -0.0784784 -0.07837734 -0.0782754 -0.07817256
 -0.07806569 -0.07795486 -0.07784002 -0.07772197 -0.07760525 -0.07749034 -0.07738166 -0.07727825 -0.07718074 -0.07708643
 -0.07699176 -0.07689337 -0.07678574 -0.07666831 -0.07653738 -0.07639839 -0.07625181 -0.07610725 -0.0759683 -0.07584086
 -0.07572795 -0.07562699 -0.07553859 -0.07545501 -0.07537559 -0.07529445 -0.07521127 -0.07512531 -0.07503673 -0.0749478
 -0.07485843 -0.07476935 -0.07467997 -0.07458842 -0.0744945 -0.07439645 -0.07429539 -0.07419233 -0.07408857 -0.07398637
 -0.07388533 -0.07378615 -0.07368717 -0.07358775 -0.07348655 -0.0733833 -0.07327577 -0.07316383 -0.07304306 -0.07291225
 -0.07277171 -0.07262053 -0.0724711 -0.07232407 -0.07219617 -0.07208723 -0.07199952 -0.07193028 -0.07186351 -0.07179777
 -0.07171763 -0.07162742 -0.07152908 -0.07142863 -0.07133847 -0.07125813 -0.071194 -0.07113758 -0.07108459 -0.07102708
 -0.07095808 -0.07087891 -0.07078699 -0.07069167 -0.07059505 -0.07050284 -0.07041768 -0.07033179 -0.07024536 -0.07014175
 -0.07001995 -0.06987217 -0.06969938 -0.06951372 -0.06931783 -0.06913474 -0.06896467 -0.06882212 -0.06870242 -0.06860221
 -0.06851515 -0.06842873 -0.06833984 -0.06823914 -0.06812815 -0.06800523 -0.06787191 -0.06772909 -0.06757605 -0.0674122
 -0.0672389 -0.06705493 -0.0668696 -0.06668361 -0.06650911 -0.06634787 -0.06620264 -0.06607379 -0.06594967 -0.06582944
 -0.06569765 -0.06555482 -0.06539588 -0.06522363 -0.06504593 -0.06486508 -0.0646916 -0.06452426 -0.0643666 -0.06421423
 -0.06406346 -0.06391024 -0.06374959 -0.06358051 -0.06340052 -0.06321174 -0.06301375 -0.06281146 -0.06260581 -0.06240183
 -0.06220081 -0.06200368 -0.06181101 -0.06161874 -0.06142666 -0.0612314 -0.06103301 -0.06083287 -0.06063096 -0.06042883
 -0.06022482 -0.06001345 -0.05979288 -0.0595537 -0.05929995 -0.05903118 -0.05876046 -0.05850206 -0.05827026 -0.0580844
 -0.05794423 -0.05785958 -0.05780986 -0.05779152 -0.05777829 -0.05776127 -0.05772984 -0.05767881 -0.05761794 -0.05754685
 -0.05748441 -0.05743181 -0.05740359 -0.05739997 -0.05742489 -0.05747712 -0.05755012 -0.05764241 -0.05774411 -0.05785567
 -0.05797303 -0.05809787 -0.05823232 -0.05837506 -0.05852656 -0.05868149 -0.05883509 -0.05898459 -0.05912495 -0.05926276
 -0.05939773 -0.05954311 -0.05970251 -0.05988504 -0.06009418 -0.06032602 -0.06058154 -0.06084527 -0.06111639 -0.06137841
 -0.06163078 -0.06186418 -0.06207906 -0.06227399 -0.06245006 -0.06261034 -0.06275693 -0.06289666 -0.06303161 -0.06316959
 -0.06330933 -0.06345351 -0.06359698 -0.06373604 -0.06386698 -0.06398543 -0.06409354 -0.06419054 -0.06428149 -0.06436798
 -0.06445206 -0.06453495 -0.06461345 -0.06468776 -0.06475055 -0.06480134 -0.06483442 -0.06484994 -0.06485219 -0.06484275
 -0.06483623 -0.06483314 -0.06484484 -0.0648676 -0.06489779 -0.06492993 -0.06495094 -0.06496044 -0.06495104 -0.06492871
 -0.06489617 -0.06485882 -0.06482174 -0.06478465 -0.06474898 -0.06471211 -0.06467301 -0.06463263 -0.06459074 -0.06455012
 -0.06451127 -0.06447371 -0.06443755 -0.06439839 -0.06435608 -0.06430772 -0.06425355 -0.06419419 -0.06413004 -0.06406296
 -0.06399313 -0.06392181 -0.06384939 -0.06377711 -0.06370546 -0.06363582 -0.06356775 -0.06350171 -0.0634359 -0.06336944
 -0.06330069 -0.06322848 -0.06315299 -0.06307364 -0.06299303 -0.06291145 -0.0628318 -0.06275466 -0.0626801 -0.06260826
 -0.0625357 -0.06246225 -0.06238511 -0.06230444 -0.06222026 -0.06213292 -0.06204414 -0.06195385 -0.06186277 -0.06177071
 -0.06167758 -0.06158341 -0.06148824 -0.06139202 -0.06129491 -0.06119628 -0.06109591 -0.06099281 -0.06088639 -0.06077643
 -0.0606624 -0.060546 -0.06042736 -0.06030871 -0.06019063 -0.06007172 -0.05995206 -0.05982658 -0.05969515 -0.0595567
 -0.05941221 -0.05927008 -0.05913159 -0.05900802 -0.05889818 -0.05880549 -0.05872559 -0.05865191 -0.05857965 -0.05849904
 -0.05840832 -0.0583009 -0.05818121 -0.05804842 -0.05791307 -0.05777939 -0.05765625 -0.05754874 -0.05745452 -0.05737526
 -0.05729933 -0.05722538 -0.05714525 -0.05705789 -0.05696562 -0.05686861 -0.05677186 -0.05667482 -0.05657466 -0.05646992
 -0.05635147 -0.05621959 -0.05606884 -0.05590368 -0.05572951 -0.05555316 -0.05538723 -0.05523459 -0.05510513 -0.05499135
 -0.0548932 -0.05479681 -0.05469499 -0.05458134 -0.05445008 -0.05430997 -0.05416123 -0.05401581 -0.0538763 -0.05374176
 -0.0536128 -0.0534774 -0.05333504 -0.05317878 -0.05300935 -0.05283125 -0.0526455 -0.05245952 -0.05227312 -0.05208952
 -0.05190825 -0.05172974 -0.05155393 -0.05138103 -0.05121068 -0.0510425 -0.05087645 -0.05071177 -0.05055071 -0.05039385
 -0.05024416 -0.05010289 -0.04997114 -0.04984933 -0.04973816 -0.0496378 -0.04954859 -0.04947081 -0.04940018 -0.04933641
 -0.04926981 -0.04920007 -0.04911964 -0.04902989 -0.04893331 -0.04883269 -0.04873841 -0.04865197 -0.04858229 -0.04852789
 -0.04849101 -0.04846809 -0.04845637 -0.04845281 -0.04845417 -0.04845952 -0.0484676 -0.04847832 -0.04849162 -0.04850654
 -0.04852291 -0.04853975 -0.04855675 -0.04857456 -0.04859329 -0.04861248 -0.04863207 -0.04864806 -0.04866035 -0.04866587
 -0.04866593 -0.04866566 -0.04866679 -0.04867882 -0.04869989 -0.04873182 -0.04876908 -0.04880338 -0.04883249 -0.04884874
 -0.04885865 -0.04886342 -0.04887268 -0.04889246 -0.0489254 -0.04897508 -0.0490353 -0.04910565 -0.04917867 -0.04925309
 -0.04932502 -0.04939404 -0.04945726 -0.04951451 -0.04956081 -0.0495959 -0.04961459 -0.04961766 -0.04960592 -0.04958197
 -0.04955456 -0.0495266 -0.04950976 -0.04950339 -0.049513 -0.04953288 -0.04955972 -0.0495862 -0.04960568 -0.04961406
 -0.04960706 -0.04958488 -0.04954666 -0.04949336 -0.04942513 -0.04934215 -0.04924438 -0.04913272 -0.0490072 -0.04886914
 -0.04871862 -0.04855547 -0.04837945 -0.04818768 -0.04797971 -0.0477513 -0.04750238 -0.04722996 -0.04693528 -0.04661896
 -0.04628391 -0.04593457 -0.04557415 -0.04520805 -0.04483774 -0.04446636 -0.04409323 -0.04371897 -0.04334197 -0.04296211
 -0.04257676 -0.04218566 -0.04178472 -0.04137327 -0.04094824 -0.04050883 -0.04005963 -0.03960086 -0.03914731 -0.03870007
 -0.03827718 -0.0378793 -0.03751927 -0.03719766 -0.03692201 -0.03669537 -0.03652741 -0.03642379 -0.03639888 -0.03645369
 -0.03659924 -0.03682107 -0.03711743 -0.03745643 -0.03782451 -0.03818536 -0.03852322 -0.0388144 -0.0390492 -0.03922151
 -0.03932821 -0.03937377 -0.03935791 -0.03929023 -0.03917121 -0.03901741 -0.03883026 -0.03863286 -0.03842678 -0.03823365
 -0.0380533 -0.03789681 -0.03776279 -0.03765311 -0.03756718 -0.03750471 -0.0374656 -0.03745015 -0.03745673 -0.0374839
 -0.03753119 -0.03759506 -0.03768632 -0.03780323 -0.03797611 -0.03820848 -0.03854276 -0.03898651 -0.03956776 -0.04029255
 -0.04114603 -0.0421281 -0.04317548 -0.04428326 -0.04536771 -0.04642585 -0.04739487 -0.048279 -0.04905844 -0.04974294
 -0.0503456 -0.05087609 -0.05135643 -0.05179287 -0.05220081 -0.05258435 -0.05295141 -0.0533047 -0.05364763 -0.05398171
 -0.05430876 -0.05462708 -0.05493724 -0.05523393 -0.05551681 -0.05577857 -0.05601838 -0.05623163 -0.05641793 -0.05657669
 -0.05670793 -0.05681231 -0.05688968 -0.05693904 -0.05696067 -0.05695409 -0.05692194 -0.05686873 -0.05680133 -0.05673169
 -0.05667025 -0.05663308 -0.05663066 -0.05667761 -0.05677765 -0.05693935 -0.05715388 -0.05742287 -0.05772505 -0.05805757
 -0.05839261 -0.05872606 -0.05903177 -0.05930663 -0.0595325 -0.05970798 -0.0598264 -0.05988831 -0.05990141 -0.05986982
 -0.05982181 -0.05976773 -0.05976063 -0.05981423 -0.0599926 -0.06029861 -0.06077452 -0.06139569 -0.06215815 -0.0630105
 -0.06391282 -0.06481233 -0.06566589 -0.06644855 -0.06713641 -0.06773846 -0.06825022 -0.0686959 -0.0690786 -0.06941917
 -0.06972007 -0.06999601 -0.07024802 -0.07048753 -0.07071494 -0.07093702 -0.07115323 -0.07136313 -0.07156586 -0.07175747
 -0.07193829 -0.07210652 -0.07226431 -0.07241444 -0.07255945 -0.07270389 -0.07284864 -0.07299663 -0.07314572 -0.07329576
 -0.07344365 -0.0735876 -0.07372755 -0.0738625 -0.07399628 -0.07412929 -0.07426561 -0.07440603 -0.0745502 -0.07469825
 -0.07484508 -0.07499041 -0.07512842 -0.07525942 -0.07538239 -0.07549863 -0.07561298 -0.07572637 -0.07584455 -0.07596571
 -0.07608977 -0.07621329 -0.07633121 -0.07644286 -0.0765447 -0.07664071 -0.07673211 -0.07682292 -0.07691579 -0.07701027
 -0.07710703 -0.07720356 -0.0772993 -0.07739391 -0.07748727 -0.07757989 -0.07767187 -0.07776152 -0.07784867 -0.07792991
 -0.0780054 -0.07807451 -0.07813788 -0.07819803 -0.0782553 -0.07831207 -0.078368 -0.07842363 -0.07847823 -0.07853108
 -0.07858167 -0.0786292 -0.07867364 -0.07871442 -0.07875288 -0.07878909 -0.0788255 -0.07886285 -0.0789028 -0.07894608
 -0.07899158 -0.07903943 -0.07908664 -0.079133 -0.07917624 -0.07921631 -0.07925314 -0.07928696 -0.07931951 -0.07935096
 -0.07938301 -0.07941566 -0.07944976 -0.07948526 -0.07952254 -0.07956152 -0.07960252 -0.07964476 -0.07968785 -0.07973045
 -0.07977131 -0.07981069 -0.07984771 -0.07988577 -0.07992564 -0.07997021 -0.08002067 -0.08007542 -0.08013466 -0.08019422
 -0.08025371 -0.08031226 -0.08036993 -0.08042978 -0.08049189 -0.08055849 -0.08062889 -0.08070127 -0.08077461 -0.08084479
 -0.08091167 -0.08097249 -0.08102895 -0.08108179 -0.08113399 -0.08118892 -0.08124769 -0.08131278 -0.08138169 -0.08145444
 -0.08152688 -0.08159751 -0.08166478 -0.0817278 -0.08178789 -0.08184493 -0.08190167 -0.08195826 -0.0820179 -0.08208074
 -0.08214919 -0.08222301 -0.08230158 -0.08238421 -0.08246733 -0.08255021 -0.08262884 -0.08270296 -0.08276995 -0.08283044
 -0.08288389 -0.08293183 -0.08297537 -0.08301628 -0.08305643 -0.08309564 -0.08313452 -0.08317166 -0.0832064 -0.08323928
 -0.08326993 -0.08330134 -0.08333398 -0.0833687 -0.08340579 -0.08344145 -0.08347549 -0.0835031 -0.08352433 -0.0835376
 -0.08354343 -0.08354345 -0.08353807 -0.0835294 -0.08351771 -0.08350446 -0.08348998 -0.08347535 -0.08346064 -0.08344655
 -0.08343231 -0.08341794 -0.0834017 -0.08338285 -0.08335983 -0.08333172 -0.08329894 -0.08326104 -0.08322091 -0.08317875
 -0.08313826 -0.08309981 -0.08306541 -0.08303511 -0.08300855 -0.08298551 -0.08296382 -0.08294329 -0.08292176 -0.0828995
 -0.08287612 -0.08285232 -0.08282946 -0.0828078 -0.08278833 -0.08277097 -0.08275565 -0.08274339 -0.08273458 -0.08273108
 -0.08273415 -0.08274391 -0.08276126 -0.08278316 -0.08280924 -0.08283632 -0.08286366 -0.08289133 -0.08291918 -0.08294909
 -0.08298114 -0.0830157 -0.08305266 -0.08309069 -0.08312995 -0.08317042 -0.08321249 -0.08325744 -0.08330531 -0.08335691
 -0.08341174 -0.08346935 -0.08352938 -0.0835912 -0.0836549 -0.08372039 -0.08378768 -0.08385673 -0.08392757 -0.08400007
 -0.08407487 -0.08415218 -0.08423197 -0.0843145 -0.08439732 -0.08448032 -0.08456022 -0.08463687 -0.0847101 -0.08478029
 -0.08485168 -0.08492465 -0.08500382 -0.08508853 -0.08517933 -0.08527455 -0.08537076 -0.08546681 -0.085559 -0.08564803
 -0.08573294 -0.08581561 -0.08589715 -0.08597877 -0.08606174 -0.08614524 -0.08622957 -0.08631249 -0.0863937 -0.08647066
 -0.08654294 -0.08660896 -0.08666842 -0.08672243 -0.08677105 -0.08681849 -0.08686501 -0.08691538 -0.08696929 -0.08702767
 -0.08708955 -0.08715217 -0.0872149 -0.08727472 -0.08733214 -0.08738665 -0.0874388 -0.08748921 -0.08753748 -0.08758346
 -0.08762702 -0.08766767 -0.08770684 -0.08774474 -0.08778339 -0.08782341 -0.08786542 -0.08790971 -0.08795565 -0.08800319
 -0.08805219 -0.08810265 -0.08815446 -0.08820749 -0.08826021 -0.08831239 -0.08836155 -0.08840807 -0.0884515 -0.088493
 -0.08853502 -0.08857851 -0.08862638 -0.08867828 -0.08873504 -0.08879552 -0.08885902 -0.08892505 -0.08899303 -0.08906334
 -0.08913618 -0.0892111 -0.08928832 -0.08936557 -0.08944256 -0.08951725 -0.08958928 -0.08965953 -0.08972806 -0.08979769
 -0.08986844 -0.08994115 -0.09001534 -0.0900884 -0.09016009 -0.09022777 -0.09029225 -0.09035398 -0.09041412 -0.09047499
 -0.09053672 -0.09060053 -0.09066569 -0.09073201 -0.09079887 -0.09086595 -0.09093259 -0.09099869 -0.09106278 -0.09112454
 -0.09118261 -0.09123658 -0.09128676 -0.09133295 -0.09137774 -0.09142125 -0.09146665 -0.09151396 -0.09156452 -0.09161799
 -0.09167299 -0.09172917 -0.09178435 -0.09183873 -0.09189159 -0.09194346 -0.09199508 -0.09204625 -0.09209725 -0.09214688
 -0.09219423 -0.0922385 -0.09227872 -0.09231563 -0.09234907 -0.09238077 -0.09241103 -0.09244163 -0.09247285 -0.09250624
 -0.09254201 -0.09258101 -0.09262332 -0.0926678 -0.09271428 -0.09275977 -0.0928041 -0.09284435 -0.0928809 -0.09291339
 -0.09294265 -0.09297065 -0.0929978 -0.09302595 -0.09305453 -0.09308358 -0.09311257 -0.09314076 -0.09316893 -0.09319703
 -0.09322674 -0.09325884 -0.0932937 -0.09333186 -0.09337162 -0.09341297 -0.09345319 -0.09349203 -0.09352744 -0.09355924
 -0.09358747 -0.09361227 -0.09363614 -0.09365936 -0.09368525 -0.09371345 -0.09374465 -0.09377765 -0.09380963 -0.09384001
 -0.09386601 -0.0938889 -0.09390886 -0.09392808 -0.0939487 -0.0939713 -0.09399729 -0.09402496 -0.09405407 -0.09408265
 -0.09410995 -0.09413575 -0.09415971 -0.09418333 -0.09420674 -0.09423107 -0.09425642 -0.09428205 -0.09430785 -0.09433186
 -0.09435403 -0.09437297 -0.09438909 -0.09440308 -0.0944156 -0.09442861 -0.09444267 -0.09445966 -0.09447996 -0.09450484
 -0.09453434 -0.09456898 -0.09460842 -0.09465277 -0.09470128 -0.09475377 -0.09480926 -0.09486742 -0.09492774 -0.09499004
 -0.09505453 -0.0951212 -0.09519012 -0.09526134 -0.09533248 -0.09540331 -0.09546898 -0.09552932 -0.09558058 -0.09562329
 -0.09565789 -0.09568454 -0.0957045 -0.09571637 -0.0957185 -0.09570878 -0.09568357 -0.0956424 -0.09558214 -0.09550778
 -0.0954189 -0.09532896 -0.09524222 -0.09517301 -0.09512725 -0.09510775 -0.09511749 -0.09514572 -0.09519237 -0.09523957
 -0.09528612 -0.09531803 -0.09533523 -0.09533924 -0.09533137 -0.09532291 -0.09531345 -0.09530761 -0.09530324 -0.09529655
 -0.09528667 -0.09526999 -0.09524707 -0.09521717 -0.09518094 -0.09513867 -0.09509112 -0.09503861 -0.0949825 -0.09492303
 -0.0948628 -0.0948023 -0.09474492 -0.09469148 -0.09464368 -0.0946021 -0.09456465 -0.09453131 -0.09449831 -0.09446555
 -0.09443159 -0.09439663 -0.09436173 -0.094327 -0.09429363 -0.09426113 -0.09422876 -0.09419595 -0.09416114 -0.0941245
 -0.09408509 -0.09404483 -0.09400477 -0.09396765 -0.09393591 -0.09390997 -0.09389139 -0.09387678 -0.09386587 -0.09385388
 -0.09383965 -0.09382129 -0.09379819 -0.09377196 -0.09374263 -0.09371252 -0.09368172 -0.09365118 -0.09362094 -0.09359146
 -0.09356296 -0.09353665 -0.09351265 -0.09349205 -0.09347455 -0.09346023 -0.09344848 -0.09343852 -0.09342975 -0.09342147
 -0.09341274 -0.09340293 -0.09339084 -0.09337568 -0.09335721 -0.09333492 -0.09331027 -0.09328335 -0.0932561 -0.09322888
 -0.09320179 -0.09317491 -0.09314753 -0.09311964 -0.09309135 -0.09306274 -0.09303477 -0.0930073 -0.09298024 -0.09295295
 -0.09292347 -0.0928915 -0.09285512 -0.09281535 -0.09277239 -0.09272835 -0.0926853 -0.0926448 -0.09260877 -0.09257703
 -0.09255028 -0.09252673 -0.09250624 -0.0924862 -0.09246623 -0.09244335 -0.09241708 -0.09238613 -0.09235027 -0.09231134
 -0.09226947 -0.0922278 -0.09218632 -0.09214599 -0.09210654 -0.0920672 -0.09202804 -0.09198888 -0.09195003 -0.09191235
 -0.09187535 -0.09183894 -0.09180191 -0.09176295 -0.09172154 -0.0916767 -0.09162909 -0.09157874 -0.09152649 -0.09147248
 -0.0914177 -0.09136217 -0.09130777 -0.09125459 -0.09120569 -0.09116135 -0.09112348 -0.09109209 -0.09106459 -0.09104044
 -0.09101329 -0.090983 -0.09094507 -0.0909007 -0.09085106 -0.09079781 -0.09074547 -0.0906939 -0.09064529 -0.09059762
 -0.0905496 -0.09049968 -0.09044591 -0.09038927 -0.09032939 -0.09026858 -0.09020757 -0.09014773 -0.09008958 -0.09003318
 -0.08997867 -0.08992544 -0.08987349 -0.08982205 -0.08977107 -0.08971917 -0.08966623 -0.08961036 -0.08955149 -0.08948798
 -0.08942033 -0.08934876 -0.08927457 -0.08920037 -0.08912781 -0.08906057 -0.08899923 -0.08894644 -0.08889994 -0.08885968
 -0.08882111 -0.08878221 -0.08873925 -0.08869004 -0.08863508 -0.08857359 -0.0885096 -0.08844344 -0.08837917 -0.08831724
 -0.08825906 -0.08820469 -0.08815242 -0.08810194 -0.08804916 -0.08799396 -0.08793307 -0.08786748 -0.08779819 -0.0877272
 -0.08765949 -0.08759602 -0.08754111 -0.08749294 -0.08745173 -0.08741409 -0.08737739 -0.08734015 -0.08730047 -0.08725966
 -0.08721767 -0.08717609 -0.08713558 -0.08709524 -0.08705516 -0.08701318 -0.08696905 -0.08692237 -0.08687315 -0.08682422
 -0.08677579 -0.08673112 -0.08668999 -0.08665294 -0.08661936 -0.08658724 -0.08655664 -0.08652648 -0.0864976 -0.08647104
 -0.08644684 -0.08642606 -0.08640659 -0.08638757 -0.08636611 -0.08634017 -0.08630934 -0.08627243 -0.0862325 -0.08618972
 -0.08614846 -0.08610953 -0.08607484 -0.08604482 -0.08601811 -0.08599465 -0.08597139 -0.08594824 -0.08592311 -0.08589615
 -0.08586711 -0.08583624 -0.08580434 -0.08577152 -0.08573848 -0.08570525 -0.08567216 -0.08563938 -0.08560708 -0.08557578
 -0.08554598 -0.08551777 -0.08549152 -0.0854665 -0.08544277 -0.08541884 -0.08539443 -0.08536816 -0.08533959 -0.08530954
 -0.08527792 -0.08524726 -0.08521767 -0.08519074 -0.08516629 -0.0851425 -0.08511909 -0.08509321 -0.08506524 -0.08503467
 -0.08500274 -0.08497228 -0.08494377 -0.08491969 -0.08489869 -0.08488056 -0.08486299 -0.08484393 -0.08482249 -0.08479727
 -0.08476963 -0.08473958 -0.08470912 -0.08467883 -0.08464945 -0.08462126 -0.08459393 -0.08456749 -0.0845414 -0.08451562
 -0.08448997 -0.08446441 -0.08443832 -0.08441155 -0.0843829 -0.0843524 -0.08431925 -0.08428403 -0.0842475 -0.08421062
 -0.08417532 -0.0841422 -0.08411299 -0.08408696 -0.08406445 -0.08404338 -0.08402275 -0.08400094 -0.08397688 -0.08395069
 -0.08392204 -0.08389223 -0.08386146 -0.08383052 -0.08379955 -0.08376864 -0.08373783 -0.08370734 -0.08367716 -0.08364692
 -0.08361646 -0.08358446 -0.08355091 -0.08351485 -0.08347682 -0.08343757 -0.08339769 -0.08335873 -0.0833204 -0.08328314
 -0.08324604 -0.08320845 -0.08317005 -0.08313026 -0.08308984 -0.08304881 -0.08300839 -0.08296893 -0.08293108 -0.08289514
 -0.08286043 -0.08282702 -0.08279279 -0.08275759 -0.0827197 -0.08267913 -0.08263616 -0.08259101 -0.08254542 -0.08249932
 -0.08245344 -0.08240742 -0.08236054 -0.08231276 -0.08226338 -0.08221324 -0.08216289 -0.0821136 -0.08206677 -0.08202255
 -0.08198181 -0.08194283 -0.08190535 -0.08186714 -0.08182743 -0.08178553 -0.08174094 -0.0816953 -0.08164866 -0.08160327
 -0.08155927 -0.08151764 -0.08147835 -0.08144049 -0.08140384 -0.08136644 -0.08132831 -0.0812884 -0.08124702 -0.08120443
 -0.08116081 -0.08111665 -0.0810718 -0.08102612 -0.08097985 -0.08093306 -0.08088614 -0.08083946 -0.08079286 -0.08074643
 -0.08069974 -0.08065256 -0.08060534 -0.08055807 -0.08051157 -0.08046603 -0.08042062 -0.08037531 -0.08032862 -0.08028058
 -0.08023152 -0.08018166 -0.08013284 -0.08008499 -0.08003897 -0.07999416 -0.07994937 -0.07990411 -0.07985662 -0.07980745
 -0.07975642 -0.07970446 -0.07965249 -0.07960059 -0.07954936 -0.07949751 -0.07944468 -0.07938974 -0.07933204 -0.07927237
 -0.07921058 -0.07914876 -0.07908715 -0.07902715 -0.07896894 -0.07891226 -0.07885702 -0.07880156 -0.07874566 -0.07868703
 -0.07862579 -0.07856093 -0.07849335 -0.07842481 -0.07835647 -0.07829142 -0.07822996 -0.07817402 -0.07812249 -0.07807552
 -0.07803054 -0.0779864 -0.07793991 -0.07788935 -0.07783324 -0.0777704 -0.07770239 -0.07762902 -0.07755385 -0.07747728
 -0.07740175 -0.07732745 -0.07725528 -0.07718521 -0.07711661 -0.07704937 -0.0769823 -0.07691549 -0.07684857 -0.07678203
 -0.07671728 -0.07665424 -0.07659395 -0.07653486 -0.07647556 -0.07641421 -0.07634816 -0.07627784 -0.07620224 -0.07612405
 -0.07604426 -0.07596461 -0.07588618 -0.07580803 -0.07573025 -0.07565129 -0.07557086 -0.07548919 -0.07540623 -0.07532333
 -0.0752405 -0.07515755 -0.0750744 -0.07499035 -0.07490564 -0.07482114 -0.07473695 -0.07465428 -0.07457181 -0.07448767
 -0.07440054 -0.07430695 -0.07420891 -0.07410632 -0.07400343 -0.07390332 -0.07380736 -0.07371764 -0.0736313 -0.07354818
 -0.07346455 -0.0733797 -0.07329097 -0.07319796 -0.07309925 -0.07299462 -0.07288503 -0.07277061 -0.07265492 -0.07253814
 -0.07242355 -0.0723108 -0.07220015 -0.07209104 -0.07198197 -0.07187258 -0.07176125 -0.07164843 -0.0715339 -0.07141855
 -0.07130329 -0.07118829 -0.07107434 -0.07095988 -0.07084431 -0.07072683 -0.07060656 -0.07048571 -0.07036455 -0.07024505
 -0.0701278 -0.07001082 -0.0698941 -0.06977334 -0.06964839 -0.06951727 -0.06938028 -0.06923917 -0.06909429 -0.06894818
 -0.06880065 -0.06865258 -0.06850322 -0.06835142 -0.06819692 -0.06803859 -0.06787731 -0.06771364 -0.06754801 -0.06738114
 -0.06721235 -0.06704145 -0.06686801 -0.06669146 -0.06651364 -0.06633486 -0.06615663 -0.06597956 -0.06580099 -0.06562094
 -0.065433 -0.06523689 -0.06502701 -0.06480376 -0.06456799 -0.06432103 -0.06406993 -0.06381502 -0.06356193 -0.06330802
 -0.06305121 -0.06278736 -0.0625095 -0.06221529 -0.06189915 -0.06156271 -0.06120482 -0.0608295 -0.06043839 -0.06003419
 -0.05961866 -0.0591905 -0.05874983 -0.05829426 -0.05782263 -0.05734083 -0.05684878 -0.05636121 -0.05587877 -0.05541072
 -0.05495649 -0.05451335 -0.054081 -0.05365616 -0.0532399 -0.05283528 -0.05244016 -0.05205377 -0.05166808 -0.05127086
 -0.05085652 -0.05041174 -0.04994409 -0.04945284 -0.04895198 -0.04844941 -0.04794899 -0.04745479 -0.04696199 -0.04646999
 -0.04597595 -0.04547925 -0.04497974 -0.04447768 -0.04396714 -0.04344775 -0.04290927 -0.04235234 -0.04177862 -0.04119161
 -0.04061139 -0.04003884 -0.03948971 -0.03895727 -0.03843565 -0.03791603 -0.03738244 -0.03683007 -0.03624859 -0.03563436
 -0.03498432 -0.03428769 -0.03354108 -0.03272696 -0.03183828 -0.03086592 -0.02980344 -0.02866578 -0.02745167 -0.02619539
 -0.02489922 -0.0235976 -0.02229229 -0.02100348 -0.01972994 -0.01846758 -0.01721058 -0.0159264 -0.01460931 -0.01321758
 -0.01176241 -0.01024127 -0.008683944 -0.007139964 -0.005616252 -0.004148945 -0.002704349 -0.001271419 0.000185887 0.001692512
 0.003254307 0.004880319 0.006560954 0.008294743 0.01007909 0.01191493 0.01378883 0.01570111 0.01761729 0.01953554
 0.02142812 0.02329292 0.0251021 0.02684641 0.02846145 0.0299354 0.03119177 0.03223054 0.03301261 0.033547
 0.03382501 0.03387195 0.03369831 0.0333668 0.03292075 0.03242603 0.03193031 0.03145965 0.0310336 0.03065931
 0.03034163 0.03008322 0.02988729 0.02973694 0.02963226 0.02953941 0.02945656 0.02935208 0.02922516 0.02905682
 0.02884815 0.0285951 0.02829959 0.02796615 0.02759571 0.02719224 0.02675676 0.02629065 0.02580008 0.02528952
 0.02477272 0.02425992 0.02376607 0.02330198 0.02287488 0.02249002 0.02214866 0.02185184 0.02160046 0.02139522
 0.02123364 0.0211163 0.02103068 0.02097613 0.02092896 0.02088736 0.02082176 0.02073111 0.02059238 0.02040895
 0.02017803 0.019909 0.01962014 0.01932443 0.01904882 0.01880777 0.0186264 0.01851782 0.01850037 0.01858019
 0.01876801 0.01905521 0.01944594 0.01991032 0.02044766 0.02100377 0.02157453 0.02208724 0.02253596 0.02284869
 0.02302098 0.02300712 0.02280673 0.02240667 0.02180798 0.0210087 0.02001163 0.01881817 0.017447 0.01593433
 0.01431944 0.01268255 0.01105433 0.009503491 0.008038026 0.006682966 0.00544857 0.004344227 0.003384674 0.002580824
 0.001925808 0.001422454 0.001048672 0.0008003336 0.0006694722 0.0006549356 0.000754258 0.0009675917 0.001256773 0.001618125
 0.001989039 0.002367841 0.002713144 0.003025966 0.00328869 0.003501507 0.003655815 0.003752166 0.003787932 0.003762995
 0.003678208 0.003527294 0.003305704 0.003007776 0.002623176 0.002171346 0.001650764 0.001106448 0.0005483137 1.47574E-05
 -0.0004862592 -0.0009320403 -0.00131945 -0.001634007 -0.001874537 -0.002039528 -0.002130037 -0.002162567 -0.002140235 -0.002089838
 -0.002016865 -0.001952768 -0.001909596 -0.00192896 -0.002030782 -0.002266696 -0.002654334 -0.003239134 -0.004017966 -0.00501147
 -0.00618474 -0.007529994 -0.008995474 -0.01055932 -0.01218754 -0.01386672 -0.01558235 -0.01733603 -0.01907735 -0.02080554
 -0.0224259 -0.02393183 -0.02528629 -0.02649234 -0.02760745 -0.02863837 -0.02966147 -0.03067409 -0.0317086 -0.03275349
 -0.03379512 -0.03482468 -0.03581985 -0.0367775 -0.03768693 -0.03854153 -0.0393342 -0.04005408 -0.04069254 -0.04124422
 -0.04170407 -0.04207408 -0.04235413 -0.0425451 -0.04264788 -0.04265739 -0.04257339 -0.0423889 -0.04210329 -0.04171714
 -0.041232 -0.04067466 -0.04005274 -0.03943276 -0.03882349 -0.03829946 -0.03785717 -0.03752911 -0.03729856 -0.0371521
 -0.03707031 -0.03702332 -0.03699837 -0.03697297 -0.03694554 -0.03690666 -0.03686654 -0.03682408 -0.03680147 -0.03680415
 -0.03685051 -0.0369474 -0.03708749 -0.03727293 -0.03747153 -0.0376817 -0.03786316 -0.03801428 -0.03810559 -0.03813917
 -0.03811479 -0.03803939 -0.03794109 -0.03782691 -0.03773157 -0.03765503 -0.03761734 -0.03760471 -0.03761344 -0.0376134
 -0.0375811 -0.03748003 -0.03728274 -0.03696164 -0.03649777 -0.03588111 -0.03510204 -0.03417384 -0.03309489 -0.031895
 -0.03057726 -0.02916479 -0.02765956 -0.02606889 -0.02439376 -0.02265088 -0.02084593 -0.01902951 -0.01721044 -0.01545353
 -0.01376416 -0.01218738 -0.01073162 -0.009427062 -0.008297052 -0.00738037 -0.006705926 -0.006316841 -0.006218987 -0.006437578
 -0.006937006 -0.007717194 -0.008710687 -0.009903586 -0.01122104 -0.01264899 -0.01412367 -0.01563687 -0.0171375 -0.01862164
 -0.02004574 -0.02140805 -0.02268177 -0.02386947 -0.02497791 -0.02601443 -0.02701534 -0.02798559 -0.02896139 -0.0299358
 -0.03091651 -0.03188441 -0.03281876 -0.03369927 -0.03449948 -0.03520803 -0.03580788 -0.03630243 -0.03668541 -0.03697741
 -0.03717995 -0.03732539 -0.03741936 -0.03749033 -0.03754333 -0.03758842 -0.03762729 -0.03765044 -0.03765713 -0.03762934
 -0.0375666 -0.03745634 -0.03730078 -0.03710199 -0.03686547 -0.03660687 -0.03633359 -0.03606605 -0.03581316 -0.03559429
 -0.03541879 -0.03530264 -0.03524999 -0.03527084 -0.03535651 -0.03550924 -0.03570601 -0.03594307 -0.03619031 -0.03644178
 -0.03667281 -0.03687893 -0.03705059 -0.03718639 -0.0372891 -0.03735884 -0.03739864 -0.03740844 -0.03738726 -0.03733735
 -0.03726619 -0.03718163 -0.03710971 -0.03705966 -0.03706504 -0.03712457 -0.03725585 -0.0374392 -0.03766611 -0.03790629
 -0.03813705 -0.03833802 -0.03849059 -0.03860001 -0.03865994 -0.03869867 -0.03871905 -0.03875476 -0.03881095 -0.03890724
 -0.03904639 -0.0392234 -0.03943763 -0.03966383 -0.03990003 -0.04011723 -0.04031518 -0.04047662 -0.04060405 -0.04069516
 -0.04075474 -0.0407898 -0.04080871 -0.0408238 -0.04084865 -0.04089943 -0.04099079 -0.04113877 -0.04134746 -0.04162677
 -0.04196049 -0.04234981 -0.04276048 -0.04318747 -0.0435941 -0.04397459 -0.04430664 -0.04458739 -0.04481429 -0.04498734
 -0.04511617 -0.04520157 -0.0452547 -0.04527594 -0.04527269 -0.04524526 -0.04519789 -0.04513214 -0.04505241 -0.04496239
 -0.04486892 -0.04477601 -0.04469081 -0.04461386 -0.04454864 -0.04449132 -0.04444133 -0.04439386 -0.04434725 -0.04429831
 -0.04424624 -0.04418825 -0.04412391 -0.04405079 -0.04396855 -0.04387764 -0.04377814 -0.04367447 -0.04356707 -0.04346198
 -0.04335947 -0.04326427 -0.04317601 -0.04309631 -0.04302428 -0.0429589 -0.04289923 -0.04284329 -0.04279082 -0.04274062
 -0.04269329 -0.04264833 -0.04260815 -0.04257317 -0.04254772 -0.04253333 -0.04253284 -0.04254777 -0.04257601 -0.04261792
 -0.0426676 -0.04272461 -0.04278389 -0.04284518 -0.04290611 -0.04296659 -0.04302528 -0.04308204 -0.04313549 -0.04318549
 -0.04323077 -0.04327146 -0.04330697 -0.04333804 -0.04336535 -0.04339013 -0.04341421 -0.04343748 -0.04346108 -0.04348237
 -0.04350049 -0.04351271 -0.04351733 -0.04351526 -0.04350602 -0.0434931 -0.04347721 -0.04345897 -0.04343874 -0.04341253
 -0.04338014 -0.04333762 -0.04328511 -0.04322315 -0.04315233 -0.04307632 -0.04299512 -0.04291092 -0.04282273 -0.04272908
 -0.04262973 -0.04252251 -0.04241065 -0.04229579 -0.04218406 -0.04208086 -0.04198946 -0.04191488 -0.04185078 -0.04179796
 -0.04174196 -0.04168004 -0.04159902 -0.04149607 -0.04136668 -0.04120966 -0.04103011 -0.04082824 -0.04061616 -0.04039491
 -0.04018066 -0.03997442 -0.0397909 -0.03962936 -0.03949592 -0.03938731 -0.0392995 -0.03922829 -0.03916514 -0.03910752
 -0.03904912 -0.03898975 -0.03892722 -0.03886238 -0.03879534 -0.0387261 -0.03865485 -0.03858076 -0.03850351 -0.0384234
 -0.03834017 -0.03825602 -0.038171 -0.03808839 -0.03800836 -0.03793336 -0.03786343 -0.0377997 -0.03774181 -0.03768859
 -0.03763909 -0.03758943 -0.03753856 -0.03748204 -0.0374194 -0.03734784 -0.0372676 -0.03717754 -0.03707907 -0.03697206
 -0.03686048 -0.03674558 -0.03663355 -0.03652685 -0.03642996 -0.03634503 -0.03627129 -0.03620951 -0.03615387 -0.03610422
 -0.03605163 -0.03599562 -0.03592633 -0.03584356 -0.03574186 -0.03562232 -0.03548834 -0.03534251 -0.03519535 -0.03505017
 -0.03491943 -0.03480706 -0.03472482 -0.03467599 -0.03466982 -0.03470509 -0.03478582 -0.03490328 -0.03505562 -0.03522909
 -0.0354193 -0.03561198 -0.03580334 -0.03598132 -0.03614342 -0.03628208 -0.03639603 -0.03648363 -0.03654468 -0.03658206
 -0.03659612 -0.03659201 -0.03657067 -0.03654029 -0.03650205 -0.03646513 -0.03642933 -0.03639949 -0.03637321 -0.03634844
 -0.03632359 -0.03629509 -0.03626486 -0.0362327 -0.0362025 -0.03617638 -0.03615711 -0.03614628 -0.03614526 -0.03615487
 -0.03617488 -0.03620586 -0.03624396 -0.03628917 -0.03633427 -0.03637879 -0.03641668 -0.03644788 -0.03647127 -0.03648718
 -0.03649718 -0.03650153 -0.03650199 -0.036499 -0.03649452 -0.03648904 -0.03648447 -0.0364805 -0.03647748 -0.03647494
 -0.03647188 -0.03647027 -0.03647041 -0.0364759 -0.03648864 -0.03650918 -0.03653898 -0.03657283 -0.0366104 -0.036645
 -0.03667581 -0.03669904 -0.03671439 -0.03672092 -0.03671863 -0.03670766 -0.03668841 -0.03666338 -0.03663394 -0.03660661
 -0.0365833 -0.03657247 -0.03657492 -0.03659674 -0.03663588 -0.03669337 -0.03676373 -0.03684353 -0.03692574 -0.03700557
 -0.03707759 -0.03713835 -0.03718575 -0.03721839 -0.03723663 -0.03724017 -0.03723063 -0.03720809 -0.03717423 -0.03712919
 -0.03707342 -0.0370069 -0.0369289 -0.03683985 -0.03674199 -0.036637 -0.0365328 -0.03643143 -0.03634274 -0.03626681
 -0.03620912 -0.03616699 -0.03613966 -0.03612338 -0.0361146 -0.03611072 -0.03610915 -0.03610867 -0.03610833 -0.03610714
 -0.03610479 -0.03610012 -0.03609282 -0.03608252 -0.03606911 -0.03605295 -0.03603408 -0.03601247 -0.0359881 -0.03595978
 -0.03592759 -0.03589141 -0.03585158 -0.03580975 -0.03576581 -0.03572052 -0.0356731 -0.03562223 -0.03556779 -0.03550864
 -0.03544612 -0.03538116 -0.03531448 -0.03524736 -0.03517801 -0.03510635 -0.03502925 -0.03494566 -0.03485416 -0.03475407
 -0.0346463 -0.0345307 -0.03440992 -0.03428411 -0.03415619 -0.03402626 -0.03389561 -0.03376402 -0.03363018 -0.03349382
 -0.03335274 -0.03320736 -0.0330573 -0.03290404 -0.03274983 -0.03259696 -0.03244919 -0.03230878 -0.03217932 -0.03206143
 -0.0319573 -0.03186415 -0.03178221 -0.03170539 -0.03163242 -0.03155656 -0.03147612 -0.03138787 -0.03129088 -0.03118716
 -0.03107671 -0.03096354 -0.03084778 -0.03073055 -0.03061173 -0.03049029 -0.03036711 -0.0302451 -0.03012636 -0.03001868
 -0.02992308 -0.0298459 -0.02978534 -0.02974137 -0.02971276 -0.02969739 -0.02969766 -0.02971459 -0.02974978 -0.02980606
 -0.02987645 -0.02996119 -0.03004589 -0.030128 -0.03019585 -0.03024728 -0.03027915 -0.03029097 -0.03028376 -0.03025755
 -0.03021218 -0.03014774 -0.03006451 -0.02996362 -0.0298498 -0.0297256 -0.02960064 -0.02947739 -0.02936567 -0.02926584
 -0.02918328 -0.02911513 -0.02906103 -0.02901684 -0.02897988 -0.02894691 -0.02891616 -0.02888451 -0.02885121 -0.02881166
 -0.02876477 -0.02870752 -0.02863888 -0.02856198 -0.02847681 -0.02839019 -0.02830242 -0.02821724 -0.02813422 -0.02805116
 -0.02796722 -0.02787715 -0.02778054 -0.02767312 -0.02755561 -0.02742713 -0.02728948 -0.02714507 -0.02699461 -0.02684046
 -0.02668025 -0.02651381 -0.02633658 -0.0261464 -0.02594018 -0.02571622 -0.02547431 -0.025214 -0.02493607 -0.02464042
 -0.02432859 -0.02400033 -0.02366353 -0.0233189 -0.02298722 -0.02267087 -0.02240101 -0.02217938 -0.02203276 -0.02195797
 -0.02196183 -0.02203429 -0.02215982 -0.02232466 -0.02250294 -0.02268353 -0.02284513 -0.02298432 -0.0230909 -0.02317004
 -0.0232207 -0.02325184 -0.0232662 -0.02326982 -0.02326487 -0.02325204 -0.02323185 -0.02320255 -0.02316383 -0.02311793
 -0.02306509 -0.02301492 -0.02296805 -0.02293548 -0.02291569 -0.02290799 -0.02290779 -0.02289991 -0.02288131 -0.02283631
 -0.02276876 -0.02267609 -0.02256726 -0.02245016 -0.02233278 -0.02222342 -0.02212577 -0.02204448 -0.02197775 -0.02192727
 -0.02188457 -0.02184886 -0.02180899 -0.0217632 -0.0217049 -0.02163324 -0.02154741 -0.02144734 -0.02133304 -0.02120456
 -0.02106209 -0.02090622 -0.02074009 -0.02056442 -0.02038349 -0.02019697 -0.02000645 -0.01981064 -0.0196081 -0.01939826
 -0.01917987 -0.01895317 -0.01871787 -0.0184745 -0.01822277 -0.01796488 -0.01769997 -0.01743664 -0.01717458 -0.01693252
 -0.01671204 -0.01653575 -0.01640605 -0.01633455 -0.01632178 -0.01635708 -0.01643819 -0.0165366 -0.01664945 -0.01674607
 -0.01682587 -0.01686981 -0.01688107 -0.01685627 -0.01680165 -0.0167251 -0.01663216 -0.01653237 -0.01642684 -0.01632034
 -0.01620914 -0.01609282 -0.01596704 -0.01582941 -0.01568074 -0.01551942 -0.01535461 -0.01518651 -0.01502993 -0.01488615
 -0.01476692 -0.01467291 -0.01460536 -0.01456346 -0.01453809 -0.01452764 -0.01451827 -0.01450897 -0.01448863 -0.01445798
 -0.01441303 -0.01435544 -0.01428661 -0.01420642 -0.01411611 -0.01401281 -0.01389467 -0.01375982 -0.01360554 -0.01343581
 -0.01324988 -0.01305821 -0.0128625 -0.012674 -0.01249523 -0.01232905 -0.01217665 -0.01202871 -0.01188477 -0.01173079
 -0.01156642 -0.01138371 -0.01118331 -0.01096461 -0.01072896 -0.01047996 -0.01022034 -0.009957423 -0.009695282 -0.009443339
 -0.009205258 -0.00898767 -0.008795899 -0.008633735 -0.008512703 -0.008439425 -0.008423385 -0.008473569 -0.008576681 -0.008736103
 -0.008911825 -0.009099442 -0.009258674 -0.009384399 -0.009461466 -0.009488705 -0.009471281 -0.009409753 -0.009312541 -0.009180333
 -0.009020726 -0.008835414 -0.008634717 -0.008419621 -0.008198285 -0.007969196 -0.00773216 -0.00748926 -0.007238688 -0.00699516
 -0.006766533 -0.006574586 -0.006434524 -0.00635537 -0.006350383 -0.006393536 -0.006487704 -0.006571518 -0.006633606 -0.006643902
 -0.006594432 -0.006522132 -0.006428668 -0.006354585 -0.006300241 -0.006276468 -0.006281354 -0.006308908 -0.006356931 -0.006415195
 -0.006480451 -0.006540069 -0.006590911 -0.006620753 -0.00663158 -0.006619263 -0.006591708 -0.006553927 -0.006512153 -0.006472481
 -0.006433494 -0.006396967 -0.006356505 -0.006310843 -0.00625486 -0.006186814 -0.006108585 -0.006019446 -0.005930911 -0.005843567
 -0.005771741 -0.005715811 -0.005683276 -0.005673503 -0.005685949 -0.005720076 -0.005773891 -0.005846632 -0.005936577 -0.006040295
 -0.006152617 -0.006266599 -0.006371946 -0.006463618 -0.006532427 -0.00658139 -0.006608402 -0.006621955 -0.006625513 -0.006622461
 -0.006615681 -0.006599121 -0.006572181 -0.006529334 -0.006468902 -0.006400163 -0.006323462 -0.006255422 -0.006195995 -0.006145447
 -0.006101185 -0.006044294 -0.005974623 -0.005879324 -0.005764817 -0.005640391 -0.00551375 -0.005404317 -0.005312439 -0.005248818
 -0.005203911 -0.005174858 -0.005148124 -0.005114573 -0.005067064 -0.004998388 -0.004915308 -0.004816287 -0.004718353 -0.004623939
 -0.004547783 -0.004492457 -0.004459517 -0.004449494 -0.004449727 -0.004459322 -0.004461239 -0.004455344 -0.004432223 -0.004393239
 -0.004339149 -0.004270714 -0.00419081 -0.004098341 -0.003991966 -0.003872427 -0.003738258 -0.00359595 -0.00344983 -0.003307456
 -0.003176111 -0.003054487 -0.002945845 -0.002838782 -0.002731479 -0.002611722 -0.002476759 -0.002320562 -0.002141754 -0.001941233
 -0.001718801 -0.001481995 -0.001231425 -0.0009794603 -0.0007260964 -0.000478571 -0.0002336328 1.766395E-05 0.0002801545 0.0005733102
 0.0008955564 0.001257049 0.001643704 0.002045184 0.002438916 0.002802534 0.003117014 0.003363368 0.003535698 0.003625183
 0.00363935 0.003576749 0.003453896 0.003271982 0.003053772 0.00280106 0.002540251 0.002273241 0.002020546 0.001782504
 0.001561203 0.001354569 0.001147101 0.0009375315 0.00071043 0.0004698049 0.0002171614 -3.921289E-05 -0.0002829397 -0.0005081664
 -0.0006986921 -0.0008572845 -0.0009788699 -0.001073734 -0.001146195 -0.001206395 -0.00126012 -0.001311576 -0.00136341 -0.001415631
 -0.001468476 -0.001522547 -0.001577841 -0.001635912 -0.001696907 -0.001760651 -0.001827141</values></Ydata></AB><ScSm><Ydata ylabel="Single channel"><values byteorder="INTEL" format="FLOAT32" numvalues="1814"> 0.09171833 0.09183932 0.09197403 0.09213227 0.09230994 0.09249127 0.09265956 0.09280804 0.09293925 0.09305476
 0.09315573 0.093257 0.09338538 0.09355368 0.09374323 0.09391757 0.09405059 0.09414874 0.09425046 0.09439076
 0.09455568 0.09468164 0.09471332 0.09466192 0.09459978 0.09459552 0.0946687 0.09482308 0.09508717 0.09544755
 0.09575509 0.09582025 0.09564811 0.09547441 0.09550619 0.09571482 0.09592848 0.09602368 0.09597589 0.0958439
 0.09579329 0.09604481 0.09667538 0.09745327 0.09790795 0.0976015 0.09642119 0.09473907 0.09332265 0.09293284
 0.09377575 0.09527424 0.09650038 0.09692357 0.09669776 0.09626498 0.09589314 0.0956718 0.09571715 0.09614824
 0.09689295 0.09761581 0.09785161 0.09730858 0.09619616 0.09519063 0.09488641 0.0953339 0.09624118 0.09732891
 0.0980716 0.09743286 0.09477878 0.09127285 0.08952016 0.09116438 0.09516916 0.09889688 0.1005107 0.09994867
 0.0981671 0.0962951 0.09533684 0.0958238 0.09746562 0.09944008 0.1010493 0.1019121 0.1017928 0.1007072
 0.09914322 0.09785355 0.09743944 0.0981814 0.09992692 0.1019116 0.1030599 0.1028324 0.1016326 0.1002805
 0.09940612 0.09941408 0.1005127 0.1024687 0.1046311 0.1064124 0.1075927 0.1081887 0.1083113 0.108145
 0.1078573 0.1075704 0.1074863 0.1077853 0.1082725 0.1084148 0.1079335 0.1071816 0.1067876 0.1070083
 0.1075085 0.1077683 0.1075983 0.1070446 0.105861 0.1036294 0.1006152 0.09790076 0.09632947 0.095915
 0.09652904 0.09825954 0.1005779 0.1020811 0.1019026 0.1008786 0.1006425 0.1018575 0.1038006 0.1054197
 0.1063576 0.1070086 0.1078994 0.1090918 0.1100345 0.1099701 0.1087071 0.1071009 0.1064885 0.1073978
 0.1090331 0.1102531 0.110771 0.1111233 0.111723 0.1122612 0.1119763 0.1104679 0.1083836 0.1071968
 0.1079942 0.1104003 0.1127693 0.1134297 0.1118749 0.1090377 0.1065074 0.1053871 0.1058617 0.1076498
 0.1103976 0.1135121 0.1160685 0.1172774 0.1170302 0.1158776 0.1144301 0.1127885 0.1107605 0.1087459
 0.1079739 0.1093542 0.112308 0.1152272 0.1169611 0.1174567 0.1171022 0.1159454 0.1137997 0.1110538
 0.1090312 0.1090096 0.11077 0.11265 0.113311 0.1129892 0.1127429 0.1130031 0.1133361 0.113329
 0.1132048 0.1135043 0.1143963 0.1154632 0.1161446 0.1162563 0.1160332 0.115798 0.1156538 0.1154232
 0.1149162 0.114344 0.114307 0.1151655 0.1165605 0.1177753 0.1184424 0.1186948 0.118737 0.1184945
 0.1177445 0.1165595 0.1155219 0.1153128 0.1160499 0.1171979 0.118137 0.1186244 0.1187333 0.118616
 0.1184018 0.118164 0.1179398 0.1178188 0.117927 0.1182583 0.1186243 0.1188412 0.1188819 0.1188083
 0.1186473 0.1183901 0.1180708 0.117797 0.1176834 0.117759 0.1179548 0.1181758 0.1183467 0.1184037
 0.1183137 0.1181182 0.1179076 0.1177397 0.1176185 0.1175458 0.1175426 0.1176105 0.1177039 0.1177626
 0.117762 0.1177155 0.1176401 0.1175404 0.1174246 0.1173174 0.1172497 0.11724 0.1172772 0.1173253
 0.1173626 0.1174095 0.1174852 0.1175531 0.1175522 0.1174774 0.1173892 0.1173465 0.1173602 0.1174046
 0.1174446 0.1174469 0.1173852 0.1172596 0.1171197 0.1170494 0.1171028 0.1172644 0.1174804 0.1177044
 0.1179001 0.1180381 0.1181208 0.1181817 0.118243 0.1182933 0.1183173 0.1183286 0.1183675 0.1184695
 0.1186329 0.1188152 0.1189692 0.1190768 0.1191451 0.119195 0.1192598 0.1193601 0.1194694 0.1195353
 0.1195506 0.1195693 0.1196392 0.1197435 0.1198253 0.1198541 0.1198536 0.1198693 0.119921 0.1199915
 0.1200554 0.1201069 0.1201597 0.1202236 0.1202802 0.1202878 0.1202224 0.1201122 0.1200129 0.1199529
 0.1199209 0.1199018 0.1198975 0.1199086 0.1199152 0.1198899 0.1198244 0.1197385 0.1196571 0.1195824
 0.1194937 0.1193742 0.119231 0.1190851 0.1189528 0.1188366 0.1187258 0.1186041 0.1184602 0.1182927
 0.1181084 0.1179164 0.117723 0.117533 0.1173583 0.1172194 0.1171212 0.1170287 0.1168864 0.1166714
 0.1164195 0.1161911 0.1160185 0.1158873 0.1157625 0.1156241 0.1154794 0.1153482 0.1152432 0.1151636
 0.1151005 0.115046 0.1150026 0.114988 0.1150191 0.115085 0.115144 0.1151607 0.115141 0.1151194
 0.1151196 0.1151383 0.1151626 0.1151878 0.1152196 0.1152678 0.1153345 0.1154045 0.115455 0.1154814
 0.1155041 0.1155469 0.1156207 0.1157241 0.1158441 0.1159531 0.1160258 0.1160678 0.116113 0.1161884
 0.1162924 0.1164091 0.1165314 0.1166633 0.1168085 0.1169668 0.1171387 0.1173274 0.1175352 0.1177583
 0.1179863 0.1182072 0.1184177 0.1186293 0.1188625 0.1191296 0.1194224 0.1197175 0.1199971 0.1202635
 0.1205328 0.1208141 0.1211003 0.121383 0.1216688 0.1219722 0.1222949 0.1226233 0.1229448 0.1232587
 0.1235703 0.1238821 0.1241931 0.124506 0.1248297 0.1251731 0.1255297 0.1258735 0.1261783 0.1264455
 0.126705 0.1269881 0.1273037 0.1276362 0.1279586 0.1282505 0.1285144 0.1287761 0.1290579 0.1293548
 0.1296457 0.1299271 0.1302215 0.1305461 0.1308814 0.1311826 0.1314215 0.1316134 0.1317986 0.1320001
 0.1322058 0.1323918 0.1325536 0.1327079 0.1328682 0.1330324 0.1331976 0.133375 0.1335757 0.1337885
 0.1339868 0.1341562 0.1343043 0.1344432 0.1345715 0.1346789 0.1347601 0.1348245 0.1348933 0.1349825
 0.1350887 0.1351984 0.1353126 0.1354499 0.1356232 0.1358275 0.1360562 0.1363147 0.1366052 0.1369096
 0.1372063 0.1375004 0.1378174 0.1381604 0.1384929 0.1387769 0.1390151 0.1392389 0.13947 0.139715
 0.1399867 0.1403045 0.14067 0.1410585 0.1414379 0.1417892 0.1421158 0.1424393 0.1427783 0.1431231
 0.143439 0.1437021 0.1439244 0.14414 0.1443748 0.1446322 0.1448974 0.1451502 0.1453741 0.145554
 0.1456699 0.1457014 0.1456489 0.1455382 0.1453931 0.1452049 0.1449385 0.1445632 0.1440687 0.1434508
 0.1426973 0.1417994 0.1407808 0.1397161 0.1387195 0.1379097 0.1373768 0.1371734 0.1373199 0.1378025
 0.1385548 0.1394523 0.1403367 0.1410573 0.1414981 0.141591 0.141323 0.1407383 0.1399218 0.1389699
 0.1379665 0.13697 0.1360174 0.1351511 0.1344535 0.1340541 0.1340975 0.1346999 0.135922 0.137746
 0.1400449 0.1425826 0.145081 0.1473284 0.149244 0.150859 0.1522508 0.1534935 0.1546421 0.1557307
 0.156771 0.15776 0.1586911 0.1595589 0.1603526 0.1610533 0.1616379 0.1620853 0.1623856 0.1625502
 0.1626137 0.162624 0.1626327 0.1626882 0.162815 0.1629844 0.1631107 0.1630908 0.1628578 0.1624109
 0.161823 0.1612461 0.1609124 0.1611005 0.1620356 0.1637569 0.1660568 0.1685676 0.1709387 0.1729613
 0.1745799 0.1758387 0.1768289 0.1776478 0.1783684 0.1790302 0.1796502 0.1802367 0.1807962 0.1813366
 0.1818658 0.1823901 0.1829136 0.1834382 0.1839621 0.1844792 0.1849874 0.1854937 0.1860089 0.1865359
 0.187065 0.1875842 0.188093 0.1886021 0.1891174 0.1896279 0.190117 0.1905822 0.1910367 0.1914963
 0.1919692 0.1924536 0.1929365 0.1933984 0.1938279 0.1942311 0.1946232 0.1950139 0.1954031 0.1957887
 0.196171 0.1965513 0.1969293 0.1973048 0.197679 0.1980525 0.1984207 0.1987759 0.1991154 0.1994459
 0.1997785 0.2001189 0.2004651 0.2008119 0.2011574 0.2015063 0.2018665 0.2022402 0.202619 0.2029902
 0.2033484 0.2036986 0.2040498 0.2044068 0.2047691 0.2051333 0.2054971 0.2058618 0.2062296 0.2066008
 0.2069733 0.2073455 0.2077156 0.2080826 0.208446 0.2088068 0.2091666 0.2095266 0.2098871 0.2102472
 0.2106063 0.2109638 0.2113166 0.2116588 0.2119852 0.2122969 0.2126005 0.2129038 0.2132106 0.2135189
 0.2138229 0.2141193 0.2144089 0.2146954 0.2149822 0.2152695 0.2155529 0.2158276 0.2160933 0.2163537
 0.2166125 0.2168725 0.2171359 0.2174035 0.2176735 0.217943 0.2182106 0.2184779 0.2187486 0.219026
 0.2193106 0.2196018 0.2199004 0.2202074 0.2205213 0.2208399 0.2211626 0.2214873 0.221812 0.2221391
 0.2224734 0.2228162 0.2231641 0.2235145 0.2238666 0.2242206 0.2245772 0.224937 0.2252995 0.2256641
 0.2260315 0.2264021 0.2267765 0.2271553 0.2275375 0.2279198 0.2282995 0.2286776 0.229055 0.2294317
 0.2298075 0.2301799 0.2305436 0.2308974 0.2312473 0.2315999 0.2319559 0.2323125 0.2326679 0.2330227
 0.2333801 0.2337417 0.234103 0.2344594 0.2348133 0.2351694 0.2355283 0.2358895 0.2362547 0.2366233
 0.2369907 0.2373541 0.2377132 0.2380676 0.2384191 0.2387715 0.2391254 0.2394797 0.2398362 0.2401961
 0.240556 0.2409145 0.2412755 0.2416411 0.2420093 0.2423783 0.2427475 0.243116 0.2434867 0.2438635
 0.244244 0.2446223 0.244997 0.2453694 0.245739 0.246108 0.2464808 0.2468574 0.2472349 0.247614
 0.2479954 0.2483755 0.2487535 0.2491319 0.2495081 0.2498778 0.2502442 0.2506124 0.2509823 0.2513553
 0.2517344 0.252116 0.2524932 0.2528664 0.2532384 0.2536093 0.2539824 0.2543625 0.2547452 0.2551224
 0.2554951 0.2558676 0.2562402 0.2566156 0.2569962 0.257377 0.2577542 0.2581343 0.2585196 0.2589003
 0.2592722 0.2596407 0.2600064 0.2603679 0.2607304 0.2610944 0.2614521 0.2618046 0.2621568 0.2624973
 0.2627963 0.262992 0.2629228 0.2622467 0.2603924 0.2565696 0.2499216 0.2398637 0.2264313 0.2103867
 0.1930127 0.1757142 0.159632 0.1454809 0.1336374 0.124294 0.1175669 0.1135876 0.1125748 0.1149399
 0.121432 0.1326956 0.1476332 0.1619882 0.1699342 0.1684833 0.1601916 0.1508407 0.14473 0.1425627
 0.1428945 0.1442895 0.1461727 0.1486747 0.1521398 0.156617 0.1618061 0.1675533 0.1741403 0.1818535
 0.1904266 0.1991366 0.2074088 0.2151855 0.2227167 0.2301152 0.2371839 0.2436056 0.2491905 0.2539407
 0.2579806 0.2614787 0.2645833 0.267393 0.2699735 0.272362 0.274519 0.276309 0.2775812 0.2782909
 0.278556 0.2786022 0.2786376 0.2787621 0.278986 0.2792994 0.2796995 0.2801777 0.2807202 0.2813161
 0.2819491 0.2825965 0.2832418 0.2838734 0.2844788 0.2850519 0.2855968 0.2861158 0.2866082 0.2870783
 0.2875295 0.2879581 0.2883658 0.2887653 0.289165 0.2895609 0.289947 0.2903205 0.2906765 0.2910109
 0.2913239 0.2916161 0.2918881 0.2921464 0.2924005 0.2926554 0.2929141 0.2931781 0.2934422 0.293698
 0.2939445 0.2941862 0.2944248 0.2946604 0.2948934 0.2951202 0.2953382 0.295553 0.2957736 0.2960016
 0.2962326 0.2964627 0.2966877 0.2969037 0.2971102 0.2973112 0.2975171 0.2977425 0.2979937 0.2982572
 0.2985132 0.2987568 0.2989985 0.2992476 0.2995064 0.2997745 0.3000477 0.3003196 0.3005875 0.3008512
 0.3011075 0.3013503 0.3015766 0.3017902 0.3020026 0.3022273 0.3024678 0.302714 0.3029559 0.3031938
 0.3034348 0.3036838 0.3039404 0.304199 0.3044566 0.3047219 0.3050085 0.3053163 0.305631 0.3059431
 0.3062552 0.306571 0.306891 0.3072162 0.3075439 0.3078641 0.308167 0.3084578 0.3087569 0.3090862
 0.3094496 0.3098271 0.3101926 0.3105375 0.310872 0.3112106 0.3115644 0.3119301 0.3122777 0.3125695
 0.3128132 0.3130757 0.3134225 0.3138532 0.3143098 0.3147363 0.3151163 0.315466 0.3158044 0.3161352
 0.3164468 0.3167281 0.3169884 0.3172671 0.317608 0.3180127 0.3184334 0.3188238 0.319178 0.3195116
 0.3198326 0.3201438 0.3204336 0.3206591 0.3207874 0.32088 0.3210824 0.321487 0.3220301 0.3225585
 0.3229828 0.3233299 0.3236588 0.3239837 0.3242903 0.3245513 0.3246877 0.324607 0.3243737 0.32427
 0.3245669 0.3252505 0.3260551 0.3267319 0.3272132 0.3275578 0.3278434 0.3281142 0.3283519 0.3284749
 0.3284252 0.3282987 0.328334 0.3286948 0.3292852 0.3298548 0.3302622 0.3305563 0.3308372 0.3311412
 0.3314218 0.3315312 0.3312848 0.3307118 0.3302256 0.3303557 0.331237 0.3324548 0.3334597 0.334056
 0.3344059 0.3346473 0.3346908 0.3343893 0.3337227 0.3328029 0.3319223 0.3316028 0.3322569 0.3336584
 0.3350333 0.335835 0.3362163 0.3366379 0.3372688 0.3379146 0.3383363 0.3384653 0.338363 0.3380819
 0.3376383 0.3371704 0.3370346 0.3375549 0.3386461 0.3398324 0.3406964 0.341208 0.3415312 0.3415387
 0.3406911 0.3386761 0.3362386 0.3349922 0.3359902 0.3386202 0.3412661 0.3429031 0.3436605 0.3440723
 0.3443797 0.3444569 0.3437979 0.3416854 0.3381671 0.3349059 0.334173 0.3366129 0.3405226 0.3435013
 0.3442834 0.3430022 0.3405812 0.3383063 0.3373699 0.338222 0.3403785 0.3429151 0.3450258 0.3462433
 0.3464684 0.3459236 0.3450587 0.3444281 0.3443429 0.3444053 0.343756 0.342189 0.3405495 0.339431
 0.3380827 0.3356356 0.333042 0.3324822 0.3346685 0.3378177 0.3397195 0.3399986 0.3397153 0.339231
 0.3373368 0.3328466 0.3267881 0.3223755 0.3222547 0.3258617 0.3299817 0.3319021 0.3315495 0.3305811
 0.330042 0.3292607 0.3268654 0.3227423 0.3187896 0.3172284 0.3181291 0.3193213 0.3188042 0.3161567
 0.3114894 0.3049239 0.2982313 0.2951878 0.2982359 0.3054333 0.3121694 0.3151557 0.3134649 0.3071451
 0.2975219 0.2886026 0.2852861 0.2888521 0.2954698 0.2999033 0.299635 0.2949795 0.286952 0.2768006
 0.2670864 0.2613664 0.2619177 0.2679102 0.275601 0.2799878 0.2773669 0.2682819 0.2582114 0.2534454
 0.2552102 0.2588916 0.2594679 0.2562156 0.2516763 0.2481364 0.2463452 0.2460114 0.2461791 0.2459853
 0.2453691 0.2438307 0.2391204 0.2298272 0.2193131 0.2139347 0.2164181 0.2235897 0.2313306 0.2386153
 0.2452528 0.2489785 0.2478821 0.2442721 0.2432249 0.2472065 0.2537418 0.2585796 0.2599992 0.2595074
 0.2590304 0.2585668 0.2571874 0.2555956 0.2561473 0.2599224 0.2650524 0.2687807 0.2702684 0.2705627
 0.2706766 0.2707309 0.2704987 0.2698559 0.2687695 0.2673326 0.2657651 0.2641971 0.262629 0.2611728
 0.2599367 0.2584029 0.2554591 0.2508985 0.2467104 0.245663 0.2482803 0.2524461 0.2562637 0.2593387
 0.2603725 0.256205 0.2459219 0.2345078 0.2294405 0.2335209 0.2426958 0.2506835 0.2539895 0.2523355
 0.2464984 0.237962 0.2304365 0.2292286 0.2371426 0.2515021 0.2664965 0.2780437 0.285358 0.288764
 0.2881588 0.284116 0.2791551 0.2767988 0.2792446 0.2859877 0.2942472 0.3002109 0.3006661 0.2956153
 0.2900973 0.2910878 0.3004382 0.3123 0.3195634 0.3213568 0.3219651 0.3241001 0.3265721 0.3280573
 0.3297631 0.3333243 0.3380536 0.3414767 0.3415242 0.3373998 0.3295927 0.320502 0.3140821 0.3127931
 0.3150131 0.3170062 0.3168023 0.3142908 0.30891 0.3007198 0.2933918 0.2922384 0.2982016 0.3064547
 0.3118815 0.3138149 0.3145521 0.3151326 0.3141144 0.3100706 0.3042255 0.2999054 0.2992464 0.3011164
 0.3027927 0.3028237 0.3012564 0.2979839 0.2927008 0.2865867 0.2824566 0.2823234 0.2853371 0.2887208
 0.2904403 0.2905226 0.2901566 0.2902888 0.2911183 0.2922984 0.2934363 0.2947586 0.2971751 0.3011646
 0.3057768 0.3094665 0.3119051 0.3142731 0.3176497 0.3216822 0.3250492 0.3268574 0.3273937 0.3277359
 0.3287957 0.3305934 0.3322834 0.3329288 0.3324316 0.331737 0.3319816 0.3334209 0.3353313 0.3369077
 0.3379877 0.3389066 0.3399774 0.3412098 0.342297 0.3428335 0.3427774 0.3427082 0.3433641 0.3448712
 0.3466297 0.3479823 0.3487874 0.349292 0.3496616 0.3498018 0.3495772 0.3490648 0.3485485 0.3483028
 0.3484091 0.3487545 0.3491548 0.3494675 0.3496412 0.3497144 0.3497782 0.3499225 0.3502152 0.3507103
 0.3514225 0.3522744 0.3531121 0.3538102 0.3543382 0.354709 0.3549016 0.3548643 0.3545578 0.3539615
 0.353056 0.3518266 0.3502678 0.348355 0.3460448 0.3433937 0.3407471 0.3387754 0.3381933 0.3393066
 0.3417726 0.3447947 0.3475774 0.3496704 0.3510101 0.351752 0.352093 0.3521892 0.352145 0.3520207
 0.3518428 0.3516188 0.3513531 0.351054 0.3507376 0.3504275 0.350144 0.3498893 0.3496438 0.349376
 0.3490533 0.3486499 0.3481525 0.3475621 0.346888 0.3461307 0.3452676 0.3442655 0.3431185 0.341873
 0.3406091 0.3393933 0.3382418 0.3371243 0.3360007 0.3348427 0.3336027 0.3321889 0.3305399 0.3287486
 0.3270503 0.3256312 0.3244704 0.323396 0.322257 0.3210027 0.3196396 0.318184 0.3166599 0.3150981
 0.3135136 0.3118915 0.3101969 0.3083977 0.3064827 0.304466 0.3023736 0.3002294 0.2980516 0.2958472
 0.2935899 0.2911942 0.2885165 0.2853905 0.281674 0.2772803 0.2721944 0.2664861 0.2603149 0.2539049
 0.2474915 0.241282 0.2354527 0.2301668 0.2255799 0.2218256 0.218996 0.2171329 0.2162383 0.2162926
 0.2172608 0.2190831 0.2216644 0.2248705 0.2285315 0.2324523 0.23643 0.2402755 0.2438517 0.247116
 0.2501207 0.2529424 0.2556029 0.2580628 0.2602793 0.2622432 0.2639604 0.2654245 0.2666271 0.2675857
 0.2683508 0.2689841 0.269531 0.2700085 0.2704122 0.2707347 0.2709832 0.2711822 0.2713637 0.2715554
 0.271775 0.2720291 0.2723166 0.2726416 0.2730234 0.2734924 0.2740737 0.2747746 0.2755797 0.2764586
 0.2773826 0.2783434 0.279358 0.2804599 0.2816857 0.28306 0.2845836 0.2862248 0.2879197 0.2895797
 0.2911061 0.2924095 0.2934292 0.2941441 0.294567 0.2947251 0.2946449 0.2943542 0.2938858 0.293271
 0.2925346 0.2917001 0.2907917 0.2898234 0.2887929 0.2876936 0.2865352 0.2853467 0.2841583 0.2829824
 0.2818174 0.2806664 0.2795389 0.2784359 0.2773483 0.2762719 0.275214 0.2741849 0.2731934 0.2722481
 0.2713522 0.270493 0.2696351 0.2687217 0.2676893 0.2664924 0.2651138 0.263554 0.2618223 0.2599369
 0.2579237 0.2558103 0.2536213 0.2513741 0.249077 0.2467348 0.2443471 0.2419008 0.2393854 0.2368331
 0.2343257 0.2319448 0.2297254 0.2276561 0.2257045 0.2238416 0.2220572 0.2203556 0.2187372 0.2171963
 0.2157322 0.2143482 0.2130415 0.2118063 0.2106429 0.2095595 0.2085694 0.2076853 0.2069087 0.2062287
 0.2056338 0.2051163 0.2046756 0.2043308 0.2041118 0.2040078 0.2039404 0.2038069 0.2035488 0.2031784
 0.2027653 0.2024012 0.2021623 0.2020869 0.2021619 0.2023014 0.2023501 0.2021414 0.2015579 0.2005368
 0.199057 0.1971488 0.1949057 0.1924768 0.1900514 0.1878194 0.1859098 0.1843651 0.1831646 0.1822465
 0.1815235 0.1809282 0.1804627 0.1801946 0.1802012 0.1804837 0.1809011 0.1812287 0.1813485 0.1813726
 0.1815442 0.1820324 0.1828288 0.1837862 0.1847211 0.1855065 0.1860924 0.1864713 0.1866644 0.1867318
 0.1867416 0.1867237 0.1866733 0.1865719 0.1863838 0.18607 0.1856174 0.1850297 0.1843052 0.1834538
 0.1824998 0.1814483 0.1802882 0.1790213 0.1776425 0.1761295 0.1745351 0.1730701 0.1720355 0.1716607
 0.1719797 0.1728112 0.1738824 0.1750078 0.1761094 0.1770882 0.177828 0.178395 0.179121 0.180383
 0.1822838 0.1845441 0.1866949 0.1883755 0.1894509 0.1899175 0.1898217 0.1892544 0.1882894 0.1869301
 0.1851962 0.1831898 0.1810129 0.1787376 0.1764867 0.1744002 0.1725414 0.1709387 0.1696182 0.1685928
 0.1679283 0.1673462 0.1652614 0.1593425 0.1498348 0.1417035 0.140886 0.1478895 0.1570675 0.1626686
 0.1637134 0.1626192 0.1613927 0.1604607 0.1597403 0.1593063 0.1592251 0.1594013 0.1596136 0.1596194
 0.159306 0.1586866 0.1576477 0.1557029 0.1519715 0.1454963 0.1359567 0.1243227 0.1126448 0.1029626
 0.09629621 0.09243816 0.09039895 0.08909664 0.08797333 0.08718418 0.08723398 0.08845667 0.09082719 0.09412286
 0.09808688 0.1023938 0.1065852 0.1102097 0.1130615 0.1152019 0.1167501 0.1177531 0.1182446 0.1183014
 0.1180065 0.1174249 0.1166161 0.1156116 0.1143918 0.1129371 0.1113243 0.1097635 0.1085083 0.1076873
 0.1072263 0.1069594 0.106783 0.1066737 0.1066209 0.1066086 0.1066341 0.1067019 0.1068172 0.1069868
 0.1071963 0.107395 0.1075346 0.1076126 0.1076624 0.1077034 0.1077 0.1075827 0.1073393 0.1070511
 0.1067635 0.1063437 0.1055809 0.1044607 0.1032776 0.102451 0.1022352 0.1025659 0.1031336 0.1036139
 0.1038696 0.1039648 0.1040117 0.1040143</values></Ydata></ScSm><ScRf><Ydata ylabel="Single channel"><values byteorder="INTEL" format="FLOAT32" numvalues="1820"> 0.07050841 0.07064015 0.0707615 0.07087189 0.07097335 0.07107253 0.0711797 0.07130174 0.07143686 0.07157542
 0.07170568 0.07182167 0.07192448 0.07201573 0.07209652 0.0721761 0.07227219 0.07239532 0.07253654 0.07267252
 0.07278195 0.07286376 0.07294295 0.07304718 0.07316934 0.07326324 0.0732866 0.07324714 0.07320002 0.07319838
 0.07325755 0.07338012 0.07358783 0.07387079 0.07411493 0.07417424 0.07405132 0.07392497 0.07395066 0.07410365
 0.07425406 0.07431361 0.07426877 0.07416492 0.07412685 0.07432298 0.07481177 0.07541309 0.07576305 0.07552446
 0.07461092 0.07330896 0.07221204 0.07191171 0.07256957 0.07373605 0.07468708 0.07500967 0.07482683 0.074487
 0.0742015 0.07403839 0.07408262 0.07442223 0.07500165 0.07556319 0.07574604 0.07532182 0.07445408 0.07367213
 0.07343994 0.07379465 0.07450633 0.07535601 0.07593331 0.07543135 0.07336061 0.07063353 0.06928049 0.07057479
 0.07369941 0.07659584 0.07783788 0.07738677 0.07599626 0.07454862 0.0738197 0.07421164 0.07549085 0.07702053
 0.07826683 0.07893823 0.07884845 0.07800446 0.07678472 0.0757786 0.07545799 0.07604115 0.07740441 0.07894795
 0.07983586 0.07965529 0.07872447 0.07767823 0.07700123 0.07700769 0.0778642 0.07939197 0.0810824 0.08247537
 0.08339989 0.08387106 0.08397511 0.08385263 0.08363098 0.08340609 0.08333772 0.08356798 0.08394555 0.08405709
 0.0836879 0.0831129 0.08281769 0.08299672 0.08338577 0.08358093 0.08344033 0.08300537 0.08208464 0.08034863
 0.07800308 0.07589449 0.07468261 0.07437655 0.07487278 0.0762365 0.0780522 0.07922412 0.07907894 0.07827459
 0.0780894 0.07904173 0.08056634 0.08184063 0.08258276 0.0830972 0.08379451 0.08472545 0.08546272 0.08541675
 0.08443956 0.08319978 0.08273786 0.08345915 0.08473983 0.08569425 0.08610581 0.08639351 0.08687457 0.08730416
 0.08708873 0.08592033 0.08430945 0.08340687 0.08405492 0.08595298 0.08781429 0.0883379 0.08713223 0.08492748
 0.08296564 0.08210944 0.08250491 0.08393289 0.08611569 0.08858699 0.0906209 0.09159867 0.09143454 0.09055954
 0.0894524 0.08819291 0.08663117 0.0850838 0.08451883 0.08565052 0.08802019 0.09035959 0.09176153 0.09218566
 0.09194248 0.09107318 0.08942854 0.08731073 0.08576426 0.0858001 0.08724214 0.08877078 0.08932796 0.089109
 0.08895865 0.08921753 0.08953615 0.08958466 0.08954269 0.08984208 0.09061506 0.09152712 0.09213261 0.09228487
 0.09216852 0.0920386 0.09197852 0.0918508 0.09150903 0.09112509 0.09117512 0.0919365 0.09311377 0.09413598
 0.0947197 0.09497969 0.09507998 0.09495528 0.09442191 0.09353796 0.09277383 0.0926771 0.09334004 0.09433079
 0.09515274 0.09561437 0.09577609 0.09575871 0.09566297 0.09554714 0.09544238 0.09542066 0.09558041 0.09591475
 0.09627551 0.09652007 0.0966266 0.09663893 0.09657398 0.09642758 0.09623542 0.09608904 0.09607774 0.09621708
 0.09644702 0.09669331 0.09690068 0.0970203 0.09702325 0.09693956 0.09684093 0.09677481 0.09674513 0.09675281
 0.09681471 0.09693295 0.09707239 0.09718671 0.09725627 0.09728912 0.09729402 0.09727165 0.09723126 0.09719947
 0.09720646 0.09726526 0.09735924 0.09745421 0.09753755 0.09763519 0.09776501 0.09788791 0.09794295 0.09792432
 0.09788944 0.0978945 0.09794936 0.09803045 0.09810883 0.0981589 0.0981584 0.09810346 0.09803218 0.09801487
 0.09810169 0.09828609 0.09852588 0.09877773 0.0990015 0.09916613 0.09927456 0.0993612 0.09944959 0.09953086
 0.09959046 0.09963956 0.09971359 0.09984384 0.1000275 0.1002264 0.1004006 0.100536 0.1006404 0.1007336
 0.1008474 0.1009993 0.1011566 0.1012619 0.1013079 0.1013539 0.1014524 0.1015858 0.1016934 0.1017451
 0.1017694 0.1018155 0.1019013 0.1020044 0.1020977 0.1021822 0.102283 0.1024145 0.1025502 0.102635
 0.1026368 0.1025845 0.1025396 0.1025366 0.1025672 0.1026176 0.1026899 0.1027832 0.1028725 0.1029237
 0.1029273 0.1029094 0.1029043 0.1029173 0.1029229 0.1028975 0.1028446 0.102788 0.1027488 0.102732
 0.1027269 0.1027151 0.1026818 0.1026246 0.1025524 0.1024758 0.1023994 0.1023268 0.1022738 0.1022657
 0.1023027 0.1023333 0.1022842 0.1021287 0.1019161 0.1017257 0.1015979 0.1015137 0.1014269 0.1013076
 0.1011592 0.1010049 0.1008643 0.1007399 0.1006224 0.1005063 0.1004006 0.1003257 0.1002912 0.100275
 0.1002318 0.1001332 0.09999678 0.09986643 0.09977038 0.09970684 0.09966122 0.09962253 0.09958856 0.09956656
 0.09956422 0.09957392 0.09957533 0.09956012 0.09954342 0.09954837 0.09959 0.09967153 0.09977774 0.09987287
 0.09992678 0.09994908 0.09998165 0.1000538 0.1001589 0.1002759 0.1003974 0.1005286 0.1006722 0.100826
 0.1009908 0.1011726 0.1013758 0.1015967 0.1018247 0.102048 0.1022623 0.1024763 0.1027078 0.1029694
 0.1032561 0.1035479 0.103827 0.104093 0.1043597 0.1046375 0.1049228 0.1052082 0.1054981 0.1058042
 0.1061283 0.1064585 0.106784 0.1071049 0.107427 0.1077528 0.1080802 0.1084095 0.1087496 0.1091123
 0.1094927 0.1098599 0.1101813 0.1104559 0.1107184 0.1110081 0.1113399 0.1116971 0.112044 0.1123516
 0.1126226 0.1128898 0.1131807 0.1134896 0.113794 0.114094 0.114418 0.1147849 0.1151695 0.1155161
 0.1157892 0.1160084 0.1162262 0.1164727 0.1167306 0.1169671 0.1171781 0.1173891 0.1176185 0.11786
 0.1181039 0.1183569 0.1186281 0.1189076 0.1191723 0.1194095 0.1196234 0.1198209 0.1199991 0.1201476
 0.1202618 0.1203543 0.1204532 0.12058 0.120728 0.1208736 0.121008 0.1211465 0.1213057 0.1214868
 0.1216865 0.1219103 0.1221612 0.1224241 0.1226792 0.1229319 0.1232085 0.1235144 0.1238109 0.1240547
 0.1242481 0.1244307 0.12463 0.1248454 0.1250747 0.1253295 0.1256167 0.1259225 0.1262229 0.1265046
 0.1267761 0.1270615 0.1273756 0.1276987 0.1279864 0.1282124 0.1283953 0.1285792 0.1287956 0.1290495
 0.129327 0.1296099 0.1298825 0.1301302 0.1303352 0.1304827 0.1305774 0.1306452 0.1307053 0.1307425
 0.1307162 0.1305934 0.1303637 0.1300247 0.129568 0.1289894 0.1283129 0.1276008 0.1269415 0.1264249
 0.1261209 0.1260687 0.1262745 0.1267069 0.1272948 0.1279404 0.1285432 0.1290175 0.1292938 0.129322
 0.1290875 0.1286197 0.1279767 0.1272204 0.1264042 0.1255694 0.1247484 0.123981 0.1233434 0.1229575
 0.1229569 0.1234357 0.1244134 0.1258222 0.127507 0.1292585 0.1308871 0.1322931 0.1334783 0.1344968
 0.1354027 0.1362324 0.137011 0.1377544 0.1384656 0.1391384 0.139769 0.1403593 0.140909 0.1414079
 0.1418373 0.1421788 0.1424248 0.1425849 0.14268 0.1427304 0.1427506 0.1427549 0.1427515 0.1427237
 0.1426243 0.1424002 0.1420273 0.1415283 0.1409743 0.1404856 0.1402253 0.1403644 0.1410146 0.142158
 0.1436369 0.1452257 0.1467283 0.1480283 0.1490834 0.1499064 0.1505493 0.1510761 0.1515347 0.1519504
 0.1523386 0.1527113 0.1530756 0.1534328 0.1537819 0.1541236 0.1544635 0.1548084 0.1551574 0.1555011
 0.1558321 0.1561564 0.1564896 0.1568411 0.1572037 0.1575603 0.1579033 0.1582437 0.1585953 0.1589534
 0.1592988 0.1596224 0.1599344 0.1602512 0.1605804 0.1609201 0.1612616 0.1615931 0.1619055 0.1622004
 0.1624873 0.1627736 0.1630611 0.1633494 0.1636394 0.1639301 0.1642176 0.1644989 0.1647762 0.1650538
 0.1653311 0.1656018 0.1658612 0.1661126 0.1663637 0.1666188 0.1668761 0.167133 0.1673906 0.167653
 0.167922 0.1681948 0.1684658 0.1687299 0.168984 0.1692284 0.1694678 0.1697094 0.1699589 0.1702172
 0.1704794 0.170739 0.1709934 0.171246 0.1715017 0.1717623 0.1720251 0.1722852 0.1725378 0.1727803
 0.1730153 0.1732494 0.1734893 0.1737383 0.1739961 0.1742587 0.1745193 0.1747721 0.1750151 0.1752483
 0.1754731 0.175695 0.1759222 0.1761595 0.1764047 0.1766523 0.1768997 0.177147 0.1773952 0.1776434
 0.1778893 0.178132 0.1783745 0.1786196 0.1788663 0.1791112 0.179353 0.1795929 0.1798327 0.180073
 0.180313 0.1805516 0.1807901 0.1810305 0.1812711 0.1815075 0.1817394 0.1819721 0.1822093 0.1824498
 0.1826904 0.1829288 0.1831652 0.1834013 0.183639 0.1838781 0.1841171 0.1843548 0.1845909 0.1848256
 0.1850595 0.1852919 0.1855227 0.1857549 0.1859939 0.1862402 0.1864876 0.1867299 0.1869662 0.1872004
 0.187437 0.1876776 0.1879192 0.1881587 0.1883968 0.1886349 0.1888731 0.1891131 0.1893582 0.1896072
 0.1898535 0.190094 0.1903318 0.1905727 0.19082 0.1910737 0.1913309 0.191588 0.1918446 0.192101
 0.1923562 0.1926104 0.1928655 0.1931211 0.1933762 0.1936323 0.1938889 0.194141 0.1943844 0.194621
 0.1948535 0.1950826 0.1953094 0.1955355 0.1957619 0.195991 0.1962246 0.1964602 0.1966951 0.1969322
 0.1971748 0.1974209 0.1976681 0.1979173 0.1981675 0.1984154 0.1986616 0.1989097 0.1991621 0.1994199
 0.199683 0.1999461 0.2002047 0.200462 0.2007222 0.2009832 0.2012432 0.2015042 0.2017673 0.2020312
 0.2022977 0.202568 0.2028385 0.2031073 0.2033756 0.2036423 0.203907 0.2041745 0.2044474 0.2047219
 0.2049972 0.2052775 0.2055607 0.2058388 0.2061094 0.2063746 0.2066377 0.2069051 0.2071828 0.2074664
 0.2077486 0.2080293 0.2083099 0.208588 0.2088652 0.2091439 0.2094185 0.2096849 0.2099499 0.2102178
 0.2104834 0.210745 0.2110049 0.211255 0.2114748 0.2116165 0.2115486 0.2109917 0.2094822 0.2063819
 0.2010015 0.192873 0.182029 0.1690866 0.1550801 0.1411393 0.1281812 0.1167818 0.1072458 0.0997279
 0.09431832 0.09112006 0.09030951 0.09222049 0.0974582 0.1065403 0.1185762 0.1301287 0.1365047 0.1353125
 0.1286281 0.1211099 0.1162064 0.1144707 0.1147397 0.1158644 0.1173872 0.1194141 0.1222215 0.1258484
 0.1300524 0.1347074 0.1400357 0.1462652 0.1531836 0.1602137 0.1668947 0.173179 0.1792662 0.1852482
 0.1909691 0.1961743 0.2007064 0.2045591 0.2078295 0.2106583 0.2131738 0.2154598 0.2175671 0.2195218
 0.22129 0.2227613 0.2238113 0.2244019 0.2246284 0.224675 0.224712 0.2248231 0.2250198 0.2252955
 0.2256451 0.2260581 0.226523 0.2270319 0.2275715 0.228122 0.2286707 0.2292124 0.2297404 0.2302479
 0.2307309 0.2311855 0.2316099 0.2320109 0.232397 0.2327712 0.2331377 0.2335036 0.2338698 0.2342312
 0.2345844 0.2349272 0.2352542 0.2355632 0.2358586 0.2361433 0.2364171 0.2366832 0.2369471 0.2372088
 0.2374647 0.2377125 0.2379533 0.2381925 0.2384378 0.238689 0.2389376 0.2391799 0.2394209 0.2396635
 0.2399046 0.2401438 0.2403847 0.2406282 0.2408717 0.2411136 0.2413535 0.241592 0.2418316 0.242074
 0.2423204 0.242573 0.2428313 0.2430887 0.2433408 0.2435943 0.2438582 0.2441323 0.2444103 0.2446885
 0.2449671 0.2452491 0.2455381 0.2458303 0.2461108 0.2463652 0.2465934 0.2468085 0.2470261 0.2472559
 0.2474972 0.2477432 0.24799 0.2482385 0.2484888 0.2487388 0.2489871 0.2492333 0.2494769 0.2497223
 0.2499795 0.2502539 0.2505426 0.2508404 0.2511433 0.2514449 0.2517409 0.2520345 0.2523296 0.2526222
 0.252905 0.2531802 0.253463 0.2537705 0.2541047 0.2544477 0.2547771 0.2550873 0.2553903 0.2557011
 0.2560273 0.2563612 0.2566753 0.2569422 0.257174 0.2574257 0.2577443 0.2581241 0.25852 0.2588938
 0.2592365 0.2595588 0.2598719 0.2601765 0.2604637 0.2607251 0.2609691 0.2612296 0.2615453 0.2619188
 0.2623081 0.2626694 0.2629936 0.263294 0.2635832 0.2638685 0.2641413 0.2643632 0.2645053 0.2646178
 0.2648203 0.26519 0.2656773 0.2661575 0.2665545 0.2668867 0.2672022 0.2675156 0.2678163 0.2680805
 0.2682396 0.2682156 0.268063 0.2680196 0.2683131 0.2689316 0.2696519 0.2702668 0.270722 0.2710671
 0.2713636 0.2716428 0.271888 0.2720355 0.272043 0.2719921 0.2720772 0.2724292 0.2729665 0.2734836
 0.2738677 0.2741615 0.2744472 0.2747537 0.2750427 0.2751908 0.2750432 0.2746242 0.2742779 0.2744434
 0.2752312 0.276299 0.2771932 0.2777501 0.2781003 0.2783568 0.2784488 0.2782579 0.2777668 0.2770651
 0.2763951 0.2761947 0.2768109 0.2780547 0.2792764 0.2800171 0.2804042 0.2808257 0.2814281 0.2820506
 0.2824883 0.282675 0.2826569 0.2824798 0.2821656 0.28184 0.2818066 0.2823336 0.2833421 0.2844283
 0.2852404 0.2857544 0.2861101 0.2862009 0.2855714 0.2839575 0.2819893 0.2810288 0.281962 0.2842697
 0.2865907 0.2880653 0.2888048 0.2892573 0.2896222 0.2897942 0.2893484 0.2876781 0.2848203 0.2821812
 0.2816837 0.28387 0.2872928 0.28992 0.2906879 0.2897165 0.2877914 0.286002 0.2853544 0.2862229
 0.2881925 0.2904816 0.2924115 0.2935897 0.2939306 0.2936185 0.2930329 0.2926484 0.2927324 0.2929425
 0.2925428 0.2913612 0.2901264 0.2893484 0.2883834 0.2864832 0.2844576 0.284173 0.2862449 0.2891498
 0.2909941 0.2914554 0.2914414 0.2912567 0.2898589 0.286231 0.2812667 0.2777422 0.2779397 0.2813675
 0.2852463 0.2872391 0.2872995 0.286875 0.2868717 0.2866956 0.2851398 0.2820982 0.2792281 0.2784658
 0.2798538 0.2814718 0.2815587 0.2797397 0.2760978 0.2707419 0.2652779 0.2631027 0.2664047 0.2734427
 0.2800871 0.2833859 0.2824886 0.2774127 0.2693432 0.2619134 0.259575 0.26349 0.270171 0.2748594
 0.2752775 0.27172 0.265112 0.2566089 0.2486074 0.2444484 0.2462901 0.2533742 0.2621594 0.2678453
 0.2668281 0.2595962 0.2514504 0.2485072 0.2519473 0.2572396 0.2594693 0.2579589 0.2552417 0.2536079
 0.2538421 0.255655 0.2580125 0.2599512 0.2613213 0.2614202 0.2576285 0.2483053 0.2371021 0.2310285
 0.2332259 0.2404343 0.2483043 0.2557763 0.2626673 0.2665288 0.2652511 0.2612399 0.2598856 0.2638049
 0.2703471 0.2749835 0.2759043 0.2747545 0.273635 0.2725986 0.2706959 0.2686775 0.2690187 0.2728415
 0.2781539 0.2820088 0.2834575 0.2835472 0.2833425 0.2830308 0.2824662 0.2816126 0.2805084 0.2792849
 0.2781536 0.2771732 0.2762079 0.2752005 0.2740983 0.2722523 0.2684698 0.2625621 0.2566716 0.2537973
 0.2546479 0.2571913 0.2595735 0.2614632 0.2616193 0.2568874 0.2463225 0.2348824 0.2300182 0.2344711
 0.2440876 0.2524775 0.2560646 0.2545291 0.2486422 0.2399057 0.2320563 0.2304213 0.2378203 0.2516055
 0.2660261 0.2770852 0.2840716 0.2873375 0.2867506 0.28281 0.27793 0.2754938 0.2775289 0.2833694
 0.2901677 0.2942279 0.2926114 0.2855499 0.2780547 0.2768959 0.2838947 0.2935057 0.2989349 0.2992574
 0.2984398 0.2990431 0.3000242 0.300211 0.3007541 0.3031845 0.3068956 0.3096458 0.3095684 0.3059569
 0.2992582 0.2916192 0.2865486 0.2861415 0.2887652 0.2909329 0.2908853 0.2886242 0.2837157 0.2762417
 0.269553 0.2684768 0.2738297 0.2811801 0.2859012 0.2874839 0.2881073 0.2887203 0.287926 0.2843235
 0.2789918 0.2750239 0.2744958 0.2765109 0.2786824 0.2797199 0.2796308 0.2782242 0.275125 0.2713812
 0.2696072 0.2716591 0.2766454 0.281791 0.2849847 0.2860678 0.2860338 0.2857499 0.285493 0.2851032
 0.2844013 0.2837794 0.2842373 0.2863171 0.2891589 0.2912831 0.2923035 0.29325 0.2951223 0.297668
 0.299772 0.3006921 0.3007113 0.3007713 0.3016201 0.3031971 0.304697 0.3052824 0.3049082 0.3044701
 0.3050008 0.306688 0.3087998 0.3105218 0.3116375 0.3124205 0.3131763 0.3139795 0.3146365 0.3148482
 0.3146083 0.3144451 0.3150287 0.3164732 0.3181998 0.3195212 0.3202057 0.3204415 0.3204476 0.3202643
 0.3198616 0.3193134 0.3188043 0.3184905 0.3183897 0.3184093 0.3184469 0.3184496 0.3184161 0.3183842
 0.3184068 0.3185098 0.3186779 0.3188845 0.319111 0.3193265 0.3194891 0.319592 0.3196743 0.319759
 0.3198034 0.319731 0.3194851 0.3190326 0.3183381 0.3173611 0.3160692 0.3144297 0.3124128 0.3100847
 0.3077678 0.3060762 0.3056623 0.3068029 0.3091787 0.3120545 0.3146984 0.316698 0.3179988 0.3187473
 0.3191256 0.3192738 0.3192785 0.3191809 0.318995 0.318732 0.3184114 0.3180544 0.3176826 0.3173215
 0.3169934 0.3167036 0.3164355 0.3161567 0.3158315 0.3154348 0.3149622 0.3144242 0.3138279 0.3131653
 0.3124137 0.3115525 0.3105856 0.3095533 0.3085183 0.3075359 0.3066249 0.305761 0.3048956 0.3039775
 0.3029475 0.3017364 0.3003275 0.298842 0.2975065 0.2964783 0.2957081 0.2949988 0.2941766 0.2931826
 0.2920378 0.2907853 0.2894681 0.2881217 0.2867593 0.2853669 0.2839145 0.282372 0.2807238 0.2789752
 0.2771443 0.275251 0.2733158 0.2713555 0.2693573 0.2672501 0.2649035 0.2621602 0.2588771 0.2549565
 0.2503719 0.2451882 0.2395645 0.2337254 0.2279052 0.2223022 0.2170688 0.2123326 0.2082109 0.2048031
 0.2021776 0.2003716 0.1994044 0.1992859 0.2000113 0.2015476 0.2038212 0.2067128 0.2100628 0.213684
 0.2173752 0.220946 0.2242619 0.227289 0.2300827 0.2327107 0.2351831 0.2374548 0.2394816 0.2412547
 0.2427867 0.2440863 0.245158 0.2460207 0.246718 0.2473024 0.2478108 0.2482545 0.2486287 0.248928
 0.2491541 0.2493204 0.2494536 0.2495893 0.2497583 0.249975 0.2502412 0.2505597 0.2509419 0.2513998
 0.2519364 0.2525447 0.2532124 0.2539286 0.2546903 0.2555082 0.2564062 0.2574157 0.2585676 0.2598812
 0.2613566 0.2629659 0.264644 0.2662901 0.267789 0.2690459 0.2700099 0.2706756 0.2710662 0.2712124
 0.2711422 0.2708841 0.2704694 0.2699263 0.2692777 0.2685474 0.2677575 0.2669173 0.2660234 0.2650732
 0.2640773 0.2630588 0.2620423 0.2610431 0.2600672 0.2591216 0.2582133 0.2573379 0.2564803 0.2556342
 0.2548093 0.2540192 0.2532717 0.2525675 0.2518973 0.2512383 0.2505527 0.2497932 0.2489153 0.2478927
 0.2467171 0.2453854 0.2438981 0.2422694 0.2405239 0.2386794 0.2367415 0.2347138 0.2326059 0.230427
 0.2281728 0.2258277 0.223396 0.2209371 0.2185506 0.2163191 0.2142735 0.2124021 0.2106723 0.2090459
 0.2074933 0.2059988 0.2045539 0.2031574 0.2018196 0.2005526 0.1993611 0.1982484 0.19722 0.1962791
 0.1954274 0.1946712 0.1940158 0.19346 0.1929999 0.1926289 0.1923411 0.1921511 0.1920907 0.1921596
 0.1922912 0.1923904 0.1924005 0.1923298 0.1922297 0.1921524 0.1921196 0.1921262 0.1921543 0.1921591
 0.1920518 0.1917249 0.1910904 0.1900849 0.1886722 0.1868689 0.1847603 0.1824891 0.1802305 0.1781502
 0.1763562 0.174893 0.1737663 0.1729407 0.1723325 0.171857 0.1714945 0.1712979 0.1713413 0.1716383
 0.1720721 0.1724393 0.1726297 0.1727502 0.1730315 0.1736303 0.1745332 0.1755981 0.1766534 0.1775798
 0.1783296 0.1788942 0.1792896 0.1795588 0.1797378 0.1798203 0.1797841 0.1796277 0.1793609 0.1789934
 0.1785415 0.1780105 0.1773812 0.1766423 0.1758083 0.1748884 0.1738786 0.1727806 0.1715756 0.1702205
 0.1687501 0.1673673 0.1663772 0.1660221 0.1663511 0.1671947 0.1682874 0.1694493 0.1706106 0.1716805
 0.172541 0.1732399 0.1740816 0.1754276 0.1773914 0.1797223 0.1819767 0.1838039 0.1850637 0.1857358
 0.1858436 0.1854569 0.18463 0.1833403 0.1815877 0.1794928 0.1772184 0.1748974 0.1726735 0.1706754
 0.168951 0.1675148 0.1663763 0.1655368 0.1650605 0.1646692 0.1627718 0.1570247 0.1476502 0.1395828
 0.1387456 0.145673 0.1547731 0.1603308 0.1613604 0.1602513 0.1589983 0.1580423 0.1573197 0.1569062
 0.1568539 0.157055 0.1572906 0.15733 0.1570695 0.1565197 0.1555536 0.1536728 0.1499986 0.1435886
 0.134134 0.1226021 0.1110299 0.1014421 0.09484877 0.09103977 0.08903074 0.08775175 0.08665684 0.08590237
 0.08597973 0.08720806 0.08956377 0.0928416 0.09679846 0.1011052 0.1052903 0.1088968 0.1117284 0.1138631
 0.1154306 0.1164728 0.1170058 0.1170898 0.116804 0.1162248 0.1154274 0.1144514 0.1132762 0.1118795
 0.1103378 0.1088578 0.1076821 0.1069279 0.1065215 0.1063087 0.1061989 0.1061754 0.1062273 0.1063322
 0.1064769 0.1066612 0.1068999 0.1072184 0.1076082 0.1079985 0.1083032 0.1084869 0.1085692 0.108574
 0.1084811 0.1082426 0.1078714 0.1074679 0.1070793 0.1065587 0.1056831 0.1044434 0.1031539 0.1022493
 0.1019844 0.1022835 0.1028254 0.1032804 0.1035108 0.1035801 0.1035987 0.1035707 0.1033803 0.1029231
</values></Ydata></ScRf><Data_Parameters_AB><parameter name="DPF">1</parameter><parameter name="NPT">3497</parameter><parameter name="FXV">3996</parameter><parameter name="LXV">500</parameter><parameter name="CSF">1</parameter><parameter name="MXY">0.0338719487190247</parameter><parameter name="MNY">-0.111388221383095</parameter><parameter name="DAT">18/01/2024</parameter><parameter name="TIM">12:16:03.456 (GMT+1)</parameter><parameter name="DXU">WN</parameter></Data_Parameters_AB><AB__Qtest><MainReport name="Quality Test Report"><Header><Line><Legend>Test result ok/not ok [1/0]: </Legend><Value>0</Value></Line><Line><Legend>Method file: </Legend><Value>C:\Users\Public\Documents\Bruker\OPUS_8.2.28\QT\IRBT_v3_default.QT</Value></Line></Header><Matrix><Line><Legend></Legend><Legend>min</Legend><Legend>max</Legend><Legend>measured</Legend></Line><Line><Value>Absorption (X-Range 1):</Value><Value>0.400000</Value><Value>2.000000</Value><Value>0.119843</Value></Line><Line><Value>Noise (X-Range 4):</Value><Value></Value><Value>0.000300</Value><Value>0.000019</Value></Line><Line><Value>Signal/Noise (X-Range 2):</Value><Value>200.000000</Value><Value></Value><Value>126.281795</Value></Line><Line><Value>Signal/Noise (X-Range 3):</Value><Value>40.000000</Value><Value></Value><Value>20.183262</Value></Line><Line><Value>Water vapour (X-Range 5):</Value><Value></Value><Value>0.000300</Value><Value>0.000011</Value></Line><Line><Value>Signal/Water (X-Range 2):</Value><Value>100.000000</Value><Value></Value><Value>216.876068</Value></Line><Line><Value>Signal/Water (X-Range 3):</Value><Value>20.000000</Value><Value></Value><Value>34.662688</Value></Line><Line><Value>Fringes (X-Range 6):</Value><Value></Value><Value>0.000100</Value><Value>0.000027</Value></Line></Matrix></MainReport></AB__Qtest><Data_Parameters_ScSm><parameter name="DPF">1</parameter><parameter name="NPT">1814</parameter><parameter name="FXV">3996.63438082617</parameter><parameter name="LXV">499.579297603271</parameter><parameter name="CSF">1</parameter><parameter name="MXY">0.354901611804962</parameter><parameter name="MNY">0.0871841758489609</parameter><parameter name="DAT">18/01/2024</parameter><parameter name="TIM">12:16:03.456 (GMT+1)</parameter><parameter name="DXU">WN</parameter></Data_Parameters_ScSm><Data_Parameters_ScRf><parameter name="DPF">1</parameter><parameter name="NPT">1820</parameter><parameter name="FXV">4004.34989121387</parameter><parameter name="LXV">495.721542409425</parameter><parameter name="CSF">1</parameter><parameter name="MXY">0.320447623729706</parameter><parameter name="MNY">0.0692804902791977</parameter><parameter name="DAT">18/01/2024</parameter><parameter name="TIM">12:15:36.361 (GMT+1)</parameter><parameter name="DXU">WN</parameter></Data_Parameters_ScRf><Optic_Parameters_Rf><parameter name="APR">0</parameter><parameter name="APT">Open</parameter><parameter name="BMS">KBr</parameter><parameter name="DTC">RT-DLaTGS_IR-Biotyper [Microplate reader]</parameter><parameter name="HPF">0</parameter><parameter name="LPF">10.0</parameter><parameter name="LPV">4000</parameter><parameter name="PGR">0</parameter><parameter name="RCH">Module port</parameter><parameter name="RDX">0</parameter><parameter name="SRC">MIR</parameter><parameter name="VEL">10.0</parameter><parameter name="SON">Off</parameter></Optic_Parameters_Rf><Acquisition_Parameters_Rf><parameter name="ADT">1</parameter><parameter name="AQM">DD</parameter><parameter name="CFE">0</parameter><parameter name="COR">0</parameter><parameter name="DEL">0</parameter><parameter name="DLY">0</parameter><parameter name="HFW">8000</parameter><parameter name="LFW">0</parameter><parameter name="NSR">32</parameter><parameter name="PLF">AB</parameter><parameter name="RES">6</parameter><parameter name="RGN">-1</parameter><parameter name="STR">0</parameter><parameter name="TCL">MakeCompatibleScalar (0, {WSV=1.000000, ARV=0});</parameter><parameter name="TDL">37</parameter><parameter name="RPO">0</parameter></Acquisition_Parameters_Rf><FT_-_Parameters_Rf><parameter name="APF">B3</parameter><parameter name="HFQ">500</parameter><parameter name="LFQ">4000</parameter><parameter name="NLI">0</parameter><parameter name="PHR">24</parameter><parameter name="PHZ">ML</parameter><parameter name="SPZ">NO</parameter><parameter name="ZFF">1</parameter></FT_-_Parameters_Rf><Optic_Parameters_><parameter name="APR">0</parameter><parameter name="APT">Open</parameter><parameter name="BMS">KBr</parameter><parameter name="CHN">Module port</parameter><parameter name="DTC">RT-DLaTGS_IR-Biotyper [Microplate reader]</parameter><parameter name="HPF">0</parameter><parameter name="LPF">10.0</parameter><parameter name="LPV">4000</parameter><parameter name="PGN">0</parameter><parameter name="RDX">0</parameter><parameter name="SRC">MIR</parameter><parameter name="VEL">10.0</parameter><parameter name="SON">Off</parameter></Optic_Parameters_><FT_-_Parameters_><parameter name="APF">B3</parameter><parameter name="HFQ">500</parameter><parameter name="LFQ">4000</parameter><parameter name="NLI">0</parameter><parameter name="PHR">24</parameter><parameter name="PHZ">ML</parameter><parameter name="SPZ">NO</parameter><parameter name="ZFF">1</parameter></FT_-_Parameters_><Acquisition_Parameters_><parameter name="ADT">1</parameter><parameter name="AQM">DD</parameter><parameter name="CFE">0</parameter><parameter name="COR">0</parameter><parameter name="DEL">0</parameter><parameter name="DLY">0</parameter><parameter name="HFW">8000</parameter><parameter name="LFW">0</parameter><parameter name="NSS">32</parameter><parameter name="PLF">AB</parameter><parameter name="RES">6</parameter><parameter name="SOT">0</parameter><parameter name="TCL">MakeCompatibleScalar (0, {WSV=1.000000, ARV=0});</parameter><parameter name="TDL">37</parameter><parameter name="SPO">0</parameter><parameter name="SGN">-1</parameter></Acquisition_Parameters_><Instrument_Parameters_Rf><parameter name="HFL">15801.365274</parameter><parameter name="LFL">0</parameter><parameter name="LWN">15801.365274</parameter><parameter name="ABP">32157</parameter><parameter name="SSP">1</parameter><parameter name="ARG">2</parameter><parameter name="ASG">2</parameter><parameter name="ASS">32</parameter><parameter name="GFW">16</parameter><parameter name="GBW">16</parameter><parameter name="BFW">0</parameter><parameter name="BBW">0</parameter><parameter name="PKA">9307</parameter><parameter name="PKL">4987</parameter><parameter name="PRA">9278</parameter><parameter name="PRL">5010</parameter><parameter name="P2A">1</parameter><parameter name="P2L">1</parameter><parameter name="P2R">1</parameter><parameter name="P2K">1</parameter><parameter name="DAQ">0</parameter><parameter name="AG2">1</parameter><parameter name="SSM">1</parameter><parameter name="RSN">46680</parameter><parameter name="CRR">0</parameter><parameter name="SRT">1705580136.362</parameter><parameter name="DUR">19.6449890136719</parameter><parameter name="TSC">31</parameter><parameter name="MVD">0.290757656097412</parameter><parameter name="AN1">0.22602563368101</parameter><parameter name="AN2">0</parameter><parameter name="VSN">2.485 Apr  4 2017</parameter><parameter name="SRN">0085</parameter><parameter name="CAM">0</parameter><parameter name="INS">IR-Biotyper</parameter><parameter name="FOC">69</parameter><parameter name="RDY">1</parameter><parameter name="ARS">32</parameter></Instrument_Parameters_Rf><Sample_Parameters_><parameter name="BLD"></parameter><parameter name="CNM">Admin</parameter><parameter name="CPY"></parameter><parameter name="DPM"></parameter><parameter name="EXP">IRBT_v3_32Scans.XPM</parameter><parameter name="LCT"></parameter><parameter name="SFM">Microplate, HTS-XT</parameter><parameter name="SNM">240118-1045-Cdiff_SCFA_2_C35_232129045_C12_9dad624f-2835-4504-9b36-9a72dc6131bc.0</parameter><parameter name="XPP">C:\Users\Public\Documents\Bruker\OPUS_8.2.28\XPM</parameter><parameter name="IST">OK</parameter><parameter name="CPG">1252</parameter><parameter name="UID">d4e490e4-9b1b-48ee-99cc-e842ce44ab5e</parameter></Sample_Parameters_><Instrument_Parameters_><parameter name="HFL">15801.365274</parameter><parameter name="LFL">0</parameter><parameter name="LWN">15801.365274</parameter><parameter name="ABP">32157</parameter><parameter name="SSP">1</parameter><parameter name="ASG">2</parameter><parameter name="ARG">2</parameter><parameter name="ASS">32</parameter><parameter name="GFW">16</parameter><parameter name="GBW">16</parameter><parameter name="BFW">0</parameter><parameter name="BBW">0</parameter><parameter name="PKA">10722</parameter><parameter name="PKL">4987</parameter><parameter name="PRA">10736</parameter><parameter name="PRL">5010</parameter><parameter name="P2A">1</parameter><parameter name="P2L">1</parameter><parameter name="P2R">1</parameter><parameter name="P2K">1</parameter><parameter name="DAQ">0</parameter><parameter name="AG2">1</parameter><parameter name="SSM">1</parameter><parameter name="RSN">24033</parameter><parameter name="CRR">0</parameter><parameter name="SRT">1705580163.456</parameter><parameter name="DUR">19.6449890136719</parameter><parameter name="TSC">31</parameter><parameter name="MVD">1.21489095687866</parameter><parameter name="AN1">0.22602179419185</parameter><parameter name="AN2">0</parameter><parameter name="VSN">2.485 Apr  4 2017</parameter><parameter name="SRN">0085</parameter><parameter name="CAM">0</parameter><parameter name="INS">IR-Biotyper</parameter><parameter name="FOC">69</parameter><parameter name="RDY">1</parameter></Instrument_Parameters_><History/></OPUSDataFile>
