<?xml version="1.0" encoding="UTF-8" ?>
<OPUSDataFile><AB><Ydata ylabel="Absorbance Units"><values byteorder="INTEL" format="FLOAT32" numvalues="3497"> -0.05226654 -0.05224897 -0.05224244 -0.05224557 -0.05225487 -0.05226812 -0.05227878 -0.05228596 -0.05228533 -0.05227756
 -0.05226137 -0.0522389 -0.05221055 -0.05218041 -0.05214981 -0.05212438 -0.05210626 -0.05209899 -0.05210448 -0.05211977
 -0.05214529 -0.05217312 -0.05220265 -0.05222769 -0.05224794 -0.05226117 -0.0522675 -0.05226724 -0.05226085 -0.05225079
 -0.05223782 -0.05222633 -0.05221532 -0.05220572 -0.05219385 -0.05217386 -0.05214513 -0.05210213 -0.05205387 -0.0520035
 -0.05196356 -0.05194286 -0.05194184 -0.05196518 -0.05199822 -0.05203885 -0.0520736 -0.05209927 -0.05211639 -0.05212442
 -0.0521308 -0.0521358 -0.05214 -0.05214294 -0.05213947 -0.05213005 -0.05211407 -0.05209325 -0.05207329 -0.05205463
 -0.05204169 -0.05203232 -0.0520251 -0.05201814 -0.05200824 -0.05199631 -0.05198162 -0.05196662 -0.05195246 -0.05194038
 -0.05193117 -0.0519249 -0.05192179 -0.05192128 -0.05192346 -0.05192663 -0.05193071 -0.05193349 -0.05193487 -0.05193485
 -0.05193354 -0.05193215 -0.05193055 -0.05192862 -0.05192616 -0.0519221 -0.05191704 -0.05191194 -0.05190714 -0.0519042
 -0.05190152 -0.05189818 -0.05189225 -0.05188122 -0.0518667 -0.05184826 -0.05182983 -0.05181291 -0.05179917 -0.0517896
 -0.05178291 -0.0517791 -0.05177659 -0.05177528 -0.05177345 -0.051771 -0.05176599 -0.05175848 -0.05174902 -0.05173788
 -0.05172701 -0.05171628 -0.05170628 -0.05169663 -0.05168616 -0.05167586 -0.05166649 -0.05165969 -0.05165812 -0.05166122
 -0.05167025 -0.05168159 -0.05169415 -0.05170344 -0.05170746 -0.05170422 -0.05169228 -0.05167433 -0.05165004 -0.05162625
 -0.05160343 -0.05158871 -0.05158248 -0.05158838 -0.05160622 -0.05163461 -0.05167248 -0.05171366 -0.05175567 -0.05178655
 -0.05180417 -0.05179546 -0.05176502 -0.05171229 -0.0516481 -0.05158551 -0.05152922 -0.05148847 -0.05146016 -0.05144499
 -0.05143982 -0.05144337 -0.0514548 -0.0514744 -0.05149785 -0.0515254 -0.05154671 -0.05156071 -0.05156061 -0.05154591
 -0.05152224 -0.05149028 -0.05146152 -0.05143578 -0.05141801 -0.05140656 -0.05139789 -0.05139073 -0.05137948 -0.05136548
 -0.05134785 -0.05132988 -0.05131551 -0.05130571 -0.05130403 -0.05130563 -0.05130951 -0.05130909 -0.05130034 -0.05128501
 -0.05126127 -0.05123992 -0.05122246 -0.05121695 -0.05122504 -0.05124227 -0.05126856 -0.05129023 -0.05130678 -0.0513078
 -0.05129455 -0.05126935 -0.05123449 -0.05120013 -0.0511667 -0.05114117 -0.05112099 -0.05110522 -0.05109071 -0.05107296
 -0.05105122 -0.05102241 -0.05099005 -0.05095479 -0.05092137 -0.05089212 -0.05086849 -0.05085187 -0.0508394 -0.05083074
 -0.05082379 -0.05081818 -0.05081439 -0.05081245 -0.05081126 -0.05081067 -0.05080764 -0.05080266 -0.05079702 -0.0507921
 -0.05079482 -0.05080428 -0.05082321 -0.05084628 -0.05086563 -0.05087656 -0.05086814 -0.05084436 -0.05080293 -0.0507546
 -0.05070524 -0.05066124 -0.05062766 -0.05060226 -0.0505855 -0.05057401 -0.05056687 -0.05056494 -0.05056825 -0.05057747
 -0.05059271 -0.05061035 -0.05063017 -0.0506478 -0.05066347 -0.05067708 -0.05068824 -0.05069594 -0.05069827 -0.05068908
 -0.05066881 -0.05063344 -0.05058957 -0.05054319 -0.05050126 -0.0504733 -0.05045822 -0.0504597 -0.05046924 -0.05048476
 -0.05049772 -0.05050472 -0.0505042 -0.05049476 -0.05048084 -0.05046279 -0.05044386 -0.05042433 -0.05040392 -0.05038258
 -0.050359 -0.05033335 -0.05030606 -0.05027765 -0.05025036 -0.05022473 -0.05020335 -0.05018642 -0.05017585 -0.0501705
 -0.05017043 -0.0501725 -0.0501741 -0.05017267 -0.05016504 -0.05015322 -0.05013675 -0.05012001 -0.05010466 -0.05009091
 -0.05007962 -0.05006626 -0.05005031 -0.05002934 -0.05000303 -0.04997437 -0.04994359 -0.04991578 -0.04989085 -0.04987093
 -0.04985519 -0.04984142 -0.04982876 -0.04981355 -0.04979583 -0.04977381 -0.04974821 -0.04971943 -0.0496875 -0.04965235
 -0.04961468 -0.04957407 -0.04953413 -0.04949609 -0.04946345 -0.04943836 -0.04941812 -0.04940316 -0.04938653 -0.04936716
 -0.04934304 -0.04931378 -0.04928458 -0.04925558 -0.04922875 -0.04920336 -0.0491741 -0.04914047 -0.04909698 -0.04904487
 -0.04898433 -0.04891776 -0.04884942 -0.04878194 -0.04872058 -0.04866677 -0.04862412 -0.04859141 -0.04856958 -0.0485547
 -0.04854587 -0.04853791 -0.04852967 -0.04851519 -0.04849335 -0.04845887 -0.04841058 -0.04834925 -0.04827461 -0.04819553
 -0.04811252 -0.04803568 -0.04796517 -0.04790687 -0.04786023 -0.04782652 -0.04780395 -0.0477886 -0.04777767 -0.047764
 -0.0477454 -0.04771564 -0.04767472 -0.04761987 -0.04755368 -0.04747592 -0.04739268 -0.04730609 -0.04722251 -0.04714483
 -0.04707408 -0.04701161 -0.04695284 -0.04689742 -0.04684132 -0.04678412 -0.0467265 -0.04666852 -0.04661233 -0.04655762
 -0.04650273 -0.04644691 -0.04638543 -0.04631872 -0.04624504 -0.04616665 -0.04608716 -0.04600845 -0.04593544 -0.04586655
 -0.04580246 -0.04573992 -0.04567645 -0.04561177 -0.04554457 -0.04547758 -0.04541165 -0.04534748 -0.04528576 -0.04522376
 -0.04516108 -0.04509696 -0.04503124 -0.04496611 -0.04490165 -0.04483816 -0.0447754 -0.04471084 -0.04464494 -0.04457817
 -0.04451203 -0.04445193 -0.04439741 -0.04435131 -0.04430974 -0.04426861 -0.04422419 -0.04417019 -0.04410819 -0.04403621
 -0.04396049 -0.04388361 -0.0438093 -0.04374016 -0.04367372 -0.04361023 -0.04354524 -0.04347798 -0.04340755 -0.04333377
 -0.04325778 -0.04317962 -0.0430993 -0.04301687 -0.04293254 -0.04284677 -0.04276209 -0.04267863 -0.0425984 -0.04252066
 -0.04244469 -0.04237031 -0.04229655 -0.04222454 -0.04215517 -0.042089 -0.04202725 -0.04196819 -0.04191152 -0.04185487
 -0.04179741 -0.04173763 -0.04167503 -0.04160879 -0.04153863 -0.04146489 -0.04138743 -0.0413097 -0.04123187 -0.04115766
 -0.04108689 -0.04101948 -0.0409549 -0.04089011 -0.04082553 -0.04076071 -0.04069649 -0.04063512 -0.04057542 -0.04051739
 -0.04045767 -0.0403925 -0.04032045 -0.0402384 -0.04014934 -0.04005337 -0.03995524 -0.03985642 -0.03976064 -0.0396687
 -0.03958451 -0.0395086 -0.03944486 -0.03939388 -0.03935402 -0.03932511 -0.03929761 -0.03927096 -0.03923548 -0.03919194
 -0.0391391 -0.03907853 -0.03901501 -0.03894871 -0.03888256 -0.03881549 -0.03874686 -0.03867651 -0.03860352 -0.03852953
 -0.03845512 -0.03838268 -0.03831321 -0.0382495 -0.03819293 -0.03814408 -0.03810429 -0.0380677 -0.03803441 -0.03799312
 -0.03794274 -0.03787736 -0.03779677 -0.03770799 -0.03761195 -0.03752206 -0.03743815 -0.03736718 -0.03730681 -0.03725321
 -0.03720397 -0.03715108 -0.0370952 -0.03703263 -0.03696827 -0.03690554 -0.03684972 -0.03680702 -0.03677624 -0.0367603
 -0.03674979 -0.03674276 -0.03672914 -0.0367055 -0.03667005 -0.03662124 -0.03656592 -0.03650445 -0.0364442 -0.03638555
 -0.03632986 -0.03627678 -0.03622244 -0.03616686 -0.03610767 -0.03604634 -0.03598658 -0.03592987 -0.03588221 -0.03584228
 -0.03581169 -0.03578595 -0.03576095 -0.03573267 -0.03569606 -0.03565138 -0.03559656 -0.03553607 -0.03547074 -0.03540545
 -0.03534168 -0.03528158 -0.03522587 -0.03517398 -0.0351259 -0.03508187 -0.03504191 -0.03500684 -0.03497645 -0.03494842
 -0.03492195 -0.03489079 -0.03485493 -0.03481061 -0.03475944 -0.03470321 -0.03464341 -0.03458346 -0.03452348 -0.03446459
 -0.03440747 -0.03435256 -0.03430165 -0.03425615 -0.03421583 -0.03418159 -0.03414989 -0.03412028 -0.03408841 -0.03405336
 -0.03401344 -0.03396811 -0.03392034 -0.03387026 -0.03382479 -0.03378414 -0.03375323 -0.03373105 -0.0337141 -0.03370065
 -0.03368186 -0.03365852 -0.0336272 -0.03359162 -0.0335567 -0.03352448 -0.03350043 -0.03348165 -0.03346798 -0.03345547
 -0.03344138 -0.03342525 -0.03340582 -0.03338569 -0.03336555 -0.03334593 -0.03332736 -0.03330722 -0.03328537 -0.03325868
 -0.03322695 -0.03319075 -0.03315036 -0.03311031 -0.0330708 -0.03303581 -0.0330045 -0.03297606 -0.03294898 -0.03291879
 -0.03288539 -0.03284571 -0.03280262 -0.0327578 -0.03271506 -0.03267857 -0.03264881 -0.03262844 -0.03261219 -0.0325994
 -0.03258254 -0.0325593 -0.03252605 -0.03248123 -0.03242783 -0.03236566 -0.03230184 -0.03223673 -0.03217741 -0.03212403
 -0.03208025 -0.03204564 -0.03201941 -0.03200066 -0.03198558 -0.03197348 -0.03196068 -0.03194706 -0.03193095 -0.03191184
 -0.03188885 -0.03186043 -0.03182485 -0.03178174 -0.03172951 -0.03167172 -0.03160866 -0.0315463 -0.03148652 -0.03143179
 -0.03138341 -0.03133811 -0.03129579 -0.03125234 -0.03120746 -0.03116093 -0.03111283 -0.03106497 -0.03101722 -0.03096975
 -0.03092211 -0.03087246 -0.03082086 -0.03076624 -0.03070966 -0.03065231 -0.03059561 -0.03054172 -0.03049174 -0.03044764
 -0.03040887 -0.03037615 -0.03034692 -0.03032063 -0.03029408 -0.03026601 -0.030236 -0.03020319 -0.03017195 -0.03014232
 -0.03012196 -0.03011138 -0.03011565 -0.03013468 -0.0301668 -0.03021104 -0.03025974 -0.03031235 -0.03036217 -0.03041021
 -0.03045561 -0.03049967 -0.03054487 -0.03059067 -0.03063817 -0.03068436 -0.03072693 -0.03076395 -0.03079248 -0.03081587
 -0.03083345 -0.03085401 -0.03087941 -0.030918 -0.03097216 -0.03104283 -0.03113095 -0.03122981 -0.03133912 -0.03145006
 -0.03156229 -0.03166967 -0.03177219 -0.0318666 -0.03195328 -0.03203181 -0.03210308 -0.03216916 -0.03223094 -0.03229096
 -0.03234987 -0.03240919 -0.0324702 -0.03253431 -0.03260299 -0.03267811 -0.03275836 -0.03284468 -0.03293127 -0.03301708
 -0.03309579 -0.03316577 -0.03322506 -0.03327294 -0.03331199 -0.03334226 -0.0333682 -0.03339005 -0.03341265 -0.0334361
 -0.03346368 -0.0334949 -0.03352955 -0.03356681 -0.03360412 -0.03364137 -0.033677 -0.03371171 -0.03374584 -0.03377993
 -0.03381455 -0.03385017 -0.03388728 -0.03392599 -0.03396679 -0.03400839 -0.03405089 -0.03409139 -0.03412926 -0.03416305
 -0.03419227 -0.03421878 -0.03424262 -0.03426714 -0.03429248 -0.03432034 -0.03435069 -0.03438409 -0.03442039 -0.03445962
 -0.03450081 -0.03454183 -0.03458063 -0.03461199 -0.03463526 -0.03464598 -0.03464857 -0.03464428 -0.03464083 -0.03464397
 -0.03465687 -0.03468398 -0.03471914 -0.03476202 -0.03480422 -0.03484319 -0.034879 -0.03491075 -0.03494583 -0.0349848
 -0.03503152 -0.03508591 -0.03514329 -0.03520307 -0.03525808 -0.03530871 -0.03535254 -0.03539101 -0.0354269 -0.0354616
 -0.0354995 -0.03554058 -0.03558746 -0.03563716 -0.0356885 -0.03573685 -0.03577827 -0.03581202 -0.0358354 -0.03585453
 -0.0358703 -0.03588972 -0.03591507 -0.03594622 -0.03598401 -0.03602147 -0.03605815 -0.03608897 -0.03611388 -0.03613514
 -0.03615334 -0.03617486 -0.03619954 -0.0362305 -0.03626596 -0.03630232 -0.03633788 -0.03636681 -0.03639024 -0.03640657
 -0.03641949 -0.03643228 -0.03644679 -0.03646617 -0.03648768 -0.03651118 -0.0365328 -0.03655095 -0.03656469 -0.03657307
 -0.03657909 -0.03658279 -0.03658856 -0.03659668 -0.03661123 -0.03663231 -0.03666011 -0.03669387 -0.03672659 -0.03675715
 -0.03677551 -0.03678277 -0.03677578 -0.03675898 -0.03673975 -0.03672213 -0.03671619 -0.03672055 -0.03673903 -0.0367647
 -0.03679442 -0.03682147 -0.03684118 -0.03685259 -0.03685351 -0.03684883 -0.03683893 -0.03682951 -0.03682158 -0.0368171
 -0.03681644 -0.03681788 -0.03682132 -0.03682439 -0.03682709 -0.03682857 -0.03682891 -0.03682805 -0.03682591 -0.03682222
 -0.03681688 -0.03680954 -0.03680014 -0.03678848 -0.03677441 -0.03675778 -0.03673828 -0.03671538 -0.0366898 -0.03666112
 -0.03663248 -0.03660415 -0.03658141 -0.03656537 -0.03656 -0.03656631 -0.03658388 -0.03661297 -0.03664928 -0.03669256
 -0.03673658 -0.03678095 -0.03681944 -0.03685198 -0.03687433 -0.03688769 -0.03689298 -0.03689288 -0.03689363 -0.03689716
 -0.03690994 -0.03693018 -0.0369592 -0.03699244 -0.03702721 -0.03705967 -0.03708717 -0.03710802 -0.03712095 -0.03712585
 -0.03712196 -0.03711264 -0.03709773 -0.0370848 -0.03707445 -0.03707324 -0.03708147 -0.03709867 -0.03712433 -0.03715233
 -0.03718262 -0.03721163 -0.03724017 -0.03726944 -0.03729936 -0.03733094 -0.0373623 -0.03739095 -0.03741564 -0.03743327
 -0.03744595 -0.03745371 -0.03746041 -0.03746826 -0.0374787 -0.03749327 -0.03750966 -0.03752781 -0.03754469 -0.03755984
 -0.03757137 -0.03757917 -0.03758085 -0.03757628 -0.0375621 -0.03753846 -0.03750519 -0.03746373 -0.03742146 -0.03738048
 -0.03735226 -0.03733649 -0.03733938 -0.0373564 -0.03738388 -0.0374161 -0.03744506 -0.03746841 -0.03748115 -0.03748526
 -0.03748044 -0.03746889 -0.03745166 -0.03742867 -0.03740035 -0.03736461 -0.03732114 -0.03726876 -0.03720722 -0.0371376
 -0.03705994 -0.03697798 -0.03689178 -0.03680383 -0.03671343 -0.03661809 -0.03651669 -0.03640338 -0.03627874 -0.03614032
 -0.03599122 -0.03583528 -0.03567486 -0.03551494 -0.03535374 -0.03519227 -0.03502603 -0.03485263 -0.03466998 -0.03447602
 -0.03427353 -0.03406215 -0.03384796 -0.03363164 -0.03341901 -0.03321072 -0.03300998 -0.03281698 -0.0326325 -0.0324566
 -0.03228972 -0.03213245 -0.03198818 -0.03185808 -0.0317484 -0.03165936 -0.03159538 -0.03155412 -0.03153449 -0.03153217
 -0.03154213 -0.03156049 -0.03158319 -0.0316062 -0.03162761 -0.03164028 -0.03164228 -0.03162419 -0.03158302 -0.03151453
 -0.03141659 -0.0312953 -0.03115064 -0.03099319 -0.03082357 -0.03064738 -0.03046458 -0.03027501 -0.03007917 -0.02987929
 -0.0296777 -0.0294838 -0.02930029 -0.02913864 -0.02899948 -0.02888908 -0.0288066 -0.0287525 -0.02872871 -0.02873537
 -0.02877899 -0.02886298 -0.02899249 -0.02917175 -0.02939647 -0.02966803 -0.02997281 -0.03030932 -0.03066394 -0.03103518
 -0.03141423 -0.03180053 -0.03218444 -0.03256506 -0.03292774 -0.03327146 -0.03358176 -0.03385982 -0.03410127 -0.03431018
 -0.03449373 -0.03465667 -0.03481067 -0.03495765 -0.03510521 -0.03525117 -0.0353969 -0.03553766 -0.03567108 -0.03579419
 -0.03590465 -0.03600405 -0.03609186 -0.0361725 -0.03624671 -0.03631691 -0.03638359 -0.03644613 -0.03650454 -0.03655718
 -0.03660397 -0.0366441 -0.03667733 -0.03670192 -0.03671725 -0.03671989 -0.03670967 -0.03668368 -0.03664401 -0.03659185
 -0.03653205 -0.03647023 -0.03641199 -0.03636391 -0.03632907 -0.03631188 -0.03631014 -0.03632507 -0.03634968 -0.03638325
 -0.03641586 -0.03644624 -0.03646361 -0.03646678 -0.03644732 -0.03640452 -0.03633762 -0.03624731 -0.03614503 -0.03603345
 -0.03593555 -0.03585504 -0.03581874 -0.0358286 -0.03590456 -0.03604328 -0.0362507 -0.03651534 -0.03682844 -0.03717172
 -0.03752846 -0.037881 -0.03821393 -0.03851967 -0.03879007 -0.03902986 -0.03923792 -0.03942386 -0.03958939 -0.03973999
 -0.03987672 -0.03999932 -0.04010784 -0.04020116 -0.04027939 -0.04034467 -0.04039763 -0.04044374 -0.04048365 -0.04052308
 -0.04056193 -0.04060292 -0.04064534 -0.04068922 -0.04073368 -0.04077766 -0.04082036 -0.04086109 -0.04089829 -0.04093085
 -0.04095777 -0.04097764 -0.04099327 -0.04100444 -0.04101745 -0.04103364 -0.04105606 -0.04108574 -0.04111811 -0.04115302
 -0.04118211 -0.04120521 -0.04121976 -0.04122667 -0.04123181 -0.04123604 -0.04124674 -0.04126281 -0.04128576 -0.04131261
 -0.04133846 -0.04136141 -0.04137617 -0.04138454 -0.04138552 -0.04138356 -0.04138124 -0.04138121 -0.04138597 -0.04139354
 -0.04140436 -0.0414138 -0.04142097 -0.0414232 -0.04141979 -0.04141206 -0.04139996 -0.04138774 -0.04137561 -0.04136786
 -0.04136438 -0.04136662 -0.04137382 -0.04138362 -0.04139507 -0.04140406 -0.04141059 -0.04141238 -0.04141066 -0.0414061
 -0.04139969 -0.04139293 -0.04138526 -0.04137667 -0.04136677 -0.04135484 -0.04134303 -0.04133153 -0.04132348 -0.04131985
 -0.04132017 -0.04132483 -0.04132966 -0.04133438 -0.04133696 -0.04133748 -0.04133901 -0.04134166 -0.041348 -0.04135702
 -0.04136559 -0.04137274 -0.04137337 -0.04136877 -0.04135852 -0.04134536 -0.04133319 -0.04132279 -0.04131683 -0.04131345
 -0.04131224 -0.04131169 -0.04131081 -0.04130964 -0.04130807 -0.0413059 -0.04130306 -0.04129936 -0.04129454 -0.0412906
 -0.0412876 -0.04128867 -0.04129391 -0.04130418 -0.04131921 -0.04133698 -0.04135706 -0.04137646 -0.04139467 -0.04140868
 -0.04141818 -0.04142079 -0.04141733 -0.04140744 -0.04139342 -0.04137734 -0.04136095 -0.04134629 -0.04133312 -0.04132182
 -0.04131175 -0.04130263 -0.04129483 -0.04128849 -0.04128332 -0.04127948 -0.04127477 -0.04126905 -0.04126068 -0.04124967
 -0.04123789 -0.04122567 -0.04121711 -0.04121187 -0.0412108 -0.04121266 -0.0412141 -0.0412145 -0.04121048 -0.04120335
 -0.04119333 -0.04118228 -0.04117246 -0.04116401 -0.04115796 -0.04115325 -0.04114967 -0.04114629 -0.04114288 -0.04113848
 -0.04113282 -0.04112547 -0.04111608 -0.04110701 -0.04109833 -0.04109392 -0.04109388 -0.04109786 -0.04110534 -0.04111097
 -0.04111474 -0.04111326 -0.04110801 -0.04110213 -0.04109631 -0.04109432 -0.04109414 -0.04109462 -0.04109338 -0.04108686
 -0.04107597 -0.04105963 -0.0410412 -0.04102212 -0.04100423 -0.0409887 -0.04097497 -0.04096308 -0.04095255 -0.04094312
 -0.04093636 -0.04093238 -0.04093254 -0.04093684 -0.0409433 -0.0409514 -0.04095526 -0.04095467 -0.04094489 -0.04092736
 -0.04090362 -0.04087641 -0.04085255 -0.04083312 -0.0408235 -0.04082108 -0.0408257 -0.0408332 -0.04084023 -0.04084533
 -0.04084638 -0.04084523 -0.04084203 -0.04083855 -0.04083535 -0.04083242 -0.0408298 -0.04082759 -0.04082574 -0.04082546
 -0.04082679 -0.04083033 -0.04083589 -0.04084187 -0.04084794 -0.04085168 -0.04085294 -0.04084987 -0.04084285 -0.04083157
 -0.04081706 -0.04080059 -0.04078344 -0.0407676 -0.04075323 -0.04074121 -0.04073086 -0.04072181 -0.04071461 -0.04070904
 -0.04070714 -0.04070964 -0.04071608 -0.04072702 -0.04073742 -0.04074699 -0.04074987 -0.0407458 -0.04073332 -0.0407128
 -0.04068782 -0.04065888 -0.04063058 -0.04060302 -0.04057897 -0.04055815 -0.04054139 -0.04052824 -0.04051853 -0.04051143
 -0.04050615 -0.0405015 -0.04049625 -0.04049019 -0.04048242 -0.04047491 -0.0404681 -0.04046367 -0.04046251 -0.04046309
 -0.0404656 -0.04046608 -0.04046413 -0.0404578 -0.04044699 -0.04043311 -0.04041634 -0.04039931 -0.04038215 -0.04036697
 -0.04035387 -0.04034442 -0.04033838 -0.04033623 -0.04033687 -0.04033896 -0.04034119 -0.04034144 -0.04033948 -0.04033427
 -0.04032648 -0.04031613 -0.04030399 -0.04029025 -0.04027578 -0.0402607 -0.0402462 -0.04023246 -0.04022047 -0.04021038
 -0.04020195 -0.04019516 -0.04018799 -0.04018022 -0.04016864 -0.04015325 -0.04013212 -0.04010618 -0.04007727 -0.04004713
 -0.04002088 -0.03999937 -0.03998692 -0.0399817 -0.03998395 -0.03999005 -0.03999721 -0.0400032 -0.04000553 -0.04000542
 -0.04000243 -0.03999939 -0.03999719 -0.03999619 -0.03999693 -0.03999631 -0.0399941 -0.03998778 -0.03997722 -0.0399642
 -0.039949 -0.03993588 -0.0399247 -0.03991701 -0.03991204 -0.0399078 -0.03990375 -0.03989739 -0.03988909 -0.03987817
 -0.03986564 -0.03985228 -0.03983927 -0.03982769 -0.0398185 -0.0398128 -0.0398099 -0.0398102 -0.03981114 -0.03981215
 -0.03981145 -0.03980844 -0.03980407 -0.03979835 -0.03979253 -0.03978669 -0.03978011 -0.03977272 -0.03976301 -0.03975109
 -0.03973672 -0.03972006 -0.03970141 -0.0396812 -0.03966029 -0.03963994 -0.03962258 -0.03960941 -0.03960343 -0.03960324
 -0.03960953 -0.03961806 -0.0396267 -0.03963233 -0.03963278 -0.03962864 -0.03961937 -0.03960741 -0.03959301 -0.03957843
 -0.03956391 -0.03955121 -0.03954048 -0.03953305 -0.03952885 -0.03952712 -0.03952744 -0.03952678 -0.03952475 -0.03951817
 -0.03950717 -0.03949015 -0.03946811 -0.03944165 -0.03941264 -0.03938341 -0.03935568 -0.03933181 -0.03931215 -0.03929776
 -0.03928763 -0.03928164 -0.03927875 -0.03927882 -0.03928047 -0.03928386 -0.03928522 -0.03928436 -0.03927598 -0.0392597
 -0.03923379 -0.03919858 -0.03915938 -0.03911709 -0.03908056 -0.03904977 -0.03902998 -0.03901939 -0.03901644 -0.03901885
 -0.03902176 -0.03902435 -0.03902343 -0.03901974 -0.03901277 -0.0390036 -0.03899279 -0.03898067 -0.03896755 -0.03895333
 -0.03893802 -0.03892159 -0.03890394 -0.03888582 -0.03886722 -0.03884949 -0.03883272 -0.03881808 -0.03880554 -0.03879435
 -0.03878431 -0.03877367 -0.0387625 -0.03875003 -0.03873668 -0.03872322 -0.03870994 -0.03869779 -0.03868655 -0.03867611
 -0.03866679 -0.03865853 -0.03865256 -0.03864947 -0.0386506 -0.03865699 -0.03866788 -0.03868368 -0.03870129 -0.03872032
 -0.03873763 -0.03875263 -0.03876545 -0.03877598 -0.03878789 -0.0388013 -0.03881869 -0.03883936 -0.0388598 -0.03887877
 -0.03888895 -0.0388906 -0.03888002 -0.03885976 -0.03883298 -0.03880116 -0.03876845 -0.03873237 -0.03869192 -0.0386457
 -0.03859083 -0.03853321 -0.03847376 -0.03842063 -0.03837693 -0.03834456 -0.03832501 -0.03831406 -0.03831162 -0.03831143
 -0.03831303 -0.03831207 -0.03830852 -0.03830267 -0.03829484 -0.03828772 -0.03828093 -0.03827431 -0.03826715 -0.03825722
 -0.03824473 -0.03822909 -0.03821049 -0.03818928 -0.03816459 -0.03813561 -0.03810206 -0.03806288 -0.03802042 -0.03797515
 -0.0379301 -0.03788658 -0.03784475 -0.03780495 -0.03776607 -0.03772786 -0.03769117 -0.03765602 -0.03762423 -0.03759576
 -0.03756946 -0.03754509 -0.03752014 -0.03749498 -0.03746975 -0.03744532 -0.03742453 -0.03740721 -0.03739477 -0.03738564
 -0.03737838 -0.03737143 -0.03736271 -0.03735168 -0.03733726 -0.03731984 -0.03729926 -0.03727622 -0.03725081 -0.03722418
 -0.03719651 -0.03716906 -0.037142 -0.03711602 -0.03709121 -0.03706788 -0.03704606 -0.03702595 -0.0370075 -0.03699039
 -0.03697439 -0.0369583 -0.03694197 -0.03692422 -0.03690556 -0.03688625 -0.03686716 -0.03684978 -0.03683418 -0.03682128
 -0.03680991 -0.0367997 -0.03678935 -0.03677804 -0.03676564 -0.03675189 -0.03673723 -0.03672181 -0.0367053 -0.0366877
 -0.03666851 -0.03664764 -0.0366259 -0.03660337 -0.03658184 -0.0365613 -0.03654249 -0.03652496 -0.03650702 -0.03648829
 -0.03646643 -0.03644217 -0.03641554 -0.03638823 -0.03636282 -0.03633998 -0.03632204 -0.03630679 -0.03629388 -0.03627991
 -0.03626275 -0.03624226 -0.03621719 -0.03619183 -0.03616671 -0.03614613 -0.03613105 -0.03612082 -0.03611561 -0.03611057
 -0.03610546 -0.03609584 -0.03608176 -0.03606184 -0.03603635 -0.03600571 -0.03597032 -0.03593128 -0.03588971 -0.0358482
 -0.0358081 -0.03577274 -0.03574201 -0.03571751 -0.03569705 -0.03567963 -0.03566345 -0.03564699 -0.03563107 -0.03561548
 -0.03560182 -0.03559064 -0.03558156 -0.03557477 -0.03556819 -0.03556169 -0.03555307 -0.03554222 -0.03552724 -0.03550814
 -0.03548423 -0.03545601 -0.03542544 -0.03539342 -0.03536385 -0.03533681 -0.03531478 -0.0352964 -0.03528085 -0.03526671
 -0.03525194 -0.03523671 -0.03522012 -0.035204 -0.03518906 -0.03517646 -0.03516718 -0.03515971 -0.03515417 -0.03514734
 -0.03513872 -0.03512669 -0.035111 -0.03509238 -0.03507088 -0.03504764 -0.03502259 -0.03499537 -0.03496613 -0.03493526
 -0.03490345 -0.03487312 -0.03484472 -0.0348208 -0.03480052 -0.03478397 -0.03476976 -0.03475643 -0.03474325 -0.03472893
 -0.03471417 -0.03469898 -0.03468416 -0.03467025 -0.03465652 -0.03464321 -0.03462769 -0.03460965 -0.03458712 -0.03455977
 -0.03452874 -0.0344941 -0.03445974 -0.03442583 -0.03439579 -0.03436949 -0.03434822 -0.03433146 -0.03431849 -0.0343085
 -0.03429946 -0.03429057 -0.03427945 -0.0342665 -0.03425086 -0.03423445 -0.03421841 -0.03420416 -0.0341933 -0.03418421
 -0.03417733 -0.03416815 -0.03415582 -0.03413671 -0.03410975 -0.03407642 -0.03403646 -0.03399652 -0.03395692 -0.03392417
 -0.03389808 -0.03387906 -0.03386613 -0.03385405 -0.03384222 -0.03382543 -0.03380458 -0.03377886 -0.03375009 -0.03372072
 -0.03369221 -0.03366725 -0.03364602 -0.03362977 -0.03361737 -0.03360888 -0.03360206 -0.03359624 -0.03358929 -0.03358041
 -0.03356943 -0.033556 -0.03354224 -0.03352831 -0.03351611 -0.03350575 -0.03349616 -0.03348709 -0.03347505 -0.03345995
 -0.03343909 -0.03341326 -0.03338351 -0.03335109 -0.03331948 -0.03328932 -0.03326335 -0.03324113 -0.0332234 -0.03320897
 -0.03319743 -0.03318705 -0.03317702 -0.03316535 -0.03315105 -0.03313344 -0.0331119 -0.03308802 -0.03306177 -0.03303588
 -0.03301071 -0.03298674 -0.03296402 -0.03294095 -0.03291748 -0.03289257 -0.03286669 -0.03284199 -0.03281913 -0.03280187
 -0.03278999 -0.03278537 -0.03278609 -0.03279033 -0.03279523 -0.03279686 -0.03279354 -0.03278217 -0.03276389 -0.03273793
 -0.03270775 -0.03267424 -0.03264073 -0.0326084 -0.03257804 -0.03255009 -0.03252349 -0.03249815 -0.03247391 -0.03245074
 -0.03242977 -0.03241099 -0.03239459 -0.03238024 -0.03236599 -0.03235171 -0.03233575 -0.03231865 -0.03230085 -0.03228282
 -0.03226578 -0.03224929 -0.03223329 -0.03221748 -0.03220135 -0.0321856 -0.03217053 -0.03215643 -0.03214387 -0.03213115
 -0.03211804 -0.03210265 -0.03208441 -0.03206396 -0.03204119 -0.03201842 -0.03199578 -0.03197427 -0.03195384 -0.03193366
 -0.03191375 -0.03189375 -0.03187388 -0.031855 -0.03183701 -0.0318203 -0.03180417 -0.03178771 -0.03177013 -0.03175005
 -0.0317273 -0.03170111 -0.03167213 -0.03164016 -0.0316071 -0.03157327 -0.03154155 -0.03151278 -0.03148866 -0.03146998
 -0.03145473 -0.03144304 -0.03143 -0.03141532 -0.03139601 -0.03137221 -0.031346 -0.03131782 -0.0312918 -0.03126774
 -0.03124726 -0.03122935 -0.03121223 -0.03119528 -0.03117631 -0.03115594 -0.03113383 -0.03111129 -0.03108937 -0.03106865
 -0.03105003 -0.03103253 -0.03101606 -0.03099929 -0.03098168 -0.03096326 -0.03094388 -0.03092424 -0.03090447 -0.0308844
 -0.03086405 -0.03084238 -0.03081934 -0.0307939 -0.03076612 -0.03073559 -0.03070264 -0.03066815 -0.03063281 -0.03059879
 -0.03056664 -0.03053866 -0.03051416 -0.03049343 -0.03047495 -0.03045743 -0.03044004 -0.03042174 -0.03040284 -0.03038324
 -0.03036336 -0.03034328 -0.03032335 -0.03030363 -0.03028463 -0.03026648 -0.03024845 -0.03023054 -0.03020978 -0.03018609
 -0.03015774 -0.03012522 -0.03009112 -0.03005599 -0.03002384 -0.02999397 -0.02996684 -0.02994086 -0.02991301 -0.02988317
 -0.02984925 -0.02981366 -0.02977759 -0.02974363 -0.02971407 -0.02968893 -0.02966928 -0.02965236 -0.02963776 -0.02962264
 -0.02960638 -0.02958762 -0.02956604 -0.02954201 -0.02951552 -0.02948738 -0.02945767 -0.02942805 -0.02939858 -0.02937058
 -0.02934391 -0.02931882 -0.02929471 -0.02927014 -0.02924452 -0.02921592 -0.02918451 -0.02914928 -0.02911199 -0.02907358
 -0.02903634 -0.02900222 -0.02897146 -0.02894511 -0.02892086 -0.02889822 -0.02887551 -0.02885189 -0.02882938 -0.02880808
 -0.0287904 -0.02877663 -0.02876451 -0.02875378 -0.02873886 -0.02871979 -0.02869402 -0.02866247 -0.02862784 -0.02859068
 -0.02855416 -0.02851761 -0.02848114 -0.02844428 -0.0284059 -0.02836731 -0.02832909 -0.028293 -0.02826049 -0.028232
 -0.02820839 -0.02818821 -0.02817149 -0.02815562 -0.02814043 -0.02812186 -0.02809944 -0.02806996 -0.02803307 -0.02798995
 -0.02794082 -0.02789124 -0.02784153 -0.02779709 -0.0277573 -0.02772261 -0.02769174 -0.02766105 -0.02763017 -0.02759618
 -0.02756052 -0.02752373 -0.02748767 -0.0274547 -0.02742454 -0.02739825 -0.02737329 -0.02734888 -0.02732291 -0.02729436
 -0.02726333 -0.02722952 -0.02719435 -0.02715795 -0.02712157 -0.02708534 -0.02704962 -0.02701437 -0.02697843 -0.02694169
 -0.02690251 -0.026861 -0.02681649 -0.02676979 -0.02672274 -0.02667639 -0.02663372 -0.02659524 -0.02656335 -0.02653684
 -0.02651612 -0.02649775 -0.02648001 -0.02645903 -0.02643228 -0.02639899 -0.02635766 -0.02631205 -0.0262624 -0.02621338
 -0.0261658 -0.02612103 -0.02607931 -0.02603931 -0.02600093 -0.02596237 -0.0259236 -0.02588381 -0.02584296 -0.02580039
 -0.02575618 -0.02571012 -0.02566268 -0.02561468 -0.02556664 -0.02551984 -0.02547409 -0.02542986 -0.02538626 -0.02534287
 -0.02529902 -0.02525444 -0.02520824 -0.02516023 -0.02510919 -0.02505473 -0.02499666 -0.02493456 -0.02487187 -0.02480867
 -0.02475085 -0.02469862 -0.02465392 -0.02461606 -0.02457933 -0.02454284 -0.0244988 -0.02444803 -0.02438853 -0.02432251
 -0.02425351 -0.02418315 -0.0241157 -0.02405069 -0.02398984 -0.02393039 -0.02387135 -0.02380933 -0.0237423 -0.0236691
 -0.02358841 -0.02350249 -0.02341127 -0.02331878 -0.02322556 -0.02313422 -0.02304511 -0.02295793 -0.02287264 -0.02278735
 -0.02270208 -0.0226163 -0.02253038 -0.02244609 -0.02236347 -0.02228398 -0.02220631 -0.02212867 -0.02204903 -0.02196334
 -0.02187129 -0.02177029 -0.02166322 -0.021551 -0.02143701 -0.02132359 -0.02121099 -0.02110023 -0.02098874 -0.02087626
 -0.02076001 -0.02063957 -0.02051337 -0.02038126 -0.0202418 -0.02009489 -0.01993843 -0.01977252 -0.01959705 -0.01941281
 -0.01922408 -0.0190311 -0.01883744 -0.01864163 -0.01844237 -0.01823791 -0.01802475 -0.0178028 -0.01757086 -0.0173288
 -0.01707727 -0.01681251 -0.01653352 -0.01623476 -0.01591333 -0.01556951 -0.01520137 -0.01481887 -0.01442263 -0.01402492
 -0.01362693 -0.01323553 -0.01285108 -0.01247576 -0.01210946 -0.01175198 -0.01140263 -0.01105794 -0.01071677 -0.01037294
 -0.01002731 -0.009677661 -0.009328113 -0.008984582 -0.008648514 -0.008325647 -0.008009939 -0.007699753 -0.007386678 -0.007065236
 -0.006733413 -0.006387922 -0.006035379 -0.005676206 -0.005318812 -0.004964676 -0.00461775 -0.004278682 -0.003946817 -0.003622141
 -0.003303126 -0.002990219 -0.002687548 -0.00239679 -0.002129684 -0.001886994 -0.001678378 -0.001501601 -0.001356654 -0.001240493
 -0.001148311 -0.001078186 -0.001027033 -0.0009913936 -0.0009687536 -0.0009534458 -0.0009418432 -0.000930823 -0.0009179405 -0.0009045009
 -0.0008899519 -0.0008782295 -0.000869603 -0.0008687107 -0.0008756912 -0.0008983252 -0.0009370579 -0.001004144 -0.001100038 -0.001234642
 -0.001406539 -0.001613173 -0.001851885 -0.002112029 -0.0023922 -0.002684781 -0.002987365 -0.003294491 -0.003599809 -0.003894908
 -0.004173356 -0.004426266 -0.004654721 -0.004855613 -0.005036463 -0.005199682 -0.005349156 -0.005487417 -0.005609569 -0.005715479
 -0.005798604 -0.005857977 -0.005894148 -0.005907097 -0.005902536 -0.005880658 -0.005845471 -0.005796623 -0.005733977 -0.005657225
 -0.005564991 -0.005457713 -0.005335514 -0.00519946 -0.00505129 -0.004891927 -0.00472294 -0.004545287 -0.004359858 -0.004168383
 -0.003971865 -0.003771949 -0.003569502 -0.003365214 -0.003159502 -0.002952091 -0.002742984 -0.002532014 -0.002319181 -0.002104141
 -0.001886872 -0.001667314 -0.001445527 -0.001222404 -0.0009979606 -0.0007726316 -0.0005465235 -0.0003193697 -9.320465E-05 0.0001280833
 0.0003405139 0.0005354301 0.0007109821 0.0008608265 0.0009871272 0.0010895 0.001170368 0.001231243 0.001272723 0.001295845
 0.00129863 0.001281597 0.001238493 0.001168702 0.001064717 0.0009250209 0.0007535829 0.0005504128 0.0003350173 0.0001080497
 -0.00011689 -0.0003415142 -0.0005701949 -0.0008048274 -0.001055312 -0.001321181 -0.001606576 -0.001909458 -0.002227657 -0.002561054
 -0.002907415 -0.003270843 -0.003654504 -0.004059717 -0.004491472 -0.004937125 -0.005394602 -0.005846848 -0.006287695 -0.006713927
 -0.007123362 -0.007521372 -0.007908542 -0.008285873 -0.008653506 -0.009008097 -0.009349602 -0.009677113 -0.009990731 -0.01029104
 -0.01057749 -0.01084822 -0.01110283 -0.0113383 -0.0115573 -0.01176157 -0.01195763 -0.01215353 -0.01235546 -0.012572
 -0.01280416 -0.01305587 -0.01332277 -0.01360449 -0.01389548 -0.01419492 -0.01449538 -0.01479694 -0.01508363 -0.01535414
 -0.01559163 -0.01579472 -0.0159654 -0.01610455 -0.01622908 -0.01633963 -0.01644897 -0.01655581 -0.01666176 -0.01676533
 -0.01686314 -0.01695518 -0.0170401 -0.0171178 -0.01718847 -0.01724954 -0.01729945 -0.01733432 -0.01735132 -0.0173485
 -0.01732428 -0.01727856 -0.01721125 -0.0171214 -0.017009 -0.01687207 -0.01671036 -0.01652258 -0.01630856 -0.01606876
 -0.01580355 -0.01551907 -0.01521744 -0.01491623 -0.01461853 -0.01434715 -0.01410219 -0.01389679 -0.01372675 -0.01359165
 -0.01348455 -0.01339734 -0.01332252 -0.01325075 -0.01317779 -0.01309718 -0.01301225 -0.0129215 -0.01283435 -0.01275358
 -0.01268349 -0.01262675 -0.01257498 -0.01252782 -0.01247492 -0.0124154 -0.0123476 -0.01227174 -0.01219307 -0.01211181
 -0.01203188 -0.01195292 -0.01187538 -0.0117989 -0.011723 -0.01164698 -0.01156977 -0.01148967 -0.01140408 -0.01131165
 -0.01121023 -0.01109934 -0.01097851 -0.01084612 -0.01070167 -0.01054285 -0.01036811 -0.01018001 -0.009977761 -0.009770713
 -0.009559706 -0.009353492 -0.009152886 -0.008958743 -0.008770914 -0.008584636 -0.008400102 -0.008216025 -0.008034242 -0.007861814
 -0.007700881 -0.007561267 -0.007443467 -0.007353105 -0.007289558 -0.007253986 -0.007246518 -0.0072672 -0.007317625 -0.0073991
 -0.007511663 -0.007656832 -0.007829362 -0.008028957 -0.008246882 -0.00848149 -0.008726371 -0.008980374 -0.009241785 -0.00951047
 -0.009783758 -0.01006134 -0.01033629 -0.01060804 -0.01086878 -0.01111862 -0.01135363 -0.0115747 -0.01178215 -0.01197707
 -0.01216152 -0.01233668 -0.01250491 -0.01266722 -0.01282531 -0.01297998 -0.01313242 -0.01328229 -0.01343 -0.013574
 -0.01371415 -0.01384798 -0.01397493 -0.01409371 -0.01420392 -0.0143068 -0.01440239 -0.0144931 -0.01457894 -0.01465878
 -0.01473193 -0.01479174 -0.01483774 -0.01486338 -0.01487056 -0.01486081 -0.01483776 -0.0148095 -0.01477805 -0.01475009
 -0.01472467 -0.01470321 -0.01468446 -0.01466752 -0.01465307 -0.01464107 -0.0146326 -0.01462821 -0.01462756 -0.01463089
 -0.01463634 -0.01464375 -0.01465106 -0.01465809 -0.0146635 -0.01466728 -0.01467025 -0.01467268 -0.01467744 -0.01468461
 -0.01469636 -0.01471179 -0.01472953 -0.01474827 -0.01476455 -0.01477788 -0.0147859 -0.01478904 -0.01478683 -0.01478006
 -0.01476915 -0.01475475 -0.01473712 -0.01471724 -0.01469554 -0.01467222 -0.01464756 -0.0146203 -0.01459028 -0.01455676
 -0.01451955 -0.01448059 -0.01444004 -0.0144017 -0.01436567 -0.01433467 -0.01430838 -0.0142869 -0.01426963 -0.0142548
 -0.01424179 -0.01422844 -0.01421463 -0.01419911 -0.01418258 -0.01416519 -0.01414787 -0.01413135 -0.01411612 -0.01410252
 -0.01409102 -0.01408146 -0.01407592 -0.0140747 -0.01408012 -0.01409283 -0.01411163 -0.01413671 -0.01416162 -0.014186
 -0.01420234 -0.01421059 -0.01420706 -0.01419239 -0.01416769 -0.01413384 -0.01409401 -0.01404885 -0.01400105 -0.01395128
 -0.01390144 -0.01385243 -0.01380586 -0.01376218 -0.01372275 -0.01368565 -0.013651 -0.01361449 -0.01357479 -0.01352852
 -0.01347421 -0.01341307 -0.01334461 -0.01327439 -0.01320279 -0.01313446 -0.0130696 -0.01300934 -0.01295359 -0.01290167
 -0.01285369 -0.01280994 -0.0127707 -0.01273721 -0.01270933 -0.01268765 -0.01267122 -0.01265907 -0.01264984 -0.01264162
 -0.01263384 -0.01262514 -0.01261655 -0.012608 -0.01260137 -0.01259738 -0.01259678 -0.01260001 -0.01260647 -0.01261613
 -0.01262855 -0.01264367 -0.0126616 -0.01268234 -0.01270574 -0.01273167 -0.01275865 -0.01278646 -0.01281314 -0.01283862
 -0.01286144 -0.01288199 -0.01290023 -0.01291718 -0.01293447 -0.01295275 -0.01297368 -0.01299646 -0.01302156 -0.01304632
 -0.01306959 -0.01308916 -0.01310363 -0.01311355 -0.01311847 -0.01312119 -0.01312212 -0.01312292 -0.01312395 -0.01312328
 -0.01312081 -0.01311312 -0.01310023 -0.01308115 -0.01305629 -0.01302759 -0.01299527 -0.01296117 -0.01292504 -0.01288705
 -0.01284732 -0.01280568 -0.01276358 -0.01272243 -0.01268376 -0.01264985 -0.01261932 -0.01259311 -0.01256571 -0.0125358
 -0.01249743 -0.01244832 -0.01238839 -0.01231665 -0.01223915 -0.01215629 -0.01207364 -0.01199153 -0.01191017 -0.01182941
 -0.01174713 -0.01166374 -0.01158033 -0.01149786 -0.01142054 -0.01134857 -0.01128491 -0.01122819 -0.01117777 -0.01113156
 -0.01108684 -0.01104262 -0.01099691 -0.01095043 -0.01090299 -0.01085558 -0.0108088 -0.01076208 -0.01071549 -0.01066783
 -0.0106187 -0.01056905 -0.01051886 -0.01047041 -0.01042382 -0.01037905 -0.01033588 -0.01029126 -0.01024511 -0.01019521
 -0.01014207 -0.01008628 -0.01002843 -0.009970378 -0.009912021 -0.009854315 -0.009796125 -0.009736883 -0.009674534 -0.009607411
 -0.009533661 -0.00945099 -0.009361687 -0.00926506 -0.009167843 -0.009071472 -0.008981459 -0.00889959 -0.008823771 -0.00875432
 -0.008684097 -0.008612686 -0.008536606 -0.008456191 -0.008375921 -0.008296324 -0.00822338 -0.008156262 -0.00809542 -0.008039026
 -0.007982687 -0.007925514 -0.007863602 -0.007797972 -0.007727666 -0.007655795 -0.007583879 -0.007516502 -0.007456443 -0.007407242
 -0.007371796 -0.007347794 -0.007336325 -0.007328743 -0.007324182 -0.007313196 -0.0072945 -0.007264724 -0.007223523 -0.007175417
 -0.007120933 -0.007069184 -0.007020335 -0.006980678 -0.006948548 -0.006921405 -0.006896667 -0.006865924 -0.006829325 -0.006781925
 -0.006728564 -0.006672345 -0.006619576 -0.006577153 -0.006546847 -0.006532893 -0.006530251 -0.006538864 -0.006550331 -0.006562382
 -0.006569644 -0.006570208 -0.006565964 -0.006556518 -0.006548946 -0.00654367 -0.006545607 -0.006554608 -0.006568476 -0.00658641
 -0.006601911 -0.006614535 -0.006618822 -0.006615459 -0.006603048 -0.006583381 -0.006558541 -0.006531079 -0.006504813 -0.006481779
 -0.006465242 -0.006455274 -0.006453102 -0.006457205 -0.006467226 -0.006482061 -0.006501128 -0.006524985 -0.0065536 -0.006587874
 -0.006627999 -0.006673397 -0.006724058 -0.006778651 -0.006837145 -0.006899108 -0.00696446 -0.007032806 -0.007103369 -0.007173209
 -0.007240753 -0.0073002 -0.007350984 -0.007388709 -0.007415422 -0.007431411 -0.007440153 -0.0074448 -0.00744754 -0.0074506
 -0.00745476 -0.007460304 -0.007469692 -0.007482948 -0.007505536 -0.007538512 -0.007585304 -0.007646923 -0.007719575 -0.007803219
 -0.007888526 -0.007975085 -0.008055452 -0.008129811 -0.00819596 -0.008254381 -0.008305592 -0.008350443 -0.008390851 -0.008428886
 -0.00846912 -0.008513301 -0.008566433 -0.008626522 -0.00869463 -0.008765067 -0.008834673 -0.008899482 -0.008956487 -0.009006348
 -0.009048523 -0.009084939 -0.009116136 -0.00914159 -0.009161346 -0.009174306 -0.009180341 -0.009180671 -0.009175471 -0.00916847
 -0.009159929 -0.009153667 -0.009149533 -0.009149303 -0.009151853 -0.009155312 -0.009157983 -0.009155649 -0.009147679 -0.009130913
 -0.009107167 -0.009076452 -0.009042187 -0.00900644 -0.008971723 -0.00893986 -0.008911006 -0.008885767 -0.008862764 -0.008841855
 -0.008821764 -0.008802277 -0.008782993 -0.008763838 -0.008745575 -0.008728263 -0.008713194 -0.008700337 -0.008690251 -0.008682406
 -0.008675031 -0.008667096 -0.008654657 -0.008637353 -0.008611944 -0.008580408 -0.008543432 -0.008504649 -0.008467756 -0.008434914
 -0.008409518 -0.008388996 -0.008373789 -0.008358361 -0.00834094 -0.008318837 -0.00829062 -0.008259201 -0.008224552 -0.008191534
 -0.008160582 -0.008132974 -0.008108635 -0.008084224 -0.008059586 -0.008031624 -0.008001097 -0.00796952 -0.007938337 -0.007912753
 -0.007893094 -0.007883419 -0.007880903 -0.00788413 -0.007888379 -0.007888392 -0.007881959 -0.007864993 -0.007840798 -0.007809125
 -0.007775996 -0.007743288 -0.007714549 -0.007691142 -0.007672658 -0.007659375 -0.007648998 -0.007641415 -0.007634073 -0.007626815
 -0.007616529 -0.007603006 -0.007583002 -0.007556543 -0.007521713 -0.007479293 -0.007430202 -0.007376077 -0.007320424 -0.007264944
 -0.007213818 -0.007166951 -0.007126346 -0.007089512 -0.007055671 -0.007021826 -0.006986194 -0.006947847 -0.006905828 -0.006861459
 -0.006814799 -0.00676733 -0.006719274 -0.006671309 -0.006623455 -0.006577113 -0.006532407 -0.006492557 -0.006457805 -0.006432027
 -0.006414801 -0.006406844 -0.006406167 -0.006407674 -0.006408477 -0.00639971 -0.006380965 -0.006346276 -0.006301034 -0.006247227
 -0.006193211 -0.006146129 -0.006108307 -0.006084606 -0.006067026 -0.006054872 -0.006037534 -0.006012226 -0.005974746 -0.005923701
 -0.005861558 -0.00578827 -0.005708638 -0.005622948 -0.005537271 -0.005452 -0.005373586 -0.005301769 -0.00523902 -0.005184091
 -0.005134197 -0.005088804 -0.005044828 -0.005003874 -0.00496693 -0.004935582 -0.00491278 -0.004896324 -0.004887007 -0.00487782
 -0.004866146 -0.004844944 -0.004810459 -0.004762905 -0.0047003 -0.004632466 -0.004559997 -0.004494978 -0.004438625 -0.004396018
 -0.004367333 -0.004349506 -0.004341917 -0.004337517 -0.004335249 -0.004326083 -0.004309244 -0.004276379 -0.004229946 -0.004169501
 -0.00410187 -0.00403705 -0.003979968 -0.003941709 -0.003917265 -0.003908764 -0.003903168 -0.003894473 -0.003874276 -0.003836618
 -0.003786299 -0.003722149 -0.003656433 -0.003590783 -0.003533593 -0.003486031 -0.003447778 -0.003418798 -0.003393623 -0.003371997
 -0.003349232 -0.003325571 -0.003299862 -0.003272493 -0.00324445 -0.00321519 -0.003184418 -0.003150445 -0.003110358 -0.003063541
 -0.003007072 -0.002944629 -0.00287686 -0.002810648 -0.002749963 -0.002697893 -0.002657898 -0.002623767 -0.002595482 -0.00256295
 -0.002524075 -0.00247713 -0.002421179 -0.002366206 -0.002312707 -0.002270616 -0.002239577 -0.002218494 -0.002206302 -0.002196115
 -0.002188338 -0.002180929 -0.00217439 -0.002170221 -0.002165208 -0.002155578 -0.00213701 -0.002101605 -0.002052419 -0.001986771
 -0.001916465 -0.001846406 -0.001786682 -0.001743179 -0.001715546 -0.001706303 -0.001704595 -0.001709931 -0.001707428 -0.001695619
 -0.001664785 -0.001614393 -0.001549233 -0.001470547 -0.001395404 -0.00132435 -0.001270354 -0.001230636 -0.001202762 -0.001183178
 -0.001161667 -0.001138329 -0.001108281 -0.001074177 -0.00103795 -0.0009992231 -0.0009591718 -0.0009142767 -0.0008623545 -0.0008033524
 -0.000735041 -0.0006659215 -0.0005968764 -0.0005388361 -0.000494425 -0.0004644627 -0.0004500989 -0.0004384608 -0.0004288917 -0.0004055558
 -0.0003684328 -0.0003128121 -0.0002406557 -0.000160708 -7.546243E-05 1.348659E-06 6.922058E-05 0.0001193887 0.0001544314 0.0001740423
 0.0001824603 0.0001842357 0.0001827762 0.0001823022 0.0001842396 0.0001907207 0.000201061 0.0002159545 0.0002323761 0.0002501131
 0.0002645571 0.0002747482 0.0002790214 0.0002767464 0.0002723371 0.0002659903 0.0002664172 0.0002740163 0.0002963993 0.0003331324
 0.0003862267 0.0004534905 0.0005288574 0.000608724 0.0006814341 0.000744651 0.0007878495 0.0008143595 0.0008216086 0.000820405
 0.0008167833 0.0008245232 0.0008534611 0.0009094236 0.001001131 0.001111101 0.001241369 0.001349796 0.001428127 0.00145908
 0.001437065 0.001395618 0.00133635 0.001293702 0.001267897 0.001267338 0.00128971 0.001325044 0.001370874 0.001412738
 0.001449779 0.001472617 0.001481644 0.00147295 0.001448366 0.001407495 0.001355178 0.001293811 0.001231636 0.0011733
 0.001126337 0.001095258 0.00108164 0.001087684 0.001108097 0.001142832 0.001183766 0.001230118 0.001275533 0.00131957
 0.001358936 0.001393561 0.00142222 0.001444835 0.001460471 0.001468627 0.001466877 0.001454759 0.001428982 0.001391615
 0.001343205 0.001289973 0.001239307 0.001196755 0.001171357 0.001159448 0.001163158 0.001171921 0.001181654 0.001186797
 0.001184089 0.001176552 0.001164227 0.001150194 0.00113522 0.001115695 0.00109144 0.0010585 0.001017373 0.0009763249
 0.0009372531 0.0009178866 0.0009183302 0.000949392 0.001007863 0.001091403 0.001195916 0.001313651 0.001440402 0.001569174
 0.00169367 0.001807006 0.001902716 0.001974616 0.002021209 0.002039342 0.002034079 0.002005089 0.001962296 0.001906544
 0.001850902 0.001796726 0.001755182 0.001727207 0.001714316 0.001716172 0.001725635 0.00174228 0.001759673 0.001778088
 0.001795537 0.00181184 0.001825615 0.00183632 0.001841916 0.001843215 0.001840163 0.001834361 0.001827497 0.001819642
 0.001811498 0.001802117 0.001790625 0.001778965 0.001766201 0.001760791 0.001763509 0.001785284 0.001828318 0.001890688
 0.001972962 0.002050781 0.002122717 0.002159993 0.002164288 0.002133103 0.002072662 0.002008258 0.001943321 0.001901885
 0.001879696 0.001880548 0.001898 0.001924574 0.001957692 0.001992398 0.002028086 0.002063085 0.002097307 0.002130258
 0.00216255 0.002195057 0.002224371 0.002251529 0.002263045 0.002257619 0.00222287 0.002157318 0.002070497 0.001963699
 0.001866705 0.001780146 0.001724184 0.001694525 0.001683646 0.001686512 0.001684003 0.00167675 0.001656194 0.001626834
 0.001591023 0.0015529 0.001516387 0.001486302 0.001466639 0.001460716 0.00147265 0.001496547 0.001532976 0.00156929
 0.001602869 0.001626975 0.001640036 0.001643015 0.001635723 0.0016243 0.001608841</values></Ydata></AB><ScSm><Ydata ylabel="Single channel"><values byteorder="INTEL" format="FLOAT32" numvalues="1814"> 0.07915308 0.07925554 0.07937316 0.07951162 0.07966496 0.07981776 0.07995392 0.08006877 0.08016991 0.08026483
 0.08035634 0.08045378 0.0805743 0.08072448 0.08088735 0.08103399 0.08114608 0.08123201 0.08132303 0.08144321
 0.08157657 0.08167298 0.08169484 0.08165707 0.08161755 0.08162741 0.08169948 0.08183688 0.08206374 0.08236808
 0.08262566 0.08268087 0.08254059 0.08240046 0.0824293 0.08260161 0.08277608 0.08285126 0.08280583 0.08268945
 0.0826446 0.0828595 0.0833976 0.08405973 0.08444557 0.0841842 0.08318239 0.08175829 0.08056308 0.08023968
 0.08096002 0.08223276 0.08326977 0.08362125 0.08342031 0.08304606 0.08272942 0.08254696 0.08259346 0.08296437
 0.08359639 0.08420752 0.08440583 0.0839434 0.0829973 0.08214301 0.0818864 0.0822693 0.08304292 0.08396982
 0.08460023 0.0840472 0.08177151 0.07877368 0.07728367 0.07870167 0.08213317 0.0853194 0.08669378 0.08620968
 0.08468858 0.08309545 0.08228448 0.08270344 0.08410011 0.08577525 0.08714055 0.08787498 0.08777492 0.08684923
 0.08551227 0.08440724 0.08404946 0.08468133 0.08617339 0.08786974 0.08884884 0.0886517 0.08762617 0.08647237
 0.08572719 0.0857381 0.08668544 0.08836648 0.0902176 0.09173372 0.09273195 0.09323467 0.09334031 0.09320389
 0.09296377 0.09272289 0.0926536 0.09290892 0.09332281 0.09344617 0.09304695 0.09242326 0.09210043 0.09229019
 0.09270973 0.09292321 0.09277409 0.09230056 0.09128755 0.08937506 0.08679356 0.08447392 0.08313861 0.08279483
 0.08332559 0.08479999 0.08676486 0.08802581 0.08784752 0.08694419 0.08670767 0.08770682 0.08933389 0.09069961
 0.09149988 0.09206723 0.09284937 0.09390032 0.09474822 0.09473744 0.09369069 0.09232774 0.09178878 0.09253255
 0.09389419 0.09491357 0.09535161 0.0956604 0.09618361 0.09665488 0.09642759 0.09516394 0.09341756 0.09244305
 0.09316057 0.09524116 0.09727757 0.09785029 0.09653723 0.09413876 0.09200712 0.09107832 0.09151037 0.09306507
 0.09543751 0.09811556 0.1003089 0.1013504 0.101154 0.100191 0.09897839 0.09759811 0.09588549 0.09418508
 0.09354772 0.09474626 0.09728183 0.09978212 0.101269 0.1017 0.1014054 0.100423 0.09859145 0.0962438
 0.09451618 0.09450628 0.09602914 0.0976653 0.09827387 0.0980592 0.09792128 0.09821679 0.09856156 0.09859553
 0.09851192 0.09878194 0.09955807 0.100487 0.1010907 0.1012118 0.101051 0.1008832 0.1007958 0.1006404
 0.1002613 0.09984143 0.09988598 0.1006889 0.1019359 0.1030182 0.1036288 0.1038851 0.1039648 0.1038071
 0.1032215 0.1022657 0.1014324 0.101302 0.1019763 0.1029996 0.1038433 0.104301 0.1044353 0.1043755
 0.1042328 0.1040734 0.1039325 0.1038842 0.1040291 0.1043559 0.1047059 0.1049288 0.1050052 0.1049857
 0.1048903 0.104713 0.1044885 0.1043095 0.1042666 0.1043754 0.1045763 0.1047964 0.1049788 0.1050708
 0.1050425 0.1049279 0.1048023 0.1047111 0.1046545 0.1046343 0.1046717 0.1047685 0.1048833 0.1049637
 0.1049916 0.1049841 0.1049585 0.1049162 0.1048582 0.1048024 0.1047782 0.1048062 0.1048767 0.1049545
 0.1050201 0.1050954 0.1052008 0.105303 0.1053432 0.1053121 0.1052609 0.105244 0.1052748 0.1053344
 0.1053942 0.1054254 0.1054025 0.1053212 0.1052234 0.1051855 0.1052609 0.1054384 0.1056675 0.1059009
 0.1061019 0.1062451 0.1063365 0.106411 0.1064919 0.1065691 0.106625 0.106667 0.1067305 0.1068504
 0.1070275 0.1072226 0.1073917 0.1075171 0.1076057 0.1076797 0.107774 0.1079073 0.1080479 0.1081406
 0.1081793 0.1082198 0.1083099 0.1084326 0.1085332 0.1085838 0.1086088 0.1086538 0.1087391 0.108846
 0.1089448 0.1090287 0.1091178 0.1092285 0.1093419 0.1094081 0.1093955 0.1093304 0.1092715 0.1092521
 0.1092653 0.1092984 0.109354 0.1094288 0.1094961 0.1095237 0.1095076 0.1094774 0.1094643 0.1094678
 0.1094588 0.1094151 0.1093438 0.1092693 0.1092089 0.1091644 0.1091266 0.1090831 0.1090252 0.10895
 0.1088602 0.1087605 0.1086538 0.1085455 0.1084539 0.1084064 0.1084059 0.1084046 0.1083317 0.1081603
 0.1079356 0.1077317 0.107587 0.107484 0.1073801 0.1072489 0.1070953 0.1069417 0.1068057 0.1066899
 0.1065871 0.1064907 0.106404 0.1063421 0.1063175 0.1063176 0.1063032 0.1062431 0.1061469 0.1060535
 0.1059906 0.1059566 0.1059366 0.1059202 0.105908 0.1059102 0.1059359 0.1059772 0.1060123 0.1060293
 0.1060406 0.1060698 0.1061348 0.1062411 0.1063744 0.1064978 0.1065776 0.1066193 0.1066647 0.106748
 0.106868 0.1070054 0.1071506 0.1073058 0.1074726 0.1076499 0.1078411 0.1080538 0.1082919 0.1085508
 0.108818 0.1090785 0.1093248 0.1095654 0.109822 0.1101118 0.1104316 0.1107606 0.11108 0.1113883
 0.1116969 0.1120128 0.112332 0.1126518 0.1129813 0.1133328 0.1137039 0.1140795 0.1144472 0.1148072
 0.1151669 0.1155322 0.1159039 0.1162813 0.1166692 0.1170759 0.1174969 0.1179045 0.1182688 0.1185896
 0.118899 0.1192329 0.1196042 0.1199967 0.1203768 0.1207161 0.1210174 0.1213136 0.121634 0.1219757
 0.1223175 0.1226556 0.1230108 0.123399 0.1238008 0.1241703 0.1244754 0.1247296 0.1249769 0.1252441
 0.1255174 0.1257699 0.126 0.1262307 0.126476 0.1267282 0.1269813 0.1272484 0.1275409 0.1278427
 0.1281213 0.1283619 0.1285765 0.1287812 0.1289759 0.1291475 0.129287 0.1294042 0.129526 0.1296739
 0.1298418 0.130007 0.1301625 0.1303259 0.1305149 0.1307289 0.1309608 0.1312118 0.1314834 0.1317632
 0.1320386 0.1323198 0.1326322 0.1329747 0.1333051 0.1335822 0.1338114 0.1340305 0.134263 0.1345069
 0.1347626 0.1350451 0.1353625 0.1357007 0.1360327 0.136339 0.1366239 0.1369138 0.137232 0.1375663
 0.1378736 0.1381229 0.1383273 0.1385292 0.1387632 0.1390345 0.1393245 0.1396079 0.1398667 0.1400894
 0.140262 0.1403693 0.140412 0.1404119 0.1403877 0.1403271 0.1401935 0.1399575 0.139609 0.1391414
 0.1385391 0.1377945 0.1369366 0.1360411 0.1352141 0.1345612 0.134162 0.1340593 0.1342557 0.1347115
 0.1353447 0.1360462 0.1367017 0.1372075 0.1374764 0.1374502 0.1371189 0.136523 0.1357305 0.1348107
 0.1338252 0.1328278 0.1318646 0.1309877 0.1302834 0.1298837 0.129936 0.1305465 0.1317384 0.1334333
 0.135455 0.1375668 0.1395502 0.14128 0.1427414 0.1439849 0.1450735 0.1460597 0.1469834 0.1478672
 0.148711 0.1495039 0.150242 0.1509311 0.1515722 0.1521527 0.1526514 0.153048 0.1533312 0.1535045
 0.153587 0.1536052 0.1535876 0.1535634 0.1535499 0.1535292 0.1534419 0.1532167 0.1528117 0.1522392
 0.1515742 0.1509621 0.1506131 0.1507554 0.15154 0.1529494 0.1547843 0.1567563 0.1586148 0.1602148
 0.1615094 0.1625196 0.1633084 0.1639516 0.1645083 0.1650114 0.1654788 0.1659233 0.1663532 0.1667727
 0.1671836 0.1675873 0.1679845 0.1683764 0.1687636 0.1691453 0.1695205 0.1698925 0.1702698 0.1706605
 0.1710627 0.171464 0.1718544 0.1722368 0.1726194 0.1730011 0.1733729 0.173732 0.1740851 0.1744414
 0.1748067 0.1751826 0.1755625 0.175932 0.1762793 0.1766065 0.1769247 0.1772416 0.1775565 0.1778667
 0.1781733 0.1784797 0.1787877 0.1790961 0.1794038 0.1797103 0.1800137 0.1803095 0.1805941 0.1808685
 0.1811389 0.1814121 0.1816915 0.1819743 0.182255 0.182533 0.1828144 0.1831051 0.1834018 0.183695
 0.1839782 0.1842527 0.1845247 0.1847999 0.1850793 0.1853589 0.1856341 0.1859046 0.1861735 0.1864438
 0.1867165 0.1869915 0.1872675 0.1875421 0.1878129 0.1880799 0.1883456 0.1886122 0.1888799 0.1891482
 0.1894184 0.1896914 0.1899636 0.1902287 0.190484 0.1907326 0.1909798 0.1912301 0.1914854 0.1917441
 0.1920029 0.1922617 0.1925236 0.1927894 0.1930546 0.1933137 0.1935665 0.1938184 0.1940753 0.1943392
 0.1946073 0.1948767 0.1951467 0.1954153 0.1956769 0.195928 0.1961721 0.1964173 0.1966689 0.1969269
 0.1971871 0.1974457 0.1977012 0.1979542 0.1982052 0.1984565 0.1987115 0.1989709 0.1992322 0.1994926
 0.1997497 0.2000012 0.2002481 0.2004956 0.2007474 0.2010008 0.2012521 0.2015013 0.2017516 0.2020056
 0.2022624 0.2025169 0.2027634 0.2030018 0.2032381 0.2034804 0.2037341 0.2039975 0.2042616 0.2045191
 0.2047716 0.2050251 0.2052817 0.2055396 0.2057976 0.2060541 0.2063075 0.2065608 0.2068199 0.2070866
 0.207358 0.2076296 0.2078972 0.2081592 0.2084198 0.2086842 0.2089539 0.209228 0.2095059 0.2097839
 0.2100567 0.2103228 0.2105847 0.2108447 0.2111039 0.2113614 0.2116133 0.211857 0.2120966 0.2123373
 0.2125789 0.2128196 0.2130609 0.2133055 0.2135544 0.2138086 0.2140666 0.2143248 0.2145831 0.2148439
 0.2151061 0.2153678 0.2156321 0.2159006 0.2161703 0.21644 0.2167125 0.2169866 0.2172596 0.2175337
 0.21781 0.2180848 0.2183592 0.2186404 0.2189297 0.2192213 0.2195125 0.2198021 0.2200863 0.2203654
 0.2206451 0.220927 0.2212094 0.2214932 0.2217784 0.2220599 0.2223366 0.2226144 0.2228965 0.2231832
 0.2234763 0.2237722 0.2240621 0.2243448 0.2246263 0.2249071 0.2251865 0.2254717 0.2257658 0.2260603
 0.2263494 0.2266359 0.226919 0.2271968 0.2274744 0.2277544 0.2280323 0.2283078 0.2285816 0.2288419
 0.2290646 0.2291953 0.2290809 0.2283944 0.2265962 0.2229495 0.2166699 0.2072448 0.1947533 0.1799455
 0.1640255 0.1482711 0.133694 0.1209146 0.1102524 0.1018624 0.09582815 0.09224755 0.09130259 0.09335405
 0.09907154 0.1090433 0.1223096 0.1350794 0.1421398 0.1408119 0.1333873 0.1250477 0.1196343 0.1177547
 0.118098 0.119375 0.1210786 0.1233348 0.1264572 0.1304899 0.135164 0.1403478 0.1463051 0.1532991
 0.1610823 0.168988 0.1764896 0.1835463 0.1904064 0.1971858 0.2036985 0.2096355 0.2148047 0.219198
 0.2229288 0.2261563 0.2290221 0.2316207 0.2340157 0.2362439 0.2382677 0.2399534 0.2411479 0.2418013
 0.2420246 0.242036 0.242039 0.2421347 0.2423342 0.2426235 0.2429912 0.2434247 0.2439153 0.2444597
 0.2450464 0.2456518 0.2462552 0.2468445 0.247411 0.2479517 0.2484675 0.248953 0.2494016 0.2498201
 0.2502238 0.2506206 0.2510117 0.2513976 0.2517751 0.2521393 0.2524902 0.2528303 0.2531578 0.2534709
 0.2537705 0.2540556 0.2543254 0.2545863 0.2548457 0.2551036 0.2553578 0.2556103 0.2558626 0.2561141
 0.2563656 0.2566165 0.2568625 0.2571027 0.2573412 0.2575797 0.2578171 0.2580557 0.2582974 0.2585391
 0.2587786 0.2590187 0.2592604 0.2594995 0.2597337 0.2599665 0.260204 0.2604524 0.2607124 0.2609769
 0.2612397 0.2615039 0.261775 0.2620512 0.2623276 0.2626024 0.2628745 0.263144 0.2634154 0.2636922
 0.2639664 0.2642233 0.2644559 0.2646722 0.2648892 0.2651208 0.2653661 0.2656107 0.2658437 0.2660689
 0.2662972 0.2665338 0.2667766 0.2670199 0.2672617 0.2675112 0.2677821 0.2680755 0.2683777 0.2686771
 0.2689726 0.2692672 0.2695631 0.2698634 0.2701664 0.2704607 0.2707354 0.2709959 0.2712649 0.2715667
 0.2719068 0.272263 0.2726032 0.2729138 0.2732085 0.2735102 0.2738316 0.2741628 0.2744732 0.2747363
 0.2749675 0.2752247 0.2755557 0.2759518 0.2763616 0.2767412 0.2770829 0.2774033 0.2777165 0.2780209
 0.2783051 0.2785615 0.2788012 0.2790582 0.2793689 0.2797365 0.2801228 0.2804875 0.2808193 0.2811262
 0.2814186 0.2817055 0.2819784 0.2821961 0.2823284 0.2824308 0.2826306 0.2830067 0.2835033 0.2839879
 0.2843814 0.2847047 0.2850098 0.2853127 0.2856027 0.2858555 0.286001 0.2859595 0.2857875 0.2857298
 0.2860196 0.2866431 0.2873698 0.2879857 0.2884341 0.2887664 0.2890489 0.2893193 0.2895613 0.289704
 0.2896984 0.2896279 0.2896959 0.2900388 0.2905721 0.2910842 0.2914599 0.2917448 0.2920236 0.2923235
 0.2926013 0.2927295 0.292552 0.2920979 0.2917237 0.2918833 0.292689 0.2937798 0.2946792 0.2952198
 0.2955483 0.2957904 0.2958687 0.2956503 0.2951114 0.2943479 0.2936179 0.2933795 0.2939916 0.2952561
 0.2964996 0.2972471 0.297628 0.2980401 0.2986324 0.2992401 0.299654 0.2998095 0.2997593 0.2995547
 0.2992169 0.2988677 0.2988127 0.2993287 0.3003417 0.3014397 0.3022557 0.3027581 0.303091 0.3031514
 0.3024718 0.3007754 0.2987097 0.2976858 0.2986242 0.3009865 0.3033595 0.3048507 0.3055744 0.305995
 0.3063231 0.3064567 0.3059593 0.3041982 0.3012045 0.2984324 0.2978774 0.3001069 0.3036246 0.3063233
 0.3070955 0.3060597 0.3040272 0.3021275 0.3014063 0.3022525 0.3042358 0.3065465 0.3084869 0.3096583
 0.3099769 0.3096288 0.3089931 0.3085473 0.3085686 0.3087171 0.3082471 0.3069825 0.3056648 0.3048081
 0.3037442 0.3017083 0.299549 0.2991984 0.3012866 0.3042337 0.3060821 0.3064995 0.3064205 0.3061547
 0.3046219 0.3007783 0.2955641 0.2918578 0.2920058 0.2954764 0.2993888 0.3013439 0.3013138 0.3007963
 0.3007129 0.3004391 0.2987313 0.2954884 0.2924207 0.2915173 0.2928153 0.2943354 0.2942671 0.2922335
 0.288332 0.2826832 0.2769364 0.2745715 0.2778215 0.2848865 0.2915288 0.2947305 0.2936266 0.2882335
 0.2797632 0.2719387 0.2693147 0.2730704 0.2796333 0.2841434 0.2842838 0.2803617 0.2733191 0.2643216
 0.2557929 0.2511184 0.2524911 0.259156 0.2675454 0.2728212 0.2713581 0.2636594 0.2550614 0.2516977
 0.2547339 0.2596204 0.2614428 0.2595309 0.2564167 0.25438 0.2541958 0.255577 0.2575083 0.2590488
 0.2600619 0.2598766 0.2559378 0.2466385 0.235555 0.2295594 0.2317282 0.2388448 0.2466115 0.2539684
 0.2607445 0.2645691 0.2634048 0.2596309 0.258539 0.2626883 0.2694615 0.2743913 0.275676 0.2749064
 0.2741222 0.2733523 0.2716565 0.2697996 0.270263 0.2741699 0.2795309 0.2833992 0.2848184 0.2848259
 0.2844852 0.283995 0.2832273 0.2821593 0.2808338 0.2793812 0.2780114 0.2767849 0.275568 0.2743012
 0.2729303 0.2708195 0.266803 0.2607065 0.2546529 0.25161 0.2522871 0.2546838 0.2569638 0.2587911
 0.258951 0.2543633 0.2441132 0.2330577 0.2284806 0.2330482 0.2426851 0.2511358 0.254903 0.2536762
 0.2482076 0.2399696 0.2326561 0.2315552 0.2394781 0.2537982 0.2687822 0.280422 0.2879767 0.2917731
 0.291662 0.2881319 0.2836016 0.281484 0.283846 0.2900478 0.2972448 0.301715 0.3004661 0.2936875
 0.2864178 0.2855134 0.29284 0.3027911 0.3084792 0.308968 0.3082948 0.3090711 0.31023 0.3105486
 0.3111585 0.3135989 0.317266 0.3199072 0.3196426 0.3157547 0.3086844 0.3005921 0.2950323 0.2941633
 0.2964022 0.2982815 0.2980317 0.2956209 0.2905729 0.2829473 0.2761123 0.2749294 0.2802221 0.2875267
 0.2921788 0.2936566 0.2941484 0.2946165 0.2936756 0.2899327 0.2844658 0.2803583 0.2796762 0.2815169
 0.2834872 0.2842897 0.283935 0.282256 0.2789085 0.2749516 0.27298 0.2748229 0.2795914 0.2845499
 0.2876335 0.2887062 0.2887565 0.2886351 0.288605 0.2884973 0.2881271 0.2878771 0.2887309 0.2912097
 0.2944332 0.2969063 0.2982335 0.299449 0.301572 0.3043729 0.3067447 0.3079361 0.3082161 0.3085177
 0.3095835 0.3113489 0.3130072 0.3137236 0.3134562 0.3130995 0.3136814 0.3153865 0.317488 0.3191845
 0.3202752 0.3210452 0.3218046 0.3226281 0.3233195 0.3235782 0.3233956 0.3232926 0.3239266 0.3254044
 0.3271501 0.3284857 0.3291858 0.3294383 0.3294563 0.3292732 0.3288553 0.3282784 0.3277297 0.3273653
 0.3272041 0.32716 0.3271408 0.3271017 0.3270438 0.3270017 0.3270203 0.3271176 0.3272729 0.3274611
 0.3276707 0.3278812 0.3280585 0.3281944 0.3283154 0.3284271 0.328474 0.3283746 0.3280734 0.327542
 0.3267527 0.3256739 0.3242781 0.3225314 0.3203994 0.3179463 0.3155 0.3136879 0.3131781 0.314257
 0.3166043 0.3194777 0.3221356 0.3241575 0.3254814 0.3262474 0.3266329 0.3267767 0.3267697 0.3266611
 0.3264695 0.3262062 0.3258911 0.3255497 0.3252059 0.3248815 0.3245917 0.3243356 0.3240936 0.3238356
 0.3235315 0.3231611 0.3227151 0.3221928 0.3215963 0.3209225 0.3201533 0.3192627 0.3182472 0.3171516
 0.3160538 0.3150163 0.3140502 0.3131192 0.3121753 0.311179 0.3100758 0.3087841 0.3072715 0.305662
 0.3042017 0.3030589 0.3021743 0.3013385 0.3003844 0.2992725 0.2980365 0.2967134 0.2953298 0.2939082
 0.2924616 0.2909833 0.2894461 0.2878168 0.2860787 0.2842419 0.2823272 0.28035 0.2783235 0.2762615
 0.2741535 0.2719286 0.2694493 0.2665481 0.2630788 0.2589525 0.2541542 0.2487541 0.2429109 0.236849
 0.2308087 0.2250013 0.2195922 0.2147118 0.2104714 0.2069675 0.2042745 0.2024371 0.2014751 0.2013934
 0.2021788 0.2037865 0.206131 0.2090864 0.212493 0.2161661 0.2199076 0.223525 0.226877 0.2299248
 0.2327292 0.2353709 0.237867 0.2401687 0.2422225 0.2440134 0.2455547 0.2468612 0.2479437 0.2488227
 0.2495364 0.2501299 0.2506371 0.2510698 0.2514253 0.2517016 0.2519095 0.252075 0.2522333 0.2524182
 0.2526496 0.2529277 0.2532457 0.2536092 0.254038 0.2545496 0.2551438 0.2558065 0.2565193 0.2572694
 0.2580581 0.2589054 0.2598463 0.2609214 0.262166 0.263597 0.265203 0.2669408 0.2687337 0.2704757
 0.272054 0.2733835 0.2744246 0.2751747 0.2756494 0.275868 0.2758513 0.2756243 0.2752172 0.2746621
 0.2739922 0.273244 0.2724482 0.2716134 0.2707235 0.2697589 0.2687216 0.2676411 0.2665576 0.2654979
 0.2644691 0.2634722 0.2625113 0.2615865 0.2606921 0.2598237 0.2589823 0.2581703 0.2573901 0.2566442
 0.2559289 0.2552257 0.2544993 0.2537 0.2527785 0.2517062 0.2504794 0.2491018 0.2475734 0.2458973
 0.2440876 0.2421687 0.2401656 0.2380928 0.2359481 0.2337235 0.2314134 0.2290137 0.2265358 0.2240373
 0.2216176 0.2193612 0.2172926 0.2153848 0.2135942 0.2118876 0.2102526 0.20869 0.2072001 0.2057787
 0.2044211 0.203123 0.2018825 0.2007088 0.199617 0.1986186 0.1977256 0.1969557 0.1963142 0.1957803
 0.1953218 0.1949173 0.1945719 0.1943268 0.1942338 0.1942933 0.1944238 0.1945127 0.1944909 0.1943622
 0.1941867 0.1940357 0.193947 0.1939154 0.1939117 0.1938843 0.1937471 0.1933966 0.1927402 0.1917035
 0.1902425 0.1883782 0.1862085 0.1838817 0.1815684 0.1794338 0.1775996 0.1761226 0.1749976 0.1741645
 0.1735279 0.1730133 0.1726155 0.1723921 0.1724156 0.1726968 0.1731131 0.1734567 0.1736203 0.1737179
 0.1739826 0.1745662 0.1754496 0.176488 0.1775089 0.178398 0.1791174 0.1796653 0.1800521 0.1803063
 0.180454 0.1804951 0.1804233 0.180245 0.1799626 0.1795783 0.1791117 0.178573 0.1779335 0.1771662
 0.176283 0.1753081 0.1742545 0.1731277 0.1719004 0.1705199 0.1690201 0.1676125 0.1666085 0.1662458
 0.1665635 0.1673874 0.1684544 0.1695875 0.1707115 0.1717201 0.1724845 0.1730697 0.1738263 0.1751516
 0.1771454 0.1795024 0.1817338 0.1834867 0.1846488 0.1852254 0.185248 0.1847816 0.1838732 0.1824989
 0.1806618 0.1784826 0.1761177 0.1736956 0.1713631 0.1692554 0.1674263 0.1658982 0.1646884 0.1638016
 0.1633058 0.1629145 0.1609835 0.1550961 0.1454938 0.1372731 0.1365177 0.143728 0.1531067 0.1587793
 0.1597764 0.1585989 0.1573157 0.1563766 0.1557069 0.1553792 0.155442 0.1557723 0.1561274 0.1562627
 0.1560795 0.1555972 0.154686 0.1528409 0.1491904 0.142813 0.1334223 0.1219938 0.1105476 0.1010733
 0.09455831 0.09079893 0.08882795 0.08757728 0.086491 0.0857254 0.08578981 0.08702394 0.08940479 0.09270221
 0.09664512 0.1009008 0.1050183 0.108561 0.1113387 0.1134284 0.1149603 0.115977 0.1164934 0.1165694
 0.1162877 0.1157282 0.1149603 0.114009 0.1128428 0.1114434 0.109897 0.1084122 0.1072301 0.106475
 0.1060829 0.1058963 0.1058067 0.1057827 0.1058179 0.1059101 0.1060621 0.1062694 0.1065265 0.1068394
 0.107195 0.1075351 0.1077956 0.1079588 0.1080451 0.1080663 0.1079942 0.1077823 0.1074412 0.1070591
 0.1066743 0.1061485 0.1052768 0.1040575 0.1027948 0.1019109 0.1016559 0.1019576 0.1025015 0.1029632
 0.1032023 0.1032712 0.1032776 0.1032395</values></Ydata></ScSm><ScRf><Ydata ylabel="Single channel"><values byteorder="INTEL" format="FLOAT32" numvalues="1820"> 0.06971801 0.06984641 0.06996632 0.07007556 0.07017538 0.07027224 0.07037635 0.07049541 0.0706287 0.07076558
 0.07089235 0.07100335 0.07110213 0.0711911 0.07127002 0.07134853 0.0714464 0.07157321 0.07171538 0.07184704
 0.07195027 0.07203004 0.07211426 0.07222877 0.07236173 0.07246213 0.07248607 0.07244441 0.07239696 0.07239781
 0.07245888 0.07257908 0.07277946 0.07305212 0.07328689 0.07334202 0.07322107 0.07309903 0.07312816 0.07328585
 0.07344503 0.07351448 0.07347503 0.07337108 0.07333006 0.0735203 0.07399809 0.07458612 0.07492927 0.07469893
 0.07381161 0.07254882 0.07148969 0.07120666 0.07185178 0.07298651 0.07390989 0.07422312 0.07404528 0.073714
 0.07343529 0.07327683 0.07332159 0.07365406 0.07421857 0.07476379 0.07493962 0.07452574 0.07368205 0.07292302
 0.07269941 0.07304697 0.07374085 0.0745658 0.07512004 0.07461712 0.07258353 0.069916 0.06860043 0.06987756
 0.07294364 0.07578532 0.07701011 0.07657815 0.07522029 0.07379685 0.07307269 0.07344924 0.07469955 0.07619613
 0.07741342 0.07806857 0.07798419 0.07716789 0.07598406 0.07500224 0.07468356 0.07524854 0.07658207 0.07809482
 0.07896212 0.07877851 0.07786182 0.07684036 0.07618907 0.07621008 0.07705969 0.07855929 0.08021198 0.08157097
 0.08247127 0.08292851 0.08302832 0.08291014 0.08269855 0.08248504 0.08242376 0.08265257 0.08302249 0.08312939
 0.08276632 0.08220623 0.081925 0.08211007 0.08250068 0.08270212 0.08257517 0.082156 0.08125295 0.0795455
 0.07724136 0.07517172 0.07397966 0.07367258 0.07415029 0.0754759 0.07723993 0.07837022 0.07820995 0.07740074
 0.07718842 0.07808127 0.07953604 0.08075897 0.0814793 0.08199374 0.0827006 0.08364631 0.08440852 0.08440173
 0.08346875 0.08225439 0.08177757 0.08244625 0.08366503 0.08457786 0.08497448 0.08525948 0.08573721 0.08616689
 0.08597064 0.08484896 0.08329813 0.08243803 0.08308912 0.08495848 0.08679058 0.08731563 0.08615316 0.08401857
 0.08212341 0.08130469 0.08170082 0.08309849 0.08522943 0.08764043 0.0896253 0.09058312 0.09043068 0.08958495
 0.08850824 0.08727735 0.08574968 0.08423816 0.08368649 0.08478633 0.0870868 0.08935305 0.09070416 0.09110052
 0.09084168 0.08996832 0.0883414 0.08626084 0.08474248 0.08476578 0.08616073 0.08765295 0.08822104 0.08805069
 0.08794939 0.08823638 0.08856814 0.08862443 0.08857949 0.08885346 0.08957975 0.09044105 0.09101023 0.09114639
 0.09102805 0.09090184 0.09084849 0.09073484 0.09041888 0.09006546 0.09013191 0.09088305 0.09203165 0.09302667
 0.09359578 0.09385137 0.093954 0.09384316 0.09334223 0.0925042 0.09177808 0.09169011 0.09233244 0.09329298
 0.09409282 0.0945427 0.09469741 0.09467474 0.09457585 0.09445974 0.09435723 0.09433721 0.09449313 0.09481667
 0.09516449 0.0953997 0.09550191 0.09551436 0.09545521 0.09532125 0.09514408 0.0950065 0.09499225 0.09512025
 0.09533936 0.09558092 0.09578891 0.09591131 0.095917 0.09583393 0.0957322 0.09566072 0.095627 0.09563348
 0.09569538 0.09581225 0.09594694 0.09605183 0.09610877 0.09613066 0.09613056 0.09610868 0.09607068 0.09604175
 0.09605341 0.09611906 0.0962197 0.09631802 0.09639999 0.09649257 0.09661666 0.09673606 0.0967893 0.09676681
 0.09672377 0.09671939 0.09676878 0.09684958 0.09692971 0.09698152 0.09698437 0.0969357 0.09687034 0.09685384
 0.09693523 0.09711014 0.0973384 0.09757799 0.0977915 0.09795082 0.09805916 0.09814869 0.0982407 0.0983255
 0.09838895 0.09844308 0.09852314 0.09865948 0.09884933 0.09905507 0.09923467 0.09936984 0.0994666 0.09954849
 0.09965147 0.09979472 0.0999465 0.1000502 0.1000966 0.1001407 0.1002339 0.1003626 0.1004706 0.100527
 0.100556 0.1006043 0.100692 0.1008 0.1009 0.1009879 0.1010845 0.1012049 0.1013276 0.1014034
 0.1014042 0.1013583 0.1013225 0.1013243 0.1013516 0.1013909 0.1014488 0.1015298 0.1016129 0.1016662
 0.1016801 0.1016761 0.1016802 0.1016928 0.1016903 0.1016557 0.1015976 0.1015399 0.1015013 0.1014844
 0.1014774 0.1014634 0.1014312 0.1013806 0.1013172 0.1012459 0.1011681 0.1010887 0.1010263 0.101007
 0.1010322 0.1010543 0.1010051 0.1008594 0.1006616 0.1004842 0.1003636 0.1002799 0.1001873 0.1000569
 0.09989502 0.09972896 0.09958069 0.09945311 0.09933715 0.09922662 0.09912817 0.09905874 0.0990276 0.09901498
 0.09897655 0.09888179 0.09874497 0.09860937 0.09850587 0.09843577 0.0983851 0.09834221 0.09830499 0.09828079
 0.09827575 0.09828048 0.09827535 0.09825453 0.09823533 0.09824172 0.09828839 0.0983769 0.09849001 0.09859091
 0.09864874 0.098671 0.09869766 0.09875982 0.09885543 0.09896596 0.09908222 0.09920728 0.09934507 0.09949609
 0.09966207 0.09984724 0.1000539 0.1002772 0.1005059 0.1007289 0.1009444 0.1011637 0.1014025 0.101667
 0.1019489 0.1022334 0.1025108 0.1027802 0.1030468 0.1033137 0.1035811 0.1038523 0.1041377 0.1044453
 0.1047688 0.1050922 0.1054075 0.105721 0.1060418 0.1063701 0.1066999 0.1070298 0.1073697 0.1077318
 0.10811 0.1084732 0.108792 0.1090698 0.1093419 0.1096419 0.1099767 0.1103278 0.110666 0.1109696
 0.1112425 0.1115126 0.1118026 0.1121063 0.1124044 0.1126999 0.1130214 0.1133848 0.1137633 0.114103
 0.1143722 0.1145912 0.1148097 0.1150553 0.1153112 0.1155469 0.1157587 0.1159691 0.1161931 0.1164246
 0.116658 0.1169059 0.1171792 0.1174632 0.1177285 0.1179622 0.1181744 0.1183765 0.1185627 0.1187165
 0.1188295 0.1189149 0.1190039 0.1191223 0.1192682 0.1194191 0.1195606 0.1197017 0.1198587 0.1200372
 0.1202366 0.1204613 0.1207131 0.1209775 0.1212351 0.121489 0.1217628 0.1220612 0.1223488 0.122587
 0.1227801 0.1229667 0.1231717 0.1233914 0.1236213 0.1238722 0.1241536 0.1244558 0.1247563 0.12504
 0.1253139 0.1256019 0.1259165 0.126234 0.1265094 0.1267211 0.1268938 0.1270738 0.1272925 0.127552
 0.1278351 0.1281206 0.1283934 0.1286418 0.1288492 0.1289995 0.1290962 0.1291658 0.1292268 0.129262
 0.1292311 0.1291072 0.1288868 0.128567 0.1281308 0.1275641 0.1268866 0.1261649 0.1254963 0.1249781
 0.124681 0.124638 0.1248481 0.1252773 0.1258582 0.1264977 0.1270969 0.1275695 0.1278463 0.127879
 0.1276525 0.1271929 0.1265569 0.125808 0.1249997 0.1241705 0.1233507 0.1225819 0.1219439 0.1215577
 0.1215525 0.1220195 0.1229817 0.1243773 0.1260541 0.1278009 0.1294256 0.1308294 0.1320156 0.1330366
 0.1339411 0.1347618 0.1355258 0.1362537 0.1369523 0.1376169 0.1382432 0.1388317 0.1393804 0.139878
 0.1403072 0.1406506 0.1409001 0.1410636 0.1411613 0.1412136 0.1412352 0.1412394 0.1412343 0.1412043
 0.1411035 0.1408793 0.1405068 0.1400072 0.1394496 0.1389529 0.1386823 0.1388144 0.1394643 0.1406108
 0.1420899 0.1436733 0.1451684 0.1464626 0.1475127 0.1483274 0.1489576 0.1494724 0.1499271 0.1503488
 0.1507468 0.1511254 0.1514888 0.151841 0.1521858 0.1525267 0.1528675 0.1532114 0.1535556 0.153891
 0.1542122 0.1545277 0.154855 0.1552045 0.1555668 0.1559216 0.1562589 0.1565898 0.1569297 0.157277
 0.157616 0.1579385 0.1582524 0.158572 0.1589066 0.1592564 0.15961 0.1599486 0.16026 0.1605497
 0.1608338 0.1611221 0.1614123 0.1616995 0.1619848 0.1622719 0.1625595 0.1628421 0.1631188 0.1633943
 0.1636694 0.1639363 0.164189 0.1644332 0.1646812 0.1649384 0.1652006 0.1654612 0.1657172 0.1659707
 0.1662279 0.1664944 0.1667675 0.1670358 0.1672895 0.1675285 0.1677614 0.1679979 0.1682437 0.1684987
 0.168758 0.1690161 0.1692712 0.1695251 0.1697797 0.1700344 0.1702886 0.1705428 0.1707971 0.1710488
 0.1712949 0.1715366 0.1717796 0.1720282 0.172282 0.1725374 0.1727892 0.1730331 0.1732681 0.1734988
 0.1737307 0.1739646 0.174197 0.1744273 0.1746598 0.1748984 0.1751411 0.1753837 0.1756252 0.1758676
 0.1761111 0.1763548 0.1766004 0.1768497 0.1771007 0.1773487 0.1775914 0.1778301 0.1780683 0.1783092
 0.178552 0.1787919 0.1790254 0.1792554 0.1794873 0.1797223 0.1799575 0.1801903 0.1804208 0.1806508
 0.1808818 0.1811138 0.1813469 0.1815826 0.1818213 0.182061 0.1822994 0.182537 0.1827754 0.183013
 0.1832455 0.1834698 0.1836892 0.1839136 0.1841508 0.1843984 0.1846458 0.1848855 0.1851185 0.1853512
 0.1855891 0.1858331 0.1860783 0.1863192 0.1865543 0.1867861 0.1870182 0.1872552 0.1874991 0.1877463
 0.1879913 0.1882334 0.1884754 0.1887187 0.1889642 0.1892124 0.1894616 0.1897096 0.1899588 0.1902123
 0.1904695 0.1907279 0.1909873 0.1912476 0.191509 0.1917726 0.1920367 0.1922936 0.1925371 0.1927685
 0.1929924 0.1932134 0.1934344 0.1936556 0.1938757 0.1940976 0.1943266 0.1945622 0.194799 0.1950358
 0.1952748 0.1955169 0.1957628 0.1960123 0.1962607 0.1965036 0.1967444 0.1969889 0.1972377 0.1974888
 0.1977426 0.1979993 0.1982587 0.1985231 0.1987926 0.1990615 0.1993253 0.1995848 0.1998423 0.2001018
 0.2003683 0.2006413 0.2009134 0.2011808 0.2014455 0.2017071 0.2019651 0.202226 0.2024952 0.2027704
 0.2030483 0.2033278 0.2036054 0.203879 0.2041513 0.2044213 0.2046837 0.2049439 0.2052162 0.2055037
 0.2057965 0.206086 0.2063669 0.2066356 0.2068974 0.2071614 0.2074275 0.2076919 0.207958 0.2082283
 0.2084988 0.2087677 0.2090335 0.2092834 0.2094966 0.2096266 0.2095342 0.2089186 0.2072844 0.2039574
 0.1982192 0.1895979 0.178164 0.1646058 0.1500306 0.1356115 0.122273 0.1105785 0.1008189 0.09313902
 0.08762006 0.0843525 0.08349946 0.08538865 0.0906356 0.09978297 0.1119512 0.123662 0.1301363 0.1289223
 0.1221241 0.1144905 0.1095376 0.10782 0.1081377 0.1093127 0.1108812 0.1129589 0.1158346 0.1195501
 0.1238571 0.1286319 0.1341156 0.1405506 0.1477093 0.1549785 0.1618761 0.1683673 0.1746791 0.1809133
 0.1868972 0.1923505 0.197102 0.2011471 0.2045901 0.2075758 0.2102318 0.2126426 0.2148649 0.2169318
 0.2188084 0.2203723 0.2214854 0.2221036 0.2223276 0.2223544 0.2223692 0.2224672 0.2226621 0.2229417
 0.223295 0.2237112 0.2241827 0.2247053 0.2252652 0.2258396 0.2264131 0.2269786 0.2275268 0.2280484
 0.2285398 0.2289999 0.229431 0.2298415 0.2302374 0.2306175 0.2309835 0.2313445 0.2317062 0.2320665
 0.2324247 0.2327799 0.2331235 0.2334459 0.2337453 0.2340254 0.2342909 0.2345469 0.2347971 0.235042
 0.2352835 0.2355278 0.2357799 0.2360402 0.2363051 0.2365655 0.2368131 0.2370501 0.2372857 0.2375229
 0.2377568 0.2379862 0.2382155 0.2384481 0.2386858 0.2389298 0.2391792 0.2394304 0.23968 0.2399256
 0.240168 0.2404135 0.2406676 0.2409273 0.241186 0.2414449 0.2417101 0.2419853 0.24227 0.2425604
 0.2428479 0.2431257 0.2433958 0.2436634 0.2439266 0.244177 0.2444094 0.244626 0.2448377 0.2450602
 0.2453021 0.2455583 0.2458163 0.2460667 0.2463069 0.2465415 0.2467795 0.2470261 0.2472802 0.2475428
 0.247819 0.2481066 0.2483951 0.248679 0.2489629 0.2492503 0.2495393 0.249829 0.25012 0.250409
 0.2506908 0.2509672 0.2512505 0.2515568 0.2518897 0.2522321 0.2525592 0.2528641 0.2531617 0.2534705
 0.2537966 0.2541295 0.2544438 0.2547165 0.254957 0.2552106 0.255519 0.255881 0.2562618 0.2566301
 0.2569782 0.2573135 0.2576405 0.2579548 0.2582474 0.2585118 0.258756 0.2590115 0.2593165 0.259677
 0.2600564 0.2604143 0.2607407 0.2610442 0.2613328 0.261614 0.2618834 0.2621071 0.2622561 0.2623774
 0.262587 0.2629598 0.2634444 0.2639161 0.264301 0.2646216 0.2649303 0.2652441 0.265552 0.265826
 0.2659941 0.2659771 0.2658318 0.2657961 0.2660931 0.2667058 0.2674108 0.2680063 0.2684438 0.2687767
 0.2690664 0.2693437 0.2695908 0.2697435 0.2697596 0.2697172 0.2698043 0.2701482 0.2706727 0.2711829
 0.2715719 0.2718797 0.2721791 0.27249 0.2727727 0.2729133 0.2727703 0.2723706 0.2720459 0.2722185
 0.272992 0.2740318 0.2748997 0.2754428 0.2757918 0.276055 0.2761605 0.2759922 0.2755317 0.2748618
 0.2742142 0.2740146 0.2746044 0.2758061 0.2769944 0.2777253 0.2781175 0.2785389 0.2791258 0.2797241
 0.2801425 0.2803256 0.2803239 0.2801797 0.2799046 0.27961 0.2795867 0.2800985 0.2810723 0.2821175
 0.2828957 0.2833897 0.2837394 0.2838418 0.2832514 0.2817087 0.2798218 0.2789088 0.2798265 0.2820685
 0.2843134 0.2857314 0.2864396 0.2868808 0.2872497 0.2874377 0.2870229 0.2854114 0.2826414 0.2800836
 0.2796081 0.2817405 0.2850755 0.2876412 0.2884036 0.2874743 0.2856112 0.2838721 0.283239 0.2840807
 0.285997 0.2882281 0.2901126 0.291266 0.2916033 0.2913011 0.2907276 0.2903454 0.2904198 0.290623
 0.2902413 0.2891042 0.2879128 0.2871554 0.2862049 0.2843418 0.2823658 0.2820954 0.2841226 0.2869578
 0.2887571 0.2892088 0.289197 0.2890169 0.2876487 0.2840977 0.2792373 0.2757838 0.2759693 0.2793103
 0.283089 0.2850261 0.2850813 0.2846677 0.2846649 0.284493 0.2829787 0.2800202 0.2772272 0.27648
 0.2778167 0.2793648 0.2794064 0.2775778 0.2739672 0.2686939 0.2633356 0.2612075 0.2644319 0.2712927
 0.2777551 0.280947 0.2800456 0.2750639 0.2671551 0.2598736 0.2575746 0.2613892 0.2679035 0.2724694
 0.272868 0.2693866 0.2629194 0.2545872 0.246731 0.2426206 0.2443753 0.2512682 0.2598453 0.2654017
 0.2643902 0.2572801 0.2492719 0.2463668 0.2497148 0.2548662 0.2570104 0.2554994 0.2528231 0.2512144
 0.251426 0.2531727 0.2554542 0.2573397 0.2586809 0.2587811 0.2550699 0.2459406 0.2349717 0.2290352
 0.2312191 0.2383322 0.2460964 0.2534534 0.2602238 0.2640301 0.2628208 0.2589462 0.2576672 0.2615342
 0.2679514 0.2724917 0.2733953 0.2722846 0.2712154 0.2702208 0.2683542 0.2663606 0.266697 0.2704828
 0.2757546 0.2795954 0.281054 0.2811535 0.2809455 0.2806247 0.2800583 0.279217 0.2781375 0.2769419
 0.2758326 0.2748672 0.2739133 0.2729122 0.2718104 0.2699738 0.2662348 0.2604124 0.2546214 0.2518199
 0.2527038 0.2552609 0.2576527 0.259547 0.2597272 0.2550996 0.2447379 0.2335074 0.2287181 0.233058
 0.242453 0.250635 0.2540992 0.2525432 0.2467405 0.2381755 0.2305139 0.2289787 0.2363349 0.2499811
 0.2642602 0.2752313 0.2821858 0.2854716 0.2849633 0.2811529 0.2764142 0.2740766 0.2761317 0.281916
 0.2886248 0.2926309 0.2910519 0.284108 0.2767093 0.2755102 0.2823254 0.2917336 0.2970638 0.2973925
 0.2966073 0.2972301 0.2982376 0.2984566 0.2989852 0.3013173 0.3048823 0.3075195 0.307424 0.3039063
 0.2973841 0.2899262 0.2849399 0.2844752 0.2869607 0.2890137 0.2889237 0.2866891 0.281884 0.2745866
 0.26806 0.2670042 0.2722127 0.2793692 0.283965 0.2854961 0.2860765 0.2866324 0.2858144 0.282267
 0.2770417 0.2731495 0.2726129 0.2745597 0.2766643 0.2776665 0.2775693 0.2761848 0.2731522 0.2695028
 0.2677899 0.2698154 0.2746964 0.2797232 0.2828479 0.283929 0.2839353 0.2836983 0.2834752 0.2831134
 0.2824542 0.2818904 0.2823898 0.2844647 0.2872673 0.2893568 0.2903604 0.2912861 0.2931184 0.295624
 0.2977206 0.298676 0.2987531 0.2988616 0.299727 0.3012896 0.3027655 0.3033428 0.3029858 0.3025765
 0.3031228 0.3047957 0.3068677 0.308544 0.3096261 0.3103924 0.3111417 0.3119427 0.3126063 0.3128464
 0.3126605 0.3125554 0.3131645 0.3145835 0.3162509 0.3175161 0.3181723 0.3184088 0.3184324 0.3182727
 0.3178948 0.3173681 0.3168733 0.3165638 0.3164598 0.3164733 0.3165053 0.3165055 0.3164753 0.3164537
 0.3164909 0.3166077 0.3167825 0.3169872 0.3172082 0.3174238 0.3175953 0.3177081 0.3177912 0.3178665
 0.3178998 0.3178216 0.3175744 0.3171212 0.3164259 0.3154504 0.3141615 0.3125227 0.3105056 0.3081852
 0.3058894 0.3042244 0.3038256 0.3049598 0.3073145 0.3101704 0.3128068 0.3148115 0.3161231 0.3168818
 0.3172675 0.3174194 0.3174238 0.3173225 0.317131 0.3168612 0.3165337 0.316173 0.3158033 0.3154498
 0.3151325 0.3148542 0.3145949 0.3143195 0.313994 0.3135997 0.3131363 0.3126111 0.3120259 0.3113706
 0.3106234 0.3097634 0.3087954 0.3077649 0.3067423 0.3057836 0.3048987 0.3040515 0.3031888 0.3022648
 0.3012289 0.3000173 0.2986158 0.2971464 0.2958347 0.2948307 0.2940759 0.2933708 0.292549 0.2915612
 0.2904335 0.2892058 0.287914 0.2865866 0.2852362 0.2838534 0.2824126 0.2808841 0.2792497 0.2775142
 0.2756982 0.2738236 0.2719076 0.2699617 0.2679711 0.2658648 0.2635118 0.2607555 0.2574587 0.2535293
 0.2489361 0.2437348 0.2380839 0.2322166 0.2263745 0.2207562 0.2155145 0.2107789 0.2066684 0.2032856
 0.200704 0.1989605 0.1980644 0.1980125 0.1987946 0.2003811 0.2027044 0.2056477 0.2090473 0.2127068
 0.2164209 0.2200061 0.2233397 0.2263912 0.2292081 0.2318481 0.2343172 0.2365749 0.2385867 0.2403507
 0.2418779 0.2431697 0.244227 0.2450746 0.2457635 0.2463496 0.2468678 0.247323 0.2477004 0.2479877
 0.2481924 0.2483428 0.2484765 0.2486261 0.2488092 0.2490271 0.2492758 0.2495618 0.2499062 0.2503339
 0.2508585 0.2514752 0.2521623 0.2528954 0.2536667 0.254492 0.255399 0.2564153 0.2575673 0.2588787
 0.2603572 0.2619762 0.2636655 0.2653196 0.2668217 0.268075 0.269028 0.2696805 0.2700643 0.2702127
 0.2701473 0.2698888 0.2694674 0.2689165 0.2682658 0.2675427 0.2667687 0.2659493 0.2650746 0.2641368
 0.263145 0.2621246 0.2611045 0.2601021 0.2591227 0.25817 0.2572506 0.256366 0.255509 0.2546726
 0.2538574 0.2530705 0.2523233 0.2516247 0.2509657 0.2503152 0.2496288 0.2488619 0.2479786 0.246958
 0.2457913 0.2444728 0.2429997 0.2413812 0.2396367 0.2377855 0.2358412 0.2338112 0.2317011 0.2295194
 0.2272709 0.2249461 0.2225434 0.220111 0.2177465 0.2155371 0.2135119 0.21165 0.2099142 0.2082745
 0.2067155 0.2052298 0.2038089 0.2024456 0.2011403 0.1998954 0.1987122 0.1975978 0.1965649 0.195623
 0.1947818 0.1940534 0.1934374 0.1929137 0.1924611 0.1920753 0.1917695 0.1915738 0.1915191 0.1915964
 0.191737 0.1918485 0.1918713 0.1918064 0.1917052 0.191628 0.1916023 0.1916196 0.1916558 0.1916646
 0.1915578 0.191228 0.1905868 0.1895743 0.1881612 0.1863693 0.1842802 0.1820219 0.1797556 0.1776497
 0.1758365 0.1743861 0.1733047 0.1725294 0.1719451 0.1714594 0.1710707 0.1708588 0.1709131 0.1712402
 0.1717015 0.1720783 0.1722635 0.1723776 0.1726584 0.1732583 0.1741575 0.1752137 0.1762615 0.1771911
 0.1779588 0.1785489 0.178964 0.1792404 0.1794192 0.1795036 0.1794736 0.1793217 0.1790521 0.1786764
 0.1782176 0.1776852 0.1770604 0.1763298 0.1755036 0.1745844 0.1735654 0.1724495 0.171225 0.1698606
 0.1684035 0.1670571 0.1661085 0.1657785 0.1661117 0.1669502 0.1680386 0.1691971 0.1703503 0.1713981
 0.1722133 0.1728483 0.1736366 0.1749728 0.176974 0.1793579 0.1816432 0.183463 0.1846824 0.1852924
 0.1853259 0.1848593 0.183951 0.1825825 0.1807567 0.1785896 0.1762306 0.1738055 0.1714678 0.1693649
 0.1675605 0.1660783 0.1649244 0.1640848 0.1636126 0.1632225 0.1612886 0.1554167 0.1458568 0.1376908
 0.1369757 0.1441977 0.1535706 0.1592422 0.1602551 0.1591042 0.1578436 0.1569109 0.1562266 0.1558654
 0.1558856 0.1561793 0.1565173 0.156659 0.1564996 0.1560474 0.1551636 0.1533364 0.1496895 0.1432969
 0.1338688 0.122384 0.1108759 0.1013524 0.09481122 0.09104401 0.08907095 0.08781543 0.08672144 0.08594778
 0.08600289 0.0872248 0.0895962 0.09289952 0.09687272 0.1011821 0.1053686 0.1089845 0.1118256 0.1139561
 0.1155009 0.116506 0.1169965 0.1170459 0.1167489 0.1161872 0.1154239 0.1144779 0.1133153 0.1119159
 0.1103644 0.1088711 0.1076805 0.1069181 0.106519 0.1063267 0.1062398 0.1062367 0.1063091 0.1064339
 0.1065905 0.1067738 0.1070018 0.1073025 0.1076648 0.1080208 0.1082994 0.1084801 0.1085826 0.1086191
 0.1085579 0.1083403 0.1079665 0.1075339 0.1071067 0.1065621 0.1056864 0.1044595 0.1031801 0.102276
 0.1020049 0.102301 0.1028538 0.1033336 0.1035879 0.1036626 0.1036661 0.1036208 0.1034363 0.1030185
</values></Ydata></ScRf><Data_Parameters_AB><parameter name="DPF">1</parameter><parameter name="NPT">3497</parameter><parameter name="FXV">3996</parameter><parameter name="LXV">500</parameter><parameter name="CSF">1</parameter><parameter name="MXY">0.00226304493844509</parameter><parameter name="MNY">-0.0522859618067741</parameter><parameter name="DAT">13/02/2024</parameter><parameter name="TIM">13:14:56.128 (GMT+1)</parameter><parameter name="DXU">WN</parameter></Data_Parameters_AB><AB__Qtest><MainReport name="Quality Test Report"><Header><Line><Legend>Test result ok/not ok [1/0]: </Legend><Value>0</Value></Line><Line><Legend>Method file: </Legend><Value>C:\Users\Public\Documents\Bruker\OPUS_8.2.28\QT\IRBT_v3_default.QT</Value></Line></Header><Matrix><Line><Legend></Legend><Legend>min</Legend><Legend>max</Legend><Legend>measured</Legend></Line><Line><Value>Absorption (X-Range 1):</Value><Value>0.400000</Value><Value>2.000000</Value><Value>0.032627</Value></Line><Line><Value>Noise (X-Range 4):</Value><Value></Value><Value>0.000300</Value><Value>0.000030</Value></Line><Line><Value>Signal/Noise (X-Range 2):</Value><Value>200.000000</Value><Value></Value><Value>22.624034</Value></Line><Line><Value>Signal/Noise (X-Range 3):</Value><Value>40.000000</Value><Value></Value><Value>5.612353</Value></Line><Line><Value>Water vapour (X-Range 5):</Value><Value></Value><Value>0.000300</Value><Value>0.000007</Value></Line><Line><Value>Signal/Water (X-Range 2):</Value><Value>100.000000</Value><Value></Value><Value>99.092576</Value></Line><Line><Value>Signal/Water (X-Range 3):</Value><Value>20.000000</Value><Value></Value><Value>24.581934</Value></Line><Line><Value>Fringes (X-Range 6):</Value><Value></Value><Value>0.000100</Value><Value>0.000030</Value></Line></Matrix></MainReport></AB__Qtest><Data_Parameters_ScSm><parameter name="DPF">1</parameter><parameter name="NPT">1814</parameter><parameter name="FXV">3996.63438082617</parameter><parameter name="LXV">499.579297603271</parameter><parameter name="CSF">1</parameter><parameter name="MXY">0.329456329345703</parameter><parameter name="MNY">0.0772836729884148</parameter><parameter name="DAT">13/02/2024</parameter><parameter name="TIM">13:14:56.128 (GMT+1)</parameter><parameter name="DXU">WN</parameter></Data_Parameters_ScSm><Data_Parameters_ScRf><parameter name="DPF">1</parameter><parameter name="NPT">1820</parameter><parameter name="FXV">4004.34989121387</parameter><parameter name="LXV">495.721542409425</parameter><parameter name="CSF">1</parameter><parameter name="MXY">0.31843239068985</parameter><parameter name="MNY">0.0686004310846329</parameter><parameter name="DAT">13/02/2024</parameter><parameter name="TIM">13:14:29.815 (GMT+1)</parameter><parameter name="DXU">WN</parameter></Data_Parameters_ScRf><Optic_Parameters_Rf><parameter name="APR">0</parameter><parameter name="APT">Open</parameter><parameter name="BMS">KBr</parameter><parameter name="DTC">RT-DLaTGS_IR-Biotyper [Microplate reader]</parameter><parameter name="HPF">0</parameter><parameter name="LPF">10.0</parameter><parameter name="LPV">4000</parameter><parameter name="PGR">0</parameter><parameter name="RCH">Module port</parameter><parameter name="RDX">0</parameter><parameter name="SRC">MIR</parameter><parameter name="VEL">10.0</parameter><parameter name="SON">Off</parameter></Optic_Parameters_Rf><Acquisition_Parameters_Rf><parameter name="ADT">1</parameter><parameter name="AQM">DD</parameter><parameter name="CFE">0</parameter><parameter name="COR">0</parameter><parameter name="DEL">0</parameter><parameter name="DLY">0</parameter><parameter name="HFW">8000</parameter><parameter name="LFW">0</parameter><parameter name="NSR">32</parameter><parameter name="PLF">AB</parameter><parameter name="RES">6</parameter><parameter name="RGN">-1</parameter><parameter name="STR">0</parameter><parameter name="TCL">MakeCompatibleScalar (0, {WSV=1.000000, ARV=0});</parameter><parameter name="TDL">37</parameter><parameter name="RPO">0</parameter></Acquisition_Parameters_Rf><FT_-_Parameters_Rf><parameter name="APF">B3</parameter><parameter name="HFQ">500</parameter><parameter name="LFQ">4000</parameter><parameter name="NLI">0</parameter><parameter name="PHR">24</parameter><parameter name="PHZ">ML</parameter><parameter name="SPZ">NO</parameter><parameter name="ZFF">1</parameter></FT_-_Parameters_Rf><Optic_Parameters_><parameter name="APR">0</parameter><parameter name="APT">Open</parameter><parameter name="BMS">KBr</parameter><parameter name="CHN">Module port</parameter><parameter name="DTC">RT-DLaTGS_IR-Biotyper [Microplate reader]</parameter><parameter name="HPF">0</parameter><parameter name="LPF">10.0</parameter><parameter name="LPV">4000</parameter><parameter name="PGN">0</parameter><parameter name="RDX">0</parameter><parameter name="SRC">MIR</parameter><parameter name="VEL">10.0</parameter><parameter name="SON">Off</parameter></Optic_Parameters_><FT_-_Parameters_><parameter name="APF">B3</parameter><parameter name="HFQ">500</parameter><parameter name="LFQ">4000</parameter><parameter name="NLI">0</parameter><parameter name="PHR">24</parameter><parameter name="PHZ">ML</parameter><parameter name="SPZ">NO</parameter><parameter name="ZFF">1</parameter></FT_-_Parameters_><Acquisition_Parameters_><parameter name="ADT">1</parameter><parameter name="AQM">DD</parameter><parameter name="CFE">0</parameter><parameter name="COR">0</parameter><parameter name="DEL">0</parameter><parameter name="DLY">0</parameter><parameter name="HFW">8000</parameter><parameter name="LFW">0</parameter><parameter name="NSS">32</parameter><parameter name="PLF">AB</parameter><parameter name="RES">6</parameter><parameter name="SOT">0</parameter><parameter name="TCL">MakeCompatibleScalar (0, {WSV=1.000000, ARV=0});</parameter><parameter name="TDL">37</parameter><parameter name="SPO">0</parameter><parameter name="SGN">-1</parameter></Acquisition_Parameters_><Instrument_Parameters_Rf><parameter name="HFL">15801.365274</parameter><parameter name="LFL">0</parameter><parameter name="LWN">15801.365274</parameter><parameter name="ABP">32157</parameter><parameter name="SSP">1</parameter><parameter name="ARG">2</parameter><parameter name="ASG">2</parameter><parameter name="ASS">32</parameter><parameter name="GFW">16</parameter><parameter name="GBW">16</parameter><parameter name="BFW">0</parameter><parameter name="BBW">0</parameter><parameter name="PKA">9174</parameter><parameter name="PKL">5009</parameter><parameter name="PRA">9176</parameter><parameter name="PRL">4988</parameter><parameter name="P2A">1</parameter><parameter name="P2L">1</parameter><parameter name="P2R">1</parameter><parameter name="P2K">1</parameter><parameter name="DAQ">0</parameter><parameter name="AG2">1</parameter><parameter name="SSM">1</parameter><parameter name="RSN">48117</parameter><parameter name="CRR">0</parameter><parameter name="SRT">1707830069.815</parameter><parameter name="DUR">19.6389923095703</parameter><parameter name="TSC">30</parameter><parameter name="MVD">0.261846154928207</parameter><parameter name="AN1">0.225932224291726</parameter><parameter name="AN2">0</parameter><parameter name="VSN">2.485 Apr  4 2017</parameter><parameter name="SRN">0085</parameter><parameter name="CAM">0</parameter><parameter name="INS">IR-Biotyper</parameter><parameter name="FOC">69</parameter><parameter name="RDY">1</parameter><parameter name="ARS">32</parameter></Instrument_Parameters_Rf><Sample_Parameters_><parameter name="BLD"></parameter><parameter name="CNM">Admin</parameter><parameter name="CPY"></parameter><parameter name="DPM"></parameter><parameter name="EXP">IRBT_v3_32Scans.XPM</parameter><parameter name="LCT"></parameter><parameter name="SFM">Microplate, HTS-XT</parameter><parameter name="SNM">240213-1206-Cdiff_SCFA_3_GDA_C36_242152808_A4_101dd658-3bc9-4321-b36d-95c4feb7e1dd.0</parameter><parameter name="XPP">C:\Users\Public\Documents\Bruker\OPUS_8.2.28\XPM</parameter><parameter name="IST">OK</parameter><parameter name="CPG">1252</parameter><parameter name="UID">15ee743f-0801-4f41-9f55-e870010c9a66</parameter></Sample_Parameters_><Instrument_Parameters_><parameter name="HFL">15801.365274</parameter><parameter name="LFL">0</parameter><parameter name="LWN">15801.365274</parameter><parameter name="ABP">32157</parameter><parameter name="SSP">1</parameter><parameter name="ASG">2</parameter><parameter name="ARG">2</parameter><parameter name="ASS">32</parameter><parameter name="GFW">16</parameter><parameter name="GBW">16</parameter><parameter name="BFW">0</parameter><parameter name="BBW">0</parameter><parameter name="PKA">9739</parameter><parameter name="PKL">5009</parameter><parameter name="PRA">9804</parameter><parameter name="PRL">4988</parameter><parameter name="P2A">1</parameter><parameter name="P2L">1</parameter><parameter name="P2R">1</parameter><parameter name="P2K">1</parameter><parameter name="DAQ">0</parameter><parameter name="AG2">1</parameter><parameter name="SSM">1</parameter><parameter name="RSN">24756</parameter><parameter name="CRR">0</parameter><parameter name="SRT">1707830096.128</parameter><parameter name="DUR">19.6389923095703</parameter><parameter name="TSC">29.9</parameter><parameter name="MVD">0.329928189516068</parameter><parameter name="AN1">0.225973600216809</parameter><parameter name="AN2">0</parameter><parameter name="VSN">2.485 Apr  4 2017</parameter><parameter name="SRN">0085</parameter><parameter name="CAM">0</parameter><parameter name="INS">IR-Biotyper</parameter><parameter name="FOC">69</parameter><parameter name="RDY">1</parameter></Instrument_Parameters_><History/></OPUSDataFile>
