<?xml version="1.0" encoding="UTF-8" ?>
<OPUSDataFile><AB><Ydata ylabel="Absorbance Units"><values byteorder="INTEL" format="FLOAT32" numvalues="3497"> -0.05674314 -0.05670933 -0.05667876 -0.05665224 -0.05663295 -0.0566196 -0.05661067 -0.05660564 -0.05660313 -0.056603
 -0.05660504 -0.05660794 -0.0566108 -0.05661244 -0.05661196 -0.05660913 -0.05660387 -0.05659528 -0.05658319 -0.05656655
 -0.05654466 -0.05652144 -0.0564969 -0.05647959 -0.0564699 -0.0564717 -0.05648427 -0.05650157 -0.05652235 -0.05653666
 -0.05654455 -0.05654065 -0.05652628 -0.0565013 -0.05646794 -0.05642864 -0.0563875 -0.05634879 -0.05631795 -0.05630068
 -0.05629842 -0.05631514 -0.05634346 -0.05638338 -0.05642144 -0.05645478 -0.05647357 -0.05647532 -0.05646056 -0.05642879
 -0.05638739 -0.05633675 -0.05628451 -0.05623103 -0.05618262 -0.05613974 -0.05610846 -0.05608847 -0.05608289 -0.05608912
 -0.05610373 -0.05612254 -0.05613732 -0.05614627 -0.05614338 -0.05613163 -0.05611069 -0.05608567 -0.05605933 -0.05603398
 -0.05601146 -0.05599057 -0.05597134 -0.05595267 -0.0559342 -0.05591705 -0.05590134 -0.0558869 -0.0558737 -0.05585814
 -0.05584018 -0.05581757 -0.05579146 -0.05576692 -0.05574565 -0.05573671 -0.05573943 -0.05575778 -0.0557878 -0.05582568
 -0.05586642 -0.05590356 -0.05593264 -0.05594818 -0.05594842 -0.05592958 -0.05589703 -0.0558499 -0.05580169 -0.05575508
 -0.05572154 -0.05570428 -0.05570115 -0.05571293 -0.05572595 -0.05573953 -0.05574279 -0.05573601 -0.05571966 -0.05569474
 -0.05566728 -0.05563759 -0.05560978 -0.05558385 -0.05556182 -0.0555436 -0.05553031 -0.05552061 -0.05551395 -0.05550778
 -0.05550009 -0.05548881 -0.05547185 -0.05544987 -0.05542172 -0.05539243 -0.05536244 -0.05533867 -0.05532253 -0.0553165
 -0.05532138 -0.05533195 -0.05534796 -0.05536274 -0.05537639 -0.0553886 -0.05539993 -0.05541436 -0.05543073 -0.05544784
 -0.0554624 -0.05546507 -0.05545577 -0.05542801 -0.05538889 -0.05534378 -0.05529914 -0.05526306 -0.05523479 -0.05521704
 -0.05520413 -0.05519481 -0.0551837 -0.05516889 -0.0551491 -0.05512339 -0.05509512 -0.05506434 -0.05503627 -0.05501121
 -0.05499223 -0.05497924 -0.05497142 -0.05496855 -0.05496861 -0.05497183 -0.05497803 -0.05498733 -0.05500052 -0.05501602
 -0.05503226 -0.05504594 -0.05505252 -0.05505013 -0.05503466 -0.05500932 -0.05497392 -0.05493459 -0.05489363 -0.054855
 -0.05482031 -0.05479062 -0.05476624 -0.05474824 -0.05473681 -0.05473186 -0.05473343 -0.05473609 -0.05473934 -0.05473424
 -0.05472095 -0.05469534 -0.0546596 -0.05461963 -0.05457782 -0.05454386 -0.05451692 -0.05450075 -0.05449159 -0.05448633
 -0.05448235 -0.05447587 -0.05446754 -0.0544566 -0.05444442 -0.05443178 -0.05441777 -0.05440242 -0.05438409 -0.05436221
 -0.05433783 -0.05431078 -0.05428489 -0.05426038 -0.05424026 -0.0542246 -0.05421438 -0.05420964 -0.05421113 -0.0542188
 -0.05423358 -0.05425404 -0.05427798 -0.05430173 -0.05431809 -0.05432388 -0.05431085 -0.05428214 -0.05423558 -0.05418129
 -0.05412416 -0.05407253 -0.05403201 -0.05400177 -0.05398341 -0.05397075 -0.0539626 -0.05395702 -0.05395337 -0.0539546
 -0.05396088 -0.0539724 -0.05398881 -0.05400378 -0.05401674 -0.05402067 -0.05401583 -0.05399942 -0.05397222 -0.05393407
 -0.05388733 -0.05383463 -0.05378167 -0.0537365 -0.05370319 -0.05368991 -0.05369195 -0.05371118 -0.05373413 -0.05375641
 -0.053766 -0.05375719 -0.05373168 -0.05368757 -0.05363756 -0.0535828 -0.05353311 -0.05348928 -0.05345345 -0.05342555
 -0.05340391 -0.05338823 -0.05337566 -0.05336576 -0.05335507 -0.05334369 -0.05332962 -0.05331447 -0.05330004 -0.05328815
 -0.05328288 -0.05328215 -0.05328709 -0.05329066 -0.053289 -0.05327696 -0.05324974 -0.05321245 -0.05316456 -0.05311615
 -0.05306942 -0.05302827 -0.05299387 -0.05296242 -0.05293375 -0.05290381 -0.0528726 -0.05284083 -0.05280877 -0.05277877
 -0.05275068 -0.05272493 -0.05270153 -0.05268066 -0.05266253 -0.05264813 -0.05263605 -0.05262547 -0.05261336 -0.05259617
 -0.05257368 -0.05254371 -0.05251051 -0.05247517 -0.05244168 -0.05241201 -0.05238534 -0.05236225 -0.05233869 -0.05231413
 -0.05228707 -0.0522573 -0.0522269 -0.05219588 -0.05216402 -0.05213061 -0.05208976 -0.05204095 -0.05197791 -0.05190255
 -0.05181589 -0.05172251 -0.05163136 -0.05154642 -0.05147737 -0.0514238 -0.05138988 -0.05137036 -0.05136379 -0.05136367
 -0.05136718 -0.05136893 -0.05136717 -0.05135687 -0.05133677 -0.05130371 -0.0512567 -0.05119875 -0.05112983 -0.05105803
 -0.05098374 -0.05091334 -0.05084676 -0.05078636 -0.05073161 -0.05068167 -0.05063562 -0.05059045 -0.05054544 -0.05049738
 -0.05044701 -0.05039394 -0.05033908 -0.05028356 -0.05022664 -0.05016836 -0.05010736 -0.05004226 -0.04997548 -0.04990695
 -0.04984124 -0.04977947 -0.04972345 -0.04967389 -0.04962816 -0.04958623 -0.04954381 -0.0495007 -0.04945385 -0.04940324
 -0.04934764 -0.04928694 -0.04922004 -0.04914684 -0.0490661 -0.04897877 -0.04888548 -0.04878897 -0.04869297 -0.04860043
 -0.04851592 -0.04843983 -0.04837443 -0.04831694 -0.0482672 -0.04822071 -0.04817621 -0.04812995 -0.04808078 -0.04802777
 -0.04797048 -0.04791056 -0.04784809 -0.04778425 -0.04771906 -0.04765184 -0.0475826 -0.04751097 -0.04743757 -0.04736511
 -0.04729443 -0.04723004 -0.0471712 -0.04711924 -0.04707154 -0.04702502 -0.04697739 -0.04692471 -0.04686766 -0.04680525
 -0.04673945 -0.04667126 -0.04660076 -0.04652829 -0.04645303 -0.04637433 -0.04629502 -0.04621521 -0.04613888 -0.04606654
 -0.04599659 -0.04592887 -0.04585826 -0.04578491 -0.04570832 -0.04562923 -0.04555161 -0.04547508 -0.04540079 -0.04532741
 -0.04525213 -0.04517527 -0.04509576 -0.04501503 -0.04493468 -0.04485402 -0.0447735 -0.04469081 -0.04460441 -0.04451481
 -0.04442123 -0.04432739 -0.04423389 -0.04414354 -0.04405681 -0.0439752 -0.04389879 -0.04383034 -0.04376999 -0.04371945
 -0.04367813 -0.04364111 -0.04360692 -0.04356517 -0.04351583 -0.04345217 -0.04337765 -0.04329567 -0.043211 -0.04313296
 -0.04306224 -0.04300461 -0.04295422 -0.04290956 -0.04286288 -0.04280948 -0.04274673 -0.04267156 -0.04258906 -0.04249917
 -0.0424102 -0.04232344 -0.04224335 -0.04217063 -0.04210347 -0.04204176 -0.04198178 -0.04192359 -0.0418667 -0.04181144
 -0.04175961 -0.04171082 -0.04166504 -0.041621 -0.04157572 -0.04152879 -0.04147786 -0.04142411 -0.04136784 -0.04131033
 -0.0412529 -0.04119523 -0.04113779 -0.04107903 -0.0410185 -0.04095524 -0.04088876 -0.04081965 -0.04074783 -0.04067491
 -0.04060102 -0.04052716 -0.04045339 -0.04037967 -0.0403061 -0.04023364 -0.04016257 -0.04009504 -0.04003109 -0.0399725
 -0.03991808 -0.03986633 -0.03981555 -0.03976207 -0.03970604 -0.03964546 -0.03958326 -0.03952089 -0.03946087 -0.03940549
 -0.03935355 -0.03930542 -0.03925817 -0.03921077 -0.0391637 -0.03911658 -0.03907268 -0.03903237 -0.03899604 -0.03896372
 -0.03893206 -0.03890094 -0.03886782 -0.0388329 -0.03879619 -0.03875764 -0.03871718 -0.03867426 -0.03862733 -0.03857664
 -0.03852175 -0.03846355 -0.03840304 -0.03834033 -0.03827593 -0.03820943 -0.03814026 -0.03806998 -0.03799854 -0.0379293
 -0.03786303 -0.03780198 -0.0377468 -0.03769727 -0.03765348 -0.03761439 -0.03757994 -0.0375495 -0.03752298 -0.03749933
 -0.03747842 -0.03745885 -0.03744046 -0.03742217 -0.03740343 -0.03738284 -0.03735907 -0.03732929 -0.03729275 -0.03724669
 -0.0371934 -0.0371328 -0.03707013 -0.03700808 -0.03695051 -0.03690049 -0.03685506 -0.03681503 -0.03677186 -0.03672418
 -0.03666696 -0.03659897 -0.03652621 -0.03644893 -0.03637904 -0.03631657 -0.03626512 -0.03622312 -0.03618248 -0.03614258
 -0.03609564 -0.03604503 -0.03599459 -0.03594833 -0.03591616 -0.03589591 -0.03589062 -0.03589211 -0.03589472 -0.03589291
 -0.03588065 -0.03586106 -0.03583321 -0.03580399 -0.0357755 -0.03574958 -0.03572757 -0.03570436 -0.03567966 -0.03564782
 -0.03560846 -0.0355615 -0.03550735 -0.0354519 -0.03539567 -0.03534514 -0.03529994 -0.03526241 -0.03523118 -0.03520413
 -0.03517989 -0.03515512 -0.03512927 -0.03510021 -0.03506837 -0.03503313 -0.03499592 -0.03495711 -0.03491867 -0.03488131
 -0.03484678 -0.03481576 -0.03478866 -0.03476597 -0.03474524 -0.03472656 -0.0347044 -0.03467844 -0.03464289 -0.03459775
 -0.03454195 -0.03447653 -0.03440764 -0.03433676 -0.03427314 -0.03421694 -0.03417408 -0.03414208 -0.03412023 -0.03410398
 -0.03408793 -0.0340679 -0.03403818 -0.03399806 -0.03394452 -0.03388204 -0.03381091 -0.03373818 -0.03366559 -0.03359869
 -0.03353892 -0.03348776 -0.03344573 -0.03341056 -0.03338217 -0.03335591 -0.03333149 -0.03330354 -0.03327181 -0.03323205
 -0.03318417 -0.03312524 -0.03305601 -0.03297615 -0.03288852 -0.03279691 -0.03270648 -0.03262504 -0.03255598 -0.03250611
 -0.03247243 -0.03245642 -0.03244985 -0.03244996 -0.03245015 -0.0324477 -0.03244122 -0.03242977 -0.03241514 -0.03239724
 -0.03237969 -0.03236266 -0.0323513 -0.03234582 -0.03235019 -0.03236403 -0.03238662 -0.03241723 -0.03245246 -0.03249219
 -0.03253448 -0.03257937 -0.03262647 -0.03267452 -0.03272204 -0.03276733 -0.03280782 -0.03284443 -0.0328759 -0.03290736
 -0.03293986 -0.03298026 -0.033031 -0.03309463 -0.033173 -0.03326 -0.03335571 -0.03344849 -0.03353754 -0.03361551
 -0.03368254 -0.03374185 -0.03379451 -0.03384993 -0.03390828 -0.03397579 -0.03405099 -0.03413352 -0.03422093 -0.03430884
 -0.03439481 -0.03447378 -0.03454499 -0.03460526 -0.03465736 -0.03470135 -0.03474233 -0.03478232 -0.03482517 -0.03487264
 -0.03492529 -0.03498388 -0.03504569 -0.03511097 -0.03517251 -0.03522993 -0.03527415 -0.03530503 -0.03532078 -0.03532288
 -0.03532162 -0.03531881 -0.0353283 -0.03534924 -0.03538715 -0.03543862 -0.03549999 -0.03556798 -0.03563711 -0.03570452
 -0.03576611 -0.03581924 -0.03586075 -0.03589067 -0.03590709 -0.03591562 -0.03591684 -0.03591846 -0.03592228 -0.03593178
 -0.03594796 -0.03596834 -0.03599286 -0.0360173 -0.0360415 -0.03606342 -0.03608334 -0.03610254 -0.03612148 -0.03614292
 -0.03616674 -0.03619422 -0.03622456 -0.03625694 -0.03629031 -0.03632318 -0.03635416 -0.03638149 -0.03640414 -0.03642022
 -0.03643192 -0.03643862 -0.03644688 -0.03645833 -0.03647861 -0.03650995 -0.03654992 -0.03659908 -0.036649 -0.03669911
 -0.03674344 -0.03678192 -0.03681575 -0.03684549 -0.03687647 -0.03690896 -0.0369471 -0.03699024 -0.03703919 -0.03709188
 -0.03714516 -0.03719622 -0.03723971 -0.03727455 -0.0372969 -0.03730967 -0.03731292 -0.03731172 -0.03730845 -0.03730603
 -0.0373063 -0.03730812 -0.0373117 -0.03731479 -0.03731683 -0.03731904 -0.03732133 -0.03732859 -0.03734104 -0.03736291
 -0.03739382 -0.03743245 -0.03747768 -0.03752336 -0.03756898 -0.03760952 -0.03764576 -0.03767694 -0.03770384 -0.03772762
 -0.0377477 -0.03776403 -0.03777584 -0.03778193 -0.03778422 -0.03778264 -0.0377814 -0.03778169 -0.03778682 -0.03779795
 -0.03781515 -0.03783874 -0.03786682 -0.03789933 -0.03793338 -0.0379688 -0.03800254 -0.03803435 -0.03806097 -0.03808211
 -0.03809468 -0.03809832 -0.03808989 -0.03807016 -0.03803824 -0.03799768 -0.03795229 -0.03790744 -0.03787026 -0.03784275
 -0.03782996 -0.03782675 -0.03783276 -0.03784036 -0.03784636 -0.03784908 -0.03784674 -0.03784478 -0.03784367 -0.03784857
 -0.03786019 -0.03787652 -0.03789735 -0.03791565 -0.03793118 -0.03793847 -0.03793803 -0.03792946 -0.03791347 -0.0378921
 -0.03786581 -0.03783638 -0.03780448 -0.03777141 -0.03773865 -0.03770806 -0.03768083 -0.03765855 -0.03764107 -0.03762862
 -0.03762123 -0.03761855 -0.03762245 -0.03763327 -0.03765244 -0.0376806 -0.03771531 -0.0377567 -0.03779723 -0.0378365
 -0.03786636 -0.03788686 -0.03789497 -0.0378919 -0.03788201 -0.03786692 -0.03785422 -0.03784436 -0.03784234 -0.03784708
 -0.03785919 -0.03787728 -0.03790033 -0.03792657 -0.03795508 -0.03798243 -0.03800704 -0.03802549 -0.03803556 -0.03803908
 -0.03803513 -0.03803141 -0.0380288 -0.03803381 -0.03804737 -0.03806779 -0.03809494 -0.03812135 -0.0381468 -0.03816637
 -0.0381806 -0.03818989 -0.03819483 -0.03819773 -0.03819856 -0.03819812 -0.03819673 -0.03819476 -0.03819375 -0.03819544
 -0.03820095 -0.03821235 -0.03822771 -0.03824734 -0.03826663 -0.03828416 -0.03829641 -0.0383018 -0.03830145 -0.03829494
 -0.03828686 -0.03827757 -0.0382706 -0.03826611 -0.03826227 -0.03825866 -0.03824936 -0.03823473 -0.03821284 -0.03818611
 -0.03816151 -0.03814141 -0.03813575 -0.03814266 -0.03816503 -0.03819623 -0.03823035 -0.03826171 -0.0382834 -0.03829509
 -0.03829442 -0.038284 -0.03826458 -0.03823668 -0.0382009 -0.03815518 -0.03809914 -0.03803214 -0.03795386 -0.03786765
 -0.03777369 -0.03767655 -0.03757629 -0.03747504 -0.03737231 -0.0372665 -0.03715707 -0.03704109 -0.03691882 -0.03678902
 -0.03665311 -0.03651282 -0.03636916 -0.03622445 -0.03607742 -0.03592863 -0.0357742 -0.03561202 -0.03544039 -0.03525697
 -0.03506687 -0.03486985 -0.03467593 -0.03448675 -0.03430805 -0.03414101 -0.03398151 -0.03382936 -0.03367722 -0.0335253
 -0.03337439 -0.03322603 -0.03309007 -0.03296709 -0.0328652 -0.03278228 -0.03271764 -0.03266849 -0.03262952 -0.03260028
 -0.03257822 -0.03256368 -0.03255731 -0.03255551 -0.03255783 -0.03255672 -0.0325496 -0.03253026 -0.03249637 -0.03244618
 -0.03237894 -0.03229527 -0.03219513 -0.03207938 -0.03194803 -0.0318044 -0.03164889 -0.03148794 -0.03132229 -0.03115939
 -0.03100027 -0.03085193 -0.03071631 -0.03060102 -0.03050852 -0.03044649 -0.03041589 -0.03042102 -0.03046137 -0.03053753
 -0.03065002 -0.03079913 -0.03098579 -0.03121162 -0.03147191 -0.03176761 -0.03208482 -0.03242245 -0.0327626 -0.03310362
 -0.03343033 -0.03374178 -0.03402708 -0.03428598 -0.03451232 -0.034707 -0.03487187 -0.03500929 -0.03512866 -0.03523232
 -0.03533077 -0.03542482 -0.03552059 -0.03561778 -0.0357183 -0.03582182 -0.03592896 -0.03603848 -0.03615049 -0.03626164
 -0.03637121 -0.03647459 -0.03657054 -0.03665567 -0.03672911 -0.03678958 -0.03683672 -0.03687134 -0.03689343 -0.03690582
 -0.03690878 -0.03690712 -0.03690113 -0.03689554 -0.03688966 -0.03688381 -0.03687636 -0.03686307 -0.03684352 -0.03681397
 -0.03677749 -0.03673543 -0.03669299 -0.03665491 -0.03662486 -0.03660671 -0.03660038 -0.03660731 -0.03662407 -0.0366508
 -0.03668067 -0.03671314 -0.03673885 -0.03675678 -0.03675999 -0.03674791 -0.03672159 -0.03668165 -0.03663877 -0.03659476
 -0.03656681 -0.03655695 -0.03658279 -0.03664422 -0.03675128 -0.03689945 -0.03708692 -0.03730525 -0.03754443 -0.0377952
 -0.03804715 -0.03829222 -0.03852321 -0.03873488 -0.03892285 -0.03908759 -0.03922743 -0.03934869 -0.03945178 -0.03954491
 -0.03962912 -0.03970917 -0.03978548 -0.03985815 -0.03992706 -0.03998975 -0.04004613 -0.04009418 -0.04013435 -0.04016697
 -0.04019332 -0.04021677 -0.04023862 -0.04026302 -0.04028995 -0.0403216 -0.04035597 -0.04039255 -0.04042809 -0.04046066
 -0.04048755 -0.04050673 -0.04051876 -0.04052268 -0.04052307 -0.04052031 -0.04052016 -0.0405235 -0.04053212 -0.0405463
 -0.04056258 -0.04058069 -0.04059529 -0.04060642 -0.04061182 -0.04061228 -0.04060989 -0.04060554 -0.04060314 -0.04060232
 -0.04060462 -0.04060832 -0.04061186 -0.04061376 -0.04061168 -0.04060651 -0.04059763 -0.04058797 -0.04057855 -0.04057168
 -0.04056862 -0.04056858 -0.04057202 -0.04057531 -0.04057815 -0.04057701 -0.04057156 -0.04056189 -0.04054818 -0.04053471
 -0.04052187 -0.04051476 -0.04051307 -0.04051835 -0.0405296 -0.040545 -0.04056328 -0.04058132 -0.0405979 -0.0406103
 -0.04061734 -0.04061672 -0.04060871 -0.04059202 -0.04057009 -0.04054314 -0.04051777 -0.04049581 -0.04048248 -0.04047976
 -0.04048622 -0.04050252 -0.04052069 -0.04054026 -0.04055335 -0.04055971 -0.04055716 -0.04054617 -0.0405296 -0.04050794
 -0.04048492 -0.04046066 -0.04043736 -0.04041496 -0.04039443 -0.0403755 -0.04035805 -0.04034225 -0.04032787 -0.0403162
 -0.04030787 -0.04030428 -0.04030674 -0.0403138 -0.04032597 -0.04033851 -0.04035065 -0.0403585 -0.0403612 -0.04035933
 -0.04035276 -0.04034482 -0.04033562 -0.04032719 -0.04031928 -0.04031079 -0.04030142 -0.04028901 -0.04027386 -0.04025549
 -0.04023476 -0.04021318 -0.04019133 -0.0401706 -0.04015128 -0.04013393 -0.04011932 -0.04010812 -0.04010067 -0.04009772
 -0.04009762 -0.04010025 -0.0401031 -0.04010541 -0.04010697 -0.04010754 -0.04010853 -0.0401101 -0.04011162 -0.04011302
 -0.04011185 -0.04010822 -0.04010205 -0.0400938 -0.04008591 -0.04007814 -0.04007147 -0.04006459 -0.04005515 -0.0400426
 -0.0400246 -0.04000276 -0.03997735 -0.03995118 -0.03992632 -0.0399043 -0.03988664 -0.03987275 -0.03986305 -0.03985533
 -0.03984927 -0.03984291 -0.03983587 -0.03982783 -0.03981869 -0.03980962 -0.03980066 -0.03979234 -0.03978456 -0.03977654
 -0.03976821 -0.03975883 -0.03974871 -0.03973846 -0.03972821 -0.03971863 -0.03970928 -0.03969968 -0.03968975 -0.03967895
 -0.0396684 -0.03965861 -0.03965079 -0.03964609 -0.03964334 -0.0396429 -0.03964126 -0.03963764 -0.03963014 -0.03961814
 -0.03960325 -0.03958547 -0.03956787 -0.03955056 -0.03953436 -0.03951916 -0.03950411 -0.03948931 -0.0394748 -0.03946105
 -0.03944977 -0.03944096 -0.0394358 -0.03943307 -0.03943168 -0.03942991 -0.03942542 -0.03941774 -0.03940514 -0.03939007
 -0.03937294 -0.03935712 -0.03934424 -0.03933432 -0.0393282 -0.03932194 -0.03931509 -0.03930466 -0.03929016 -0.03927356
 -0.03925497 -0.03923835 -0.03922357 -0.03921085 -0.03919977 -0.03918779 -0.03917541 -0.03916268 -0.03915074 -0.03914265
 -0.03913777 -0.03913723 -0.03913794 -0.03913708 -0.03913239 -0.03912039 -0.03910334 -0.03908059 -0.03905784 -0.03903699
 -0.0390215 -0.03901321 -0.03900949 -0.03901059 -0.03901086 -0.03900978 -0.03900409 -0.03899364 -0.03897948 -0.03896176
 -0.03894267 -0.03892216 -0.03890097 -0.03887903 -0.03885633 -0.03883344 -0.03881142 -0.03879127 -0.03877499 -0.03876309
 -0.03875731 -0.03875639 -0.03876072 -0.03876651 -0.03877233 -0.03877413 -0.03876971 -0.03875902 -0.03874102 -0.03871997
 -0.03869622 -0.03867417 -0.03865438 -0.03863777 -0.0386244 -0.03861335 -0.0386045 -0.03859608 -0.03858777 -0.03857667
 -0.03856273 -0.03854379 -0.03852109 -0.03849606 -0.03847047 -0.03844827 -0.038429 -0.03841425 -0.03840126 -0.03838829
 -0.03837384 -0.03835604 -0.03833683 -0.03831614 -0.03829731 -0.03828123 -0.03826935 -0.03826221 -0.03825885 -0.03825935
 -0.03826115 -0.0382641 -0.03826514 -0.03826418 -0.03825923 -0.03825054 -0.03823834 -0.038223 -0.03820615 -0.03818771
 -0.03816828 -0.03814774 -0.03812579 -0.03810339 -0.03808102 -0.0380608 -0.03804469 -0.03803349 -0.03802887 -0.03802815
 -0.03803125 -0.03803355 -0.03803377 -0.03802966 -0.03802034 -0.03800741 -0.03799079 -0.0379742 -0.03795786 -0.0379444
 -0.03793375 -0.03792549 -0.03791915 -0.03791159 -0.03790261 -0.0378895 -0.03787312 -0.03785407 -0.03783344 -0.03781369
 -0.03779445 -0.03777652 -0.03775841 -0.0377389 -0.03771785 -0.03769429 -0.03767062 -0.0376475 -0.03762697 -0.03760995
 -0.03759587 -0.03758489 -0.0375753 -0.03756687 -0.03755958 -0.0375534 -0.03754897 -0.03754619 -0.037544 -0.03754205
 -0.03753739 -0.03753008 -0.03751842 -0.03750332 -0.03748606 -0.03746773 -0.03745087 -0.0374357 -0.0374238 -0.03741398
 -0.0374061 -0.03739811 -0.03738884 -0.03737698 -0.03736132 -0.03734323 -0.0373224 -0.03730271 -0.03728476 -0.0372714
 -0.03726322 -0.03725892 -0.03725847 -0.03725768 -0.03725635 -0.03725082 -0.03724115 -0.03722576 -0.03720515 -0.03717999
 -0.03715126 -0.03712168 -0.03709221 -0.03706607 -0.03704287 -0.03702377 -0.03700697 -0.03699127 -0.03697569 -0.03695894
 -0.03694213 -0.03692537 -0.0369097 -0.03689569 -0.03688249 -0.03687016 -0.036857 -0.03684273 -0.03682735 -0.0368108
 -0.036795 -0.03678003 -0.0367673 -0.03675658 -0.03674698 -0.03673816 -0.03672819 -0.03671731 -0.03670502 -0.03669197
 -0.03667938 -0.03666684 -0.03665473 -0.03664133 -0.03662508 -0.03660555 -0.03658127 -0.03655512 -0.03652751 -0.03650243
 -0.03648144 -0.03646495 -0.03645384 -0.03644353 -0.03643377 -0.03641894 -0.03639859 -0.03637165 -0.0363384 -0.03630384
 -0.0362687 -0.03624054 -0.03621924 -0.03620887 -0.03620764 -0.03621341 -0.03622341 -0.03623161 -0.03623638 -0.03623256
 -0.03622182 -0.03620295 -0.03618066 -0.03615703 -0.03613683 -0.03612292 -0.03611618 -0.03611808 -0.03612499 -0.03613677
 -0.0361484 -0.03615921 -0.03616706 -0.03617169 -0.03617483 -0.03617665 -0.03618032 -0.03618589 -0.0361954 -0.03620819
 -0.03622292 -0.03623811 -0.03624932 -0.03625487 -0.03624949 -0.03623261 -0.03620083 -0.03615589 -0.0360969 -0.0360296
 -0.03595591 -0.03588456 -0.03581958 -0.03576658 -0.03572866 -0.03570493 -0.03569624 -0.03569764 -0.0357089 -0.03572387
 -0.03574214 -0.03575789 -0.03577085 -0.03577668 -0.03577526 -0.03576344 -0.03574152 -0.0357084 -0.03566603 -0.03561845
 -0.03556885 -0.03552569 -0.03548921 -0.03546458 -0.03544685 -0.0354337 -0.03541994 -0.03540071 -0.03537665 -0.03534622
 -0.03531358 -0.03527998 -0.03524652 -0.03521396 -0.03518005 -0.03514455 -0.03510614 -0.03506465 -0.0350218 -0.03497774
 -0.03493519 -0.03489427 -0.03485714 -0.03482369 -0.03479476 -0.03476974 -0.03474734 -0.034727 -0.03470694 -0.03468711
 -0.03466678 -0.03464579 -0.03462402 -0.03460054 -0.03457468 -0.03454605 -0.03451388 -0.03448003 -0.03444462 -0.03441064
 -0.03437883 -0.03435031 -0.03432546 -0.03430326 -0.03428364 -0.0342662 -0.03425093 -0.03423815 -0.03422765 -0.03421795
 -0.03420848 -0.03419574 -0.03417978 -0.03415841 -0.03413329 -0.03410654 -0.03407986 -0.03405688 -0.03403719 -0.03402219
 -0.03400961 -0.03399836 -0.03398692 -0.03397414 -0.03396027 -0.03394516 -0.03392918 -0.03391247 -0.03389453 -0.03387528
 -0.0338547 -0.03383275 -0.03380996 -0.03378635 -0.03376235 -0.03373801 -0.03371364 -0.03368932 -0.03366562 -0.03364234
 -0.03361932 -0.03359596 -0.03357089 -0.03354399 -0.03351407 -0.03348254 -0.03345007 -0.03341841 -0.03338918 -0.03336251
 -0.03333925 -0.03331764 -0.03329745 -0.03327659 -0.03325449 -0.03323048 -0.03320425 -0.03317713 -0.03314917 -0.03312235
 -0.03309675 -0.03307351 -0.03305254 -0.03303331 -0.03301565 -0.03299832 -0.0329813 -0.03296385 -0.03294616 -0.03292832
 -0.0329104 -0.03289266 -0.03287482 -0.03285661 -0.03283806 -0.03281892 -0.03279984 -0.03278105 -0.03276303 -0.0327462
 -0.03272979 -0.03271373 -0.03269717 -0.03267987 -0.03266248 -0.03264502 -0.03262832 -0.03261236 -0.03259623 -0.0325798
 -0.03256159 -0.03254174 -0.03252028 -0.0324975 -0.03247454 -0.03245096 -0.03242656 -0.03240056 -0.0323713 -0.03233946
 -0.03230463 -0.03226905 -0.03223408 -0.0322016 -0.03217308 -0.0321485 -0.03212844 -0.03211116 -0.03209651 -0.03208245
 -0.03206869 -0.03205388 -0.03203785 -0.03202044 -0.03200164 -0.03198201 -0.0319616 -0.03194131 -0.03192121 -0.03190232
 -0.03188438 -0.03186725 -0.03185021 -0.03183153 -0.03181088 -0.03178662 -0.03175992 -0.0317312 -0.03170199 -0.03167377
 -0.03164661 -0.03162101 -0.03159637 -0.0315724 -0.03154963 -0.03152815 -0.03150849 -0.03149096 -0.03147377 -0.03145681
 -0.03143768 -0.03141627 -0.03139338 -0.03136923 -0.03134686 -0.03132605 -0.03130744 -0.03129042 -0.03127306 -0.03125546
 -0.03123667 -0.03121753 -0.03119911 -0.03118145 -0.03116529 -0.03114949 -0.03113338 -0.0311162 -0.03109729 -0.0310766
 -0.03105401 -0.03102957 -0.0310033 -0.03097518 -0.03094498 -0.03091454 -0.03088389 -0.0308566 -0.03083288 -0.03081526
 -0.03080354 -0.03079619 -0.03079255 -0.03078818 -0.03078273 -0.03077257 -0.03075812 -0.03073855 -0.03071451 -0.03068661
 -0.0306553 -0.03062103 -0.03058486 -0.03054723 -0.03051051 -0.03047599 -0.03044534 -0.03041984 -0.03039828 -0.03038084
 -0.03036494 -0.03035006 -0.03033561 -0.03032138 -0.03030884 -0.03029804 -0.03028883 -0.03028099 -0.0302717 -0.03026092
 -0.03024676 -0.03022992 -0.03021163 -0.03019268 -0.03017578 -0.03016048 -0.03014753 -0.03013547 -0.03012295 -0.03010898
 -0.03009213 -0.03007294 -0.03005116 -0.03002801 -0.03000392 -0.02997937 -0.02995459 -0.02992956 -0.02990434 -0.02987865
 -0.02985245 -0.02982594 -0.02979914 -0.02977299 -0.0297476 -0.02972457 -0.029704 -0.02968741 -0.02967452 -0.02966535
 -0.02965906 -0.02965379 -0.02964867 -0.02964148 -0.02963172 -0.02961778 -0.0296002 -0.02957871 -0.02955458 -0.02952833
 -0.02950118 -0.02947376 -0.02944657 -0.02941997 -0.02939346 -0.02936707 -0.02933998 -0.02931212 -0.02928318 -0.02925312
 -0.02922269 -0.02919194 -0.0291617 -0.02913201 -0.02910358 -0.02907644 -0.029051 -0.02902744 -0.02900658 -0.02898818
 -0.02897235 -0.02895841 -0.02894565 -0.02893351 -0.02892113 -0.02890882 -0.02889652 -0.02888463 -0.02887354 -0.02886228
 -0.02885085 -0.02883758 -0.02882212 -0.02880392 -0.02878278 -0.02875981 -0.02873505 -0.02871085 -0.0286873 -0.02866638
 -0.02864788 -0.02863159 -0.02861689 -0.02860131 -0.02858433 -0.02856292 -0.02853802 -0.02850944 -0.02847927 -0.02844989
 -0.02842275 -0.02840029 -0.02838153 -0.02836703 -0.02835404 -0.02834172 -0.02832775 -0.02831115 -0.02829189 -0.02826975
 -0.02824544 -0.02821907 -0.02819071 -0.02816036 -0.02812766 -0.02809271 -0.02805708 -0.02802117 -0.02798848 -0.02795911
 -0.02793551 -0.02791688 -0.0279026 -0.02789154 -0.02788153 -0.02787178 -0.02786056 -0.02784744 -0.0278316 -0.02781269
 -0.02779004 -0.02776458 -0.02773632 -0.02770704 -0.02767724 -0.02764807 -0.0276199 -0.02759249 -0.02756586 -0.02753981
 -0.02751434 -0.02749012 -0.02746714 -0.02744536 -0.02742453 -0.02740275 -0.02737991 -0.02735435 -0.02732669 -0.02729757
 -0.02726781 -0.0272393 -0.02721209 -0.02718733 -0.02716381 -0.02714115 -0.0271176 -0.02709183 -0.02706344 -0.02703146
 -0.02699806 -0.02696337 -0.02693067 -0.02690079 -0.02687439 -0.02685193 -0.02683011 -0.02680873 -0.02678544 -0.0267603
 -0.02673515 -0.02671027 -0.02668871 -0.02666993 -0.02665352 -0.02663851 -0.02662179 -0.02660359 -0.02658259 -0.02656002
 -0.02653715 -0.02651425 -0.02649237 -0.02647014 -0.02644706 -0.02642193 -0.02639378 -0.02636347 -0.02633068 -0.0262982
 -0.02626648 -0.02623775 -0.0262125 -0.02619004 -0.02617044 -0.02615038 -0.02612974 -0.02610604 -0.02607953 -0.02605077
 -0.02602026 -0.02599038 -0.02596125 -0.02593456 -0.02590983 -0.02588697 -0.02586551 -0.02584482 -0.02582444 -0.02580385
 -0.02578239 -0.02575959 -0.02573488 -0.02570782 -0.02567856 -0.02564686 -0.02561388 -0.02557972 -0.02554579 -0.02551235
 -0.02547957 -0.02544752 -0.02541478 -0.02538132 -0.02534617 -0.02530955 -0.02527272 -0.02523606 -0.02520214 -0.02517059
 -0.02514188 -0.02511508 -0.02508846 -0.02506196 -0.02503438 -0.02500707 -0.02498101 -0.02495675 -0.02493548 -0.02491531
 -0.02489602 -0.02487491 -0.0248509 -0.02482343 -0.02479191 -0.02475841 -0.02472303 -0.02468824 -0.02465426 -0.02462163
 -0.0245903 -0.0245587 -0.02452675 -0.02449294 -0.02445755 -0.02442104 -0.02438388 -0.0243479 -0.0243128 -0.02427903
 -0.02424578 -0.02421188 -0.02417741 -0.02414171 -0.02410606 -0.02407103 -0.02403776 -0.02400711 -0.02397881 -0.02395318
 -0.02392862 -0.02390487 -0.02388082 -0.02385629 -0.02383071 -0.02380403 -0.02377568 -0.0237456 -0.02371266 -0.02367691
 -0.02363813 -0.02359667 -0.0235542 -0.02351072 -0.02346733 -0.02342347 -0.02337837 -0.02333202 -0.02328349 -0.02323474
 -0.02318718 -0.02314283 -0.02310414 -0.02306974 -0.02304027 -0.02301168 -0.02298265 -0.02295141 -0.02291687 -0.02288176
 -0.02284625 -0.02281328 -0.02278321 -0.02275514 -0.02272894 -0.02270083 -0.02267077 -0.02263672 -0.0225992 -0.02255946
 -0.02251803 -0.02247733 -0.02243694 -0.02239726 -0.02235742 -0.02231634 -0.02227358 -0.02222831 -0.02218046 -0.02212981
 -0.02207609 -0.02201874 -0.02195927 -0.02189754 -0.02183731 -0.02177937 -0.02172627 -0.0216788 -0.02163509 -0.0215952
 -0.02155458 -0.02151305 -0.02146722 -0.02141726 -0.02136327 -0.02130573 -0.02124711 -0.02118762 -0.02112931 -0.02107172
 -0.02101496 -0.02095821 -0.02090027 -0.0208409 -0.02077927 -0.02071583 -0.02065063 -0.02058406 -0.02051633 -0.0204477
 -0.02037838 -0.02030818 -0.02023713 -0.02016492 -0.02009155 -0.02001647 -0.01993963 -0.01986099 -0.01978059 -0.01969895
 -0.01961619 -0.0195337 -0.01945171 -0.01937223 -0.01929507 -0.01922134 -0.01914925 -0.01907594 -0.01899905 -0.01891321
 -0.01881913 -0.01871411 -0.01860385 -0.01849147 -0.0183814 -0.01827766 -0.01817802 -0.01808322 -0.01798775 -0.01789031
 -0.01778855 -0.01768181 -0.01757067 -0.01745523 -0.01733435 -0.01720791 -0.01707099 -0.01692353 -0.01676276 -0.01658981
 -0.01640923 -0.016222 -0.01603428 -0.01584484 -0.01565425 -0.01546044 -0.01526021 -0.01505298 -0.01483703 -0.01461219
 -0.01437865 -0.01413351 -0.01387621 -0.01360141 -0.01330687 -0.01299072 -0.01265095 -0.01229414 -0.01192006 -0.01154161
 -0.01115971 -0.0107865 -0.0104226 -0.01007368 -0.009739234 -0.009416324 -0.009103278 -0.008789639 -0.008474281 -0.008146707
 -0.007809735 -0.007463336 -0.007113357 -0.006769971 -0.006433702 -0.006110515 -0.005794455 -0.005482824 -0.005171494 -0.004856782
 -0.004540131 -0.004221275 -0.003901809 -0.003582284 -0.003262165 -0.002940867 -0.002622717 -0.002307668 -0.00200572 -0.001717378
 -0.00144803 -0.001197361 -0.0009628017 -0.0007444123 -0.0005409212 -0.0003535141 -0.0001859426 -3.834249E-05 8.639158E-05 0.0001905156
 0.0002758491 0.000345588 0.0004039066 0.000452841 0.0004955487 0.0005317776 0.0005624518 0.0005859554 0.0006019719 0.0006090104
 0.0006066466 0.0005941156 0.0005713348 0.0005373663 0.0004923887 0.0004315729 0.0003546523 0.0002533235 0.0001274112 -2.818867E-05
 -0.0002122118 -0.0004201491 -0.0006503865 -0.0008947817 -0.001152986 -0.001420992 -0.001697077 -0.001978344 -0.002259014 -0.002532471
 -0.002791878 -0.003029027 -0.003243054 -0.003430322 -0.003595681 -0.003740258 -0.003867189 -0.003978017 -0.004071012 -0.004146075
 -0.004201846 -0.00423794 -0.004257393 -0.004260357 -0.004249043 -0.004223294 -0.004181286 -0.00412295 -0.004046459 -0.003952893
 -0.003844963 -0.00372411 -0.003595428 -0.00345885 -0.003316587 -0.003167962 -0.00301243 -0.002851314 -0.002685076 -0.002516106
 -0.002346379 -0.002175205 -0.0020033 -0.001827302 -0.001646213 -0.001459247 -0.001265634 -0.001069223 -0.0008702516 -0.0006725772
 -0.0004764398 -0.0002830178 -9.225636E-05 9.635912E-05 0.0002830205 0.0004691342 0.0006548498 0.0008420816 0.0010295 0.001215615
 0.00139726 0.001568483 0.001727076 0.001868089 0.001990765 0.002093414 0.002174268 0.002231781 0.002265457 0.002273936
 0.002261015 0.002227483 0.002175926 0.002107621 0.002018188 0.001907404 0.001770054 0.001605734 0.001419963 0.001213326
 0.0009962172 0.0007682309 0.0005319533 0.0002861756 2.74329E-05 -0.0002444237 -0.0005315309 -0.0008334484 -0.001149658 -0.001481764
 -0.001831036 -0.002200105 -0.002593913 -0.003006089 -0.003438278 -0.003870424 -0.004295101 -0.004698814 -0.005074082 -0.005428293
 -0.005760809 -0.006084899 -0.006402314 -0.006716555 -0.007028006 -0.007332674 -0.007630398 -0.007918145 -0.008196094 -0.00846406
 -0.008722182 -0.008970835 -0.009210156 -0.009440299 -0.009662286 -0.009877288 -0.01008799 -0.01029762 -0.0105096 -0.01072812
 -0.01095448 -0.01119146 -0.01143601 -0.01168819 -0.01194273 -0.01219887 -0.01244993 -0.01269534 -0.01292553 -0.01313938
 -0.01333019 -0.0134973 -0.01364563 -0.01377572 -0.01389775 -0.01401168 -0.01412216 -0.0142283 -0.01432884 -0.01442353
 -0.01451095 -0.01459154 -0.01466584 -0.01473304 -0.01479288 -0.01484311 -0.01488176 -0.01490724 -0.01491807 -0.0149135
 -0.01489322 -0.01485543 -0.01479992 -0.01472373 -0.0146262 -0.01450605 -0.01436287 -0.01419827 -0.01401232 -0.01380656
 -0.01358121 -0.01333901 -0.01308151 -0.0128203 -0.01255845 -0.01231508 -0.01209128 -0.01190078 -0.01174054 -0.01161236
 -0.01151037 -0.01142864 -0.01136039 -0.01129833 -0.01123611 -0.01116777 -0.01109042 -0.01100026 -0.01090175 -0.01079427
 -0.01068785 -0.01058449 -0.01048953 -0.0104043 -0.01032613 -0.01025498 -0.01018662 -0.01012094 -0.01005578 -0.009991237
 -0.009927047 -0.009863176 -0.009799452 -0.009735486 -0.009670358 -0.009603189 -0.009531992 -0.009455966 -0.009373255 -0.009283492
 -0.009185893 -0.009079807 -0.008964888 -0.008839777 -0.008703635 -0.008556382 -0.008397301 -0.008229343 -0.008052796 -0.007870963
 -0.007684342 -0.007494144 -0.007300472 -0.007104128 -0.006905338 -0.006708936 -0.006515763 -0.006334698 -0.006166271 -0.006017838
 -0.005888649 -0.005780303 -0.005692116 -0.005622783 -0.005573931 -0.005546387 -0.00554395 -0.005570504 -0.005628255 -0.00572081
 -0.00584504 -0.006001609 -0.006182867 -0.006387207 -0.006606792 -0.006839923 -0.007081327 -0.007330189 -0.007583323 -0.007840518
 -0.00809766 -0.00835448 -0.008605646 -0.008850934 -0.009085938 -0.009310996 -0.009524973 -0.009728901 -0.009925154 -0.01011445
 -0.01029968 -0.01048005 -0.01065595 -0.01082557 -0.01098712 -0.01114013 -0.01128308 -0.01141862 -0.01154729 -0.01167226
 -0.01179518 -0.01191503 -0.01203254 -0.01214203 -0.01224283 -0.01233103 -0.01240611 -0.01247062 -0.01252472 -0.01257269
 -0.01261427 -0.01264889 -0.01267606 -0.01269253 -0.01269924 -0.01269688 -0.01268733 -0.01267506 -0.01266019 -0.01264503
 -0.0126284 -0.01260949 -0.01258892 -0.0125662 -0.01254424 -0.01252413 -0.01250834 -0.01249814 -0.01249346 -0.0124947
 -0.01250034 -0.01251035 -0.01252269 -0.01253723 -0.01255199 -0.01256687 -0.01258044 -0.01259272 -0.01260348 -0.01261284
 -0.01262133 -0.01262909 -0.01263691 -0.01264464 -0.01265267 -0.01266001 -0.01266572 -0.0126681 -0.012665 -0.01265569
 -0.01263838 -0.01261506 -0.01258556 -0.01255414 -0.012522 -0.01249264 -0.01246734 -0.01244591 -0.01242873 -0.01241268
 -0.01239753 -0.0123812 -0.01236365 -0.01234581 -0.01232784 -0.01231159 -0.01229683 -0.01228338 -0.01227068 -0.01225688
 -0.01224194 -0.01222465 -0.01220587 -0.01218612 -0.01216671 -0.01214911 -0.01213437 -0.01212381 -0.01211734 -0.01211552
 -0.01211686 -0.01212118 -0.01212636 -0.01213197 -0.01213607 -0.01213833 -0.0121376 -0.01213374 -0.01212678 -0.01211673
 -0.01210509 -0.012092 -0.01207959 -0.01206769 -0.01205664 -0.01204582 -0.01203344 -0.01201917 -0.01200132 -0.01198017
 -0.01195548 -0.01192744 -0.01189633 -0.01186171 -0.0118233 -0.01178091 -0.0117341 -0.01168393 -0.01163055 -0.01157516
 -0.01151812 -0.01145959 -0.01139953 -0.01133881 -0.01127732 -0.01121882 -0.01116351 -0.0111158 -0.01107553 -0.01104263
 -0.01101626 -0.01099183 -0.01096905 -0.01094406 -0.01091839 -0.01089335 -0.0108709 -0.01085517 -0.01084566 -0.01084432
 -0.01084724 -0.01085247 -0.01085613 -0.01085502 -0.01084998 -0.01083967 -0.0108299 -0.01082157 -0.01082026 -0.01082743
 -0.01084212 -0.0108647 -0.01088838 -0.01091285 -0.01093274 -0.01094836 -0.01096144 -0.01097271 -0.01098743 -0.01100514
 -0.01102734 -0.01105247 -0.01107742 -0.01110199 -0.01112396 -0.01114525 -0.01116746 -0.01119096 -0.01121747 -0.0112437
 -0.01126863 -0.01128891 -0.01130243 -0.01131072 -0.0113133 -0.01131442 -0.01131485 -0.01131585 -0.01131781 -0.01131762
 -0.01131512 -0.01130714 -0.01129379 -0.01127533 -0.01125231 -0.01122793 -0.01120267 -0.01118004 -0.01115966 -0.0111428
 -0.01112787 -0.01111308 -0.01109673 -0.01107595 -0.01105075 -0.01101989 -0.01098481 -0.01094612 -0.01090422 -0.01085962
 -0.01081129 -0.01075893 -0.01070252 -0.01064179 -0.01057891 -0.01051406 -0.01044862 -0.01038266 -0.01031521 -0.01024622
 -0.01017475 -0.0101011 -0.01002645 -0.009951305 -0.00987803 -0.009806911 -0.009739749 -0.009676654 -0.009618726 -0.009565558
 -0.009517502 -0.00947294 -0.00943091 -0.009389642 -0.009347561 -0.00930515 -0.009261963 -0.009219957 -0.009179783 -0.009141399
 -0.009105178 -0.009068442 -0.009030921 -0.0089913 -0.008949485 -0.008907127 -0.008864287 -0.008822174 -0.008780623 -0.008739093
 -0.008697655 -0.008656304 -0.008615184 -0.008575084 -0.00853494 -0.008493801 -0.008449478 -0.008398919 -0.008341203 -0.008273914
 -0.008199189 -0.008116848 -0.008031383 -0.007944142 -0.007859432 -0.007778723 -0.007703781 -0.007635388 -0.007572065 -0.007513849
 -0.007457994 -0.007404343 -0.007351478 -0.007299281 -0.007246044 -0.007191306 -0.007131029 -0.007065262 -0.006990975 -0.006910837
 -0.006829175 -0.006749998 -0.006682924 -0.006627867 -0.00659027 -0.006563421 -0.006544261 -0.006525467 -0.006500861 -0.006470997
 -0.006433392 -0.006395627 -0.006359336 -0.006329386 -0.006307582 -0.006290837 -0.006279256 -0.006266897 -0.006253392 -0.006235872
 -0.006214372 -0.006189229 -0.006160629 -0.006129735 -0.006096903 -0.006064161 -0.006031631 -0.00600098 -0.005971302 -0.005941824
 -0.005911645 -0.00587868 -0.005844561 -0.005809107 -0.005776578 -0.005749583 -0.00573011 -0.005720438 -0.00571728 -0.005720566
 -0.005725455 -0.005730781 -0.005735786 -0.005740044 -0.00574647 -0.005755245 -0.005767022 -0.005781572 -0.005794839 -0.00580657
 -0.005812637 -0.0058139 -0.005811488 -0.005806484 -0.005802927 -0.005799681 -0.005797088 -0.005792501 -0.005782149 -0.005766195
 -0.005742084 -0.00571524 -0.005687269 -0.00566539 -0.005653177 -0.00565366 -0.005669076 -0.005696581 -0.005736491 -0.00578279
 -0.005834949 -0.005887684 -0.005940613 -0.005990955 -0.006038629 -0.006082416 -0.006122257 -0.006156876 -0.006186581 -0.006211518
 -0.006232882 -0.006254101 -0.006275536 -0.006300339 -0.006325861 -0.00635042 -0.00637065 -0.006381739 -0.006386013 -0.006381712
 -0.006377914 -0.006377653 -0.006388453 -0.006413992 -0.00645309 -0.006506815 -0.006568153 -0.006636482 -0.006706215 -0.006776924
 -0.006845916 -0.006913085 -0.006976662 -0.007036692 -0.007092428 -0.007144329 -0.007193908 -0.007241536 -0.007289235 -0.00733651
 -0.007383573 -0.007429381 -0.00747253 -0.007512723 -0.007548884 -0.007582074 -0.007612456 -0.007641586 -0.007670404 -0.007698843
 -0.007727454 -0.007753863 -0.007777628 -0.007797463 -0.007812811 -0.007826985 -0.007840114 -0.007857224 -0.007878345 -0.007903378
 -0.007931435 -0.007955495 -0.007974982 -0.007983097 -0.007981202 -0.007969124 -0.007949396 -0.007926744 -0.007902774 -0.007881983
 -0.007863618 -0.007849114 -0.007835575 -0.007821714 -0.007804983 -0.007783464 -0.007757966 -0.007727828 -0.007696778 -0.007665427
 -0.007636432 -0.00761032 -0.00758709 -0.007566775 -0.007549354 -0.007534848 -0.007524073 -0.007516775 -0.007511299 -0.007507215
 -0.007501345 -0.00749433 -0.007486085 -0.007477994 -0.007473417 -0.007471305 -0.007472718 -0.007473247 -0.007469114 -0.007457314
 -0.007433608 -0.007401044 -0.007358958 -0.007314317 -0.0072691 -0.007227823 -0.007191935 -0.007162179 -0.007138801 -0.007122134
 -0.007112243 -0.007109098 -0.007112509 -0.007117262 -0.007122484 -0.007117984 -0.007104015 -0.00707518 -0.007034708 -0.00698878
 -0.006941006 -0.006902504 -0.00687226 -0.006854751 -0.006844407 -0.006837417 -0.00682982 -0.006816876 -0.006800288 -0.006779071
 -0.00675771 -0.006737382 -0.0067212 -0.006710167 -0.006704908 -0.006705913 -0.006710578 -0.006718917 -0.006724607 -0.006727277
 -0.006719226 -0.006700473 -0.006667393 -0.006621254 -0.006565494 -0.006502388 -0.006440501 -0.00638109 -0.006331667 -0.006290004
 -0.006257022 -0.006227794 -0.00619758 -0.006163804 -0.006121973 -0.006075996 -0.00602586 -0.005977908 -0.005934658 -0.005897606
 -0.005868208 -0.00584195 -0.005818483 -0.005793555 -0.005766626 -0.005739022 -0.00571088 -0.005687018 -0.005667447 -0.005654733
 -0.005647673 -0.00564206 -0.00563622 -0.005622351 -0.005600813 -0.005567684 -0.005526384 -0.005480002 -0.005431741 -0.005386498
 -0.005344186 -0.005306343 -0.005271755 -0.005239652 -0.005211425 -0.005187467 -0.005168477 -0.005155609 -0.005143224 -0.005131134
 -0.005110723 -0.005080999 -0.005041689 -0.004992974 -0.004945671 -0.004900356 -0.004867808 -0.004846368 -0.004834179 -0.004827697
 -0.004814466 -0.004793213 -0.004753681 -0.004700269 -0.004633937 -0.004561989 -0.004492688 -0.00442939 -0.004378247 -0.004335754
 -0.004302395 -0.004272249 -0.004243355 -0.004212376 -0.004178076 -0.004139808 -0.004097112 -0.00405164 -0.00400326 -0.003957849
 -0.003915722 -0.003883678 -0.003861259 -0.003846889 -0.00383854 -0.003824668 -0.003804231 -0.003766559 -0.003714777 -0.003649285
 -0.0035762 -0.003504631 -0.003439416 -0.003389603 -0.003355461 -0.003341538 -0.00334126 -0.003354281 -0.003368508 -0.003380294
 -0.003379331 -0.00336163 -0.003327635 -0.003275803 -0.003217273 -0.003152673 -0.003094023 -0.00304188 -0.002999494 -0.002966228
 -0.002936221 -0.002908714 -0.002876318 -0.002839604 -0.002796124 -0.00274781 -0.002697651 -0.002647275 -0.002600579 -0.002558041
 -0.002521892 -0.002491189 -0.00246596 -0.002445212 -0.002428504 -0.002414998 -0.002404599 -0.002395535 -0.002387876 -0.002377441
 -0.002363654 -0.002343122 -0.002315147 -0.002283439 -0.00224821 -0.002218439 -0.002194066 -0.002177996 -0.002168311 -0.00215577
 -0.002138915 -0.002106631 -0.002061711 -0.002003839 -0.001938984 -0.001876681 -0.001820099 -0.00177753 -0.001746125 -0.001727123
 -0.001714869 -0.00170647 -0.001699268 -0.001691367 -0.001683317 -0.001675388 -0.001665669 -0.001654487 -0.001635322 -0.001607493
 -0.001567708 -0.001515806 -0.001459986 -0.001401151 -0.001353411 -0.001316285 -0.001295249 -0.001287085 -0.001283759 -0.00128222
 -0.001270514 -0.001249755 -0.001215415 -0.001172377 -0.001124283 -0.001075171 -0.001030561 -0.0009882813 -0.0009498504 -0.0009081013
 -0.0008605036 -0.0008032372 -0.0007334553 -0.0006577797 -0.0005758455 -0.0005013024 -0.0004354693 -0.0003872788 -0.0003572853 -0.0003418288
 -0.000339999 -0.0003389081 -0.0003377512 -0.0003247068 -0.0003008544 -0.0002631047 -0.0002143325 -0.0001595374 -0.0001014286 -4.680236E-05
 3.39339E-06 4.524851E-05 7.947903E-05 0.0001049822 0.0001241112 0.0001376709 0.0001480631 0.0001567517 0.0001633091 0.0001682971
 0.0001686189 0.0001635298 0.0001531825 0.0001370165 0.00012271 0.0001106584 0.0001102002 0.0001212552 0.0001450116 0.0001800223
 0.0002179772 0.0002577565 0.0002900801 0.0003165735 0.0003358164 0.0003515075 0.0003693754 0.0003915041 0.0004229533 0.0004632409
 0.0005131699 0.0005733719 0.0006439603 0.0007271352 0.0008261116 0.0009318737 0.001046322 0.001141667 0.001212676 0.001246542
 0.001239146 0.001216124 0.001178723 0.001152712 0.001137984 0.00113661 0.001146508 0.001154943 0.001161741 0.001158644
 0.001148778 0.001136162 0.001122519 0.001113842 0.00110722 0.001101956 0.001094052 0.001079299 0.001057492 0.001026404
 0.0009902671 0.000949354 0.0009106557 0.0008753562 0.0008518577 0.000841804 0.0008505089 0.0008794193 0.0009225003 0.0009796094
 0.001034433 0.001086318 0.001122396 0.001143869 0.001152154 0.001149327 0.001145098 0.00113842 0.001132551 0.001123168
 0.001103268 0.001072226 0.001023686 0.0009668318 0.000906427 0.0008523284 0.0008140872 0.0007876232 0.0007751046 0.0007646938
 0.0007524574 0.0007365867 0.0007149289 0.0006971061 0.0006841255 0.0006811239 0.000688686 0.0006976909 0.0007075487 0.000706283
 0.000695159 0.0006763221 0.0006532454 0.0006414421 0.0006419529 0.0006670497 0.0007118368 0.0007742545 0.0008469021 0.0009190313
 0.000988037 0.001046749 0.001099165 0.001146011 0.001189706 0.001233147 0.001269973 0.001299412 0.001313981 0.001310631
 0.001295981 0.00126924 0.001250677 0.001241589 0.001255746 0.001292852 0.001346151 0.001413722 0.001478144 0.001539237
 0.001586682 0.00162236 0.001646349 0.00165958 0.001664183 0.001659403 0.001644823 0.001620634 0.001585923 0.001544025
 0.001495569 0.001447097 0.001400672 0.001363973 0.00134008 0.001330938 0.001338758 0.001354211 0.00137708 0.001392925
 0.0014006 0.001396 0.00137966 0.001364114 0.001350811 0.001357703 0.001383041 0.001431128 0.00149491 0.001558086
 0.001613695 0.001638801 0.001636654 0.001598759 0.001540035 0.001470501 0.001402761 0.001349542 0.001309742 0.001286704
 0.001273792 0.001269139 0.001271234 0.001280225 0.001290991 0.001304073 0.00130283 0.001286071 0.001243178 0.00117467
 0.001095896 0.001009654 0.0009462007 0.0009047378 0.0009004472 0.0009252397 0.0009664531 0.001012419 0.001033738 0.001026918
 0.0009695233 0.0008794959 0.0007593668 0.0006443611 0.0005575802 0.0005214781 0.0005572102 0.0006499918 0.0008047886 0.0009805801
 0.001171569 0.001340019 0.001480215 0.001573317 0.001617276 0.001610407 0.00155265</values></Ydata></AB><ScSm><Ydata ylabel="Single channel"><values byteorder="INTEL" format="FLOAT32" numvalues="1814"> 0.07994694 0.08004238 0.08015554 0.08029214 0.08044437 0.08059768 0.08073842 0.08086101 0.08096865 0.08106454
 0.08114998 0.08123547 0.08134201 0.08148122 0.08164009 0.08179007 0.08190952 0.08200189 0.08209622 0.08221948
 0.08236024 0.08246819 0.0825001 0.08246566 0.08242263 0.08242538 0.08248901 0.08261694 0.08283444 0.08313257
 0.08338922 0.08344711 0.08330971 0.083171 0.0832001 0.0833711 0.08354239 0.08361354 0.08356464 0.08344578
 0.08340031 0.08361764 0.08415941 0.08482195 0.08520342 0.08493601 0.08392849 0.08249803 0.08129707 0.08097286
 0.0816979 0.0829757 0.08401473 0.08436736 0.08416866 0.08379485 0.08347374 0.08328409 0.08332644 0.08369987
 0.08433991 0.08495849 0.08515574 0.08467971 0.08371231 0.08284024 0.08257771 0.08296654 0.08375279 0.08469342
 0.08533194 0.08477256 0.08247346 0.07944807 0.07794718 0.07937934 0.08283735 0.0860433 0.08742166 0.08692749
 0.08538734 0.08377385 0.08295195 0.08337623 0.08479106 0.08648745 0.08786968 0.08861358 0.08851411 0.08758017
 0.08622866 0.08510723 0.08473659 0.08536432 0.08686244 0.08856905 0.0895526 0.08934921 0.08831005 0.08714178
 0.08638664 0.08639684 0.08735575 0.08905804 0.09093255 0.09246774 0.09347811 0.09398513 0.09408721 0.09394221
 0.09369276 0.09344418 0.09337007 0.09362505 0.09404206 0.09416595 0.09375939 0.0931236 0.09279305 0.09298411
 0.09340977 0.09362751 0.09347819 0.09299925 0.09197266 0.09003726 0.08743026 0.08509263 0.08374862 0.08339953
 0.08392698 0.08540638 0.08738615 0.08866155 0.08848605 0.08757421 0.08732766 0.0883231 0.08995324 0.09132504
 0.0921322 0.09270905 0.09350589 0.09457357 0.09543039 0.09541244 0.09434491 0.09296009 0.0924098 0.09315436
 0.09452236 0.0955479 0.0959916 0.09630771 0.09683996 0.09731863 0.0970916 0.09581771 0.09405454 0.09306717
 0.09378471 0.09587784 0.09792976 0.09850911 0.09718811 0.09477215 0.09262434 0.09168713 0.09211711 0.09367371
 0.09605291 0.09874164 0.1009434 0.1019851 0.1017822 0.1008122 0.09959631 0.09821486 0.0964988 0.09479325
 0.09415607 0.09536549 0.09791805 0.1004312 0.1019215 0.1023486 0.1020461 0.1010518 0.09920406 0.09684103
 0.09510744 0.09510578 0.09664638 0.0982986 0.09891386 0.09869742 0.0985548 0.09884657 0.09918952 0.09922309
 0.0991392 0.0994074 0.1001793 0.1011034 0.1017053 0.1018303 0.1016779 0.1015186 0.1014361 0.10128
 0.1008949 0.1004679 0.1005104 0.1013185 0.1025738 0.1036613 0.1042743 0.1045344 0.1046188 0.1044603
 0.1038637 0.1028909 0.1020452 0.1019122 0.1025907 0.1036196 0.1044693 0.1049339 0.1050748 0.1050207
 0.1048824 0.1047249 0.1045802 0.1045233 0.1046595 0.1049827 0.1053344 0.1055632 0.1056485 0.1056382
 0.1055471 0.1053658 0.1051309 0.1049421 0.1048967 0.1050115 0.1052218 0.1054479 0.1056303 0.1057177
 0.1056823 0.1055582 0.1054218 0.1053234 0.1052696 0.1052623 0.1053154 0.1054237 0.1055451 0.1056298
 0.1056606 0.1056521 0.1056199 0.1055664 0.1054972 0.1054348 0.1054094 0.105439 0.1055119 0.1055926
 0.1056629 0.1057443 0.105855 0.1059582 0.1059927 0.1059501 0.105887 0.1058633 0.1058952 0.1059621
 0.1060303 0.1060672 0.1060475 0.1059699 0.1058762 0.1058391 0.1059082 0.1060749 0.1062963 0.1065309
 0.1067399 0.1068906 0.1069834 0.1070531 0.1071266 0.1071987 0.1072559 0.1073075 0.1073848 0.1075159
 0.1076966 0.1078876 0.1080482 0.1081653 0.1082495 0.1083234 0.1084193 0.1085533 0.108692 0.1087782
 0.1088053 0.108832 0.1089122 0.1090331 0.109139 0.1091969 0.1092269 0.1092727 0.1093547 0.1094562
 0.1095497 0.10963 0.1097175 0.1098281 0.1099415 0.1100072 0.1099938 0.1099286 0.1098709 0.1098522
 0.1098632 0.1098906 0.10994 0.1100121 0.1100821 0.1101157 0.1101037 0.1100709 0.1100494 0.110044
 0.1100299 0.1099833 0.1099077 0.1098279 0.109765 0.1097221 0.1096863 0.1096412 0.109577 0.1094941
 0.1093982 0.1092957 0.1091899 0.1090855 0.1089982 0.1089515 0.1089466 0.1089383 0.1088595 0.1086857
 0.1084622 0.1082625 0.1081228 0.1080222 0.1079166 0.1077809 0.1076226 0.1074657 0.107329 0.1072156
 0.1071163 0.1070203 0.1069287 0.1068592 0.1068294 0.1068295 0.1068202 0.106767 0.106674 0.1065756
 0.1065012 0.1064561 0.1064306 0.1064143 0.106404 0.1064062 0.1064286 0.1064629 0.1064879 0.1064947
 0.1065001 0.10653 0.1065995 0.1067082 0.1068387 0.1069569 0.1070341 0.1070789 0.1071331 0.1072282
 0.1073576 0.1074961 0.1076326 0.1077745 0.1079306 0.1081036 0.1082946 0.1085063 0.1087386 0.1089855
 0.1092377 0.1094867 0.1097309 0.1099789 0.1102456 0.1105402 0.1108578 0.1111829 0.1115027 0.1118153
 0.1121274 0.1124437 0.1127624 0.113083 0.1134138 0.1137644 0.114132 0.1145015 0.1148607 0.1152115
 0.115563 0.1159203 0.1162809 0.1166437 0.1170184 0.1174197 0.1178438 0.1182586 0.1186289 0.1189537
 0.1192665 0.1196021 0.1199691 0.120351 0.1207207 0.1210582 0.1213677 0.1216765 0.1220066 0.1223507
 0.1226881 0.1230207 0.1233755 0.123767 0.1241668 0.1245221 0.1248056 0.1250423 0.1252836 0.1255548
 0.1258363 0.1260966 0.1263323 0.1265654 0.1268099 0.1270603 0.1273134 0.1275807 0.1278688 0.1281593
 0.1284246 0.128658 0.1288748 0.1290885 0.1292951 0.1294785 0.1296266 0.1297445 0.1298568 0.129989
 0.1301448 0.130308 0.1304696 0.1306392 0.1308291 0.1310389 0.1312651 0.1315123 0.1317841 0.1320689
 0.1323506 0.1326345 0.1329427 0.1332767 0.1335989 0.1338688 0.1340891 0.1342963 0.134516 0.1347502
 0.1350021 0.1352866 0.1356089 0.13595 0.1362807 0.1365848 0.1368704 0.1371633 0.137483 0.1378178
 0.1381285 0.138386 0.138599 0.1388045 0.1390356 0.1393003 0.1395817 0.1398543 0.1401009 0.1403142
 0.1404831 0.1405906 0.140633 0.140632 0.1406101 0.1405588 0.1404401 0.1402174 0.1398741 0.1394048
 0.1388028 0.1380687 0.1372309 0.1363562 0.1355428 0.1348963 0.1345022 0.1344065 0.1346094 0.1350666
 0.1356955 0.1363891 0.1370362 0.1375353 0.1378031 0.1377845 0.1374677 0.1368873 0.1361072 0.1351985
 0.1342287 0.133255 0.132323 0.1314824 0.1308171 0.1304566 0.1305452 0.1311877 0.1324071 0.1341192
 0.1361339 0.1382009 0.1401023 0.141732 0.1431007 0.144275 0.1453191 0.1462789 0.1471872 0.1480616
 0.1489003 0.1496924 0.1504325 0.1511209 0.1517534 0.1523164 0.1527926 0.1531676 0.1534352 0.1536016
 0.1536854 0.1537099 0.1536997 0.1536793 0.1536629 0.153635 0.1535448 0.1533292 0.1529466 0.1524034
 0.1517708 0.1511963 0.1508917 0.1510761 0.1518809 0.1532701 0.155044 0.1569335 0.1587117 0.1602457
 0.161489 0.1624588 0.1632167 0.1638387 0.1643836 0.1648809 0.1653426 0.1657761 0.1661907 0.1665961
 0.1669984 0.1673967 0.1677882 0.1681739 0.1685556 0.1689314 0.1693003 0.1696682 0.1700458 0.1704375
 0.1708347 0.1712239 0.1716013 0.1719771 0.1723603 0.1727435 0.1731102 0.1734566 0.1737961 0.174145
 0.1745099 0.1748868 0.1752636 0.1756247 0.1759619 0.1762807 0.1765944 0.176911 0.1772297 0.1775457
 0.177856 0.1781598 0.1784599 0.1787614 0.1790674 0.1793754 0.1796763 0.1799601 0.1802248 0.1804804
 0.1807424 0.1810172 0.1812981 0.181575 0.1818468 0.1821235 0.1824147 0.1827169 0.1830156 0.1832975
 0.1835623 0.1838199 0.1840792 0.1843419 0.1846066 0.1848737 0.1851443 0.1854174 0.1856909 0.185964
 0.1862375 0.186511 0.1867828 0.1870517 0.1873177 0.187582 0.1878476 0.1881167 0.1883872 0.1886541
 0.1889152 0.1891735 0.1894317 0.1896891 0.1899435 0.1901928 0.190436 0.1906748 0.1909157 0.1911649
 0.1914231 0.1916861 0.1919487 0.1922076 0.1924618 0.1927139 0.1929684 0.1932273 0.1934881 0.1937453
 0.1939961 0.1942441 0.1944958 0.1947527 0.1950113 0.1952679 0.1955221 0.1957737 0.1960231 0.1962718
 0.1965208 0.1967704 0.1970206 0.1972709 0.1975188 0.1977631 0.1980066 0.1982526 0.1985006 0.1987491
 0.1989993 0.199253 0.1995094 0.1997643 0.200013 0.2002546 0.2004945 0.2007384 0.200986 0.2012339
 0.2014814 0.2017289 0.201975 0.2022182 0.2024605 0.2027057 0.2029561 0.2032121 0.2034714 0.2037305
 0.2039862 0.2042371 0.2044835 0.2047282 0.2049746 0.2052235 0.2054738 0.2057248 0.2059773 0.2062326
 0.2064914 0.206752 0.2070111 0.2072692 0.2075305 0.2077958 0.208061 0.2083249 0.2085915 0.2088628
 0.2091366 0.2094116 0.2096853 0.2099513 0.210204 0.2104446 0.2106774 0.2109071 0.2111383 0.2113724
 0.2116073 0.2118417 0.2120782 0.2123183 0.2125623 0.2128107 0.2130626 0.2133156 0.2135716 0.213834
 0.2140995 0.2143614 0.2146196 0.2148776 0.2151365 0.2153985 0.215668 0.2159439 0.2162203 0.2164944
 0.216766 0.2170352 0.2173058 0.2175824 0.2178625 0.2181388 0.2184097 0.2186779 0.2189473 0.219223
 0.2195059 0.2197877 0.2200624 0.2203363 0.2206158 0.220897 0.2211761 0.2214548 0.2217337 0.2220136
 0.2222992 0.222589 0.2228727 0.2231472 0.2234204 0.2236987 0.2239832 0.224275 0.224569 0.2248572
 0.2251416 0.2254282 0.2257115 0.225984 0.2262514 0.2265218 0.2267936 0.2270635 0.227327 0.2275704
 0.2277736 0.2278915 0.2277784 0.2271074 0.2253321 0.2217104 0.2154608 0.2060809 0.1936564 0.1789341
 0.163108 0.1474465 0.1329547 0.1202489 0.1096478 0.1013074 0.0953104 0.09175085 0.09080771 0.09284239
 0.09852423 0.1084376 0.1216255 0.1343184 0.1413377 0.1400235 0.1326517 0.1243666 0.1189815 0.117101
 0.117429 0.118692 0.1203882 0.1226382 0.1257483 0.1297614 0.1344117 0.1395675 0.1454883 0.1524343
 0.1601601 0.168004 0.1754455 0.182448 0.189261 0.1959976 0.2024681 0.2083622 0.2134885 0.2178407
 0.2215354 0.2247362 0.2275881 0.2301832 0.2325766 0.2347965 0.2368037 0.2384698 0.2396481 0.2402895
 0.2405028 0.2405052 0.2404995 0.2405859 0.240776 0.2410585 0.2414251 0.2418629 0.2423579 0.2429011
 0.24348 0.2440751 0.2446705 0.2452531 0.2458091 0.2463336 0.2468328 0.2473095 0.24776 0.2481856
 0.2485925 0.2489839 0.2493622 0.2497324 0.2500974 0.2504566 0.2508116 0.2511615 0.2514976 0.2518122
 0.2521048 0.2523794 0.2526425 0.2529037 0.2531663 0.2534254 0.2536786 0.2539293 0.2541774 0.2544204
 0.2546615 0.2549063 0.2551526 0.2553946 0.2556305 0.2558613 0.2560886 0.2563161 0.2565475 0.2567827
 0.2570207 0.2572609 0.2574999 0.2577338 0.257964 0.2581943 0.2584277 0.2586693 0.2589236 0.2591857
 0.2594448 0.2596991 0.2599557 0.2602198 0.2604899 0.2607625 0.2610359 0.2613114 0.2615901 0.2618674
 0.262133 0.2623798 0.2626094 0.2628294 0.2630497 0.2632778 0.263513 0.2637465 0.2639748 0.2642046
 0.264443 0.2646891 0.2649373 0.2651815 0.2654205 0.2656615 0.2659153 0.2661844 0.2664636 0.2667491
 0.2670404 0.2673331 0.2676233 0.2679138 0.268206 0.268492 0.2687633 0.2690269 0.2693052 0.2696183
 0.2699648 0.2703196 0.2706549 0.2709631 0.2712573 0.2715568 0.2718748 0.2722071 0.2725236 0.2727905
 0.2730167 0.2732612 0.2735776 0.2739621 0.2743648 0.2747416 0.2750826 0.2754019 0.2757125 0.2760135
 0.2762926 0.2765413 0.2767711 0.2770196 0.2773263 0.2776922 0.2780744 0.27843 0.2787516 0.2790527
 0.279346 0.2796386 0.279919 0.2801422 0.2802743 0.2803683 0.2805535 0.2809139 0.2813974 0.2818715
 0.2822555 0.2825714 0.2828756 0.2831866 0.2834901 0.2837532 0.2839013 0.2838576 0.2836833 0.2836217
 0.2839017 0.28451 0.2852221 0.2858297 0.2862772 0.2866148 0.286905 0.2871783 0.2874138 0.287544
 0.287527 0.2874492 0.2875115 0.2878496 0.2883813 0.2888945 0.2892689 0.289547 0.289817 0.2901132
 0.290394 0.2905265 0.2903478 0.2898864 0.2895029 0.2896522 0.2904434 0.2915155 0.2924008 0.2929408
 0.2932797 0.2935321 0.2936145 0.2933982 0.2928664 0.2921157 0.2913983 0.2911653 0.291772 0.2930225
 0.2942507 0.2949892 0.2953707 0.2957899 0.2963898 0.2970011 0.2974163 0.2975755 0.2975332 0.2973359
 0.296999 0.2966446 0.2965828 0.2970921 0.2980947 0.299177 0.2999763 0.3004662 0.3007926 0.3008524
 0.3001814 0.2985052 0.2964645 0.2954557 0.2963894 0.2987323 0.3010837 0.302559 0.3032743 0.3036943
 0.3040293 0.3041719 0.3036811 0.301928 0.2989485 0.2961888 0.29563 0.2978371 0.3013283 0.3040105
 0.3047797 0.3037519 0.3017362 0.2998571 0.2991506 0.2999996 0.3019763 0.3042779 0.3062081 0.3073627
 0.3076568 0.3072861 0.3066439 0.3062108 0.306253 0.3064216 0.3059707 0.3047246 0.3034194 0.3025671
 0.3015091 0.2994912 0.2973554 0.2970136 0.2990865 0.302007 0.303838 0.304253 0.304179 0.3039202
 0.3024006 0.298579 0.2933863 0.289688 0.2898276 0.2932843 0.2971902 0.2991489 0.299125 0.2986096
 0.2985291 0.2982709 0.2965987 0.2934029 0.290373 0.2894816 0.2907682 0.292271 0.2921966 0.2901762
 0.2863099 0.2807139 0.2750192 0.2726791 0.2759148 0.2829419 0.2895485 0.2927347 0.2916456 0.2863048
 0.2779158 0.2701683 0.2675796 0.2713221 0.277853 0.2823493 0.2825102 0.2786391 0.271669 0.2627553
 0.2543045 0.2496809 0.2510656 0.2577105 0.2660732 0.271349 0.2699328 0.2623152 0.2537921 0.2504636
 0.253497 0.2583697 0.2601907 0.2582982 0.2552236 0.253238 0.2530993 0.2545097 0.2564633 0.2580351
 0.2590913 0.2589534 0.2550669 0.2458282 0.2348001 0.2288303 0.230988 0.2380734 0.2458087 0.253143
 0.2599128 0.2637566 0.2626338 0.2588994 0.2578183 0.2619445 0.2686798 0.2735806 0.2748541 0.2740831
 0.2732953 0.2725154 0.2708048 0.2689244 0.269347 0.2731974 0.2785032 0.2823352 0.2837394 0.2837436
 0.283404 0.282918 0.2821574 0.2810998 0.2797911 0.2783625 0.2770183 0.2758132 0.274616 0.2733763
 0.2720472 0.269994 0.2660457 0.2600185 0.2540232 0.2510192 0.2517161 0.2541196 0.2563992 0.2582234
 0.2583847 0.2538089 0.2435777 0.2325359 0.2279587 0.232515 0.2421374 0.2505739 0.2543274 0.2530902
 0.247622 0.2393969 0.2320955 0.2309799 0.2388434 0.2530661 0.26794 0.27948 0.2869546 0.2906918
 0.2905417 0.28699 0.2824481 0.2803197 0.2826633 0.2888329 0.2959839 0.3004046 0.2991196 0.2923241
 0.2850397 0.2840986 0.2913646 0.3012559 0.3069061 0.3073714 0.3066691 0.3074084 0.3085377 0.3088439
 0.3094524 0.3118931 0.3155617 0.3182115 0.3179695 0.3141271 0.3071295 0.2991242 0.2936352 0.292798
 0.2950377 0.2969145 0.2966775 0.2942969 0.2892923 0.2817128 0.2748997 0.2736881 0.2789085 0.2861414
 0.2907616 0.2922475 0.2927609 0.2932461 0.2923192 0.2885949 0.283152 0.2790683 0.2784034 0.2802531
 0.2822306 0.2830493 0.2827246 0.2810817 0.2777625 0.2738191 0.27185 0.2736937 0.2784676 0.2834371
 0.2865344 0.2876191 0.2876767 0.2875575 0.287526 0.2874161 0.2870439 0.2867883 0.2876257 0.2900741
 0.2932599 0.2956987 0.2970011 0.2981986 0.3003052 0.3030872 0.3054357 0.3065991 0.3068513 0.3071333
 0.3081889 0.3099445 0.3115842 0.3122751 0.3119826 0.311605 0.3121709 0.3138673 0.3159701 0.3176743
 0.3187702 0.3195357 0.3202815 0.3210894 0.321773 0.322037 0.3218684 0.3217776 0.3224136 0.3238829
 0.3256165 0.3269439 0.3276411 0.3278908 0.3279015 0.3277078 0.3272811 0.3267017 0.3261615 0.3258194
 0.3256898 0.3256747 0.3256715 0.325633 0.3255642 0.3255042 0.3255034 0.3255867 0.32574 0.3259381
 0.3261628 0.3263862 0.3265687 0.326698 0.3268009 0.326893 0.3269353 0.3268549 0.3265886 0.3260933
 0.3253334 0.3242787 0.3229027 0.3211671 0.3190327 0.3165665 0.3141071 0.312292 0.311793 0.3128935
 0.3152688 0.3181702 0.3208483 0.3228739 0.3241838 0.3249289 0.3253022 0.3254486 0.32545 0.325344
 0.3251497 0.3248859 0.3245725 0.324226 0.3238668 0.3235262 0.3232311 0.3229824 0.3227538 0.3225088
 0.322216 0.3218529 0.3214085 0.3208839 0.3202866 0.3196156 0.3188498 0.3179611 0.3169509 0.3158709
 0.3147982 0.3137879 0.3128426 0.3119225 0.3109803 0.3099792 0.3088697 0.3075787 0.3060814 0.304502
 0.303077 0.3019636 0.3010998 0.3002796 0.2993361 0.2982273 0.2969897 0.2956703 0.2943028 0.2929058
 0.2914807 0.290013 0.2884786 0.2868525 0.2851233 0.2832994 0.2813973 0.2794307 0.2774166 0.2753752
 0.2732974 0.2711038 0.268647 0.2657604 0.2623085 0.2582095 0.2534452 0.2480805 0.2422742 0.2362534
 0.2302553 0.2244802 0.2190863 0.2142107 0.2099796 0.2064976 0.2038325 0.2020157 0.2010591 0.2009691
 0.2017395 0.2033332 0.20567 0.2086258 0.2120375 0.2157134 0.2194499 0.2230591 0.22641 0.2294671
 0.2322819 0.2349249 0.237415 0.2397134 0.2417722 0.2435727 0.2451202 0.2464226 0.2474875 0.248338
 0.2490221 0.2495987 0.2501101 0.2505634 0.2509399 0.2512242 0.2514287 0.2515921 0.2517582 0.2519565
 0.2521954 0.2524704 0.2527774 0.2531246 0.2535308 0.2540141 0.2545816 0.2552259 0.2559272 0.2566653
 0.2574387 0.2582724 0.2592061 0.26028 0.2615256 0.2629551 0.264551 0.2662659 0.2680292 0.2697499
 0.2713239 0.2726572 0.2736928 0.2744203 0.2748612 0.2750466 0.2750067 0.2747717 0.2743744 0.2738455
 0.2732096 0.2724875 0.2716964 0.270845 0.2699312 0.2689502 0.2679098 0.2668401 0.26578 0.2647508
 0.2637499 0.2627687 0.2618079 0.2608725 0.2599652 0.2590888 0.2582464 0.2574413 0.2566812 0.2559711
 0.2552959 0.2546177 0.2538931 0.2530836 0.2521548 0.2510807 0.2498515 0.2484719 0.2469518 0.2452988
 0.243516 0.2416109 0.2396052 0.2375256 0.2353846 0.2331757 0.2308828 0.2284914 0.2260123 0.2235116
 0.2210948 0.2188448 0.2167796 0.2148688 0.2130735 0.2113691 0.2097493 0.2082107 0.2067384 0.2053162
 0.2039444 0.2026364 0.2014017 0.2002436 0.1991658 0.1981776 0.1972965 0.1965384 0.1958993 0.1953551
 0.1948848 0.1944813 0.1941517 0.1939228 0.1938319 0.193878 0.1939929 0.194079 0.1940736 0.1939779
 0.1938438 0.1937332 0.1936761 0.1936618 0.1936577 0.1936137 0.1934544 0.1930914 0.1924398 0.1914207
 0.1899815 0.1881348 0.1859705 0.1836364 0.1813154 0.1791878 0.177373 0.1759096 0.1747809 0.1739319
 0.1732777 0.1727504 0.1723514 0.1721451 0.1722001 0.1725093 0.1729335 0.1732645 0.1734069 0.1734856
 0.1737384 0.1743189 0.1752074 0.176256 0.1772918 0.1782029 0.1789489 0.1795181 0.1799146 0.1801741
 0.1803342 0.1803934 0.180334 0.1801569 0.1798693 0.1794746 0.1789874 0.1784208 0.1777666 0.1770174
 0.1761811 0.1752568 0.174235 0.1731149 0.1718747 0.1704703 0.1689454 0.1675204 0.1665114 0.1661551
 0.1664844 0.1673175 0.168389 0.169527 0.1706643 0.1716961 0.172485 0.1730804 0.1738231 0.1751181
 0.1770886 0.1794507 0.1817163 0.1835136 0.1847079 0.1852938 0.1853066 0.1848218 0.1838953 0.1825095
 0.1806744 0.1785113 0.1761653 0.17375 0.1714098 0.1692913 0.1674601 0.165939 0.1647391 0.16386
 0.1633671 0.1629718 0.1610321 0.1551383 0.1455357 0.1373145 0.1365481 0.1437379 0.1531006 0.1587757
 0.1597981 0.1586591 0.1574084 0.156477 0.1557867 0.1554244 0.1554586 0.1557773 0.1561376 0.1562855
 0.156108 0.1556174 0.1546949 0.1528552 0.149232 0.1428857 0.1335048 0.1220567 0.1105739 0.1010661
 0.09453176 0.09076656 0.08879769 0.08755291 0.08647266 0.08570755 0.08576182 0.08697912 0.08935177 0.09266156
 0.09662881 0.1008997 0.1050176 0.1085619 0.1113543 0.1134606 0.1149959 0.1160084 0.1165319 0.1166307
 0.1163713 0.1158147 0.1150278 0.1140475 0.1128557 0.1114406 0.1098906 0.1084129 0.1072423 0.1064942
 0.1061007 0.10591 0.1058239 0.1058161 0.1058715 0.1059688 0.1060971 0.1062605 0.1064795 0.1067815
 0.1071552 0.1075304 0.1078305 0.1080291 0.1081383 0.1081604 0.1080646 0.1078171 0.1074507 0.1070686
 0.1067032 0.1061958 0.1053233 0.1040827 0.102795 0.1019021 0.1016592 0.1019796 0.1025279 0.1029724
 0.103185 0.103238 0.1032453 0.1032175</values></Ydata></ScSm><ScRf><Ydata ylabel="Single channel"><values byteorder="INTEL" format="FLOAT32" numvalues="1820"> 0.06971671 0.06984448 0.0699589 0.07005932 0.07015124 0.07024573 0.07035359 0.07047825 0.07061392 0.07074888
 0.07087164 0.07097849 0.07107338 0.0711595 0.07123861 0.0713205 0.07142134 0.07154652 0.07168257 0.07180808
 0.07191007 0.07199474 0.07208721 0.07220841 0.0723433 0.07244173 0.07246318 0.07242043 0.07237308 0.07237558
 0.07244151 0.07256971 0.07277773 0.07305369 0.07328653 0.07333658 0.07321022 0.07308455 0.07311246 0.0732701
 0.07342912 0.07349887 0.07346214 0.07336359 0.07332872 0.0735243 0.07400657 0.07459749 0.07494015 0.07470515
 0.07381056 0.07253979 0.0714732 0.07118525 0.07183014 0.0729688 0.07389668 0.07421199 0.0740339 0.07370123
 0.07342075 0.07326145 0.07330811 0.07364528 0.07421489 0.07476295 0.07493864 0.07452276 0.07367751 0.07291912
 0.07269715 0.07304417 0.07373489 0.07455806 0.07511561 0.07461931 0.07259047 0.06992295 0.06860355 0.06987467
 0.07293324 0.07576692 0.07698616 0.07655439 0.07520336 0.07379074 0.07307649 0.07345827 0.07470928 0.07620524
 0.07742228 0.07807481 0.0779821 0.07715419 0.07596284 0.07498149 0.07466713 0.07523368 0.0765654 0.07807779
 0.07894871 0.07876918 0.07785235 0.07682671 0.07617219 0.07619503 0.07705076 0.07855646 0.08021154 0.08156836
 0.08246381 0.08291589 0.08301188 0.0828921 0.08268172 0.08247113 0.0824115 0.08263853 0.08300425 0.08310667
 0.08273914 0.08217432 0.08189029 0.08207715 0.08247305 0.08267906 0.08255358 0.08213352 0.08122794 0.07951641
 0.07720881 0.0751403 0.07395457 0.07365423 0.07413445 0.07545897 0.07722162 0.07835093 0.0781887 0.07737675
 0.0771632 0.07805801 0.07951744 0.08074562 0.08146959 0.08198579 0.08269438 0.0836428 0.08440613 0.08439511
 0.08345193 0.08222537 0.08174063 0.08241026 0.08363811 0.08456263 0.08496834 0.08525924 0.08574228 0.08617826
 0.08598806 0.08486891 0.08331425 0.0824444 0.08308421 0.08494589 0.08677587 0.08730268 0.08614305 0.08401041
 0.08211561 0.08129539 0.08168791 0.08308078 0.08520898 0.08762221 0.08961223 0.09057221 0.09041646 0.08956562
 0.08848703 0.08725858 0.08573553 0.08422865 0.08368022 0.0847806 0.08707815 0.08933952 0.09068774 0.09108689
 0.0908359 0.08997054 0.08834665 0.08626375 0.08474183 0.08476504 0.086164 0.08766062 0.08822867 0.08805227
 0.08794204 0.08822213 0.08855176 0.08860993 0.08856851 0.0888457 0.08957307 0.09043171 0.09099524 0.09112687
 0.09100874 0.09088629 0.09083557 0.09072091 0.09040217 0.0900472 0.0901144 0.09086758 0.09201807 0.09301403
 0.09358364 0.0938399 0.09394227 0.09382868 0.0933231 0.09248132 0.09175333 0.09166329 0.09230161 0.09325764
 0.09405504 0.09450553 0.09466349 0.09464672 0.0945558 0.09444758 0.0943512 0.09433642 0.09449864 0.09482947
 0.09518346 0.09542224 0.09552494 0.09553382 0.0954665 0.09532282 0.09514035 0.09500475 0.09499492 0.09512174
 0.09533148 0.09556028 0.09575827 0.09587549 0.0958797 0.09579805 0.09570074 0.09563629 0.09561095 0.09562534
 0.09569252 0.09581068 0.09594336 0.09604464 0.09609717 0.09611419 0.09611102 0.09609087 0.09605855 0.09603313
 0.09604146 0.09609982 0.09619658 0.09629788 0.09638585 0.09648198 0.09660652 0.09672709 0.09678497 0.09676938
 0.09673235 0.09673101 0.09678018 0.09685846 0.09693498 0.09698229 0.09697926 0.09692463 0.09685715 0.09684443
 0.09693211 0.0971112 0.0973421 0.09758707 0.09780925 0.0979756 0.09808436 0.09816733 0.09824985 0.09832769
 0.09838958 0.09844509 0.09852417 0.09865439 0.09883492 0.09903207 0.09920656 0.09934077 0.09943967 0.09952579
 0.09963577 0.09978889 0.09994976 0.1000569 0.1001014 0.100144 0.1002398 0.1003724 0.1004811 0.1005352
 0.1005625 0.1006112 0.1006993 0.1008052 0.1009015 0.1009871 0.1010853 0.101211 0.1013405 0.1014218
 0.1014244 0.1013756 0.1013338 0.1013303 0.1013566 0.1013994 0.1014614 0.1015415 0.1016163 0.1016563
 0.1016573 0.1016472 0.101656 0.1016826 0.1016957 0.1016688 0.1016073 0.1015416 0.1014989 0.1014848
 0.1014839 0.101474 0.1014409 0.1013829 0.1013073 0.1012238 0.10114 0.1010641 0.1010131 0.1010078
 0.1010442 0.1010702 0.1010163 0.1008606 0.1006532 0.1004695 0.1003451 0.1002595 0.1001686 0.100045
 0.09989248 0.09973416 0.09959029 0.09946564 0.09935247 0.09924297 0.09914095 0.09906265 0.09901954 0.09899598
 0.09895256 0.09886198 0.09873738 0.09861656 0.09852387 0.09845667 0.09840114 0.09834863 0.09830114 0.09827051
 0.09826648 0.09827942 0.09828462 0.09826964 0.09824893 0.09824856 0.09828828 0.09837481 0.09849305 0.09860265
 0.09866579 0.09868652 0.09870782 0.09876551 0.0988593 0.09897052 0.09908997 0.09921978 0.09936131 0.09951334
 0.09967861 0.09986287 0.1000676 0.1002863 0.100508 0.100724 0.1009338 0.1011475 0.1013815 0.1016459
 0.1019346 0.1022273 0.1025064 0.1027718 0.1030362 0.103309 0.1035877 0.1038672 0.1041516 0.1044497
 0.1047631 0.105084 0.1054053 0.1057265 0.1060505 0.106378 0.1067074 0.1070392 0.1073816 0.1077437
 0.1081186 0.1084781 0.1087959 0.1090755 0.1093485 0.1096455 0.109975 0.1103228 0.1106625 0.110971
 0.1112486 0.1115199 0.1118065 0.1121045 0.1123978 0.1126916 0.1130138 0.1133806 0.1137656 0.1141141
 0.1143905 0.1146121 0.1148299 0.1150759 0.1153348 0.1155734 0.1157835 0.115987 0.1162032 0.1164323
 0.1166715 0.1169293 0.1172095 0.1174929 0.1177513 0.117976 0.1181804 0.1183769 0.1185597 0.1187128
 0.1188274 0.1189154 0.1190072 0.1191288 0.1192787 0.1194339 0.1195808 0.119728 0.119889 0.1200663
 0.1202615 0.1204835 0.1207343 0.1209957 0.1212465 0.1214926 0.1217614 0.1220591 0.1223509 0.1225973
 0.1227996 0.1229901 0.1231895 0.1233968 0.1236167 0.1238685 0.1241612 0.124477 0.1247845 0.1250657
 0.1253296 0.1256056 0.1259125 0.1262309 0.1265142 0.1267346 0.1269111 0.1270893 0.1273032 0.1275578
 0.1278371 0.1281195 0.12839 0.1286387 0.1288506 0.129008 0.1291093 0.1291774 0.129234 0.1292685
 0.129243 0.1291247 0.1289033 0.1285764 0.1281325 0.1275609 0.1268809 0.126158 0.12549 0.1249736
 0.1246779 0.124638 0.1248565 0.1252993 0.1258929 0.1265389 0.1271386 0.1276079 0.1278777 0.1278998
 0.127663 0.1271979 0.1265593 0.1258062 0.1249922 0.1241621 0.1233487 0.1225892 0.1219566 0.121571
 0.1215657 0.1220364 0.1230071 0.1244118 0.1260913 0.12783 0.1294392 0.130829 0.132008 0.1330271
 0.1339329 0.1347597 0.135535 0.1362747 0.1369787 0.1376416 0.1382648 0.1388535 0.139406 0.1399091
 0.1403439 0.1406915 0.1409408 0.1410982 0.1411861 0.1412297 0.1412469 0.1412499 0.1412436 0.1412118
 0.141112 0.1408947 0.1405333 0.1400416 0.1394836 0.1389815 0.1387091 0.1388465 0.1395031 0.1406506
 0.1421234 0.1436963 0.1451801 0.1464656 0.1475129 0.1483313 0.1489673 0.1494844 0.1499358 0.1503513
 0.1507443 0.1511206 0.1514834 0.1518355 0.1521798 0.1525183 0.1528543 0.1531941 0.1535394 0.1538831
 0.1542163 0.154542 0.1548741 0.155223 0.1555837 0.1559407 0.1562853 0.1566254 0.1569725 0.1573239
 0.1576643 0.1579858 0.1582967 0.1586123 0.1589432 0.1592904 0.1596427 0.1599804 0.1602894 0.1605729
 0.1608464 0.1611225 0.1614058 0.1616965 0.1619925 0.1622881 0.1625757 0.1628512 0.1631188 0.1633861
 0.1636556 0.1639212 0.1641771 0.1644275 0.1646827 0.1649474 0.1652156 0.1654775 0.16573 0.1659794
 0.1662358 0.1665031 0.1667736 0.167035 0.1672829 0.1675237 0.167767 0.1680172 0.1682734 0.1685331
 0.1687948 0.1690559 0.1693126 0.1695632 0.1698106 0.1700583 0.1703056 0.1705497 0.1707913 0.1710349
 0.1712829 0.1715343 0.1717862 0.1720381 0.1722916 0.172547 0.1728008 0.1730482 0.1732874 0.1735197
 0.1737472 0.173972 0.1741986 0.1744321 0.1746742 0.1749219 0.1751695 0.1754131 0.1756527 0.1758912
 0.1761305 0.17637 0.1766088 0.176847 0.1770855 0.1773256 0.1775689 0.1778156 0.1780634 0.1783087
 0.1785484 0.178781 0.17901 0.1792419 0.1794802 0.1797214 0.1799596 0.1801934 0.1804259 0.1806605
 0.1808974 0.1811342 0.1813701 0.181607 0.1818454 0.1820822 0.1823163 0.1825514 0.18279 0.1830292
 0.1832642 0.1834933 0.1837193 0.1839474 0.1841819 0.1844223 0.1846638 0.184904 0.1851443 0.1853857
 0.1856262 0.1858631 0.1860962 0.1863295 0.1865685 0.1868131 0.1870577 0.1872977 0.1875344 0.1877699
 0.1880061 0.1882469 0.188496 0.1887509 0.189005 0.1892552 0.1895038 0.1897555 0.1900115 0.1902672
 0.1905158 0.1907572 0.1909993 0.1912486 0.1915063 0.1917704 0.1920364 0.1922972 0.1925477 0.1927863
 0.1930117 0.193225 0.1934344 0.1936496 0.1938731 0.1941018 0.1943322 0.1945616 0.1947912 0.1950265
 0.1952707 0.19552 0.1957716 0.1960278 0.1962888 0.1965494 0.1968057 0.1970567 0.1973036 0.1975513
 0.1978038 0.1980595 0.1983151 0.1985725 0.198834 0.1990969 0.1993591 0.1996225 0.1998864 0.2001491
 0.2004121 0.2006763 0.2009387 0.201199 0.2014596 0.2017199 0.2019803 0.2022492 0.2025306 0.2028153
 0.2030936 0.2033657 0.2036359 0.2039082 0.2041854 0.2044641 0.2047362 0.2050014 0.2052673 0.2055364
 0.205808 0.2060844 0.2063644 0.206641 0.2069138 0.2071889 0.2074656 0.2077391 0.2080096 0.2082767
 0.2085371 0.2087953 0.2090568 0.2093105 0.2095293 0.2096587 0.2095581 0.2089329 0.207294 0.2039689
 0.1982374 0.1896261 0.1782029 0.1646534 0.1500828 0.1356658 0.1223292 0.1106377 0.1008814 0.09320286
 0.08767986 0.08440251 0.08353943 0.0854259 0.09067914 0.09983541 0.1120076 0.1237158 0.1301854 0.1289686
 0.1221694 0.1145328 0.1095738 0.1078517 0.1081728 0.10936 0.1109421 0.1130261 0.1158992 0.1196092
 0.1239128 0.128685 0.1341638 0.1405915 0.1477442 0.1550101 0.1619054 0.168393 0.1747013 0.1809366
 0.1869265 0.1923858 0.1971388 0.2011817 0.2046235 0.2076122 0.2102758 0.2126968 0.2149271 0.2169934
 0.218859 0.2204084 0.2215125 0.2221288 0.2223525 0.2223756 0.222384 0.2224751 0.2226639 0.2229403
 0.2232962 0.2237204 0.2242 0.2247261 0.2252859 0.2258608 0.2264353 0.226998 0.2275391 0.2280558
 0.2285505 0.2290207 0.2294611 0.2298761 0.230276 0.2306654 0.2310442 0.2314134 0.2317735 0.232125
 0.2324717 0.2328142 0.2331443 0.2334544 0.2337447 0.2340191 0.2342824 0.2345421 0.2348026 0.2350609
 0.2353138 0.2355632 0.2358107 0.2360567 0.2363039 0.2365556 0.2368109 0.2370677 0.2373239 0.237574
 0.2378138 0.2380456 0.238276 0.2385093 0.2387475 0.2389906 0.239234 0.2394726 0.2397059 0.2399381
 0.2401762 0.2404282 0.2406956 0.2409689 0.2412369 0.2414987 0.24176 0.2420246 0.2422945 0.2425709
 0.2428508 0.2431298 0.243408 0.243685 0.2439528 0.244202 0.244433 0.2446558 0.244882 0.2451196
 0.2453675 0.2456177 0.245863 0.2461026 0.2463383 0.2465727 0.2468098 0.2470517 0.247299 0.2475563
 0.2478316 0.2481235 0.2484203 0.2487136 0.2490042 0.2492936 0.2495798 0.2498627 0.2501445 0.2504231
 0.2506942 0.2509609 0.2512382 0.2515441 0.2518822 0.2522332 0.252571 0.2528858 0.2531883 0.2534963
 0.2538227 0.254163 0.254487 0.2547598 0.2549866 0.2552231 0.2555245 0.2558934 0.2562875 0.2566653
 0.2570142 0.2573436 0.2576644 0.2579761 0.2582691 0.2585359 0.2587859 0.2590524 0.2593708 0.2597408
 0.2601205 0.2604703 0.2607855 0.2610815 0.26137 0.2616568 0.2619331 0.2621604 0.2623086 0.262425
 0.2626256 0.262985 0.2634554 0.2639188 0.2643061 0.2646367 0.2649549 0.2652707 0.2655716 0.2658333
 0.2659923 0.2659778 0.2658458 0.265824 0.2661272 0.2667395 0.2674426 0.2680362 0.2684705 0.2687988
 0.2690855 0.2693623 0.2696116 0.2697679 0.2697874 0.2697479 0.2698383 0.2701861 0.2707129 0.2712201
 0.2715991 0.2718928 0.2721821 0.2724937 0.2727867 0.2729391 0.2728036 0.2724093 0.27209 0.2722657
 0.273037 0.2740714 0.274934 0.2754719 0.2758143 0.2760707 0.2761699 0.2759933 0.2755211 0.2748418
 0.2741958 0.2740116 0.2746222 0.2758373 0.2770243 0.2777444 0.2781295 0.2785564 0.2791586 0.2797707
 0.2801934 0.2803708 0.2803565 0.2801967 0.2799085 0.2796089 0.2795903 0.2801127 0.2810997 0.2821607
 0.2829567 0.2834645 0.2838184 0.2839154 0.2833167 0.2817679 0.2798758 0.2789547 0.2798622 0.2820994
 0.2843513 0.2857848 0.286505 0.286945 0.2873018 0.2874775 0.2870584 0.285448 0.2826755 0.2801077
 0.2796217 0.281754 0.2851001 0.2876761 0.2884366 0.2874944 0.2856179 0.283873 0.2832421 0.2840908
 0.2860144 0.2882497 0.2901345 0.2912879 0.2916296 0.2913379 0.2907769 0.2904039 0.2904822 0.2906866
 0.2903039 0.2891603 0.287956 0.2871855 0.2862282 0.2843641 0.2823869 0.2821122 0.2841341 0.2869678
 0.2887741 0.289243 0.2892513 0.2890782 0.2876932 0.2841086 0.2792196 0.2757606 0.275963 0.2793277
 0.2831204 0.2850583 0.2851098 0.2846975 0.2847039 0.2845436 0.2830358 0.2800748 0.2772732 0.2765164
 0.2778445 0.2793828 0.2794133 0.277577 0.273967 0.2687024 0.263357 0.261241 0.2644719 0.2713309
 0.2777839 0.2809635 0.2800516 0.2750646 0.2671556 0.2598774 0.2575824 0.2614002 0.2679169 0.2724854
 0.2728878 0.269412 0.2629508 0.2546207 0.2467604 0.2426429 0.2443933 0.251285 0.259858 0.2654064
 0.2643916 0.2572907 0.2493006 0.2464122 0.2497729 0.2549357 0.2570879 0.2555757 0.2528915 0.2512804
 0.2515004 0.2532537 0.2555239 0.2573784 0.2586857 0.2587673 0.2550575 0.2459412 0.2349879 0.2290679
 0.2312689 0.2383928 0.2461531 0.2534927 0.2602435 0.2640375 0.2628224 0.2589421 0.2576556 0.261518
 0.2679399 0.2724965 0.2734234 0.2723336 0.2712766 0.2702867 0.2684234 0.2664328 0.2667658 0.2705368
 0.2757867 0.2796122 0.2810728 0.2811889 0.2809982 0.280683 0.2801098 0.2792561 0.2781629 0.2769519
 0.2758266 0.2748492 0.2738917 0.2728956 0.2718052 0.2699827 0.2662557 0.2604387 0.2546455 0.2518389
 0.2527222 0.2552848 0.2576817 0.2595714 0.2597364 0.2550945 0.2447334 0.2335217 0.2287589 0.23312
 0.2425237 0.2507019 0.2541543 0.2525849 0.2467707 0.2381937 0.2305172 0.2289694 0.2363251 0.2499857
 0.264288 0.2752821 0.2822545 0.2855525 0.2850514 0.2812416 0.2764934 0.274136 0.2761672 0.281931
 0.2886265 0.2926256 0.2910471 0.2841136 0.276736 0.2755637 0.2824011 0.2918164 0.297137 0.2974461
 0.2966397 0.2972453 0.2982442 0.2984674 0.2990118 0.3013633 0.3049428 0.3075859 0.3074902 0.3039698
 0.2974441 0.2899793 0.2849796 0.2844958 0.286963 0.2890072 0.2889211 0.2866976 0.2818998 0.2746014
 0.2680705 0.2670155 0.2722313 0.2793963 0.2839981 0.2855334 0.2861171 0.2866727 0.2858478 0.2822893
 0.2770564 0.2731654 0.2726373 0.2745935 0.2767026 0.2777037 0.2776036 0.2762194 0.2731924 0.2695507
 0.2678413 0.2698617 0.2747324 0.2797531 0.2828818 0.2839709 0.2839765 0.2837269 0.2834891 0.2831197
 0.2824593 0.2818961 0.2823973 0.2844775 0.2872885 0.289386 0.290394 0.2913168 0.2931373 0.2956262
 0.2977084 0.2986564 0.2987328 0.2988452 0.2997184 0.3012931 0.3027861 0.3033833 0.3030422 0.3026374
 0.3031746 0.3048317 0.3068929 0.30857 0.3096615 0.3104361 0.3111865 0.3119836 0.3126452 0.3128878
 0.3127042 0.3125956 0.3131963 0.3146101 0.3162828 0.3175613 0.3182276 0.3184646 0.3184835 0.3183231
 0.3179511 0.3174322 0.316942 0.316634 0.3165298 0.3165396 0.3165614 0.3165451 0.3164965 0.3164588
 0.3164836 0.3165921 0.3167641 0.3169693 0.317189 0.3173999 0.3175701 0.3176934 0.317799 0.3179024
 0.3179615 0.3179001 0.3176566 0.3171942 0.316483 0.3154941 0.3142012 0.3125679 0.3105567 0.3082297
 0.3059129 0.3042263 0.3038222 0.3049687 0.3073397 0.3102065 0.3128501 0.3148607 0.316171 0.316915
 0.317278 0.3174143 0.317419 0.3173296 0.3171493 0.3168808 0.3165445 0.3161734 0.3158005 0.3154516
 0.3151398 0.3148635 0.3146062 0.3143373 0.31402 0.3136294 0.3131639 0.3126359 0.3120504 0.3113958
 0.3106477 0.3097859 0.3088194 0.3077971 0.3067858 0.3058297 0.3049296 0.3040538 0.3031663 0.3022341
 0.3012056 0.3000074 0.2986175 0.2971568 0.2958512 0.2948509 0.2940975 0.2933918 0.2925672 0.2915763
 0.2904496 0.2892302 0.2879516 0.2866379 0.2852967 0.2839141 0.2824619 0.2809154 0.2792689 0.2775336
 0.2757225 0.2738462 0.2719223 0.2699708 0.2679816 0.2658813 0.2635351 0.260785 0.2574931 0.2535666
 0.2489757 0.243779 0.2381351 0.2322728 0.2264286 0.2208033 0.2155598 0.210836 0.2067449 0.2033709
 0.2007748 0.1990019 0.1980829 0.1980271 0.1988169 0.2004064 0.2027207 0.2056469 0.2090296 0.2126798
 0.2163948 0.2199855 0.2233201 0.2263654 0.2291764 0.2318193 0.2343017 0.2365783 0.2386066 0.2403779
 0.2419 0.2431757 0.2442116 0.2450383 0.2457107 0.2462842 0.2467925 0.2472439 0.2476299 0.2479384
 0.2481685 0.248339 0.2484832 0.2486342 0.2488131 0.2490265 0.2492765 0.2495743 0.2499407 0.2503922
 0.2509277 0.2515346 0.2522006 0.2529189 0.2536856 0.2545034 0.2553911 0.2563873 0.2575367 0.2588637
 0.2603573 0.2619748 0.2636479 0.2652836 0.2667753 0.2680311 0.2689994 0.2696727 0.2700701 0.2702179
 0.2701451 0.2698866 0.2694777 0.2689415 0.2682921 0.267551 0.2667507 0.2659139 0.2650369 0.2641012
 0.2631024 0.2620682 0.2610444 0.2600598 0.2591113 0.2581826 0.257268 0.2563719 0.2554967 0.2546444
 0.2538215 0.2530378 0.2522998 0.2516053 0.2509404 0.2502821 0.2496 0.2488514 0.2479866 0.2469682
 0.2457839 0.2444373 0.2429395 0.241309 0.2395685 0.2377337 0.2358093 0.2337975 0.231704 0.229537
 0.2272944 0.2249612 0.2225394 0.2200868 0.2177061 0.2154836 0.2134485 0.2115841 0.2098567 0.2082343
 0.2066936 0.2052181 0.203795 0.2024215 0.2011078 0.1998618 0.1986808 0.1975639 0.1965216 0.1955698
 0.1947239 0.1939927 0.1933691 0.1928373 0.1923894 0.1920237 0.1917386 0.19155 0.1914912 0.191563
 0.1916958 0.1917922 0.1917987 0.1917298 0.1916371 0.1915655 0.191529 0.1915221 0.1915342 0.1915316
 0.1914331 0.1911305 0.1905259 0.1895442 0.1881439 0.1863441 0.1842354 0.1819613 0.1796944 0.1776044
 0.1758137 0.1743782 0.1732959 0.1725079 0.1719112 0.1714203 0.1710307 0.1708159 0.1708645 0.1711871
 0.1716473 0.1720237 0.1722046 0.1723094 0.1725824 0.1731866 0.1741054 0.1751866 0.1762509 0.177183
 0.1779432 0.1785216 0.1789239 0.1791888 0.1793599 0.1794409 0.1794088 0.1792521 0.178975 0.1785954
 0.1781432 0.1776284 0.1770236 0.1763066 0.1754863 0.1745718 0.1735601 0.1724509 0.1712252 0.1698479
 0.1683663 0.1669884 0.1660108 0.165664 0.1659941 0.1668378 0.1679355 0.169107 0.1702745 0.1713342
 0.1721599 0.1728083 0.1736112 0.1749539 0.1769468 0.1793105 0.1815762 0.1833898 0.1846205 0.1852529
 0.1853087 0.1848551 0.183947 0.182571 0.1807417 0.1785808 0.1762295 0.1738017 0.1714527 0.1693415
 0.167534 0.1660408 0.1648608 0.1639934 0.1635148 0.1631451 0.1612423 0.1553926 0.1458393 0.1376673
 0.1369383 0.1441451 0.1535116 0.1591914 0.1602215 0.1590842 0.1578246 0.1568816 0.1561842 0.1558166
 0.1558385 0.1561352 0.1564686 0.1565944 0.1564118 0.1559404 0.1550535 0.1532438 0.1496271 0.143264
 0.1338548 0.1223722 0.1108468 0.1012917 0.09471844 0.09093207 0.08895479 0.08770268 0.08661278 0.085842
 0.08589871 0.08712117 0.08949389 0.09280021 0.09677238 0.1010667 0.1052234 0.1088088 0.1116353 0.1137699
 0.1153305 0.1163593 0.116882 0.1169689 0.1167053 0.1161651 0.1154087 0.1144561 0.1132795 0.1118675
 0.1103111 0.1088183 0.1076253 0.1068515 0.1064362 0.1062353 0.1061528 0.1061546 0.1062135 0.1063044
 0.1064276 0.1066019 0.1068496 0.1071801 0.1075595 0.1079126 0.1081806 0.1083567 0.1084565 0.1084772
 0.1083853 0.1081417 0.1077652 0.1073509 0.1069456 0.1064159 0.1055494 0.1043265 0.1030379 0.1021089
 0.1018119 0.1021021 0.1026754 0.1031927 0.1034902 0.1036046 0.1036313 0.1035777 0.1033477 0.1028592
</values></Ydata></ScRf><Data_Parameters_AB><parameter name="DPF">1</parameter><parameter name="NPT">3497</parameter><parameter name="FXV">3996</parameter><parameter name="LXV">500</parameter><parameter name="CSF">1</parameter><parameter name="MXY">0.002273935591802</parameter><parameter name="MNY">-0.0567431449890137</parameter><parameter name="DAT">13/02/2024</parameter><parameter name="TIM">13:04:04.755 (GMT+1)</parameter><parameter name="DXU">WN</parameter></Data_Parameters_AB><AB__Qtest><MainReport name="Quality Test Report"><Header><Line><Legend>Test result ok/not ok [1/0]: </Legend><Value>0</Value></Line><Line><Legend>Method file: </Legend><Value>C:\Users\Public\Documents\Bruker\OPUS_8.2.28\QT\IRBT_v3_default.QT</Value></Line></Header><Matrix><Line><Legend></Legend><Legend>min</Legend><Legend>max</Legend><Legend>measured</Legend></Line><Line><Value>Absorption (X-Range 1):</Value><Value>0.400000</Value><Value>2.000000</Value><Value>0.030898</Value></Line><Line><Value>Noise (X-Range 4):</Value><Value></Value><Value>0.000300</Value><Value>0.000022</Value></Line><Line><Value>Signal/Noise (X-Range 2):</Value><Value>200.000000</Value><Value></Value><Value>28.963604</Value></Line><Line><Value>Signal/Noise (X-Range 3):</Value><Value>40.000000</Value><Value></Value><Value>6.736865</Value></Line><Line><Value>Water vapour (X-Range 5):</Value><Value></Value><Value>0.000300</Value><Value>0.000008</Value></Line><Line><Value>Signal/Water (X-Range 2):</Value><Value>100.000000</Value><Value></Value><Value>78.109266</Value></Line><Line><Value>Signal/Water (X-Range 3):</Value><Value>20.000000</Value><Value></Value><Value>18.168028</Value></Line><Line><Value>Fringes (X-Range 6):</Value><Value></Value><Value>0.000100</Value><Value>0.000027</Value></Line></Matrix></MainReport></AB__Qtest><Data_Parameters_ScSm><parameter name="DPF">1</parameter><parameter name="NPT">1814</parameter><parameter name="FXV">3996.63438082617</parameter><parameter name="LXV">499.579297603271</parameter><parameter name="CSF">1</parameter><parameter name="MXY">0.327901542186737</parameter><parameter name="MNY">0.0779471844434738</parameter><parameter name="DAT">13/02/2024</parameter><parameter name="TIM">13:04:04.755 (GMT+1)</parameter><parameter name="DXU">WN</parameter></Data_Parameters_ScSm><Data_Parameters_ScRf><parameter name="DPF">1</parameter><parameter name="NPT">1820</parameter><parameter name="FXV">4004.34989121387</parameter><parameter name="LXV">495.721542409425</parameter><parameter name="CSF">1</parameter><parameter name="MXY">0.318483471870422</parameter><parameter name="MNY">0.0686035454273224</parameter><parameter name="DAT">13/02/2024</parameter><parameter name="TIM">13:03:38.763 (GMT+1)</parameter><parameter name="DXU">WN</parameter></Data_Parameters_ScRf><Optic_Parameters_Rf><parameter name="APR">0</parameter><parameter name="APT">Open</parameter><parameter name="BMS">KBr</parameter><parameter name="DTC">RT-DLaTGS_IR-Biotyper [Microplate reader]</parameter><parameter name="HPF">0</parameter><parameter name="LPF">10.0</parameter><parameter name="LPV">4000</parameter><parameter name="PGR">0</parameter><parameter name="RCH">Module port</parameter><parameter name="RDX">0</parameter><parameter name="SRC">MIR</parameter><parameter name="VEL">10.0</parameter><parameter name="SON">Off</parameter></Optic_Parameters_Rf><Acquisition_Parameters_Rf><parameter name="ADT">1</parameter><parameter name="AQM">DD</parameter><parameter name="CFE">0</parameter><parameter name="COR">0</parameter><parameter name="DEL">0</parameter><parameter name="DLY">0</parameter><parameter name="HFW">8000</parameter><parameter name="LFW">0</parameter><parameter name="NSR">32</parameter><parameter name="PLF">AB</parameter><parameter name="RES">6</parameter><parameter name="RGN">-1</parameter><parameter name="STR">0</parameter><parameter name="TCL">MakeCompatibleScalar (0, {WSV=1.000000, ARV=0});</parameter><parameter name="TDL">37</parameter><parameter name="RPO">0</parameter></Acquisition_Parameters_Rf><FT_-_Parameters_Rf><parameter name="APF">B3</parameter><parameter name="HFQ">500</parameter><parameter name="LFQ">4000</parameter><parameter name="NLI">0</parameter><parameter name="PHR">24</parameter><parameter name="PHZ">ML</parameter><parameter name="SPZ">NO</parameter><parameter name="ZFF">1</parameter></FT_-_Parameters_Rf><Optic_Parameters_><parameter name="APR">0</parameter><parameter name="APT">Open</parameter><parameter name="BMS">KBr</parameter><parameter name="CHN">Module port</parameter><parameter name="DTC">RT-DLaTGS_IR-Biotyper [Microplate reader]</parameter><parameter name="HPF">0</parameter><parameter name="LPF">10.0</parameter><parameter name="LPV">4000</parameter><parameter name="PGN">0</parameter><parameter name="RDX">0</parameter><parameter name="SRC">MIR</parameter><parameter name="VEL">10.0</parameter><parameter name="SON">Off</parameter></Optic_Parameters_><FT_-_Parameters_><parameter name="APF">B3</parameter><parameter name="HFQ">500</parameter><parameter name="LFQ">4000</parameter><parameter name="NLI">0</parameter><parameter name="PHR">24</parameter><parameter name="PHZ">ML</parameter><parameter name="SPZ">NO</parameter><parameter name="ZFF">1</parameter></FT_-_Parameters_><Acquisition_Parameters_><parameter name="ADT">1</parameter><parameter name="AQM">DD</parameter><parameter name="CFE">0</parameter><parameter name="COR">0</parameter><parameter name="DEL">0</parameter><parameter name="DLY">0</parameter><parameter name="HFW">8000</parameter><parameter name="LFW">0</parameter><parameter name="NSS">32</parameter><parameter name="PLF">AB</parameter><parameter name="RES">6</parameter><parameter name="SOT">0</parameter><parameter name="TCL">MakeCompatibleScalar (0, {WSV=1.000000, ARV=0});</parameter><parameter name="TDL">37</parameter><parameter name="SPO">0</parameter><parameter name="SGN">-1</parameter></Acquisition_Parameters_><Instrument_Parameters_Rf><parameter name="HFL">15801.365274</parameter><parameter name="LFL">0</parameter><parameter name="LWN">15801.365274</parameter><parameter name="ABP">32157</parameter><parameter name="SSP">1</parameter><parameter name="ARG">2</parameter><parameter name="ASG">2</parameter><parameter name="ASS">32</parameter><parameter name="GFW">16</parameter><parameter name="GBW">16</parameter><parameter name="BFW">0</parameter><parameter name="BBW">0</parameter><parameter name="PKA">9180</parameter><parameter name="PKL">5009</parameter><parameter name="PRA">9174</parameter><parameter name="PRL">4988</parameter><parameter name="P2A">1</parameter><parameter name="P2L">1</parameter><parameter name="P2R">1</parameter><parameter name="P2K">1</parameter><parameter name="DAQ">0</parameter><parameter name="AG2">1</parameter><parameter name="SSM">1</parameter><parameter name="RSN">48093</parameter><parameter name="CRR">0</parameter><parameter name="SRT">1707829418.763</parameter><parameter name="DUR">19.6389923095703</parameter><parameter name="TSC">29.9</parameter><parameter name="MVD">1.23954582214355</parameter><parameter name="AN1">0.225960990054226</parameter><parameter name="AN2">0</parameter><parameter name="VSN">2.485 Apr  4 2017</parameter><parameter name="SRN">0085</parameter><parameter name="CAM">0</parameter><parameter name="INS">IR-Biotyper</parameter><parameter name="FOC">69</parameter><parameter name="RDY">1</parameter><parameter name="ARS">32</parameter></Instrument_Parameters_Rf><Sample_Parameters_><parameter name="BLD"></parameter><parameter name="CNM">Admin</parameter><parameter name="CPY"></parameter><parameter name="DPM"></parameter><parameter name="EXP">IRBT_v3_32Scans.XPM</parameter><parameter name="LCT"></parameter><parameter name="SFM">Microplate, HTS-XT</parameter><parameter name="SNM">240213-1206-Cdiff_SCFA_3_GDA_C36_242152808_A2_785b61ce-67ce-4c23-9d29-70c5bcbdfed3.0</parameter><parameter name="XPP">C:\Users\Public\Documents\Bruker\OPUS_8.2.28\XPM</parameter><parameter name="IST">OK</parameter><parameter name="CPG">1252</parameter><parameter name="UID">fdcb1167-3090-4258-8253-42a2b7f10d9a</parameter></Sample_Parameters_><Instrument_Parameters_><parameter name="HFL">15801.365274</parameter><parameter name="LFL">0</parameter><parameter name="LWN">15801.365274</parameter><parameter name="ABP">32157</parameter><parameter name="SSP">1</parameter><parameter name="ASG">2</parameter><parameter name="ARG">2</parameter><parameter name="ASS">32</parameter><parameter name="GFW">16</parameter><parameter name="GBW">16</parameter><parameter name="BFW">0</parameter><parameter name="BBW">0</parameter><parameter name="PKA">9724</parameter><parameter name="PKL">5009</parameter><parameter name="PRA">9786</parameter><parameter name="PRL">4988</parameter><parameter name="P2A">1</parameter><parameter name="P2L">1</parameter><parameter name="P2R">1</parameter><parameter name="P2K">1</parameter><parameter name="DAQ">0</parameter><parameter name="AG2">1</parameter><parameter name="SSM">1</parameter><parameter name="RSN">24744</parameter><parameter name="CRR">0</parameter><parameter name="SRT">1707829444.755</parameter><parameter name="DUR">19.6389923095703</parameter><parameter name="TSC">29.9</parameter><parameter name="MVD">0.28513091802597</parameter><parameter name="AN1">0.225956039811866</parameter><parameter name="AN2">0</parameter><parameter name="VSN">2.485 Apr  4 2017</parameter><parameter name="SRN">0085</parameter><parameter name="CAM">0</parameter><parameter name="INS">IR-Biotyper</parameter><parameter name="FOC">69</parameter><parameter name="RDY">1</parameter></Instrument_Parameters_><History/></OPUSDataFile>
