<?xml version="1.0" encoding="UTF-8" ?>
<OPUSDataFile><AB><Ydata ylabel="Absorbance Units"><values byteorder="INTEL" format="FLOAT32" numvalues="3497"> -0.1122755 -0.1122724 -0.1122685 -0.1122636 -0.1122569 -0.1122487 -0.1122395 -0.1122286 -0.1122155 -0.1121988
 -0.1121758 -0.112148 -0.1121143 -0.1120801 -0.1120477 -0.112022 -0.1120057 -0.1119986 -0.1120017 -0.1120097
 -0.1120222 -0.1120327 -0.1120405 -0.1120424 -0.1120383 -0.1120298 -0.1120171 -0.1120053 -0.1119943 -0.1119871
 -0.1119825 -0.1119787 -0.111975 -0.1119682 -0.1119596 -0.1119495 -0.1119391 -0.1119303 -0.111922 -0.1119141
 -0.1119042 -0.1118905 -0.1118738 -0.1118531 -0.1118336 -0.1118163 -0.1118044 -0.1117992 -0.1117968 -0.1117972
 -0.1117934 -0.1117849 -0.1117698 -0.1117486 -0.1117261 -0.1117028 -0.1116837 -0.1116679 -0.1116552 -0.1116444
 -0.1116327 -0.1116196 -0.1116032 -0.1115837 -0.1115604 -0.1115345 -0.1115057 -0.1114785 -0.1114544 -0.1114389
 -0.1114349 -0.1114418 -0.111461 -0.1114845 -0.1115114 -0.1115338 -0.1115506 -0.1115597 -0.111561 -0.1115561
 -0.1115449 -0.1115286 -0.1115076 -0.1114837 -0.1114579 -0.111434 -0.111412 -0.1113948 -0.1113803 -0.1113671
 -0.1113521 -0.111331 -0.1113046 -0.1112703 -0.1112354 -0.1112024 -0.1111786 -0.1111686 -0.1111698 -0.111184
 -0.1111992 -0.111214 -0.1112184 -0.111211 -0.1111942 -0.1111683 -0.1111444 -0.1111229 -0.1111102 -0.1111054
 -0.1111056 -0.1111096 -0.1111108 -0.111109 -0.1110993 -0.1110829 -0.1110588 -0.1110301 -0.1109995 -0.110971
 -0.1109492 -0.1109336 -0.1109267 -0.1109219 -0.1109173 -0.1109074 -0.1108895 -0.1108655 -0.1108348 -0.1108037
 -0.1107728 -0.110748 -0.1107296 -0.1107256 -0.1107361 -0.110769 -0.1108226 -0.1108929 -0.1109733 -0.1110395
 -0.1110853 -0.1110797 -0.1110318 -0.1109381 -0.1108211 -0.1107073 -0.1106054 -0.1105341 -0.1104848 -0.1104578
 -0.1104435 -0.1104374 -0.1104372 -0.1104415 -0.1104487 -0.110459 -0.1104652 -0.1104666 -0.1104565 -0.1104343
 -0.1104023 -0.110361 -0.110318 -0.1102735 -0.1102334 -0.1101977 -0.1101698 -0.1101495 -0.1101383 -0.1101347
 -0.1101375 -0.1101449 -0.1101548 -0.110166 -0.1101771 -0.1101864 -0.1101932 -0.1101936 -0.1101855 -0.1101669
 -0.110136 -0.1100978 -0.1100525 -0.1100082 -0.1099657 -0.1099288 -0.1098978 -0.1098722 -0.1098522 -0.1098371
 -0.1098268 -0.1098194 -0.1098139 -0.1098051 -0.109793 -0.1097738 -0.1097497 -0.1097227 -0.1096936 -0.1096652
 -0.1096346 -0.1096002 -0.1095604 -0.1095128 -0.109462 -0.1094087 -0.1093598 -0.1093178 -0.1092839 -0.1092594
 -0.1092383 -0.1092201 -0.1091979 -0.1091714 -0.1091385 -0.1090996 -0.1090601 -0.1090209 -0.1089902 -0.1089675
 -0.1089564 -0.1089548 -0.1089589 -0.1089663 -0.1089709 -0.1089725 -0.1089678 -0.1089592 -0.1089473 -0.1089351
 -0.1089249 -0.1089164 -0.1089107 -0.1089032 -0.1088925 -0.1088757 -0.1088512 -0.1088238 -0.1087937 -0.1087677
 -0.1087462 -0.1087281 -0.1087131 -0.108696 -0.1086773 -0.1086594 -0.1086427 -0.1086317 -0.1086228 -0.1086086
 -0.1085864 -0.108545 -0.1084917 -0.1084297 -0.1083702 -0.1083264 -0.1082977 -0.1082906 -0.108291 -0.1082955
 -0.1082905 -0.1082701 -0.1082359 -0.1081862 -0.1081325 -0.1080762 -0.1080229 -0.1079734 -0.1079234 -0.1078727
 -0.107816 -0.1077539 -0.1076896 -0.1076249 -0.1075691 -0.1075226 -0.1074916 -0.1074738 -0.1074688 -0.1074721
 -0.1074791 -0.1074837 -0.1074792 -0.1074615 -0.1074242 -0.1073722 -0.1073042 -0.1072319 -0.1071587 -0.1070911
 -0.1070317 -0.1069783 -0.1069308 -0.1068854 -0.1068417 -0.1067989 -0.1067571 -0.1067166 -0.1066774 -0.1066392
 -0.1066015 -0.1065626 -0.1065214 -0.1064739 -0.1064195 -0.1063541 -0.1062806 -0.1062002 -0.1061179 -0.1060392
 -0.1059661 -0.1059021 -0.1058443 -0.1057933 -0.1057433 -0.1056934 -0.1056368 -0.1055719 -0.1054957 -0.1054069
 -0.1053115 -0.1052096 -0.1051094 -0.1050109 -0.1049136 -0.1048164 -0.1047121 -0.104601 -0.1044801 -0.1043519
 -0.1042214 -0.1040912 -0.1039687 -0.1038543 -0.1037519 -0.103658 -0.1035713 -0.1034873 -0.1034019 -0.1033162
 -0.1032293 -0.103145 -0.1030661 -0.1029864 -0.1029067 -0.1028096 -0.1026924 -0.102548 -0.102375 -0.1021897
 -0.1019933 -0.1018069 -0.1016303 -0.1014698 -0.1013234 -0.1011848 -0.1010532 -0.100922 -0.100793 -0.1006666
 -0.1005448 -0.1004326 -0.1003251 -0.1002222 -0.1001111 -0.09998243 -0.09983148 -0.09964961 -0.09945413 -0.09924711
 -0.09904959 -0.098868 -0.09870304 -0.09855673 -0.0984155 -0.09827845 -0.09813685 -0.09799055 -0.09784161 -0.09769022
 -0.09753937 -0.09738827 -0.09723482 -0.09707821 -0.09691458 -0.09674479 -0.09656842 -0.09638736 -0.0962042 -0.09601995
 -0.09583678 -0.09565421 -0.09547222 -0.09529135 -0.09511141 -0.09493464 -0.09476186 -0.09459395 -0.09443163 -0.09427262
 -0.09411699 -0.09396038 -0.09380258 -0.09363798 -0.09346627 -0.09328157 -0.09308419 -0.09287358 -0.09265196 -0.0924295
 -0.09220818 -0.0920004 -0.09180406 -0.09162186 -0.0914484 -0.09127681 -0.09110405 -0.09092332 -0.09073757 -0.09054608
 -0.09035404 -0.09016456 -0.08997752 -0.08979479 -0.0896091 -0.08941932 -0.08921929 -0.0890072 -0.08878723 -0.08855923
 -0.08833475 -0.08811429 -0.08790413 -0.0877037 -0.08750971 -0.08732138 -0.08713282 -0.08694421 -0.08675294 -0.08655982
 -0.08636548 -0.08617011 -0.08597482 -0.08577807 -0.08557921 -0.08537538 -0.08516392 -0.08494483 -0.08471587 -0.08448396
 -0.08425004 -0.08402324 -0.08380642 -0.0836009 -0.08340807 -0.08321997 -0.08303613 -0.08284914 -0.08265874 -0.08246581
 -0.08227074 -0.08207802 -0.08188706 -0.08169739 -0.08150754 -0.08131211 -0.08111122 -0.08090166 -0.08068665 -0.08046921
 -0.0802532 -0.08004449 -0.07984299 -0.07965152 -0.07946531 -0.07928299 -0.07909996 -0.07891361 -0.07872506 -0.0785336
 -0.07834414 -0.07815759 -0.07797506 -0.07779706 -0.07761759 -0.07743634 -0.07724649 -0.07704821 -0.07684066 -0.07662503
 -0.07640679 -0.07618762 -0.07597572 -0.07577217 -0.07558397 -0.07540947 -0.07525035 -0.07510144 -0.07495837 -0.07481605
 -0.07466857 -0.07451631 -0.07435717 -0.07419556 -0.07403258 -0.07387129 -0.07371306 -0.07355669 -0.07340249 -0.0732467
 -0.07308904 -0.07292625 -0.07275817 -0.07258523 -0.07240788 -0.07223129 -0.07205575 -0.07188619 -0.0717212 -0.07155912
 -0.07139764 -0.07123011 -0.07105688 -0.07087421 -0.07068696 -0.07049811 -0.07031421 -0.07014157 -0.06998231 -0.06984056
 -0.0697109 -0.0695933 -0.06947867 -0.06936466 -0.06924643 -0.06912234 -0.06899487 -0.06886393 -0.06873478 -0.0686077
 -0.06848505 -0.06836671 -0.06825151 -0.06813911 -0.06802681 -0.06791445 -0.06779994 -0.06768332 -0.06756379 -0.06744125
 -0.06731529 -0.06718547 -0.06705094 -0.06691208 -0.06676833 -0.06662209 -0.06647409 -0.06632766 -0.06618415 -0.0660456
 -0.06591278 -0.06578654 -0.06566707 -0.06555539 -0.06545169 -0.06535588 -0.06526797 -0.06518479 -0.06510597 -0.0650264
 -0.06494597 -0.06486146 -0.06477351 -0.06468276 -0.0645896 -0.06449557 -0.06439989 -0.06430187 -0.06420107 -0.06409584
 -0.06398885 -0.06388097 -0.06377659 -0.06367888 -0.06358828 -0.06350692 -0.06342858 -0.06335248 -0.06327165 -0.06318422
 -0.0630909 -0.06299103 -0.06289397 -0.06280021 -0.06271973 -0.06265243 -0.06259933 -0.06255894 -0.06252275 -0.06248967
 -0.06245049 -0.06240693 -0.06235805 -0.062307 -0.06225936 -0.06221521 -0.06217817 -0.06214344 -0.06210889 -0.06206907
 -0.06201947 -0.06196071 -0.06189057 -0.0618171 -0.06174156 -0.06167205 -0.06161089 -0.06155678 -0.06151058 -0.06145979
 -0.06140374 -0.06133056 -0.06124063 -0.06113685 -0.06102178 -0.06091322 -0.06081264 -0.06073634 -0.06068094 -0.06064747
 -0.0606295 -0.06061595 -0.06060436 -0.06058633 -0.06056516 -0.06054116 -0.06051633 -0.06049323 -0.0604679 -0.06043935
 -0.06040462 -0.06036144 -0.06031561 -0.0602673 -0.060225 -0.06019013 -0.06016158 -0.06013948 -0.06011262 -0.06008051
 -0.06003335 -0.05997217 -0.05989795 -0.05981341 -0.05972933 -0.05964772 -0.05957989 -0.05952417 -0.05948396 -0.05945377
 -0.05942846 -0.0594035 -0.05937272 -0.05933597 -0.05929109 -0.05924044 -0.0591847 -0.05912468 -0.05906066 -0.05899324
 -0.05892228 -0.05885039 -0.05877787 -0.05870659 -0.05863672 -0.05856695 -0.05849712 -0.05842479 -0.05834987 -0.05827083
 -0.05818716 -0.05809601 -0.05799697 -0.05788619 -0.05776687 -0.05764087 -0.05751648 -0.05740442 -0.05731098 -0.05724758
 -0.05720871 -0.05719709 -0.05719682 -0.05720243 -0.05720179 -0.05718907 -0.05716586 -0.05713054 -0.05709348 -0.05705539
 -0.05702689 -0.05700869 -0.05700839 -0.05702607 -0.0570637 -0.05712012 -0.05718868 -0.05726759 -0.05734558 -0.05742284
 -0.05749372 -0.05756024 -0.05762387 -0.05768506 -0.05774539 -0.05780361 -0.05785801 -0.05791143 -0.05796343 -0.0580224
 -0.05809162 -0.05817695 -0.05828192 -0.05840273 -0.05853996 -0.05868476 -0.05883606 -0.05898897 -0.05914302 -0.05929892
 -0.0594567 -0.0596171 -0.0597796 -0.05994077 -0.06009985 -0.06025149 -0.06039598 -0.06053097 -0.06065804 -0.06077906
 -0.06089524 -0.06100913 -0.06112066 -0.06123054 -0.06133872 -0.06144498 -0.06155059 -0.06165613 -0.06176201 -0.06186893
 -0.06197437 -0.06207826 -0.06217676 -0.06226948 -0.06235337 -0.06242821 -0.06249131 -0.06254268 -0.06258234 -0.0626114
 -0.06263761 -0.06266326 -0.06270288 -0.06275661 -0.06283408 -0.0629301 -0.06304055 -0.06315766 -0.06326924 -0.06337109
 -0.06345394 -0.06352038 -0.06356795 -0.06360493 -0.06363321 -0.06366321 -0.06369843 -0.06374487 -0.06380533 -0.06387544
 -0.06395568 -0.06403476 -0.06411185 -0.06418072 -0.06424144 -0.06429821 -0.06435166 -0.06440908 -0.06447013 -0.06453745
 -0.06460946 -0.06468334 -0.06475723 -0.06482617 -0.06488927 -0.06494232 -0.06498803 -0.0650261 -0.06506322 -0.06510345
 -0.06515171 -0.06521248 -0.06528243 -0.06536238 -0.06544438 -0.06552673 -0.06560577 -0.06568047 -0.06575319 -0.06582402
 -0.06589577 -0.06596852 -0.06604201 -0.06611623 -0.06619078 -0.06626592 -0.06634285 -0.06642142 -0.06650221 -0.06658384
 -0.06666391 -0.06674125 -0.0668124 -0.0668792 -0.06694131 -0.06700328 -0.06706818 -0.0671383 -0.06721625 -0.06729936
 -0.06738778 -0.06747702 -0.06756619 -0.06765239 -0.06773525 -0.06781173 -0.06788158 -0.06794174 -0.06799222 -0.06803609
 -0.06807438 -0.06811768 -0.0681663 -0.0682286 -0.06830162 -0.06838156 -0.06846412 -0.06853794 -0.06860267 -0.06865143
 -0.06868997 -0.06872078 -0.06875068 -0.06878573 -0.06882733 -0.06887875 -0.06893516 -0.06899603 -0.06905573 -0.06911264
 -0.0691655 -0.06921374 -0.06925917 -0.06930193 -0.06934219 -0.06937987 -0.06941147 -0.06943672 -0.06945136 -0.06945585
 -0.06944949 -0.06943401 -0.06941377 -0.06939115 -0.06937276 -0.06936111 -0.06936263 -0.06937847 -0.06941297 -0.06946324
 -0.06953022 -0.06960548 -0.06968607 -0.06976298 -0.06983208 -0.06989125 -0.06993859 -0.06997891 -0.07001276 -0.07004268
 -0.07006907 -0.07008951 -0.07010395 -0.07011276 -0.07011663 -0.07012263 -0.07013111 -0.07014818 -0.07017217 -0.07020123
 -0.07023318 -0.07026192 -0.070288 -0.07030882 -0.07032789 -0.07034755 -0.07037125 -0.07040279 -0.07044152 -0.07048897
 -0.0705402 -0.07059363 -0.07064708 -0.07069847 -0.07075508 -0.07081708 -0.07089573 -0.07099237 -0.07110783 -0.07124192
 -0.07137946 -0.07151925 -0.07164287 -0.07175112 -0.07183754 -0.0719056 -0.07196266 -0.0720122 -0.07206565 -0.0721237
 -0.07219298 -0.07227077 -0.07235706 -0.07244797 -0.07254075 -0.07263268 -0.07272173 -0.07280661 -0.0728863 -0.07296092
 -0.07302985 -0.07309642 -0.07316069 -0.07322836 -0.0733001 -0.07337703 -0.07345911 -0.07353898 -0.07361624 -0.07368319
 -0.07374106 -0.07379198 -0.07383833 -0.07388984 -0.07394621 -0.07401252 -0.07408474 -0.07415893 -0.07423182 -0.0742971
 -0.07435739 -0.07441163 -0.07446592 -0.0745236 -0.07458662 -0.07465754 -0.07473126 -0.07480739 -0.07487997 -0.07494774
 -0.07500993 -0.07506628 -0.07511818 -0.07516566 -0.07520633 -0.07524005 -0.07526366 -0.07527816 -0.07528686 -0.07529201
 -0.07530338 -0.07532157 -0.07535363 -0.07539666 -0.07544986 -0.07550869 -0.07556793 -0.07562455 -0.07567444 -0.07571685
 -0.07575023 -0.07577532 -0.07579211 -0.07580113 -0.07580288 -0.07579559 -0.07577941 -0.07575 -0.07570697 -0.07564732
 -0.07557088 -0.07548101 -0.07537831 -0.07527158 -0.07516105 -0.07505299 -0.07494586 -0.0748378 -0.07472686 -0.07460691
 -0.07447871 -0.07433987 -0.07419413 -0.07404477 -0.0738944 -0.07374687 -0.07360058 -0.07345595 -0.07331013 -0.07316154
 -0.07301121 -0.07285847 -0.07270813 -0.07256079 -0.07242043 -0.07228759 -0.07216264 -0.07204563 -0.07193689 -0.07183673
 -0.07174935 -0.07167543 -0.07162153 -0.07158743 -0.07157647 -0.07158674 -0.07161578 -0.07166094 -0.07171695 -0.07178193
 -0.07185207 -0.07192548 -0.07200071 -0.07207248 -0.07213882 -0.07219148 -0.07222706 -0.0722402 -0.07222798 -0.0721932
 -0.0721352 -0.0720621 -0.07197464 -0.07187844 -0.07177387 -0.07166215 -0.07154347 -0.07141989 -0.07129258 -0.07116933
 -0.07105211 -0.07095206 -0.07087068 -0.07081724 -0.07079203 -0.07079984 -0.07083984 -0.07091285 -0.07101832 -0.07115526
 -0.07132595 -0.07153089 -0.07177367 -0.07205694 -0.07237785 -0.07273838 -0.07312357 -0.07353238 -0.07394525 -0.07436004
 -0.07476471 -0.07515842 -0.07553713 -0.07590053 -0.0762435 -0.07656524 -0.07685737 -0.07712074 -0.07735294 -0.07755769
 -0.07774269 -0.07791147 -0.07807432 -0.07823066 -0.07838431 -0.0785322 -0.07867236 -0.07880474 -0.07892802 -0.07904559
 -0.07915871 -0.0792687 -0.07937697 -0.07947947 -0.07957596 -0.07966143 -0.07973514 -0.07979622 -0.07984457 -0.07988279
 -0.07991102 -0.07993177 -0.07994509 -0.07995239 -0.07995365 -0.07994933 -0.07993973 -0.07992522 -0.07990773 -0.07988957
 -0.07987555 -0.07987157 -0.07988365 -0.07991949 -0.07998007 -0.08006997 -0.08018126 -0.08031375 -0.08045304 -0.08059607
 -0.08072898 -0.08084889 -0.08094744 -0.08102303 -0.08107523 -0.08110376 -0.08111673 -0.08111504 -0.08111445 -0.08111695
 -0.08114341 -0.08119606 -0.08129566 -0.08144144 -0.08164421 -0.08189653 -0.08219262 -0.08251923 -0.0828589 -0.08319882
 -0.08352206 -0.08382226 -0.08408997 -0.08432735 -0.08453193 -0.08471186 -0.08486822 -0.08501044 -0.08514038 -0.08526392
 -0.08538213 -0.08549578 -0.08560502 -0.08570896 -0.08580761 -0.08590097 -0.08598907 -0.08607221 -0.08615027 -0.08622273
 -0.0862899 -0.08635203 -0.08641011 -0.08646607 -0.08652055 -0.08657557 -0.08663004 -0.0866839 -0.08673543 -0.08678335
 -0.08682735 -0.08686651 -0.08690298 -0.08693687 -0.08697148 -0.08700742 -0.08704682 -0.08709016 -0.08713673 -0.08718658
 -0.08723573 -0.08728389 -0.08732516 -0.0873595 -0.08738319 -0.08739734 -0.08740411 -0.08740556 -0.08740846 -0.08741391
 -0.08742781 -0.08744845 -0.08747657 -0.08750876 -0.08754205 -0.08757441 -0.08760316 -0.08762971 -0.08765376 -0.08767804
 -0.08770363 -0.08773065 -0.08775974 -0.08778735 -0.08781318 -0.08783401 -0.08784949 -0.08786096 -0.0878686 -0.08787655
 -0.08788478 -0.08789512 -0.08790687 -0.08791797 -0.08792809 -0.08793494 -0.08793951 -0.08794239 -0.08794499 -0.08794951
 -0.08795646 -0.08796719 -0.08798131 -0.08799912 -0.08801956 -0.08804252 -0.08806604 -0.08808984 -0.08811104 -0.08812907
 -0.0881419 -0.08814901 -0.0881516 -0.08814962 -0.0881471 -0.08814422 -0.08814494 -0.08814904 -0.08815664 -0.08816697
 -0.08817657 -0.08818515 -0.08818971 -0.08819124 -0.08819011 -0.08818749 -0.08818549 -0.08818372 -0.08818279 -0.08818134
 -0.08817825 -0.088174 -0.08816791 -0.08816324 -0.08816077 -0.0881632 -0.08817154 -0.08818512 -0.08820419 -0.08822576
 -0.08824965 -0.08827367 -0.08829778 -0.0883214 -0.08834447 -0.08836621 -0.08838633 -0.08840299 -0.08841619 -0.08842462
 -0.08842923 -0.08843121 -0.08843163 -0.08843287 -0.08843446 -0.08843732 -0.08843911 -0.08843845 -0.08843406 -0.08842427
 -0.08841168 -0.08839619 -0.08838292 -0.08837312 -0.08836894 -0.08837123 -0.08837719 -0.08838676 -0.08839586 -0.08840434
 -0.08841071 -0.08841506 -0.0884178 -0.08841881 -0.08841782 -0.08841452 -0.0884077 -0.08839747 -0.08838323 -0.08836585
 -0.08834599 -0.0883254 -0.0883056 -0.08828917 -0.08827841 -0.08827443 -0.0882792 -0.08828944 -0.08830529 -0.08832017
 -0.08833268 -0.08833842 -0.08833622 -0.0883274 -0.08831186 -0.08829356 -0.08827266 -0.08825161 -0.08823042 -0.08821028
 -0.08819146 -0.08817621 -0.08816459 -0.0881585 -0.08815664 -0.08815764 -0.08815936 -0.08815767 -0.08815259 -0.08814179
 -0.08812849 -0.08811392 -0.08810156 -0.08809394 -0.08809081 -0.08809317 -0.08809744 -0.08810311 -0.08810706 -0.08810869
 -0.08810727 -0.08810267 -0.08809499 -0.08808424 -0.0880707 -0.08805451 -0.08803698 -0.08801855 -0.088002 -0.08798754
 -0.08797767 -0.08797133 -0.08796775 -0.08796521 -0.08796047 -0.08795346 -0.08794215 -0.08792917 -0.08791557 -0.08790413
 -0.08789706 -0.08789363 -0.08789443 -0.08789653 -0.08789925 -0.08790128 -0.08790223 -0.08790263 -0.08790255 -0.08790113
 -0.08789831 -0.08789153 -0.08788081 -0.08786533 -0.08784566 -0.08782428 -0.08780181 -0.08778168 -0.08776392 -0.08775043
 -0.08774078 -0.0877352 -0.08773299 -0.08773371 -0.08773626 -0.08773995 -0.08774331 -0.08774546 -0.08774539 -0.08774247
 -0.08773691 -0.08772855 -0.0877184 -0.08770659 -0.08769398 -0.08768061 -0.0876677 -0.08765532 -0.08764551 -0.0876383
 -0.08763494 -0.087635 -0.08763708 -0.08764049 -0.0876421 -0.08764169 -0.08763702 -0.08762871 -0.08761679 -0.08760188
 -0.08758453 -0.08756568 -0.08754592 -0.08752676 -0.08750913 -0.08749397 -0.08748221 -0.08747245 -0.0874648 -0.08745627
 -0.08744641 -0.08743336 -0.08741682 -0.08739727 -0.08737472 -0.08735111 -0.08732659 -0.08730346 -0.08728179 -0.08726339
 -0.08724783 -0.08723485 -0.08722356 -0.0872117 -0.08719906 -0.08718393 -0.08716758 -0.08715082 -0.08713458 -0.08712038
 -0.08710688 -0.08709399 -0.08707967 -0.08706259 -0.08704422 -0.08702425 -0.08700664 -0.08699226 -0.08698159 -0.08697506
 -0.08696797 -0.08696009 -0.08694748 -0.08693034 -0.08691042 -0.08688812 -0.08686697 -0.08684651 -0.08682694 -0.08680752
 -0.08678602 -0.08676329 -0.08673935 -0.08671608 -0.0866958 -0.08667899 -0.0866674 -0.08665887 -0.08665308 -0.08664696
 -0.08663908 -0.08662863 -0.08661465 -0.08659997 -0.0865847 -0.08657263 -0.08656427 -0.08656021 -0.08656053 -0.08656204
 -0.08656456 -0.08656502 -0.08656371 -0.08656104 -0.08655741 -0.0865547 -0.08655251 -0.08655109 -0.08654939 -0.08654565
 -0.08653957 -0.08652987 -0.08651731 -0.08650201 -0.08648486 -0.08646634 -0.08644728 -0.08642779 -0.08640969 -0.08639334
 -0.08638053 -0.08637185 -0.08636644 -0.08636449 -0.0863621 -0.08635906 -0.08635203 -0.08634104 -0.0863262 -0.08630779
 -0.08628764 -0.08626579 -0.08624313 -0.08621994 -0.08619698 -0.08617523 -0.0861568 -0.08614206 -0.086133 -0.08612735
 -0.08612461 -0.0861208 -0.08611346 -0.08610058 -0.08608027 -0.0860542 -0.08602194 -0.08598784 -0.08595237 -0.0859202
 -0.08589192 -0.08586993 -0.08585447 -0.08584353 -0.08583683 -0.08582976 -0.08582231 -0.08581187 -0.08579911 -0.08578528
 -0.08577055 -0.08575633 -0.08574162 -0.08572518 -0.08570655 -0.08568415 -0.08565943 -0.08563293 -0.08560631 -0.08558098
 -0.08555678 -0.08553413 -0.08551198 -0.0854899 -0.08546843 -0.08544747 -0.08542854 -0.08541188 -0.08539773 -0.08538616
 -0.08537514 -0.0853645 -0.08535113 -0.0853349 -0.08531307 -0.08528612 -0.08525407 -0.08521808 -0.08518112 -0.08514414
 -0.08511048 -0.08507972 -0.08505293 -0.08502869 -0.0850061 -0.08498435 -0.0849625 -0.08494112 -0.08492026 -0.08490029
 -0.08488157 -0.08486303 -0.08484458 -0.08482485 -0.08480357 -0.08478094 -0.08475693 -0.08473262 -0.08470795 -0.08468211
 -0.08465479 -0.08462289 -0.08458677 -0.08454563 -0.08450136 -0.08445839 -0.08441852 -0.08438774 -0.08436502 -0.08435199
 -0.08434559 -0.08434355 -0.08434407 -0.08434492 -0.08434751 -0.08435173 -0.0843598 -0.08437254 -0.08439033 -0.08441354
 -0.08444133 -0.0844738 -0.08450866 -0.08454586 -0.08458025 -0.08461151 -0.08463278 -0.08464455 -0.08464647 -0.08464064
 -0.08463607 -0.08463338 -0.0846409 -0.08465331 -0.08466624 -0.0846709 -0.08465355 -0.08461086 -0.08453228 -0.08442698
 -0.08429452 -0.08415384 -0.08401197 -0.08388471 -0.08377876 -0.08369823 -0.08364595 -0.08361557 -0.08360741 -0.08360796
 -0.08361652 -0.08361688 -0.08360863 -0.08358561 -0.08354935 -0.08350899 -0.08346567 -0.08343013 -0.08339989 -0.0833741
 -0.08334911 -0.08331701 -0.08327736 -0.08322524 -0.08316451 -0.0830965 -0.08302603 -0.08295685 -0.08289061 -0.08282945
 -0.08277135 -0.08271632 -0.08266149 -0.08260621 -0.08254918 -0.08249004 -0.08242922 -0.08236668 -0.08230327 -0.08223902
 -0.08217421 -0.08210891 -0.08204367 -0.08197881 -0.08191603 -0.08185568 -0.08179992 -0.08174831 -0.08170129 -0.08165748
 -0.08161534 -0.08157343 -0.08152975 -0.08148416 -0.08143568 -0.08138573 -0.08133446 -0.08128393 -0.08123486 -0.08118818
 -0.08114439 -0.08110265 -0.08106302 -0.08102394 -0.08098528 -0.08094609 -0.08090629 -0.08086488 -0.0808218 -0.08077621
 -0.08072855 -0.08068019 -0.08063212 -0.08058824 -0.08054834 -0.08051463 -0.08048464 -0.08045597 -0.08042639 -0.08039217
 -0.08035456 -0.08031276 -0.08026981 -0.08022718 -0.08018573 -0.08014639 -0.08010742 -0.08006861 -0.08002868 -0.07998734
 -0.07994509 -0.07990192 -0.07985918 -0.07981692 -0.07977595 -0.07973614 -0.0796967 -0.07965735 -0.07961625 -0.07957356
 -0.07952856 -0.07948218 -0.07943607 -0.07939076 -0.07934819 -0.07930709 -0.07926729 -0.07922655 -0.07918312 -0.07913616
 -0.07908428 -0.07902966 -0.07897226 -0.07891607 -0.07886194 -0.07881237 -0.07876807 -0.0787273 -0.07869008 -0.0786522
 -0.07861347 -0.07857165 -0.07852696 -0.07848074 -0.07843326 -0.07838666 -0.07834069 -0.0782957 -0.07825129 -0.07820681
 -0.07816213 -0.07811674 -0.07807069 -0.07802377 -0.07797609 -0.07792753 -0.07787875 -0.07783008 -0.07778183 -0.07773434
 -0.0776869 -0.07763939 -0.07759143 -0.07754279 -0.07749479 -0.0774475 -0.07740267 -0.07736032 -0.07731982 -0.07728094
 -0.0772411 -0.07720027 -0.07715674 -0.07711107 -0.0770639 -0.07701603 -0.07696949 -0.07692451 -0.07688259 -0.07684285
 -0.07680516 -0.07676811 -0.07673057 -0.07669199 -0.0766515 -0.07661025 -0.07656831 -0.07652725 -0.07648762 -0.07644916
 -0.07641207 -0.07637426 -0.07633556 -0.07629472 -0.07625168 -0.07620725 -0.07616153 -0.076116 -0.07607033 -0.07602379
 -0.07597583 -0.07592392 -0.07586858 -0.07580923 -0.07574782 -0.07568692 -0.07562833 -0.07557535 -0.07552737 -0.07548541
 -0.07544703 -0.07541136 -0.07537647 -0.07534135 -0.07530568 -0.07526927 -0.07523181 -0.07519338 -0.07515252 -0.07510912
 -0.07506163 -0.07501 -0.0749548 -0.07489633 -0.07483798 -0.07478014 -0.07472689 -0.07467777 -0.0746337 -0.07459341
 -0.07455453 -0.07451627 -0.07447603 -0.07443461 -0.07439192 -0.07434873 -0.07430603 -0.07426283 -0.07421909 -0.07417329
 -0.07412464 -0.07407346 -0.07401942 -0.07396452 -0.073909 -0.07385454 -0.07380134 -0.07375035 -0.07370165 -0.07365692
 -0.0736162 -0.07358053 -0.07354935 -0.07352041 -0.07349271 -0.07346145 -0.07342669 -0.07338569 -0.07334022 -0.07329168
 -0.07324196 -0.07319405 -0.07314775 -0.07310424 -0.0730617 -0.07301957 -0.07297619 -0.07293077 -0.07288276 -0.07283171
 -0.07277843 -0.07272282 -0.07266694 -0.07261094 -0.07255668 -0.07250426 -0.07245301 -0.07240272 -0.07235049 -0.0722964
 -0.07223929 -0.07217982 -0.07211968 -0.07205948 -0.07200176 -0.07194611 -0.0718934 -0.0718419 -0.07179017 -0.07173646
 -0.07167877 -0.07161704 -0.07155012 -0.07148079 -0.07140947 -0.07133966 -0.07127256 -0.07120869 -0.07114859 -0.07108976
 -0.07103197 -0.07097391 -0.0709155 -0.07085803 -0.07080162 -0.070748 -0.07069693 -0.07064779 -0.07060029 -0.07055274
 -0.07050573 -0.07045959 -0.0704154 -0.07037529 -0.07033932 -0.07030893 -0.07028232 -0.0702588 -0.07023607 -0.07021236
 -0.07018748 -0.07016053 -0.07013373 -0.07010734 -0.07008376 -0.0700636 -0.07004674 -0.07003338 -0.07002092 -0.07000921
 -0.06999552 -0.06997988 -0.06996188 -0.06994185 -0.06992153 -0.06990111 -0.06988238 -0.06986485 -0.06984843 -0.06983212
 -0.06981416 -0.069794 -0.06977006 -0.06974293 -0.06971249 -0.06967966 -0.06964503 -0.06960876 -0.06957094 -0.0695319
 -0.06949142 -0.06945144 -0.06941205 -0.06937609 -0.06934398 -0.06931617 -0.06929274 -0.06927057 -0.06924938 -0.06922448
 -0.06919579 -0.06916021 -0.06911818 -0.06906953 -0.06901526 -0.06895754 -0.06889769 -0.06883905 -0.06878212 -0.0687291
 -0.06867912 -0.0686323 -0.06858747 -0.0685438 -0.06850147 -0.06846038 -0.06842078 -0.06838306 -0.06834532 -0.06830757
 -0.06826619 -0.06822076 -0.06816932 -0.0681117 -0.06805012 -0.06798489 -0.06792133 -0.06785967 -0.06780433 -0.06775472
 -0.06771129 -0.06767267 -0.06763565 -0.06759918 -0.06755984 -0.06751777 -0.06747162 -0.06742235 -0.06737038 -0.06731628
 -0.06726048 -0.06720335 -0.06714494 -0.06708626 -0.06702749 -0.06696982 -0.06691349 -0.0668591 -0.06680677 -0.06675638
 -0.06670795 -0.06666052 -0.06661398 -0.06656628 -0.06651735 -0.0664655 -0.06641112 -0.06635465 -0.06629697 -0.0662406
 -0.06618595 -0.06613526 -0.06608761 -0.06604306 -0.06599969 -0.06595599 -0.06591029 -0.065861 -0.06580795 -0.06575034
 -0.06568987 -0.06562678 -0.06556275 -0.06549825 -0.06543344 -0.06536839 -0.0653033 -0.06523816 -0.06517522 -0.06511462
 -0.06505905 -0.06500819 -0.06496133 -0.0649176 -0.06487299 -0.06482711 -0.0647767 -0.06472236 -0.06466362 -0.06460143
 -0.0645368 -0.0644704 -0.06440297 -0.06433553 -0.06426878 -0.06420381 -0.06414133 -0.06408148 -0.06402468 -0.06396947
 -0.06391571 -0.06386199 -0.06380813 -0.06375345 -0.0636979 -0.06364094 -0.06358256 -0.06352189 -0.06345899 -0.0633937
 -0.06332638 -0.06325837 -0.06318977 -0.06312165 -0.0630536 -0.06298508 -0.06291638 -0.06284722 -0.0627792 -0.0627139
 -0.06265163 -0.06259393 -0.06253751 -0.06248163 -0.06242269 -0.06235886 -0.06229152 -0.06222027 -0.06214945 -0.06207969
 -0.06201214 -0.06194703 -0.06188102 -0.06181403 -0.0617439 -0.06167106 -0.06159762 -0.06152418 -0.0614547 -0.0613888
 -0.06132787 -0.06127015 -0.06121323 -0.06115507 -0.06109162 -0.06102283 -0.06094642 -0.06086567 -0.06078149 -0.06069821
 -0.06061828 -0.06054271 -0.06047285 -0.06040582 -0.06034142 -0.0602765 -0.0602105 -0.06014289 -0.06007353 -0.06000362
 -0.05993317 -0.05986229 -0.05979082 -0.05971711 -0.05964132 -0.059563 -0.05948289 -0.05940291 -0.05932362 -0.0592474
 -0.05917338 -0.05910157 -0.05903037 -0.05895805 -0.05888415 -0.0588075 -0.05872938 -0.05865002 -0.05857082 -0.05849243
 -0.05841473 -0.05833799 -0.05826074 -0.05818284 -0.05810294 -0.05802089 -0.05793663 -0.05785018 -0.05776203 -0.05767214
 -0.05758021 -0.05748623 -0.05738992 -0.05729163 -0.05719204 -0.0570919 -0.05699296 -0.05689582 -0.05680223 -0.05671178
 -0.05662522 -0.05654032 -0.05645611 -0.05637 -0.05628024 -0.05618684 -0.05608893 -0.05598942 -0.05588874 -0.05578931
 -0.05569164 -0.05559554 -0.05550108 -0.05540711 -0.05531359 -0.05522066 -0.05512843 -0.05503799 -0.05494909 -0.05486139
 -0.05477396 -0.05468391 -0.05459028 -0.05448933 -0.05438194 -0.05426713 -0.05414785 -0.05402674 -0.05390539 -0.05378627
 -0.05366778 -0.0535499 -0.05343058 -0.05330867 -0.0531854 -0.05306064 -0.05293699 -0.0528151 -0.05269387 -0.05257345
 -0.05244903 -0.05232041 -0.05218398 -0.05204014 -0.05189107 -0.05173773 -0.05158604 -0.05143625 -0.05129257 -0.05115388
 -0.05102023 -0.05088972 -0.05076011 -0.05062884 -0.05049294 -0.05034962 -0.05019582 -0.05003097 -0.04985315 -0.04966607
 -0.04947005 -0.04927017 -0.0490679 -0.04886441 -0.0486604 -0.0484526 -0.04824081 -0.0480224 -0.04779731 -0.04756614
 -0.04732921 -0.04708945 -0.04684773 -0.04660988 -0.04637661 -0.04615401 -0.04594052 -0.04573682 -0.0455386 -0.04533954
 -0.04513732 -0.04492574 -0.0447089 -0.04448715 -0.04426641 -0.04405086 -0.04383927 -0.04363319 -0.04342552 -0.04321498
 -0.04299641 -0.04276873 -0.042531 -0.04228317 -0.04202251 -0.04174877 -0.04145355 -0.04113684 -0.04079446 -0.04042863
 -0.04004908 -0.03965729 -0.03926459 -0.0388676 -0.03846495 -0.03805225 -0.03762157 -0.0371722 -0.03670092 -0.03620663
 -0.0356904 -0.03514177 -0.03455811 -0.03392291 -0.03322847 -0.03247169 -0.03164658 -0.03077728 -0.02986426 -0.02894523
 -0.02802334 -0.02712692 -0.02625741 -0.02542577 -0.02463083 -0.02386522 -0.02312468 -0.02238306 -0.02163604 -0.02085187
 -0.02003734 -0.01918728 -0.01832134 -0.01747027 -0.01664023 -0.01585569 -0.01509703 -0.01435881 -0.0136199 -0.01286507
 -0.01209421 -0.01130188 -0.01050152 -0.009695893 -0.008891216 -0.008089105 -0.007289723 -0.006492998 -0.005702717 -0.004919075
 -0.004144604 -0.003379781 -0.002629157 -0.001895863 -0.001199468 -0.0005433226 4.86723E-05 0.0005802622 0.001047022 0.001456548
 0.001820319 0.002139441 0.002420529 0.002659541 0.002853252 0.003006048 0.003117759 0.003198268 0.003252434 0.003280183
 0.003283889 0.003253132 0.003186933 0.003075436 0.002917675 0.002706871 0.002442612 0.002118079 0.001733768 0.001292201
 0.0007970212 0.000270118 -0.0002846205 -0.0008413226 -0.001400338 -0.001950154 -0.002491603 -0.003022902 -0.003539515 -0.00403733
 -0.004507958 -0.004943638 -0.005339218 -0.005689722 -0.005993941 -0.006250791 -0.006458343 -0.006615736 -0.006722752 -0.006778046
 -0.006791401 -0.006763136 -0.006707979 -0.006626765 -0.006527326 -0.006409691 -0.006275378 -0.006124961 -0.005962227 -0.005788904
 -0.005613015 -0.005436181 -0.005266102 -0.005103727 -0.004954116 -0.004817162 -0.004694935 -0.00458613 -0.004490854 -0.00440638
 -0.004331945 -0.00426309 -0.004198462 -0.004133123 -0.004065428 -0.003993384 -0.003916101 -0.00383539 -0.003751266 -0.003666302
 -0.003580648 -0.003496088 -0.003412673 -0.003331719 -0.003252884 -0.003174758 -0.003096872 -0.003015791 -0.002933427 -0.002851504
 -0.002774886 -0.002712606 -0.002667695 -0.002647864 -0.002652219 -0.002682446 -0.002737381 -0.002816777 -0.002919842 -0.003046057
 -0.003195566 -0.003367207 -0.003567277 -0.003795644 -0.004065142 -0.004377497 -0.004736392 -0.005142316 -0.005577385 -0.006040646
 -0.006513803 -0.006998411 -0.007495424 -0.008007261 -0.008544116 -0.009105799 -0.009697403 -0.0103166 -0.01096117 -0.01163061
 -0.01232276 -0.01303967 -0.01378545 -0.01455107 -0.01533846 -0.01611817 -0.01687953 -0.01760114 -0.01827127 -0.01890182
 -0.01949158 -0.02006368 -0.02062105 -0.02117137 -0.0217154 -0.02224573 -0.0227619 -0.023256 -0.02372813 -0.0241752
 -0.02459748 -0.02499363 -0.02536532 -0.02571409 -0.02604616 -0.02637122 -0.0266991 -0.02704548 -0.0274169 -0.02782586
 -0.02826892 -0.02874969 -0.02925581 -0.02978423 -0.03032179 -0.03086555 -0.03140181 -0.03192963 -0.03242641 -0.03288993
 -0.03329956 -0.03365349 -0.03395875 -0.03421667 -0.03445274 -0.03466746 -0.03487717 -0.03507945 -0.03527358 -0.03545693
 -0.03562202 -0.03576838 -0.03589197 -0.03599257 -0.03606875 -0.03611924 -0.03614198 -0.03613785 -0.03610608 -0.03605032
 -0.03597204 -0.03587312 -0.03575481 -0.03561539 -0.03545484 -0.03527075 -0.03506286 -0.03482976 -0.03457133 -0.03428645
 -0.0339754 -0.03364275 -0.03329089 -0.03293895 -0.03258998 -0.03226811 -0.03197132 -0.03170804 -0.03147128 -0.03125244
 -0.03104533 -0.03083841 -0.03062895 -0.03041075 -0.03018279 -0.0299417 -0.02969148 -0.02943005 -0.02917355 -0.02892498
 -0.02870194 -0.02850995 -0.0283471 -0.02821495 -0.02809696 -0.02799216 -0.02788751 -0.02778274 -0.02767473 -0.02756385
 -0.02745163 -0.02733756 -0.02722112 -0.02709954 -0.02696625 -0.02681603 -0.02663669 -0.02642315 -0.02616306 -0.02585627
 -0.02549771 -0.02509096 -0.02463746 -0.02413772 -0.02359232 -0.02300091 -0.02236143 -0.02168425 -0.02096893 -0.02023773
 -0.01949287 -0.01875339 -0.01802086 -0.017303 -0.0166003 -0.01592014 -0.01526464 -0.01465355 -0.01408984 -0.01359755
 -0.01317683 -0.01284053 -0.01258735 -0.01241984 -0.01233933 -0.01234819 -0.01244875 -0.01264514 -0.01293494 -0.01331987
 -0.01379017 -0.01434404 -0.01496626 -0.01565363 -0.01638814 -0.01716675 -0.01797188 -0.01880142 -0.01964043 -0.02048782
 -0.02132977 -0.02216554 -0.02298267 -0.02378079 -0.02455145 -0.02529437 -0.02600426 -0.02667991 -0.02731536 -0.02790912
 -0.02845483 -0.02895351 -0.02940277 -0.02980748 -0.03017071 -0.03049845 -0.03079543 -0.03106529 -0.03131097 -0.03153318
 -0.03173267 -0.03190951 -0.03206357 -0.03219642 -0.03230808 -0.03240149 -0.03247689 -0.03253655 -0.03258053 -0.0326087
 -0.03262082 -0.03261463 -0.0325904 -0.03254749 -0.03248796 -0.03241683 -0.03233754 -0.0322593 -0.03218431 -0.03212013
 -0.03206537 -0.03202188 -0.03198612 -0.03195586 -0.03193003 -0.03190665 -0.03188955 -0.03187901 -0.03188044 -0.03189521
 -0.03192542 -0.03197188 -0.03203186 -0.03210539 -0.0321867 -0.03227545 -0.03236463 -0.03245385 -0.03253699 -0.03261386
 -0.03268058 -0.03273673 -0.03277933 -0.03280739 -0.03281734 -0.03280882 -0.03277902 -0.03273034 -0.0326632 -0.03258271
 -0.0324918 -0.03239607 -0.03229862 -0.03220355 -0.03211267 -0.03202851 -0.03195177 -0.03188457 -0.03182714 -0.03178222
 -0.03175 -0.03173345 -0.03173266 -0.03174886 -0.03178171 -0.03182885 -0.03188929 -0.03195726 -0.03203124 -0.03210376
 -0.03217351 -0.03223386 -0.03228529 -0.03232504 -0.03235608 -0.03238005 -0.03240034 -0.03242015 -0.03244026 -0.03246246
 -0.03248416 -0.03250501 -0.03252219 -0.03253485 -0.03254243 -0.03254461 -0.03254256 -0.03253638 -0.03252686 -0.03251404
 -0.03249742 -0.032477 -0.03245235 -0.03242357 -0.03239097 -0.03235446 -0.03231411 -0.03226941 -0.03221936 -0.03216336
 -0.0321 -0.03202923 -0.03195024 -0.03186404 -0.03177074 -0.03167248 -0.03157 -0.03146603 -0.03136161 -0.03125857
 -0.03115768 -0.03105872 -0.03096179 -0.03086612 -0.0307716 -0.03067824 -0.03058605 -0.03049611 -0.03040847 -0.03032433
 -0.03024371 -0.03016733 -0.03009504 -0.03002696 -0.02996267 -0.02990134 -0.02984254 -0.02978527 -0.02972921 -0.02967372
 -0.02961861 -0.02956335 -0.02950863 -0.02945419 -0.02940241 -0.02935376 -0.02931131 -0.02927591 -0.02924911 -0.02923146
 -0.02922183 -0.02922027 -0.02922418 -0.02923341 -0.02924532 -0.02925994 -0.02927695 -0.02929687 -0.02932264 -0.02935437
 -0.02939464 -0.02944173 -0.02949339 -0.02954739 -0.02959878 -0.02964781 -0.02969252 -0.02973489 -0.02977637 -0.02981661
 -0.02985646 -0.0298928 -0.02992447 -0.02995039 -0.02996986 -0.029984 -0.0299931 -0.02999619 -0.02999331 -0.02998153
 -0.02996071 -0.0299311 -0.02989307 -0.02985114 -0.02980552 -0.02976001 -0.02971391 -0.02966702 -0.02961825 -0.02956501
 -0.02950661 -0.02944077 -0.02936753 -0.02928593 -0.02919667 -0.02909998 -0.02899635 -0.02888661 -0.02876908 -0.02864391
 -0.02850737 -0.02835882 -0.02819436 -0.02801314 -0.0278137 -0.02759562 -0.02736145 -0.02711133 -0.02685154 -0.02658266
 -0.02631333 -0.02604418 -0.02578335 -0.0255312 -0.02529357 -0.02506995 -0.02486271 -0.02466953 -0.02448836 -0.02431555
 -0.02414621 -0.02397789 -0.02380648 -0.02363314 -0.02345697 -0.02328111 -0.02310682 -0.02293498 -0.02276643 -0.02259916
 -0.02243313 -0.02226558 -0.02209625 -0.02192334 -0.02174671 -0.02156501 -0.02137817 -0.02118494 -0.02098523 -0.02077779
 -0.02056261 -0.02033909 -0.0201071 -0.01986596 -0.01961565 -0.01935569 -0.0190865 -0.01880813 -0.01852168 -0.01822757
 -0.0179282 -0.01762446 -0.01731981 -0.01701512 -0.01671525 -0.016421 -0.01613862 -0.01586868 -0.01561933 -0.01539119
 -0.01519317 -0.01502582 -0.01489477 -0.01479979 -0.01473874 -0.0147102 -0.01470447 -0.01471986 -0.01474501 -0.01477925
 -0.01481535 -0.01485344 -0.01489088 -0.01492709 -0.01496086 -0.01499043 -0.01501418 -0.01503027 -0.01503713 -0.01503414
 -0.01502047 -0.01499719 -0.01496425 -0.01492343 -0.01487501 -0.01482023 -0.01475928 -0.01469209 -0.01461864 -0.0145389
 -0.01445302 -0.01436337 -0.01427031 -0.01417753 -0.01408498 -0.01399437 -0.01390554 -0.01381827 -0.01373407 -0.01365444
 -0.01358344 -0.013526 -0.01348646 -0.01347037 -0.013479 -0.01351534 -0.01357659 -0.01366305 -0.01376925 -0.01389422
 -0.01403205 -0.01418185 -0.01433812 -0.0145003 -0.01466375 -0.01482817 -0.01498926 -0.01514676 -0.01529635 -0.01543796
 -0.01556896 -0.01568936 -0.01579789 -0.0158941 -0.01597656 -0.0160442 -0.01609432 -0.01612665 -0.01613895 -0.0161339
 -0.01611172 -0.01607884 -0.01603805 -0.01599747 -0.0159607 -0.01593384 -0.01591924 -0.01591992 -0.01593658 -0.01597182
 -0.01602576 -0.01610299 -0.01620381 -0.01633135 -0.01648536 -0.01666133 -0.01685793 -0.01706357 -0.01727724 -0.01748839
 -0.01769754 -0.01790075 -0.01809897 -0.01829264 -0.0184811 -0.01866396 -0.01883975 -0.01900688 -0.01916504 -0.01931308
 -0.01945309 -0.01958528 -0.01971287 -0.0198366 -0.01995952 -0.02008237 -0.0202066 -0.02033265 -0.02045928 -0.02058649
 -0.02071152 -0.0208343 -0.02095362 -0.02106958 -0.02118259 -0.02129237 -0.02139819 -0.02149931 -0.02159308 -0.02167964
 -0.02175757 -0.02182833 -0.0218932 -0.02195328 -0.02201028 -0.02206376 -0.02211412 -0.02216006 -0.02220101 -0.02223644
 -0.02226586 -0.02229016 -0.02230917 -0.02232529 -0.02233865 -0.02235258 -0.02236734 -0.02238501 -0.02240556 -0.02242777
 -0.02245131 -0.02247291 -0.02249264 -0.02250876 -0.02252206 -0.02253375 -0.02254474 -0.02255771 -0.02257217 -0.02258911
 -0.02260635 -0.02262245 -0.02263505 -0.02264176 -0.02264307 -0.02263805 -0.02262998 -0.02261964 -0.02260924 -0.02259973
 -0.02258951 -0.02257866 -0.02256383 -0.02254471 -0.02252104 -0.02249294 -0.02246409 -0.0224347 -0.02240814 -0.02238379
 -0.02236107 -0.02233873 -0.02231291 -0.02228303 -0.02224571 -0.02220205 -0.02215188 -0.02209706 -0.02203941 -0.02197968
 -0.0219193 -0.02185702 -0.02179277 -0.02172495 -0.02165265 -0.02157698 -0.02149766 -0.02141829 -0.02133943 -0.02126248
 -0.02118777 -0.02111063 -0.02103075 -0.02094101 -0.02084175 -0.02073202 -0.02061387 -0.02049561 -0.02037987 -0.0202788
 -0.02019298 -0.02013023 -0.02008728 -0.02006384 -0.02005406 -0.02005249 -0.02005449 -0.02005502 -0.02005338 -0.02004813
 -0.02003935 -0.02002765 -0.02000906 -0.01998341 -0.01994437 -0.0198908 -0.01982141 -0.01973571 -0.01964088 -0.01953737
 -0.0194354 -0.01933492 -0.01924045 -0.01915039 -0.01905992 -0.01896732 -0.01886409 -0.01875163 -0.01862749 -0.01849668
 -0.01836537 -0.01823669 -0.01811762 -0.01800391 -0.01789592 -0.01778586 -0.01766925 -0.01754504 -0.01741025 -0.01727381
 -0.01713652 -0.01700879 -0.01689255 -0.01679023 -0.01670243 -0.01662385 -0.01655422 -0.01648781 -0.01642463 -0.01636249
 -0.01630144 -0.01624083 -0.01618004 -0.01611686 -0.01605077 -0.01597952 -0.01590312 -0.01582107 -0.01573223 -0.01563604
 -0.01552921 -0.01540871 -0.01527456 -0.01512372 -0.01496608 -0.01480243 -0.01464871 -0.01450877 -0.0143911 -0.01429845
 -0.01422479 -0.0141702 -0.01412208 -0.01407987 -0.01403699 -0.01399385 -0.01395216 -0.01391247 -0.0138787 -0.01385019
 -0.01382747 -0.01380829 -0.0137885 -0.01376568 -0.01373402 -0.0136937 -0.01364172 -0.01358229 -0.01351717 -0.01345053
 -0.013386 -0.01332107 -0.01325669 -0.01318538 -0.01310516 -0.01301396 -0.01291031 -0.01280207 -0.01268962 -0.01258228
 -0.01248039 -0.01238419 -0.01229316 -0.0122012 -0.01210885 -0.01201521 -0.01192244 -0.01183737 -0.01176073 -0.01169864
 -0.01164759 -0.01160592 -0.01156782 -0.01152646 -0.01147856 -0.01141871 -0.01134914 -0.01126854 -0.01118347 -0.0110955
 -0.01101105 -0.01093223 -0.01086057 -0.01079709 -0.01073757 -0.01068188 -0.01062395 -0.01056346 -0.01049654 -0.01042305
 -0.01034021 -0.01024779 -0.01014275 -0.01002541 -0.009894483 -0.009752202 -0.009602238 -0.009447997 -0.009296337 -0.009149161
 -0.009011614 -0.008882487 -0.008762896 -0.008649934 -0.008541928 -0.008438747 -0.008339083 -0.008247576 -0.00816494 -0.008095499
 -0.00804064 -0.007997357 -0.007965761 -0.007938734 -0.00791593 -0.007894753 -0.007875338 -0.007859118 -0.007845368 -0.00783107
 -0.007814685 -0.007788883 -0.007753939 -0.007706326 -0.00764832 -0.007582108 -0.007509078 -0.007431635 -0.007350242 -0.007265395
 -0.007179233 -0.00709283 -0.007008179 -0.006926913 -0.006846847 -0.006768377 -0.006685883 -0.006598531 -0.006502508 -0.006397015
 -0.006285256 -0.00616741 -0.00605589 -0.005951658 -0.005870685 -0.005812467 -0.005783855 -0.005780711 -0.005793443 -0.005816169
 -0.005830289 -0.005833217 -0.005811184 -0.005768149 -0.005701571 -0.005620992 -0.005532741 -0.005444178 -0.005363117 -0.005284399
 -0.005210245 -0.005124437 -0.005022882 -0.004897228 -0.004743254 -0.004575791 -0.004394908 -0.00422714 -0.004073959 -0.003946662
 -0.003844214 -0.003755435 -0.003678656 -0.003597711 -0.003513667 -0.003421536 -0.003323763 -0.003224352 -0.003123241 -0.003022439
 -0.002920355 -0.002814619 -0.002708132 -0.002600519 -0.002500601 -0.00241311 -0.002343651 -0.002297414 -0.002267579 -0.002254998
 -0.002244629 -0.002234227 -0.002213028 -0.002179315 -0.002132986 -0.002073935 -0.002006813 -0.001931745 -0.001851201 -0.001765239
 -0.001674916 -0.00158131 -0.001488878 -0.001398715 -0.001316575 -0.001240674 -0.001171706 -0.001104749 -0.001034422 -0.0009569846
 -0.0008674147 -0.0007647956 -0.0006468586 -0.0005152698 -0.0003676882 -0.0002165746 -6.146097E-05 7.003146E-05 0.0001721193 0.0002355159
 0.0002564696 0.0002622847 0.0002543465 0.000256991 0.0002700126 0.0002935271 0.0003257644 0.000354963 0.000381507 0.0004003422
 0.000413613 0.0004251219 0.0004339891 0.0004410419 0.0004433271 0.0004365405 0.000422033 0.0003982429 0.0003709277 0.000343004
 0.0003181205 0.0002989015 0.0002845426 0.0002749819 0.0002709005 0.0002718631 0.0002827001 0.0003039932 0.000338118 0.0003853854
 0.0004371018 0.0004923146 0.000534292 0.0005626049 0.0005654441 0.0005447116 0.000501199 0.0004373995 0.0003602013 0.0002705141
 0.0001717971 6.754649E-05 -3.932549E-05 -0.0001381532 -0.0002185522 -0.0002751032 -0.0002968076 -0.0003009498 -0.0002899795 -0.0002861023
 -0.0002996502 -0.0003230978 -0.0003599853 -0.0003768574 -0.0003699241 -0.0003215649 -0.000229961 -0.0001139152 2.52066E-05 0.0001612497
 0.0002950512 0.0004205475 0.0005388547 0.0006526741 0.0007589184 0.000850773 0.0009255708 0.0009732553 0.000998714 0.001002339
 0.0009937997 0.0009816609 0.0009719489 0.0009713816 0.0009795967 0.0009981474 0.001024895 0.001059692 0.001100224 0.001146797
 0.001192355 0.001236183 0.001272156 0.001299539 0.00132779 0.001358028 0.001413487 0.001493132 0.001603694 0.001736991
 0.001863604 0.001975749 0.002033039 0.00204412 0.002000329 0.001927527 0.001854615 0.001801816 0.001802166 0.001847649
 0.001948096 0.002073008 0.002212766 0.002342458 0.002450821 0.002536622 0.002595801 0.002645716 0.002687667 0.002737748
 0.002797414 0.002865969 0.00294286 0.003014913 0.003082252 0.003138856 0.003187493 0.003237079 0.003289079 0.003353827
 0.003426946 0.003506204 0.003584416 0.003650695 0.003702293 0.003731579 0.003742693 0.003735363 0.003715901 0.003687566
 0.003651785 0.003610959 0.003558099 0.003492682 0.003406137 0.00329667 0.003166322 0.003014756 0.002856534 0.002692431
 0.002537026 0.002390381 0.002258718 0.002142956 0.002049821 0.001981648 0.00195087 0.001953125 0.001990888 0.002046226
 0.002097402 0.002128274 0.002110578 0.002055323 0.001956065 0.00184383 0.00173294 0.001634599 0.001559629 0.001487253
 0.001415226 0.001325741 0.001214078 0.001093803 0.0009650866 0.0008549101 0.0007637055</values></Ydata></AB><ScSm><Ydata ylabel="Single channel"><values byteorder="INTEL" format="FLOAT32" numvalues="1814"> 0.09087755 0.09099656 0.09113008 0.09128373 0.09145103 0.09161698 0.09176685 0.091897 0.0920148 0.09212568
 0.0922306 0.09234004 0.092475 0.09264448 0.09282994 0.09299809 0.09312657 0.09322278 0.09332259 0.09345788
 0.09361452 0.09373248 0.09376074 0.09371252 0.09365907 0.09366509 0.09374444 0.09389587 0.09414692 0.09448904
 0.0947829 0.09484755 0.0946874 0.09452593 0.09455682 0.09475005 0.09494513 0.09503027 0.09498329 0.09485726
 0.09480956 0.09505358 0.09566289 0.09641122 0.09684358 0.09653938 0.09539227 0.09376213 0.09239049 0.09201396
 0.09283297 0.09428817 0.09547724 0.09588137 0.09564836 0.09521218 0.09484204 0.0946295 0.0946833 0.09511174
 0.09584108 0.09654485 0.09676981 0.09623146 0.09513678 0.09414992 0.09385286 0.09429254 0.09518024 0.09624128
 0.09696233 0.09633122 0.09372856 0.09029239 0.08857124 0.0901726 0.09408142 0.09771781 0.09928884 0.0987379
 0.09700009 0.09517498 0.09423975 0.0947123 0.09630975 0.0982316 0.09979991 0.1006444 0.1005323 0.09947285
 0.09793837 0.09666543 0.09624694 0.09696229 0.09866306 0.1005979 0.1017111 0.1014766 0.1002939 0.09896836
 0.09811559 0.09812913 0.0992112 0.1011308 0.1032461 0.1049796 0.1061199 0.1066914 0.1068063 0.1066419
 0.106357 0.1060709 0.1059827 0.1062694 0.1067389 0.1068715 0.1063978 0.1056646 0.105284 0.1055027
 0.1059908 0.10624 0.1060661 0.1055139 0.1043432 0.1021468 0.09918825 0.09652924 0.0949952 0.09459437
 0.09518983 0.09685853 0.09908794 0.1005213 0.1003184 0.09928569 0.09900557 0.1001302 0.1019745 0.1035291
 0.1044444 0.1050924 0.1059805 0.1071723 0.1081317 0.10811 0.1069021 0.1053283 0.104692 0.1055215
 0.1070616 0.1082142 0.1087012 0.1090377 0.1096209 0.1101509 0.1098874 0.1084379 0.1064272 0.1052851
 0.1060682 0.108414 0.1107264 0.1113827 0.109888 0.107143 0.1046875 0.1035938 0.1040466 0.1057749
 0.1084316 0.1114374 0.1138977 0.1150546 0.1148069 0.1136851 0.1122755 0.1106761 0.108704 0.1067465
 0.1059871 0.1072995 0.1101236 0.1129095 0.1145483 0.1149874 0.1146012 0.1134402 0.1113311 0.1086502
 0.1066698 0.1066183 0.1082871 0.1100814 0.1107167 0.11042 0.1102047 0.1104778 0.1108125 0.1108037
 0.110663 0.1109145 0.1117288 0.1127134 0.1133358 0.1134209 0.1131924 0.1129559 0.1128075 0.1125789
 0.1120933 0.111555 0.1115325 0.1123594 0.113686 0.1148301 0.1154485 0.1156732 0.1157017 0.1154641
 0.1147475 0.1136168 0.1126199 0.1124007 0.113074 0.1141384 0.1150114 0.1154641 0.1155616 0.1154423
 0.1152259 0.1149839 0.1147544 0.1146215 0.1147021 0.1149902 0.115312 0.1154974 0.1155199 0.1154348
 0.1152661 0.1150071 0.1146915 0.1144191 0.1142944 0.114344 0.1145075 0.1146998 0.1148489 0.1148914
 0.1147958 0.1146019 0.1143907 0.1142126 0.1140732 0.1139805 0.1139585 0.1140086 0.1140865 0.1141349
 0.1141283 0.1140765 0.1139937 0.1138843 0.1137577 0.1136394 0.1135615 0.1135426 0.1135695 0.1136034
 0.1136231 0.1136514 0.1137091 0.1137591 0.1137394 0.1136454 0.1135381 0.1134775 0.1134747 0.1135039
 0.1135305 0.1135229 0.1134563 0.1133293 0.1131869 0.1131077 0.1131457 0.11329 0.113492 0.1137063
 0.1138929 0.1140186 0.1140849 0.1141303 0.1141843 0.1142391 0.1142743 0.1142943 0.1143344 0.1144344
 0.1145991 0.1147873 0.114948 0.1150594 0.1151304 0.1151869 0.1152657 0.1153863 0.115515 0.1155929
 0.1156131 0.1156365 0.1157171 0.115839 0.1159421 0.1159923 0.1160109 0.1160434 0.1161107 0.1161975
 0.1162802 0.1163558 0.1164405 0.1165428 0.1166399 0.116688 0.1166649 0.1166006 0.1165487 0.1165338
 0.1165441 0.1165685 0.1166139 0.1166817 0.1167483 0.1167815 0.1167725 0.1167431 0.1167199 0.1167049
 0.1166769 0.1166197 0.1165403 0.1164583 0.1163891 0.1163348 0.1162856 0.1162264 0.116147 0.1160477
 0.115936 0.1158189 0.1156985 0.1155768 0.1154677 0.1153964 0.1153696 0.1153462 0.1152589 0.1150782
 0.1148438 0.1146279 0.1144703 0.114356 0.1142434 0.1141073 0.1139545 0.1138068 0.1136784 0.1135693
 0.1134721 0.1133808 0.1132998 0.113248 0.1132432 0.1132728 0.1132908 0.1132587 0.1131854 0.1131137
 0.1130749 0.1130684 0.1130778 0.113091 0.1131084 0.1131404 0.113194 0.1132572 0.1133065 0.1133346
 0.1133605 0.1134099 0.1134971 0.1136227 0.1137709 0.1139087 0.1140094 0.1140823 0.1141655 0.1142844
 0.1144305 0.1145829 0.1147367 0.1149034 0.1150921 0.1153019 0.1155289 0.1157744 0.1160421 0.1163303
 0.1166288 0.1169236 0.1172075 0.117488 0.1177833 0.1181088 0.1184642 0.1188334 0.1191977 0.1195507
 0.1199005 0.1202567 0.1206207 0.1209913 0.1213739 0.1217754 0.1221916 0.1226098 0.123022 0.123432
 0.1238467 0.1242674 0.1246897 0.1251114 0.1255403 0.1259888 0.1264553 0.1269136 0.1273311 0.1277022
 0.1280558 0.1284296 0.1288405 0.1292748 0.1296981 0.1300809 0.130426 0.1307679 0.1311364 0.1315246
 0.1319057 0.1322749 0.1326596 0.1330812 0.133518 0.1339184 0.1342519 0.1345401 0.1348328 0.1351537
 0.1354803 0.1357781 0.1360421 0.1362972 0.1365656 0.1368496 0.1371467 0.1374644 0.1378045 0.1381459
 0.1384599 0.1387403 0.1390048 0.1392666 0.1395192 0.1397492 0.1399524 0.1401394 0.1403293 0.140536
 0.1407544 0.1409689 0.1411773 0.1413968 0.1416427 0.1419139 0.1422062 0.1425245 0.142869 0.143221
 0.1435615 0.1439008 0.1442673 0.1446629 0.1450454 0.1453733 0.1456511 0.1459152 0.1461883 0.1464715
 0.1467724 0.1471106 0.1474927 0.1478989 0.1482991 0.1486741 0.1490267 0.1493797 0.1497541 0.1501399
 0.1504973 0.1507971 0.1510529 0.1513057 0.1515869 0.1518992 0.1522245 0.1525392 0.1528254 0.1530705
 0.1532606 0.1533826 0.1534378 0.1534465 0.1534247 0.1533599 0.1532168 0.1529657 0.1525959 0.152102
 0.1514727 0.1507033 0.1498224 0.148906 0.1480653 0.147416 0.1470464 0.1470004 0.1472757 0.1478263
 0.1485642 0.1493703 0.1501168 0.1506893 0.1509988 0.1509898 0.1506539 0.150032 0.1491971 0.148229
 0.1472 0.1461687 0.145182 0.1442947 0.1436012 0.1432445 0.1433805 0.1441222 0.1454943 0.1474081
 0.1496633 0.1519964 0.1541725 0.156064 0.1576631 0.1590319 0.1602432 0.1613508 0.1623885 0.1633734
 0.1643099 0.1651954 0.1660284 0.1668068 0.1675219 0.1681566 0.1686907 0.1691087 0.1694061 0.1695956
 0.1697032 0.169758 0.169789 0.1698262 0.169886 0.1699424 0.1699217 0.1697393 0.1693503 0.168776
 0.1681097 0.167518 0.1672314 0.167491 0.1684449 0.1700541 0.1720908 0.1742452 0.1762583 0.1779849
 0.1793841 0.1804853 0.1813585 0.182082 0.1827159 0.1832945 0.1838353 0.1843474 0.1848366 0.1853092
 0.1857713 0.186227 0.18668 0.1871353 0.1875942 0.1880504 0.1884964 0.1889329 0.1893692 0.1898133
 0.1902626 0.1907068 0.1911422 0.1915778 0.1920229 0.1924707 0.1929039 0.1933156 0.1937181 0.1941287
 0.194555 0.1949918 0.195427 0.195847 0.196243 0.1966157 0.1969749 0.1973313 0.1976903 0.1980502
 0.1984072 0.1987598 0.1991095 0.1994581 0.1998066 0.2001551 0.2005007 0.2008367 0.2011592 0.2014725
 0.2017858 0.2021028 0.2024181 0.2027257 0.2030289 0.2033396 0.2036678 0.2040117 0.2043585 0.204695
 0.205017 0.2053296 0.2056404 0.2059539 0.2062705 0.2065884 0.2069049 0.2072179 0.2075265 0.2078322
 0.208139 0.2084493 0.2087613 0.2090712 0.2093783 0.2096836 0.2099863 0.2102829 0.2105723 0.2108592
 0.2111508 0.2114507 0.2117563 0.2120605 0.212357 0.2126433 0.2129218 0.2131966 0.2134714 0.2137475
 0.2140262 0.214311 0.2146044 0.2149018 0.2151949 0.2154788 0.2157576 0.2160393 0.2163295 0.2166268
 0.2169257 0.2172216 0.217512 0.2177951 0.2180717 0.2183476 0.2186289 0.2189149 0.219201 0.2194855
 0.2197701 0.2200553 0.2203398 0.2206245 0.2209121 0.2212022 0.2214896 0.2217684 0.2220382 0.222306
 0.2225796 0.2228608 0.2231459 0.223431 0.2237136 0.2239936 0.2242728 0.2245522 0.2248314 0.2251108
 0.2253923 0.2256764 0.2259618 0.2262489 0.2265383 0.226827 0.227111 0.2273896 0.2276646 0.2279386
 0.2282147 0.2284941 0.2287742 0.2290526 0.2293292 0.2296048 0.2298807 0.2301605 0.2304451 0.2307301
 0.2310124 0.2312949 0.2315812 0.2318706 0.2321611 0.2324526 0.2327461 0.2330432 0.2333442 0.2336454
 0.2339433 0.234238 0.2345301 0.2348164 0.2350958 0.2353703 0.2356411 0.2359079 0.2361731 0.2364378
 0.236701 0.2369648 0.2372337 0.2375077 0.2377839 0.2380641 0.2383517 0.2386454 0.2389431 0.2392435
 0.2395413 0.2398306 0.2401141 0.2404004 0.2406939 0.2409936 0.2412953 0.2415924 0.2418841 0.2421784
 0.2424802 0.2427849 0.2430897 0.2433983 0.2437096 0.2440182 0.2443225 0.2446239 0.2449226 0.2452231
 0.2455305 0.2458397 0.2461434 0.2464455 0.2467522 0.2470605 0.2473657 0.2476698 0.2479755 0.2482842
 0.2485987 0.2489158 0.249228 0.2495365 0.2498491 0.2501642 0.2504755 0.2507837 0.2510901 0.2513912
 0.2516899 0.2519929 0.2522969 0.252596 0.2528951 0.253197 0.2534951 0.253787 0.2540745 0.2543477
 0.2545801 0.2547078 0.2545591 0.2537756 0.2517639 0.2477054 0.2407227 0.2302409 0.2163477 0.1998807
 0.1821842 0.1646822 0.1484956 0.1343043 0.1224562 0.1131253 0.1064123 0.1024308 0.1013811 0.1036589
 0.1100027 0.1210594 0.1357596 0.1498989 0.1577061 0.15622 0.1479821 0.1387299 0.132717 0.1306194
 0.1309886 0.1323955 0.1342718 0.1367528 0.1401899 0.1446399 0.1498078 0.1555429 0.1621317 0.1698647
 0.1784695 0.1872081 0.195497 0.2032904 0.2108633 0.2183432 0.2255239 0.2320648 0.2377559 0.2425899
 0.2466935 0.2502443 0.253402 0.2562717 0.2589186 0.2613747 0.2635915 0.265421 0.2667017 0.2673885
 0.2676077 0.2675944 0.2675651 0.2676305 0.2678099 0.2680957 0.2684799 0.2689466 0.2694772 0.27006
 0.2706814 0.2713203 0.2719574 0.2725781 0.2731705 0.2737303 0.2742589 0.2747539 0.2752145 0.275651
 0.2760762 0.2764919 0.2768955 0.2772887 0.2776719 0.278045 0.2784115 0.2787714 0.2791134 0.2794276
 0.2797158 0.2799848 0.2802411 0.2804917 0.2807414 0.2809908 0.2812424 0.2814998 0.2817578 0.2820059
 0.2822419 0.2824721 0.2827022 0.2829359 0.2831733 0.2834085 0.2836363 0.2838605 0.284089 0.2843229
 0.2845588 0.2847937 0.2850255 0.285253 0.285477 0.2856985 0.2859212 0.2861553 0.2864098 0.2866798
 0.2869521 0.287221 0.2874885 0.2877542 0.2880163 0.288276 0.288536 0.2887996 0.2890713 0.2893487
 0.2896169 0.2898597 0.2900747 0.2902743 0.2904756 0.2906894 0.2909137 0.2911385 0.2913601 0.2915849
 0.2918195 0.2920624 0.2923071 0.2925473 0.2927821 0.2930219 0.2932814 0.293562 0.2938498 0.2941319
 0.2944059 0.2946757 0.2949467 0.2952232 0.2955024 0.2957723 0.2960246 0.2962677 0.2965247 0.2968166
 0.2971411 0.2974683 0.2977667 0.2980343 0.2982961 0.298577 0.298884 0.2992033 0.2995005 0.2997449
 0.2999509 0.3001829 0.3004988 0.3008966 0.301324 0.3017302 0.3020995 0.3024451 0.302783 0.3031162
 0.3034346 0.303727 0.303999 0.3042842 0.3046243 0.3050243 0.3054409 0.3058258 0.3061674 0.3064798
 0.3067782 0.3070723 0.3073529 0.307576 0.3077075 0.3078017 0.3079913 0.3083626 0.3088601 0.3093443
 0.3097317 0.3100474 0.3103489 0.3106519 0.3109424 0.3111929 0.3113261 0.3112526 0.3110315 0.3109292
 0.3112015 0.3118351 0.3125805 0.3132078 0.3136574 0.313984 0.3142548 0.3145055 0.3147191 0.3148232
 0.3147672 0.3146417 0.3146692 0.3150024 0.3155497 0.3160743 0.3164459 0.3167153 0.3169784 0.3172658
 0.3175293 0.3176288 0.3173935 0.3168539 0.3163975 0.316516 0.3173312 0.3184578 0.3193897 0.3199487
 0.3202811 0.320507 0.3205394 0.3202437 0.3196026 0.3187213 0.3178789 0.3175733 0.3181938 0.3195221
 0.3208259 0.321592 0.3219626 0.3223654 0.3229563 0.3235566 0.3239469 0.324063 0.3239615 0.3236927
 0.3232756 0.3228415 0.3227233 0.3232219 0.324255 0.3253739 0.3261837 0.3266569 0.326955 0.3269689
 0.3261943 0.3243299 0.3220649 0.3209089 0.3218502 0.3243173 0.3268 0.3283429 0.3290688 0.3294742
 0.3297807 0.3298701 0.3292678 0.3272985 0.3240071 0.320963 0.3203077 0.3226437 0.3263589 0.3291892
 0.3299477 0.3287646 0.3265126 0.3244047 0.3235616 0.3243998 0.3264555 0.3288593 0.3308622 0.3320356
 0.3322884 0.331822 0.3310491 0.3304898 0.3304434 0.3305402 0.3299706 0.3285398 0.3270432 0.3260367
 0.3248105 0.3225498 0.3201598 0.3196992 0.3218362 0.3248845 0.3267573 0.3271001 0.3269111 0.3265261
 0.3247971 0.320604 0.3149345 0.3108532 0.3108749 0.3144512 0.3185161 0.3204995 0.3203557 0.3196745
 0.3194429 0.3190051 0.3170449 0.3134534 0.3100377 0.3088995 0.3100759 0.3114727 0.3111818 0.3088228
 0.3045187 0.2984006 0.2921939 0.2895549 0.2928369 0.3001465 0.3070112 0.3102403 0.3089224 0.3030844
 0.2940055 0.2855904 0.2826161 0.2863224 0.2929603 0.2974214 0.2972677 0.2928294 0.2851085 0.2753239
 0.2659849 0.2605994 0.2614433 0.2677419 0.2758216 0.2807144 0.2787053 0.2703021 0.260953 0.2569327
 0.2594559 0.2638973 0.2652406 0.2627921 0.259132 0.2565774 0.2558929 0.2567654 0.2581732 0.2591832
 0.2596731 0.2590043 0.2546722 0.245095 0.2338155 0.2276444 0.2296336 0.2365901 0.2442437 0.2515459
 0.2583456 0.2623067 0.2613999 0.2579625 0.257227 0.2617208 0.2688252 0.2740743 0.275655 0.2751409
 0.2745613 0.2739403 0.2723293 0.2704852 0.2708961 0.2747087 0.2799563 0.2837039 0.2850055 0.2849132
 0.2845047 0.283986 0.2832325 0.2822244 0.2810043 0.2796937 0.278486 0.2774248 0.2763699 0.2752658
 0.2740633 0.2721224 0.2682632 0.2623005 0.2563644 0.2534464 0.2542717 0.256832 0.2592773 0.2612698
 0.2615861 0.2571154 0.2469295 0.2359402 0.2315285 0.2364118 0.2464736 0.2553684 0.2595338 0.2586381
 0.2534306 0.2453963 0.2382965 0.2375353 0.2459917 0.2609794 0.27663 0.2888432 0.2968605 0.3010038
 0.301099 0.297635 0.2931062 0.2910537 0.2936466 0.3002601 0.3079704 0.3129138 0.3119537 0.305246
 0.2979976 0.2973281 0.3051831 0.3157344 0.3218131 0.3224433 0.321834 0.3227118 0.3239638 0.3243085
 0.3249242 0.327426 0.3311971 0.3338927 0.3335503 0.3294221 0.3219716 0.3134536 0.3075747 0.3065879
 0.3088435 0.3107129 0.3103289 0.3076498 0.3021942 0.2940437 0.2867127 0.2852684 0.2905875 0.2980515
 0.3028146 0.3043148 0.3047992 0.3052512 0.3042225 0.3002495 0.2944239 0.2899201 0.2888672 0.2903265
 0.2918232 0.2920313 0.290997 0.2885957 0.2845119 0.2798498 0.2772736 0.2786683 0.283153 0.2879651
 0.29102 0.2921925 0.2924929 0.2927762 0.2932869 0.2938261 0.2941731 0.2946802 0.2963189 0.2996036
 0.3036246 0.3068401 0.308833 0.3106516 0.3133278 0.3166104 0.319356 0.3208004 0.3212376 0.3216453
 0.3228014 0.3246453 0.326343 0.3270286 0.326663 0.3261887 0.3266923 0.32838 0.3305033 0.3322302
 0.3333449 0.3341311 0.3349047 0.3357534 0.3364925 0.3368196 0.3367197 0.3367212 0.3374941 0.3391344
 0.3410267 0.3424515 0.3431652 0.3433629 0.3432781 0.3429652 0.3424117 0.3417144 0.3410803 0.3406783
 0.3405288 0.3405392 0.3406079 0.34068 0.3407435 0.3408164 0.3409308 0.3411022 0.3413187 0.3415649
 0.3418312 0.3420904 0.3422995 0.3424453 0.3425566 0.3426467 0.3426684 0.342545 0.3422183 0.3416498
 0.3407982 0.3396222 0.3380932 0.3361835 0.3338689 0.3312271 0.3286063 0.3266625 0.3260914 0.3271862
 0.3296027 0.3325563 0.3352705 0.3373082 0.3386077 0.3393217 0.3396469 0.339735 0.3396751 0.3395091
 0.3392579 0.3389429 0.3385885 0.3382136 0.3378352 0.3374802 0.3371789 0.3369395 0.3367347 0.3365162
 0.3362422 0.3358892 0.3354474 0.3349147 0.3342955 0.3335908 0.3327826 0.3318439 0.330775 0.3296258
 0.3284723 0.3273689 0.3263203 0.32529 0.3242305 0.3230994 0.3218394 0.320371 0.3186663 0.3168476
 0.315153 0.3137474 0.3125818 0.3114643 0.310239 0.3088688 0.3073866 0.3058318 0.3042313 0.3026024
 0.3009496 0.2992631 0.2975207 0.2956943 0.2937621 0.2917205 0.2895811 0.2873613 0.2850813 0.2827558
 0.2803661 0.2778332 0.2750211 0.2717742 0.2679598 0.2634968 0.2583761 0.2526788 0.2465838 0.2403381
 0.2341936 0.228352 0.2229539 0.2181053 0.2139032 0.2104396 0.2077875 0.2059898 0.2050615 0.205
 0.2057897 0.2073933 0.2097378 0.2127036 0.2161263 0.2198135 0.223563 0.2271849 0.2305451 0.2336146
 0.2364637 0.2391782 0.2417771 0.244213 0.2464346 0.2484233 0.2501768 0.2516873 0.2529488 0.253977
 0.2548151 0.2555152 0.2561138 0.2566172 0.2570112 0.2572877 0.2574671 0.2575961 0.2577281 0.257907
 0.2581624 0.2585106 0.258957 0.2594987 0.2601281 0.2608373 0.2616201 0.2624696 0.2633708 0.2643046
 0.2652645 0.2662677 0.267349 0.2685493 0.2699065 0.2714435 0.2731564 0.2750062 0.2769163 0.2787763
 0.2804639 0.281881 0.2829766 0.2837432 0.284201 0.2843827 0.284327 0.2840758 0.2836703 0.2831416
 0.2825077 0.2817816 0.2809799 0.2801186 0.2792026 0.2782281 0.2771969 0.2761284 0.275053 0.2739954
 0.2729664 0.2719688 0.271 0.2700492 0.2691067 0.2681774 0.2672761 0.2664133 0.26559 0.264801
 0.2640341 0.2632673 0.2624691 0.2615961 0.2605991 0.2594426 0.2581154 0.25662 0.2549611 0.2531503
 0.2512099 0.2491678 0.247051 0.2448789 0.2426578 0.2403798 0.2380263 0.2355753 0.2330284 0.230441
 0.2279104 0.2255212 0.2233074 0.2212604 0.2193509 0.2175447 0.2158168 0.2141581 0.2125674 0.2110423
 0.2095784 0.2081696 0.2068157 0.2055314 0.204341 0.2032626 0.2023073 0.2014827 0.2007825 0.200184
 0.1996622 0.1992044 0.1988146 0.19852 0.198354 0.1983106 0.1983249 0.1983167 0.1982436 0.1981147
 0.1979734 0.1978669 0.1978157 0.1978091 0.197819 0.1977919 0.1976344 0.1972378 0.1965161 0.1954118
 0.1938939 0.1919782 0.1897463 0.1873401 0.1849395 0.1827178 0.1807932 0.179222 0.1780167 0.1771362
 0.1764822 0.1759582 0.1755434 0.1752976 0.1753025 0.1755709 0.1759743 0.1762979 0.1764311 0.1764875
 0.1766993 0.1772185 0.1780314 0.1790037 0.1799712 0.1808176 0.1814956 0.1819972 0.1823378 0.1825594
 0.1826972 0.1827458 0.1826852 0.1825132 0.1822302 0.1818337 0.181337 0.1807535 0.1800719 0.1792808
 0.1783894 0.1774043 0.1763222 0.1751421 0.1738402 0.1723738 0.1707933 0.1693297 0.1683068 0.1679594
 0.168309 0.1691605 0.1702362 0.1713543 0.1724466 0.1734231 0.1741677 0.1747375 0.1754616 0.1767296
 0.1786583 0.1809637 0.1831598 0.18488 0.1860001 0.186522 0.1864787 0.1859389 0.1849592 0.1835305
 0.1816644 0.1794725 0.1770891 0.1746268 0.1722362 0.1700683 0.1681909 0.1666324 0.1654079 0.1645116
 0.1639948 0.1635568 0.1615536 0.1555845 0.1459114 0.1376424 0.1368593 0.1440547 0.1534247 0.1590927
 0.1600906 0.1589202 0.1576459 0.1567075 0.1560208 0.1556567 0.155674 0.1559684 0.1563118 0.1564598
 0.1563004 0.155839 0.1549426 0.1531108 0.1494745 0.1431057 0.1337058 0.1222467 0.1107598 0.10125
 0.09470935 0.09093016 0.08894583 0.08769335 0.08661563 0.08586056 0.08593056 0.08716187 0.08952769 0.09279638
 0.09670468 0.1009364 0.1050549 0.1086254 0.1114437 0.1135661 0.1151069 0.116106 0.1165881 0.1166282
 0.1163184 0.1157338 0.1149333 0.1139435 0.1127507 0.1113487 0.109813 0.1083287 0.1071247 0.1063315
 0.1058976 0.1056733 0.1055533 0.1055077 0.1055247 0.1055905 0.1056994 0.1058514 0.1060553 0.1063281
 0.106661 0.1069973 0.1072732 0.1074639 0.1075765 0.1076148 0.1075555 0.1073636 0.1070557 0.1067215
 0.1063998 0.1059453 0.1051317 0.1039341 0.1026568 0.1017472 0.1014833 0.1018018 0.1023831 0.1028989
 0.1032063 0.1033436 0.103391 0.1033526</values></Ydata></ScSm><ScRf><Ydata ylabel="Single channel"><values byteorder="INTEL" format="FLOAT32" numvalues="1820"> 0.06972945 0.0698606 0.06997833 0.07008162 0.07017456 0.07026736 0.07037193 0.07049301 0.07062542 0.0707583
 0.07088201 0.07099323 0.07109375 0.07118382 0.07126373 0.07134463 0.07144666 0.07157879 0.0717258 0.07185919
 0.07196015 0.07203573 0.07211538 0.07222325 0.07234704 0.07244098 0.07246755 0.07243678 0.07240062 0.07240696
 0.07246855 0.07258841 0.072789 0.07306088 0.07329348 0.0733472 0.07322747 0.07310846 0.07314035 0.07329898
 0.07345677 0.073523 0.07348029 0.07337448 0.07333237 0.07352058 0.07399529 0.07458078 0.0749236 0.07469571
 0.07381323 0.07255641 0.07150251 0.07122204 0.07186548 0.0729943 0.07391037 0.07421912 0.07404128 0.07371153
 0.07343179 0.07326926 0.07331003 0.07364212 0.07421142 0.07476525 0.07494934 0.07453874 0.07369288 0.07293047
 0.07270652 0.07305691 0.0737544 0.07458223 0.07513759 0.07463196 0.07259086 0.06991385 0.06859113 0.06986456
 0.07292813 0.07576776 0.07699361 0.07656794 0.07521875 0.0738005 0.07307539 0.07344893 0.07470089 0.07620631
 0.07743549 0.07809854 0.07801372 0.0771897 0.07599539 0.07500421 0.074678 0.07523675 0.0765674 0.0780843
 0.07896297 0.07879177 0.07788056 0.07685506 0.07619494 0.07620929 0.07705732 0.0785581 0.08021176 0.08157179
 0.0824757 0.08293893 0.08304304 0.08292429 0.08270989 0.08249719 0.08244249 0.08267957 0.08305379 0.08315855
 0.0827877 0.08221616 0.08192246 0.08209701 0.08248036 0.08267663 0.08254571 0.08212496 0.08122417 0.07952207
 0.07722424 0.07516014 0.07397119 0.07366227 0.0741324 0.07544819 0.07720573 0.07833552 0.0781789 0.07737366
 0.07716341 0.07805704 0.07951432 0.08074452 0.0814769 0.08200468 0.08272118 0.08366948 0.08442689 0.08440997
 0.08346465 0.08223966 0.08175831 0.08243135 0.08366102 0.08458374 0.08498241 0.08526204 0.08573402 0.08616364
 0.085972 0.08485328 0.08329923 0.08243105 0.08307418 0.08494022 0.08677572 0.08730979 0.08615798 0.08403078
 0.08213726 0.08131552 0.08170673 0.08310006 0.08522889 0.0876406 0.08962734 0.09058504 0.09042925 0.0895796
 0.08850256 0.08727515 0.08575031 0.0842376 0.08368313 0.0847837 0.08708976 0.08936318 0.09072036 0.0911222
 0.09086853 0.08999741 0.0883671 0.08627997 0.08475895 0.08478795 0.08619301 0.08769077 0.08825453 0.08807215
 0.08795742 0.08823451 0.08856128 0.0886156 0.08856905 0.08884101 0.08956636 0.09042905 0.09100175 0.09114251
 0.09102824 0.0909034 0.09084699 0.09072691 0.0904047 0.09004895 0.09011833 0.0908756 0.09203019 0.09302945
 0.09360193 0.0938604 0.09396348 0.09384917 0.09334293 0.09250203 0.09177693 0.09169039 0.09232964 0.09328231
 0.09407508 0.09452461 0.09468536 0.09466955 0.09457435 0.09446012 0.09436144 0.0943484 0.09451189 0.09483966
 0.0951867 0.09541813 0.09551737 0.09552944 0.09547093 0.09533682 0.09515943 0.09502321 0.09501103 0.095139
 0.09535521 0.09559284 0.09579656 0.09591323 0.09591268 0.09582672 0.09572764 0.09566249 0.09563652 0.09565155
 0.0957206 0.09583908 0.09596992 0.09607148 0.0961297 0.09615429 0.09615381 0.09612898 0.09608814 0.09605573
 0.09606151 0.09612083 0.09621848 0.09631822 0.09640417 0.09650148 0.09662998 0.09675263 0.0968078 0.0967869
 0.09674591 0.09674376 0.09679476 0.09687563 0.09695295 0.09699765 0.09698939 0.09692927 0.09685735 0.09684181
 0.09692945 0.09711199 0.09734775 0.09759547 0.09781733 0.09798241 0.09809095 0.09817498 0.09826006 0.09834203
 0.09840762 0.09846295 0.09853794 0.09866575 0.09885148 0.09906054 0.09924608 0.09938434 0.09948132 0.09956438
 0.09967154 0.09981945 0.09997169 0.1000694 0.100106 0.1001415 0.1002302 0.1003582 0.1004679 0.1005274
 0.1005599 0.1006116 0.1007017 0.10081 0.1009088 0.1009959 0.1010955 0.101224 0.1013586 0.101446
 0.1014536 0.1014083 0.1013687 0.1013645 0.1013845 0.1014164 0.1014696 0.1015483 0.1016273 0.1016718
 0.1016747 0.101664 0.1016705 0.1016944 0.1017069 0.1016842 0.1016304 0.1015702 0.1015248 0.1014986
 0.1014813 0.1014589 0.1014215 0.1013673 0.1013012 0.1012304 0.1011588 0.1010896 0.1010377 0.1010275
 0.1010602 0.1010858 0.101033 0.1008779 0.100671 0.1004884 0.1003657 0.1002815 0.1001901 0.1000633
 0.09990562 0.09974244 0.09959578 0.09947017 0.09935756 0.09925151 0.09915685 0.09908748 0.09905063 0.09902883
 0.09898395 0.09888966 0.09875809 0.09862642 0.09852171 0.09844646 0.09839065 0.09834544 0.09830897 0.09828763
 0.09828657 0.09829512 0.09829178 0.09826972 0.09824735 0.09825021 0.09829338 0.09837943 0.09849407 0.09860162
 0.09866666 0.0986904 0.09871216 0.0987682 0.09886134 0.09897377 0.09909382 0.09922098 0.09935672 0.09950292
 0.09966522 0.0998497 0.1000563 0.1002778 0.1005036 0.1007246 0.1009398 0.1011593 0.1013967 0.1016573
 0.1019345 0.1022158 0.102492 0.1027614 0.1030295 0.1033022 0.1035808 0.1038644 0.1041567 0.1044635
 0.1047841 0.1051105 0.1054349 0.1057548 0.1060727 0.1063913 0.1067109 0.1070329 0.1073669 0.1077258
 0.1081055 0.108474 0.1087969 0.1090745 0.1093434 0.1096415 0.1099775 0.1103298 0.1106651 0.110962
 0.1112287 0.1114965 0.1117895 0.1121018 0.112414 0.1127255 0.1130599 0.1134301 0.1138096 0.1141463
 0.1144092 0.114619 0.114828 0.1150673 0.1153216 0.1155578 0.1157692 0.1159787 0.1162044 0.1164416
 0.1166829 0.1169371 0.1172124 0.1174925 0.1177483 0.1179687 0.1181681 0.1183625 0.1185494 0.1187104
 0.1188315 0.1189209 0.1190095 0.1191264 0.119273 0.1194271 0.1195737 0.1197203 0.1198813 0.1200615
 0.120262 0.1204893 0.1207436 0.121006 0.1212549 0.1214977 0.1217658 0.1220674 0.1223641 0.1226108
 0.1228068 0.1229893 0.1231851 0.1233941 0.1236149 0.1238604 0.1241407 0.1244456 0.1247512 0.1250405
 0.1253181 0.1256059 0.125917 0.1262322 0.1265108 0.126731 0.1269132 0.1270993 0.1273182 0.1275722
 0.1278455 0.1281203 0.128386 0.1286351 0.1288524 0.1290176 0.1291257 0.1291962 0.1292497 0.1292771
 0.1292425 0.129115 0.1288858 0.1285537 0.1281083 0.1275402 0.1268692 0.1261587 0.1255023 0.1249938
 0.1247016 0.1246604 0.124872 0.1253048 0.1258901 0.1265317 0.1271293 0.1275978 0.1278693 0.1278954
 0.1276604 0.1271922 0.1265506 0.1257999 0.1249919 0.1241639 0.123345 0.1225769 0.1219395 0.1215547
 0.1215522 0.1220216 0.1229839 0.1243763 0.1260481 0.1277899 0.1294103 0.1308096 0.1319919 0.1330121
 0.1339213 0.1347517 0.1355276 0.1362668 0.136974 0.1376436 0.1382721 0.1388622 0.1394125 0.1399104
 0.1403366 0.1406752 0.1409211 0.1410837 0.1411835 0.1412391 0.1412624 0.1412642 0.1412526 0.1412154
 0.1411105 0.1408866 0.1405177 0.1400227 0.139469 0.1389754 0.1387075 0.1388404 0.1394854 0.1406217
 0.1420909 0.1436698 0.1451641 0.1464576 0.1475082 0.1483284 0.1489679 0.1494898 0.1499443 0.1503598
 0.1507505 0.1511244 0.1514854 0.1518356 0.1521772 0.1525147 0.1528541 0.1532008 0.1535532 0.1539015
 0.1542367 0.15456 0.1548844 0.1552236 0.1555798 0.1559409 0.1562936 0.1566374 0.1569801 0.1573232
 0.1576577 0.1579773 0.1582879 0.1586034 0.158934 0.1592798 0.1596293 0.1599665 0.1602818 0.1605789
 0.1608684 0.1611576 0.1614467 0.1617318 0.1620097 0.162281 0.1625499 0.1628223 0.1631018 0.1633873
 0.163671 0.1639427 0.1641989 0.1644482 0.1647021 0.1649624 0.1652211 0.1654731 0.1657231 0.1659808
 0.1662496 0.1665235 0.1667925 0.1670496 0.1672946 0.1675326 0.1677711 0.1680164 0.1682703 0.1685288
 0.168786 0.1690395 0.1692928 0.1695502 0.1698115 0.1700712 0.170324 0.1705701 0.1708143 0.1710599
 0.1713059 0.1715499 0.1717931 0.1720394 0.1722929 0.1725516 0.1728072 0.1730505 0.1732807 0.1735059
 0.1737353 0.1739712 0.1742113 0.1744528 0.1746949 0.1749371 0.175179 0.1754207 0.1756626 0.1759038
 0.1761421 0.1763769 0.1766118 0.1768504 0.1770935 0.1773388 0.1775843 0.1778278 0.178068 0.178305
 0.1785406 0.1787765 0.1790149 0.1792569 0.1794995 0.1797372 0.1799687 0.1801993 0.1804334 0.1806706
 0.1809079 0.181144 0.1813795 0.181616 0.1818544 0.1820931 0.1823291 0.1825607 0.1827887 0.1830164
 0.1832474 0.1834828 0.1837205 0.1839596 0.1841995 0.1844377 0.1846714 0.1849037 0.1851401 0.1853817
 0.1856251 0.1858677 0.1861086 0.1863465 0.1865816 0.1868166 0.1870544 0.1872958 0.1875405 0.187786
 0.1880299 0.1882722 0.188515 0.1887585 0.1890027 0.1892477 0.1894937 0.1897418 0.1899942 0.190249
 0.1905009 0.1907502 0.1910037 0.1912644 0.1915267 0.1917855 0.1920412 0.1922947 0.1925437 0.1927845
 0.1930151 0.1932388 0.1934634 0.1936922 0.1939203 0.1941433 0.1943637 0.1945865 0.1948136 0.1950461
 0.1952837 0.1955258 0.195774 0.1960299 0.1962879 0.1965413 0.1967903 0.1970385 0.1972863 0.1975342
 0.1977846 0.1980376 0.1982923 0.1985524 0.1988201 0.1990896 0.199354 0.1996135 0.1998717 0.200133
 0.2004021 0.2006781 0.200954 0.2012252 0.2014915 0.201752 0.2020082 0.2022671 0.2025318 0.2027979
 0.2030644 0.2033354 0.2036103 0.2038864 0.204165 0.2044454 0.2047205 0.2049888 0.2052565 0.2055255
 0.205796 0.2060729 0.2063566 0.2066379 0.2069128 0.2071854 0.2074557 0.2077217 0.2079866 0.2082523
 0.2085149 0.2087747 0.2090334 0.2092812 0.209498 0.2096359 0.2095537 0.2089467 0.2073144 0.203981
 0.1982316 0.1895988 0.1781537 0.1645837 0.1499963 0.135567 0.1222224 0.110527 0.1007707 0.09309369
 0.0875705 0.08428999 0.08342315 0.08530895 0.09056617 0.09972932 0.1119074 0.1236173 0.1300841 0.1288635
 0.122065 0.1144376 0.109494 0.1077836 0.1081034 0.1092768 0.1108435 0.11292 0.1157937 0.1195054
 0.1238084 0.1285797 0.1340595 0.1404905 0.1476482 0.1549219 0.161828 0.1683277 0.1746453 0.1808831
 0.1868693 0.1923249 0.1970804 0.2011312 0.2045798 0.2075691 0.2102289 0.2126472 0.2148806 0.2169574
 0.2188393 0.2204043 0.221515 0.222126 0.2223392 0.2223568 0.2223679 0.222464 0.2226548 0.2229313
 0.2232896 0.2237189 0.2242031 0.22473 0.2252871 0.2258585 0.2264314 0.2269945 0.2275339 0.2280425
 0.2285236 0.2289816 0.2294192 0.2298412 0.23025 0.2306419 0.2310174 0.2313856 0.2317509 0.2321108
 0.2324644 0.2328109 0.2331428 0.2334527 0.2337425 0.2340178 0.2342826 0.2345416 0.2348 0.2350591
 0.2353187 0.2355785 0.2358356 0.2360861 0.236331 0.2365738 0.2368144 0.2370531 0.2372913 0.2375284
 0.2377623 0.2379943 0.2382276 0.2384634 0.2387025 0.238945 0.2391878 0.2394273 0.2396661 0.23991
 0.2401616 0.240422 0.2406899 0.2409601 0.2412269 0.2414909 0.2417551 0.2420203 0.2422879 0.2425618
 0.2428428 0.2431269 0.2434097 0.2436882 0.2439558 0.2442047 0.2444324 0.2446472 0.2448652 0.2450991
 0.2453472 0.245597 0.2458417 0.2460843 0.2463271 0.2465673 0.2468049 0.2470447 0.2472911 0.2475478
 0.2478189 0.2481035 0.2483938 0.2486832 0.2489717 0.2492612 0.2495521 0.2498444 0.250137 0.2504254
 0.2507045 0.2509775 0.2512581 0.2515635 0.2518974 0.2522413 0.2525703 0.2528767 0.2531735 0.2534796
 0.2538056 0.2541424 0.2544585 0.2547244 0.2549538 0.2552044 0.2555239 0.2559051 0.256301 0.2566729
 0.2570146 0.2573392 0.2576561 0.2579623 0.2582489 0.2585117 0.2587611 0.2590264 0.2593392 0.2597004
 0.260074 0.260424 0.2607444 0.2610469 0.2613419 0.2616368 0.2619227 0.2621578 0.2623069 0.2624151
 0.2626022 0.2629521 0.2634239 0.2638985 0.2642983 0.2646355 0.2649534 0.2652662 0.2655652 0.2658271
 0.2659856 0.2659684 0.265834 0.2658142 0.2661229 0.2667375 0.2674354 0.2680199 0.2684483 0.2687767
 0.2690656 0.2693436 0.2695939 0.269753 0.269775 0.2697345 0.2698207 0.2701646 0.2706904 0.2711994
 0.2715831 0.2718834 0.272176 0.272482 0.2727615 0.2729009 0.2727602 0.2723671 0.2720511 0.272231
 0.273011 0.274059 0.2749347 0.275479 0.2758198 0.2760704 0.2761634 0.275983 0.2755108 0.2748334
 0.2741874 0.2739989 0.2746032 0.2758155 0.2770075 0.2777376 0.2781298 0.2785552 0.2791486 0.2797525
 0.2801747 0.2803606 0.2803581 0.2802051 0.2799152 0.27961 0.2795877 0.2801079 0.2810898 0.282142
 0.2829286 0.28343 0.2837809 0.2838772 0.2832787 0.2817316 0.2798464 0.2789391 0.2798615 0.2821051
 0.2843522 0.2857769 0.2864929 0.2869341 0.2872909 0.2874601 0.2870314 0.2854155 0.282645 0.2800827
 0.2795996 0.2817301 0.2850718 0.2876454 0.2884084 0.2874724 0.2856026 0.2838622 0.2832331 0.28408
 0.2859991 0.2882301 0.2901143 0.2912697 0.2916105 0.2913121 0.2907432 0.2903693 0.2904552 0.2906696
 0.2902944 0.2891572 0.2879595 0.2871909 0.2862242 0.2843427 0.2823518 0.282077 0.2841105 0.286956
 0.2887625 0.2892175 0.2892073 0.2890263 0.2876517 0.2840911 0.2792272 0.2757835 0.2759892 0.2793503
 0.2831377 0.2850676 0.2851047 0.2846746 0.2846682 0.2845065 0.2830055 0.2800512 0.2772515 0.2764944
 0.2778247 0.2793689 0.2794067 0.2775769 0.2739714 0.268706 0.2633516 0.2612213 0.2644421 0.271301
 0.277761 0.2809474 0.2800387 0.2750506 0.2671371 0.2598544 0.2575609 0.2613891 0.2679193 0.2724935
 0.2728866 0.2693887 0.2629033 0.2545596 0.2467028 0.2426023 0.2443733 0.2512813 0.2598643 0.2654145
 0.2643906 0.2572717 0.2492635 0.2463625 0.2497114 0.2548581 0.2569966 0.2554855 0.2528172 0.2512214
 0.2514448 0.2531955 0.2554709 0.257343 0.2586715 0.2587672 0.2550607 0.245939 0.2349739 0.2290372
 0.2312199 0.2383314 0.2460926 0.2534456 0.260212 0.2640116 0.2627898 0.258898 0.2576044 0.2614689
 0.267902 0.2724734 0.2734088 0.2723121 0.2712334 0.2702184 0.2683395 0.2663484 0.2666931 0.2704802
 0.2757446 0.2795796 0.2810464 0.2811682 0.280985 0.2806785 0.2801109 0.2792572 0.2781619 0.2769537
 0.2758375 0.2748704 0.2739196 0.2729269 0.2718377 0.2700124 0.2662768 0.2604486 0.254647 0.2518364
 0.2527152 0.2552687 0.2576524 0.259531 0.2596919 0.2550515 0.2446913 0.2334737 0.2286981 0.2330462
 0.2424442 0.250626 0.254087 0.2525257 0.2467182 0.2381501 0.2304865 0.2289512 0.2363144 0.2499764
 0.2642747 0.2752596 0.2822185 0.2855024 0.2849911 0.2811783 0.2764346 0.2740871 0.2761282 0.2818974
 0.2885925 0.2925874 0.291003 0.2840624 0.2766762 0.2754954 0.2823287 0.2917475 0.2970749 0.2973873
 0.2965802 0.2971875 0.2981945 0.2984282 0.2989804 0.3013369 0.3049217 0.3075718 0.3074809 0.3039591
 0.2974263 0.289955 0.2849561 0.284481 0.28696 0.2890124 0.288927 0.2866974 0.2818918 0.2745869
 0.2680497 0.2669857 0.2721905 0.2793465 0.2839455 0.2854857 0.2860805 0.2866496 0.2858366 0.2822851
 0.2770536 0.2731602 0.2726283 0.2745794 0.2766817 0.2776766 0.2775745 0.2761926 0.2731693 0.2695322
 0.2678304 0.2698609 0.2747386 0.2797561 0.2828691 0.2839369 0.2839274 0.2836756 0.2834459 0.2830885
 0.2824409 0.2818885 0.2823943 0.2844689 0.2872653 0.2893453 0.290341 0.2912641 0.2930989 0.2956104
 0.297715 0.2986813 0.298772 0.2988936 0.2997674 0.3013324 0.302807 0.3033831 0.3030255 0.3026137
 0.303155 0.3048246 0.3068996 0.3085842 0.3096744 0.310444 0.3111922 0.3119909 0.3126531 0.3128908
 0.3126968 0.3125768 0.3131712 0.3145848 0.3162579 0.3175333 0.3181968 0.3184368 0.318462 0.318303
 0.3179257 0.3174037 0.3169199 0.3166248 0.3165296 0.3165407 0.3165612 0.3165472 0.3165048 0.3164735
 0.3165026 0.3166126 0.3167824 0.3169829 0.3171991 0.3174117 0.3175893 0.3177221 0.3178341 0.3179357
 0.3179843 0.3179094 0.3176564 0.3171898 0.3164747 0.315477 0.3141717 0.3125294 0.3105196 0.3082049
 0.3059028 0.3042241 0.3038197 0.3049643 0.3073363 0.3102022 0.3128357 0.3148286 0.3161254 0.3168716
 0.3172532 0.317413 0.3174326 0.3173435 0.3171559 0.3168851 0.316556 0.3161932 0.3158194 0.3154599
 0.3151355 0.314849 0.3145834 0.3143093 0.3139926 0.313606 0.3131398 0.3126007 0.3119973 0.3113282
 0.3105791 0.3097315 0.3087842 0.3077725 0.3067581 0.3057932 0.3048902 0.3040221 0.3031467 0.3022228
 0.3011947 0.2999916 0.298597 0.2971352 0.2958333 0.2948397 0.2940928 0.2933909 0.2925662 0.2915686
 0.2904252 0.2891825 0.2878848 0.2865626 0.2852203 0.2838407 0.2823992 0.2808733 0.2792485 0.2775257
 0.2757188 0.2738471 0.2719322 0.269989 0.2680011 0.2658929 0.2635321 0.2607638 0.2574513 0.2535044
 0.2488996 0.2436991 0.2380583 0.2322001 0.226362 0.2207492 0.2155212 0.2108049 0.2067092 0.2033289
 0.2007381 0.1989833 0.1980836 0.1980387 0.1988321 0.2004253 0.2027463 0.2056803 0.209069 0.2127229
 0.2164403 0.2200341 0.2233731 0.2264223 0.229233 0.2318701 0.2343423 0.2366066 0.2386239 0.2403892
 0.2419123 0.243196 0.2442445 0.2450823 0.2457574 0.2463237 0.246821 0.2472624 0.2476383 0.2479345
 0.2481521 0.2483135 0.2484528 0.2486033 0.2487871 0.2490103 0.2492722 0.2495798 0.2499506 0.2503989
 0.2509276 0.2515293 0.2521921 0.2529029 0.2536579 0.2544692 0.2553622 0.2563684 0.2575199 0.2588407
 0.260332 0.2619596 0.2636498 0.2653002 0.2668007 0.268061 0.2690284 0.2696909 0.2700675 0.2701932
 0.2701063 0.2698452 0.2694434 0.2689232 0.268297 0.26758 0.2667951 0.2659607 0.2650777 0.2641362
 0.2631372 0.2621059 0.2610797 0.2600827 0.2591177 0.2581819 0.2572754 0.2563947 0.255531 0.2546813
 0.2538534 0.2530593 0.2523093 0.2516057 0.2509357 0.2502721 0.249581 0.2488232 0.2479554 0.2469417
 0.2457641 0.2444222 0.2429293 0.2413092 0.2395829 0.2377575 0.2358325 0.2338118 0.2317075 0.2295321
 0.2272851 0.2249512 0.2225326 0.2200896 0.2177262 0.2155251 0.2135058 0.2116427 0.2099013 0.2082584
 0.2067048 0.205233 0.2038262 0.2024687 0.2011613 0.1999148 0.1987335 0.1976177 0.1965729 0.1956121
 0.194754 0.1940151 0.1933936 0.1928692 0.1924222 0.1920445 0.1917416 0.1915435 0.1914905 0.1915785
 0.1917288 0.191836 0.1918429 0.1917659 0.1916661 0.1915996 0.1915838 0.1916027 0.1916298 0.1916219
 0.1915002 0.1911632 0.1905193 0.1895032 0.1880867 0.1862966 0.1842153 0.1819689 0.1797184 0.1776322
 0.1758332 0.1743768 0.1732649 0.1724502 0.1718437 0.1713673 0.1710118 0.1708345 0.1709051 0.1712255
 0.1716673 0.1720263 0.172203 0.1723141 0.1725908 0.1731859 0.1740875 0.175157 0.1762205 0.1771542
 0.1779108 0.1784867 0.1788981 0.179179 0.1793569 0.1794304 0.1793895 0.1792361 0.1789697 0.1785933
 0.178131 0.1776004 0.1769859 0.1762705 0.1754606 0.1745582 0.1735558 0.1724553 0.1712409 0.1698759
 0.1684048 0.167038 0.166074 0.1657382 0.166069 0.1669041 0.1679907 0.1691494 0.1702945 0.17132
 0.1721151 0.1727603 0.1735952 0.1749869 0.1770155 0.1793839 0.1816254 0.1833994 0.1845892 0.1851898
 0.1852303 0.1847812 0.1838929 0.1825382 0.1807159 0.1785457 0.1761848 0.1737619 0.1714275 0.1693255
 0.1675196 0.1660355 0.1648818 0.1640453 0.1635791 0.1631956 0.161265 0.1553913 0.145826 0.1376525
 0.1369276 0.1441413 0.1535143 0.1591944 0.1602144 0.1590619 0.1577969 0.1568645 0.1561801 0.1558082
 0.155808 0.1560841 0.1564154 0.1565577 0.1564002 0.1559541 0.1550885 0.1532909 0.1496696 0.1432824
 0.1338365 0.1223199 0.1107759 0.1012184 0.09465025 0.09086719 0.08888751 0.08762992 0.08654109 0.08579139
 0.0858953 0.08717808 0.08959735 0.09291799 0.0968779 0.1011534 0.105297 0.1088742 0.1116935 0.113822
 0.115377 0.116397 0.1169041 0.1169664 0.1166707 0.1161014 0.1153378 0.1144089 0.1132688 0.1118736
 0.1103006 0.1087792 0.1075799 0.1068353 0.1064636 0.1062867 0.1061939 0.106169 0.1062144 0.1063159
 0.1064573 0.1066345 0.1068644 0.1071728 0.1075459 0.1079132 0.1082016 0.1083882 0.1084871 0.1085044
 0.1084111 0.1081643 0.1077825 0.1073689 0.1069755 0.1064626 0.1056102 0.1044031 0.1031423 0.1022471
 0.1019661 0.1022388 0.1027738 0.103257 0.1035305 0.1036171 0.1036073 0.1035265 0.1033 0.1028451
</values></Ydata></ScRf><Data_Parameters_AB><parameter name="DPF">1</parameter><parameter name="NPT">3497</parameter><parameter name="FXV">3996</parameter><parameter name="LXV">500</parameter><parameter name="CSF">1</parameter><parameter name="MXY">0.00374269299209118</parameter><parameter name="MNY">-0.112275451421738</parameter><parameter name="DAT">13/02/2024</parameter><parameter name="TIM">13:26:49.977 (GMT+1)</parameter><parameter name="DXU">WN</parameter></Data_Parameters_AB><AB__Qtest><MainReport name="Quality Test Report"><Header><Line><Legend>Test result ok/not ok [1/0]: </Legend><Value>0</Value></Line><Line><Legend>Method file: </Legend><Value>C:\Users\Public\Documents\Bruker\OPUS_8.2.28\QT\IRBT_v3_default.QT</Value></Line></Header><Matrix><Line><Legend></Legend><Legend>min</Legend><Legend>max</Legend><Legend>measured</Legend></Line><Line><Value>Absorption (X-Range 1):</Value><Value>0.400000</Value><Value>2.000000</Value><Value>0.075737</Value></Line><Line><Value>Noise (X-Range 4):</Value><Value></Value><Value>0.000300</Value><Value>0.000053</Value></Line><Line><Value>Signal/Noise (X-Range 2):</Value><Value>200.000000</Value><Value></Value><Value>27.147590</Value></Line><Line><Value>Signal/Noise (X-Range 3):</Value><Value>40.000000</Value><Value></Value><Value>9.551968</Value></Line><Line><Value>Water vapour (X-Range 5):</Value><Value></Value><Value>0.000300</Value><Value>0.000005</Value></Line><Line><Value>Signal/Water (X-Range 2):</Value><Value>100.000000</Value><Value></Value><Value>318.960069</Value></Line><Line><Value>Signal/Water (X-Range 3):</Value><Value>20.000000</Value><Value></Value><Value>112.227145</Value></Line><Line><Value>Fringes (X-Range 6):</Value><Value></Value><Value>0.000100</Value><Value>0.000030</Value></Line></Matrix></MainReport></AB__Qtest><Data_Parameters_ScSm><parameter name="DPF">1</parameter><parameter name="NPT">1814</parameter><parameter name="FXV">3996.63438082617</parameter><parameter name="LXV">499.579297603271</parameter><parameter name="CSF">1</parameter><parameter name="MXY">0.343362927436829</parameter><parameter name="MNY">0.0858605578541756</parameter><parameter name="DAT">13/02/2024</parameter><parameter name="TIM">13:26:49.977 (GMT+1)</parameter><parameter name="DXU">WN</parameter></Data_Parameters_ScSm><Data_Parameters_ScRf><parameter name="DPF">1</parameter><parameter name="NPT">1820</parameter><parameter name="FXV">4004.34989121387</parameter><parameter name="LXV">495.721542409425</parameter><parameter name="CSF">1</parameter><parameter name="MXY">0.318462014198303</parameter><parameter name="MNY">0.0685911327600479</parameter><parameter name="DAT">13/02/2024</parameter><parameter name="TIM">13:26:22.892 (GMT+1)</parameter><parameter name="DXU">WN</parameter></Data_Parameters_ScRf><Optic_Parameters_Rf><parameter name="APR">0</parameter><parameter name="APT">Open</parameter><parameter name="BMS">KBr</parameter><parameter name="DTC">RT-DLaTGS_IR-Biotyper [Microplate reader]</parameter><parameter name="HPF">0</parameter><parameter name="LPF">10.0</parameter><parameter name="LPV">4000</parameter><parameter name="PGR">0</parameter><parameter name="RCH">Module port</parameter><parameter name="RDX">0</parameter><parameter name="SRC">MIR</parameter><parameter name="VEL">10.0</parameter><parameter name="SON">Off</parameter></Optic_Parameters_Rf><Acquisition_Parameters_Rf><parameter name="ADT">1</parameter><parameter name="AQM">DD</parameter><parameter name="CFE">0</parameter><parameter name="COR">0</parameter><parameter name="DEL">0</parameter><parameter name="DLY">0</parameter><parameter name="HFW">8000</parameter><parameter name="LFW">0</parameter><parameter name="NSR">32</parameter><parameter name="PLF">AB</parameter><parameter name="RES">6</parameter><parameter name="RGN">-1</parameter><parameter name="STR">0</parameter><parameter name="TCL">MakeCompatibleScalar (0, {WSV=1.000000, ARV=0});</parameter><parameter name="TDL">37</parameter><parameter name="RPO">0</parameter></Acquisition_Parameters_Rf><FT_-_Parameters_Rf><parameter name="APF">B3</parameter><parameter name="HFQ">500</parameter><parameter name="LFQ">4000</parameter><parameter name="NLI">0</parameter><parameter name="PHR">24</parameter><parameter name="PHZ">ML</parameter><parameter name="SPZ">NO</parameter><parameter name="ZFF">1</parameter></FT_-_Parameters_Rf><Optic_Parameters_><parameter name="APR">0</parameter><parameter name="APT">Open</parameter><parameter name="BMS">KBr</parameter><parameter name="CHN">Module port</parameter><parameter name="DTC">RT-DLaTGS_IR-Biotyper [Microplate reader]</parameter><parameter name="HPF">0</parameter><parameter name="LPF">10.0</parameter><parameter name="LPV">4000</parameter><parameter name="PGN">0</parameter><parameter name="RDX">0</parameter><parameter name="SRC">MIR</parameter><parameter name="VEL">10.0</parameter><parameter name="SON">Off</parameter></Optic_Parameters_><FT_-_Parameters_><parameter name="APF">B3</parameter><parameter name="HFQ">500</parameter><parameter name="LFQ">4000</parameter><parameter name="NLI">0</parameter><parameter name="PHR">24</parameter><parameter name="PHZ">ML</parameter><parameter name="SPZ">NO</parameter><parameter name="ZFF">1</parameter></FT_-_Parameters_><Acquisition_Parameters_><parameter name="ADT">1</parameter><parameter name="AQM">DD</parameter><parameter name="CFE">0</parameter><parameter name="COR">0</parameter><parameter name="DEL">0</parameter><parameter name="DLY">0</parameter><parameter name="HFW">8000</parameter><parameter name="LFW">0</parameter><parameter name="NSS">32</parameter><parameter name="PLF">AB</parameter><parameter name="RES">6</parameter><parameter name="SOT">0</parameter><parameter name="TCL">MakeCompatibleScalar (0, {WSV=1.000000, ARV=0});</parameter><parameter name="TDL">37</parameter><parameter name="SPO">0</parameter><parameter name="SGN">-1</parameter></Acquisition_Parameters_><Instrument_Parameters_Rf><parameter name="HFL">15801.365274</parameter><parameter name="LFL">0</parameter><parameter name="LWN">15801.365274</parameter><parameter name="ABP">32157</parameter><parameter name="SSP">1</parameter><parameter name="ARG">2</parameter><parameter name="ASG">2</parameter><parameter name="ASS">32</parameter><parameter name="GFW">16</parameter><parameter name="GBW">16</parameter><parameter name="BFW">0</parameter><parameter name="BBW">0</parameter><parameter name="PKA">9173</parameter><parameter name="PKL">5009</parameter><parameter name="PRA">9169</parameter><parameter name="PRL">4988</parameter><parameter name="P2A">1</parameter><parameter name="P2L">1</parameter><parameter name="P2R">1</parameter><parameter name="P2K">1</parameter><parameter name="DAQ">0</parameter><parameter name="AG2">1</parameter><parameter name="SSM">1</parameter><parameter name="RSN">48143</parameter><parameter name="CRR">0</parameter><parameter name="SRT">1707830782.893</parameter><parameter name="DUR">19.6379852294922</parameter><parameter name="TSC">30</parameter><parameter name="MVD">0.372288793325424</parameter><parameter name="AN1">0.225936078852699</parameter><parameter name="AN2">0</parameter><parameter name="VSN">2.485 Apr  4 2017</parameter><parameter name="SRN">0085</parameter><parameter name="CAM">0</parameter><parameter name="INS">IR-Biotyper</parameter><parameter name="FOC">69</parameter><parameter name="RDY">1</parameter><parameter name="ARS">32</parameter></Instrument_Parameters_Rf><Sample_Parameters_><parameter name="BLD"></parameter><parameter name="CNM">Admin</parameter><parameter name="CPY"></parameter><parameter name="DPM"></parameter><parameter name="EXP">IRBT_v3_32Scans.XPM</parameter><parameter name="LCT"></parameter><parameter name="SFM">Microplate, HTS-XT</parameter><parameter name="SNM">240213-1206-Cdiff_SCFA_3_GDA_C37_242151007_B6_248ff412-23f4-455a-bbf9-67548a4a6cd7.0</parameter><parameter name="XPP">C:\Users\Public\Documents\Bruker\OPUS_8.2.28\XPM</parameter><parameter name="IST">OK</parameter><parameter name="CPG">1252</parameter><parameter name="UID">fca71ed2-3a77-4baa-b7ae-e8e6d6e09e3d</parameter></Sample_Parameters_><Instrument_Parameters_><parameter name="HFL">15801.365274</parameter><parameter name="LFL">0</parameter><parameter name="LWN">15801.365274</parameter><parameter name="ABP">32157</parameter><parameter name="SSP">1</parameter><parameter name="ASG">2</parameter><parameter name="ARG">2</parameter><parameter name="ASS">32</parameter><parameter name="GFW">16</parameter><parameter name="GBW">16</parameter><parameter name="BFW">0</parameter><parameter name="BBW">0</parameter><parameter name="PKA">10445</parameter><parameter name="PKL">5009</parameter><parameter name="PRA">10570</parameter><parameter name="PRL">4988</parameter><parameter name="P2A">1</parameter><parameter name="P2L">1</parameter><parameter name="P2R">1</parameter><parameter name="P2K">1</parameter><parameter name="DAQ">0</parameter><parameter name="AG2">1</parameter><parameter name="SSM">1</parameter><parameter name="RSN">24769</parameter><parameter name="CRR">0</parameter><parameter name="SRT">1707830809.978</parameter><parameter name="DUR">19.6389923095703</parameter><parameter name="TSC">30</parameter><parameter name="MVD">1.53611016273499</parameter><parameter name="AN1">0.225943790340577</parameter><parameter name="AN2">0</parameter><parameter name="VSN">2.485 Apr  4 2017</parameter><parameter name="SRN">0085</parameter><parameter name="CAM">0</parameter><parameter name="INS">IR-Biotyper</parameter><parameter name="FOC">69</parameter><parameter name="RDY">1</parameter></Instrument_Parameters_><History/></OPUSDataFile>
