<?xml version="1.0" encoding="UTF-8" ?>
<OPUSDataFile><AB><Ydata ylabel="Absorbance Units"><values byteorder="INTEL" format="FLOAT32" numvalues="3497"> -0.1052318 -0.1052059 -0.1051813 -0.105159 -0.1051434 -0.105133 -0.1051273 -0.1051234 -0.1051168 -0.1051063
 -0.1050885 -0.1050653 -0.1050368 -0.1050059 -0.1049743 -0.1049438 -0.1049155 -0.1048908 -0.1048699 -0.1048547
 -0.1048458 -0.1048429 -0.1048462 -0.1048504 -0.1048551 -0.104853 -0.1048444 -0.1048275 -0.1048038 -0.1047797
 -0.1047566 -0.104743 -0.1047377 -0.1047431 -0.1047551 -0.1047689 -0.1047801 -0.1047822 -0.1047746 -0.1047544
 -0.1047249 -0.1046865 -0.1046441 -0.1045991 -0.1045565 -0.1045175 -0.1044866 -0.1044651 -0.1044534 -0.1044521
 -0.1044545 -0.1044603 -0.1044599 -0.1044534 -0.1044365 -0.1044104 -0.1043789 -0.1043434 -0.1043102 -0.1042797
 -0.1042561 -0.1042389 -0.1042294 -0.1042259 -0.1042274 -0.1042318 -0.1042372 -0.1042421 -0.1042454 -0.1042463
 -0.1042445 -0.1042392 -0.1042303 -0.1042157 -0.1041953 -0.1041683 -0.1041345 -0.1040961 -0.1040531 -0.1040103
 -0.1039681 -0.1039315 -0.1039007 -0.1038794 -0.1038672 -0.1038651 -0.1038719 -0.103886 -0.1039052 -0.1039256
 -0.1039443 -0.1039564 -0.1039599 -0.1039508 -0.1039312 -0.1039001 -0.1038633 -0.1038225 -0.1037826 -0.1037453
 -0.1037126 -0.1036849 -0.1036629 -0.1036469 -0.1036375 -0.1036348 -0.1036382 -0.1036473 -0.1036571 -0.1036668
 -0.1036691 -0.103664 -0.1036478 -0.1036224 -0.1035904 -0.1035543 -0.1035192 -0.103486 -0.1034577 -0.1034336
 -0.1034142 -0.1033984 -0.1033859 -0.1033749 -0.1033648 -0.1033536 -0.1033405 -0.1033255 -0.1033083 -0.1032914
 -0.1032752 -0.1032588 -0.1032422 -0.1032212 -0.1031961 -0.1031672 -0.103136 -0.103111 -0.1030929 -0.1030902
 -0.1030985 -0.1031139 -0.1031282 -0.1031252 -0.1031037 -0.1030535 -0.1029846 -0.1029 -0.1028131 -0.1027314
 -0.102666 -0.1026233 -0.1026061 -0.1026181 -0.1026497 -0.1027011 -0.1027546 -0.1028086 -0.1028472 -0.1028694
 -0.102869 -0.1028464 -0.1028059 -0.1027491 -0.1026866 -0.1026202 -0.1025621 -0.1025123 -0.102478 -0.102456
 -0.1024454 -0.1024414 -0.1024377 -0.1024316 -0.1024178 -0.1023979 -0.1023706 -0.1023395 -0.1023056 -0.1022716
 -0.1022382 -0.1022078 -0.1021806 -0.1021593 -0.1021444 -0.102134 -0.1021282 -0.1021182 -0.1021035 -0.1020761
 -0.1020372 -0.1019899 -0.1019366 -0.101888 -0.1018437 -0.1018085 -0.1017792 -0.1017517 -0.1017248 -0.1016949
 -0.1016634 -0.1016306 -0.1015967 -0.1015626 -0.1015269 -0.101489 -0.1014493 -0.1014073 -0.1013653 -0.1013234
 -0.1012837 -0.1012462 -0.1012134 -0.1011853 -0.1011647 -0.1011514 -0.1011449 -0.1011446 -0.1011456 -0.1011477
 -0.1011464 -0.1011426 -0.1011359 -0.101127 -0.1011172 -0.1011062 -0.1010939 -0.101079 -0.1010604 -0.1010369
 -0.1010075 -0.1009723 -0.1009307 -0.1008842 -0.1008324 -0.1007805 -0.1007284 -0.1006845 -0.1006495 -0.10063
 -0.1006265 -0.1006361 -0.1006581 -0.1006791 -0.1006982 -0.1007024 -0.1006931 -0.1006687 -0.100631 -0.1005843
 -0.1005284 -0.100464 -0.1003931 -0.1003164 -0.1002414 -0.1001744 -0.1001223 -0.1000929 -0.1000832 -0.1000965
 -0.1001179 -0.1001449 -0.1001626 -0.1001671 -0.1001562 -0.1001287 -0.1000914 -0.1000445 -0.09999338 -0.09993808
 -0.09988025 -0.09981985 -0.09975734 -0.09969323 -0.09962962 -0.09956755 -0.09951077 -0.09946027 -0.09942016 -0.09938961
 -0.09937055 -0.09935793 -0.09934912 -0.09933642 -0.09931394 -0.09927878 -0.09922671 -0.0991642 -0.09909137 -0.09901826
 -0.09894679 -0.09888338 -0.09882927 -0.09878491 -0.09875056 -0.09872002 -0.09869283 -0.09865984 -0.09862107 -0.09857211
 -0.09851427 -0.09845067 -0.0983827 -0.09831626 -0.09825069 -0.0981878 -0.09812571 -0.09806268 -0.09799748 -0.09792815
 -0.09785502 -0.09777721 -0.09769715 -0.09761498 -0.09753539 -0.09745977 -0.09739132 -0.09733188 -0.09727623 -0.0972246
 -0.09716517 -0.09709703 -0.09701494 -0.0969191 -0.09681634 -0.09670731 -0.09660058 -0.09649531 -0.09639234 -0.09629067
 -0.09618707 -0.09608312 -0.0959799 -0.09588011 -0.09578885 -0.0957048 -0.09563002 -0.0955581 -0.09548558 -0.0954079
 -0.0953211 -0.09522785 -0.09512796 -0.09502532 -0.09492138 -0.09481371 -0.09470244 -0.09458239 -0.094453 -0.09431592
 -0.09417138 -0.09402645 -0.09388117 -0.09373946 -0.09360055 -0.09346303 -0.09332629 -0.09318738 -0.09304725 -0.09290578
 -0.09276538 -0.09262944 -0.09249916 -0.09237777 -0.09226284 -0.09215473 -0.0920478 -0.09193972 -0.09182639 -0.09170546
 -0.09157794 -0.09144335 -0.09130499 -0.09116325 -0.09102019 -0.09087604 -0.09073076 -0.09058434 -0.09043664 -0.09028788
 -0.0901401 -0.08999342 -0.08984984 -0.08970841 -0.08956758 -0.08942594 -0.0892795 -0.08912855 -0.08897154 -0.08881008
 -0.08864528 -0.088478 -0.08830908 -0.08813914 -0.08796826 -0.08779837 -0.08763006 -0.08746488 -0.08730362 -0.08714486
 -0.08698863 -0.08683261 -0.08667658 -0.08652011 -0.08636316 -0.08620494 -0.08604513 -0.08588034 -0.0857104 -0.0855321
 -0.08534683 -0.08515675 -0.08496394 -0.08477399 -0.08458736 -0.08440761 -0.08423296 -0.08406311 -0.08389584 -0.08372921
 -0.08356313 -0.08339671 -0.08323168 -0.08306853 -0.08290798 -0.08275077 -0.08259413 -0.08243818 -0.08227675 -0.08210936
 -0.08193144 -0.08174289 -0.08154584 -0.08134104 -0.08113648 -0.08093263 -0.08073652 -0.08054686 -0.0803638 -0.08018494
 -0.08000517 -0.07982346 -0.07963559 -0.07944305 -0.07924549 -0.07904535 -0.07884415 -0.07864385 -0.07844551 -0.07825112
 -0.07806138 -0.07787827 -0.07770266 -0.07753363 -0.07737168 -0.07721097 -0.07705118 -0.07688566 -0.07671416 -0.07653619
 -0.07635235 -0.07616879 -0.07598583 -0.07580873 -0.07563616 -0.07546679 -0.07529883 -0.07512734 -0.07495272 -0.07477272
 -0.07459024 -0.07440726 -0.07422655 -0.07405141 -0.07388065 -0.07371528 -0.07355089 -0.07338605 -0.07321846 -0.07304659
 -0.07287407 -0.07270104 -0.07253207 -0.07236782 -0.07220579 -0.07204577 -0.07188004 -0.07170861 -0.07152835 -0.07134047
 -0.07114963 -0.07095707 -0.07076935 -0.07058668 -0.07041264 -0.07024702 -0.07009107 -0.06994416 -0.06980673 -0.06967614
 -0.06955156 -0.06942775 -0.06930208 -0.06917032 -0.06902984 -0.06888144 -0.06872422 -0.06856318 -0.06839889 -0.06823525
 -0.06807285 -0.06791095 -0.06774953 -0.06758665 -0.0674225 -0.06725858 -0.0670955 -0.06693752 -0.06678455 -0.06663898
 -0.06649912 -0.06636246 -0.06622729 -0.06608927 -0.06594928 -0.0658057 -0.06566276 -0.06552298 -0.06538992 -0.06526691
 -0.06515247 -0.06504768 -0.06494691 -0.06484921 -0.06474957 -0.06464682 -0.06454033 -0.06442979 -0.06431728 -0.0642029
 -0.06408904 -0.06397569 -0.06386308 -0.06375082 -0.06363685 -0.06352082 -0.06340031 -0.06327543 -0.06314513 -0.06301017
 -0.06287096 -0.06272914 -0.06258624 -0.06244464 -0.0623068 -0.06217359 -0.06204677 -0.06192377 -0.06180407 -0.06168535
 -0.06156621 -0.06144981 -0.06133608 -0.06123064 -0.06113419 -0.06104794 -0.06097198 -0.06090194 -0.06083754 -0.06077407
 -0.06071129 -0.0606457 -0.06057679 -0.06050073 -0.06041759 -0.06032481 -0.06022467 -0.06011897 -0.06001168 -0.05990784
 -0.05981029 -0.05972365 -0.05964646 -0.05958027 -0.05951904 -0.05946176 -0.05940031 -0.05933254 -0.05925309 -0.0591601
 -0.05905597 -0.05894011 -0.05882435 -0.05870933 -0.05860922 -0.05852403 -0.05845762 -0.05840794 -0.05836437 -0.05832524
 -0.05827773 -0.05822413 -0.05816283 -0.05809823 -0.05803779 -0.05798185 -0.05793485 -0.05789246 -0.05785275 -0.05781197
 -0.05776667 -0.05771813 -0.05766551 -0.05761289 -0.0575612 -0.05751315 -0.05746979 -0.057429 -0.05739097 -0.05734955
 -0.05730437 -0.05725027 -0.05718749 -0.05711877 -0.05704536 -0.05697669 -0.05691319 -0.05686234 -0.05682178 -0.05679011
 -0.0567636 -0.05673491 -0.05670281 -0.05666217 -0.0566155 -0.05656308 -0.05650751 -0.05645085 -0.05639268 -0.05633318
 -0.05627218 -0.0562089 -0.05614774 -0.05608909 -0.05603821 -0.05599607 -0.05596099 -0.05593299 -0.05590296 -0.0558705
 -0.05582782 -0.05577554 -0.05571356 -0.05564345 -0.055571 -0.05549747 -0.05542916 -0.05536596 -0.0553112 -0.05526253
 -0.05521917 -0.05517686 -0.05513206 -0.05508117 -0.05502052 -0.05495083 -0.05487062 -0.05478519 -0.05469526 -0.05460689
 -0.05452147 -0.054441 -0.05436608 -0.0542945 -0.05422619 -0.05415712 -0.05408708 -0.05401276 -0.0539339 -0.05384744
 -0.05375299 -0.05364708 -0.05353031 -0.05340096 -0.05326335 -0.05312262 -0.05298698 -0.05286861 -0.05277275 -0.05271055
 -0.05267528 -0.05266907 -0.05267437 -0.05268498 -0.05268738 -0.05267484 -0.05265033 -0.05261187 -0.05257418 -0.0525386
 -0.0525167 -0.05250948 -0.0525174 -0.05254012 -0.05257041 -0.05260779 -0.0526454 -0.05268366 -0.05272041 -0.0527567
 -0.05279396 -0.05283349 -0.05287801 -0.05292908 -0.05299001 -0.05306074 -0.05314362 -0.05323393 -0.05333025 -0.05342609
 -0.05351724 -0.05360489 -0.05368678 -0.05377433 -0.05386914 -0.05398073 -0.05411119 -0.05425684 -0.05441779 -0.0545813
 -0.05474681 -0.05490378 -0.05505249 -0.05518961 -0.0553164 -0.05543577 -0.05554959 -0.05566463 -0.05578121 -0.05590435
 -0.0560301 -0.05615619 -0.05627686 -0.05638519 -0.056481 -0.05656017 -0.05663124 -0.05669605 -0.05676446 -0.05684032
 -0.05692611 -0.05702404 -0.05712658 -0.05723371 -0.05733281 -0.05742301 -0.05749465 -0.05754769 -0.05758299 -0.05760221
 -0.05761797 -0.05763229 -0.05766108 -0.05770367 -0.05776776 -0.05784852 -0.05794116 -0.05803962 -0.05813344 -0.05822051
 -0.05829409 -0.05835797 -0.05841197 -0.05846194 -0.05851077 -0.05856039 -0.05861266 -0.0586645 -0.05871579 -0.05876278
 -0.05880476 -0.05884178 -0.05887364 -0.0589047 -0.05893521 -0.05897038 -0.05901019 -0.05905707 -0.05911024 -0.05916781
 -0.05922848 -0.05928771 -0.05934463 -0.05939505 -0.05943987 -0.05947796 -0.05951221 -0.05954466 -0.05957837 -0.05961609
 -0.0596588 -0.05970788 -0.05976225 -0.05982208 -0.05988526 -0.05995151 -0.06001888 -0.06008713 -0.06015471 -0.06022146
 -0.06028734 -0.06035239 -0.0604178 -0.06048358 -0.06055029 -0.06061791 -0.06068651 -0.06075631 -0.06082801 -0.06090163
 -0.06097808 -0.06105587 -0.06113372 -0.0612093 -0.06127974 -0.06134434 -0.06140117 -0.06145248 -0.06149838 -0.06154251
 -0.06158574 -0.06163179 -0.06168181 -0.06173665 -0.06179713 -0.06185762 -0.06191796 -0.06196818 -0.06200797 -0.06203371
 -0.0620468 -0.06205751 -0.06206812 -0.06209556 -0.06213913 -0.06220718 -0.06229378 -0.06239217 -0.06249417 -0.06258492
 -0.06266104 -0.06271169 -0.06274357 -0.06275598 -0.06276219 -0.06276832 -0.06278242 -0.06281006 -0.06284603 -0.06289123
 -0.06293365 -0.0629715 -0.0629995 -0.06301675 -0.0630285 -0.06303502 -0.06304237 -0.06305003 -0.06305571 -0.06305846
 -0.06305157 -0.06303646 -0.06301273 -0.0629851 -0.06296298 -0.06295035 -0.06295849 -0.06298459 -0.06303222 -0.06309064
 -0.0631544 -0.06321263 -0.0632575 -0.0632885 -0.06330195 -0.0633088 -0.06331035 -0.06331752 -0.06333268 -0.06335589
 -0.06338769 -0.06341995 -0.06345226 -0.06347848 -0.06349886 -0.06351364 -0.0635234 -0.06353105 -0.06353694 -0.06354351
 -0.06355113 -0.06356182 -0.06357569 -0.06359396 -0.06361596 -0.06364129 -0.06366991 -0.0637013 -0.06373684 -0.06377723
 -0.06382267 -0.06387378 -0.06392849 -0.06398624 -0.06404704 -0.06411039 -0.06418064 -0.06425821 -0.06434472 -0.06444014
 -0.06453824 -0.06463845 -0.06473213 -0.06481995 -0.06490073 -0.06497626 -0.06505205 -0.06512839 -0.06520901 -0.06529211
 -0.06537647 -0.06546096 -0.06554347 -0.06562509 -0.06570604 -0.06578705 -0.06586911 -0.06595012 -0.06602975 -0.06610554
 -0.0661764 -0.06624365 -0.06630713 -0.06636989 -0.06643236 -0.06649306 -0.06655184 -0.06660344 -0.06664806 -0.06668535
 -0.06671688 -0.06675103 -0.06678866 -0.06683803 -0.06689662 -0.06696332 -0.06703435 -0.0671025 -0.06716818 -0.06722828
 -0.06728673 -0.06734623 -0.06740705 -0.06747148 -0.06753319 -0.0675904 -0.06763878 -0.06767572 -0.06770681 -0.06773195
 -0.06776109 -0.0677954 -0.06783661 -0.06788479 -0.06793185 -0.06797738 -0.06801324 -0.06804033 -0.06805909 -0.06807142
 -0.06808404 -0.06809808 -0.06811982 -0.06814835 -0.06818558 -0.06822877 -0.068276 -0.06832421 -0.06837073 -0.06841305
 -0.06844936 -0.0684778 -0.06849751 -0.06850684 -0.06850519 -0.06849217 -0.06846735 -0.06843316 -0.06838967 -0.06834081
 -0.06828679 -0.06822919 -0.06816781 -0.06810072 -0.06802729 -0.06794308 -0.06784765 -0.06773665 -0.06761089 -0.06746934
 -0.06731477 -0.06715046 -0.06698058 -0.06681105 -0.06664445 -0.06648526 -0.0663322 -0.06618629 -0.06604382 -0.0659034
 -0.06576358 -0.06562316 -0.06548495 -0.06534906 -0.06521892 -0.06509499 -0.06497733 -0.06486597 -0.06476023 -0.06466044
 -0.06457057 -0.0644915 -0.06443089 -0.06438868 -0.06436933 -0.06437099 -0.06439172 -0.06442948 -0.0644802 -0.06454241
 -0.06461374 -0.0646909 -0.06477203 -0.06484997 -0.06492122 -0.06497798 -0.06501622 -0.06503329 -0.06502706 -0.06500101
 -0.06495529 -0.0648938 -0.06481704 -0.0647262 -0.06462134 -0.06450463 -0.06437662 -0.06424543 -0.06411213 -0.06398786
 -0.0638727 -0.0637729 -0.06368802 -0.06361909 -0.06356812 -0.06353772 -0.06353275 -0.06355995 -0.06362236 -0.06372525
 -0.06386749 -0.06405011 -0.06427062 -0.06452848 -0.06482137 -0.06514969 -0.06550613 -0.0658908 -0.06628902 -0.06669984
 -0.06710619 -0.06750704 -0.06788941 -0.06825292 -0.06859001 -0.068901 -0.0691837 -0.06943933 -0.06967093 -0.06988022
 -0.07007303 -0.07025021 -0.070416 -0.07057007 -0.07071344 -0.07084627 -0.07096837 -0.07108209 -0.07118824 -0.07129027
 -0.07138975 -0.0714884 -0.07158751 -0.07168474 -0.0717803 -0.07186912 -0.07195072 -0.07202126 -0.07208047 -0.07212782
 -0.0721634 -0.07218909 -0.07220486 -0.07221168 -0.07220937 -0.07219724 -0.07217609 -0.07214653 -0.07211199 -0.07207762
 -0.07204901 -0.07203485 -0.07203894 -0.0720685 -0.07212116 -0.07219905 -0.07229368 -0.07240317 -0.072517 -0.07263248
 -0.07274058 -0.07283946 -0.07292289 -0.07298993 -0.07303766 -0.07306575 -0.0730767 -0.07307114 -0.07305972 -0.07304465
 -0.07304545 -0.07306528 -0.07312745 -0.07323253 -0.07339603 -0.07361167 -0.07387824 -0.07418224 -0.07450824 -0.07484137
 -0.07516373 -0.07546689 -0.0757398 -0.07598386 -0.07619604 -0.0763839 -0.07654864 -0.07669733 -0.07683158 -0.07695449
 -0.07706669 -0.0771684 -0.07725963 -0.07734172 -0.07741486 -0.07748293 -0.07754632 -0.07760992 -0.07767341 -0.0777385
 -0.07780378 -0.07786647 -0.07792529 -0.07797606 -0.07801972 -0.07805493 -0.07808545 -0.07811382 -0.07814372 -0.07817864
 -0.07821859 -0.07826515 -0.07831421 -0.0783651 -0.07841402 -0.07845987 -0.07850268 -0.07854223 -0.07858006 -0.07861633
 -0.07864989 -0.07868063 -0.07870543 -0.07872455 -0.07873827 -0.07874754 -0.07875676 -0.07876595 -0.07877782 -0.0787909
 -0.0788035 -0.07881507 -0.07882354 -0.07883088 -0.07883788 -0.07884694 -0.07886027 -0.07887731 -0.07889872 -0.0789222
 -0.07894731 -0.07897202 -0.07899596 -0.07901745 -0.07903637 -0.07905053 -0.07905974 -0.07906366 -0.07906243 -0.07905935
 -0.07905474 -0.07905299 -0.0790538 -0.07905841 -0.07906588 -0.07907409 -0.07908279 -0.07909004 -0.0790972 -0.07910514
 -0.07911526 -0.07912975 -0.07914738 -0.07916881 -0.07918996 -0.07920925 -0.07922383 -0.07923192 -0.07923534 -0.07923368
 -0.07923196 -0.07923073 -0.07923344 -0.07924049 -0.0792506 -0.07926362 -0.07927523 -0.07928526 -0.07929029 -0.07929077
 -0.07928678 -0.07927918 -0.07927058 -0.0792613 -0.07925349 -0.0792465 -0.07924036 -0.07923423 -0.07922716 -0.07921927
 -0.07921006 -0.07920077 -0.07919178 -0.0791842 -0.07917854 -0.07917486 -0.07917336 -0.07917316 -0.07917413 -0.07917564
 -0.07917759 -0.07918041 -0.07918413 -0.07918958 -0.07919676 -0.07920603 -0.07921722 -0.07922972 -0.07924306 -0.07925555
 -0.07926673 -0.07927457 -0.07927959 -0.07928126 -0.0792813 -0.07928119 -0.07928208 -0.07928587 -0.07929049 -0.07929584
 -0.07929859 -0.07929743 -0.07929155 -0.07928007 -0.07926614 -0.07924992 -0.07923518 -0.07922228 -0.07921268 -0.07920642
 -0.07920276 -0.07920162 -0.07920212 -0.07920414 -0.07920688 -0.07921005 -0.07921261 -0.07921397 -0.07921235 -0.07920755
 -0.07919826 -0.0791854 -0.07916891 -0.07915109 -0.07913352 -0.0791176 -0.07910459 -0.07909425 -0.07908697 -0.07908116
 -0.07907663 -0.07907182 -0.07906654 -0.07905948 -0.07905044 -0.07903986 -0.07902779 -0.07901631 -0.07900543 -0.07899628
 -0.0789884 -0.07897998 -0.07897068 -0.07895827 -0.07894328 -0.07892552 -0.07890604 -0.07888646 -0.07886698 -0.0788484
 -0.07883063 -0.07881368 -0.07879803 -0.07878377 -0.07877184 -0.07876254 -0.07875647 -0.078754 -0.07875447 -0.0787581
 -0.07876199 -0.07876607 -0.07876552 -0.07876012 -0.07874686 -0.0787261 -0.07870018 -0.07867005 -0.07864181 -0.07861558
 -0.07859527 -0.07857975 -0.07856854 -0.07856046 -0.07855342 -0.07854727 -0.07854117 -0.07853512 -0.07852918 -0.07852241
 -0.07851444 -0.07850433 -0.07849143 -0.07847641 -0.07845899 -0.07844166 -0.07842465 -0.07841039 -0.07839917 -0.07839161
 -0.07838774 -0.0783856 -0.07838494 -0.07838269 -0.07837878 -0.07837094 -0.07835984 -0.07834627 -0.0783314 -0.07831831
 -0.07830755 -0.0783017 -0.07829965 -0.07830163 -0.07830521 -0.07830879 -0.07831029 -0.07830805 -0.07830175 -0.07829054
 -0.0782764 -0.07825933 -0.07824285 -0.07822748 -0.07821533 -0.07820677 -0.07820005 -0.07819507 -0.07818788 -0.07817849
 -0.07816562 -0.07814983 -0.07813349 -0.07811692 -0.07810278 -0.07809035 -0.07807939 -0.07806915 -0.07805806 -0.07804646
 -0.07803403 -0.07802162 -0.07801003 -0.07799897 -0.07798859 -0.07797801 -0.07796685 -0.07795502 -0.07794233 -0.07792942
 -0.07791641 -0.07790337 -0.07789034 -0.07787647 -0.07786172 -0.07784522 -0.07782698 -0.0778069 -0.07778507 -0.07776195
 -0.07773764 -0.07771266 -0.07768705 -0.07766108 -0.07763493 -0.07760882 -0.07758331 -0.07755898 -0.07753661 -0.0775171
 -0.07750028 -0.07748659 -0.07747464 -0.07746424 -0.07745349 -0.07744193 -0.07742819 -0.07741191 -0.07739296 -0.07737118
 -0.07734841 -0.07732475 -0.07730325 -0.07728399 -0.07726876 -0.07725716 -0.07724788 -0.07724029 -0.07723137 -0.07722093
 -0.07720695 -0.0771897 -0.07716873 -0.07714451 -0.07711723 -0.07708772 -0.07705633 -0.0770249 -0.07699413 -0.07696652
 -0.07694317 -0.07692552 -0.07691454 -0.07690859 -0.07690788 -0.07690816 -0.07690906 -0.07690766 -0.07690381 -0.07689846
 -0.07689177 -0.0768865 -0.07688234 -0.07687896 -0.07687552 -0.07686852 -0.07685819 -0.07684284 -0.07682427 -0.07680467
 -0.07678559 -0.0767701 -0.0767576 -0.07674892 -0.07674225 -0.07673685 -0.07673125 -0.07672478 -0.07671645 -0.07670594
 -0.07669233 -0.07667528 -0.07665534 -0.07663236 -0.07660912 -0.07658577 -0.07656533 -0.07654776 -0.0765333 -0.07652157
 -0.07651051 -0.07649993 -0.07648797 -0.07647485 -0.07646022 -0.07644451 -0.07642834 -0.07641187 -0.07639564 -0.07637941
 -0.07636338 -0.0763466 -0.07632872 -0.07630847 -0.07628508 -0.07625872 -0.07622883 -0.07619831 -0.07616739 -0.07613938
 -0.0761147 -0.07609434 -0.07607841 -0.07606546 -0.07605539 -0.07604642 -0.07603834 -0.07602892 -0.07601791 -0.07600288
 -0.07598414 -0.07596082 -0.07593437 -0.07590673 -0.07587928 -0.07585473 -0.07583294 -0.07581504 -0.0757994 -0.07578544
 -0.07577164 -0.07575731 -0.07574148 -0.07572381 -0.07570367 -0.07568086 -0.07565527 -0.07562678 -0.07559676 -0.07556528
 -0.07553449 -0.07550447 -0.07547662 -0.0754507 -0.07542583 -0.07540169 -0.07537635 -0.07535014 -0.07532249 -0.07529468
 -0.07526875 -0.07524545 -0.07522706 -0.07521207 -0.07520033 -0.07518921 -0.07517689 -0.07516264 -0.07514542 -0.07512658
 -0.07510656 -0.07508499 -0.07506225 -0.07503513 -0.07500322 -0.0749654 -0.07492146 -0.07487593 -0.07482914 -0.07478787
 -0.07475191 -0.07472322 -0.07470071 -0.0746809 -0.0746631 -0.07464334 -0.07462231 -0.07459947 -0.07457559 -0.07455186
 -0.07452747 -0.07450236 -0.07447502 -0.07444382 -0.07441039 -0.07437401 -0.07434054 -0.07431106 -0.0742921 -0.07428543
 -0.07429212 -0.07431294 -0.07434243 -0.07438033 -0.07441998 -0.07446118 -0.07450061 -0.07453807 -0.07457086 -0.0745982
 -0.07461523 -0.07462165 -0.07461351 -0.07459271 -0.07456077 -0.07451967 -0.07447344 -0.07442062 -0.07436132 -0.07429395
 -0.07421608 -0.07413227 -0.07404273 -0.07395593 -0.07387437 -0.0738032 -0.07374415 -0.07369721 -0.07366282 -0.07363789
 -0.07362231 -0.07361112 -0.07360405 -0.0735964 -0.07358822 -0.07357807 -0.07356597 -0.07355174 -0.07353449 -0.07351158
 -0.07348266 -0.07344504 -0.07340101 -0.07335187 -0.07330132 -0.07325367 -0.07320967 -0.07317218 -0.07313658 -0.07310203
 -0.07306287 -0.07301676 -0.072963 -0.07290022 -0.07283455 -0.07276633 -0.07270283 -0.0726447 -0.07259264 -0.0725464
 -0.07249942 -0.07245124 -0.07239475 -0.072331 -0.07226023 -0.07218484 -0.07211193 -0.07204241 -0.07198212 -0.07192895
 -0.07188258 -0.07184069 -0.07180064 -0.07176215 -0.07172414 -0.0716873 -0.07165214 -0.07161732 -0.07158275 -0.07154639
 -0.07150754 -0.07146684 -0.07142412 -0.07138186 -0.07134028 -0.07129987 -0.07126059 -0.07122058 -0.07117983 -0.07113735
 -0.07109344 -0.07104897 -0.07100409 -0.07095973 -0.07091557 -0.07087126 -0.07082693 -0.07078236 -0.07073868 -0.07069686
 -0.0706578 -0.07062275 -0.0705908 -0.07056215 -0.07053485 -0.07050837 -0.07048117 -0.07045276 -0.07042283 -0.07039122
 -0.07035836 -0.07032429 -0.07028945 -0.07025383 -0.07021713 -0.0701793 -0.07013955 -0.0700979 -0.07005391 -0.07000789
 -0.06996049 -0.06991197 -0.06986329 -0.06981427 -0.06976496 -0.0697155 -0.06966569 -0.06961671 -0.06956913 -0.0695244
 -0.06948376 -0.06944621 -0.06941218 -0.06937814 -0.06934341 -0.06930554 -0.06926389 -0.06921915 -0.06917124 -0.06912255
 -0.06907316 -0.06902437 -0.06897615 -0.06892883 -0.06888246 -0.06883757 -0.06879417 -0.06875271 -0.06871283 -0.06867415
 -0.06863587 -0.06859677 -0.06855614 -0.06851269 -0.06846645 -0.06841672 -0.06836503 -0.06831156 -0.06825902 -0.0682083
 -0.06816106 -0.06811807 -0.06807844 -0.06804224 -0.06800807 -0.0679758 -0.06794498 -0.06791556 -0.06788725 -0.06785984
 -0.06783123 -0.06780115 -0.06776685 -0.0677286 -0.06768557 -0.06763858 -0.06758904 -0.06753737 -0.06748471 -0.06743145
 -0.06737807 -0.067326 -0.06727626 -0.0672301 -0.06718887 -0.06715116 -0.06711724 -0.06708363 -0.06704955 -0.06701314
 -0.06697382 -0.06693295 -0.06689057 -0.06684857 -0.066807 -0.06676609 -0.06672572 -0.06668485 -0.06664346 -0.06660075
 -0.066557 -0.06651244 -0.06646757 -0.06642357 -0.06638061 -0.06633973 -0.0663001 -0.06626134 -0.06622244 -0.06618216
 -0.06614123 -0.06609931 -0.06605852 -0.06601971 -0.06598325 -0.06594977 -0.06591669 -0.06588385 -0.0658482 -0.06580945
 -0.06576607 -0.06571798 -0.06566569 -0.06560935 -0.06555062 -0.06548983 -0.06542953 -0.06537005 -0.06531379 -0.06526083
 -0.06521261 -0.06516874 -0.06512938 -0.06509356 -0.06506044 -0.06502885 -0.06499756 -0.06496648 -0.06493513 -0.06490422
 -0.06487416 -0.06484434 -0.06481493 -0.0647838 -0.0647506 -0.06471451 -0.06467531 -0.06463475 -0.06459293 -0.06455109
 -0.06450903 -0.0644648 -0.06441838 -0.06436821 -0.06431524 -0.06426185 -0.06420893 -0.06416026 -0.0641147 -0.0640725
 -0.06403129 -0.06398802 -0.06394275 -0.06389374 -0.06384449 -0.06379633 -0.0637519 -0.06371319 -0.06367784 -0.06364621
 -0.0636128 -0.06357672 -0.063535 -0.06348708 -0.06343484 -0.06337836 -0.06332229 -0.06326682 -0.0632156 -0.06316835
 -0.06312563 -0.06308668 -0.06304944 -0.06301303 -0.06297455 -0.06293354 -0.06288783 -0.06283792 -0.06278322 -0.06272547
 -0.06266548 -0.06260561 -0.06254742 -0.06249202 -0.06244066 -0.06239138 -0.0623442 -0.06229584 -0.06224569 -0.06219235
 -0.06213547 -0.06207702 -0.06201708 -0.0619582 -0.0619004 -0.06184456 -0.06179054 -0.06173766 -0.06168607 -0.06163568
 -0.06158707 -0.06154146 -0.06149927 -0.06146201 -0.06142899 -0.06140028 -0.06137417 -0.06134925 -0.06132475 -0.06129948
 -0.06127483 -0.06125084 -0.06122954 -0.06121164 -0.06119734 -0.061187 -0.06117853 -0.06117181 -0.0611643 -0.06115585
 -0.06114516 -0.06113227 -0.06111748 -0.06110081 -0.06108264 -0.06106281 -0.06104089 -0.06101679 -0.06098995 -0.0609607
 -0.06092942 -0.0608963 -0.06086185 -0.06082578 -0.06078792 -0.06074845 -0.06070693 -0.06066554 -0.06062473 -0.06058729
 -0.06055421 -0.060526 -0.06050323 -0.06048328 -0.0604661 -0.0604476 -0.06042754 -0.06040294 -0.06037379 -0.06033928
 -0.06029975 -0.06025685 -0.06021108 -0.06016508 -0.06011929 -0.06007624 -0.06003559 -0.05999814 -0.05996277 -0.05992872
 -0.05989431 -0.05985794 -0.05981849 -0.05977457 -0.05972689 -0.05967497 -0.05962154 -0.059567 -0.05951433 -0.05946421
 -0.05941776 -0.05937536 -0.05933528 -0.05929746 -0.05925879 -0.05921914 -0.05917629 -0.05913048 -0.0590822 -0.05903184
 -0.05898113 -0.05893033 -0.05888101 -0.05883313 -0.0587874 -0.05874356 -0.05870178 -0.05866105 -0.0586208 -0.05857954
 -0.05853612 -0.05849019 -0.05844107 -0.0583901 -0.05833731 -0.05828501 -0.0582336 -0.05818463 -0.05813839 -0.05809485
 -0.05805404 -0.0580138 -0.05797393 -0.05793082 -0.0578844 -0.05783186 -0.05777393 -0.05771159 -0.05764623 -0.05758195
 -0.05751947 -0.05746238 -0.05740958 -0.05736136 -0.05731591 -0.05727152 -0.0572279 -0.05718403 -0.05714145 -0.05710072
 -0.05706237 -0.05702726 -0.05699224 -0.05695718 -0.05691732 -0.05687202 -0.05681943 -0.05675932 -0.05669453 -0.05662532
 -0.05655662 -0.05648862 -0.05642514 -0.05636589 -0.05631195 -0.05626237 -0.05621539 -0.05616988 -0.05612271 -0.05607384
 -0.05602149 -0.05596742 -0.05591247 -0.05585838 -0.05580694 -0.0557572 -0.0557097 -0.05566123 -0.05561081 -0.05555711
 -0.05549929 -0.05543977 -0.05537863 -0.05531911 -0.05526147 -0.05520561 -0.05515138 -0.05509564 -0.05503841 -0.05497814
 -0.0549155 -0.05485263 -0.05479007 -0.05473078 -0.05467396 -0.05461966 -0.05456657 -0.05451284 -0.05445824 -0.05440171
 -0.05434405 -0.05428546 -0.05422653 -0.05416767 -0.05410876 -0.05404986 -0.05399081 -0.05393154 -0.05387233 -0.0538132
 -0.05375466 -0.05369677 -0.05363963 -0.05358323 -0.05352653 -0.05346949 -0.05341113 -0.05335169 -0.05329175 -0.0532316
 -0.05317258 -0.05311418 -0.05305607 -0.05299768 -0.05293768 -0.05287695 -0.05281567 -0.0527551 -0.05269662 -0.05263891
 -0.05258214 -0.05252337 -0.05246145 -0.05239596 -0.05232628 -0.05225498 -0.05218234 -0.05211008 -0.05203837 -0.05196673
 -0.05189519 -0.05182442 -0.05175474 -0.05168924 -0.05162783 -0.05157229 -0.05152093 -0.05147026 -0.05141786 -0.0513568
 -0.05128746 -0.05120617 -0.05111794 -0.0510257 -0.0509349 -0.05085089 -0.05077323 -0.05070378 -0.05063791 -0.05057453
 -0.05051062 -0.05044509 -0.05037847 -0.05031069 -0.05024265 -0.05017449 -0.05010426 -0.05003187 -0.04995503 -0.04987393
 -0.04978905 -0.04970108 -0.04961373 -0.04952725 -0.04944463 -0.04936495 -0.04928815 -0.04921248 -0.04913535 -0.04905599
 -0.04897225 -0.04888538 -0.04879514 -0.0487041 -0.04861339 -0.04852462 -0.04843888 -0.04835514 -0.04827366 -0.04819171
 -0.04810888 -0.04802408 -0.04793711 -0.04785046 -0.04776426 -0.04768134 -0.04760138 -0.04752312 -0.04744576 -0.04736466
 -0.04727967 -0.04718742 -0.04708925 -0.04698585 -0.04687949 -0.04677382 -0.04666988 -0.04657058 -0.04647427 -0.04638116
 -0.04628816 -0.04619376 -0.04609638 -0.04599487 -0.04589015 -0.04578217 -0.04567226 -0.04556063 -0.04544778 -0.04533375
 -0.04521919 -0.04510413 -0.04498915 -0.04487416 -0.04475839 -0.04464164 -0.04452246 -0.04440106 -0.04427733 -0.04415164
 -0.04402483 -0.04389681 -0.04376796 -0.04363748 -0.0435049 -0.04336901 -0.04322902 -0.04308357 -0.04293182 -0.04277311
 -0.0426069 -0.04243363 -0.04225312 -0.04206689 -0.04187503 -0.04167951 -0.04148051 -0.04127952 -0.0410766 -0.04087099
 -0.04066261 -0.04044997 -0.0402337 -0.0400159 -0.03979806 -0.03958617 -0.03938067 -0.03918603 -0.0390003 -0.038823
 -0.03865102 -0.03848096 -0.0383108 -0.038138 -0.03796196 -0.03778175 -0.0375974 -0.03740875 -0.0372158 -0.03701847
 -0.03681695 -0.03661128 -0.03640179 -0.03618869 -0.03596935 -0.03574358 -0.03550417 -0.03525073 -0.03497613 -0.03468126
 -0.03436693 -0.03403441 -0.03368874 -0.03332919 -0.03295684 -0.03257008 -0.03216663 -0.03174615 -0.03130818 -0.03085051
 -0.03037345 -0.02986836 -0.02933237 -0.02875441 -0.02812904 -0.02745472 -0.02672772 -0.02596302 -0.0251607 -0.02434591
 -0.02352045 -0.0227084 -0.02191103 -0.02114254 -0.02040213 -0.01968682 -0.01899298 -0.01829975 -0.01760418 -0.01688255
 -0.01614127 -0.01537995 -0.01461293 -0.01386502 -0.01313757 -0.01244629 -0.01177333 -0.01111133 -0.01044317 -0.009755774
 -0.00904926 -0.008318866 -0.007577002 -0.006825625 -0.006074443 -0.005325383 -0.004582294 -0.003845752 -0.003116915 -0.002395851
 -0.001680379 -0.0009711047 -0.0002726987 0.0004112524 0.001058339 0.001665475 0.002208225 0.002690712 0.003109263 0.003471297
 0.003787921 0.004061246 0.004298633 0.004497505 0.004656915 0.004778857 0.004863246 0.004915085 0.004936795 0.004928493
 0.004891152 0.004821205 0.004718446 0.004578876 0.004402489 0.004180763 0.003913219 0.003586366 0.003200405 0.002752
 0.002245374 0.001702437 0.001128454 0.0005542382 -2.000436E-05 -0.0005785186 -0.001123528 -0.001653096 -0.002165502 -0.002659765
 -0.003129304 -0.003569287 -0.00397349 -0.004337139 -0.004657817 -0.004933412 -0.005164138 -0.005349213 -0.005491732 -0.00559131
 -0.005656387 -0.005687463 -0.005694459 -0.005677948 -0.005644347 -0.005593926 -0.005531547 -0.005457629 -0.00537728 -0.005290642
 -0.005201058 -0.005108148 -0.005012169 -0.004913984 -0.004814339 -0.004716204 -0.00462285 -0.004537605 -0.004464592 -0.004404128
 -0.004358568 -0.004323234 -0.00429787 -0.004274532 -0.004251188 -0.004222683 -0.004187516 -0.004145879 -0.004097486 -0.004045171
 -0.003989079 -0.00393163 -0.003872931 -0.003815075 -0.003757896 -0.003701558 -0.003645585 -0.003587884 -0.003529076 -0.003468754
 -0.003409814 -0.003356611 -0.003312184 -0.003281729 -0.003267058 -0.003271325 -0.003295132 -0.00334005 -0.003404468 -0.003488267
 -0.003589322 -0.003706107 -0.003842623 -0.003998541 -0.004183342 -0.004398306 -0.004645661 -0.004925721 -0.005226729 -0.005548305
 -0.005882079 -0.006229636 -0.006597267 -0.00698643 -0.007406772 -0.00785675 -0.008337975 -0.008846995 -0.009377926 -0.009930298
 -0.01050015 -0.01109126 -0.0117079 -0.01234483 -0.0130058 -0.0136652 -0.0143146 -0.01493324 -0.01551037 -0.01605548
 -0.01656722 -0.01706598 -0.01755451 -0.01803743 -0.01851535 -0.01897799 -0.01942491 -0.01984784 -0.02024743 -0.02062402
 -0.0209786 -0.02131471 -0.02163361 -0.02193889 -0.02223483 -0.02252886 -0.02282856 -0.02314584 -0.02348609 -0.02385968
 -0.02426258 -0.02469765 -0.02515171 -0.02562106 -0.02609279 -0.0265631 -0.02702276 -0.02747072 -0.02789365 -0.02829038
 -0.02864647 -0.0289607 -0.02923582 -0.02947277 -0.02968907 -0.0298853 -0.03007444 -0.0302549 -0.03042743 -0.0305901
 -0.03073799 -0.0308707 -0.03098557 -0.03108188 -0.03115835 -0.03121248 -0.03124147 -0.0312444 -0.03121891 -0.03116869
 -0.03109448 -0.03100018 -0.03088752 -0.03075597 -0.03060616 -0.03043373 -0.03023826 -0.03001638 -0.02976778 -0.02949373
 -0.02919476 -0.02888036 -0.02855256 -0.02823061 -0.02791636 -0.02762878 -0.02736583 -0.02713292 -0.02692452 -0.02673368
 -0.02655449 -0.02637695 -0.0261967 -0.02600629 -0.02580461 -0.0255872 -0.02536083 -0.02512446 -0.02489558 -0.02467845
 -0.02448746 -0.02432779 -0.02419464 -0.02408885 -0.02399598 -0.02391505 -0.02383687 -0.02376118 -0.02368506 -0.02360843
 -0.02352968 -0.02344807 -0.0233601 -0.02326416 -0.02315483 -0.0230292 -0.02287986 -0.02270354 -0.02249288 -0.02224651
 -0.02196068 -0.02163519 -0.02126956 -0.02086158 -0.02041012 -0.019914 -0.01937081 -0.01878947 -0.0181694 -0.0175303
 -0.01687392 -0.01621937 -0.01556815 -0.01493121 -0.01430916 -0.01371112 -0.01313865 -0.01260778 -0.01212051 -0.01169459
 -0.01132984 -0.01103485 -0.01080843 -0.01065123 -0.01056509 -0.01055147 -0.01061561 -0.0107634 -0.01099657 -0.01132064
 -0.01172599 -0.01221304 -0.0127605 -0.01336363 -0.01400072 -0.01466657 -0.01534957 -0.01604754 -0.0167562 -0.01747532
 -0.01819605 -0.01891766 -0.01962459 -0.02031619 -0.02098028 -0.02161739 -0.02222355 -0.02279921 -0.02334383 -0.02385687
 -0.02433714 -0.02478389 -0.0251953 -0.02557183 -0.02591258 -0.02622021 -0.02649533 -0.0267428 -0.02696472 -0.02716499
 -0.02734578 -0.02750628 -0.02764688 -0.02776496 -0.02785978 -0.02793405 -0.02798775 -0.02802798 -0.02805499 -0.02807191
 -0.02807822 -0.02807043 -0.02804872 -0.02801128 -0.02796053 -0.02790226 -0.02783932 -0.02778059 -0.02772631 -0.0276809
 -0.02764258 -0.02761123 -0.02758511 -0.02756266 -0.02754404 -0.02752836 -0.02751838 -0.02751437 -0.0275203 -0.02753729
 -0.02756638 -0.02760831 -0.02765892 -0.02771809 -0.02777929 -0.02784224 -0.02790289 -0.02796122 -0.02801585 -0.0280663
 -0.02810998 -0.02814571 -0.02816846 -0.02817758 -0.0281689 -0.02814342 -0.02810019 -0.02804206 -0.02797095 -0.02789071
 -0.02780393 -0.02771504 -0.02762641 -0.027542 -0.02746352 -0.02739329 -0.02733205 -0.02728127 -0.02724112 -0.02721351
 -0.02719862 -0.0271977 -0.02721074 -0.02723545 -0.02727135 -0.02731303 -0.02736014 -0.02740818 -0.02745728 -0.02750554
 -0.02755295 -0.02759882 -0.02764234 -0.02768228 -0.02771742 -0.02774606 -0.02776758 -0.02778068 -0.02778647 -0.02778457
 -0.02777828 -0.02776825 -0.02775849 -0.02775008 -0.02774489 -0.02774357 -0.02774483 -0.02774872 -0.02775206 -0.02775466
 -0.0277531 -0.02774719 -0.02773396 -0.02771336 -0.02768336 -0.02764437 -0.02759632 -0.02754033 -0.0274784 -0.02741203
 -0.02734439 -0.02727591 -0.02720885 -0.02714098 -0.02707192 -0.02699802 -0.02691699 -0.02682824 -0.02673015 -0.02662747
 -0.02652055 -0.02641568 -0.02631408 -0.02621762 -0.02612676 -0.02603864 -0.02595315 -0.02586794 -0.02578324 -0.02570084
 -0.02562113 -0.02554758 -0.02547966 -0.02541796 -0.02536084 -0.02530485 -0.02524901 -0.02518963 -0.02512852 -0.02506561
 -0.02500458 -0.02494835 -0.0248985 -0.02485732 -0.0248223 -0.02479324 -0.02476724 -0.02474315 -0.02472186 -0.02470304
 -0.02469067 -0.02468513 -0.02468858 -0.02470113 -0.02472082 -0.02474737 -0.02477697 -0.02480957 -0.02484284 -0.02487706
 -0.02491198 -0.02494764 -0.02498413 -0.02502106 -0.02505794 -0.02509413 -0.02512865 -0.02516138 -0.02519169 -0.02522037
 -0.02524734 -0.0252744 -0.02530236 -0.02533137 -0.02536218 -0.02539127 -0.0254185 -0.02543867 -0.02545114 -0.02545449
 -0.02544864 -0.02543695 -0.02541957 -0.02539959 -0.02537658 -0.02534988 -0.02531895 -0.02528145 -0.02523738 -0.02518558
 -0.02512621 -0.02505914 -0.02498416 -0.02490082 -0.02480953 -0.02471024 -0.02460405 -0.02449169 -0.02437324 -0.02424934
 -0.0241179 -0.02397879 -0.02382898 -0.0236679 -0.02349407 -0.02330713 -0.0231086 -0.02289858 -0.02268142 -0.02245745
 -0.02223195 -0.02200515 -0.02178102 -0.02155974 -0.02134396 -0.02113401 -0.02093207 -0.02073823 -0.02055397 -0.02037813
 -0.02021054 -0.02004855 -0.01989029 -0.01973314 -0.01957491 -0.01941536 -0.0192534 -0.01909165 -0.01893021 -0.01877316
 -0.01862125 -0.01847663 -0.01833989 -0.01820807 -0.01808106 -0.0179508 -0.0178168 -0.01767044 -0.01751196 -0.01733813
 -0.01715013 -0.01695054 -0.01674019 -0.01652274 -0.01629747 -0.01606495 -0.01582403 -0.01557326 -0.01531308 -0.01504256
 -0.01476496 -0.01448102 -0.01419603 -0.01391122 -0.01363393 -0.01336556 -0.0131144 -0.01288183 -0.01267448 -0.01249334
 -0.01233978 -0.01221396 -0.01211203 -0.01203373 -0.01197423 -0.01193343 -0.01190861 -0.0118993 -0.01190288 -0.01191773
 -0.01193875 -0.01196432 -0.01198894 -0.0120131 -0.01203524 -0.01205615 -0.01207687 -0.01209501 -0.01211022 -0.01211805
 -0.01211628 -0.01210418 -0.01208061 -0.01204889 -0.01200951 -0.01196429 -0.01191367 -0.01185603 -0.0117913 -0.01171871
 -0.01163845 -0.01155313 -0.01146307 -0.01137167 -0.01127912 -0.0111875 -0.01109765 -0.01101204 -0.01093294 -0.01086501
 -0.01081077 -0.01077531 -0.01075932 -0.01076565 -0.01079218 -0.01083879 -0.01090238 -0.01098166 -0.01107483 -0.0111812
 -0.01129988 -0.01143092 -0.0115718 -0.01172266 -0.01187702 -0.01203455 -0.0121855 -0.01232944 -0.01245835 -0.01257277
 -0.01267198 -0.01275746 -0.01283482 -0.01290468 -0.01297224 -0.01303561 -0.01309413 -0.01314518 -0.01318487 -0.01321269
 -0.01322603 -0.01322791 -0.01321843 -0.01320352 -0.01318463 -0.01316972 -0.01316057 -0.0131657 -0.01318684 -0.01322967
 -0.01329532 -0.01338314 -0.01349328 -0.01361833 -0.01375782 -0.0139025 -0.01405247 -0.01420351 -0.01435678 -0.01451507
 -0.01467867 -0.01485067 -0.01502852 -0.01520961 -0.01539017 -0.01556414 -0.01572989 -0.01588349 -0.01602608 -0.01615716
 -0.01627831 -0.01638965 -0.01649397 -0.01659139 -0.01668743 -0.01678273 -0.01688394 -0.01699205 -0.01710964 -0.01723706
 -0.01737079 -0.01751044 -0.0176483 -0.01778383 -0.01790932 -0.01802487 -0.01812652 -0.01821531 -0.01829178 -0.01835728
 -0.01841447 -0.01846436 -0.0185091 -0.01854979 -0.01858789 -0.01862483 -0.01866197 -0.01869977 -0.01873906 -0.01877845
 -0.01881786 -0.01885542 -0.01889043 -0.01892401 -0.01895602 -0.01898936 -0.01902426 -0.01906088 -0.01909904 -0.01913467
 -0.01916758 -0.01919403 -0.01921461 -0.01922987 -0.01924047 -0.01924891 -0.01925449 -0.01925704 -0.0192558 -0.01924911
 -0.01923843 -0.01922415 -0.01920874 -0.01919426 -0.01918074 -0.01916899 -0.01915736 -0.01914514 -0.0191331 -0.01912088
 -0.01911191 -0.01910668 -0.0191064 -0.01911137 -0.0191171 -0.01912325 -0.01912255 -0.01911484 -0.01909529 -0.01906479
 -0.01902424 -0.01897534 -0.01892342 -0.01886924 -0.01881729 -0.01876613 -0.01871583 -0.01866449 -0.01860961 -0.01855233
 -0.01849206 -0.01843209 -0.01837433 -0.01831855 -0.01826597 -0.01821131 -0.01815376 -0.01808895 -0.01801571 -0.01793699
 -0.01785282 -0.01776888 -0.01768533 -0.01760345 -0.01752289 -0.01744071 -0.01735771 -0.01727539 -0.017196 -0.01712713
 -0.01706966 -0.01702999 -0.01700511 -0.01699449 -0.01699269 -0.0169945 -0.01699571 -0.01699197 -0.01698144 -0.0169623
 -0.01693394 -0.01689557 -0.01684826 -0.01679157 -0.01672998 -0.01666373 -0.01659904 -0.01653654 -0.01647736 -0.01642132
 -0.0163606 -0.01629456 -0.01621342 -0.01611841 -0.01600898 -0.01588879 -0.01576846 -0.01565046 -0.0155461 -0.01545261
 -0.01537219 -0.01529785 -0.01522366 -0.01514439 -0.01505353 -0.01495296 -0.01484058 -0.01472435 -0.01460603 -0.01449293
 -0.01438742 -0.01429022 -0.01420202 -0.01411973 -0.01404314 -0.01397087 -0.0139029 -0.01383912 -0.01377917 -0.01371959
 -0.01365981 -0.01359464 -0.01352476 -0.01344967 -0.01336989 -0.01328735 -0.0131994 -0.0131034 -0.01299626 -0.01287181
 -0.01273517 -0.01258535 -0.01243613 -0.01229364 -0.01216753 -0.01206385 -0.01197928 -0.01191502 -0.01186135 -0.01181696
 -0.01177654 -0.01173937 -0.01170602 -0.0116765 -0.01165127 -0.01163005 -0.01161046 -0.01159212 -0.01157189 -0.01154988
 -0.01152483 -0.01149699 -0.01146657 -0.01143308 -0.0113963 -0.01135463 -0.01130633 -0.01125051 -0.01118517 -0.01111299
 -0.0110339 -0.0109536 -0.01087385 -0.01079899 -0.01073094 -0.01066792 -0.01061054 -0.0105513 -0.01048969 -0.01041854
 -0.0103376 -0.01024679 -0.01014682 -0.01004492 -0.009941921 -0.009846251 -0.009757487 -0.009678992 -0.009609235 -0.009546572
 -0.009489735 -0.009436174 -0.009385058 -0.009334888 -0.009284348 -0.009232302 -0.00917709 -0.009117161 -0.009053422 -0.008985396
 -0.008916284 -0.008847035 -0.008778068 -0.008710091 -0.008638243 -0.008562121 -0.00847859 -0.008387583 -0.008295127 -0.008201912
 -0.008118258 -0.008043443 -0.00797977 -0.007924376 -0.007869025 -0.007811665 -0.007743111 -0.007664406 -0.007572689 -0.007470881
 -0.007360733 -0.007245459 -0.007127418 -0.0070104 -0.006896244 -0.006789736 -0.006692911 -0.006608597 -0.006538392 -0.006480149
 -0.006434247 -0.006394512 -0.006360421 -0.006327562 -0.006295724 -0.006266519 -0.006240228 -0.006221276 -0.006208839 -0.006201476
 -0.006196459 -0.006183717 -0.006161521 -0.006119568 -0.006061282 -0.005985983 -0.005901471 -0.005816458 -0.00573489 -0.005664827
 -0.005599491 -0.005538922 -0.005471495 -0.005391487 -0.005298882 -0.005190243 -0.005081558 -0.004974353 -0.004884417 -0.004814103
 -0.004761529 -0.004726643 -0.004694058 -0.004663354 -0.004624418 -0.004578923 -0.004531214 -0.004483191 -0.004444545 -0.004414103
 -0.004394922 -0.004382706 -0.004372444 -0.004359423 -0.004336517 -0.004300909 -0.004247861 -0.004177451 -0.004087674 -0.003982474
 -0.003861633 -0.003733696 -0.003600021 -0.003470324 -0.003346652 -0.003232479 -0.003128786 -0.003030266 -0.002936672 -0.002841064
 -0.002743392 -0.002641408 -0.002535457 -0.002426449 -0.002314545 -0.002200229 -0.002084627 -0.001969969 -0.001858826 -0.001756625
 -0.001664363 -0.001586343 -0.00151926 -0.001462132 -0.001411411 -0.001363978 -0.001321406 -0.001283332 -0.00125274 -0.001231436
 -0.00121498 -0.001203726 -0.001187428 -0.001164949 -0.001131424 -0.001086489 -0.001034606 -0.0009761747 -0.000917927 -0.0008597731
 -0.0008046302 -0.0007518521 -0.0007011078 -0.0006508689 -0.0005975358 -0.0005394144 -0.0004711928 -0.0003944715 -0.0003084433 -0.000216709
 -0.0001234281 -2.584502E-05 7.516269E-05 0.0001872601 0.0003163235 0.0004534436 0.0006023838 0.0007267668 0.0008195178 0.0008667413
 0.0008631942 0.0008462528 0.0008178026 0.0008118341 0.0008280972 0.0008677958 0.0009278948 0.000990103 0.001052099 0.001095564
 0.001120164 0.001115429 0.001083299 0.001019894 0.0009341849 0.0008323198 0.0007303545 0.0006438565 0.0005817107 0.0005567225
 0.0005585256 0.0005884069 0.0006261257 0.0006657292 0.000698638 0.0007208261 0.0007414862 0.000760905 0.0007904556 0.0008309755
 0.0008803431 0.0009377775 0.0009900088 0.001036272 0.001064759 0.00107615 0.001066318 0.001037308 0.0009908885 0.0009318582
 0.0008677412 0.0008064259 0.0007612437 0.0007346568 0.0007368316 0.0007554017 0.0007881694 0.0008171754 0.0008328444 0.0008325941
 0.0008111034 0.0007845333 0.0007539904 0.0007387957 0.0007417454 0.0007684426 0.0008196477 0.0008836035 0.000959517 0.001032144
 0.001102118 0.001166272 0.001226452 0.001289299 0.001353812 0.001421573 0.001488913 0.001549264 0.001602012 0.001642528
 0.001674975 0.001701632 0.001724988 0.001748168 0.001768514 0.001785344 0.001797654 0.001803742 0.001810199 0.001817522
 0.001833847 0.001860474 0.001898564 0.001948346 0.00200654 0.00207301 0.002145537 0.002223895 0.002305674 0.002390196
 0.00247304 0.002554424 0.002632322 0.00270809 0.002784152 0.002859138 0.002933422 0.003002209 0.003060412 0.003108061
 0.003141376 0.003170092 0.003197177 0.00323062 0.003275168 0.003324927 0.003380257 0.003430413 0.003473411 0.003511022
 0.003543001 0.003581417 0.003626536 0.003682943 0.003749136 0.003815983 0.003881912 0.00393498 0.003975885 0.003999948
 0.004009647 0.004007316 0.003995205 0.00397741 0.003954521 0.003928633 0.003899143 0.003865265 0.003830005 0.003792861
 0.003762902 0.003742818 0.003738107 0.00375241 0.003773671 0.003802309 0.003812828 0.003803437 0.003757573 0.003675144
 0.003559462 0.003412001 0.003245124 0.003060513 0.002870119 0.002678353 0.002502629 0.002348405 0.002237246 0.002163606
 0.002134461 0.002127094 0.00212452 0.002105568 0.0020474 0.001955443 0.001821211 0.00167548 0.001523857 0.001397657
 0.001305027 0.001257518 0.001259366 0.001296323 0.001368294 0.001442597 0.001518711</values></Ydata></AB><ScSm><Ydata ylabel="Single channel"><values byteorder="INTEL" format="FLOAT32" numvalues="1814"> 0.08938359 0.08949517 0.08962377 0.08977634 0.08994354 0.09010739 0.09025432 0.09038325 0.09050003 0.09060639
 0.09070322 0.09080508 0.09093526 0.09110008 0.09127823 0.09143852 0.09156331 0.09166204 0.0917678 0.09190732
 0.09206264 0.09217358 0.09219243 0.09213611 0.09207671 0.09207828 0.09215488 0.09230512 0.09255339 0.09288797
 0.09317207 0.09323132 0.09307235 0.09291459 0.09294766 0.09314181 0.09333713 0.09342006 0.0933677 0.09323509
 0.09318037 0.09341469 0.0940108 0.09474605 0.0951716 0.09487241 0.09374477 0.09214491 0.09080229 0.09043837
 0.09124562 0.09267057 0.09382772 0.09421465 0.09398364 0.09355971 0.09319947 0.09298827 0.09303565 0.0934523
 0.09416664 0.09485573 0.09507269 0.09453914 0.0934618 0.09249422 0.09220426 0.09263405 0.09350166 0.09453985
 0.09524043 0.09460375 0.09202847 0.08865051 0.08698139 0.0885855 0.09244259 0.09601003 0.09753685 0.09698126
 0.09526786 0.09347712 0.09256794 0.09304461 0.09462099 0.09650475 0.09803116 0.09884257 0.09871626 0.09766561
 0.0961557 0.09490807 0.09450191 0.09520884 0.09688015 0.09877613 0.09986299 0.09962937 0.09846795 0.09716439
 0.09632169 0.09633112 0.09739381 0.09927848 0.1013515 0.1030492 0.1041685 0.1047323 0.1048461 0.1046813
 0.104395 0.1041082 0.1040209 0.1043065 0.104772 0.1049036 0.1044385 0.1037211 0.1033521 0.1035689
 0.1040433 0.1042774 0.1040964 0.1035489 0.1023988 0.1002465 0.09735142 0.09475319 0.09325441 0.09285943
 0.09343842 0.095071 0.09725119 0.0986454 0.09843615 0.09742451 0.09716307 0.09828182 0.1000992 0.1016237
 0.1025179 0.1031523 0.1040241 0.1051913 0.1061248 0.1060918 0.1048978 0.1033538 0.1027383 0.1035614
 0.1050738 0.1062007 0.1066789 0.1070172 0.1075966 0.1081126 0.1078384 0.1063986 0.1044184 0.1033047
 0.1040879 0.1063992 0.1086628 0.1092882 0.1078032 0.1051057 0.1027077 0.1016508 0.1021063 0.1038092
 0.106425 0.1093854 0.1118071 0.112943 0.1126968 0.1115947 0.1102127 0.1086418 0.1067014 0.104779
 0.1040443 0.1053516 0.1081391 0.1108792 0.1124872 0.1129183 0.1125413 0.1114017 0.109326 0.1066888
 0.1047505 0.1047216 0.1063856 0.1081623 0.1087897 0.1085019 0.1083002 0.1085805 0.1089189 0.1089179
 0.1087877 0.1090429 0.1098495 0.1108206 0.1114349 0.1115225 0.1113037 0.1110773 0.1109366 0.1107176
 0.1102503 0.1097381 0.1097374 0.1105692 0.1118844 0.1130125 0.1136208 0.1138443 0.1138788 0.1136541
 0.1129583 0.111856 0.1108898 0.1106934 0.1113746 0.1124352 0.1133026 0.113755 0.113858 0.113747
 0.1135393 0.1133069 0.1130896 0.1129711 0.1130643 0.113361 0.1136903 0.1138866 0.1139232 0.1138513
 0.1136932 0.1134442 0.113141 0.1128845 0.112777 0.1128404 0.1130106 0.1132037 0.1133538 0.1134018
 0.1133163 0.1131354 0.1129399 0.1127797 0.112659 0.1125828 0.1125727 0.1126293 0.11271 0.1127611
 0.1127597 0.1127156 0.1126416 0.1125414 0.1124244 0.1123157 0.1122458 0.1122321 0.1122625 0.1123013
 0.1123287 0.1123662 0.1124334 0.1124939 0.1124874 0.1124077 0.1123121 0.1122584 0.1122592 0.1122927
 0.1123269 0.11233 0.1122747 0.112157 0.1120195 0.1119406 0.1119763 0.1121194 0.1123236 0.1125423
 0.1127327 0.1128613 0.1129322 0.1129844 0.1130438 0.1130994 0.1131333 0.1131556 0.113203 0.1133091
 0.1134725 0.1136536 0.1138091 0.1139222 0.1139994 0.1140608 0.11414 0.1142581 0.1143858 0.1144676
 0.1144948 0.1145226 0.1146004 0.1147127 0.1148038 0.1148442 0.1148587 0.114894 0.1149697 0.1150658
 0.1151538 0.1152289 0.1153096 0.1154088 0.1155063 0.1155563 0.1155334 0.115466 0.1154103 0.1153933
 0.1154028 0.1154249 0.1154654 0.1155269 0.1155868 0.1156131 0.1155972 0.1155629 0.1155386 0.115525
 0.1154962 0.1154326 0.1153431 0.1152535 0.1151824 0.1151302 0.1150827 0.1150222 0.114939 0.114835
 0.1147187 0.1145976 0.114474 0.1143496 0.1142389 0.1141678 0.114142 0.114119 0.1140319 0.1138521
 0.1136187 0.1134006 0.1132384 0.1131222 0.1130144 0.1128859 0.1127347 0.1125794 0.1124402 0.1123248
 0.1122272 0.1121387 0.1120612 0.1120115 0.1120047 0.1120273 0.1120375 0.1120027 0.111932 0.1118632
 0.1118221 0.1118065 0.1118039 0.1118094 0.1118261 0.1118588 0.111906 0.1119552 0.1119905 0.1120118
 0.1120379 0.1120899 0.1121776 0.1123 0.1124417 0.1125713 0.1126625 0.1127251 0.1127981 0.1129084
 0.1130488 0.1131991 0.1133539 0.1135204 0.1137021 0.113897 0.1141071 0.1143396 0.1145979 0.114876
 0.1151605 0.1154386 0.1157072 0.1159776 0.1162687 0.1165925 0.1169436 0.1173041 0.1176572 0.1179991
 0.1183382 0.118684 0.1190379 0.1193981 0.1197693 0.1201592 0.1205652 0.1209735 0.1213728 0.1217645
 0.1221575 0.122558 0.1229657 0.1233794 0.1238032 0.1242436 0.1246943 0.1251294 0.1255238 0.1258819
 0.1262362 0.1266163 0.1270258 0.1274455 0.1278483 0.1282153 0.1285504 0.1288801 0.1292277 0.1295895
 0.1299476 0.1303024 0.1306783 0.1310921 0.1315217 0.1319172 0.1322458 0.1325236 0.1327981 0.1330982
 0.1334089 0.1336983 0.1339594 0.1342143 0.1344808 0.1347563 0.1350371 0.1353357 0.1356622 0.1359997
 0.1363157 0.1365966 0.136856 0.1371088 0.1373519 0.1375704 0.1377577 0.1379257 0.1380984 0.138294
 0.1385098 0.1387294 0.1389455 0.1391676 0.1394067 0.1396638 0.1399392 0.1402409 0.1405709 0.140912
 0.1412436 0.1415712 0.1419219 0.1423015 0.1426735 0.1429953 0.1432652 0.1435169 0.1437779 0.1440547
 0.1443522 0.1446817 0.1450457 0.1454289 0.1458084 0.1461682 0.1465106 0.1468561 0.1472236 0.1476018
 0.1479523 0.1482474 0.1484994 0.1487476 0.1490247 0.1493356 0.1496604 0.1499726 0.150256 0.1505036
 0.1507026 0.1508336 0.1508923 0.1508993 0.1508749 0.1508092 0.1506688 0.1504267 0.1500728 0.1495973
 0.1489845 0.1482302 0.1473664 0.1464667 0.1456355 0.1449842 0.1446048 0.1445481 0.1448156 0.14536
 0.1460894 0.146883 0.1476156 0.1481786 0.1484855 0.148479 0.1481463 0.147527 0.1466959 0.1457361
 0.1447212 0.1437072 0.1427348 0.1418526 0.1411533 0.1407818 0.1408955 0.1416072 0.1429432 0.1448195
 0.1470394 0.1493377 0.1514755 0.153327 0.1548908 0.1562313 0.1574161 0.1584941 0.159501 0.160459
 0.1613722 0.1622334 0.1630394 0.1637928 0.1644913 0.1651196 0.1656551 0.1660765 0.1663729 0.1665537
 0.1666479 0.1666924 0.1667203 0.1667566 0.1668083 0.1668462 0.1668026 0.1666031 0.1662083 0.1656376
 0.1649771 0.1643849 0.1640843 0.164313 0.1652232 0.1667851 0.1687791 0.1708981 0.1728819 0.1745846
 0.1759636 0.1770445 0.177893 0.1785856 0.1791831 0.1797254 0.180237 0.1807304 0.1812074 0.1816674
 0.1821142 0.1825554 0.182998 0.1834452 0.1838925 0.1843303 0.1847548 0.1851734 0.1855983 0.1860344
 0.1864756 0.1869103 0.1873334 0.1877531 0.1881803 0.1886123 0.1890335 0.1894349 0.1898245 0.1902184
 0.1906256 0.1910435 0.1914606 0.1918631 0.192243 0.1926025 0.1929513 0.1932979 0.1936466 0.1939981
 0.1943515 0.194703 0.1950479 0.1953846 0.1957184 0.1960561 0.1963956 0.196725 0.1970356 0.1973316
 0.197625 0.1979232 0.198225 0.198527 0.1988294 0.199136 0.1994506 0.1997734 0.2000993 0.2004198
 0.2007295 0.2010304 0.2013298 0.2016343 0.2019448 0.2022575 0.2025674 0.2028713 0.2031691 0.203464
 0.2037607 0.2040612 0.2043633 0.2046632 0.2049591 0.2052506 0.2055385 0.2058243 0.2061104 0.2063981
 0.2066875 0.2069778 0.207267 0.2075524 0.207831 0.208101 0.2083634 0.2086243 0.2088924 0.209172
 0.2094588 0.2097444 0.2100237 0.2102968 0.2105685 0.2108436 0.2111233 0.2114049 0.2116864 0.2119679
 0.2122504 0.2125337 0.212817 0.2130987 0.213377 0.2136513 0.2139222 0.2141901 0.2144567 0.2147258
 0.2150005 0.2152794 0.2155588 0.2158349 0.2161067 0.2163764 0.2166475 0.2169197 0.21719 0.2174577
 0.2177263 0.2179998 0.2182792 0.2185623 0.2188437 0.2191193 0.2193897 0.2196586 0.2199291 0.2202013
 0.2204735 0.2207428 0.2210083 0.2212738 0.221543 0.2218173 0.2220974 0.2223827 0.2226682 0.222947
 0.2232182 0.2234859 0.2237526 0.2240194 0.2242879 0.2245583 0.2248282 0.2250965 0.2253649 0.2256349
 0.2259082 0.2261859 0.2264665 0.2267486 0.2270334 0.2273212 0.2276082 0.227893 0.2281799 0.228473
 0.228771 0.2290689 0.2293597 0.2296377 0.2299035 0.2301627 0.2304177 0.2306681 0.2309168 0.2311687
 0.2314254 0.2316863 0.2319502 0.2322136 0.2324765 0.2327446 0.2330211 0.2333009 0.2335798 0.23386
 0.2341441 0.2344323 0.2347251 0.2350206 0.2353135 0.2356027 0.2358921 0.2361824 0.2364719 0.2367632
 0.2370588 0.2373556 0.2376509 0.2379459 0.2382399 0.238532 0.2388251 0.2391198 0.2394129 0.2397049
 0.2399988 0.2402928 0.2405863 0.2408862 0.2411938 0.2414989 0.2417965 0.2420925 0.2423907 0.2426902
 0.2429923 0.2432948 0.243592 0.2438861 0.2441856 0.24449 0.2447947 0.2451008 0.2454076 0.2457096
 0.24601 0.2463157 0.2466199 0.2469141 0.2472045 0.2474977 0.2477871 0.2480669 0.2483381 0.2485944
 0.2488152 0.2489415 0.2488033 0.2480438 0.2460781 0.2421059 0.2352698 0.2250066 0.2114034 0.1952872
 0.1779802 0.1608755 0.1450643 0.1312078 0.1196441 0.1105378 0.1039807 0.1000835 0.09905028 0.1012767
 0.1074874 0.1183122 0.132699 0.1465286 0.1541532 0.152685 0.1446232 0.1355833 0.1297142 0.127665
 0.1280192 0.1293893 0.1312283 0.1336698 0.1370504 0.1414171 0.1464775 0.1520874 0.1585324 0.1660976
 0.174515 0.1830606 0.1911626 0.198776 0.2061719 0.2134806 0.2205045 0.2269088 0.2324825 0.2372155
 0.2412314 0.2447038 0.2477874 0.2505865 0.2531685 0.2555664 0.2577316 0.2595188 0.2607698 0.2614384
 0.2616467 0.261629 0.2616045 0.2616825 0.261876 0.2621703 0.2625541 0.2630134 0.2635337 0.2641041
 0.2647086 0.2653269 0.2659469 0.2665602 0.2671516 0.2677078 0.2682272 0.2687136 0.269172 0.2696103
 0.2700331 0.2704383 0.2708265 0.271204 0.271573 0.2719328 0.2722888 0.2726447 0.2729912 0.2733145
 0.2736101 0.2738809 0.2741344 0.274383 0.2746353 0.2748901 0.2751439 0.2753971 0.275647 0.2758885
 0.2761217 0.276352 0.2765831 0.2768153 0.2770469 0.2772745 0.2774976 0.2777223 0.2779531 0.2781872
 0.2784216 0.278657 0.2788925 0.2791231 0.2793458 0.2795632 0.2797836 0.2800186 0.2802729 0.2805378
 0.2808022 0.2810661 0.2813347 0.2816063 0.2818751 0.2821373 0.2823915 0.2826399 0.2828907 0.2831489
 0.283407 0.2836514 0.2838754 0.2840842 0.2842921 0.2845137 0.2847507 0.284991 0.2852246 0.2854535
 0.2856837 0.2859155 0.2861458 0.2863735 0.2866008 0.2868347 0.2870831 0.2873462 0.2876177 0.2878954
 0.2881812 0.2884717 0.2887601 0.2890438 0.2893232 0.2895949 0.2898549 0.2901084 0.2903714 0.29066
 0.2909749 0.2912961 0.2916012 0.2918862 0.2921639 0.2924497 0.2927518 0.2930631 0.2933528 0.2935897
 0.2937873 0.2940096 0.2943151 0.2947034 0.2951249 0.2955296 0.2958983 0.2962411 0.2965756 0.296907
 0.2972242 0.2975134 0.297781 0.2980632 0.2984009 0.2987945 0.2991982 0.2995684 0.2998991 0.3002044
 0.3004948 0.300779 0.3010509 0.3012686 0.3013951 0.3014818 0.3016631 0.3020292 0.3025272 0.3030175
 0.3034149 0.3037401 0.3040466 0.3043487 0.3046339 0.304877 0.305005 0.304933 0.3047216 0.3046318
 0.304911 0.3055415 0.3062769 0.3068925 0.307333 0.307655 0.3079263 0.3081802 0.3083963 0.3085032
 0.3084558 0.3083468 0.3083909 0.3087302 0.3092732 0.3097925 0.3101625 0.3104298 0.3106849 0.3109613
 0.3112177 0.3113196 0.3110986 0.3105855 0.3101602 0.3102999 0.3111143 0.312218 0.3131173 0.3136484
 0.3139679 0.3142004 0.3142565 0.3139936 0.3133866 0.3125378 0.3117237 0.311434 0.3120495 0.3133555
 0.3146332 0.3153785 0.3157335 0.3161244 0.3167101 0.3173128 0.3177091 0.3178324 0.3177424 0.3174915
 0.3170936 0.3166739 0.3165635 0.317064 0.3180936 0.3192066 0.320015 0.3204944 0.3208022 0.3208256
 0.3200671 0.318235 0.3160162 0.3149007 0.3158553 0.3183036 0.3207501 0.3222603 0.3229691 0.3233722
 0.3236839 0.323785 0.3232123 0.321303 0.3180928 0.3151122 0.3144637 0.3167498 0.3203985 0.3231867
 0.3239418 0.322789 0.320589 0.3185366 0.3177294 0.3185715 0.3206073 0.3229856 0.3249696 0.3261341
 0.3263904 0.3259432 0.3252045 0.3246818 0.3246605 0.324771 0.3242193 0.3228191 0.3213567 0.3203789
 0.3191842 0.316968 0.3146232 0.3141816 0.3163068 0.3193389 0.3212184 0.3215894 0.3214301 0.3210679
 0.3193726 0.3152493 0.3096845 0.3057009 0.3057622 0.3093104 0.3133229 0.3152825 0.3151571 0.3145146
 0.3143207 0.3139217 0.312016 0.3084959 0.3051471 0.3040472 0.3052366 0.306652 0.3064089 0.3041236
 0.299912 0.2939098 0.2878321 0.2852864 0.2885787 0.2958253 0.3026161 0.305819 0.3045467 0.2988301
 0.2899327 0.2817076 0.2788593 0.2825935 0.2892009 0.2936497 0.2935501 0.289232 0.2816747 0.2720767
 0.262926 0.2577 0.258646 0.2649845 0.273071 0.2779863 0.276056 0.2677937 0.2586125 0.2547369
 0.2573586 0.2618713 0.2632902 0.2609298 0.2573547 0.2548699 0.2542441 0.2551746 0.2566444 0.2577203
 0.2582776 0.2576772 0.2534209 0.2439346 0.2327513 0.2266536 0.2286763 0.2356402 0.2433008 0.2506169
 0.2574282 0.2613948 0.2604948 0.2570677 0.2563367 0.2608207 0.2679046 0.2731349 0.2747096 0.274205
 0.2736458 0.2730515 0.2714772 0.2696853 0.2701592 0.2740343 0.2793403 0.283152 0.284532 0.2845293
 0.2842097 0.2837695 0.2830813 0.2821287 0.2809603 0.2797008 0.2785434 0.27753 0.2765197 0.2754557
 0.2742864 0.2723704 0.2685309 0.2625885 0.2566773 0.2537843 0.2546236 0.2571782 0.2595984 0.2615485
 0.2618043 0.257254 0.2469729 0.2358766 0.2313427 0.2360844 0.2459892 0.2547263 0.2587474 0.2577255
 0.2524072 0.2442726 0.2370705 0.2361815 0.2444673 0.2592512 0.2746963 0.2867276 0.2945926 0.2986124
 0.2986187 0.2951045 0.2905503 0.2884654 0.2909904 0.2974954 0.3050776 0.309907 0.3088765 0.302146
 0.2948835 0.2941506 0.3018752 0.3122807 0.3182634 0.3188547 0.3182219 0.3190651 0.320285 0.3206156
 0.321222 0.3236993 0.3274344 0.3301076 0.3297788 0.3257096 0.3183612 0.3099691 0.3042021 0.3032815
 0.3055622 0.3074497 0.3071024 0.3044845 0.2991187 0.2910859 0.2838703 0.2824898 0.2878059 0.2952384
 0.2999902 0.3015093 0.302021 0.3024946 0.3014938 0.2975761 0.2918367 0.2874318 0.2864736 0.2880265
 0.2896311 0.2899667 0.2890716 0.2868127 0.2828721 0.2783483 0.275892 0.2773748 0.2819122 0.2867453
 0.2897913 0.2909237 0.2911568 0.2913556 0.2917687 0.2921896 0.292393 0.2927408 0.2942178 0.2973408
 0.3011958 0.3042431 0.3060756 0.3077517 0.310309 0.313498 0.3161718 0.3175598 0.3179514 0.318321
 0.3194416 0.3212499 0.3229204 0.3236013 0.323253 0.3227994 0.3233101 0.3249928 0.3271088 0.328828
 0.3299332 0.3307112 0.3314813 0.3323271 0.3330597 0.3333775 0.333264 0.3332372 0.3339608 0.3355396
 0.337375 0.3387577 0.3394451 0.3396308 0.339547 0.3392476 0.3387163 0.3380425 0.3374266 0.3370374
 0.3369003 0.3369235 0.336998 0.3370604 0.3370996 0.3371451 0.3372426 0.3374124 0.3376335 0.3378749
 0.338118 0.3383397 0.3385095 0.3386255 0.3387213 0.338811 0.3388446 0.3387373 0.338422 0.3378587
 0.3370143 0.3358585 0.3343664 0.332503 0.3302315 0.3276228 0.3250284 0.3231084 0.3225527 0.3236439
 0.3260373 0.3289598 0.3316469 0.3336676 0.3349617 0.3356796 0.3360129 0.3361108 0.3360646 0.3359161
 0.3356812 0.3353772 0.3350317 0.33467 0.3343108 0.3339733 0.3336773 0.3334288 0.3332117 0.3329899
 0.3327197 0.3323678 0.3319235 0.3313951 0.3307908 0.3301025 0.3293038 0.3283715 0.3273149 0.3261851
 0.3250515 0.3239651 0.3229352 0.3219299 0.3208989 0.3197943 0.3185588 0.3171199 0.3154557 0.3136883
 0.3120499 0.3106992 0.3095852 0.3085174 0.3073404 0.3060147 0.304572 0.3030539 0.3014913 0.299903
 0.2982911 0.2966421 0.2949327 0.2931386 0.2912465 0.2892581 0.2871793 0.285015 0.2827804 0.2804993
 0.2781653 0.2757004 0.2729592 0.2697787 0.2660277 0.2616299 0.2565789 0.2509587 0.2449491 0.2387868
 0.2327041 0.2268909 0.2214962 0.2166461 0.2124504 0.2089992 0.2063588 0.2045685 0.2036447 0.2035866
 0.2043786 0.2059815 0.2083199 0.2112748 0.2146856 0.2183618 0.2220992 0.2257059 0.2290502 0.232106
 0.2349414 0.2376376 0.2402114 0.2426177 0.2448083 0.2467676 0.2484963 0.2499879 0.2512338 0.252246
 0.2530649 0.2537439 0.2543259 0.2548274 0.2552403 0.2555511 0.2557668 0.2559249 0.256079 0.2562744
 0.2565357 0.2568692 0.257274 0.2577525 0.2583147 0.2589741 0.2597362 0.2605855 0.2614871 0.2624077
 0.2633416 0.2643134 0.2653631 0.2665324 0.2678595 0.2693707 0.2710653 0.2729037 0.2748034 0.2766472
 0.278311 0.2796983 0.2807613 0.2815008 0.281949 0.2821442 0.2821147 0.2818852 0.2814889 0.2809617
 0.2803293 0.2796084 0.2788153 0.2779625 0.2770483 0.276062 0.2750065 0.2739135 0.2728285 0.2717798
 0.270768 0.2697853 0.2688301 0.2679024 0.2669958 0.2661019 0.2652169 0.2643459 0.2635032 0.2627015
 0.261937 0.2611861 0.2604122 0.2595673 0.2585979 0.2574647 0.2561555 0.2546775 0.2530435 0.2512679
 0.2493651 0.2473537 0.2452593 0.2431072 0.2409058 0.2386443 0.2363023 0.233859 0.2313164 0.2287307
 0.2262053 0.2238334 0.2216493 0.2196328 0.2177434 0.2159519 0.21425 0.2126353 0.211091 0.2095944
 0.2081399 0.2067399 0.2054111 0.204167 0.2030162 0.201965 0.2010257 0.2002131 0.1995237 0.1989319
 0.1984138 0.1979589 0.1975678 0.1972626 0.1970845 0.1970464 0.1970914 0.1971244 0.1970822 0.1969686
 0.196837 0.1967429 0.1967053 0.1967068 0.1967165 0.196687 0.1965373 0.1961654 0.1954764 0.1943954
 0.1928851 0.1909731 0.1887558 0.1863763 0.1840046 0.181807 0.1799032 0.1783531 0.1771696 0.176309
 0.1756679 0.1751458 0.1747234 0.1744683 0.1744696 0.1747402 0.1751467 0.1754685 0.1755943 0.1756471
 0.1758744 0.1764333 0.1772954 0.1783035 0.1792842 0.1801302 0.1808078 0.1813136 0.1816591 0.1818824
 0.1820205 0.1820724 0.1820174 0.1818473 0.1815602 0.1811585 0.1806604 0.1800789 0.1794017 0.1786193
 0.1777413 0.1767681 0.1756911 0.1745151 0.1732296 0.1717984 0.1702618 0.1688284 0.1678068 0.1674374
 0.1677619 0.1686013 0.1696828 0.1708218 0.1719405 0.1729324 0.1736696 0.1742189 0.1749323 0.1762101
 0.1781578 0.1804763 0.182677 0.1843978 0.1855128 0.1860222 0.1859677 0.1854341 0.1844838 0.1830961
 0.1812669 0.1791016 0.1767392 0.1742992 0.1719354 0.1697977 0.1679479 0.1664056 0.1651789 0.1642624
 0.1637188 0.1632654 0.1612692 0.1553229 0.1456725 0.1374168 0.1366422 0.1438472 0.1532274 0.1589007
 0.1598968 0.1587207 0.1574465 0.1565257 0.1558791 0.1555651 0.155617 0.1559094 0.1562152 0.1563116
 0.1561125 0.1556367 0.1547465 0.1529276 0.1492996 0.142933 0.1335352 0.1220815 0.1105994 0.1010899
 0.09454731 0.09076855 0.08878689 0.08753718 0.08646263 0.08570917 0.08577164 0.08698367 0.08933131 0.09260087
 0.09653147 0.1007904 0.1049223 0.1084852 0.1112791 0.1133683 0.1148777 0.1158592 0.1163461 0.11641
 0.1161267 0.1155577 0.1147638 0.1137806 0.1125904 0.111173 0.1096031 0.1080896 0.106886 0.1061218
 0.1057238 0.1055243 0.105415 0.1053675 0.1053707 0.1054162 0.1055129 0.1056737 0.1059056 0.1062106
 0.1065658 0.1069106 0.1071874 0.1073786 0.1074933 0.1075302 0.1074601 0.1072481 0.106919 0.1065696
 0.1062392 0.1057805 0.1049695 0.1037859 0.1025311 0.101643 0.1013955 0.1017327 0.1023369 0.1028612
 0.1031393 0.1032134 0.103198 0.1031269</values></Ydata></ScSm><ScRf><Ydata ylabel="Single channel"><values byteorder="INTEL" format="FLOAT32" numvalues="1820"> 0.06970494 0.06983405 0.06995019 0.07005285 0.07014693 0.07024266 0.07035069 0.0704742 0.07060689 0.07073824
 0.07086001 0.07097051 0.07107207 0.07116422 0.0712465 0.07132913 0.07143056 0.07155889 0.07170144 0.07183437
 0.07193972 0.07201979 0.07209983 0.07220544 0.07232826 0.07242315 0.07245071 0.07242064 0.07238588 0.07239364
 0.07245453 0.07257128 0.07276857 0.07303951 0.07327405 0.07333078 0.07321212 0.07309002 0.07311507 0.07326609
 0.07341895 0.07348508 0.07344721 0.07334985 0.07331777 0.07351591 0.0739987 0.07458782 0.07492757 0.07469067
 0.07379724 0.07253151 0.07147214 0.07118994 0.07183591 0.07297082 0.07389386 0.07420743 0.07403059 0.07369761
 0.07341124 0.07324195 0.07328045 0.07361603 0.07419014 0.07474435 0.07492404 0.07450949 0.07366432 0.07290509
 0.07268091 0.07302518 0.07371449 0.07453867 0.07509927 0.07460721 0.07258244 0.06991671 0.06859586 0.06986506
 0.07292636 0.07576951 0.07700038 0.07657381 0.07521579 0.0737856 0.07305147 0.07342076 0.07467143 0.07617609
 0.07740322 0.07806187 0.07797125 0.0771437 0.07595268 0.07497264 0.07466127 0.07523109 0.07656278 0.07807019
 0.07893443 0.07875231 0.07783957 0.07682173 0.07617284 0.07619563 0.07704695 0.07854734 0.08019842 0.08155381
 0.0824524 0.0829128 0.0830183 0.08290303 0.08268977 0.08247273 0.08240864 0.08263548 0.08300374 0.08310913
 0.08274367 0.08217908 0.08189169 0.08207107 0.0824585 0.08265983 0.08253516 0.0821193 0.08121916 0.07951334
 0.07721038 0.07514368 0.07395731 0.07365516 0.07413176 0.07544987 0.07720616 0.07833408 0.07817561 0.07736694
 0.07715111 0.07803883 0.07949162 0.08071879 0.08144883 0.08197469 0.08269091 0.08364184 0.08440381 0.08439052
 0.08344649 0.08222203 0.0817423 0.08241732 0.08364778 0.08457102 0.08497193 0.0852547 0.0857272 0.08615309
 0.08595587 0.08483334 0.08327879 0.08241345 0.08306187 0.08493312 0.0867703 0.08730121 0.08614323 0.08400977
 0.08211271 0.08129271 0.08169118 0.08309326 0.08522692 0.08763742 0.08961896 0.09057012 0.09040783 0.08955289
 0.08847307 0.08724649 0.08572641 0.08422105 0.08367237 0.08477238 0.08707077 0.08933449 0.09068619 0.09108914
 0.09084138 0.08997783 0.08835351 0.08626755 0.08474077 0.08475867 0.08615239 0.08764367 0.08820756 0.08803055
 0.08792403 0.08820972 0.08854233 0.08859738 0.08854705 0.08881366 0.08953395 0.09039211 0.09096149 0.09110197
 0.09099092 0.09087077 0.09081872 0.0907023 0.09038252 0.09002658 0.0900937 0.09085065 0.09200962 0.09301496
 0.09358916 0.09384346 0.09394133 0.09382509 0.093318 0.09247199 0.09173722 0.09164331 0.09228428 0.09324716
 0.09405145 0.09450721 0.09466853 0.09465225 0.09455936 0.09444918 0.09435216 0.0943358 0.09449251 0.09481394
 0.09515798 0.09539045 0.09549374 0.09551091 0.09545568 0.09532012 0.09513658 0.09499401 0.09498008 0.09511032
 0.09532709 0.09556007 0.09575717 0.09587082 0.09587186 0.09578875 0.0956917 0.09562868 0.09560536 0.09562213
 0.09569179 0.09581165 0.09594464 0.0960453 0.09609712 0.09611407 0.09611182 0.09609357 0.09606354 0.0960399
 0.09604904 0.09610721 0.09620286 0.09630191 0.09638602 0.09647639 0.09659372 0.09670725 0.09676058 0.09674358
 0.09670597 0.09670195 0.09674703 0.09682335 0.09690192 0.09695338 0.09695414 0.09690223 0.09683657 0.09682567
 0.09691711 0.09710234 0.09733794 0.09758181 0.09779878 0.09796186 0.09807226 0.09815924 0.09824434 0.09832123
 0.09837835 0.09842767 0.09850439 0.09863938 0.09882843 0.09903052 0.09920239 0.0993295 0.09942273 0.09950742
 0.09961825 0.09977194 0.09993351 0.1000431 0.1000904 0.1001329 0.100224 0.1003505 0.1004561 0.1005113
 0.1005419 0.1005936 0.1006833 0.1007902 0.1008866 0.1009699 0.1010613 0.101176 0.1012938 0.1013665
 0.101366 0.1013197 0.1012845 0.1012893 0.1013218 0.101367 0.1014296 0.1015117 0.1015901 0.1016321
 0.1016315 0.1016163 0.101618 0.1016367 0.1016443 0.1016177 0.101562 0.1015023 0.101461 0.1014439
 0.1014387 0.1014256 0.1013903 0.1013323 0.1012606 0.1011854 0.1011115 0.1010434 0.1009967 0.1009942
 0.1010332 0.1010609 0.1010063 0.100848 0.1006378 0.1004514 0.1003242 0.1002359 0.1001435 0.1000204
 0.09987055 0.09971615 0.09957673 0.09945734 0.09934963 0.0992422 0.09913559 0.0990494 0.09900371 0.09898678
 0.09895265 0.09886421 0.09873205 0.09859955 0.09849796 0.09842783 0.09837503 0.09832908 0.09828931 0.09826414
 0.09826079 0.09827068 0.09827282 0.0982573 0.09823747 0.09823728 0.09827561 0.09835918 0.09847346 0.09857998
 0.09864266 0.09866456 0.09868628 0.09874313 0.09883551 0.09894384 0.09905753 0.0991801 0.09931669 0.09946862
 0.09963772 0.09982683 0.1000348 0.1002545 0.1004761 0.100693 0.1009062 0.1011258 0.1013648 0.1016292
 0.1019123 0.102199 0.1024765 0.1027432 0.103008 0.103279 0.1035567 0.103839 0.1041297 0.1044347
 0.1047516 0.1050706 0.1053856 0.1057001 0.1060199 0.1063466 0.1066763 0.1070067 0.1073464 0.1077092
 0.1080925 0.1084639 0.1087864 0.1090578 0.1093159 0.1096046 0.1099386 0.1102969 0.1106412 0.1109443
 0.1112126 0.11148 0.1117718 0.112081 0.112387 0.1126924 0.1130241 0.1133952 0.113775 0.1141082
 0.1143655 0.1145744 0.1147911 0.1150443 0.1153111 0.1155529 0.1157628 0.1159669 0.1161864 0.1164188
 0.1166581 0.1169122 0.1171877 0.1174686 0.1177275 0.1179528 0.1181546 0.1183456 0.1185247 0.1186792
 0.1187996 0.1188947 0.1189911 0.1191127 0.1192578 0.1194065 0.1195488 0.119695 0.119857 0.1200349
 0.1202279 0.1204451 0.1206909 0.1209495 0.1212006 0.1214505 0.1217268 0.1220344 0.1223332 0.1225788
 0.1227723 0.1229515 0.1231427 0.1233469 0.1235668 0.1238188 0.1241103 0.1244235 0.1247288 0.1250106
 0.1252786 0.1255581 0.1258644 0.12618 0.126465 0.1266944 0.1268828 0.1270696 0.1272873 0.1275433
 0.127823 0.1281043 0.1283711 0.1286133 0.1288184 0.1289721 0.1290757 0.1291514 0.1292164 0.1292563
 0.1292325 0.1291146 0.1288936 0.1285654 0.1281182 0.1275459 0.1268722 0.1261601 0.1254997 0.1249828
 0.1246812 0.1246348 0.1248479 0.1252854 0.1258726 0.1265114 0.1271051 0.1275716 0.1278417 0.1278631
 0.1276205 0.1271459 0.1265004 0.1257464 0.1249354 0.1241092 0.1233007 0.1225474 0.1219191 0.1215335
 0.1215258 0.1219945 0.122963 0.1243642 0.1260419 0.1277855 0.1294056 0.1308045 0.1319852 0.133
 0.1338998 0.1347216 0.1354944 0.1362365 0.1369481 0.1376183 0.1382415 0.1388223 0.1393646 0.1398603
 0.1402911 0.1406371 0.1408885 0.1410532 0.1411535 0.1412107 0.1412375 0.1412434 0.1412345 0.1411973
 0.1410895 0.1408608 0.1404863 0.1399863 0.1394299 0.1389371 0.1386722 0.1388075 0.1394539 0.1405919
 0.1420643 0.1436473 0.1451456 0.1464417 0.1474925 0.148311 0.1489481 0.1494673 0.149918 0.1503286
 0.150714 0.1510828 0.1514411 0.1517942 0.1521455 0.1524944 0.1528392 0.1531806 0.1535198 0.1538544
 0.1541816 0.1545062 0.1548397 0.1551899 0.1555507 0.1559068 0.156251 0.1565927 0.1569435 0.1572983
 0.1576393 0.1579586 0.1582659 0.1585779 0.1589045 0.1592465 0.1595946 0.1599329 0.1602492 0.1605442
 0.1608288 0.1611126 0.1613967 0.1616783 0.1619574 0.1622376 0.1625198 0.1628013 0.1630798 0.1633561
 0.16363 0.1638974 0.1641552 0.1644065 0.1646576 0.1649114 0.1651673 0.1654244 0.1656832 0.165945
 0.1662109 0.166481 0.1667519 0.1670174 0.1672726 0.1675182 0.1677597 0.1680036 0.1682537 0.1685097
 0.1687673 0.1690202 0.1692652 0.1695076 0.1697565 0.1700157 0.1702792 0.1705387 0.1707901 0.1710341
 0.1712728 0.1715087 0.1717458 0.1719882 0.172238 0.172493 0.172747 0.1729942 0.1732318 0.1734605
 0.1736836 0.173908 0.1741405 0.174382 0.1746275 0.1748728 0.1751166 0.175359 0.1756008 0.1758445
 0.1760906 0.1763361 0.1765774 0.1768138 0.1770468 0.1772806 0.1775215 0.177772 0.178027 0.1782769
 0.1785164 0.1787474 0.178975 0.1792045 0.1794387 0.1796784 0.1799223 0.1801665 0.1804065 0.1806405
 0.1808702 0.1810984 0.1813272 0.181559 0.1817949 0.1820326 0.182269 0.1825031 0.1827358 0.1829689
 0.1832044 0.1834425 0.1836804 0.1839149 0.1841469 0.1843794 0.1846136 0.1848487 0.1850843 0.1853222
 0.1855655 0.1858142 0.1860621 0.1863037 0.1865397 0.1867739 0.1870077 0.1872416 0.1874785 0.1877196
 0.1879631 0.1882075 0.1884532 0.1887009 0.1889511 0.1892029 0.1894532 0.1897002 0.1899474 0.1901984
 0.1904526 0.1907092 0.1909689 0.1912306 0.1914905 0.1917467 0.1919987 0.1922452 0.1924872 0.1927285
 0.1929689 0.1932041 0.193431 0.1936507 0.1938666 0.1940849 0.1943091 0.1945352 0.1947592 0.1949869
 0.1952267 0.1954763 0.1957268 0.1959738 0.1962187 0.1964649 0.1967165 0.1969739 0.1972347 0.1974969
 0.1977596 0.1980186 0.1982721 0.1985258 0.1987851 0.1990475 0.1993096 0.1995714 0.1998324 0.2000941
 0.2003615 0.2006354 0.2009082 0.2011749 0.2014361 0.2016922 0.2019461 0.2022076 0.2024817 0.2027607
 0.2030354 0.2033049 0.2035705 0.2038347 0.2041018 0.2043726 0.2046433 0.2049163 0.2051962 0.2054794
 0.2057594 0.206039 0.2063207 0.2066001 0.2068751 0.2071474 0.2074139 0.2076733 0.2079338 0.2081994
 0.2084647 0.2087303 0.2089986 0.2092568 0.2094766 0.2096052 0.2095061 0.2088857 0.2072519 0.2039282
 0.1981931 0.1895742 0.1781411 0.1645801 0.1499974 0.1355694 0.1222254 0.1105305 0.1007724 0.0930909
 0.08756517 0.08428942 0.0834331 0.08532731 0.09058521 0.09974325 0.111916 0.123623 0.1300886 0.128869
 0.1220736 0.1144472 0.1094971 0.1077729 0.1080799 0.1092496 0.1108228 0.1129097 0.115789 0.1194978
 0.1237936 0.1285622 0.1340476 0.1404862 0.1476436 0.1549059 0.1617969 0.1682874 0.1746062 0.1808525
 0.1868493 0.1923137 0.1970721 0.2011177 0.2045544 0.2075311 0.2101829 0.2125972 0.2148273 0.2169002
 0.2187774 0.2203372 0.2214433 0.2220546 0.2222753 0.2223039 0.2223231 0.2224228 0.2226153 0.2228919
 0.2232467 0.2236687 0.224145 0.2246658 0.2252178 0.2257853 0.2263586 0.2269291 0.227482 0.2280056
 0.2284982 0.2289598 0.2293908 0.2297992 0.2301959 0.2305842 0.230964 0.2313364 0.2317008 0.2320557
 0.2324046 0.2327502 0.2330857 0.2334032 0.233702 0.2339858 0.2342576 0.2345219 0.2347818 0.2350373
 0.2352881 0.2355354 0.2357783 0.2360164 0.236255 0.2365001 0.2367513 0.2370059 0.2372598 0.2375057
 0.2377391 0.2379675 0.2382019 0.2384443 0.2386898 0.2389357 0.2391807 0.2394225 0.2396598 0.239894
 0.2401293 0.2403739 0.2406336 0.2409045 0.2411759 0.2414436 0.2417104 0.2419797 0.2422529 0.2425298
 0.2428084 0.2430871 0.2433671 0.2436475 0.2439189 0.2441698 0.2443977 0.2446114 0.2448243 0.2450478
 0.2452845 0.2455282 0.2457721 0.2460148 0.2462594 0.2465098 0.2467655 0.24702 0.2472674 0.2475149
 0.2477779 0.2480591 0.2483451 0.2486268 0.2489093 0.2492014 0.2495036 0.2498105 0.2501132 0.2504012
 0.2506705 0.2509306 0.2512028 0.2515062 0.2518415 0.2521867 0.252515 0.2528189 0.253113 0.2534177
 0.2537434 0.2540804 0.2543968 0.2546637 0.2548938 0.2551423 0.2554567 0.2558333 0.2562304 0.2566099
 0.2569586 0.2572828 0.2575929 0.2578925 0.2581761 0.2584373 0.2586844 0.2589484 0.2592642 0.2596333
 0.2600168 0.2603759 0.2607042 0.2610143 0.2613149 0.2616082 0.2618819 0.2620976 0.2622284 0.2623278
 0.2625193 0.262883 0.2633691 0.2638496 0.2642443 0.2645701 0.2648773 0.2651848 0.2654867 0.2657602
 0.2659355 0.2659311 0.2657968 0.2657638 0.2660545 0.2666584 0.2673593 0.267957 0.2683993 0.2687338
 0.26902 0.2692904 0.2695323 0.2696852 0.2697067 0.2696723 0.269766 0.2701123 0.2706359 0.271146
 0.2715383 0.27185 0.2721496 0.2724577 0.2727391 0.2728817 0.2727406 0.2723391 0.2720088 0.2721751
 0.2729453 0.2739863 0.2748589 0.2754079 0.2757619 0.2760284 0.2761342 0.2759622 0.2754939 0.2748143
 0.2741604 0.2739639 0.2745678 0.2757878 0.2769868 0.277714 0.2780943 0.2785093 0.2791021 0.2797109
 0.280132 0.2803074 0.2802955 0.2801451 0.279867 0.2795697 0.2795454 0.280061 0.2810441 0.2821
 0.2828855 0.283381 0.2837278 0.2838242 0.2832269 0.2816786 0.2797897 0.2788776 0.2797953 0.282036
 0.284283 0.2857101 0.2864306 0.2868795 0.2872471 0.2874255 0.2869962 0.2853675 0.2825816 0.2800159
 0.2795452 0.2816921 0.2850403 0.2876081 0.2883616 0.2874193 0.2855463 0.2838045 0.2831767 0.2840288
 0.2859545 0.2881865 0.2900606 0.2911985 0.2915286 0.2912394 0.2906961 0.290345 0.290436 0.2906404
 0.2902539 0.2891116 0.2879116 0.2871381 0.2861663 0.2842857 0.2823033 0.2820389 0.2840788 0.2869267
 0.2887347 0.2891907 0.2891788 0.2889918 0.2876085 0.284039 0.2791677 0.2757175 0.2759157 0.2792675
 0.2830474 0.284979 0.2850299 0.2846183 0.2846224 0.2844557 0.2829399 0.2799734 0.2771705 0.2764155
 0.2777471 0.2792932 0.279339 0.2775235 0.2739325 0.2686758 0.2633237 0.261192 0.2644106 0.271269
 0.2777301 0.2809167 0.2800042 0.2750093 0.26709 0.2598046 0.2575109 0.2613397 0.2678725 0.2724541
 0.2728615 0.2693824 0.2629136 0.2545763 0.2467127 0.2425976 0.2443559 0.2512591 0.2598429 0.2653949
 0.2643718 0.2572535 0.2492463 0.2463466 0.2496976 0.2548469 0.2569848 0.2554671 0.2527885 0.2511837
 0.2514006 0.2531467 0.2554219 0.2573016 0.2586428 0.2587471 0.2550392 0.2459103 0.2349412 0.2290084
 0.2311998 0.238318 0.2460803 0.2534303 0.2601931 0.2639907 0.2627674 0.2588716 0.2575678 0.2614164
 0.2678333 0.2723962 0.2733346 0.2722488 0.2711811 0.2701736 0.2683022 0.2663223 0.2666769 0.2704649
 0.2757204 0.2795428 0.2809947 0.2810981 0.2808971 0.2805834 0.2800258 0.2791943 0.2781217 0.2769266
 0.2758114 0.2748382 0.2738816 0.2728862 0.2717951 0.2699664 0.2662285 0.260402 0.2546061 0.2518029
 0.2526898 0.2552508 0.2576383 0.2595138 0.2596654 0.2550147 0.2446482 0.2334307 0.228661 0.2330172
 0.2424203 0.2506015 0.2540586 0.2524949 0.2466885 0.2381235 0.2304616 0.2289251 0.2362839 0.2499388
 0.264228 0.2752029 0.2821542 0.2854373 0.2849332 0.281131 0.2763945 0.2740467 0.2760808 0.2818407
 0.2885283 0.292521 0.2909409 0.2840112 0.2766402 0.2754729 0.2823128 0.2917309 0.2970555 0.2973666
 0.2965587 0.2971625 0.2981609 0.2983823 0.2989234 0.3012751 0.3048599 0.3075086 0.3074121 0.3038863
 0.2973585 0.289901 0.2849171 0.2844518 0.2869339 0.2889844 0.2888939 0.2866587 0.2818515 0.2745513
 0.2680236 0.2669693 0.2721815 0.2793424 0.2839422 0.2854769 0.2860589 0.286611 0.2857822 0.2822194
 0.2769795 0.2730767 0.2725337 0.2744759 0.2765759 0.2775756 0.2774836 0.2761159 0.2731082 0.2694831
 0.2677864 0.2698171 0.2746944 0.279713 0.2828285 0.2838994 0.2838916 0.2836376 0.283403 0.2830438
 0.2824023 0.2818627 0.2823833 0.2844704 0.2872744 0.289355 0.2903445 0.2912566 0.2930774 0.2955731
 0.2976634 0.2986192 0.2987019 0.2988158 0.2996859 0.3012578 0.3027515 0.3033521 0.3030159 0.3026167
 0.3031589 0.3048196 0.3068806 0.3085505 0.3096272 0.3103862 0.311128 0.3119237 0.3125846 0.312824
 0.3126366 0.312525 0.3131225 0.3145317 0.3161996 0.3174766 0.3181477 0.3183943 0.3184224 0.3182655
 0.3178901 0.3173652 0.3168702 0.3165589 0.31645 0.3164545 0.3164765 0.3164709 0.3164392 0.3164149
 0.316444 0.3165507 0.3167226 0.3169348 0.3171674 0.3173891 0.3175592 0.3176696 0.3177547 0.3178359
 0.3178757 0.3178027 0.3175588 0.3171055 0.3164039 0.3154142 0.3141069 0.3124549 0.3104357 0.3081189
 0.305823 0.3041525 0.3037523 0.3048961 0.3072662 0.3101305 0.3127599 0.3147475 0.3160467 0.3168089
 0.317211 0.317379 0.3173905 0.3172902 0.3171014 0.3168391 0.3165194 0.3161607 0.3157855 0.3154221
 0.3150949 0.3148108 0.3145545 0.3142941 0.3139921 0.3136187 0.313162 0.3126242 0.3120123 0.3113273
 0.3105579 0.3096858 0.308712 0.3076773 0.306649 0.3056814 0.3047862 0.3039339 0.3030779 0.3021718
 0.3011574 0.299965 0.2985785 0.2971206 0.2958149 0.2948082 0.2940419 0.2933223 0.2924911 0.2915033
 0.2903827 0.2891657 0.2878853 0.2865694 0.28523 0.2838572 0.2824224 0.2808924 0.279249 0.2775007
 0.2756714 0.2737847 0.2718613 0.2699164 0.267935 0.2658408 0.2634964 0.2607428 0.2574422 0.2535041
 0.2489017 0.2436967 0.2380501 0.2321917 0.2263581 0.2207463 0.21551 0.2107803 0.2066762 0.2032969
 0.2007093 0.1989507 0.1980412 0.1979889 0.1987814 0.200376 0.202697 0.2056314 0.2090248 0.2126881
 0.2164169 0.2200195 0.2233602 0.2264005 0.2291924 0.231807 0.2342627 0.2365219 0.238542 0.24031
 0.241832 0.2431152 0.2441714 0.2450286 0.2457273 0.2463077 0.2468016 0.2472287 0.2475922 0.2478846
 0.2481065 0.2482791 0.2484344 0.2485964 0.2487754 0.248978 0.2492183 0.2495168 0.2498912 0.2503487
 0.2508894 0.2515076 0.2521875 0.2529083 0.2536649 0.2544773 0.2553774 0.2563924 0.257544 0.258851
 0.2603195 0.2619281 0.2636141 0.2652741 0.2667874 0.2680544 0.2690222 0.2696858 0.2700704 0.2702101
 0.2701353 0.2698737 0.2694554 0.268909 0.2682591 0.2675302 0.2667456 0.2659156 0.2650334 0.2640895
 0.26309 0.2620617 0.26104 0.2600501 0.259096 0.2581687 0.25726 0.2563673 0.255494 0.254647
 0.253832 0.2530507 0.2523038 0.2515936 0.2509181 0.250261 0.2495861 0.2488396 0.2479689 0.2469471
 0.2457716 0.2444441 0.2429656 0.2413474 0.2396078 0.2377593 0.2358101 0.2337728 0.2316619 0.2294855
 0.2272398 0.2249123 0.2225069 0.2200756 0.217709 0.2154857 0.2134374 0.2115581 0.2098244 0.2082062
 0.2066741 0.2052055 0.2037849 0.2024088 0.2010886 0.1998367 0.1986552 0.1975431 0.1965064 0.1955555
 0.1947049 0.1939702 0.1933539 0.1928394 0.192404 0.192036 0.1917434 0.1915579 0.1915123 0.1915918
 0.1917198 0.1918055 0.1918024 0.1917234 0.1916204 0.1915475 0.1915268 0.1915468 0.1915792 0.1915779
 0.1914656 0.1911473 0.1905335 0.1895467 0.1881395 0.1863301 0.1842146 0.1819433 0.1796923 0.1776237
 0.1758434 0.1743982 0.1732967 0.1725002 0.1719128 0.1714401 0.1710671 0.1708638 0.1709168 0.1712345
 0.1716854 0.1720596 0.1722517 0.172374 0.1726553 0.1732484 0.174139 0.1751875 0.1762272 0.1771474
 0.1779068 0.1784928 0.1789071 0.1791811 0.1793536 0.1794323 0.1794034 0.1792565 0.1789843 0.1785932
 0.1781177 0.1775856 0.1769811 0.1762746 0.1754612 0.1745493 0.1735501 0.1724709 0.1712791 0.1699164
 0.1684246 0.1670305 0.1660523 0.1657217 0.166067 0.1669089 0.1679883 0.1691377 0.1702909 0.1713457
 0.1721698 0.1728157 0.1736174 0.1749665 0.1769748 0.1793559 0.1816279 0.1834293 0.1846329 0.1852323
 0.1852575 0.1847854 0.1838829 0.1825368 0.1807419 0.1785993 0.1762536 0.1738388 0.1715149 0.1694254
 0.1676227 0.1661227 0.164935 0.164061 0.1635712 0.1631827 0.1612556 0.1553823 0.1458129 0.1376358
 0.1369116 0.1441308 0.1535138 0.1592085 0.160246 0.1591103 0.1578535 0.1569147 0.1562135 0.155828
 0.1558272 0.1561093 0.1564374 0.1565601 0.1563765 0.1559147 0.1550506 0.1532657 0.1496602 0.1432875
 0.1338523 0.1223418 0.1108044 0.1012612 0.09471143 0.09093876 0.0889577 0.08769715 0.08661047 0.08585785
 0.08593933 0.08718206 0.08956288 0.0928662 0.09683563 0.1011383 0.1053106 0.1089042 0.1117214 0.1138301
 0.1153536 0.1163425 0.1168364 0.116915 0.1166561 0.1161183 0.1153602 0.1144143 0.1132587 0.1118708
 0.110328 0.1088391 0.1076527 0.106898 0.106511 0.1063315 0.1062467 0.1062189 0.1062381 0.1063055
 0.1064332 0.1066263 0.1068811 0.1071959 0.1075504 0.1078887 0.1081547 0.1083311 0.1084301 0.1084596
 0.1083957 0.1081934 0.1078552 0.1074644 0.1070636 0.106516 0.10561 0.1043446 0.1030424 0.1021421
 0.1018891 0.1021957 0.1027401 0.1032006 0.103441 0.103517 0.1035326 0.1034961 0.103304 0.1028573
</values></Ydata></ScRf><Data_Parameters_AB><parameter name="DPF">1</parameter><parameter name="NPT">3497</parameter><parameter name="FXV">3996</parameter><parameter name="LXV">500</parameter><parameter name="CSF">1</parameter><parameter name="MXY">0.00493679475039244</parameter><parameter name="MNY">-0.105231769382954</parameter><parameter name="DAT">13/02/2024</parameter><parameter name="TIM">13:21:19.168 (GMT+1)</parameter><parameter name="DXU">WN</parameter></Data_Parameters_AB><AB__Qtest><MainReport name="Quality Test Report"><Header><Line><Legend>Test result ok/not ok [1/0]: </Legend><Value>0</Value></Line><Line><Legend>Method file: </Legend><Value>C:\Users\Public\Documents\Bruker\OPUS_8.2.28\QT\IRBT_v3_default.QT</Value></Line></Header><Matrix><Line><Legend></Legend><Legend>min</Legend><Legend>max</Legend><Legend>measured</Legend></Line><Line><Value>Absorption (X-Range 1):</Value><Value>0.400000</Value><Value>2.000000</Value><Value>0.068259</Value></Line><Line><Value>Noise (X-Range 4):</Value><Value></Value><Value>0.000300</Value><Value>0.000048</Value></Line><Line><Value>Signal/Noise (X-Range 2):</Value><Value>200.000000</Value><Value></Value><Value>28.024423</Value></Line><Line><Value>Signal/Noise (X-Range 3):</Value><Value>40.000000</Value><Value></Value><Value>9.344490</Value></Line><Line><Value>Water vapour (X-Range 5):</Value><Value></Value><Value>0.000300</Value><Value>0.000018</Value></Line><Line><Value>Signal/Water (X-Range 2):</Value><Value>100.000000</Value><Value></Value><Value>76.829225</Value></Line><Line><Value>Signal/Water (X-Range 3):</Value><Value>20.000000</Value><Value></Value><Value>25.618008</Value></Line><Line><Value>Fringes (X-Range 6):</Value><Value></Value><Value>0.000100</Value><Value>0.000033</Value></Line></Matrix></MainReport></AB__Qtest><Data_Parameters_ScSm><parameter name="DPF">1</parameter><parameter name="NPT">1814</parameter><parameter name="FXV">3996.63438082617</parameter><parameter name="LXV">499.579297603271</parameter><parameter name="CSF">1</parameter><parameter name="MXY">0.33963081240654</parameter><parameter name="MNY">0.0857091695070267</parameter><parameter name="DAT">13/02/2024</parameter><parameter name="TIM">13:21:19.168 (GMT+1)</parameter><parameter name="DXU">WN</parameter></Data_Parameters_ScSm><Data_Parameters_ScRf><parameter name="DPF">1</parameter><parameter name="NPT">1820</parameter><parameter name="FXV">4004.34989121387</parameter><parameter name="LXV">495.721542409425</parameter><parameter name="CSF">1</parameter><parameter name="MXY">0.318422436714172</parameter><parameter name="MNY">0.0685958564281464</parameter><parameter name="DAT">13/02/2024</parameter><parameter name="TIM">13:20:53.315 (GMT+1)</parameter><parameter name="DXU">WN</parameter></Data_Parameters_ScRf><Optic_Parameters_Rf><parameter name="APR">0</parameter><parameter name="APT">Open</parameter><parameter name="BMS">KBr</parameter><parameter name="DTC">RT-DLaTGS_IR-Biotyper [Microplate reader]</parameter><parameter name="HPF">0</parameter><parameter name="LPF">10.0</parameter><parameter name="LPV">4000</parameter><parameter name="PGR">0</parameter><parameter name="RCH">Module port</parameter><parameter name="RDX">0</parameter><parameter name="SRC">MIR</parameter><parameter name="VEL">10.0</parameter><parameter name="SON">Off</parameter></Optic_Parameters_Rf><Acquisition_Parameters_Rf><parameter name="ADT">1</parameter><parameter name="AQM">DD</parameter><parameter name="CFE">0</parameter><parameter name="COR">0</parameter><parameter name="DEL">0</parameter><parameter name="DLY">0</parameter><parameter name="HFW">8000</parameter><parameter name="LFW">0</parameter><parameter name="NSR">32</parameter><parameter name="PLF">AB</parameter><parameter name="RES">6</parameter><parameter name="RGN">-1</parameter><parameter name="STR">0</parameter><parameter name="TCL">MakeCompatibleScalar (0, {WSV=1.000000, ARV=0});</parameter><parameter name="TDL">37</parameter><parameter name="RPO">0</parameter></Acquisition_Parameters_Rf><FT_-_Parameters_Rf><parameter name="APF">B3</parameter><parameter name="HFQ">500</parameter><parameter name="LFQ">4000</parameter><parameter name="NLI">0</parameter><parameter name="PHR">24</parameter><parameter name="PHZ">ML</parameter><parameter name="SPZ">NO</parameter><parameter name="ZFF">1</parameter></FT_-_Parameters_Rf><Optic_Parameters_><parameter name="APR">0</parameter><parameter name="APT">Open</parameter><parameter name="BMS">KBr</parameter><parameter name="CHN">Module port</parameter><parameter name="DTC">RT-DLaTGS_IR-Biotyper [Microplate reader]</parameter><parameter name="HPF">0</parameter><parameter name="LPF">10.0</parameter><parameter name="LPV">4000</parameter><parameter name="PGN">0</parameter><parameter name="RDX">0</parameter><parameter name="SRC">MIR</parameter><parameter name="VEL">10.0</parameter><parameter name="SON">Off</parameter></Optic_Parameters_><FT_-_Parameters_><parameter name="APF">B3</parameter><parameter name="HFQ">500</parameter><parameter name="LFQ">4000</parameter><parameter name="NLI">0</parameter><parameter name="PHR">24</parameter><parameter name="PHZ">ML</parameter><parameter name="SPZ">NO</parameter><parameter name="ZFF">1</parameter></FT_-_Parameters_><Acquisition_Parameters_><parameter name="ADT">1</parameter><parameter name="AQM">DD</parameter><parameter name="CFE">0</parameter><parameter name="COR">0</parameter><parameter name="DEL">0</parameter><parameter name="DLY">0</parameter><parameter name="HFW">8000</parameter><parameter name="LFW">0</parameter><parameter name="NSS">32</parameter><parameter name="PLF">AB</parameter><parameter name="RES">6</parameter><parameter name="SOT">0</parameter><parameter name="TCL">MakeCompatibleScalar (0, {WSV=1.000000, ARV=0});</parameter><parameter name="TDL">37</parameter><parameter name="SPO">0</parameter><parameter name="SGN">-1</parameter></Acquisition_Parameters_><Instrument_Parameters_Rf><parameter name="HFL">15801.365274</parameter><parameter name="LFL">0</parameter><parameter name="LWN">15801.365274</parameter><parameter name="ABP">32157</parameter><parameter name="SSP">1</parameter><parameter name="ARG">2</parameter><parameter name="ASG">2</parameter><parameter name="ASS">32</parameter><parameter name="GFW">16</parameter><parameter name="GBW">16</parameter><parameter name="BFW">0</parameter><parameter name="BBW">0</parameter><parameter name="PKA">9175</parameter><parameter name="PKL">5009</parameter><parameter name="PRA">9166</parameter><parameter name="PRL">4988</parameter><parameter name="P2A">1</parameter><parameter name="P2L">1</parameter><parameter name="P2R">1</parameter><parameter name="P2K">1</parameter><parameter name="DAQ">0</parameter><parameter name="AG2">1</parameter><parameter name="SSM">1</parameter><parameter name="RSN">48131</parameter><parameter name="CRR">0</parameter><parameter name="SRT">1707830453.315</parameter><parameter name="DUR">19.6389923095703</parameter><parameter name="TSC">30</parameter><parameter name="MVD">0.315224260091782</parameter><parameter name="AN1">0.225926368668796</parameter><parameter name="AN2">0</parameter><parameter name="VSN">2.485 Apr  4 2017</parameter><parameter name="SRN">0085</parameter><parameter name="CAM">0</parameter><parameter name="INS">IR-Biotyper</parameter><parameter name="FOC">69</parameter><parameter name="RDY">1</parameter><parameter name="ARS">32</parameter></Instrument_Parameters_Rf><Sample_Parameters_><parameter name="BLD"></parameter><parameter name="CNM">Admin</parameter><parameter name="CPY"></parameter><parameter name="DPM"></parameter><parameter name="EXP">IRBT_v3_32Scans.XPM</parameter><parameter name="LCT"></parameter><parameter name="SFM">Microplate, HTS-XT</parameter><parameter name="SNM">240213-1206-Cdiff_SCFA_3_GDA_C37_242151007_B5_775e9790-5e6b-4f4f-a4ba-48c567965233.0</parameter><parameter name="XPP">C:\Users\Public\Documents\Bruker\OPUS_8.2.28\XPM</parameter><parameter name="IST">OK</parameter><parameter name="CPG">1252</parameter><parameter name="UID">26e34f8c-be8a-4735-b190-b0471c69e628</parameter></Sample_Parameters_><Instrument_Parameters_><parameter name="HFL">15801.365274</parameter><parameter name="LFL">0</parameter><parameter name="LWN">15801.365274</parameter><parameter name="ABP">32157</parameter><parameter name="SSP">1</parameter><parameter name="ASG">2</parameter><parameter name="ARG">2</parameter><parameter name="ASS">32</parameter><parameter name="GFW">16</parameter><parameter name="GBW">16</parameter><parameter name="BFW">0</parameter><parameter name="BBW">0</parameter><parameter name="PKA">10287</parameter><parameter name="PKL">5009</parameter><parameter name="PRA">10415</parameter><parameter name="PRL">4988</parameter><parameter name="P2A">1</parameter><parameter name="P2L">1</parameter><parameter name="P2R">1</parameter><parameter name="P2K">1</parameter><parameter name="DAQ">0</parameter><parameter name="AG2">1</parameter><parameter name="SSM">1</parameter><parameter name="RSN">24763</parameter><parameter name="CRR">0</parameter><parameter name="SRT">1707830479.169</parameter><parameter name="DUR">19.6389923095703</parameter><parameter name="TSC">30</parameter><parameter name="MVD">0.257868319749832</parameter><parameter name="AN1">0.225926536089382</parameter><parameter name="AN2">0</parameter><parameter name="VSN">2.485 Apr  4 2017</parameter><parameter name="SRN">0085</parameter><parameter name="CAM">0</parameter><parameter name="INS">IR-Biotyper</parameter><parameter name="FOC">69</parameter><parameter name="RDY">1</parameter></Instrument_Parameters_><History/></OPUSDataFile>
