<?xml version="1.0" encoding="UTF-8" ?>
<OPUSDataFile><AB><Ydata ylabel="Absorbance Units"><values byteorder="INTEL" format="FLOAT32" numvalues="3497"> -0.09275001 -0.09274013 -0.09271882 -0.09268608 -0.09264015 -0.0925851 -0.09252907 -0.09247454 -0.09242976 -0.09239242
 -0.0923636 -0.09233933 -0.09231625 -0.09229469 -0.09227294 -0.09225589 -0.09224506 -0.09224265 -0.09225018 -0.09226365
 -0.0922831 -0.09230192 -0.0923195 -0.09233232 -0.09234019 -0.09234298 -0.09234075 -0.09233402 -0.09232286 -0.09230773
 -0.09228932 -0.09226993 -0.09225065 -0.09223531 -0.09222379 -0.09221832 -0.09221627 -0.092216 -0.09221448 -0.09220845
 -0.09219816 -0.09218203 -0.09216433 -0.09214596 -0.09213101 -0.09212115 -0.09211539 -0.09211433 -0.09211228 -0.09210887
 -0.09209849 -0.09208091 -0.09205645 -0.09202576 -0.09199616 -0.09196827 -0.09194987 -0.09193951 -0.09193736 -0.09193964
 -0.09193788 -0.0919299 -0.09190717 -0.09187337 -0.09182779 -0.09177855 -0.09173165 -0.09169172 -0.09166392 -0.09164512
 -0.09163587 -0.09163044 -0.09162723 -0.09162478 -0.09162247 -0.09162185 -0.09162311 -0.09162521 -0.09162803 -0.09162649
 -0.09162049 -0.09160726 -0.09158766 -0.09156462 -0.09153972 -0.09151977 -0.09150568 -0.09150365 -0.09151175 -0.09153122
 -0.09155554 -0.09157914 -0.09159383 -0.09159016 -0.09156872 -0.09152441 -0.09147085 -0.09141084 -0.09135866 -0.09131948
 -0.09129448 -0.09128574 -0.09128261 -0.09128447 -0.09128088 -0.09127127 -0.09125324 -0.09122708 -0.09119555 -0.09115895
 -0.09111997 -0.09107933 -0.09104063 -0.091005 -0.09097712 -0.09095667 -0.09094581 -0.09094214 -0.09094407 -0.09094891
 -0.09095418 -0.09095798 -0.09095863 -0.09095526 -0.09094705 -0.09093438 -0.09091683 -0.09089682 -0.09087459 -0.09085257
 -0.09083103 -0.09081116 -0.09079302 -0.09077971 -0.09077148 -0.090773 -0.09078385 -0.09080505 -0.09083373 -0.09086119
 -0.0908827 -0.09088112 -0.09085764 -0.09080351 -0.09073003 -0.0906462 -0.09056244 -0.09049127 -0.09043363 -0.09039444
 -0.09036811 -0.09035411 -0.09034561 -0.09034087 -0.09033529 -0.09032774 -0.09031676 -0.09030189 -0.09028524 -0.09026689
 -0.09025068 -0.09023663 -0.09022591 -0.09021792 -0.0902097 -0.09020072 -0.09018716 -0.09016959 -0.0901475 -0.09012153
 -0.09009264 -0.09006067 -0.09002559 -0.08998806 -0.08994802 -0.08990795 -0.08986916 -0.08983349 -0.08980224 -0.08977486
 -0.08975136 -0.08973156 -0.08971532 -0.08970345 -0.08969614 -0.08969247 -0.08969242 -0.08969231 -0.08969194 -0.08968809
 -0.08968066 -0.08966728 -0.08964807 -0.08962165 -0.08958931 -0.08955311 -0.0895151 -0.08948035 -0.08944822 -0.08942103
 -0.08939441 -0.08936518 -0.08933131 -0.08928946 -0.08924391 -0.0891952 -0.08914862 -0.08910623 -0.08906814 -0.08903483
 -0.08900449 -0.08897687 -0.08895272 -0.08893207 -0.08891503 -0.08890139 -0.0888879 -0.0888746 -0.08885971 -0.08884431
 -0.08883189 -0.08882274 -0.08882019 -0.08882181 -0.08882527 -0.08882737 -0.08882274 -0.08881095 -0.08878918 -0.08875991
 -0.08872378 -0.08868285 -0.08863813 -0.08859056 -0.08854007 -0.08848973 -0.08843961 -0.08839544 -0.08835784 -0.08833092
 -0.08831503 -0.08830836 -0.08831054 -0.08831554 -0.08832284 -0.08832623 -0.08832522 -0.08831464 -0.08829425 -0.08825983
 -0.08821364 -0.08815639 -0.08809391 -0.08803379 -0.08797997 -0.08793964 -0.08791044 -0.08789399 -0.08788369 -0.08787768
 -0.08786933 -0.08785648 -0.08783522 -0.08780403 -0.08776411 -0.08771493 -0.08766367 -0.08761075 -0.08756335 -0.08752148
 -0.08748506 -0.08745334 -0.08742036 -0.08738639 -0.08734886 -0.08730946 -0.08727173 -0.08723617 -0.08720601 -0.08717926
 -0.0871549 -0.08713059 -0.08710369 -0.08707361 -0.08703887 -0.0870008 -0.08695954 -0.08691651 -0.08687223 -0.08682708
 -0.08678123 -0.08673456 -0.08668704 -0.08663879 -0.08658983 -0.08654029 -0.08649023 -0.08644037 -0.08639102 -0.08634486
 -0.08630217 -0.08626606 -0.08623538 -0.0862094 -0.08618484 -0.08615509 -0.08611818 -0.08606728 -0.08600637 -0.08593546
 -0.08586206 -0.08579116 -0.08572657 -0.08567222 -0.08562473 -0.08558483 -0.08554445 -0.08550236 -0.08545179 -0.08539157
 -0.08532009 -0.0852371 -0.0851441 -0.08504119 -0.08493005 -0.08481109 -0.08468799 -0.08456175 -0.08443887 -0.08431964
 -0.08420841 -0.0841045 -0.08400866 -0.0839202 -0.08383872 -0.08376326 -0.08369343 -0.08362653 -0.08356103 -0.08349413
 -0.08342393 -0.08335034 -0.08327281 -0.08319265 -0.08311035 -0.08302476 -0.08293592 -0.0828414 -0.08274092 -0.08263548
 -0.08252523 -0.08241394 -0.08230165 -0.08219054 -0.08207999 -0.08196838 -0.08185506 -0.08173657 -0.08161442 -0.0814891
 -0.08136413 -0.08124505 -0.08113249 -0.081031 -0.08093365 -0.08083813 -0.08073595 -0.080621 -0.08049571 -0.08035807
 -0.08021896 -0.08008047 -0.07994883 -0.0798256 -0.07970856 -0.07959777 -0.07948861 -0.07938088 -0.07927151 -0.07916038
 -0.07904528 -0.07892604 -0.07880038 -0.07866888 -0.07853169 -0.07839046 -0.0782487 -0.07810736 -0.07796984 -0.07783469
 -0.07770225 -0.07756939 -0.07743424 -0.07729419 -0.07714722 -0.07699351 -0.07683201 -0.07666665 -0.07649736 -0.07633177
 -0.07617083 -0.07602041 -0.07588135 -0.07574961 -0.07562475 -0.07549389 -0.0753567 -0.07520387 -0.07503759 -0.07486285
 -0.074683 -0.07451131 -0.074348 -0.07420089 -0.07406606 -0.07394178 -0.07382299 -0.07370386 -0.07358178 -0.07345268
 -0.07331774 -0.07317621 -0.07303085 -0.07288255 -0.07273246 -0.07258121 -0.07242777 -0.07227204 -0.07211339 -0.07195166
 -0.07178851 -0.07162406 -0.07146174 -0.07130158 -0.07114553 -0.07099282 -0.07084106 -0.07068893 -0.07053067 -0.07036661
 -0.07019384 -0.07001545 -0.06983442 -0.06965386 -0.06947865 -0.06930852 -0.06914512 -0.06898624 -0.06883103 -0.06867861
 -0.06852843 -0.06838071 -0.06823563 -0.06809211 -0.06795014 -0.06780779 -0.06766485 -0.06752014 -0.06737358 -0.06722424
 -0.06707216 -0.06691703 -0.06675928 -0.06660067 -0.06644211 -0.06628756 -0.06613734 -0.06599475 -0.06585773 -0.0657254
 -0.06559385 -0.06545862 -0.06531753 -0.06516655 -0.06500889 -0.06484446 -0.06467871 -0.06451393 -0.06435126 -0.064192
 -0.06403206 -0.06387086 -0.06370647 -0.06353839 -0.06337119 -0.06320512 -0.0630466 -0.06289552 -0.06275284 -0.06261761
 -0.06248516 -0.06235495 -0.0622224 -0.06208842 -0.06195259 -0.06181632 -0.06168162 -0.06154931 -0.06142125 -0.06129714
 -0.06117764 -0.06106132 -0.06094814 -0.06083494 -0.06072099 -0.0606024 -0.06047793 -0.06034658 -0.06020752 -0.0600649
 -0.05991881 -0.05977597 -0.05963673 -0.0595061 -0.0593839 -0.05927026 -0.05916407 -0.05905969 -0.05895545 -0.05884245
 -0.05872037 -0.05858314 -0.05843382 -0.0582734 -0.05810778 -0.05794344 -0.05778531 -0.05763962 -0.0575069 -0.05738986
 -0.0572844 -0.05719032 -0.0571014 -0.05701641 -0.05692973 -0.05684036 -0.05674458 -0.05664181 -0.05653192 -0.05641492
 -0.05629462 -0.05617144 -0.05605174 -0.05593553 -0.05582645 -0.05572362 -0.05562612 -0.05553285 -0.05544073 -0.05534925
 -0.05525625 -0.05516158 -0.05506428 -0.05496427 -0.05486064 -0.05475544 -0.05464892 -0.05454486 -0.05444482 -0.05435063
 -0.0542638 -0.05418048 -0.05410076 -0.05401768 -0.05393047 -0.05383665 -0.05373608 -0.05363385 -0.05353041 -0.05343277
 -0.05334055 -0.05325531 -0.05317581 -0.05309822 -0.05302239 -0.05294579 -0.05286964 -0.05279516 -0.0527224 -0.05265244
 -0.05258349 -0.05251415 -0.05244418 -0.05237254 -0.05230157 -0.05223237 -0.05216457 -0.05209914 -0.05203037 -0.05195739
 -0.05187659 -0.05178696 -0.05169464 -0.05159989 -0.05151362 -0.051436 -0.05137198 -0.05132056 -0.05127817 -0.05124386
 -0.05121213 -0.05118304 -0.05115408 -0.05112544 -0.05109654 -0.051067 -0.05103644 -0.05100384 -0.05096862 -0.05092907
 -0.05088401 -0.05083264 -0.05077356 -0.05071019 -0.05064238 -0.05057714 -0.05051591 -0.05046115 -0.05041384 -0.05036682
 -0.05031974 -0.05026431 -0.05020073 -0.05013045 -0.0500549 -0.04998406 -0.04991826 -0.04986474 -0.04982115 -0.04978547
 -0.04975531 -0.04972503 -0.0496952 -0.04966373 -0.04963356 -0.04960696 -0.04958431 -0.0495677 -0.04955202 -0.04953637
 -0.04951419 -0.04948306 -0.04944189 -0.04938954 -0.04933045 -0.04926483 -0.04919742 -0.04912851 -0.04906043 -0.04899334
 -0.04892988 -0.04887033 -0.04881814 -0.04877281 -0.04873471 -0.04870227 -0.04867168 -0.04864186 -0.04860898 -0.04857332
 -0.04853364 -0.04849061 -0.04844451 -0.04839534 -0.04834305 -0.04828801 -0.0482302 -0.04817047 -0.04810904 -0.04804639
 -0.04798273 -0.04791779 -0.04785157 -0.04778368 -0.04771407 -0.04764273 -0.04756973 -0.04749612 -0.04742198 -0.04734864
 -0.0472754 -0.04720053 -0.04712287 -0.04703775 -0.04694653 -0.04684766 -0.04674774 -0.04665349 -0.04657226 -0.04651427
 -0.04647791 -0.0464678 -0.04647105 -0.04648469 -0.04649432 -0.04649451 -0.04648171 -0.04645305 -0.04641812 -0.04637707
 -0.04634417 -0.04632034 -0.04631488 -0.0463278 -0.04635908 -0.04640763 -0.04646602 -0.04653301 -0.0465996 -0.0466657
 -0.04672602 -0.0467822 -0.0468344 -0.04688505 -0.04693756 -0.0469927 -0.04705277 -0.04711627 -0.04718257 -0.04725167
 -0.04732216 -0.04739961 -0.04748472 -0.04758466 -0.04770154 -0.0478351 -0.04798631 -0.04814539 -0.04831188 -0.04847437
 -0.04863247 -0.04877928 -0.0489149 -0.04903648 -0.04914478 -0.04924064 -0.04932627 -0.04940762 -0.04948725 -0.04957346
 -0.04966536 -0.04976633 -0.04987134 -0.04997702 -0.0500797 -0.05017494 -0.05026561 -0.05035103 -0.05043761 -0.05052749
 -0.05062277 -0.05072528 -0.05082809 -0.05093116 -0.05102265 -0.05110168 -0.05116228 -0.05120476 -0.05123733 -0.05126165
 -0.05129487 -0.05133702 -0.05139856 -0.05147564 -0.05156352 -0.05165748 -0.05174569 -0.05182729 -0.05189544 -0.05195337
 -0.05200149 -0.05204317 -0.0520807 -0.05211588 -0.05214961 -0.05218445 -0.05222095 -0.05226258 -0.05231028 -0.05236509
 -0.05242775 -0.05249314 -0.05256107 -0.05262304 -0.0526788 -0.05272421 -0.05276009 -0.052791 -0.05281841 -0.05285148
 -0.05289037 -0.05294098 -0.05300095 -0.05306911 -0.05314165 -0.05321317 -0.05328066 -0.05333887 -0.05338827 -0.05342668
 -0.05345876 -0.05348543 -0.05351262 -0.05354241 -0.0535777 -0.05361976 -0.05366739 -0.05372073 -0.05377696 -0.05383587
 -0.05389573 -0.05395649 -0.05401821 -0.05408092 -0.05414516 -0.05421071 -0.054277 -0.05434332 -0.05440739 -0.0544688
 -0.05452539 -0.05457785 -0.05462582 -0.05467122 -0.05471549 -0.05476087 -0.05480935 -0.05486186 -0.05491985 -0.05498122
 -0.05504601 -0.05511054 -0.05517416 -0.05523382 -0.05528909 -0.05533776 -0.05537966 -0.05541272 -0.05543698 -0.05545447
 -0.05546618 -0.0554819 -0.05550271 -0.05553983 -0.05559144 -0.0556591 -0.05573778 -0.05581824 -0.05589654 -0.05596239
 -0.0560167 -0.05605559 -0.05608444 -0.05610495 -0.05612381 -0.05614455 -0.05617117 -0.05620642 -0.0562482 -0.05629729
 -0.05634665 -0.05639546 -0.05643864 -0.05647558 -0.05650678 -0.05653232 -0.05655533 -0.05657564 -0.05659287 -0.05660643
 -0.05661277 -0.05661232 -0.05660371 -0.05658959 -0.05657445 -0.05656108 -0.05655607 -0.05655898 -0.05657282 -0.05659305
 -0.05661773 -0.05664235 -0.05666363 -0.05668184 -0.05669586 -0.05670932 -0.0567231 -0.05673822 -0.05675535 -0.05677081
 -0.05678438 -0.05679209 -0.05679381 -0.05679074 -0.05678338 -0.05677728 -0.0567725 -0.0567725 -0.05677629 -0.0567826
 -0.05679051 -0.05679715 -0.056803 -0.05680748 -0.05681152 -0.05681593 -0.05682104 -0.05682709 -0.0568349 -0.05684445
 -0.05685815 -0.0568767 -0.05690221 -0.05693543 -0.0569766 -0.05702597 -0.05708259 -0.05714647 -0.05721575 -0.0572903
 -0.0573656 -0.05744123 -0.05751078 -0.05757437 -0.0576287 -0.05767522 -0.05771666 -0.05775463 -0.05779408 -0.05783555
 -0.0578821 -0.05793343 -0.05799026 -0.05805235 -0.05812017 -0.05819195 -0.05826782 -0.05834307 -0.0584164 -0.05848329
 -0.05854177 -0.05859371 -0.05863859 -0.05868301 -0.05872762 -0.0587747 -0.05882432 -0.05887142 -0.05891588 -0.05895381
 -0.05898651 -0.05901889 -0.05905214 -0.05909374 -0.05914193 -0.05919723 -0.05925589 -0.05931196 -0.05936409 -0.0594076
 -0.05944557 -0.05947839 -0.05951022 -0.05954356 -0.05957984 -0.0596207 -0.05966367 -0.05970884 -0.05975204 -0.05979278
 -0.05982743 -0.05985555 -0.05987641 -0.05988997 -0.05989745 -0.05989901 -0.05989688 -0.05989149 -0.05988602 -0.05988157
 -0.05988345 -0.05989264 -0.05991466 -0.05994788 -0.05999337 -0.06004582 -0.06010063 -0.06015154 -0.06019219 -0.06021972
 -0.0602304 -0.06022589 -0.06020571 -0.06017297 -0.06012819 -0.06007417 -0.06001117 -0.05994262 -0.05986873 -0.05979378
 -0.05971802 -0.0596447 -0.05957361 -0.0595034 -0.05943298 -0.05935568 -0.0592701 -0.05916727 -0.05904771 -0.05890687
 -0.05874924 -0.05857883 -0.05840247 -0.05822948 -0.05806352 -0.05791156 -0.05777067 -0.05764214 -0.05751895 -0.0573989
 -0.05727687 -0.05715078 -0.05702031 -0.05688474 -0.05674762 -0.05660902 -0.05647444 -0.05634417 -0.05622471 -0.05611635
 -0.05602474 -0.05594965 -0.05589293 -0.05585371 -0.05582997 -0.05582104 -0.0558243 -0.0558397 -0.05586688 -0.05590352
 -0.05594845 -0.05599488 -0.05603803 -0.0560702 -0.05608509 -0.05608181 -0.05605736 -0.0560183 -0.05596572 -0.05590476
 -0.05583712 -0.05576001 -0.05567341 -0.05557347 -0.05545995 -0.05533689 -0.05520499 -0.05507496 -0.05494704 -0.05482836
 -0.05471803 -0.05461597 -0.05452271 -0.05443808 -0.05436638 -0.05431401 -0.05428597 -0.05429088 -0.05433053 -0.05440948
 -0.05452687 -0.05468323 -0.05487826 -0.05511242 -0.05538363 -0.05569303 -0.05603047 -0.05639588 -0.05677093 -0.05715416
 -0.05752741 -0.05788951 -0.0582296 -0.05854756 -0.05884009 -0.05910758 -0.05935064 -0.05956984 -0.05976744 -0.05994429
 -0.0601033 -0.06024586 -0.06037529 -0.06049344 -0.0606035 -0.06070732 -0.06080736 -0.06090487 -0.06100147 -0.06109664
 -0.06119091 -0.06128196 -0.06136934 -0.06145114 -0.06152685 -0.06159634 -0.06165963 -0.06171608 -0.06176567 -0.06180557
 -0.06183567 -0.06185378 -0.06186033 -0.06185694 -0.06184439 -0.06182638 -0.06180359 -0.06177912 -0.06175461 -0.06173358
 -0.0617191 -0.06171633 -0.06172697 -0.06175495 -0.06179806 -0.06185686 -0.06192646 -0.06200555 -0.06208862 -0.06217451
 -0.062257 -0.06233542 -0.06240155 -0.0624545 -0.06248748 -0.06249993 -0.06249122 -0.06246206 -0.06242393 -0.06237948
 -0.06235189 -0.0623444 -0.06238312 -0.06246775 -0.06261301 -0.06281176 -0.0630606 -0.0633463 -0.06365275 -0.06396581
 -0.06426813 -0.06455138 -0.06480457 -0.06502964 -0.06522359 -0.0653953 -0.06554659 -0.06568429 -0.06581035 -0.06592539
 -0.06602978 -0.0661222 -0.06620254 -0.06627238 -0.06633192 -0.06638521 -0.06643248 -0.06647732 -0.06651982 -0.06656235
 -0.06660481 -0.06664828 -0.06669213 -0.06673588 -0.06677851 -0.06681848 -0.06685539 -0.06688808 -0.06691755 -0.06694372
 -0.06696878 -0.06699342 -0.06701988 -0.06704899 -0.06708183 -0.06711897 -0.06715927 -0.0672029 -0.06724662 -0.06729027
 -0.06732963 -0.06736457 -0.06739275 -0.06741449 -0.067431 -0.06744291 -0.06745373 -0.06746354 -0.06747447 -0.06748579
 -0.06749712 -0.06750785 -0.06751671 -0.06752418 -0.06753012 -0.0675355 -0.06754092 -0.06754697 -0.06755419 -0.06756234
 -0.06757178 -0.06758048 -0.06758832 -0.06759223 -0.06759169 -0.06758609 -0.06757522 -0.06756338 -0.06755087 -0.06754415
 -0.06754311 -0.06755026 -0.06756444 -0.06758223 -0.06760226 -0.06761874 -0.06763156 -0.06763741 -0.06763783 -0.06763344
 -0.06762591 -0.06761714 -0.06760786 -0.0675993 -0.06759097 -0.06758284 -0.06757497 -0.06756716 -0.06756071 -0.06755592
 -0.06755316 -0.0675527 -0.0675524 -0.06755206 -0.06755069 -0.06754837 -0.06754812 -0.06755015 -0.06755818 -0.06757113
 -0.06758663 -0.06760249 -0.06761071 -0.06761113 -0.06759845 -0.06757651 -0.06754759 -0.06751704 -0.06749102 -0.06747179
 -0.06746355 -0.06746347 -0.06747229 -0.06748333 -0.06749504 -0.06750131 -0.06750011 -0.06749134 -0.06747405 -0.06745584
 -0.0674371 -0.06742634 -0.06742375 -0.06743051 -0.06744584 -0.06746349 -0.06748284 -0.06749739 -0.06750786 -0.06751287
 -0.06751347 -0.0675112 -0.06750634 -0.06749992 -0.06749184 -0.06748225 -0.06747136 -0.06745927 -0.06744641 -0.067433
 -0.06741917 -0.06740486 -0.06739087 -0.06737713 -0.06736568 -0.06735681 -0.06735156 -0.06735015 -0.06735022 -0.06735159
 -0.06735049 -0.06734698 -0.06733975 -0.06732942 -0.06731839 -0.06730693 -0.06729732 -0.06728889 -0.06728145 -0.06727399
 -0.06726459 -0.06725382 -0.06724105 -0.06722844 -0.06721722 -0.06720902 -0.06720562 -0.06720486 -0.06720706 -0.06720722
 -0.06720422 -0.06719535 -0.06717972 -0.0671595 -0.06713466 -0.06710987 -0.06708533 -0.06706375 -0.06704503 -0.0670291
 -0.06701569 -0.06700337 -0.06699196 -0.06698016 -0.06696808 -0.06695519 -0.06694183 -0.06692822 -0.06691469 -0.06690156
 -0.06688917 -0.06687776 -0.06686766 -0.06685929 -0.06685204 -0.06684631 -0.06683926 -0.06683056 -0.06681687 -0.06679741
 -0.0667726 -0.06674214 -0.06671193 -0.0666823 -0.06666011 -0.06664529 -0.06663997 -0.06664316 -0.06665099 -0.06666227
 -0.06667106 -0.06667726 -0.06667761 -0.06667314 -0.06666395 -0.0666511 -0.06663591 -0.06661841 -0.06659889 -0.06657758
 -0.06655415 -0.06653082 -0.06650785 -0.06648872 -0.06647441 -0.0664663 -0.06646515 -0.06646793 -0.06647462 -0.0664798
 -0.06648321 -0.06648139 -0.0664745 -0.06646303 -0.06644731 -0.06642936 -0.06640924 -0.06638805 -0.06636589 -0.06634338
 -0.06632091 -0.0662993 -0.06627887 -0.06626035 -0.06624366 -0.06622887 -0.06621604 -0.06620528 -0.0661964 -0.06618965
 -0.06618354 -0.06617778 -0.06617108 -0.06616288 -0.06615535 -0.06614849 -0.06614635 -0.06614912 -0.06615711 -0.06616986
 -0.06618207 -0.06619315 -0.06619698 -0.06619395 -0.06618183 -0.06616201 -0.06613617 -0.06610605 -0.06607486 -0.06604426
 -0.06601741 -0.06599476 -0.06597815 -0.06596569 -0.06595732 -0.06594982 -0.06594191 -0.06593224 -0.06591998 -0.06590649
 -0.06589184 -0.06587747 -0.06586361 -0.06584979 -0.06583599 -0.06582118 -0.06580535 -0.06578834 -0.06577014 -0.06575049
 -0.06572936 -0.06570634 -0.06568184 -0.06565642 -0.06563083 -0.06560678 -0.06558389 -0.06556279 -0.06554181 -0.06551967
 -0.06549584 -0.06546921 -0.06544176 -0.06541387 -0.06538764 -0.06536385 -0.06534243 -0.06532354 -0.06530601 -0.06528975
 -0.06527386 -0.06525829 -0.06524212 -0.06522532 -0.06520712 -0.06518773 -0.0651677 -0.0651475 -0.06512927 -0.06511316
 -0.06510082 -0.06509164 -0.06508553 -0.06508157 -0.06507882 -0.06507634 -0.0650732 -0.06506854 -0.06506173 -0.06505215
 -0.06503932 -0.06502355 -0.06500454 -0.06498431 -0.06496292 -0.06494372 -0.06492704 -0.06491528 -0.06490858 -0.06490612
 -0.06490764 -0.06490944 -0.06491123 -0.06490939 -0.06490398 -0.06489332 -0.06487753 -0.06485598 -0.06482901 -0.06479638
 -0.06475984 -0.06472061 -0.0646821 -0.06464729 -0.06461886 -0.06459975 -0.06458857 -0.0645862 -0.06458768 -0.06459213
 -0.06459498 -0.06459522 -0.06459121 -0.06458259 -0.06456994 -0.06455325 -0.06453399 -0.0645123 -0.06449062 -0.06446908
 -0.0644498 -0.06443242 -0.06441683 -0.06440234 -0.0643871 -0.06437111 -0.06435338 -0.06433458 -0.06431516 -0.06429563
 -0.06427668 -0.06425831 -0.06424062 -0.06422397 -0.06420854 -0.0641946 -0.0641825 -0.0641709 -0.06415977 -0.06414699
 -0.06413224 -0.06411568 -0.0640973 -0.06407948 -0.06406226 -0.06404667 -0.06403236 -0.0640175 -0.06400168 -0.06398211
 -0.0639592 -0.06393225 -0.06390247 -0.06387149 -0.06384043 -0.06381136 -0.06378461 -0.06376132 -0.06374079 -0.06372308
 -0.06370681 -0.06369141 -0.06367602 -0.0636601 -0.06364423 -0.06362835 -0.0636137 -0.06360051 -0.06358834 -0.0635772
 -0.06356353 -0.06354712 -0.0635244 -0.06349568 -0.06346109 -0.06342155 -0.06338079 -0.06333952 -0.06330157 -0.06326701
 -0.06323786 -0.06321346 -0.06319418 -0.06317817 -0.06316441 -0.06315022 -0.0631336 -0.0631135 -0.06308847 -0.06306065
 -0.06303014 -0.06299979 -0.0629703 -0.06294213 -0.06291552 -0.06288886 -0.06286206 -0.06283402 -0.06280476 -0.06277462
 -0.06274376 -0.06271338 -0.06268365 -0.06265604 -0.06263033 -0.06260683 -0.06258494 -0.06256355 -0.06254283 -0.06252214
 -0.06250316 -0.06248694 -0.0624752 -0.06246974 -0.06246983 -0.06247625 -0.06248534 -0.06249642 -0.06250572 -0.06251219
 -0.06251533 -0.06251465 -0.06251409 -0.06251384 -0.06251962 -0.06253149 -0.06254962 -0.06257299 -0.06259421 -0.06261259
 -0.06262063 -0.06262024 -0.06261253 -0.06259979 -0.06258821 -0.062575 -0.06256045 -0.06253757 -0.06249951 -0.06244417
 -0.06236568 -0.06227366 -0.06216919 -0.0620665 -0.06196993 -0.06188786 -0.06182292 -0.06177676 -0.06175021 -0.06174004
 -0.06174624 -0.06176078 -0.06178303 -0.06180076 -0.06181344 -0.06181133 -0.06179522 -0.06176278 -0.0617161 -0.06165912
 -0.06159456 -0.0615292 -0.06146485 -0.06140727 -0.06135523 -0.06131049 -0.06126864 -0.06122767 -0.06118358 -0.06113371
 -0.06107789 -0.06101504 -0.06094849 -0.06087847 -0.06080907 -0.06074075 -0.06067699 -0.06061808 -0.06056608 -0.06052095
 -0.06048146 -0.06044703 -0.06041267 -0.06037802 -0.06033839 -0.06029478 -0.06024742 -0.06019796 -0.06015005 -0.06010354
 -0.06006013 -0.06001818 -0.05997645 -0.05993468 -0.05989186 -0.0598498 -0.05980933 -0.05977071 -0.05973477 -0.05969846
 -0.05966134 -0.05962088 -0.05957638 -0.05952971 -0.05948087 -0.05943424 -0.05938996 -0.05934971 -0.05931323 -0.05927899
 -0.05924695 -0.05921591 -0.05918648 -0.05915993 -0.05913669 -0.05911865 -0.05910476 -0.05909497 -0.05908645 -0.05907685
 -0.05906304 -0.05904204 -0.05901294 -0.0589739 -0.05892783 -0.05887466 -0.05881969 -0.05876398 -0.05871125 -0.05866238
 -0.0586165 -0.0585737 -0.05853042 -0.05848655 -0.05844042 -0.05839237 -0.0583447 -0.05829775 -0.05825479 -0.0582151
 -0.05817855 -0.05814371 -0.05810735 -0.05806924 -0.05802714 -0.05798303 -0.05793784 -0.05789389 -0.0578535 -0.05781627
 -0.05778317 -0.05775105 -0.05771918 -0.05768492 -0.0576473 -0.05760684 -0.05756332 -0.05751908 -0.05747429 -0.05743067
 -0.05738827 -0.0573472 -0.05730746 -0.05726891 -0.05723163 -0.05719603 -0.05716192 -0.05712916 -0.05709711 -0.05706438
 -0.05703055 -0.05699417 -0.05695582 -0.05691543 -0.05687406 -0.0568325 -0.05679119 -0.05675063 -0.05671058 -0.05667096
 -0.05663201 -0.0565937 -0.05655672 -0.05652125 -0.05648679 -0.05645335 -0.05641922 -0.05638433 -0.0563479 -0.05631008
 -0.05627194 -0.05623376 -0.05619751 -0.05616315 -0.0561318 -0.05610278 -0.05607551 -0.05604869 -0.05602043 -0.05598917
 -0.05595237 -0.05590997 -0.05586039 -0.05580651 -0.05574883 -0.05569139 -0.05563586 -0.05558367 -0.05553575 -0.05549055
 -0.05544792 -0.05540706 -0.05536782 -0.05533159 -0.05529842 -0.05526864 -0.05524195 -0.05521551 -0.05518898 -0.05515889
 -0.05512566 -0.05508875 -0.0550488 -0.05500699 -0.0549635 -0.05491903 -0.05487385 -0.05482821 -0.05478318 -0.05473962
 -0.05469819 -0.05465981 -0.05462325 -0.05458853 -0.05455343 -0.05451739 -0.05447946 -0.05443927 -0.05439771 -0.05435479
 -0.05431138 -0.05426753 -0.05422356 -0.05417958 -0.05413665 -0.05409505 -0.0540569 -0.05402225 -0.05399262 -0.0539674
 -0.05394628 -0.05392801 -0.05391072 -0.05389316 -0.05387338 -0.05385038 -0.05382295 -0.05379023 -0.05375135 -0.05370651
 -0.05365514 -0.05359975 -0.05354045 -0.05348131 -0.05342284 -0.05336849 -0.0533187 -0.05327412 -0.0532348 -0.05319919
 -0.05316711 -0.05313602 -0.05310562 -0.05307308 -0.05303822 -0.05299864 -0.05295508 -0.05290751 -0.05285797 -0.05280958
 -0.05276392 -0.05272438 -0.05268994 -0.05266138 -0.05263594 -0.05261229 -0.05258894 -0.05256493 -0.05254037 -0.05251542
 -0.05248872 -0.05246036 -0.05242683 -0.05238776 -0.05234148 -0.05228791 -0.05223013 -0.05216848 -0.05210809 -0.05204899
 -0.0519941 -0.0519428 -0.05189453 -0.05184857 -0.05180283 -0.05175726 -0.05171072 -0.05166374 -0.05161653 -0.05156932
 -0.05152273 -0.05147553 -0.05142753 -0.05137672 -0.05132204 -0.05126348 -0.05120025 -0.05113607 -0.05107116 -0.05101033
 -0.05095413 -0.05090423 -0.05086073 -0.05082177 -0.05078715 -0.05075391 -0.05072205 -0.05068997 -0.05065777 -0.05062495
 -0.05059156 -0.05055745 -0.05052266 -0.05048705 -0.05045113 -0.05041525 -0.0503803 -0.05034699 -0.05031618 -0.05028864
 -0.05026445 -0.05024416 -0.05022604 -0.05020987 -0.05019375 -0.05017721 -0.05015996 -0.05014181 -0.05012421 -0.05010724
 -0.05009225 -0.05007917 -0.05006738 -0.05005667 -0.05004544 -0.05003352 -0.0500195 -0.05000329 -0.04998405 -0.04996162
 -0.04993515 -0.04990527 -0.04987189 -0.04983707 -0.04980207 -0.04976949 -0.04974142 -0.0497182 -0.04970109 -0.04968699
 -0.04967583 -0.04966265 -0.04964662 -0.04962465 -0.04959615 -0.04956165 -0.04952114 -0.04947768 -0.04943151 -0.0493867
 -0.04934334 -0.04930423 -0.04926876 -0.04923642 -0.04920612 -0.04917482 -0.04914197 -0.04910474 -0.04906437 -0.04902091
 -0.04897639 -0.04893259 -0.04889044 -0.0488514 -0.0488141 -0.04877852 -0.04874262 -0.04870581 -0.04866718 -0.04862629
 -0.04858426 -0.0485411 -0.04849871 -0.04845724 -0.04841742 -0.04837918 -0.04834186 -0.04830539 -0.04826898 -0.04823269
 -0.04819632 -0.0481598 -0.04812301 -0.04808547 -0.04804626 -0.04800507 -0.04796091 -0.04791447 -0.04786573 -0.04781607
 -0.04776619 -0.04771738 -0.04767041 -0.04762561 -0.04758335 -0.0475429 -0.04750425 -0.0474662 -0.04742857 -0.04739104
 -0.04735356 -0.0473171 -0.04728168 -0.0472482 -0.04721639 -0.04718504 -0.04715361 -0.04711924 -0.04708169 -0.04703867
 -0.04699077 -0.04693772 -0.0468809 -0.04682164 -0.0467617 -0.04670298 -0.04664675 -0.04659438 -0.04654608 -0.0465024
 -0.04646257 -0.04642669 -0.0463929 -0.04636103 -0.04632856 -0.04629522 -0.04625884 -0.04621923 -0.04617603 -0.04612935
 -0.04608095 -0.04603101 -0.04598177 -0.04593321 -0.04588649 -0.04584123 -0.04579709 -0.04575364 -0.04570997 -0.04566582
 -0.04562048 -0.04557398 -0.04552608 -0.04547692 -0.04542633 -0.04537512 -0.04532352 -0.04527241 -0.04522225 -0.04517264
 -0.04512381 -0.0450737 -0.04502204 -0.04496792 -0.0449112 -0.0448541 -0.04479676 -0.04474207 -0.04468988 -0.04464066
 -0.0445939 -0.04454765 -0.04450163 -0.04445396 -0.04440475 -0.04435319 -0.04429995 -0.04424539 -0.0441906 -0.04413659
 -0.04408428 -0.04403489 -0.04398743 -0.04394219 -0.04389647 -0.04384956 -0.04379934 -0.04374494 -0.04368753 -0.04362697
 -0.04356661 -0.04350667 -0.04344942 -0.04339486 -0.04334204 -0.0432907 -0.04323814 -0.04318451 -0.04312888 -0.04307175
 -0.04301406 -0.0429561 -0.0428989 -0.04284228 -0.04278637 -0.0427309 -0.04267561 -0.04262051 -0.04256545 -0.04251074
 -0.04245638 -0.04240295 -0.04235074 -0.04229958 -0.0422497 -0.04219935 -0.04214847 -0.04209441 -0.04203691 -0.04197578
 -0.0419111 -0.04184549 -0.04177924 -0.04171593 -0.04165543 -0.04159934 -0.04154661 -0.0414954 -0.04144412 -0.04138854
 -0.04132865 -0.04126181 -0.04119114 -0.04111814 -0.04104676 -0.04098052 -0.04091973 -0.04086613 -0.04081614 -0.0407694
 -0.04072127 -0.0406707 -0.04061507 -0.04055363 -0.04048765 -0.04041707 -0.04034647 -0.04027606 -0.04020932 -0.04014583
 -0.04008379 -0.04002246 -0.03995723 -0.0398884 -0.03981409 -0.03973597 -0.0396562 -0.03957658 -0.0395008 -0.03942884
 -0.03936268 -0.03929967 -0.03923921 -0.03917724 -0.03911145 -0.03904057 -0.03896299 -0.03888217 -0.03879831 -0.03871557
 -0.0386347 -0.03855655 -0.03848131 -0.03840748 -0.038335 -0.03826291 -0.03819121 -0.03811954 -0.03804762 -0.03797392
 -0.03789797 -0.03781748 -0.03773232 -0.03764076 -0.03754408 -0.03744289 -0.03733969 -0.03723701 -0.03713713 -0.03704276
 -0.03695356 -0.03687071 -0.03679079 -0.03671333 -0.03663389 -0.0365514 -0.03646343 -0.03636932 -0.03626971 -0.03616449
 -0.0360566 -0.03594618 -0.03583604 -0.03572614 -0.03561726 -0.03550918 -0.0354012 -0.03529324 -0.03518468 -0.03507568
 -0.03496648 -0.03485677 -0.03474651 -0.03463455 -0.03451996 -0.03440126 -0.03427707 -0.03414676 -0.03400942 -0.03386598
 -0.03371641 -0.03356236 -0.03340412 -0.03324314 -0.03307959 -0.03291506 -0.03274972 -0.03258409 -0.03241813 -0.03224925
 -0.03207724 -0.03189849 -0.03171377 -0.03152454 -0.03133276 -0.03114566 -0.03096368 -0.03079222 -0.03062822 -0.03046981
 -0.03031337 -0.03015365 -0.0299911 -0.02982365 -0.02965503 -0.02948684 -0.02932058 -0.02915773 -0.0289958 -0.02883476
 -0.02867086 -0.02850369 -0.02832979 -0.02814896 -0.02795662 -0.02775249 -0.02753035 -0.02729033 -0.02703116 -0.02675434
 -0.02646729 -0.02617065 -0.02587149 -0.02556698 -0.02525465 -0.02493144 -0.024591 -0.02423354 -0.02385709 -0.02346211
 -0.0230502 -0.02261529 -0.02215646 -0.02166251 -0.02112865 -0.0205514 -0.01992673 -0.01926814 -0.01857562 -0.01787197
 -0.01715899 -0.01645572 -0.01576317 -0.01509244 -0.01444309 -0.01381526 -0.01320624 -0.01260224 -0.01199979 -0.01137812
 -0.01074037 -0.01008024 -0.00940979 -0.008746199 -0.008094525 -0.00747054 -0.006863076 -0.006270039 -0.005677626 -0.005076944
 -0.004464921 -0.003837587 -0.003199613 -0.002551266 -0.001897051 -0.001237176 -0.0005786929 7.801902E-05 0.000723257 0.001356524
 0.001974633 0.002577434 0.003163617 0.003730949 0.004266388 0.00476738 0.005216659 0.005617082 0.005965707 0.006268417
 0.006534205 0.006764216 0.006963901 0.007130417 0.007262096 0.007360711 0.007425915 0.007462499 0.007472752 0.007456691
 0.007415198 0.007344937 0.007245704 0.007113823 0.006949272 0.006744407 0.0064988 0.006201059 0.005851363 0.005447205
 0.004991891 0.004502741 0.003983615 0.003457633 0.002925127 0.002397483 0.001875377 0.00136292 0.000865799 0.0003908005
 -5.470826E-05 -0.0004617852 -0.0008301574 -0.001155881 -0.001446013 -0.001702548 -0.001929516 -0.002129151 -0.002298157 -0.002436111
 -0.002541612 -0.002613883 -0.002661288 -0.002684253 -0.002693885 -0.00269034 -0.002678105 -0.002656821 -0.002626184 -0.00258683
 -0.002540343 -0.002488775 -0.002437721 -0.002388797 -0.002347363 -0.002313448 -0.002289109 -0.002273963 -0.002268327 -0.002271879
 -0.002285096 -0.002305536 -0.002333312 -0.002362526 -0.002392024 -0.002416155 -0.002433622 -0.002442684 -0.002442817 -0.002436338
 -0.002423337 -0.002408274 -0.002391321 -0.002376039 -0.002361996 -0.002348586 -0.002334747 -0.002315738 -0.00229203 -0.002261495
 -0.002227258 -0.002193388 -0.002162928 -0.002141406 -0.002129266 -0.002128441 -0.002139334 -0.002162309 -0.002198789 -0.002249173
 -0.002315281 -0.002397324 -0.002498278 -0.002618617 -0.00276093 -0.002925922 -0.003109982 -0.003312984 -0.003526179 -0.003749496
 -0.003980257 -0.004219598 -0.004473328 -0.004742774 -0.005035931 -0.005353475 -0.005701325 -0.006078911 -0.006488519 -0.006927667
 -0.007395248 -0.00788633 -0.008398728 -0.008921606 -0.009450526 -0.00996985 -0.01047175 -0.01095019 -0.01140007 -0.01183079
 -0.01224287 -0.01264669 -0.01304383 -0.0134353 -0.01382131 -0.01419699 -0.01456212 -0.01491285 -0.01524916 -0.01556908
 -0.01587246 -0.01615719 -0.0164241 -0.01667287 -0.0169077 -0.01713395 -0.01735984 -0.01759672 -0.01785247 -0.01813877
 -0.01845532 -0.01880738 -0.01918455 -0.01958509 -0.01999599 -0.0204142 -0.02082796 -0.02123606 -0.02162202 -0.0219843
 -0.0223066 -0.02258755 -0.02283064 -0.02303684 -0.02322509 -0.02339585 -0.02356197 -0.02372164 -0.0238743 -0.02401845
 -0.02414938 -0.02426784 -0.02437343 -0.02446598 -0.02454629 -0.02461065 -0.02465629 -0.02467998 -0.02467828 -0.02465241
 -0.02460172 -0.02452926 -0.02443601 -0.0243227 -0.02418968 -0.02403671 -0.02386371 -0.02367149 -0.02346007 -0.02323017
 -0.02298201 -0.02271883 -0.02244231 -0.02216562 -0.02189142 -0.0216385 -0.02140625 -0.02120394 -0.02102658 -0.02086991
 -0.02072836 -0.02059314 -0.02046072 -0.02032497 -0.02018455 -0.02003627 -0.01988252 -0.01972185 -0.01956381 -0.01941002
 -0.01927153 -0.01915153 -0.01905062 -0.01896984 -0.01890143 -0.01884496 -0.01879401 -0.01874841 -0.01870638 -0.018668
 -0.01863343 -0.01860211 -0.01857254 -0.01854262 -0.01850689 -0.01846139 -0.01839674 -0.01830885 -0.01818818 -0.01803394
 -0.01784177 -0.01761349 -0.01734946 -0.0170497 -0.01671422 -0.0163431 -0.01593458 -0.01549786 -0.01503271 -0.01455757
 -0.01407424 -0.01359919 -0.01313377 -0.01268554 -0.01225484 -0.01184585 -0.01145917 -0.01110148 -0.01077365 -0.01048312
 -0.01023019 -0.01001914 -0.009850585 -0.009727232 -0.009650584 -0.009623908 -0.009647603 -0.009723891 -0.009850321 -0.01002651
 -0.01024861 -0.01051536 -0.01082214 -0.01116821 -0.01154637 -0.01195586 -0.01238717 -0.01283942 -0.01330267 -0.01377624
 -0.01425086 -0.01472606 -0.01519404 -0.0156547 -0.01610385 -0.0165416 -0.01696674 -0.01737847 -0.01777446 -0.01815267
 -0.01850806 -0.01883927 -0.01914178 -0.01941707 -0.01966408 -0.01988726 -0.02008885 -0.02027326 -0.0204433 -0.02060018
 -0.02074539 -0.02087627 -0.0209926 -0.0210915 -0.02117227 -0.02123599 -0.02128257 -0.0213158 -0.0213358 -0.02134474
 -0.02134253 -0.021329 -0.02130463 -0.02127103 -0.02122977 -0.02118631 -0.02114184 -0.02110178 -0.02106545 -0.02103449
 -0.02100688 -0.02098093 -0.02095606 -0.02093053 -0.02090721 -0.02088643 -0.02087264 -0.02086747 -0.0208728 -0.02088987
 -0.02091557 -0.02094996 -0.02098772 -0.02102845 -0.02106825 -0.02110701 -0.02114407 -0.02117955 -0.02121452 -0.02124878
 -0.02128239 -0.02131418 -0.02134117 -0.02136133 -0.02136907 -0.02136333 -0.02133964 -0.02129967 -0.0212426 -0.02117293
 -0.02109276 -0.02100771 -0.02092049 -0.02083629 -0.02075721 -0.02068671 -0.02062601 -0.02057589 -0.02053667 -0.02050798
 -0.02048974 -0.02048325 -0.02048857 -0.02050775 -0.02054047 -0.02058503 -0.02064021 -0.02069915 -0.02076066 -0.02081716
 -0.02086895 -0.02091276 -0.02094998 -0.02098144 -0.02100775 -0.02103018 -0.02104788 -0.02106051 -0.02106782 -0.02106904
 -0.02106641 -0.02106019 -0.02105364 -0.02104777 -0.02104312 -0.02104017 -0.02103668 -0.02103257 -0.02102512 -0.02101421
 -0.02099863 -0.02097845 -0.02095383 -0.02092502 -0.02089321 -0.02085863 -0.02082283 -0.0207853 -0.02074596 -0.02070349
 -0.02065578 -0.02060223 -0.02054078 -0.02047327 -0.02040002 -0.02032381 -0.02024624 -0.02016839 -0.02009115 -0.02001392
 -0.01993643 -0.01985985 -0.01978411 -0.0197123 -0.01964477 -0.01958254 -0.01952563 -0.01947037 -0.01941645 -0.01935918
 -0.01929893 -0.01923492 -0.01916821 -0.0191019 -0.01903642 -0.0189744 -0.01891545 -0.01886019 -0.01880804 -0.01875854
 -0.01871157 -0.01866678 -0.01862464 -0.01858497 -0.0185495 -0.01851862 -0.01849435 -0.01847745 -0.01846766 -0.01846539
 -0.01846714 -0.0184726 -0.0184798 -0.01848867 -0.01850162 -0.01851879 -0.01854286 -0.01857313 -0.01860736 -0.01864455
 -0.01867954 -0.01871312 -0.01874406 -0.01877465 -0.01880833 -0.01884555 -0.01888925 -0.01893565 -0.01898362 -0.01902766
 -0.01906412 -0.01909177 -0.01910837 -0.01911885 -0.01912368 -0.01912856 -0.0191349 -0.01914245 -0.01915161 -0.01915662
 -0.01915716 -0.01914842 -0.01913058 -0.0191042 -0.01906991 -0.0190316 -0.0189895 -0.0189466 -0.0189024 -0.01885731
 -0.01881053 -0.01876112 -0.01870824 -0.01865069 -0.01858773 -0.01851862 -0.01844229 -0.01835807 -0.01826501 -0.01816262
 -0.01805032 -0.01792782 -0.01779543 -0.01765318 -0.01750111 -0.01733924 -0.01716728 -0.01698521 -0.01679485 -0.01659658
 -0.01639525 -0.01619156 -0.01599184 -0.01579686 -0.01561262 -0.01543948 -0.01528171 -0.01513803 -0.01500929 -0.01489143
 -0.01478093 -0.01467261 -0.01456117 -0.01444397 -0.01431761 -0.01418347 -0.0140407 -0.01389344 -0.01374206 -0.01359229
 -0.0134449 -0.01330543 -0.01317475 -0.01305266 -0.01293922 -0.01282563 -0.01271126 -0.01258483 -0.01244679 -0.01229363
 -0.01212725 -0.01195283 -0.01177136 -0.01158847 -0.01140247 -0.01121327 -0.01101871 -0.01081563 -0.01060465 -0.01038438
 -0.01015869 -0.00992875 -0.009699438 -0.009472451 -0.009252458 -0.009040653 -0.008841303 -0.008655124 -0.008485768 -0.008333608
 -0.00820175 -0.00809039 -0.008002143 -0.007936986 -0.007895446 -0.007876705 -0.007876339 -0.007892739 -0.007917436 -0.007949769
 -0.007983326 -0.008019654 -0.00805863 -0.008101445 -0.008150876 -0.008203226 -0.008258138 -0.008306785 -0.008344503 -0.008364129
 -0.00836066 -0.008335785 -0.008287791 -0.008225841 -0.008150887 -0.008072096 -0.007990696 -0.007910118 -0.007830676 -0.007750794
 -0.007670319 -0.007586386 -0.007499148 -0.007407871 -0.007313496 -0.007218849 -0.007125497 -0.007038592 -0.006959554 -0.006893173
 -0.006840037 -0.006802932 -0.006781244 -0.006775721 -0.006784473 -0.006806612 -0.0068408 -0.006885785 -0.006943217 -0.007012965
 -0.007098399 -0.007200555 -0.00731843 -0.007452697 -0.00759382 -0.00774133 -0.007882604 -0.008017318 -0.008139145 -0.008248813
 -0.008348101 -0.008437875 -0.00852266 -0.008602278 -0.008678962 -0.008751192 -0.008817799 -0.008876165 -0.008922624 -0.008955407
 -0.008970575 -0.008971426 -0.008957001 -0.008936865 -0.008913707 -0.008898068 -0.008893715 -0.008904781 -0.008933127 -0.008976243
 -0.009034102 -0.009103781 -0.009185041 -0.00927854 -0.009384376 -0.009504669 -0.009639204 -0.00978771 -0.009949366 -0.01012106
 -0.01030144 -0.01048579 -0.01067216 -0.01085525 -0.01103299 -0.01120063 -0.01135719 -0.01149964 -0.01162976 -0.01174686
 -0.01185586 -0.01195799 -0.01205932 -0.01216182 -0.01226897 -0.01238223 -0.01249974 -0.01262183 -0.0127422 -0.01286048
 -0.01297111 -0.01307403 -0.01316846 -0.01325484 -0.01333639 -0.01341313 -0.01348714 -0.01355751 -0.0136226 -0.01368197
 -0.01373345 -0.01377864 -0.01381826 -0.01385514 -0.01389229 -0.01393074 -0.01397252 -0.01401582 -0.01406073 -0.01410421
 -0.01414552 -0.01418215 -0.01421341 -0.0142385 -0.014257 -0.01427131 -0.0142815 -0.01429215 -0.01430345 -0.01431863
 -0.0143375 -0.01436007 -0.01438623 -0.01441574 -0.01444831 -0.01448391 -0.0145203 -0.01455393 -0.01458116 -0.01459486
 -0.01459562 -0.01457935 -0.01455451 -0.01452434 -0.0144984 -0.01448289 -0.01447778 -0.01448595 -0.01449723 -0.01451039
 -0.01451584 -0.01451181 -0.01449751 -0.01447258 -0.01444289 -0.01440872 -0.01437552 -0.01434314 -0.01431281 -0.01428413
 -0.01425576 -0.0142279 -0.01420029 -0.01417358 -0.01414923 -0.01412679 -0.01410687 -0.01408712 -0.01406568 -0.01404048
 -0.01400902 -0.01397252 -0.01393049 -0.01388604 -0.01384048 -0.01379359 -0.01374615 -0.01369346 -0.01363496 -0.01356776
 -0.0134914 -0.01341038 -0.01332508 -0.01324454 -0.01316883 -0.013103 -0.01304583 -0.01299463 -0.01294808 -0.01290044
 -0.01285247 -0.01280238 -0.01275281 -0.01270678 -0.0126658 -0.01263318 -0.01260699 -0.01258737 -0.01257104 -0.0125564
 -0.01254209 -0.01252738 -0.01251172 -0.01249546 -0.01247464 -0.01244912 -0.01241276 -0.01236495 -0.01230443 -0.01223137
 -0.01215309 -0.01207031 -0.01199314 -0.01192098 -0.01185731 -0.01179911 -0.01173958 -0.01167559 -0.01159652 -0.01150371
 -0.01139266 -0.01127123 -0.01114451 -0.01102154 -0.0109107 -0.01081432 -0.01073698 -0.01067275 -0.01062147 -0.01057443
 -0.01052995 -0.01048142 -0.01042766 -0.01036578 -0.01029531 -0.01021822 -0.01013474 -0.01005137 -0.009968435 -0.009892039
 -0.009821588 -0.009757745 -0.009699172 -0.009642149 -0.00958581 -0.009526438 -0.009464165 -0.009397735 -0.00932717 -0.009252314
 -0.00917238 -0.009086631 -0.00899506 -0.008896558 -0.008795008 -0.008690437 -0.008590569 -0.008496978 -0.008415378 -0.008347252
 -0.008291176 -0.00824741 -0.008208965 -0.008175497 -0.00814078 -0.00810498 -0.008067001 -0.008027846 -0.007991831 -0.007959929
 -0.007938173 -0.007925176 -0.007922322 -0.0079244 -0.007924988 -0.007918426 -0.007895466 -0.007856583 -0.007797312 -0.007726333
 -0.007645891 -0.007565782 -0.007490442 -0.007422158 -0.007363167 -0.007307595 -0.007255035 -0.007199604 -0.007140539 -0.007078647
 -0.00701401 -0.00695156 -0.006891365 -0.006835985 -0.006784962 -0.006737257 -0.006692462 -0.006648992 -0.006606134 -0.006561758
 -0.006514982 -0.006462883 -0.006407031 -0.00634684 -0.006287421 -0.006232579 -0.006184672 -0.006147341 -0.006115323 -0.006088435
 -0.006058455 -0.006023173 -0.005979258 -0.005925454 -0.005864455 -0.005796156 -0.005727009 -0.005657353 -0.005593699 -0.005535759
 -0.005483356 -0.005434608 -0.005379125 -0.005315853 -0.005234272 -0.005138131 -0.005029589 -0.004914785 -0.004805052 -0.00470149
 -0.004610984 -0.004528247 -0.004451213 -0.004376608 -0.004300474 -0.004228194 -0.004159913 -0.004104243 -0.004064128 -0.004039716
 -0.004032674 -0.004031349 -0.004035139 -0.004030177 -0.004015772 -0.003988154 -0.003948011 -0.003902357 -0.003851765 -0.003803584
 -0.003756408 -0.003709506 -0.003660982 -0.003605358 -0.003543705 -0.003474363 -0.003401414 -0.003329043 -0.003259082 -0.003195549
 -0.003134447 -0.003075046 -0.003012836 -0.002944567 -0.002874554 -0.002802377 -0.002737129 -0.002680873 -0.002633656 -0.002596225
 -0.002558499 -0.002519981 -0.002475435 -0.002425452 -0.002376239 -0.002328375 -0.002288906 -0.002256517 -0.002230358 -0.002208938
 -0.002188209 -0.002167865 -0.002146196 -0.002121767 -0.002092934 -0.002056881 -0.002010624 -0.001953505 -0.001883499 -0.001804177
 -0.001715662 -0.001624021 -0.001530442 -0.001440731 -0.001356254 -0.001278386 -0.001207873 -0.001137904 -0.001068136 -0.0009874733
 -0.0008959325 -0.0007902375 -0.0006723917 -0.0005525583 -0.0004326331 -0.000325861 -0.0002302226 -0.0001484631 -7.565919E-05 -3.840612E-06
 6.726259E-05 0.0001432375 0.0002163121 0.0002825108 0.0003347528 0.0003659567 0.0003807549 0.0003770928 0.000369581 0.0003610361
 0.0003641254 0.0003819027 0.0004171075 0.0004707887 0.0005370551 0.000615646 0.0006967738 0.0007799461 0.000856167 0.0009255994
 0.0009844024 0.001033582 0.001074326 0.001108359 0.001140066 0.001171452 0.001207822 0.001250233 0.001302037 0.001363252
 0.001434481 0.00151708 0.001612433 0.001719712 0.0018428 0.001963407 0.002081232 0.002161514 0.002195426 0.002182932
 0.002120236 0.002051748 0.00197992 0.001933728 0.001912613 0.001911709 0.001928804 0.001946889 0.001966558 0.00198073
 0.001992051 0.002004384 0.002017639 0.002033953 0.00205107 0.002066594 0.002080467 0.002091314 0.002101266 0.002111152
 0.00212258 0.00213657 0.002153073 0.002172584 0.002193118 0.002214689 0.002233642 0.002249567 0.002260322 0.002265731
 0.002266401 0.002262389 0.002254861 0.002243628 0.002227889 0.002207565 0.002181607 0.002150756 0.002116265 0.002079031
 0.002041466 0.002003296 0.001965215 0.001926544 0.001885883 0.001846303 0.00180844 0.001777476 0.001756868 0.001744318
 0.001741316 0.001737265 0.001729989 0.001715757 0.001692817 0.001673713 0.001659068 0.001662601 0.001684294 0.001723508
 0.00177961 0.001847286 0.001927686 0.002023693 0.002134492 0.002261921 0.00239864 0.002533497 0.002657851 0.002754834
 0.00282471 0.00285878 0.002870176 0.002861735 0.002852835 0.002852075 0.002871197 0.002917175 0.002984417 0.003074903
 0.003168971 0.003265057 0.003344205 0.003404962 0.003440333 0.00345057 0.003440983 0.003413012 0.003379057 0.003340662
 0.00331082 0.003289863 0.003285756 0.003296898 0.003324401 0.003365672 0.003418098 0.003479135 0.003545995 0.003616136
 0.003687189 0.003758066 0.003826952 0.003897115 0.003968667 0.004046691 0.004132549 0.004226847 0.00433043 0.004436383
 0.004544514 0.00464115 0.00472556 0.004783556 0.00481586 0.004819483 0.004798838 0.00476991 0.004738301 0.00472892
 0.004740923 0.004786983 0.004857003 0.004944333 0.005036783 0.005120814 0.005189993 0.005236116 0.005258407 0.005254485
 0.005225805 0.005171701 0.005096763 0.005000911 0.004893214 0.004774444 0.004654054 0.004532795 0.0044156 0.004302504
 0.004192779 0.004085928 0.003977397 0.0038675 0.003754072 0.003640096 0.003532037 0.00343411 0.003358884 0.003304644
 0.003277415 0.003265147 0.00326055 0.003249096 0.003217831 0.003164421 0.003081367 0.00298396 0.002872743 0.002772307
 0.00268745 0.002635203 0.002619746 0.002635167 0.002682047 0.002730865 0.002781162</values></Ydata></AB><ScSm><Ydata ylabel="Single channel"><values byteorder="INTEL" format="FLOAT32" numvalues="1814"> 0.08684944 0.08696054 0.08708454 0.08722881 0.08738976 0.08755288 0.08770144 0.08782879 0.08794011 0.08804164
 0.08813723 0.08823895 0.08836656 0.08852742 0.08870395 0.08886506 0.08898869 0.08908094 0.08917725 0.08931005
 0.08946429 0.08957774 0.08959927 0.08954509 0.08948851 0.08949287 0.0895692 0.08971328 0.08995004 0.09027296
 0.09055294 0.09061918 0.09047251 0.0903215 0.09035049 0.09053338 0.09071653 0.09079035 0.09073485 0.09060626
 0.09055797 0.09079131 0.09137326 0.09208782 0.09250142 0.09221187 0.09111707 0.08956163 0.08825422 0.08789599
 0.08867451 0.09005472 0.09117982 0.09156197 0.09134524 0.09093796 0.09058728 0.09037663 0.09041472 0.09081265
 0.09150393 0.09217565 0.09239233 0.09188107 0.09083949 0.08990094 0.08961864 0.09003626 0.09088051 0.09189145
 0.09257729 0.09196846 0.08947659 0.08619665 0.08456493 0.08610821 0.08984688 0.09331581 0.09480831 0.09427366
 0.09260474 0.09085336 0.08995681 0.09041029 0.09193894 0.09377334 0.09526543 0.09606394 0.09594901 0.09493126
 0.09346231 0.09224573 0.09184778 0.09253448 0.09416176 0.0960106 0.09707493 0.09685524 0.09573194 0.09446931
 0.09365242 0.09365869 0.09468449 0.09651148 0.09852825 0.1001832 0.1012722 0.1018161 0.1019224 0.1017629
 0.1014908 0.1012205 0.1011408 0.1014174 0.1018648 0.1019889 0.1015375 0.1008427 0.1004842 0.1006916
 0.1011491 0.1013755 0.1012005 0.1006689 0.09954934 0.09745337 0.09463491 0.0921066 0.09064963 0.09026682
 0.09083036 0.09241888 0.09454291 0.09590459 0.09570415 0.09471749 0.09445642 0.09553732 0.09729895 0.09877694
 0.09964357 0.1002607 0.1011137 0.1022587 0.1031793 0.1031582 0.1020022 0.1004995 0.09989718 0.1006958
 0.1021684 0.1032664 0.1037297 0.104052 0.1046082 0.1051084 0.10485 0.1034673 0.1015614 0.1004923
 0.1012573 0.1035013 0.1057009 0.1063164 0.1048864 0.102275 0.09994704 0.09891677 0.09935511 0.1010057
 0.1035437 0.10642 0.1087784 0.1098906 0.1096579 0.1085896 0.1072496 0.1057307 0.103856 0.1019965
 0.1012874 0.1025645 0.1052869 0.1079667 0.1095427 0.1099688 0.1096068 0.1085055 0.1064979 0.1039453
 0.1020679 0.1020408 0.1036593 0.1053934 0.106017 0.1057534 0.1055733 0.1058606 0.1061998 0.1062017
 0.1060743 0.1063263 0.1071227 0.1080838 0.1086956 0.1087899 0.1085819 0.1083661 0.1082377 0.1080378
 0.1075965 0.1071058 0.107106 0.1079153 0.109201 0.1103145 0.1109303 0.1111742 0.1112301 0.111026
 0.1103565 0.1092885 0.1083539 0.1081728 0.1088506 0.1099003 0.1107606 0.1112129 0.1113216 0.1112221
 0.1110319 0.1108209 0.1106243 0.1105221 0.1106261 0.1109301 0.1112668 0.1114737 0.1115256 0.1114715
 0.1113295 0.1110948 0.1108086 0.1105739 0.1104878 0.1105644 0.110738 0.1109307 0.1110836 0.1111393
 0.1110621 0.1108861 0.1106962 0.1105497 0.1104515 0.1103982 0.110404 0.1104704 0.1105604 0.1106216
 0.1106288 0.1105914 0.1105246 0.1104342 0.1103287 0.1102321 0.1101756 0.1101768 0.1102222 0.1102736
 0.1103098 0.1103513 0.1104178 0.1104771 0.1104743 0.1104053 0.1103243 0.110283 0.1102901 0.110323
 0.1103527 0.1103526 0.1103006 0.1101945 0.1100745 0.1100134 0.1100622 0.1102123 0.1104202 0.110644
 0.110844 0.1109852 0.1110661 0.1111206 0.1111754 0.1112245 0.1112544 0.1112759 0.1113249 0.1114355
 0.1116069 0.1117978 0.1119612 0.1120783 0.1121558 0.1122152 0.1122915 0.1124074 0.1125352 0.1126185
 0.1126474 0.1126793 0.1127673 0.1128956 0.1130023 0.1130527 0.113071 0.1131052 0.1131755 0.1132637
 0.113345 0.113418 0.1135009 0.1136046 0.113707 0.1137609 0.1137395 0.1136724 0.1136192 0.11361
 0.1136318 0.1136668 0.1137157 0.113778 0.1138323 0.1138512 0.1138305 0.1137955 0.1137741 0.1137658
 0.1137434 0.1136856 0.1136014 0.1135175 0.1134531 0.1134088 0.1133714 0.113324 0.113255 0.1131618
 0.1130501 0.1129292 0.1128069 0.1126903 0.1125937 0.1125372 0.1125213 0.1125033 0.1124206 0.1122477
 0.1120243 0.1118177 0.1116648 0.1115512 0.1114389 0.1113041 0.1111526 0.1110063 0.1108815 0.1107782
 0.1106862 0.1105969 0.110514 0.1104561 0.1104406 0.1104572 0.1104657 0.1104321 0.1103629 0.110294
 0.1102502 0.1102301 0.1102222 0.110221 0.1102295 0.1102552 0.1103014 0.1103562 0.1103989 0.1104237
 0.110448 0.1104949 0.1105758 0.1106905 0.1108274 0.1109591 0.1110586 0.1111276 0.1111976 0.1112972
 0.1114267 0.1115709 0.111722 0.1118845 0.1120642 0.1122633 0.1124824 0.1127214 0.1129785 0.1132497
 0.1135277 0.1138021 0.1140679 0.1143337 0.1146183 0.1149336 0.1152737 0.115621 0.1159612 0.1162938
 0.1166278 0.1169697 0.1173173 0.1176683 0.11803 0.1184116 0.1188101 0.1192102 0.1196 0.1199814
 0.1203635 0.1207518 0.1211455 0.1215439 0.1219533 0.1223821 0.1228257 0.1232598 0.1236587 0.1240205
 0.1243691 0.1247323 0.1251217 0.1255268 0.1259224 0.1262868 0.126623 0.1269569 0.1273084 0.1276694
 0.1280204 0.1283646 0.1287309 0.1291384 0.1295637 0.1299542 0.1302757 0.130546 0.1308133 0.1311047
 0.1314025 0.1316748 0.1319185 0.1321593 0.1324172 0.1326896 0.1329702 0.1332671 0.1335853 0.1339053
 0.1341961 0.1344491 0.1346827 0.1349155 0.1351443 0.1353508 0.1355236 0.1356729 0.1358261 0.1360029
 0.1361974 0.1363902 0.1365782 0.136778 0.1370034 0.1372523 0.1375211 0.1378148 0.1381336 0.138461
 0.1387797 0.1390967 0.1394364 0.1398016 0.140156 0.1404608 0.1407184 0.1409639 0.1412213 0.1414908
 0.1417744 0.1420869 0.1424361 0.1428067 0.1431715 0.1435127 0.1438358 0.1441664 0.1445237 0.1448924
 0.1452294 0.1455059 0.1457363 0.1459613 0.1462128 0.1464955 0.146792 0.1470801 0.1473457 0.14758
 0.1477678 0.1478899 0.1479436 0.1479496 0.1479262 0.1478621 0.147724 0.1474853 0.1471376 0.1466746
 0.1460804 0.145345 0.1444937 0.1436023 0.1427819 0.1421449 0.141774 0.141711 0.1419574 0.142473
 0.1431721 0.1439338 0.1446317 0.1451591 0.1454375 0.1454178 0.1450901 0.1444892 0.1436818 0.1427435
 0.1417432 0.1407367 0.1397683 0.1388918 0.1381996 0.13783 0.1379321 0.1386145 0.1399031 0.1417157
 0.1438583 0.1460723 0.148129 0.1499114 0.15142 0.1527142 0.1538559 0.1548924 0.1558602 0.1567823
 0.1576632 0.158497 0.1592798 0.1600111 0.1606857 0.1612884 0.1617987 0.162198 0.1624787 0.162652
 0.1627453 0.1627897 0.1628124 0.1628371 0.1628742 0.1628991 0.1628476 0.1626466 0.1622547 0.1616866
 0.1610233 0.1604227 0.160111 0.1603255 0.1612096 0.1627246 0.1646514 0.1666934 0.1686027 0.1702415
 0.17157 0.1726127 0.1734319 0.1741019 0.1746825 0.1752095 0.1757019 0.1761714 0.1766253 0.1770676
 0.1775004 0.1779261 0.1783487 0.1787722 0.1791957 0.1796135 0.1800231 0.1804304 0.1808448 0.1812693
 0.1816964 0.1821143 0.1825203 0.1829243 0.1833353 0.1837471 0.1841446 0.1845232 0.1848942 0.1852711
 0.1856595 0.1860585 0.1864629 0.1868613 0.187241 0.1875974 0.1879366 0.1882678 0.1885974 0.1889269
 0.1892553 0.1895799 0.1899008 0.1902223 0.1905502 0.190884 0.1912144 0.1915306 0.1918289 0.1921149
 0.1923976 0.1926828 0.1929716 0.1932622 0.193555 0.1938539 0.1941625 0.1944781 0.1947927 0.1951009
 0.1954016 0.1956955 0.1959834 0.1962684 0.1965553 0.1968452 0.1971351 0.1974228 0.1977088 0.1979942
 0.1982802 0.1985683 0.1988595 0.1991518 0.1994405 0.1997228 0.2000011 0.2002809 0.2005648 0.2008497
 0.2011317 0.20141 0.2016863 0.2019607 0.2022307 0.2024939 0.2027511 0.2030074 0.2032686 0.2035369
 0.2038091 0.2040805 0.2043485 0.2046131 0.2048769 0.2051437 0.2054157 0.2056922 0.2059701 0.2062446
 0.206512 0.206774 0.2070375 0.2073074 0.2075824 0.2078581 0.2081307 0.2083992 0.2086645 0.2089286
 0.2091917 0.2094529 0.2097141 0.2099787 0.2102472 0.2105171 0.2107859 0.2110522 0.2113154 0.2115761
 0.2118365 0.2120977 0.2123596 0.2126214 0.212883 0.2131457 0.2134113 0.213679 0.2139457 0.2142115
 0.2144795 0.2147502 0.2150197 0.2152857 0.2155497 0.2158127 0.2160755 0.2163398 0.2166059 0.2168714
 0.2171354 0.2173992 0.2176638 0.2179282 0.2181919 0.2184551 0.2187195 0.2189865 0.2192548 0.2195217
 0.2197876 0.2200548 0.2203226 0.2205887 0.2208548 0.221123 0.221393 0.2216663 0.2219475 0.2222359
 0.2225249 0.2228098 0.2230894 0.2233632 0.2236311 0.2238943 0.2241525 0.224405 0.2246535 0.2249001
 0.2251455 0.225394 0.22565 0.2259113 0.2261719 0.2264317 0.2266937 0.2269564 0.2272182 0.227483
 0.2277546 0.2280336 0.2283187 0.2286064 0.2288913 0.2291725 0.2294531 0.2297336 0.2300138 0.2302967
 0.2305817 0.2308632 0.231142 0.2314263 0.2317183 0.2320137 0.23231 0.2326057 0.2328959 0.2331807
 0.2334661 0.2337543 0.2340426 0.2343314 0.234621 0.2349086 0.2351968 0.2354918 0.2357919 0.2360905
 0.2363854 0.2366764 0.2369635 0.2372536 0.2375536 0.2378562 0.2381512 0.2384414 0.2387325 0.2390221
 0.2393106 0.2396026 0.2398946 0.2401804 0.2404622 0.2407425 0.2410189 0.2412946 0.2415724 0.2418376
 0.2420601 0.2421795 0.2420373 0.2412943 0.2393837 0.235526 0.2288894 0.2189294 0.205727 0.190074
 0.1732454 0.1565962 0.1411971 0.127701 0.1164412 0.1075777 0.1011977 0.09740821 0.09640695 0.09857699
 0.1046205 0.1151494 0.1291438 0.1426018 0.1500295 0.1486106 0.14077 0.1319716 0.1262578 0.1242631
 0.1246075 0.1259398 0.1277276 0.1300991 0.1333807 0.137619 0.1425314 0.1479786 0.1542395 0.1615945
 0.1697843 0.1781048 0.1859998 0.1934245 0.2006386 0.207764 0.2146076 0.2208448 0.22627 0.2308726
 0.2347774 0.238158 0.2411636 0.243888 0.2463939 0.2487202 0.250829 0.2525802 0.2538147 0.2544833
 0.2547052 0.2547081 0.2546996 0.2547798 0.2549598 0.2552297 0.2555856 0.2560195 0.2565189 0.2570722
 0.2576621 0.2582679 0.258877 0.2594784 0.2600563 0.2606012 0.2611163 0.2616033 0.2620581 0.2624827
 0.2628865 0.263277 0.2636608 0.2640433 0.2644224 0.2647914 0.2651494 0.2654967 0.2658266 0.2661324
 0.266416 0.2666831 0.2669401 0.2671945 0.2674516 0.2677089 0.2679628 0.2682112 0.2684516 0.2686839
 0.2689153 0.2691528 0.2693933 0.2696305 0.2698612 0.2700845 0.2703018 0.2705181 0.270736 0.2709526
 0.2711687 0.2713914 0.2716227 0.2718561 0.2720849 0.2723088 0.2725335 0.2727692 0.2730218 0.2732828
 0.2735389 0.2737889 0.2740416 0.2743005 0.2745623 0.2748252 0.2750897 0.2753567 0.275627 0.2758989
 0.2761639 0.2764107 0.2766343 0.2768407 0.2770423 0.2772505 0.2774671 0.2776861 0.2779051 0.2781287
 0.2783606 0.2785979 0.2788342 0.2790645 0.2792899 0.279523 0.2797792 0.2800579 0.2803437 0.2806248
 0.2809023 0.2811791 0.2814544 0.2817285 0.2820018 0.2822686 0.282522 0.2827654 0.2830172 0.2833002
 0.2836192 0.2839509 0.2842617 0.2845404 0.2848039 0.2850772 0.2853743 0.2856879 0.2859863 0.2862357
 0.2864447 0.2866726 0.2869762 0.2873554 0.2877629 0.2881554 0.2885221 0.2888727 0.2892129 0.2895363
 0.2898325 0.2900987 0.2903506 0.2906257 0.2909611 0.2913533 0.2917548 0.2921221 0.2924513 0.2927588
 0.2930551 0.2933451 0.2936192 0.2938363 0.2939634 0.2940527 0.2942333 0.294592 0.2950795 0.2955625
 0.2959563 0.296277 0.2965766 0.2968721 0.2971529 0.2973917 0.2975147 0.2974403 0.297232 0.2971489
 0.2974338 0.2980674 0.2988041 0.2994204 0.2998598 0.3001777 0.3004417 0.3006886 0.3009032 0.3010168
 0.3009798 0.3008748 0.3009112 0.3012377 0.3017752 0.3023024 0.3026883 0.3029694 0.3032303 0.3035024
 0.3037484 0.3038452 0.3036354 0.3031462 0.3027404 0.3028827 0.3036866 0.30478 0.3056751 0.3062038
 0.3065172 0.3067409 0.3067937 0.3065411 0.3059605 0.3051479 0.3043659 0.3040883 0.3046907 0.3059702
 0.3072278 0.3079706 0.308336 0.3087385 0.3093298 0.309933 0.3103292 0.3104532 0.3103625 0.3101113
 0.3097216 0.3093208 0.3092276 0.3097272 0.3107376 0.3118289 0.3126261 0.313104 0.3134139 0.3134465
 0.312717 0.3109391 0.3087792 0.3076892 0.3086171 0.3110102 0.3134151 0.3149141 0.3156266 0.3160316
 0.3163447 0.3164552 0.3159081 0.3140504 0.3109186 0.308016 0.3074015 0.3096607 0.3132504 0.315995
 0.3167502 0.315639 0.3135015 0.3115051 0.3107273 0.3115663 0.3135736 0.3159099 0.3178533 0.3189947
 0.319256 0.3188384 0.318137 0.3176403 0.3176274 0.3177446 0.3172214 0.315874 0.3144662 0.3135322
 0.3123884 0.3102466 0.3079735 0.3075509 0.3096285 0.3125894 0.3144282 0.3148029 0.3146693 0.3143411
 0.312707 0.3086932 0.3032634 0.2993762 0.2994478 0.3029388 0.3068922 0.308838 0.308737 0.3081201
 0.3079363 0.3075555 0.3057119 0.3023015 0.2990674 0.2980377 0.2992486 0.3006772 0.3004763 0.2982694
 0.2941709 0.2883126 0.2823716 0.2798848 0.2831214 0.2902477 0.2969451 0.3001365 0.298941 0.2933794
 0.2846861 0.2766431 0.273877 0.2775844 0.28413 0.2885668 0.2885382 0.2843664 0.2770189 0.267675
 0.2587755 0.2537358 0.2547731 0.2611321 0.2692268 0.2742009 0.2724189 0.2643811 0.255428 0.2517039
 0.2543883 0.2589396 0.260442 0.2582204 0.2548036 0.2524627 0.2519543 0.2529797 0.2545363 0.2557029
 0.2563549 0.2558521 0.2517081 0.2423565 0.2313047 0.2252918 0.2273356 0.2342802 0.2419097 0.2491904
 0.255963 0.2599007 0.258992 0.2555592 0.2547921 0.2591971 0.2661839 0.2713347 0.2728582 0.272316
 0.2717201 0.2710995 0.2695256 0.2677578 0.2682572 0.2721451 0.2774627 0.2813033 0.282732 0.2827876
 0.2825321 0.2821666 0.2815632 0.2806959 0.2796049 0.2784162 0.2773291 0.2763878 0.2754465 0.2744437
 0.2733308 0.2714752 0.2677037 0.261831 0.2559791 0.2531241 0.2539765 0.2565237 0.2589207 0.2608369
 0.2610588 0.2564893 0.2462034 0.235089 0.2304904 0.2351122 0.2448625 0.2534359 0.2572991 0.2561373
 0.2507125 0.2425066 0.2352333 0.2342165 0.2422904 0.2568075 0.2719853 0.2837814 0.2914494 0.2953162
 0.2952248 0.2916664 0.287091 0.2849605 0.2873789 0.293714 0.3011 0.3057686 0.3046679 0.2979599
 0.2907345 0.289947 0.2974995 0.3077056 0.3135683 0.3141291 0.313485 0.3142936 0.3154775 0.3157974
 0.3164033 0.3188627 0.3225686 0.3252363 0.3249555 0.3209981 0.3138155 0.3056061 0.2999799 0.2991229
 0.3014162 0.3033236 0.303036 0.3005188 0.2952967 0.2874429 0.2803899 0.2790886 0.2843935 0.2917884
 0.2965377 0.298094 0.2986569 0.2991914 0.2982855 0.2945147 0.2889571 0.2847274 0.2839122 0.2855892
 0.2873328 0.287844 0.2871598 0.285135 0.2814369 0.2771478 0.2749005 0.2765524 0.2812115 0.2861181
 0.2891893 0.2902881 0.2904088 0.2904033 0.2905336 0.2906304 0.2905012 0.2905131 0.2916374 0.2943933
 0.2979004 0.3006565 0.3022581 0.3037345 0.3060978 0.3091025 0.311623 0.3128997 0.3132122 0.313518
 0.3145818 0.3163421 0.317976 0.3186312 0.3182682 0.3178094 0.3183176 0.3199924 0.3220948 0.3238018
 0.3248999 0.3256748 0.3264448 0.3272927 0.3280237 0.3283294 0.3281947 0.3281436 0.3288393 0.3303823
 0.3321787 0.3335328 0.3342106 0.334402 0.3343312 0.3340479 0.3335362 0.3328857 0.3322936 0.3319221
 0.3317915 0.3318118 0.3318825 0.3319461 0.3319893 0.3320349 0.3321243 0.3322803 0.3324884 0.3327217
 0.3329615 0.3331827 0.3333524 0.3334645 0.3335493 0.3336225 0.3336423 0.3335341 0.3332359 0.3327053
 0.3319014 0.3307859 0.3293308 0.3275055 0.3252806 0.3227289 0.3201947 0.3183273 0.3178106 0.3189257
 0.3213259 0.324236 0.3268964 0.3288901 0.3301711 0.3308931 0.3312384 0.3313446 0.3313006 0.3311557
 0.3309312 0.3306389 0.3302957 0.3299271 0.3295621 0.3292279 0.3289396 0.3286936 0.3284719 0.3282466
 0.3279825 0.3276454 0.3272153 0.3266933 0.3260913 0.3254103 0.3246292 0.3237208 0.3226869 0.3215762
 0.3204627 0.3194026 0.3184046 0.3174309 0.3164265 0.3153444 0.3141325 0.3127242 0.3111019 0.3093883
 0.3078133 0.3065315 0.3054883 0.3044909 0.303382 0.3021218 0.3007432 0.2992892 0.2977902 0.2962613
 0.2947011 0.2930949 0.2914221 0.2896638 0.2878125 0.2858718 0.2838455 0.2817354 0.279556 0.2773325
 0.2750612 0.2726666 0.2700068 0.2669213 0.2632777 0.2589945 0.254058 0.2485448 0.2426292 0.2365488
 0.2305436 0.2248088 0.219489 0.2147 0.2105491 0.2071349 0.2045321 0.2027775 0.2018765 0.20182
 0.2025933 0.2041642 0.2064666 0.2093868 0.2127646 0.2164069 0.2201078 0.2236777 0.226987 0.2300084
 0.2328075 0.2354639 0.2379948 0.2403561 0.2425027 0.2444237 0.2461214 0.2475846 0.2487999 0.2497822
 0.2505811 0.2512551 0.2518434 0.2523546 0.2527746 0.2530875 0.2533011 0.2534558 0.2536081 0.2538025
 0.2540595 0.2543839 0.2547771 0.2552435 0.2557907 0.2564277 0.2571601 0.2579795 0.2588586 0.2597644
 0.2606833 0.2616352 0.2626655 0.2638239 0.2651471 0.2666464 0.2683074 0.2700919 0.2719326 0.2737259
 0.2753495 0.2767041 0.2777443 0.2784743 0.2789208 0.2791126 0.2790775 0.2788466 0.2784526 0.2779217
 0.2772757 0.2765407 0.2757455 0.2749065 0.2740176 0.2730608 0.2720326 0.270963 0.2699023 0.2688841
 0.2679063 0.2669488 0.2659988 0.2650546 0.2641208 0.263208 0.2623283 0.2614882 0.2606898 0.2599346
 0.2592157 0.2585079 0.2577695 0.256951 0.256005 0.2548972 0.2536128 0.2521546 0.2505395 0.2487921
 0.2469309 0.2449638 0.2429006 0.2407611 0.2385626 0.2363047 0.2339689 0.2315365 0.2290204 0.2264857
 0.2240252 0.2217076 0.2195558 0.2175641 0.2157119 0.2139677 0.212301 0.2106957 0.2091495 0.2076679
 0.2062561 0.2049115 0.2036276 0.2024091 0.201272 0.2002318 0.1993009 0.1984904 0.1977994 0.1972126
 0.1967127 0.1962875 0.1959343 0.1956747 0.1955443 0.1955423 0.1956024 0.1956361 0.1955935 0.1954824
 0.1953489 0.1952415 0.1951824 0.195168 0.1951811 0.195173 0.1950446 0.1946771 0.1939817 0.1929061
 0.1914254 0.1895581 0.1873831 0.1850353 0.1826887 0.1805181 0.1786456 0.1771228 0.1759494 0.1750791
 0.1744243 0.1739065 0.1735137 0.1732996 0.173331 0.1736112 0.1740154 0.17434 0.1744825 0.1745585
 0.1747986 0.1753493 0.1761902 0.1771851 0.1781742 0.1790432 0.1797403 0.1802549 0.1806087 0.1808509
 0.1810155 0.1810884 0.181041 0.1808693 0.1805826 0.1801901 0.179706 0.1791341 0.1784584 0.1776749
 0.1768011 0.1758391 0.1747763 0.1736145 0.1723435 0.1709279 0.1694073 0.1679882 0.1669731 0.1665957
 0.1669009 0.1677265 0.1688137 0.1699734 0.1711115 0.1721151 0.1728649 0.1734356 0.1741763 0.1754768
 0.1774334 0.1797428 0.1819214 0.1836227 0.18474 0.1852778 0.1852609 0.1847524 0.1838094 0.1824201
 0.1805885 0.1784216 0.1760592 0.1736234 0.1712669 0.1691357 0.1672914 0.1657582 0.1645496 0.1636623
 0.1631543 0.1627324 0.1607603 0.1548433 0.1452402 0.1370398 0.1363006 0.1435086 0.1528774 0.158552
 0.1595701 0.158422 0.1571599 0.1562204 0.1555235 0.1551445 0.1551436 0.1554155 0.1557314 0.15585
 0.1556673 0.1551971 0.1543079 0.1524944 0.1488826 0.1425446 0.1331837 0.1217699 0.1103297 0.1008643
 0.09436215 0.09060982 0.08863699 0.08738712 0.08631545 0.08557112 0.08564191 0.08685406 0.08919366 0.09245202
 0.09636982 0.1006098 0.1047138 0.1082477 0.1110258 0.11312 0.1146484 0.1156477 0.1161389 0.1161919
 0.1158936 0.115321 0.1145413 0.1135815 0.1124128 0.1110158 0.1094727 0.1079886 0.1068032 0.1060382
 0.1056241 0.1054006 0.1052679 0.1052108 0.1052258 0.1052954 0.1054098 0.1055732 0.1057964 0.1060868
 0.1064231 0.1067484 0.1070097 0.1071921 0.1073057 0.1073509 0.1072967 0.1071017 0.1067837 0.1064374
 0.106104 0.1056404 0.1048282 0.1036495 0.1024032 0.1015211 0.1012713 0.1015947 0.1021776 0.1026853
 0.102963 0.1030508 0.1030488 0.1029775</values></Ydata></ScSm><ScRf><Ydata ylabel="Single channel"><values byteorder="INTEL" format="FLOAT32" numvalues="1820"> 0.0697186 0.0698463 0.06995954 0.07005856 0.07014822 0.07024043 0.07034996 0.07048279 0.07063012 0.07077475
 0.07090321 0.07101324 0.07110961 0.07119441 0.07126907 0.0713454 0.07144324 0.07157078 0.07171403 0.07184759
 0.07195313 0.07203387 0.0721159 0.07222442 0.07234941 0.07244365 0.0724664 0.07242814 0.07238532 0.07238942
 0.07245262 0.07257476 0.07277575 0.07304594 0.07327647 0.07332984 0.073213 0.07310018 0.07313909 0.07330149
 0.07345787 0.0735204 0.07347649 0.07337302 0.07333355 0.07352184 0.07399505 0.07457978 0.07492274 0.07469341
 0.07380517 0.07253806 0.07147297 0.07118633 0.07183194 0.07296858 0.07389209 0.07420476 0.07402907 0.07370228
 0.07342628 0.07326709 0.073311 0.07364556 0.07421379 0.07476082 0.07493542 0.07451922 0.0736747 0.07291655
 0.07269336 0.07303923 0.07373105 0.07455705 0.0751162 0.07461907 0.07258875 0.06992082 0.06860198 0.0698742
 0.07293527 0.0757733 0.07699709 0.0765672 0.07521349 0.0737937 0.07307027 0.07344443 0.07469088 0.07618406
 0.0773994 0.07805386 0.07796898 0.07715246 0.07597087 0.07499532 0.07468428 0.07525273 0.07658383 0.07809292
 0.07896114 0.07878268 0.07786926 0.07684468 0.0761863 0.07620174 0.07704912 0.07854743 0.08019836 0.08155671
 0.08245904 0.08291955 0.08302143 0.08290359 0.08269197 0.08247928 0.08241961 0.08264992 0.08302008 0.0831249
 0.08275694 0.08218966 0.08190045 0.08207867 0.08246541 0.08266674 0.08254248 0.0821266 0.08122633 0.07952182
 0.07722168 0.07515649 0.07396781 0.0736613 0.07413504 0.07545181 0.07720545 0.07832974 0.07817097 0.07736745
 0.07715935 0.07805355 0.07950991 0.08073623 0.08145984 0.08197635 0.08268622 0.083637 0.08440349 0.08439679
 0.08346002 0.08224085 0.08176099 0.08242995 0.08365192 0.08456821 0.0849655 0.08524804 0.08572276 0.08615145
 0.08595615 0.08483467 0.08328126 0.08241703 0.08306518 0.08493328 0.08676464 0.08729014 0.08613156 0.0840036
 0.08211392 0.08129745 0.08169477 0.08309534 0.08523066 0.0876449 0.08962958 0.09058277 0.09042236 0.08956873
 0.08848933 0.08726381 0.08574629 0.08424205 0.08368969 0.08478273 0.08707546 0.08933616 0.09068479 0.09108324
 0.0908322 0.08996959 0.0883503 0.08627079 0.08474952 0.08477148 0.08616865 0.08766341 0.08823022 0.08805434
 0.08794674 0.08822963 0.08855899 0.08861171 0.08856042 0.08882663 0.08954613 0.09040268 0.09096983 0.09110902
 0.09100035 0.09088736 0.09084383 0.09073222 0.09041257 0.09005523 0.09012084 0.09087356 0.09202397 0.09301999
 0.09358963 0.0938455 0.09394752 0.09383459 0.09333041 0.09248945 0.09176217 0.09167454 0.09231615 0.09327267
 0.0940669 0.09451497 0.09467559 0.09466505 0.09457915 0.09447189 0.09437199 0.0943494 0.09450093 0.09482165
 0.09516951 0.09540719 0.09551382 0.09553186 0.09547681 0.09534253 0.09516095 0.09501808 0.09499967 0.0951238
 0.0953382 0.09557405 0.09577559 0.09589159 0.09589379 0.09581308 0.09571914 0.09565689 0.09562999 0.09563949
 0.09570123 0.09581676 0.09595167 0.09605858 0.09611529 0.09613106 0.09612229 0.09609737 0.09606488 0.09604262
 0.09605243 0.09610596 0.09619164 0.09628133 0.09636407 0.09646231 0.09659058 0.09671178 0.09676963 0.09675781
 0.09672673 0.09672736 0.09677251 0.09684575 0.09692191 0.0969744 0.09697884 0.0969304 0.09686553 0.09685124
 0.09693462 0.09710936 0.0973376 0.09758064 0.09779975 0.09796193 0.09806855 0.09815504 0.09824695 0.09833508
 0.09840207 0.09845647 0.09853329 0.09866464 0.09884866 0.09904823 0.09922366 0.09935896 0.09945808 0.09954013
 0.09964068 0.09978296 0.09993769 0.1000462 0.1000957 0.1001402 0.1002318 0.1003586 0.1004665 0.1005254
 0.1005582 0.1006097 0.1006992 0.1008076 0.1009069 0.1009935 0.101089 0.1012096 0.1013341 0.101412
 0.1014138 0.1013685 0.1013346 0.1013402 0.1013709 0.1014095 0.1014612 0.1015317 0.1016041 0.1016503
 0.1016628 0.1016617 0.1016695 0.1016833 0.1016786 0.1016406 0.1015809 0.1015245 0.1014883 0.1014727
 0.1014655 0.1014509 0.1014179 0.1013643 0.1012956 0.10122 0.1011435 0.1010719 0.1010198 0.1010091
 0.1010395 0.1010628 0.1010103 0.1008573 0.1006512 0.1004669 0.1003423 0.1002574 0.1001663 0.1000399
 0.09988348 0.09972344 0.09958209 0.09946389 0.0993587 0.0992548 0.09915325 0.09907165 0.09902573 0.09900153
 0.09895662 0.09886031 0.09872623 0.09859565 0.0984967 0.09843019 0.09838435 0.0983482 0.09831668 0.09829457
 0.09829014 0.0982981 0.09829865 0.09828085 0.09825802 0.09825584 0.0982938 0.09837633 0.09848607 0.09858507
 0.09864159 0.09866264 0.0986879 0.0987487 0.09884384 0.09895565 0.09907465 0.09920199 0.09933971 0.09948871
 0.09965345 0.09984057 0.1000516 0.100279 0.1005083 0.1007258 0.1009293 0.1011333 0.1013606 0.1016232
 0.1019117 0.1022045 0.1024857 0.1027553 0.1030236 0.1032978 0.1035759 0.1038557 0.1041443 0.1044522
 0.1047785 0.1051096 0.1054323 0.105745 0.1060541 0.1063657 0.1066828 0.1070078 0.1073485 0.1077141
 0.108098 0.10847 0.1087978 0.1090799 0.109348 0.1096382 0.1099639 0.1103102 0.1106467 0.1109487
 0.1112201 0.1114898 0.1117803 0.1120842 0.1123821 0.1126772 0.1129982 0.1133621 0.1137425 0.1140857
 0.1143594 0.1145841 0.1148084 0.115057 0.115311 0.1155415 0.1157488 0.115959 0.1161886 0.11643
 0.1166748 0.1169315 0.1172075 0.117486 0.1177387 0.1179571 0.1181563 0.1183498 0.1185322 0.1186869
 0.1188047 0.1188967 0.1189914 0.1191123 0.1192569 0.119405 0.1195479 0.1196967 0.1198623 0.1200431
 0.1202378 0.1204564 0.1207042 0.1209659 0.1212201 0.1214706 0.1217434 0.1220438 0.122335 0.1225759
 0.1227694 0.1229541 0.1231563 0.1233736 0.123602 0.1238517 0.1241316 0.1244327 0.1247352 0.1250248
 0.125305 0.1255955 0.1259092 0.1262264 0.1265036 0.1267167 0.1268873 0.1270633 0.1272792 0.1275386
 0.1278231 0.12811 0.1283831 0.1286303 0.1288349 0.128982 0.1290772 0.1291482 0.1292146 0.1292584
 0.1292351 0.1291108 0.1288789 0.1285422 0.1280938 0.1275256 0.1268561 0.1261459 0.1254857 0.1249688
 0.1246666 0.1246186 0.1248292 0.1252645 0.1258535 0.1265014 0.1271099 0.1275895 0.1278649 0.1278868
 0.1276485 0.1271835 0.1265458 0.1257906 0.1249713 0.1241366 0.1233243 0.1225719 0.1219491 0.1215714
 0.1215696 0.1220383 0.1230008 0.1243926 0.1260604 0.1277959 0.1294118 0.1308115 0.1319962 0.1330163
 0.1339224 0.134751 0.1355287 0.1362706 0.1369778 0.1376452 0.1382721 0.1388609 0.1394075 0.1398999
 0.1403235 0.1406647 0.1409146 0.1410782 0.1411745 0.1412238 0.141241 0.1412408 0.1412337 0.141205
 0.1411074 0.1408858 0.1405148 0.1400152 0.1394571 0.1389622 0.1386982 0.1388392 0.139493 0.1406349
 0.1421041 0.1436786 0.1451677 0.1464567 0.1475022 0.1483166 0.1489522 0.1494742 0.1499322 0.1503522
 0.1507458 0.1511201 0.15148 0.1518303 0.1521755 0.1525192 0.152864 0.1532098 0.1535523 0.1538846
 0.154206 0.1545254 0.1548563 0.1552042 0.1555609 0.1559116 0.1562514 0.1565897 0.1569358 0.1572843
 0.1576206 0.1579394 0.1582506 0.1585683 0.1589014 0.1592502 0.1596045 0.1599466 0.1602626 0.1605539
 0.1608343 0.1611159 0.1614023 0.1616908 0.1619779 0.1622616 0.1625415 0.1628199 0.1631011 0.1633871
 0.1636713 0.1639405 0.1641871 0.1644207 0.1646605 0.164918 0.1651871 0.1654528 0.1657072 0.1659562
 0.166213 0.166485 0.1667666 0.1670432 0.1673027 0.1675441 0.1677767 0.1680123 0.1682564 0.1685073
 0.168761 0.169015 0.1692691 0.1695237 0.1697792 0.1700358 0.1702916 0.1705432 0.1707898 0.1710341
 0.1712797 0.171528 0.1717778 0.1720275 0.1722768 0.1725249 0.1727693 0.1730064 0.1732365 0.1734653
 0.1736979 0.1739361 0.1741786 0.1744232 0.1746673 0.174909 0.175148 0.1753851 0.1756218 0.1758605
 0.1761022 0.1763455 0.1765886 0.1768317 0.1770767 0.1773247 0.1775732 0.1778167 0.1780516 0.17828
 0.1785084 0.1787407 0.1789772 0.1792167 0.1794584 0.1797012 0.1799427 0.1801802 0.1804114 0.1806383
 0.1808666 0.1811002 0.181338 0.1815775 0.1818186 0.182061 0.1823028 0.1825419 0.1827778 0.1830116
 0.1832451 0.1834798 0.1837152 0.1839484 0.1841764 0.1843993 0.1846219 0.1848516 0.1850926 0.1853419
 0.1855931 0.1858407 0.1860815 0.1863163 0.1865501 0.1867871 0.1870264 0.1872652 0.1875034 0.1877427
 0.187985 0.1882319 0.1884827 0.1887335 0.1889817 0.1892292 0.1894786 0.1897302 0.1899821 0.1902325
 0.1904806 0.1907297 0.190985 0.1912475 0.1915125 0.1917747 0.1920296 0.1922741 0.1925089 0.1927376
 0.1929632 0.1931872 0.1934128 0.1936415 0.1938708 0.1940985 0.194325 0.1945494 0.1947725 0.1950003
 0.1952384 0.1954864 0.1957422 0.1960042 0.1962663 0.196521 0.1967679 0.1970125 0.1972585 0.1975086
 0.1977649 0.1980253 0.1982857 0.1985452 0.198804 0.1990606 0.1993173 0.1995797 0.1998482 0.2001183
 0.2003873 0.200653 0.2009137 0.2011726 0.2014351 0.201699 0.2019609 0.2022243 0.202494 0.2027682
 0.203045 0.2033249 0.203604 0.2038773 0.204146 0.2044117 0.2046738 0.2049364 0.2052062 0.2054828
 0.2057632 0.206049 0.2063381 0.2066212 0.2068948 0.2071633 0.2074287 0.2076923 0.2079598 0.2082303
 0.2084964 0.2087597 0.2090251 0.2092817 0.2095027 0.2096337 0.209535 0.2089127 0.2072778 0.2039555
 0.198221 0.1895984 0.1781592 0.1645961 0.1500193 0.1356023 0.1222672 0.1105749 0.1008153 0.0931336
 0.08760953 0.08433294 0.08347072 0.08535667 0.09060808 0.09976378 0.1119398 0.1236558 0.1301323 0.1289162
 0.1221119 0.1144695 0.1095075 0.1077839 0.1081032 0.1092891 0.1108724 0.1129584 0.11583 0.1195329
 0.1238281 0.1285968 0.1340791 0.1405148 0.1476746 0.154943 0.1618368 0.1683232 0.1746341 0.1808751
 0.1868721 0.1923396 0.197101 0.2011483 0.2045866 0.2075658 0.2102208 0.2126376 0.2148684 0.2169396
 0.2188148 0.2203744 0.2214808 0.2220881 0.2222971 0.2223086 0.2223125 0.2224064 0.2226042 0.2228926
 0.2232579 0.2236851 0.2241646 0.2246922 0.2252553 0.2258319 0.2264052 0.226967 0.2275102 0.2280307
 0.2285268 0.2289928 0.2294244 0.2298294 0.2302219 0.2306083 0.2309901 0.2313688 0.231742 0.232104
 0.2324534 0.2327913 0.2331152 0.2334221 0.2337133 0.2339908 0.2342582 0.2345226 0.2347879 0.2350508
 0.2353089 0.2355636 0.2358141 0.2360579 0.2362978 0.2365377 0.2367775 0.2370173 0.2372617 0.2375121
 0.2377639 0.238012 0.238254 0.2384895 0.2387211 0.2389523 0.239185 0.239419 0.2396551 0.2398939
 0.2401375 0.2403931 0.2406642 0.24094 0.2412063 0.2414642 0.2417262 0.2419979 0.2422749 0.242554
 0.2428347 0.2431153 0.2433922 0.2436611 0.2439161 0.244153 0.2443736 0.244588 0.2448106 0.2450515
 0.2453072 0.2455636 0.2458112 0.2460523 0.2462933 0.2465369 0.2467838 0.2470341 0.2472872 0.2475452
 0.2478129 0.2480898 0.2483689 0.2486447 0.2489187 0.2491964 0.2494844 0.2497862 0.2500959 0.2503981
 0.2506809 0.250949 0.2512234 0.2515268 0.2518629 0.2522099 0.2525409 0.2528511 0.2531562 0.253471
 0.2537979 0.2541263 0.2544316 0.2546899 0.2549124 0.2551529 0.2554623 0.2558405 0.2562437 0.25663
 0.2569866 0.2573214 0.2576431 0.2579503 0.2582348 0.2584912 0.2587309 0.2589887 0.2593013 0.2596688
 0.2600513 0.2604115 0.2607446 0.2610582 0.261353 0.2616306 0.2618889 0.2621025 0.2622496 0.2623758
 0.2625899 0.2629606 0.2634382 0.2639058 0.2642953 0.2646277 0.2649471 0.2652619 0.265558 0.2658136
 0.2659676 0.2659494 0.2658138 0.2657883 0.2660885 0.2666987 0.2674011 0.267996 0.2684337 0.2687665
 0.2690571 0.269337 0.2695885 0.2697457 0.2697628 0.269715 0.2697927 0.2701302 0.2706548 0.2711664
 0.2715506 0.2718472 0.2721371 0.2724482 0.2727413 0.2728981 0.2727713 0.2723833 0.2720616 0.2722284
 0.272992 0.2740232 0.2748844 0.2754204 0.2757618 0.276019 0.2761202 0.2759467 0.2754802 0.2748078
 0.2741653 0.2739779 0.2745817 0.275795 0.2769926 0.2777318 0.2781316 0.2785596 0.2791518 0.2797535
 0.2801717 0.2803491 0.2803353 0.2801747 0.2798831 0.2795774 0.2795524 0.2800723 0.281061 0.2821227
 0.2829128 0.2834104 0.2837584 0.2838594 0.2832715 0.2817322 0.2798444 0.2789249 0.2798343 0.2820719
 0.2843186 0.285742 0.2864541 0.2868951 0.2872611 0.2874455 0.2870261 0.2854063 0.2826246 0.2800584
 0.2795853 0.2817306 0.2850777 0.2876427 0.2883906 0.2874449 0.2855767 0.2838463 0.2832254 0.2840709
 0.2859796 0.2881974 0.2900692 0.2912139 0.291548 0.2912503 0.2906883 0.2903215 0.2904105 0.2906252
 0.2902504 0.2891144 0.2879187 0.2871551 0.2861991 0.2843322 0.2823539 0.2820851 0.2841198 0.286966
 0.2887724 0.2892218 0.2891995 0.2890053 0.2876238 0.2840642 0.2792039 0.2757596 0.2759582 0.2793093
 0.2830911 0.2850247 0.2850722 0.2846498 0.28464 0.284464 0.282948 0.2799888 0.2771946 0.2764431
 0.2777714 0.2793109 0.2793518 0.2775352 0.2739447 0.2686882 0.2633354 0.261203 0.2644207 0.2712781
 0.2777384 0.2809253 0.2800157 0.2750285 0.2671219 0.2598501 0.2575644 0.2613921 0.2679161 0.2724855
 0.2728821 0.2693974 0.2629281 0.2545913 0.2467238 0.2425969 0.2443379 0.251227 0.2598106 0.2653773
 0.2643718 0.2572606 0.2492485 0.2463428 0.2496977 0.2548612 0.2570156 0.2555084 0.252834 0.2512345
 0.2514633 0.253222 0.2554972 0.2573574 0.2586665 0.2587422 0.2550209 0.2458951 0.2349382 0.2290175
 0.2312161 0.2383379 0.2461028 0.2534562 0.2602245 0.2640305 0.262819 0.2589377 0.2576497 0.2615099
 0.2679275 0.2724771 0.2733944 0.2722934 0.2712263 0.2702305 0.2683654 0.2663766 0.2667152 0.2704945
 0.2757493 0.2795686 0.2810133 0.2811151 0.2809233 0.2806218 0.2800679 0.2792298 0.2781466 0.2769447
 0.2758291 0.2748588 0.2739031 0.2729059 0.2718141 0.2699884 0.2662544 0.2604297 0.2546345 0.2518314
 0.2527153 0.255269 0.2576495 0.2595241 0.2596815 0.2550383 0.2446761 0.2334586 0.2286869 0.2330424
 0.2424497 0.2506415 0.2541111 0.2525514 0.2467346 0.2381512 0.2304786 0.2289475 0.2363198 0.2499833
 0.2642739 0.27525 0.2822043 0.2854849 0.2849684 0.2811505 0.2764059 0.2740628 0.2761115 0.2818899
 0.2885944 0.2925994 0.2910246 0.2840912 0.2767063 0.2755195 0.2823435 0.2917563 0.2970849 0.2974034
 0.2966008 0.2972038 0.2981935 0.2984003 0.2989249 0.3012627 0.3048414 0.307496 0.3074164 0.3039081
 0.2973871 0.2899248 0.284933 0.2844641 0.2869474 0.2890018 0.2889171 0.2866873 0.281878 0.2745643
 0.2680172 0.2669507 0.272166 0.2793429 0.283962 0.2855109 0.2860994 0.2866522 0.2858225 0.2822625
 0.2770324 0.2731448 0.272615 0.2745636 0.2766652 0.2776683 0.2775812 0.2762127 0.2731923 0.269544
 0.2678202 0.2698282 0.274694 0.2797136 0.282836 0.2839109 0.2839039 0.2836543 0.28343 0.2830798
 0.2824363 0.2818813 0.2823795 0.2844485 0.2872485 0.2893404 0.2903461 0.2912672 0.2930894 0.295588
 0.2976861 0.2986471 0.2987252 0.2988288 0.2996923 0.3012634 0.3027566 0.3033524 0.303008 0.3026011
 0.3031376 0.3047921 0.3068461 0.3085122 0.3095934 0.3103658 0.3111251 0.3119366 0.3126078 0.3128517
 0.3126677 0.3125653 0.3131782 0.3145998 0.3162653 0.3175232 0.3181691 0.3183973 0.318419 0.3182652
 0.3178993 0.3173874 0.3169055 0.3166047 0.3165048 0.3165168 0.3165405 0.3165269 0.3164832 0.3164519
 0.3164812 0.3165896 0.3167594 0.3169669 0.3171953 0.3174148 0.3175843 0.3176957 0.3177831 0.3178684
 0.3179151 0.3178515 0.317615 0.3171614 0.3164532 0.3154609 0.314163 0.3125251 0.310509 0.3081788
 0.3058637 0.3041812 0.3037781 0.3049219 0.3072912 0.3101566 0.3127931 0.3147926 0.316103 0.3168695
 0.3172683 0.3174316 0.3174433 0.3173454 0.3171521 0.3168749 0.3165386 0.3161724 0.3157987 0.3154377
 0.3151107 0.3148276 0.3145724 0.3143069 0.3139911 0.3136037 0.3131455 0.312625 0.3120417 0.3113811
 0.3106225 0.3097534 0.3087874 0.3077693 0.3067595 0.3058043 0.3049113 0.3040481 0.3031671 0.3022271
 0.3011823 0.2999722 0.2985811 0.2971259 0.2958267 0.2948326 0.2940865 0.2933903 0.2925759 0.2915887
 0.29045 0.2892031 0.2878944 0.2865611 0.2852154 0.2838422 0.282411 0.2808889 0.2792551 0.2775137
 0.2756884 0.2738051 0.271884 0.2699364 0.2679455 0.2658398 0.2634887 0.2607353 0.2574386 0.2535034
 0.2489023 0.2436994 0.2380579 0.2322065 0.2263786 0.2207694 0.2155335 0.2108028 0.2066948 0.203306
 0.2007058 0.1989378 0.1980264 0.1979795 0.1987825 0.2003904 0.2027229 0.2056629 0.2090557 0.2127165
 0.2164442 0.220046 0.2233826 0.2264152 0.2292003 0.2318149 0.234279 0.2365522 0.2385871 0.2403656
 0.2418915 0.2431726 0.2442205 0.2450635 0.2457468 0.2463191 0.2468149 0.2472479 0.2476159 0.2479127
 0.2481401 0.2483144 0.2484642 0.248621 0.2488081 0.2490356 0.2493038 0.2496131 0.2499719 0.2503966
 0.2509049 0.2515032 0.2521787 0.2529073 0.2536733 0.2544843 0.2553686 0.2563653 0.2575125 0.2588338
 0.2603267 0.2619561 0.2636502 0.2653049 0.2668059 0.2680616 0.2690237 0.2696857 0.2700673 0.2701998
 0.2701177 0.2698581 0.2694547 0.2689279 0.2682888 0.2675557 0.2667562 0.2659071 0.2650049 0.2640445
 0.2630421 0.2620314 0.2610388 0.2600683 0.2591129 0.2581742 0.2572612 0.2563757 0.2555101 0.2546635
 0.2538452 0.2530637 0.2523213 0.2516162 0.2509424 0.2502829 0.249605 0.2488596 0.247994 0.2469743
 0.2457949 0.2444639 0.2429885 0.2413749 0.239632 0.2377737 0.2358212 0.2337958 0.2317056 0.2295428
 0.2272923 0.2249438 0.2225142 0.2200686 0.2177043 0.2154983 0.2134746 0.2116143 0.2098806 0.208239
 0.2066745 0.2051914 0.2037913 0.2024602 0.2011778 0.1999313 0.1987233 0.1975743 0.1965125 0.195558
 0.1947199 0.1939989 0.193385 0.1928627 0.1924222 0.1920584 0.1917714 0.1915829 0.1915301 0.1916128
 0.1917594 0.1918699 0.1918851 0.1918141 0.1917124 0.1916375 0.1916124 0.191626 0.1916522 0.1916441
 0.1915207 0.1911857 0.1905569 0.1895678 0.188174 0.186387 0.1842922 0.1820309 0.1797734 0.1776849
 0.1758823 0.1744183 0.173296 0.1724739 0.1718703 0.1714056 0.1710581 0.1708741 0.1709263 0.1712309
 0.171671 0.1720428 0.1722359 0.1723558 0.1726313 0.1732229 0.1741245 0.1751952 0.1762565 0.1771843
 0.1779342 0.1785029 0.1789046 0.1791739 0.179343 0.1794142 0.179379 0.1792393 0.1789943 0.1786428
 0.178201 0.1776809 0.1770668 0.1763452 0.1755267 0.1746185 0.1736159 0.1725156 0.1712945 0.1699167
 0.1684345 0.1670599 0.1660854 0.165735 0.1660555 0.1668921 0.1679913 0.1691695 0.1703407 0.1713955
 0.1722103 0.1728497 0.1736523 0.1750044 0.1770119 0.1793884 0.1816555 0.1834513 0.1846486 0.1852487
 0.1852905 0.1848433 0.1839491 0.1825795 0.1807429 0.1785701 0.1762218 0.1738251 0.1715245 0.1694517
 0.1676561 0.1661574 0.1649723 0.1641058 0.1636253 0.1632431 0.1613193 0.1554505 0.1458884 0.1377174
 0.1369911 0.1441986 0.1535668 0.1592506 0.1602824 0.1591425 0.1578832 0.1569484 0.15626 0.1558893
 0.1558957 0.1561761 0.1565038 0.1566366 0.1564675 0.1560054 0.1551154 0.1532899 0.1496522 0.143269
 0.133843 0.122353 0.1108394 0.101313 0.09476498 0.09098235 0.08899417 0.08773777 0.08665849 0.08590314
 0.08596949 0.08719427 0.08956429 0.09286833 0.09684967 0.1011706 0.1053579 0.1089537 0.1117618 0.1138656
 0.1154069 0.1164389 0.1169798 0.1170812 0.1168113 0.1162405 0.1154422 0.1144563 0.1132671 0.1118624
 0.110325 0.1088569 0.1076947 0.106957 0.1065722 0.1063813 0.1062885 0.1062793 0.1063445 0.106454
 0.1065864 0.1067447 0.1069562 0.1072522 0.107621 0.1079933 0.1082949 0.1084974 0.1086069 0.1086243
 0.1085227 0.1082688 0.1078896 0.1074856 0.1070977 0.1065779 0.1057051 0.1044697 0.1031848 0.1022873
 0.1020323 0.1023401 0.1028874 0.1033494 0.103593 0.1036754 0.1036931 0.1036443 0.1034252 0.1029492
</values></Ydata></ScRf><Data_Parameters_AB><parameter name="DPF">1</parameter><parameter name="NPT">3497</parameter><parameter name="FXV">3996</parameter><parameter name="LXV">500</parameter><parameter name="CSF">1</parameter><parameter name="MXY">0.00747275166213512</parameter><parameter name="MNY">-0.0927500128746033</parameter><parameter name="DAT">13/02/2024</parameter><parameter name="TIM">13:15:52.095 (GMT+1)</parameter><parameter name="DXU">WN</parameter></Data_Parameters_AB><AB__Qtest><MainReport name="Quality Test Report"><Header><Line><Legend>Test result ok/not ok [1/0]: </Legend><Value>0</Value></Line><Line><Legend>Method file: </Legend><Value>C:\Users\Public\Documents\Bruker\OPUS_8.2.28\QT\IRBT_v3_default.QT</Value></Line></Header><Matrix><Line><Legend></Legend><Legend>min</Legend><Legend>max</Legend><Legend>measured</Legend></Line><Line><Value>Absorption (X-Range 1):</Value><Value>0.400000</Value><Value>2.000000</Value><Value>0.059703</Value></Line><Line><Value>Noise (X-Range 4):</Value><Value></Value><Value>0.000300</Value><Value>0.000048</Value></Line><Line><Value>Signal/Noise (X-Range 2):</Value><Value>200.000000</Value><Value></Value><Value>25.228061</Value></Line><Line><Value>Signal/Noise (X-Range 3):</Value><Value>40.000000</Value><Value></Value><Value>8.390896</Value></Line><Line><Value>Water vapour (X-Range 5):</Value><Value></Value><Value>0.000300</Value><Value>0.000015</Value></Line><Line><Value>Signal/Water (X-Range 2):</Value><Value>100.000000</Value><Value></Value><Value>78.872790</Value></Line><Line><Value>Signal/Water (X-Range 3):</Value><Value>20.000000</Value><Value></Value><Value>26.233225</Value></Line><Line><Value>Fringes (X-Range 6):</Value><Value></Value><Value>0.000100</Value><Value>0.000036</Value></Line></Matrix></MainReport></AB__Qtest><Data_Parameters_ScSm><parameter name="DPF">1</parameter><parameter name="NPT">1814</parameter><parameter name="FXV">3996.63438082617</parameter><parameter name="LXV">499.579297603271</parameter><parameter name="CSF">1</parameter><parameter name="MXY">0.334402024745941</parameter><parameter name="MNY">0.0845649316906929</parameter><parameter name="DAT">13/02/2024</parameter><parameter name="TIM">13:15:52.095 (GMT+1)</parameter><parameter name="DXU">WN</parameter></Data_Parameters_ScSm><Data_Parameters_ScRf><parameter name="DPF">1</parameter><parameter name="NPT">1820</parameter><parameter name="FXV">4004.34989121387</parameter><parameter name="LXV">495.721542409425</parameter><parameter name="CSF">1</parameter><parameter name="MXY">0.318418979644775</parameter><parameter name="MNY">0.068601980805397</parameter><parameter name="DAT">13/02/2024</parameter><parameter name="TIM">13:15:25.010 (GMT+1)</parameter><parameter name="DXU">WN</parameter></Data_Parameters_ScRf><Optic_Parameters_Rf><parameter name="APR">0</parameter><parameter name="APT">Open</parameter><parameter name="BMS">KBr</parameter><parameter name="DTC">RT-DLaTGS_IR-Biotyper [Microplate reader]</parameter><parameter name="HPF">0</parameter><parameter name="LPF">10.0</parameter><parameter name="LPV">4000</parameter><parameter name="PGR">0</parameter><parameter name="RCH">Module port</parameter><parameter name="RDX">0</parameter><parameter name="SRC">MIR</parameter><parameter name="VEL">10.0</parameter><parameter name="SON">Off</parameter></Optic_Parameters_Rf><Acquisition_Parameters_Rf><parameter name="ADT">1</parameter><parameter name="AQM">DD</parameter><parameter name="CFE">0</parameter><parameter name="COR">0</parameter><parameter name="DEL">0</parameter><parameter name="DLY">0</parameter><parameter name="HFW">8000</parameter><parameter name="LFW">0</parameter><parameter name="NSR">32</parameter><parameter name="PLF">AB</parameter><parameter name="RES">6</parameter><parameter name="RGN">-1</parameter><parameter name="STR">0</parameter><parameter name="TCL">MakeCompatibleScalar (0, {WSV=1.000000, ARV=0});</parameter><parameter name="TDL">37</parameter><parameter name="RPO">0</parameter></Acquisition_Parameters_Rf><FT_-_Parameters_Rf><parameter name="APF">B3</parameter><parameter name="HFQ">500</parameter><parameter name="LFQ">4000</parameter><parameter name="NLI">0</parameter><parameter name="PHR">24</parameter><parameter name="PHZ">ML</parameter><parameter name="SPZ">NO</parameter><parameter name="ZFF">1</parameter></FT_-_Parameters_Rf><Optic_Parameters_><parameter name="APR">0</parameter><parameter name="APT">Open</parameter><parameter name="BMS">KBr</parameter><parameter name="CHN">Module port</parameter><parameter name="DTC">RT-DLaTGS_IR-Biotyper [Microplate reader]</parameter><parameter name="HPF">0</parameter><parameter name="LPF">10.0</parameter><parameter name="LPV">4000</parameter><parameter name="PGN">0</parameter><parameter name="RDX">0</parameter><parameter name="SRC">MIR</parameter><parameter name="VEL">10.0</parameter><parameter name="SON">Off</parameter></Optic_Parameters_><FT_-_Parameters_><parameter name="APF">B3</parameter><parameter name="HFQ">500</parameter><parameter name="LFQ">4000</parameter><parameter name="NLI">0</parameter><parameter name="PHR">24</parameter><parameter name="PHZ">ML</parameter><parameter name="SPZ">NO</parameter><parameter name="ZFF">1</parameter></FT_-_Parameters_><Acquisition_Parameters_><parameter name="ADT">1</parameter><parameter name="AQM">DD</parameter><parameter name="CFE">0</parameter><parameter name="COR">0</parameter><parameter name="DEL">0</parameter><parameter name="DLY">0</parameter><parameter name="HFW">8000</parameter><parameter name="LFW">0</parameter><parameter name="NSS">32</parameter><parameter name="PLF">AB</parameter><parameter name="RES">6</parameter><parameter name="SOT">0</parameter><parameter name="TCL">MakeCompatibleScalar (0, {WSV=1.000000, ARV=0});</parameter><parameter name="TDL">37</parameter><parameter name="SPO">0</parameter><parameter name="SGN">-1</parameter></Acquisition_Parameters_><Instrument_Parameters_Rf><parameter name="HFL">15801.365274</parameter><parameter name="LFL">0</parameter><parameter name="LWN">15801.365274</parameter><parameter name="ABP">32157</parameter><parameter name="SSP">1</parameter><parameter name="ARG">2</parameter><parameter name="ASG">2</parameter><parameter name="ASS">32</parameter><parameter name="GFW">16</parameter><parameter name="GBW">16</parameter><parameter name="BFW">0</parameter><parameter name="BBW">0</parameter><parameter name="PKA">9176</parameter><parameter name="PKL">5009</parameter><parameter name="PRA">9173</parameter><parameter name="PRL">4988</parameter><parameter name="P2A">1</parameter><parameter name="P2L">1</parameter><parameter name="P2R">1</parameter><parameter name="P2K">1</parameter><parameter name="DAQ">0</parameter><parameter name="AG2">1</parameter><parameter name="SSM">1</parameter><parameter name="RSN">48119</parameter><parameter name="CRR">0</parameter><parameter name="SRT">1707830125.011</parameter><parameter name="DUR">19.6389923095703</parameter><parameter name="TSC">29.9</parameter><parameter name="MVD">0.278987228870392</parameter><parameter name="AN1">0.225941403528274</parameter><parameter name="AN2">0</parameter><parameter name="VSN">2.485 Apr  4 2017</parameter><parameter name="SRN">0085</parameter><parameter name="CAM">0</parameter><parameter name="INS">IR-Biotyper</parameter><parameter name="FOC">69</parameter><parameter name="RDY">1</parameter><parameter name="ARS">32</parameter></Instrument_Parameters_Rf><Sample_Parameters_><parameter name="BLD"></parameter><parameter name="CNM">Admin</parameter><parameter name="CPY"></parameter><parameter name="DPM"></parameter><parameter name="EXP">IRBT_v3_32Scans.XPM</parameter><parameter name="LCT"></parameter><parameter name="SFM">Microplate, HTS-XT</parameter><parameter name="SNM">240213-1206-Cdiff_SCFA_3_GDA_C37_242151007_B4_5757270e-1a9c-439a-8ea6-bd5400788cc5.0</parameter><parameter name="XPP">C:\Users\Public\Documents\Bruker\OPUS_8.2.28\XPM</parameter><parameter name="IST">OK</parameter><parameter name="CPG">1252</parameter><parameter name="UID">6def97d0-b898-448c-b0c3-5573fa3f3eca</parameter></Sample_Parameters_><Instrument_Parameters_><parameter name="HFL">15801.365274</parameter><parameter name="LFL">0</parameter><parameter name="LWN">15801.365274</parameter><parameter name="ABP">32157</parameter><parameter name="SSP">1</parameter><parameter name="ASG">2</parameter><parameter name="ARG">2</parameter><parameter name="ASS">32</parameter><parameter name="GFW">16</parameter><parameter name="GBW">16</parameter><parameter name="BFW">0</parameter><parameter name="BBW">0</parameter><parameter name="PKA">10096</parameter><parameter name="PKL">5009</parameter><parameter name="PRA">10203</parameter><parameter name="PRL">4988</parameter><parameter name="P2A">1</parameter><parameter name="P2L">1</parameter><parameter name="P2R">1</parameter><parameter name="P2K">1</parameter><parameter name="DAQ">0</parameter><parameter name="AG2">1</parameter><parameter name="SSM">1</parameter><parameter name="RSN">24757</parameter><parameter name="CRR">0</parameter><parameter name="SRT">1707830152.096</parameter><parameter name="DUR">19.6379852294922</parameter><parameter name="TSC">30</parameter><parameter name="MVD">0.25711652636528</parameter><parameter name="AN1">0.225949266494822</parameter><parameter name="AN2">0</parameter><parameter name="VSN">2.485 Apr  4 2017</parameter><parameter name="SRN">0085</parameter><parameter name="CAM">0</parameter><parameter name="INS">IR-Biotyper</parameter><parameter name="FOC">69</parameter><parameter name="RDY">1</parameter></Instrument_Parameters_><History/></OPUSDataFile>
