<?xml version="1.0" encoding="UTF-8" ?>
<OPUSDataFile><AB><Ydata ylabel="Absorbance Units"><values byteorder="INTEL" format="FLOAT32" numvalues="3497"> -0.08978274 -0.08979096 -0.08979791 -0.08980195 -0.08979739 -0.08978508 -0.08976343 -0.08973561 -0.08970603 -0.08967607
 -0.08964965 -0.08962432 -0.08959969 -0.08957309 -0.08954219 -0.08950917 -0.08947388 -0.08944024 -0.08940943 -0.08938187
 -0.08935802 -0.0893355 -0.08931407 -0.08929383 -0.08927482 -0.08926015 -0.08924981 -0.08924489 -0.08924498 -0.08924841
 -0.08925483 -0.08926236 -0.08927064 -0.08927824 -0.08928441 -0.08928719 -0.08928669 -0.08928173 -0.08927435 -0.08926544
 -0.08925715 -0.08925113 -0.08924705 -0.08924542 -0.08924435 -0.08924349 -0.0892415 -0.08923821 -0.08923205 -0.08922289
 -0.08920892 -0.08919006 -0.08916739 -0.08914129 -0.08911633 -0.08909249 -0.08907237 -0.0890547 -0.08903655 -0.08901701
 -0.08899187 -0.0889628 -0.08892977 -0.08889647 -0.08886693 -0.08884324 -0.08882874 -0.08882242 -0.08882492 -0.08883382
 -0.0888487 -0.08886665 -0.08888745 -0.08890638 -0.08892309 -0.08893108 -0.08892965 -0.08891559 -0.08888876 -0.08885356
 -0.08881062 -0.08876871 -0.08872808 -0.08869474 -0.08866829 -0.08865032 -0.08864078 -0.08864055 -0.08864899 -0.08866675
 -0.08868957 -0.08871436 -0.08873379 -0.08874068 -0.08873294 -0.08870539 -0.08866685 -0.08861799 -0.08857191 -0.08853224
 -0.08850516 -0.088493 -0.08849172 -0.08850162 -0.08851212 -0.08852267 -0.08852546 -0.08852074 -0.08850945 -0.08849265
 -0.08847736 -0.08846322 -0.0884534 -0.08844554 -0.0884355 -0.08842214 -0.08840075 -0.08837402 -0.08834269 -0.08831047
 -0.08828107 -0.08825477 -0.0882333 -0.08821379 -0.08819548 -0.08817667 -0.08815647 -0.08813593 -0.08811509 -0.08809484
 -0.08807536 -0.08805571 -0.08803585 -0.08801673 -0.0879988 -0.0879884 -0.08798604 -0.08799909 -0.08802585 -0.088066
 -0.0881135 -0.08815406 -0.08818274 -0.08818208 -0.08815853 -0.0881108 -0.08805147 -0.08799056 -0.08793477 -0.08789123
 -0.08785943 -0.08784128 -0.08783275 -0.08783367 -0.08783826 -0.08784594 -0.08785003 -0.0878498 -0.08784104 -0.08782347
 -0.08779882 -0.08776738 -0.08773366 -0.08769768 -0.08766177 -0.08762617 -0.08759252 -0.08756213 -0.08753923 -0.08752426
 -0.08752113 -0.08752605 -0.08753735 -0.08754814 -0.08755173 -0.08754591 -0.08752622 -0.08749792 -0.08746189 -0.087423
 -0.08738317 -0.08734227 -0.08730014 -0.0872592 -0.08721919 -0.08718871 -0.08716823 -0.08716328 -0.08717337 -0.08719182
 -0.08721715 -0.08723599 -0.08724841 -0.08724701 -0.08723377 -0.08720997 -0.08717693 -0.08713754 -0.08709236 -0.08704253
 -0.08699005 -0.08693623 -0.08688482 -0.0868383 -0.08679905 -0.08676941 -0.0867466 -0.08673123 -0.08671602 -0.08669975
 -0.08667783 -0.08664916 -0.08661725 -0.08658217 -0.0865515 -0.08652539 -0.0865072 -0.08649624 -0.08648956 -0.0864864
 -0.0864822 -0.08647694 -0.08646836 -0.08645654 -0.0864405 -0.08642052 -0.08639614 -0.0863689 -0.08633936 -0.08631072
 -0.08628488 -0.08626424 -0.08625094 -0.08624285 -0.08624045 -0.08623808 -0.08623458 -0.08622765 -0.08621638 -0.08620659
 -0.08619858 -0.08619971 -0.08620983 -0.08622681 -0.086249 -0.08626381 -0.08626998 -0.08625524 -0.0862209 -0.08616285
 -0.08608595 -0.08599541 -0.08589938 -0.08580968 -0.08573284 -0.08567978 -0.08564924 -0.08564577 -0.08565854 -0.08568582
 -0.0857126 -0.0857344 -0.08574193 -0.08573191 -0.08570615 -0.08566412 -0.08561253 -0.08555177 -0.08548819 -0.0854221
 -0.08535901 -0.08529911 -0.08524676 -0.08520153 -0.08516433 -0.08513409 -0.08510833 -0.08508652 -0.08506639 -0.08504827
 -0.08503192 -0.08501704 -0.08500417 -0.0849901 -0.08497317 -0.08495068 -0.08492021 -0.08488423 -0.08484249 -0.08479998
 -0.08475812 -0.08471638 -0.08467525 -0.08462895 -0.08457704 -0.08451758 -0.08445093 -0.08438527 -0.08432133 -0.08426916
 -0.08422764 -0.08419809 -0.08417752 -0.08415838 -0.08413851 -0.08410982 -0.08407309 -0.0840256 -0.08396994 -0.08390717
 -0.08384051 -0.0837717 -0.0837047 -0.08364163 -0.08358471 -0.08353568 -0.08349195 -0.08345373 -0.08341583 -0.08337758
 -0.08333644 -0.08329218 -0.08324385 -0.08319126 -0.08312979 -0.08305912 -0.08297426 -0.08287625 -0.0827667 -0.08264774
 -0.08252609 -0.08240311 -0.08228445 -0.08217078 -0.0820653 -0.08196799 -0.08188057 -0.08180071 -0.08172818 -0.08165842
 -0.08158917 -0.08151823 -0.08144384 -0.08136838 -0.08129214 -0.08121656 -0.08114245 -0.08106375 -0.08098014 -0.08088438
 -0.0807764 -0.08065818 -0.08053064 -0.08040273 -0.08027456 -0.08015139 -0.08003233 -0.07991683 -0.0798056 -0.07969938
 -0.07959986 -0.07951134 -0.07942978 -0.0793555 -0.07927658 -0.07918514 -0.07907413 -0.07893506 -0.07877931 -0.07860684
 -0.07843617 -0.07827179 -0.07812033 -0.07798402 -0.0778568 -0.07773851 -0.07762081 -0.07750347 -0.07738424 -0.07726355
 -0.07714438 -0.07702633 -0.07690958 -0.07679213 -0.07666777 -0.07653584 -0.07639074 -0.07623629 -0.07607481 -0.07591154
 -0.07575299 -0.07560039 -0.07545743 -0.07532047 -0.07518899 -0.07505876 -0.0749283 -0.07479528 -0.07465863 -0.07451954
 -0.07437784 -0.07423692 -0.07409715 -0.07395834 -0.07382035 -0.07367631 -0.07352607 -0.07336429 -0.07319278 -0.0730169
 -0.07283939 -0.07267195 -0.07251409 -0.07237151 -0.07223982 -0.07211562 -0.07199425 -0.07186927 -0.07174 -0.07160323
 -0.0714624 -0.07131832 -0.0711738 -0.0710306 -0.07088675 -0.07074248 -0.0705935 -0.07043903 -0.07027815 -0.07011054
 -0.06993967 -0.0697657 -0.06959203 -0.06941859 -0.06924596 -0.06907412 -0.06890317 -0.06873336 -0.06856558 -0.06839974
 -0.06823639 -0.06807461 -0.06791355 -0.06775179 -0.06758726 -0.06742002 -0.06724872 -0.06707631 -0.06690354 -0.06673399
 -0.06656948 -0.06640993 -0.06625615 -0.06610435 -0.0659541 -0.06580249 -0.06564913 -0.0654949 -0.06533989 -0.06518745
 -0.06503769 -0.06489284 -0.06475234 -0.06461491 -0.06447903 -0.06433915 -0.06419454 -0.06403993 -0.06387784 -0.06370883
 -0.06353796 -0.06337102 -0.06321017 -0.06306024 -0.06291645 -0.06277853 -0.0626391 -0.06249481 -0.06234483 -0.06218743
 -0.06202907 -0.06187045 -0.06171633 -0.06156749 -0.06142066 -0.06127566 -0.06112577 -0.0609711 -0.06081009 -0.06064369
 -0.060476 -0.0603078 -0.06014375 -0.05998415 -0.05983207 -0.05968706 -0.05955026 -0.0594197 -0.05929416 -0.05917072
 -0.05904655 -0.05892114 -0.05879309 -0.05866435 -0.0585356 -0.05840701 -0.05827926 -0.05814886 -0.05801544 -0.057876
 -0.05773 -0.0575797 -0.05742521 -0.05727238 -0.05712141 -0.05697672 -0.0568377 -0.05670348 -0.05657295 -0.05644193
 -0.05631009 -0.05617425 -0.05603567 -0.0558946 -0.05575301 -0.05561299 -0.05547627 -0.05534464 -0.05521951 -0.05510214
 -0.05499291 -0.05489282 -0.05479914 -0.054712 -0.05462581 -0.0545399 -0.05444921 -0.0543531 -0.0542504 -0.05414105
 -0.05402796 -0.0539114 -0.05379536 -0.0536799 -0.05356746 -0.05345773 -0.05335106 -0.05324698 -0.05314472 -0.05304359
 -0.05294246 -0.05284009 -0.05273456 -0.0526255 -0.05251114 -0.0523945 -0.05227584 -0.05216067 -0.05205119 -0.05195016
 -0.05185959 -0.0517752 -0.05169714 -0.05161738 -0.05153509 -0.05144627 -0.05135069 -0.05125192 -0.0511504 -0.05105278
 -0.05095899 -0.05087237 -0.05079179 -0.05071527 -0.05064135 -0.05056528 -0.05048723 -0.05040454 -0.05032007 -0.0502357
 -0.05015462 -0.0500808 -0.05001317 -0.04995344 -0.04989553 -0.04983774 -0.04977505 -0.04970535 -0.04962903 -0.04954541
 -0.049459 -0.0493701 -0.0492831 -0.04919827 -0.0491175 -0.04904067 -0.04896653 -0.04889487 -0.04882329 -0.04875277
 -0.04868504 -0.04862221 -0.0485709 -0.04853081 -0.04850591 -0.04849095 -0.04848211 -0.04847309 -0.04845681 -0.04843229
 -0.04839604 -0.0483527 -0.04830307 -0.0482516 -0.04819984 -0.04814886 -0.04809925 -0.04804995 -0.048001 -0.04795024
 -0.04789755 -0.04784112 -0.04778102 -0.04771792 -0.04765245 -0.04758893 -0.0475279 -0.047474 -0.04742629 -0.04738527
 -0.0473486 -0.04731245 -0.04727543 -0.04723366 -0.04718896 -0.0471409 -0.0470934 -0.04704873 -0.04700867 -0.04697527
 -0.04694546 -0.04691932 -0.04689161 -0.04686139 -0.04682585 -0.04678439 -0.04673818 -0.04668727 -0.04663459 -0.04658024
 -0.04652613 -0.0464723 -0.04641981 -0.04636896 -0.04632158 -0.04627787 -0.04623961 -0.04620595 -0.04617675 -0.04614964
 -0.04612217 -0.04609117 -0.04605344 -0.04600636 -0.04594684 -0.04587625 -0.04579278 -0.04570508 -0.04561405 -0.0455316
 -0.04546052 -0.04540412 -0.04536401 -0.04532892 -0.04529833 -0.04525726 -0.04520558 -0.0451404 -0.04506312 -0.04498253
 -0.04489873 -0.0448176 -0.04473641 -0.04465046 -0.04455899 -0.04445618 -0.04434851 -0.04424016 -0.04414086 -0.04406163
 -0.04400406 -0.04397479 -0.04396299 -0.04396706 -0.04397319 -0.04397654 -0.04397257 -0.04395859 -0.04394123 -0.04392044
 -0.04390746 -0.04390301 -0.0439155 -0.04394491 -0.04399092 -0.04405218 -0.04411877 -0.04418962 -0.04425419 -0.04431458
 -0.04437004 -0.04442501 -0.04448769 -0.04455968 -0.04464772 -0.04474772 -0.0448594 -0.04497591 -0.04509279 -0.04520673
 -0.04531407 -0.04541896 -0.04552076 -0.04562878 -0.04574467 -0.04587445 -0.04601958 -0.04617649 -0.04634517 -0.04651559
 -0.04668725 -0.04685162 -0.04700877 -0.04715519 -0.04729155 -0.0474183 -0.04753697 -0.0476516 -0.04776381 -0.04787909
 -0.04799639 -0.04811756 -0.04823829 -0.04835507 -0.0484659 -0.04856719 -0.04866331 -0.04875467 -0.04884735 -0.04894385
 -0.04904459 -0.04915085 -0.0492566 -0.04936149 -0.04945854 -0.04954718 -0.04962547 -0.04969364 -0.04975708 -0.04981653
 -0.04988041 -0.04994835 -0.05002401 -0.05010501 -0.05018671 -0.0502671 -0.05033964 -0.05040509 -0.05046138 -0.05051103
 -0.05055547 -0.05059711 -0.05063745 -0.05067934 -0.05072384 -0.05077471 -0.05083358 -0.05090105 -0.05097824 -0.05105987
 -0.05114574 -0.0512286 -0.05130786 -0.0513807 -0.05144716 -0.05150949 -0.0515679 -0.05162507 -0.05168092 -0.05173627
 -0.0517914 -0.05184739 -0.05190494 -0.05196631 -0.05203084 -0.05209934 -0.05216872 -0.05223642 -0.05229997 -0.05235618
 -0.05240701 -0.052452 -0.05249539 -0.05253861 -0.05258315 -0.05262967 -0.05267769 -0.05272695 -0.05277992 -0.05283669
 -0.05290215 -0.05297638 -0.05305932 -0.0531501 -0.05324129 -0.05333231 -0.05341593 -0.05349361 -0.05356557 -0.05363407
 -0.05370431 -0.05377589 -0.05385112 -0.05392703 -0.05400151 -0.05407267 -0.05413802 -0.05419898 -0.05425533 -0.05430938
 -0.05436182 -0.05441391 -0.05446596 -0.05451915 -0.05457371 -0.05462996 -0.05468804 -0.05474537 -0.0548018 -0.05485392
 -0.05490202 -0.05494705 -0.05499004 -0.05503662 -0.05508682 -0.05514435 -0.05520692 -0.05527211 -0.05533698 -0.05539591
 -0.05544854 -0.05549134 -0.05552842 -0.05556066 -0.05559423 -0.05563264 -0.05567797 -0.05573285 -0.05579143 -0.0558535
 -0.05591065 -0.05596137 -0.05600363 -0.05603689 -0.05606639 -0.05609234 -0.05611856 -0.0561445 -0.05616652 -0.0561837
 -0.05618912 -0.0561836 -0.05616515 -0.05613698 -0.05610418 -0.05607061 -0.05604403 -0.05602651 -0.05602354 -0.05603371
 -0.05605859 -0.05609343 -0.05613697 -0.05618347 -0.05623083 -0.05627566 -0.05631678 -0.05635323 -0.05638485 -0.05641027
 -0.05642947 -0.05643875 -0.05643796 -0.05642547 -0.05640182 -0.05637145 -0.05633528 -0.05630039 -0.0562668 -0.05623825
 -0.05621417 -0.05619479 -0.05618061 -0.05617239 -0.05617085 -0.05617783 -0.05619112 -0.05621048 -0.05623164 -0.0562519
 -0.05627075 -0.05628637 -0.05630436 -0.05632545 -0.05635515 -0.05639487 -0.05644305 -0.05649998 -0.05655786 -0.05661632
 -0.05666832 -0.05671395 -0.05675142 -0.05678163 -0.05680789 -0.05683136 -0.05685738 -0.05688672 -0.05692395 -0.05696823
 -0.05702092 -0.05707913 -0.05714073 -0.0572024 -0.05726084 -0.05731504 -0.05736303 -0.05740727 -0.05744769 -0.05748871
 -0.05753124 -0.05757876 -0.05763215 -0.05769135 -0.05775666 -0.0578235 -0.05789163 -0.0579552 -0.05801429 -0.0580675
 -0.05811569 -0.05816281 -0.05820953 -0.05826074 -0.05831508 -0.05837244 -0.05843011 -0.05848368 -0.05853188 -0.05857096
 -0.05860303 -0.05862781 -0.05864948 -0.05867005 -0.05869242 -0.05871827 -0.05874792 -0.05878196 -0.05881891 -0.05885882
 -0.05889897 -0.05893921 -0.05897646 -0.05901057 -0.05903928 -0.05906263 -0.05908033 -0.05909271 -0.05910138 -0.05910696
 -0.05911218 -0.05911785 -0.05912745 -0.05914076 -0.05915972 -0.05918167 -0.05920509 -0.05922577 -0.05924008 -0.05924543
 -0.05923923 -0.05922178 -0.05919236 -0.05915289 -0.05910351 -0.05904666 -0.0589825 -0.0589147 -0.05884362 -0.05877201
 -0.05870002 -0.0586259 -0.05854922 -0.05846417 -0.0583703 -0.0582619 -0.05813934 -0.05800033 -0.0578466 -0.05768045
 -0.0575045 -0.05732383 -0.05714045 -0.0569589 -0.0567789 -0.05660198 -0.05642651 -0.05625176 -0.05607757 -0.05590343
 -0.05573087 -0.05556009 -0.05539268 -0.055229 -0.05506922 -0.05491346 -0.05476067 -0.05461078 -0.05446384 -0.05432021
 -0.05418421 -0.05405687 -0.05394662 -0.05385379 -0.05378472 -0.05373763 -0.05371181 -0.05370459 -0.05371134 -0.05373011
 -0.05375778 -0.0537907 -0.05382683 -0.05385781 -0.05387939 -0.05388335 -0.05386471 -0.0538237 -0.05375851 -0.05367634
 -0.05357829 -0.05346797 -0.05334613 -0.0532104 -0.05306065 -0.0528969 -0.05271979 -0.0525379 -0.05235254 -0.05217611
 -0.05200904 -0.05185968 -0.05172753 -0.05161541 -0.05152304 -0.05145072 -0.05139956 -0.05136986 -0.05136586 -0.05138934
 -0.051449 -0.051549 -0.05169898 -0.05190448 -0.05216666 -0.0524892 -0.05285839 -0.05327441 -0.05371251 -0.05417075
 -0.05462503 -0.05507381 -0.05550157 -0.05590793 -0.05628505 -0.05663308 -0.0569485 -0.05723216 -0.05748447 -0.05770786
 -0.057908 -0.05808777 -0.05825469 -0.05841031 -0.05855936 -0.05870236 -0.05884109 -0.05897611 -0.05910856 -0.05923733
 -0.0593631 -0.05948099 -0.05959007 -0.0596857 -0.05976634 -0.05983396 -0.05988819 -0.0599361 -0.05997809 -0.06001926
 -0.06005949 -0.06009763 -0.06013298 -0.06016057 -0.06017996 -0.06018652 -0.060181 -0.06016195 -0.06013278 -0.06009761
 -0.06006218 -0.06003461 -0.06002005 -0.06002616 -0.06005336 -0.06010553 -0.06017605 -0.06026488 -0.06035959 -0.0604579
 -0.06054592 -0.06062098 -0.06067393 -0.06070325 -0.0607066 -0.06068367 -0.06063763 -0.06056917 -0.06048921 -0.06040065
 -0.06032721 -0.06027397 -0.06027406 -0.06032968 -0.06046627 -0.06067606 -0.06096077 -0.06130195 -0.06167981 -0.06207376
 -0.06245936 -0.06282545 -0.06315713 -0.06345665 -0.06372039 -0.06395759 -0.06417007 -0.06436483 -0.06454373 -0.06470851
 -0.06485968 -0.06499624 -0.06511813 -0.0652248 -0.06531636 -0.06539433 -0.06545919 -0.06551513 -0.0655628 -0.06560722
 -0.06564853 -0.06568979 -0.06573056 -0.06577124 -0.06581178 -0.06585197 -0.06589258 -0.0659342 -0.06597736 -0.06602289
 -0.06606976 -0.06611826 -0.06616538 -0.06621051 -0.06625075 -0.06628519 -0.06631404 -0.06633691 -0.06635777 -0.06637684
 -0.06639801 -0.06642131 -0.06644734 -0.06647579 -0.06650466 -0.06653376 -0.0665614 -0.06658767 -0.06661198 -0.06663429
 -0.06665436 -0.06667195 -0.06668645 -0.06669831 -0.06670732 -0.06671514 -0.0667224 -0.06673153 -0.06674394 -0.06676023
 -0.06678161 -0.06680423 -0.06682794 -0.06684691 -0.06686024 -0.06686593 -0.06686363 -0.06685747 -0.06684773 -0.06684031
 -0.06683514 -0.06683439 -0.06683744 -0.06684278 -0.06684996 -0.06685691 -0.06686363 -0.06686909 -0.06687346 -0.06687649
 -0.06687845 -0.06687939 -0.06687996 -0.06688064 -0.0668816 -0.06688338 -0.0668846 -0.06688519 -0.06688294 -0.06687723
 -0.0668678 -0.06685432 -0.06683908 -0.06682219 -0.06680621 -0.06679124 -0.06677826 -0.06676729 -0.06675873 -0.06675269
 -0.06675003 -0.06675058 -0.06675464 -0.06676126 -0.06676876 -0.06677637 -0.06678213 -0.06678639 -0.0667887 -0.06678982
 -0.06679024 -0.06679005 -0.06678962 -0.066788 -0.0667849 -0.06678002 -0.06677311 -0.06676482 -0.06675506 -0.06674562
 -0.06673658 -0.06673048 -0.06672742 -0.06672898 -0.06673501 -0.06674498 -0.06675854 -0.06677373 -0.06679025 -0.06680636
 -0.06682175 -0.06683515 -0.06684595 -0.06685259 -0.06685509 -0.0668524 -0.06684633 -0.0668374 -0.06682827 -0.06682053
 -0.06681459 -0.06681132 -0.06680837 -0.0668054 -0.06680045 -0.06679302 -0.06678399 -0.06677331 -0.06676329 -0.06675401
 -0.06674662 -0.06674093 -0.06673568 -0.0667306 -0.06672363 -0.06671496 -0.06670394 -0.0666912 -0.06667771 -0.06666384
 -0.06665067 -0.06663779 -0.06662518 -0.0666125 -0.06659924 -0.06658614 -0.06657343 -0.06656144 -0.06655058 -0.06653978
 -0.06652892 -0.06651697 -0.06650362 -0.06648974 -0.06647532 -0.06646251 -0.06645141 -0.06644344 -0.06643852 -0.06643646
 -0.06643697 -0.06643856 -0.06644083 -0.06644155 -0.06644073 -0.06643714 -0.06643134 -0.06642373 -0.06641449 -0.06640422
 -0.06639211 -0.06637773 -0.06636056 -0.06633973 -0.06631703 -0.06629249 -0.06626935 -0.06624838 -0.06623121 -0.06621844
 -0.06620845 -0.06620129 -0.06619324 -0.06618413 -0.06617162 -0.06615598 -0.06613898 -0.06612129 -0.06610746 -0.06609757
 -0.06609471 -0.06609754 -0.06610486 -0.06611498 -0.06612482 -0.06613355 -0.06613922 -0.06614165 -0.06614016 -0.06613471
 -0.06612486 -0.06611162 -0.06609495 -0.0660769 -0.06605798 -0.06603923 -0.06602102 -0.06600233 -0.06598309 -0.06596284
 -0.0659416 -0.06592167 -0.06590325 -0.06588953 -0.06588018 -0.0658754 -0.0658743 -0.065874 -0.06587398 -0.0658714
 -0.06586702 -0.06586055 -0.06585331 -0.0658467 -0.06584128 -0.0658382 -0.06583651 -0.06583624 -0.06583583 -0.06583478
 -0.06583196 -0.06582693 -0.06581976 -0.0658103 -0.06579959 -0.06578767 -0.06577616 -0.06576518 -0.06575586 -0.06574812
 -0.06574138 -0.06573533 -0.06572779 -0.06571882 -0.06570727 -0.06569383 -0.06567945 -0.06566467 -0.06565091 -0.06563778
 -0.06562546 -0.06561334 -0.06560066 -0.06558841 -0.06557675 -0.06556731 -0.06556109 -0.06555723 -0.06555627 -0.06555399
 -0.06554991 -0.06554045 -0.06552502 -0.06550482 -0.06547993 -0.06545436 -0.06542818 -0.0654035 -0.06537999 -0.06535674
 -0.06533378 -0.06531061 -0.06528787 -0.0652669 -0.06524778 -0.06523168 -0.06521728 -0.06520372 -0.06518955 -0.06517299
 -0.06515463 -0.06513385 -0.06511308 -0.065093 -0.0650757 -0.06506211 -0.06505167 -0.06504469 -0.06503822 -0.06503207
 -0.06502351 -0.0650124 -0.06499765 -0.06497935 -0.06495799 -0.06493372 -0.06490767 -0.06488007 -0.0648524 -0.06482472
 -0.06479786 -0.06477189 -0.06474692 -0.06472374 -0.06470295 -0.06468615 -0.06467497 -0.06466962 -0.06467139 -0.06467701
 -0.0646861 -0.06469371 -0.06469844 -0.06469792 -0.06469122 -0.06467996 -0.06466401 -0.06464738 -0.06463031 -0.06461689
 -0.06460717 -0.06460272 -0.06460297 -0.0646055 -0.06460943 -0.06461026 -0.0646077 -0.06459866 -0.06458382 -0.06456263
 -0.06453659 -0.0645066 -0.06447573 -0.06444622 -0.06442187 -0.06440576 -0.06439841 -0.06440196 -0.06441036 -0.06442311
 -0.06443204 -0.06443544 -0.06443049 -0.0644163 -0.06439733 -0.06437378 -0.06435193 -0.0643319 -0.06431647 -0.06430525
 -0.06429749 -0.06429268 -0.06428871 -0.06428522 -0.06428038 -0.06427409 -0.0642653 -0.06425415 -0.06424056 -0.06422438
 -0.06420567 -0.06418372 -0.06415801 -0.06412867 -0.06409501 -0.06405994 -0.06402365 -0.06399071 -0.06396203 -0.06393979
 -0.06392463 -0.06391384 -0.06390731 -0.06390069 -0.06389385 -0.06388459 -0.06387316 -0.06386012 -0.06384562 -0.06383071
 -0.0638151 -0.0637986 -0.06378086 -0.063761 -0.06373955 -0.06371648 -0.06369336 -0.0636716 -0.06365185 -0.06363546
 -0.06362041 -0.06360667 -0.0635906 -0.06357106 -0.06354663 -0.06351649 -0.06348301 -0.06344619 -0.06340995 -0.06337456
 -0.063343 -0.06331529 -0.063292 -0.06327292 -0.06325694 -0.06324373 -0.06323142 -0.06321946 -0.0632055 -0.06318928
 -0.06316904 -0.06314551 -0.0631185 -0.06308993 -0.06306133 -0.06303413 -0.06300993 -0.06298812 -0.06296918 -0.06295108
 -0.06293344 -0.0629146 -0.06289422 -0.06287122 -0.06284545 -0.06281623 -0.06278348 -0.06274853 -0.06271157 -0.0626765
 -0.06264347 -0.06261574 -0.06259275 -0.06257418 -0.06255902 -0.06254435 -0.06252988 -0.06251359 -0.06249608 -0.06247728
 -0.06245792 -0.06243865 -0.06241987 -0.06240178 -0.06238529 -0.06237035 -0.06235956 -0.06235336 -0.06235508 -0.06236577
 -0.06238504 -0.06241354 -0.06244423 -0.06247678 -0.062502 -0.06251971 -0.06252714 -0.06252521 -0.06251943 -0.06251066
 -0.06250595 -0.06250411 -0.06250605 -0.06250917 -0.06250906 -0.06250405 -0.06248994 -0.0624669 -0.06243363 -0.06239065
 -0.06233773 -0.06227609 -0.06220524 -0.06213012 -0.06205124 -0.06197627 -0.06190642 -0.06184878 -0.06180449 -0.06177611
 -0.06176408 -0.06176209 -0.06176949 -0.06177271 -0.06177144 -0.06175667 -0.06172981 -0.06169222 -0.06164534 -0.06159377
 -0.06153844 -0.06148266 -0.06142831 -0.06137877 -0.06133643 -0.0613054 -0.06128438 -0.06127529 -0.061271 -0.06126984
 -0.06126281 -0.06124682 -0.06121707 -0.06117168 -0.06111166 -0.06103655 -0.06095112 -0.06085551 -0.06075776 -0.06065838
 -0.06056762 -0.06048576 -0.06042057 -0.06037069 -0.060335 -0.06031068 -0.06028905 -0.06026863 -0.0602418 -0.06021009
 -0.06017208 -0.06013039 -0.06008721 -0.06004363 -0.06000104 -0.05995953 -0.05991936 -0.05988076 -0.05984398 -0.05980849
 -0.05977441 -0.05973986 -0.05970461 -0.05966732 -0.05962782 -0.05958708 -0.05954515 -0.05950389 -0.05946335 -0.05942476
 -0.05938818 -0.05935459 -0.05932392 -0.05929686 -0.05927243 -0.05924928 -0.0592261 -0.05920024 -0.0591718 -0.05913949
 -0.05910507 -0.05906935 -0.05903345 -0.05899833 -0.05896331 -0.05892851 -0.05889254 -0.05885503 -0.05881586 -0.05877482
 -0.05873362 -0.05869236 -0.05865336 -0.05861672 -0.05858355 -0.05855357 -0.05852491 -0.05849706 -0.05846661 -0.05843363
 -0.05839625 -0.0583553 -0.05831127 -0.05826556 -0.05822016 -0.05817643 -0.05813646 -0.05810072 -0.05807061 -0.05804441
 -0.05802218 -0.0580004 -0.05797811 -0.0579524 -0.05792237 -0.05788726 -0.05784678 -0.05780124 -0.05775058 -0.05769583
 -0.05763709 -0.05757684 -0.05751549 -0.05745778 -0.05740402 -0.05735848 -0.05732042 -0.05729022 -0.05726589 -0.05724368
 -0.05722174 -0.05719541 -0.05716499 -0.05712861 -0.05708854 -0.0570456 -0.05700212 -0.05695949 -0.05691867 -0.05688037
 -0.05684432 -0.05681079 -0.05677812 -0.05674629 -0.0567123 -0.05667588 -0.05663522 -0.0565903 -0.05654294 -0.05649343
 -0.05644528 -0.05639843 -0.05635442 -0.05631296 -0.05627358 -0.05623663 -0.05620265 -0.05617181 -0.05614526 -0.05612109
 -0.05609817 -0.05607374 -0.05604502 -0.0560121 -0.05597344 -0.05593316 -0.05589214 -0.05585408 -0.05582041 -0.05579051
 -0.05576479 -0.05573973 -0.0557151 -0.05568788 -0.05565796 -0.05562476 -0.05558839 -0.05554978 -0.055509 -0.05546686
 -0.05542348 -0.05537945 -0.05533525 -0.05529208 -0.05525046 -0.05521188 -0.05517585 -0.05514291 -0.05511083 -0.05507824
 -0.0550434 -0.05500456 -0.05496306 -0.05491859 -0.05487428 -0.05483093 -0.05478968 -0.0547511 -0.05471309 -0.05467552
 -0.05463667 -0.05459649 -0.05455589 -0.05451498 -0.05447552 -0.05443726 -0.05439993 -0.05436299 -0.05432451 -0.05428447
 -0.05424163 -0.05419687 -0.05415093 -0.05410478 -0.05405977 -0.05401639 -0.05397551 -0.05393681 -0.05390053 -0.05386567
 -0.0538322 -0.05379814 -0.05376314 -0.05372507 -0.05368346 -0.05363793 -0.05358822 -0.05353713 -0.05348482 -0.05343543
 -0.05338905 -0.05334837 -0.05331298 -0.05328234 -0.05325564 -0.05323001 -0.05320474 -0.05317679 -0.05314599 -0.05311056
 -0.05307108 -0.05302718 -0.05298041 -0.05293146 -0.05288263 -0.0528352 -0.05279089 -0.05275098 -0.05271448 -0.05268183
 -0.0526494 -0.05261671 -0.052581 -0.05254181 -0.0525 -0.05245562 -0.05241175 -0.05236843 -0.05232716 -0.05228757
 -0.05224841 -0.05220925 -0.05216783 -0.05212429 -0.05207773 -0.05202894 -0.05197876 -0.0519279 -0.05187773 -0.05182793
 -0.05177892 -0.05172954 -0.05167909 -0.05162747 -0.05157419 -0.05152074 -0.05146725 -0.05141586 -0.05136711 -0.05132097
 -0.05127762 -0.0512345 -0.05119149 -0.05114611 -0.05109849 -0.05104949 -0.05099954 -0.05095184 -0.05090638 -0.05086516
 -0.0508273 -0.05079176 -0.05075779 -0.05072323 -0.05068895 -0.05065468 -0.05062263 -0.05059461 -0.05057156 -0.05055517
 -0.0505431 -0.05053545 -0.05052773 -0.0505188 -0.05050585 -0.05048797 -0.05046593 -0.05043956 -0.05041168 -0.05038245
 -0.05035467 -0.05032844 -0.05030547 -0.05028577 -0.05027044 -0.05025897 -0.05025034 -0.0502435 -0.05023549 -0.05022547
 -0.05021046 -0.05019096 -0.05016601 -0.05013746 -0.05010632 -0.05007447 -0.0500434 -0.05001355 -0.0499858 -0.0499585
 -0.04993145 -0.049903 -0.04987264 -0.04984109 -0.04980826 -0.04977683 -0.04974694 -0.0497197 -0.04969492 -0.04967006
 -0.04964474 -0.0496151 -0.0495815 -0.0495429 -0.04950051 -0.04945672 -0.04941263 -0.04937142 -0.04933281 -0.04929811
 -0.04926564 -0.04923466 -0.04920327 -0.04917 -0.04913446 -0.04909584 -0.04905556 -0.0490136 -0.04897235 -0.04893211
 -0.04889516 -0.04886189 -0.04883242 -0.0488068 -0.04878201 -0.04875778 -0.04872942 -0.04869702 -0.04865872 -0.04861539
 -0.04856933 -0.04852136 -0.04847514 -0.04843004 -0.04838689 -0.04834416 -0.04830005 -0.04825433 -0.04820577 -0.04815595
 -0.04810522 -0.04805554 -0.04800788 -0.04796287 -0.04792094 -0.04788176 -0.04784553 -0.04781039 -0.04777627 -0.0477401
 -0.04770168 -0.0476592 -0.04761279 -0.04756406 -0.04751334 -0.04746367 -0.04741487 -0.04736792 -0.04732241 -0.04727753
 -0.04723359 -0.04719072 -0.04714941 -0.04711083 -0.04707367 -0.04703766 -0.04700018 -0.04695931 -0.04691447 -0.04686429
 -0.0468119 -0.04675766 -0.04670523 -0.04665558 -0.04660911 -0.04656615 -0.04652435 -0.04648361 -0.04644215 -0.04639995
 -0.04635658 -0.04631206 -0.04626629 -0.04621935 -0.0461713 -0.04612258 -0.0460743 -0.04602702 -0.04598238 -0.04594046
 -0.04590211 -0.04586688 -0.04583495 -0.04580494 -0.04577651 -0.04574708 -0.04571582 -0.04567972 -0.04563746 -0.04558897
 -0.04553342 -0.0454754 -0.04541518 -0.04535827 -0.04530516 -0.04525651 -0.04521212 -0.04516733 -0.04512189 -0.04507149
 -0.04501693 -0.04495922 -0.04489948 -0.04484163 -0.04478532 -0.04473205 -0.04468026 -0.04462821 -0.04457586 -0.04452192
 -0.04446886 -0.04441786 -0.04437072 -0.04432929 -0.04429094 -0.04425592 -0.04421859 -0.04417788 -0.04413029 -0.0440749
 -0.04401395 -0.04394743 -0.04388094 -0.0438147 -0.04375288 -0.04369521 -0.04364163 -0.04359164 -0.04354288 -0.04349542
 -0.04344814 -0.04340162 -0.04335669 -0.043313 -0.04327082 -0.04322848 -0.04318459 -0.04313795 -0.04308701 -0.04303274
 -0.0429749 -0.04291565 -0.04285564 -0.04279589 -0.0427369 -0.04267767 -0.04261822 -0.04255687 -0.04249349 -0.04242729
 -0.04235831 -0.04228742 -0.04221492 -0.04214329 -0.04207284 -0.04200639 -0.04194386 -0.04188668 -0.04183395 -0.04178489
 -0.04173789 -0.04169037 -0.04164143 -0.04158907 -0.04153387 -0.04147533 -0.04141532 -0.04135443 -0.04129443 -0.04123611
 -0.04117978 -0.04112591 -0.04107251 -0.04101954 -0.04096376 -0.04090488 -0.04084152 -0.0407737 -0.04070373 -0.04063187
 -0.04056164 -0.04049284 -0.04042662 -0.04036216 -0.04029763 -0.04023258 -0.04016497 -0.04009543 -0.04002378 -0.03995132
 -0.0398794 -0.03980844 -0.03973953 -0.03967129 -0.03960364 -0.03953437 -0.03946258 -0.03938783 -0.03930959 -0.03922973
 -0.03914832 -0.03906784 -0.03898849 -0.03891133 -0.03883636 -0.03876346 -0.03869262 -0.03862367 -0.03855642 -0.03849026
 -0.03842423 -0.03835524 -0.03828231 -0.03820134 -0.03811353 -0.03801823 -0.03791865 -0.03781794 -0.03771759 -0.03762018
 -0.03752388 -0.03742855 -0.03733235 -0.03723425 -0.03713517 -0.03703504 -0.03693551 -0.03683694 -0.03673916 -0.03664224
 -0.03654475 -0.03644663 -0.0363473 -0.03624679 -0.03614546 -0.0360433 -0.03594052 -0.03583688 -0.03573192 -0.03562505
 -0.03551485 -0.03540079 -0.03528138 -0.03515672 -0.03502622 -0.03489061 -0.03474997 -0.03460565 -0.03445831 -0.03430883
 -0.03415803 -0.03400445 -0.03384839 -0.03368555 -0.03351535 -0.033335 -0.03314401 -0.03294551 -0.03273969 -0.03253248
 -0.03232397 -0.03211696 -0.03191134 -0.03170764 -0.0315064 -0.03130955 -0.03111761 -0.03093277 -0.03075496 -0.03058513
 -0.03042276 -0.03026807 -0.03011928 -0.02997587 -0.02983415 -0.02969245 -0.02954747 -0.0293975 -0.02924217 -0.0290808
 -0.02891578 -0.02874744 -0.02857718 -0.0284054 -0.02822828 -0.02804554 -0.02784747 -0.02763374 -0.02739654 -0.02713736
 -0.02685972 -0.02656569 -0.02626469 -0.02595548 -0.02564056 -0.02531655 -0.02497919 -0.02462667 -0.02425563 -0.02386498
 -0.02345455 -0.02301827 -0.02255501 -0.02205303 -0.02150769 -0.02091323 -0.02026488 -0.01957623 -0.0188466 -0.01810462
 -0.01735248 -0.01661461 -0.01589223 -0.01519474 -0.01452119 -0.01386529 -0.01322432 -0.0125806 -0.01193227 -0.01126155
 -0.01057352 -0.009868419 -0.009157365 -0.008459656 -0.007776846 -0.007121337 -0.006480655 -0.005849682 -0.005217762 -0.00457645
 -0.003926731 -0.003266778 -0.00260079 -0.001930135 -0.001253377 -0.0005700972 0.0001179809 0.000811231 0.001499666 0.002182778
 0.00285365 0.003511951 0.00415331 0.00477533 0.005362598 0.005912267 0.006404849 0.006842961 0.007222054 0.007547881
 0.007828261 0.00806515 0.008263736 0.008424117 0.008546257 0.00863569 0.008694735 0.008729227 0.008743029 0.008733363
 0.008701172 0.008638242 0.00854368 0.008410134 0.008237093 0.008015974 0.007746283 0.007417384 0.007029687 0.006583706
 0.006083128 0.005549219 0.004985573 0.004416717 0.00384193 0.003270892 0.002703376 0.002141186 0.001589862 0.001054818
 0.0005445947 6.810251E-05 -0.0003716891 -0.0007695057 -0.00113027 -0.001454392 -0.00174721 -0.002010755 -0.002244459 -0.002448687
 -0.002620804 -0.00276026 -0.002870061 -0.002950341 -0.003008866 -0.003046063 -0.003069267 -0.003078743 -0.003079461 -0.003072083
 -0.003061152 -0.003048193 -0.003039009 -0.003034743 -0.003040195 -0.003054741 -0.003079887 -0.003113571 -0.003154723 -0.003201568
 -0.003253211 -0.003307331 -0.003363389 -0.003417645 -0.003469191 -0.003514973 -0.00355421 -0.003586474 -0.003611648 -0.003629687
 -0.003640587 -0.003643277 -0.003637776 -0.003623979 -0.003602239 -0.003574735 -0.003541752 -0.003505458 -0.003465955 -0.00342441
 -0.00338119 -0.003337191 -0.003293317 -0.00325075 -0.003210759 -0.003174403 -0.003143604 -0.003119443 -0.003104045 -0.003098232
 -0.003104157 -0.003122182 -0.003155427 -0.003204344 -0.003272029 -0.003359135 -0.003463741 -0.003585808 -0.003719055 -0.003863491
 -0.004017941 -0.004183546 -0.004366997 -0.004569444 -0.004798956 -0.005055449 -0.005343006 -0.005660424 -0.006007206 -0.006383064
 -0.006787234 -0.007220337 -0.007685195 -0.008173656 -0.008686289 -0.009200246 -0.009706831 -0.01019061 -0.01064281 -0.01107295
 -0.01148047 -0.01188108 -0.01227704 -0.01267043 -0.01306162 -0.01344155 -0.01380979 -0.01415863 -0.01448822 -0.014796
 -0.01508234 -0.01534641 -0.01559037 -0.01581741 -0.01603398 -0.01625141 -0.01647817 -0.01672949 -0.01700899 -0.01732682
 -0.01767675 -0.01805991 -0.01846331 -0.01888255 -0.01930679 -0.01973245 -0.02015286 -0.02056751 -0.02096425 -0.02134234
 -0.02168505 -0.02199114 -0.02225798 -0.02248629 -0.02268919 -0.02286759 -0.0230343 -0.02318878 -0.0233356 -0.02347385
 -0.02360352 -0.02372405 -0.0238348 -0.02393446 -0.02402178 -0.02409399 -0.02414855 -0.02418276 -0.02419403 -0.02418195
 -0.02414551 -0.02408596 -0.02400349 -0.02389906 -0.02377299 -0.02362507 -0.02345541 -0.0232627 -0.02304685 -0.022807
 -0.02254349 -0.02226173 -0.02196395 -0.02166831 -0.02137773 -0.02111499 -0.020879 -0.02068012 -0.02051212 -0.0203694
 -0.02024417 -0.02012427 -0.02000475 -0.01987618 -0.01973966 -0.01959157 -0.01944006 -0.01928612 -0.01914258 -0.01901352
 -0.01890581 -0.01882247 -0.01875902 -0.01871552 -0.01868514 -0.01866736 -0.01865985 -0.0186624 -0.01867218 -0.01868828
 -0.01870262 -0.01871409 -0.01871336 -0.01870068 -0.01867186 -0.01862775 -0.01856854 -0.01849344 -0.01840243 -0.01829189
 -0.01815932 -0.01799966 -0.01780928 -0.01758441 -0.01732212 -0.01702256 -0.01668385 -0.01631349 -0.01591121 -0.01549188
 -0.01505663 -0.01462199 -0.01418915 -0.01377053 -0.01336665 -0.01298544 -0.01262727 -0.01229865 -0.01200017 -0.01173819
 -0.01151259 -0.01132675 -0.01117917 -0.01106873 -0.01099384 -0.01095136 -0.01094202 -0.01096481 -0.01102245 -0.01111665
 -0.0112483 -0.01141947 -0.01162508 -0.01186505 -0.01213032 -0.01241921 -0.01272511 -0.01304691 -0.01338205 -0.01373039
 -0.01408785 -0.01445404 -0.01482047 -0.01518672 -0.01554551 -0.01589711 -0.01623926 -0.0165717 -0.01689325 -0.01720189
 -0.01749334 -0.01776541 -0.01801261 -0.01823617 -0.01843411 -0.01861179 -0.0187714 -0.01891933 -0.01905931 -0.01919365
 -0.01932482 -0.01944824 -0.01956381 -0.01966499 -0.01975059 -0.01981953 -0.01987147 -0.01991138 -0.01993946 -0.01995932
 -0.01997059 -0.0199713 -0.01996132 -0.01993832 -0.0199039 -0.0198612 -0.01981263 -0.01976464 -0.01971831 -0.01967803
 -0.01964335 -0.01961529 -0.01959341 -0.01957761 -0.01956794 -0.01956436 -0.01956712 -0.01957626 -0.01959217 -0.01961493
 -0.01964489 -0.01968222 -0.019726 -0.01977629 -0.01982961 -0.01988571 -0.01993938 -0.01999035 -0.02003418 -0.02007083
 -0.02009785 -0.02011515 -0.0201212 -0.02011564 -0.0200967 -0.02006488 -0.02001972 -0.01996307 -0.01989623 -0.0198218
 -0.01974158 -0.01965846 -0.0195736 -0.01949121 -0.01941236 -0.01934209 -0.01928162 -0.01923425 -0.01920081 -0.01918099
 -0.01917488 -0.01918052 -0.01919779 -0.01922484 -0.01926152 -0.01930586 -0.01935742 -0.01941325 -0.01947256 -0.01953154
 -0.01958933 -0.01964233 -0.01969017 -0.01973061 -0.01976427 -0.01979082 -0.0198112 -0.01982616 -0.01983573 -0.0198401
 -0.01983927 -0.01983296 -0.01982276 -0.01980867 -0.01979359 -0.01977794 -0.01976348 -0.01975046 -0.0197384 -0.01972726
 -0.01971576 -0.0197038 -0.01969022 -0.01967477 -0.01965554 -0.01963224 -0.0196027 -0.01956725 -0.01952534 -0.01947781
 -0.01942584 -0.01936941 -0.01930933 -0.01924408 -0.01917268 -0.01909453 -0.01900826 -0.01891703 -0.018821 -0.01872548
 -0.01863176 -0.01854288 -0.01845978 -0.01838106 -0.01830678 -0.01823371 -0.01816171 -0.01809017 -0.01801928 -0.01795105
 -0.01788561 -0.01782473 -0.01776801 -0.01771512 -0.01766553 -0.01761783 -0.01757191 -0.01752711 -0.01748317 -0.01743972
 -0.01739608 -0.01735141 -0.0173061 -0.01725943 -0.01721465 -0.01717222 -0.01713673 -0.0171094 -0.0170927 -0.01708743
 -0.01709262 -0.01710836 -0.01713185 -0.01716292 -0.01719877 -0.01723926 -0.01728198 -0.0173268 -0.01737164 -0.0174166
 -0.01746066 -0.01750444 -0.01754871 -0.01759415 -0.01764252 -0.01769306 -0.01774629 -0.01779922 -0.01784994 -0.01789571
 -0.01793403 -0.01796591 -0.01799066 -0.01801189 -0.0180305 -0.0180479 -0.01806475 -0.01807863 -0.01808939 -0.01809469
 -0.0180944 -0.01808942 -0.01807985 -0.01806728 -0.01805143 -0.01803166 -0.0180075 -0.01797677 -0.01793987 -0.01789638
 -0.01784768 -0.01779588 -0.01774186 -0.01768792 -0.0176327 -0.01757668 -0.01751598 -0.01744907 -0.0173719 -0.01728248
 -0.01717944 -0.01706175 -0.01693098 -0.01678716 -0.01663226 -0.0164665 -0.01629056 -0.01610447 -0.01590922 -0.01570509
 -0.01549566 -0.01528161 -0.01506849 -0.01485696 -0.01465228 -0.01445465 -0.01426717 -0.01408967 -0.01392353 -0.01376759
 -0.01362154 -0.01348289 -0.01334977 -0.01322013 -0.01309212 -0.01296576 -0.01284037 -0.0127176 -0.01259778 -0.01248182
 -0.01237015 -0.01226147 -0.01215588 -0.01204961 -0.01194248 -0.01182953 -0.01171071 -0.01158409 -0.01145026 -0.01131195
 -0.01116959 -0.01102693 -0.01088233 -0.01073424 -0.01057979 -0.0104132 -0.01023351 -0.01003655 -0.00982489 -0.009598411
 -0.00936214 -0.009118133 -0.008872182 -0.008626132 -0.008386837 -0.008155794 -0.007940229 -0.007741319 -0.007565181 -0.007412583
 -0.007286894 -0.007188368 -0.007116356 -0.007070536 -0.007046266 -0.007042839 -0.007053696 -0.007078106 -0.007110021 -0.007148854
 -0.0071902 -0.00723377 -0.007277192 -0.007320269 -0.00736267 -0.007401849 -0.007437069 -0.007461683 -0.007472149 -0.007462737
 -0.007429003 -0.007374443 -0.007297714 -0.007210243 -0.007113699 -0.007016552 -0.006920265 -0.006824289 -0.006728703 -0.006629384
 -0.006526311 -0.006418735 -0.006306901 -0.006192247 -0.006074543 -0.005953474 -0.005829052 -0.005700097 -0.005569328 -0.005439625
 -0.005316734 -0.005208277 -0.005119397 -0.005057571 -0.005023082 -0.005019144 -0.005040942 -0.005088032 -0.005153527 -0.005235939
 -0.005328598 -0.005430239 -0.00553607 -0.005645427 -0.005755879 -0.005867256 -0.005976991 -0.006084849 -0.006186598 -0.006282108
 -0.006368192 -0.006445368 -0.006514182 -0.00657473 -0.006627906 -0.00667265 -0.006707081 -0.006731486 -0.006744174 -0.00674961
 -0.006750071 -0.006752032 -0.006760353 -0.00677723 -0.00680537 -0.0068421 -0.006887415 -0.006937771 -0.006992301 -0.007050348
 -0.007111496 -0.007178485 -0.007251398 -0.007335834 -0.007432062 -0.007545295 -0.007675095 -0.007821377 -0.007982567 -0.00815242
 -0.008329472 -0.008506319 -0.008683364 -0.008857737 -0.009030854 -0.009203948 -0.009376353 -0.009548921 -0.009717616 -0.009880424
 -0.01003393 -0.01017541 -0.01030669 -0.01042692 -0.0105424 -0.01065405 -0.01076704 -0.01088224 -0.01100083 -0.01112298
 -0.01124746 -0.01137415 -0.01150085 -0.01162724 -0.01175005 -0.0118688 -0.01197963 -0.0120824 -0.01217452 -0.01225657
 -0.01232814 -0.01239063 -0.01244525 -0.01249416 -0.0125394 -0.01258325 -0.0126279 -0.01267365 -0.01272168 -0.01276948
 -0.01281702 -0.01286 -0.01289748 -0.01292755 -0.01294953 -0.01296617 -0.01297749 -0.01298996 -0.01300387 -0.01302433
 -0.01305102 -0.01308423 -0.01312283 -0.01316231 -0.01320135 -0.01323383 -0.01325949 -0.01327455 -0.01328047 -0.01327727
 -0.01326743 -0.01325311 -0.01323631 -0.01321876 -0.01320195 -0.01318669 -0.0131748 -0.013167 -0.01316439 -0.01316763
 -0.0131751 -0.01318692 -0.01319927 -0.01321193 -0.01322134 -0.01322736 -0.01322758 -0.01322208 -0.01321002 -0.01319196
 -0.01316962 -0.0131439 -0.01311838 -0.0130931 -0.01307011 -0.0130483 -0.01302686 -0.01300534 -0.01298284 -0.01295988
 -0.01293683 -0.01291311 -0.01288895 -0.01286215 -0.01283204 -0.01279735 -0.01275763 -0.01271295 -0.01266344 -0.01260757
 -0.01254527 -0.01247435 -0.01239489 -0.01231032 -0.01222171 -0.01213973 -0.01206509 -0.01200759 -0.01196532 -0.01193855
 -0.0119237 -0.0119137 -0.01190662 -0.01189631 -0.01188392 -0.0118684 -0.01185113 -0.01183312 -0.01181388 -0.01179348
 -0.01177115 -0.01174657 -0.01171967 -0.01169071 -0.01165764 -0.01162059 -0.01157436 -0.01151855 -0.0114502 -0.01136934
 -0.0112801 -0.01118329 -0.01108779 -0.01099419 -0.0109102 -0.01083545 -0.01077333 -0.01072203 -0.01068037 -0.01064447
 -0.01060897 -0.01056956 -0.01051985 -0.01045834 -0.01038105 -0.01029169 -0.01018975 -0.0100834 -0.009974186 -0.009872078
 -0.009779523 -0.009702172 -0.009641966 -0.009593402 -0.009556589 -0.009517824 -0.009476516 -0.009423859 -0.009360551 -0.009289615
 -0.009212078 -0.009134825 -0.00905739 -0.008981815 -0.008907408 -0.008833153 -0.008760087 -0.008689492 -0.008621613 -0.008558286
 -0.00849585 -0.008433036 -0.008364662 -0.008287332 -0.008200513 -0.008102048 -0.007998658 -0.007890644 -0.007787951 -0.007691972
 -0.007609246 -0.007540588 -0.007486302 -0.007446363 -0.007417712 -0.007400171 -0.007391151 -0.007390233 -0.007394592 -0.007402681
 -0.007408393 -0.007410087 -0.007400838 -0.007381284 -0.007348667 -0.00730624 -0.007256319 -0.007201386 -0.007144199 -0.007084925
 -0.007024006 -0.006962394 -0.006899887 -0.006840084 -0.006784008 -0.006732558 -0.006686653 -0.00664037 -0.006593375 -0.00653918
 -0.006477575 -0.006410873 -0.0063398 -0.006273275 -0.006210997 -0.0061569 -0.006108364 -0.006059075 -0.006006823 -0.005942684
 -0.005868639 -0.005782288 -0.005690389 -0.005598669 -0.005513426 -0.005442549 -0.00538375 -0.005339851 -0.005300054 -0.005261117
 -0.005216266 -0.005161792 -0.005104232 -0.005043504 -0.004990196 -0.004945616 -0.004909642 -0.004882215 -0.004854672 -0.004826755
 -0.004792712 -0.004752959 -0.00470714 -0.00465494 -0.00459539 -0.004527343 -0.004447506 -0.004355825 -0.004249847 -0.004132605
 -0.004004811 -0.003873995 -0.003744436 -0.003626257 -0.003526161 -0.00344808 -0.003396939 -0.003363715 -0.003348474 -0.003336058
 -0.003323783 -0.003305334 -0.003279381 -0.003251834 -0.003222967 -0.003199949 -0.00318247 -0.003169312 -0.00315934 -0.003145499
 -0.003127454 -0.003100056 -0.003064334 -0.003019675 -0.002968166 -0.002912258 -0.00285501 -0.002800875 -0.002751095 -0.002709837
 -0.00267096 -0.002634188 -0.002587524 -0.002525559 -0.002445538 -0.002342896 -0.002234806 -0.002122069 -0.002028004 -0.001955471
 -0.001910067 -0.001892141 -0.001887479 -0.001895169 -0.00189991 -0.001901993 -0.001895668 -0.001881113 -0.001856133 -0.001820078
 -0.001769566 -0.001706094 -0.001629374 -0.001544232 -0.0014558 -0.001367904 -0.00128612 -0.001208848 -0.001137594 -0.001066863
 -0.0009947162 -0.0009185576 -0.00083664 -0.0007522994 -0.0006655717 -0.0005813353 -0.0005002773 -0.0004224742 -0.0003479623 -0.0002713181
 -0.0001921752 -0.0001043517 -7.855273E-06 0.0001006985 0.0002205073 0.000351148 0.0004905316 0.0006342868 0.0007789975 0.0009176767
 0.001046715 0.001159141 0.001253675 0.0013263 0.00137966 0.001413284 0.001432799 0.001440059 0.00143932 0.001431979
 0.001420166 0.001403984 0.001387752 0.001371484 0.001364267 0.001366615 0.001386817 0.001424692 0.001479863 0.00155073
 0.001627545 0.001708571 0.001781919 0.00184784 0.001900134 0.001942019 0.001975436 0.002004941 0.002036035 0.002073382
 0.002121375 0.002186384 0.002272605 0.002385658 0.002532488 0.002698862 0.002889097 0.003053566 0.003184281 0.003248552
 0.003238624 0.003186202 0.003092588 0.003001959 0.002915102 0.002849944 0.002804856 0.002778877 0.002770156 0.002771812
 0.0027822 0.002793744 0.002805965 0.002813614 0.002819787 0.002825555 0.002835321 0.002854437 0.00288098 0.00291669
 0.002954104 0.002989946 0.00302249 0.003049461 0.003077446 0.003107271 0.003143784 0.003188042 0.00323687 0.003290174
 0.003342328 0.003393127 0.003439153 0.003479959 0.003511599 0.003532381 0.003534108 0.003514493 0.003462495 0.003379701
 0.003260062 0.003116349 0.00295823 0.002806146 0.002682303 0.002593187 0.002553555 0.002545336 0.002565756 0.002595594
 0.002627222 0.002659811 0.002691429 0.002728901 0.002773392 0.002822167 0.002875267 0.002921425 0.00296023 0.002983535
 0.002992313 0.00298846 0.00297477 0.002963261 0.002956002 0.002965854 0.002989863 0.00302967 0.003079256 0.003130207
 0.003183179 0.003233949 0.00329065 0.003358458 0.00343758 0.003532812 0.003627648 0.003719138 0.003791439 0.003839307
 0.00386741 0.003874761 0.003877754 0.003877463 0.003881932 0.003891282 0.00390627 0.003927414 0.003959646 0.004002553
 0.004059089 0.004124237 0.004186372 0.004240899 0.004271127 0.004283128 0.004275214 0.004261629 0.004255373 0.004262693
 0.004293595 0.004340461 0.004402925 0.004472139 0.00454475 0.004619566 0.004696061 0.004773134 0.004851243 0.004922259
 0.004985737 0.005032495 0.00506252 0.005076452 0.005075945 0.005073324 0.005070616 0.005083583 0.005111533 0.005162074
 0.005230161 0.00531103 0.005397591 0.005478507 0.005549931 0.005603116 0.005641387 0.005662995 0.005676363 0.005685387
 0.005692854 0.005702794 0.005703183 0.005693715 0.005655465 0.005585268 0.00547961 0.00533737 0.005180192 0.00500941
 0.004852359 0.004708326 0.004584781 0.00447833 0.004377373 0.004281424 0.00418179 0.004083012 0.003990189 0.003905876
 0.003837952 0.003780223 0.003731062 0.003680895 0.003621893 0.003552835 0.003469266 0.003380644 0.003288083 0.003202864
 0.003127513 0.003068096 0.003025982 0.00300099 0.002993331 0.002998189 0.003015493</values></Ydata></AB><ScSm><Ydata ylabel="Single channel"><values byteorder="INTEL" format="FLOAT32" numvalues="1814"> 0.08625087 0.08636434 0.08649221 0.08663915 0.08679797 0.08695504 0.08709747 0.087221 0.08733039 0.08742972
 0.0875203 0.08761355 0.08773185 0.08788645 0.08806086 0.08822251 0.08834902 0.08844711 0.08854981 0.08868459
 0.08883543 0.08894541 0.08896866 0.08892036 0.08886865 0.08887378 0.08894768 0.08908957 0.08932757 0.08965501
 0.08993828 0.09000189 0.089847 0.0896867 0.08970916 0.08989005 0.09007791 0.09016456 0.09012617 0.09001065
 0.0899654 0.09019285 0.09076574 0.0914735 0.09188548 0.09160031 0.09051456 0.08896927 0.08766888 0.08731319
 0.08809242 0.08947467 0.09060268 0.0909853 0.09076504 0.09035278 0.09000011 0.08979261 0.08983654 0.09023716
 0.09092384 0.09158593 0.09179462 0.09128106 0.09024157 0.08930592 0.08902572 0.08944479 0.09028956 0.09129903
 0.09198223 0.09137482 0.08889426 0.08563408 0.08401976 0.08556734 0.08929677 0.09275147 0.09423421 0.09370045
 0.09204489 0.09031421 0.08943368 0.08988835 0.09140427 0.09322216 0.09470236 0.09549543 0.09538132 0.09437209
 0.09291837 0.09171614 0.09132231 0.09200016 0.09361123 0.09544455 0.09649977 0.0962794 0.0951622 0.09390826
 0.0930991 0.09311071 0.09413825 0.09596136 0.09796847 0.09961207 0.100694 0.101238 0.101349 0.1011925
 0.1009177 0.1006399 0.1005532 0.1008272 0.1012762 0.1014032 0.1009534 0.1002589 0.09990117 0.1001124
 0.1005776 0.1008147 0.1006516 0.1001329 0.09902929 0.09695379 0.09415815 0.09164893 0.09020196 0.08981863
 0.09037228 0.09194398 0.09405015 0.09540154 0.09520312 0.09422641 0.09397414 0.09505767 0.09681727 0.09829144
 0.09915286 0.09976308 0.100608 0.1017447 0.1026566 0.1026293 0.1014748 0.09998293 0.09939435 0.1002014
 0.1016758 0.1027738 0.1032369 0.1035567 0.1041078 0.1046048 0.1043488 0.1029719 0.1010705 0.1000022
 0.1007647 0.1030044 0.1051997 0.105814 0.1043889 0.1017881 0.09947258 0.09845312 0.09889971 0.1005556
 0.1030937 0.1059622 0.1083069 0.1094061 0.109169 0.1081077 0.1067816 0.1052769 0.1034136 0.1015625
 0.1008571 0.102129 0.1048378 0.1075026 0.1090697 0.1094938 0.1091343 0.1080394 0.1060431 0.1035032
 0.101632 0.1015993 0.1032032 0.1049225 0.1055375 0.1052709 0.105088 0.1053707 0.1057084 0.1057157
 0.1055957 0.1058468 0.1066312 0.1075776 0.1081835 0.1082832 0.1080865 0.1078812 0.1077586 0.1075605
 0.1071188 0.1066257 0.1066222 0.1074282 0.1087137 0.109829 0.1104448 0.1106845 0.1107337 0.1105242
 0.1098545 0.1087918 0.107864 0.1076853 0.1083579 0.1093965 0.1102438 0.110685 0.1107876 0.1106881
 0.1105019 0.1102959 0.1101038 0.1100044 0.1101082 0.1104077 0.1107361 0.1109319 0.110971 0.1109057
 0.1107585 0.1105253 0.1102422 0.1100071 0.1099188 0.1099969 0.1101774 0.1103775 0.110533 0.1105879
 0.1105115 0.1103392 0.11015 0.109996 0.1098847 0.1098217 0.109827 0.1098988 0.1099916 0.1100486
 0.1100474 0.1100034 0.1099354 0.1098476 0.1097442 0.1096458 0.1095835 0.1095775 0.1096163 0.1096629
 0.1096975 0.1097429 0.1098188 0.1098872 0.1098846 0.1098042 0.1097071 0.1096555 0.1096626 0.1097034
 0.1097437 0.1097529 0.1097056 0.1095982 0.1094726 0.1094055 0.1094503 0.1095968 0.1097989 0.1100162
 0.1102136 0.1103566 0.1104375 0.1104847 0.1105273 0.1105672 0.1105957 0.1106222 0.1106777 0.1107917
 0.1109615 0.111147 0.1113033 0.1114128 0.1114838 0.111542 0.1116255 0.1117535 0.1118892 0.1119705
 0.1119886 0.1120059 0.1120811 0.1122018 0.1123073 0.11236 0.1123806 0.1124171 0.1124924 0.1125884
 0.1126774 0.1127544 0.1128381 0.1129415 0.1130441 0.1130998 0.1130823 0.1130193 0.1129654 0.1129469
 0.1129521 0.1129705 0.1130122 0.1130814 0.1131521 0.1131864 0.1131733 0.1131396 0.1131175 0.1131083
 0.1130848 0.1130274 0.1129466 0.1128691 0.1128108 0.1127673 0.1127218 0.1126608 0.1125819 0.1124905
 0.1123896 0.1122785 0.1121584 0.1120388 0.1119407 0.1118864 0.1118727 0.1118531 0.1117647 0.1115862
 0.1113608 0.1111573 0.1110121 0.1109101 0.1108118 0.1106908 0.1105496 0.1104078 0.1102826 0.110178
 0.1100882 0.1100066 0.109936 0.1098924 0.1098898 0.1099145 0.109926 0.1098931 0.1098264 0.1097636
 0.1097309 0.1097265 0.109736 0.1097502 0.1097696 0.1098022 0.1098528 0.1099109 0.1099573 0.1099869
 0.1100166 0.1100685 0.1101553 0.1102796 0.1104286 0.1105704 0.1106743 0.1107433 0.1108135 0.1109158
 0.1110501 0.1112002 0.1113597 0.1115338 0.1117251 0.1119293 0.1121446 0.112377 0.1126344 0.1129141
 0.1132013 0.1134792 0.1137446 0.114013 0.1143051 0.1146291 0.1149756 0.1153269 0.1156705 0.1160067
 0.1163445 0.1166904 0.1170428 0.1173998 0.1177678 0.1181556 0.1185601 0.118967 0.1193661 0.1197591
 0.1201534 0.1205509 0.1209485 0.121347 0.1217577 0.1221934 0.1226477 0.1230893 0.1234876 0.1238432
 0.1241876 0.1245531 0.1249492 0.1253611 0.1257611 0.1261263 0.1264597 0.1267905 0.1271438 0.1275136
 0.1278777 0.128234 0.1286073 0.1290143 0.1294323 0.1298124 0.1301259 0.130393 0.1306604 0.1309528
 0.1312515 0.131526 0.1317734 0.1320161 0.1322694 0.1325287 0.1327909 0.1330687 0.1333709 0.1336817
 0.1339731 0.134234 0.1344752 0.1347083 0.1349302 0.1351271 0.1352891 0.135425 0.1355622 0.1357256
 0.1359139 0.1361071 0.1362966 0.1364957 0.1367177 0.1369595 0.1372157 0.1374936 0.1378008 0.1381256
 0.138448 0.1387697 0.1391131 0.1394816 0.1398394 0.1401477 0.1404101 0.14066 0.1409164 0.1411772
 0.1414486 0.1417532 0.142103 0.142481 0.1428553 0.1432046 0.1435318 0.1438605 0.1442093 0.1445649
 0.1448894 0.1451579 0.1453845 0.1456074 0.1458571 0.1461376 0.1464314 0.1467166 0.1469798 0.1472114
 0.1473927 0.1475008 0.147533 0.1475151 0.1474723 0.1473967 0.1472517 0.1470033 0.1466372 0.1461473
 0.1455232 0.1447617 0.1438925 0.1429894 0.1421567 0.1415017 0.1411091 0.1410245 0.1412495 0.1417415
 0.1424168 0.1431617 0.1438522 0.1443766 0.1446489 0.1446173 0.1442736 0.1436542 0.1428258 0.141863
 0.1408355 0.1398012 0.1388072 0.1379071 0.1371906 0.1367945 0.1368719 0.1375396 0.138831 0.1406666
 0.1428489 0.1451122 0.1472196 0.1490468 0.1505887 0.1519038 0.1530589 0.1541081 0.1550913 0.1560301
 0.1569259 0.1577697 0.1585563 0.1592875 0.1599631 0.1605723 0.1610958 0.1615129 0.1618117 0.1619982
 0.1620957 0.1621359 0.1621506 0.1621681 0.1622001 0.1622195 0.162159 0.1619441 0.1615353 0.160949
 0.1602655 0.1596396 0.1592988 0.1594899 0.1603714 0.161913 0.1638896 0.16599 0.1679552 0.1696436
 0.171014 0.1720892 0.1729324 0.1736203 0.1742142 0.1747507 0.1752501 0.175726 0.1761862 0.1766351
 0.1770763 0.1775126 0.1779461 0.1783771 0.1788012 0.1792111 0.1796067 0.1800002 0.1804074 0.1808336
 0.1812691 0.1816987 0.182117 0.1825326 0.1829529 0.1833706 0.1837706 0.1841511 0.1845265 0.1849106
 0.1853061 0.1857095 0.1861143 0.1865087 0.1868801 0.1872264 0.1875574 0.1878852 0.1882149 0.1885461
 0.188878 0.1892096 0.189538 0.1898606 0.1901798 0.1904997 0.1908191 0.1911299 0.1914275 0.1917176
 0.1920098 0.1923076 0.1926069 0.1929037 0.1931993 0.1934993 0.193808 0.1941235 0.1944382 0.1947445
 0.1950408 0.1953318 0.1956229 0.1959167 0.1962139 0.1965128 0.1968102 0.1971033 0.1973917 0.1976784
 0.197967 0.1982581 0.1985489 0.1988363 0.1991197 0.1994008 0.1996812 0.1999605 0.2002386 0.2005169
 0.2007974 0.2010789 0.2013564 0.2016256 0.2018872 0.2021461 0.2024084 0.202678 0.2029548 0.2032342
 0.2035112 0.2037852 0.2040593 0.2043349 0.2046096 0.2048798 0.2051443 0.2054065 0.2056719 0.2059428
 0.2062156 0.2064867 0.2067553 0.2070224 0.2072896 0.2075592 0.2078333 0.2081104 0.2083877 0.2086636
 0.2089359 0.2092021 0.2094624 0.2097201 0.2099779 0.2102368 0.2104982 0.2107629 0.2110295 0.2112969
 0.2115643 0.2118299 0.2120935 0.2123578 0.2126258 0.2128966 0.2131665 0.2134323 0.2136937 0.213955
 0.2142207 0.2144899 0.2147574 0.2150214 0.2152854 0.2155526 0.2158227 0.2160927 0.2163602 0.2166266
 0.2168969 0.2171715 0.2174429 0.2177055 0.2179631 0.2182219 0.2184843 0.2187495 0.219018 0.2192902
 0.2195652 0.2198403 0.2201119 0.2203802 0.2206507 0.2209268 0.221206 0.2214867 0.2217713 0.2220597
 0.2223479 0.2226325 0.2229115 0.2231817 0.2234429 0.2236995 0.2239539 0.2242048 0.2244524 0.2246989
 0.2249462 0.2251965 0.225453 0.2257152 0.2259799 0.2262463 0.2265146 0.2267831 0.2270518 0.227324
 0.2276015 0.2278837 0.228169 0.2284523 0.2287284 0.2290011 0.2292802 0.2295683 0.2298602 0.2301533
 0.2304458 0.2307338 0.2310183 0.2313057 0.2315964 0.2318844 0.232168 0.2324497 0.2327328 0.2330231
 0.2333235 0.2336266 0.2339236 0.2342168 0.234512 0.2348064 0.2350962 0.2353834 0.2356701 0.235958
 0.2362491 0.2365406 0.2368271 0.2371139 0.2374112 0.2377175 0.2380247 0.2383317 0.2386371 0.2389348
 0.2392259 0.2395162 0.2398028 0.2400818 0.2403592 0.2406393 0.2409169 0.2411909 0.2414633 0.2417236
 0.2419465 0.2420729 0.2419405 0.241205 0.2392968 0.2354362 0.2287937 0.2188298 0.2056324 0.1899969
 0.173194 0.1565678 0.1411797 0.1276815 0.1164147 0.10755 0.1011796 0.09740478 0.09641339 0.09858434
 0.1046251 0.1151547 0.1291519 0.1426075 0.1500253 0.1485955 0.1407506 0.1319556 0.1262496 0.1242638
 0.1246161 0.1259525 0.1277401 0.1301109 0.1333976 0.1376519 0.1425906 0.1480654 0.1543415 0.1616899
 0.1698544 0.1781441 0.1860174 0.1934378 0.2006618 0.207798 0.2146413 0.2208677 0.2262825 0.2308832
 0.2347921 0.2381767 0.2411838 0.243909 0.2464173 0.2487473 0.2508584 0.2526091 0.2538416 0.2545089
 0.2547283 0.2547235 0.2547029 0.2547742 0.2549559 0.255238 0.2556084 0.2560512 0.2565548 0.2571146
 0.2577179 0.25834 0.2589596 0.2595622 0.2601348 0.2606725 0.261182 0.2616691 0.2621322 0.2625709
 0.262987 0.2633802 0.2637542 0.2641177 0.2644751 0.2648284 0.2651822 0.2655374 0.2658822 0.2662022
 0.2664939 0.2667617 0.2670144 0.2672647 0.2675204 0.2677775 0.268028 0.2682695 0.2685043 0.2687366
 0.2689708 0.2692073 0.2694431 0.2696787 0.269917 0.2701543 0.2703844 0.2706096 0.270837 0.2710677
 0.2712987 0.2715285 0.2717562 0.27198 0.2721995 0.2724171 0.2726392 0.2728748 0.2731276 0.2733878
 0.273644 0.2738971 0.2741548 0.2744178 0.2746814 0.2749442 0.2752078 0.2754721 0.2757374 0.2760009
 0.2762535 0.2764857 0.2766975 0.2768993 0.2771058 0.2773261 0.2775574 0.2777883 0.2780116 0.2782308
 0.2784525 0.2786801 0.2789142 0.2791528 0.2793932 0.2796387 0.2798966 0.2801682 0.2804471 0.2807288
 0.2810116 0.281291 0.2815643 0.2818364 0.2821119 0.2823845 0.2826439 0.2828912 0.2831426 0.2834194
 0.2837283 0.2840512 0.2843604 0.2846464 0.284923 0.2852107 0.2855183 0.2858346 0.2861269 0.2863672
 0.2865711 0.2867997 0.2871056 0.2874849 0.2878903 0.288279 0.2886401 0.2889842 0.2893205 0.2896449
 0.2899438 0.2902087 0.2904533 0.2907189 0.2910488 0.2914435 0.2918552 0.2922356 0.292574 0.2928827
 0.293173 0.2934551 0.2937238 0.2939389 0.2940668 0.29416 0.2943498 0.2947212 0.2952173 0.2956984
 0.2960816 0.2963927 0.29669 0.2969906 0.2972792 0.2975254 0.2976544 0.2975861 0.2973854 0.2973105
 0.2976012 0.2982349 0.2989659 0.2995738 0.3000067 0.3003227 0.3005881 0.3008362 0.3010498 0.301163
 0.3011323 0.3010432 0.3010985 0.3014334 0.3019612 0.3024675 0.3028352 0.3031081 0.3033687 0.3036463
 0.303903 0.3040099 0.3038015 0.303304 0.3028885 0.3030273 0.3038347 0.3049347 0.3058376 0.3063747
 0.3066947 0.3069204 0.3069711 0.3067155 0.3061346 0.3053259 0.3045526 0.3042873 0.3049013 0.3061868
 0.3074446 0.3081853 0.3085482 0.3089464 0.3095298 0.3101239 0.3105166 0.3106484 0.3105757 0.310344
 0.3099666 0.3095697 0.3094764 0.3099765 0.3109874 0.3120774 0.3128721 0.3133495 0.3136628 0.3136997
 0.3129712 0.3111914 0.3090309 0.3079448 0.3088815 0.3112865 0.3137034 0.3152109 0.3159258 0.3163266
 0.3166288 0.3167231 0.316158 0.3142874 0.311155 0.3082665 0.3076748 0.3099535 0.3135516 0.3162954
 0.3170471 0.3159335 0.3137944 0.3117959 0.3110159 0.3118551 0.3138684 0.3162178 0.3181763 0.3193263
 0.319585 0.3191577 0.3184494 0.3179547 0.3179495 0.318073 0.3175507 0.3161999 0.3147845 0.3138384
 0.3126833 0.3105415 0.3082847 0.3078878 0.3099861 0.3129526 0.3147818 0.3151394 0.3149901 0.3146536
 0.3130167 0.3089995 0.3035634 0.2996722 0.2997494 0.303255 0.3072225 0.3091722 0.309064 0.308437
 0.3082477 0.3078656 0.306019 0.302598 0.2993419 0.2982782 0.2994471 0.3008346 0.3006009 0.2983705
 0.2942529 0.2883786 0.2824314 0.2799562 0.2832208 0.2903775 0.2970933 0.3002878 0.2990875 0.2935228
 0.2848337 0.276803 0.2740533 0.2777753 0.2843324 0.2887807 0.2887616 0.2845873 0.2772199 0.2678474
 0.2589238 0.2538686 0.254892 0.2612301 0.2692926 0.2742247 0.2723965 0.2643151 0.2553235 0.2515616
 0.2542018 0.2587007 0.2601477 0.2578751 0.2544142 0.2520321 0.2514791 0.2524548 0.2539593 0.2550741
 0.2556748 0.2551253 0.2509522 0.2416004 0.2305695 0.2245745 0.2266156 0.2335379 0.2411342 0.2483771
 0.2551183 0.2590496 0.2581708 0.2547931 0.2540815 0.2585289 0.2655523 0.2707501 0.2723398 0.2718784
 0.2713669 0.2708256 0.2693244 0.2676283 0.2682064 0.2721806 0.2775822 0.281492 0.2829722 0.2830711
 0.2828622 0.2825494 0.2819989 0.2811782 0.2801252 0.2789675 0.2779075 0.2769928 0.276081 0.2751103
 0.2740239 0.2721763 0.2683891 0.2624861 0.2566048 0.2537289 0.254564 0.2570884 0.2594531 0.2613259
 0.2614898 0.2568448 0.2464719 0.235273 0.2306001 0.2351514 0.2448237 0.2533103 0.2570865 0.2558458
 0.250356 0.2421041 0.2348048 0.2337722 0.2418252 0.256311 0.2714553 0.2832268 0.2908827 0.2947465
 0.2946557 0.2910949 0.2865102 0.2843666 0.2867761 0.2931114 0.3005055 0.3051901 0.3041176 0.2974495
 0.290264 0.2895017 0.2970606 0.3072618 0.3131163 0.3136703 0.3130262 0.3138467 0.3150542 0.3154008
 0.316027 0.3184961 0.3222041 0.3248725 0.3245951 0.320643 0.3134638 0.3052515 0.2996126 0.2987352
 0.3010105 0.3029158 0.302645 0.3001541 0.2949571 0.2871265 0.2800998 0.2788286 0.2841628 0.2915848
 0.2963639 0.2979591 0.2985704 0.2991549 0.2982914 0.2945544 0.2890333 0.2848569 0.2841154 0.2858791
 0.2877121 0.2883067 0.2876933 0.2857226 0.2820661 0.2778165 0.2756132 0.2773114 0.282012 0.2869471
 0.2900223 0.2910881 0.2911343 0.2910202 0.2910191 0.290968 0.2906788 0.2905275 0.2914973 0.2941141
 0.2974957 0.3001376 0.301638 0.3030275 0.3053139 0.3082457 0.3106965 0.3119128 0.3121795 0.3124542
 0.3134971 0.3152452 0.3168793 0.3175521 0.3172202 0.316792 0.3173157 0.3189878 0.3210783 0.3227762
 0.323875 0.3246593 0.3254388 0.326288 0.3270129 0.3273153 0.327186 0.327143 0.3278376 0.3293654
 0.3311382 0.332471 0.3331363 0.333325 0.3332579 0.3329797 0.3324676 0.3318072 0.3312005 0.3308204
 0.3306932 0.3307237 0.3308016 0.3308668 0.3309122 0.330967 0.3310722 0.3312438 0.3314627 0.3317034
 0.3319502 0.3321769 0.332347 0.3324549 0.3325348 0.3326041 0.3326202 0.3325094 0.3322102 0.3316768
 0.3308653 0.3297394 0.3282773 0.3264515 0.3242321 0.3216916 0.3191717 0.3173122 0.3167854 0.3178725
 0.3202419 0.3231362 0.3258007 0.3278073 0.3290952 0.3298122 0.3301447 0.3302372 0.3301807 0.3300251
 0.3297961 0.3295131 0.329196 0.3288637 0.3285361 0.3282356 0.3279755 0.3277498 0.3275381 0.3273149
 0.327051 0.3267167 0.3262935 0.3257825 0.3251943 0.3245286 0.3237645 0.3228763 0.3218664 0.3207801
 0.3196841 0.3186283 0.3176229 0.3166433 0.3156512 0.3146028 0.3134314 0.3120506 0.3104343 0.3087124
 0.3071268 0.3058372 0.3047833 0.3037644 0.3026249 0.3013353 0.2999352 0.2984645 0.2969499 0.2954125
 0.2938613 0.2922831 0.2906461 0.2889177 0.2870827 0.2851477 0.2831274 0.2810365 0.2788944 0.2767179
 0.2744869 0.2721155 0.2694625 0.2663731 0.2627204 0.2584291 0.2534942 0.2479959 0.2421025 0.2360422
 0.2300496 0.2243226 0.2190123 0.2142392 0.2101083 0.2067109 0.2041148 0.2023562 0.2014426 0.2013657
 0.202111 0.2036494 0.2059168 0.2087997 0.2121379 0.215739 0.2193966 0.2229169 0.2261673 0.2291253
 0.2318669 0.2344811 0.2369863 0.2393312 0.2414588 0.2433484 0.2450038 0.2464274 0.2476184 0.2485897
 0.2493788 0.2500369 0.2506041 0.2510929 0.2514949 0.2518051 0.2520391 0.2522296 0.2524131 0.2526203
 0.2528729 0.2531822 0.2535563 0.2540085 0.2545553 0.2552052 0.2559534 0.2567844 0.2576745 0.2585977
 0.2595401 0.2605152 0.2615624 0.262731 0.2640607 0.2655699 0.2672486 0.2690566 0.270919 0.2727307
 0.2743755 0.2757582 0.2768275 0.2775784 0.2780369 0.2782373 0.2782104 0.2779849 0.2775903 0.2770554
 0.2764102 0.2756895 0.2749221 0.2741095 0.2732279 0.2722591 0.2712182 0.2701484 0.2690907 0.2680627
 0.267064 0.2660945 0.2651567 0.2642464 0.2633538 0.262475 0.261615 0.2607825 0.2599859 0.2592303
 0.2585106 0.2578072 0.2570837 0.2562846 0.2553508 0.2542486 0.2529759 0.2515396 0.2499439 0.2482011
 0.2463377 0.2443813 0.2423494 0.2402487 0.2380774 0.2358291 0.2334926 0.2310573 0.2285371 0.2259967
 0.2235329 0.2212184 0.2190737 0.2170855 0.2152316 0.2134925 0.211853 0.2102959 0.2087968 0.2073375
 0.2059181 0.2045487 0.2032405 0.2020136 0.2008923 0.1998848 0.1989838 0.1981846 0.1974865 0.1968838
 0.1963688 0.1959359 0.1955849 0.195334 0.1952134 0.195219 0.1952827 0.195311 0.1952516 0.1951196
 0.1949755 0.1948776 0.1948445 0.1948565 0.1948793 0.1948599 0.1947111 0.1943319 0.1936396 0.1925738
 0.191099 0.1892318 0.1870564 0.1847105 0.1823653 0.1801932 0.178321 0.1768088 0.175658 0.1748107
 0.1741621 0.1736268 0.1732038 0.1729641 0.1729835 0.1732632 0.1736737 0.1740084 0.1741608 0.1742427
 0.1744862 0.1750447 0.1758989 0.1769019 0.1778824 0.1787305 0.1794136 0.1799342 0.1803063 0.1805596
 0.1807176 0.1807735 0.1807129 0.1805382 0.180252 0.1798552 0.1793655 0.178798 0.17814 0.177379
 0.1765223 0.1755674 0.1744998 0.1733213 0.1720313 0.1706115 0.1691122 0.1677343 0.1667644 0.1664183
 0.166725 0.1675154 0.1685422 0.1696437 0.1707509 0.1717561 0.1725246 0.1731101 0.1738491 0.175135
 0.177079 0.1793926 0.181591 0.1833091 0.1844202 0.1849293 0.1848801 0.1843515 0.1833988 0.1820022
 0.180166 0.1780049 0.1756625 0.1732556 0.1709281 0.1688192 0.1669862 0.1654511 0.1642295 0.1633266
 0.1628103 0.1623948 0.1604467 0.154567 0.1449968 0.1368017 0.1360331 0.1431994 0.1525444 0.1582209
 0.1592481 0.1580982 0.1568238 0.1558757 0.1551839 0.1548208 0.1548367 0.1551192 0.1554397 0.1555573
 0.1553668 0.1548817 0.1539741 0.1521416 0.148512 0.1421652 0.13282 0.1214558 0.1100852 0.1006797
 0.09420899 0.09046613 0.0884954 0.08724043 0.086147 0.08536818 0.0854117 0.08661677 0.08896311 0.09223116
 0.0961618 0.1004223 0.10455 0.1080996 0.1108774 0.1129563 0.1144636 0.1154506 0.115949 0.1160238
 0.115745 0.1151762 0.1143834 0.1134001 0.1122063 0.1107917 0.1092438 0.1077653 0.1065875 0.1058286
 0.1054235 0.1052159 0.1050987 0.1050441 0.1050504 0.1051164 0.1052424 0.1054217 0.1056501 0.105935
 0.1062656 0.106591 0.1068567 0.1070427 0.1071495 0.1071703 0.1070834 0.1068699 0.1065591 0.1062318
 0.1059061 0.1054322 0.1046078 0.1034351 0.1022109 0.101342 0.101078 0.1013691 0.1019239 0.1024181
 0.1026954 0.1027998 0.102837 0.1028186</values></Ydata></ScSm><ScRf><Ydata ylabel="Single channel"><values byteorder="INTEL" format="FLOAT32" numvalues="1820"> 0.06969893 0.06983181 0.06995015 0.07005274 0.07014344 0.07023305 0.07033563 0.07045823 0.07059537 0.0707325
 0.07085649 0.07096499 0.07106395 0.07115575 0.07123901 0.07132249 0.07142556 0.07155734 0.07170272 0.07183462
 0.07193585 0.07201315 0.07209462 0.07220404 0.07232884 0.07242116 0.07244182 0.072403 0.07236128 0.07236668
 0.07242996 0.07255149 0.07275347 0.07302788 0.0732646 0.07332267 0.07320546 0.07308565 0.07311266 0.0732637
 0.0734153 0.07348085 0.07344303 0.07334404 0.07330799 0.0735018 0.07398221 0.07457241 0.07491755 0.07468904
 0.07380202 0.07253539 0.0714681 0.07117786 0.07182304 0.07296543 0.07389734 0.07421307 0.07403062 0.07369132
 0.073405 0.07324076 0.07328121 0.0736108 0.07417497 0.07472321 0.07490408 0.07449432 0.0736528 0.07289514
 0.07267296 0.07302175 0.07371782 0.07454851 0.0751121 0.07461707 0.07258381 0.06990787 0.06858 0.06984745
 0.07290915 0.07574965 0.07697406 0.07654337 0.07519053 0.07377462 0.0730558 0.07343285 0.07468133 0.0761786
 0.07740038 0.07805936 0.07797224 0.07714669 0.07595452 0.07497191 0.07465751 0.07522392 0.07655481 0.07806852
 0.07894504 0.07877162 0.07785475 0.07682099 0.07615459 0.07616743 0.07701817 0.07852463 0.08018528 0.08154967
 0.08245151 0.08290718 0.08300389 0.08288217 0.08266751 0.08245236 0.08239087 0.08261983 0.08298932 0.08309524
 0.08273061 0.0821681 0.08188435 0.08206815 0.08245825 0.08265699 0.08252428 0.08210053 0.0811994 0.0795
 0.07720447 0.0751403 0.07395165 0.07364693 0.07412404 0.07544462 0.07720141 0.07832572 0.07816195 0.07735091
 0.07713767 0.07803138 0.07949065 0.08072241 0.08145341 0.08197648 0.08268789 0.08363408 0.08439234 0.08437701
 0.08343355 0.08221183 0.08173476 0.08241017 0.08363827 0.08455716 0.08495413 0.08523709 0.08571547 0.08614888
 0.08595465 0.0848292 0.08327012 0.08240218 0.08304962 0.08491996 0.08675601 0.08728631 0.08612908 0.08399765
 0.08210099 0.08127566 0.08166356 0.08305672 0.0851892 0.08760478 0.08959191 0.09054767 0.09039206 0.08954675
 0.08847637 0.08725671 0.08574067 0.0842344 0.08367731 0.08476458 0.08705419 0.08931681 0.09067017 0.09107131
 0.09081765 0.0899474 0.08831861 0.08623236 0.08471064 0.0847376 0.08614077 0.08763864 0.08820564 0.08802947
 0.08792252 0.08820616 0.08853529 0.08858769 0.08853808 0.08880809 0.08953081 0.09038803 0.09095387 0.09109071
 0.09097832 0.09086072 0.09081442 0.09070383 0.09038709 0.09003108 0.0900958 0.09084815 0.0920009 0.09300083
 0.0935732 0.09382915 0.09392857 0.09381096 0.09330196 0.09245902 0.09173382 0.09164983 0.09229332 0.09324972
 0.09404375 0.09449145 0.09464903 0.09463222 0.09454082 0.09443405 0.09434147 0.09432822 0.09448567 0.09480743
 0.09515309 0.09538627 0.09548536 0.09549265 0.09542587 0.09528271 0.09509911 0.09496345 0.09495895 0.09509575
 0.09531417 0.09554604 0.09574267 0.0958571 0.09585795 0.09577188 0.09566971 0.09560151 0.09557484 0.09559131
 0.09566423 0.09578954 0.09592724 0.09603 0.09608214 0.09609842 0.096094 0.09607207 0.09603895 0.09601506
 0.09602596 0.09608489 0.0961787 0.09627587 0.09636259 0.09646136 0.09658877 0.09670837 0.09676147 0.09673989
 0.09669669 0.0966887 0.09673236 0.09680988 0.09689228 0.09695017 0.09695806 0.09691062 0.09684468 0.09682901
 0.09691246 0.09708837 0.09731723 0.0975607 0.09778224 0.09794807 0.09805429 0.09813248 0.09821172 0.09829102
 0.09835748 0.09841689 0.09849895 0.0986343 0.09882227 0.09902384 0.09919448 0.09931818 0.09940766 0.09949097
 0.09960242 0.09975564 0.09991433 0.1000212 0.1000694 0.1001163 0.100212 0.1003396 0.1004425 0.1004935
 0.1005208 0.1005708 0.1006604 0.1007694 0.1008713 0.1009624 0.1010611 0.1011805 0.1013015 0.101379
 0.1013856 0.1013463 0.1013145 0.1013173 0.1013435 0.1013794 0.1014315 0.1015057 0.1015832 0.1016328
 0.1016439 0.1016379 0.1016423 0.1016571 0.1016562 0.1016205 0.1015605 0.1015039 0.1014703 0.1014598
 0.1014569 0.1014418 0.1014017 0.1013378 0.1012618 0.1011848 0.1011102 0.1010395 0.1009875 0.1009786
 0.1010138 0.1010427 0.1009942 0.1008431 0.1006375 0.100453 0.100328 0.1002441 0.1001565 0.1000346
 0.0998811 0.09972237 0.09958203 0.09946318 0.09935214 0.09923691 0.09912302 0.0990328 0.09898347 0.09896012
 0.09891833 0.0988248 0.09869146 0.09856047 0.09846216 0.09839766 0.09835333 0.09831662 0.09828316 0.09825954
 0.09825498 0.09826355 0.09826492 0.09824883 0.09822924 0.09823045 0.09826951 0.09835005 0.09845635 0.09855323
 0.09861103 0.09863717 0.09866975 0.09873766 0.09883828 0.09895395 0.09907539 0.09920343 0.09933937 0.09948349
 0.09964 0.09981683 0.1000191 0.1002425 0.1004728 0.1006939 0.1009011 0.1011082 0.1013375 0.1016003
 0.1018873 0.1021788 0.1024619 0.102737 0.1030097 0.1032821 0.103553 0.1038271 0.104116 0.1044265
 0.1047509 0.1050751 0.1053934 0.1057105 0.1060323 0.1063584 0.1066844 0.1070098 0.1073445 0.1077018
 0.1080789 0.108447 0.108774 0.1090577 0.1093294 0.1096241 0.1099531 0.1102996 0.1106315 0.1109254
 0.1111887 0.1114551 0.1117488 0.1120607 0.1123679 0.1126722 0.1130016 0.1133718 0.1137559 0.1141011
 0.114375 0.1145951 0.1148075 0.1150406 0.1152824 0.1155078 0.1157157 0.1159292 0.1161629 0.1164085
 0.1166563 0.1169135 0.1171875 0.117463 0.1177138 0.1179325 0.118134 0.1183302 0.1185129 0.1186644
 0.1187772 0.1188663 0.1189624 0.119089 0.1192413 0.1193957 0.1195398 0.1196848 0.1198466 0.1200283
 0.1202279 0.1204496 0.1206952 0.1209506 0.1211981 0.1214435 0.1217119 0.1220076 0.122295 0.1225356
 0.1227336 0.1229243 0.123129 0.1233439 0.1235694 0.1238207 0.1241072 0.1244154 0.1247204 0.1250065
 0.1252789 0.1255584 0.1258592 0.1261664 0.1264428 0.1266655 0.1268507 0.1270393 0.1272628 0.1275257
 0.1278109 0.1280963 0.1283665 0.1286101 0.1288126 0.1289603 0.129057 0.1291269 0.1291883 0.1292267
 0.1292033 0.1290863 0.1288647 0.1285333 0.128081 0.1275031 0.1268253 0.1261132 0.1254585 0.1249514
 0.124658 0.1246129 0.1248195 0.1252466 0.1258264 0.1264654 0.1270667 0.1275441 0.1278234 0.1278519
 0.1276178 0.1271544 0.1265194 0.125769 0.1249516 0.1241094 0.1232814 0.1225148 0.1218875 0.1215145
 0.1215196 0.1219922 0.1229565 0.1243518 0.1260263 0.1277697 0.1293914 0.1307928 0.1319755 0.1329911
 0.1338911 0.1347129 0.1354845 0.1362216 0.136924 0.1375849 0.1382058 0.1387945 0.1393494 0.1398535
 0.1402844 0.1406256 0.1408728 0.1410365 0.1411374 0.1411946 0.1412207 0.1412264 0.1412174 0.1411777
 0.1410655 0.1408343 0.140462 0.1399662 0.1394123 0.1389201 0.1386574 0.1387981 0.1394509 0.1405928
 0.1420649 0.1436446 0.145139 0.1464314 0.1474773 0.148288 0.1489154 0.149427 0.1498766 0.1502933
 0.1506896 0.1510704 0.1514385 0.151797 0.1521489 0.1524951 0.1528362 0.1531738 0.1535081 0.1538371
 0.1541608 0.154485 0.1548185 0.155165 0.1555186 0.1558688 0.1562117 0.1565552 0.1569066 0.1572589
 0.1575963 0.1579131 0.15822 0.1585335 0.1588639 0.159211 0.1595642 0.159906 0.1602229 0.160515
 0.160794 0.1610716 0.1613525 0.1616358 0.1619198 0.162203 0.1624846 0.1627658 0.1630491 0.1633354
 0.16362 0.1638946 0.1641545 0.1644034 0.1646498 0.1648996 0.1651527 0.1654058 0.1656591 0.165917
 0.1661843 0.1664601 0.166737 0.167006 0.1672623 0.1675078 0.1677479 0.1679879 0.168231 0.1684784
 0.1687301 0.1689846 0.1692386 0.1694898 0.1697398 0.1699919 0.1702469 0.1705012 0.1707512 0.1709968
 0.1712412 0.1714871 0.1717349 0.171984 0.1722346 0.1724857 0.1727338 0.1729744 0.1732072 0.1734379
 0.1736732 0.1739154 0.1741614 0.1744052 0.174643 0.1748766 0.1751121 0.1753524 0.1755948 0.1758353
 0.1760744 0.1763162 0.176563 0.1768113 0.1770555 0.1772943 0.1775323 0.1777736 0.1780166 0.1782567
 0.1784913 0.178722 0.1789528 0.1791864 0.1794227 0.17966 0.1798971 0.1801335 0.1803696 0.1806075
 0.1808489 0.1810909 0.1813281 0.1815596 0.1817894 0.1820207 0.1822528 0.1824848 0.1827172 0.1829501
 0.1831833 0.1834162 0.1836486 0.1838827 0.1841199 0.1843578 0.1845929 0.184827 0.1850644 0.1853062
 0.1855494 0.1857916 0.1860319 0.18627 0.1865071 0.1867445 0.1869821 0.1872209 0.1874625 0.1877067
 0.1879522 0.1881996 0.1884497 0.1887005 0.1889499 0.1891983 0.1894465 0.1896949 0.189944 0.1901926
 0.1904391 0.1906864 0.190941 0.1912046 0.1914729 0.1917411 0.1920049 0.1922601 0.1925056 0.1927428
 0.1929696 0.1931831 0.1933891 0.1935986 0.1938178 0.1940468 0.1942819 0.1945163 0.1947451 0.1949718
 0.1952044 0.1954468 0.1956993 0.1959604 0.1962235 0.1964782 0.1967201 0.1969544 0.1971907 0.197438
 0.1976984 0.1979642 0.1982264 0.1984841 0.1987396 0.1989931 0.1992474 0.1995085 0.199777 0.2000495
 0.2003243 0.2005988 0.2008677 0.2011318 0.2013976 0.2016656 0.2019319 0.2021977 0.2024664 0.2027361
 0.2030051 0.203274 0.2035405 0.2038035 0.2040682 0.2043387 0.2046138 0.2048947 0.2051834 0.2054735
 0.2057571 0.2060352 0.2063103 0.2065819 0.2068539 0.2071306 0.2074043 0.207667 0.2079243 0.2081833
 0.2084428 0.2087041 0.20897 0.209229 0.2094526 0.2095843 0.2094848 0.2088614 0.2072248 0.2038989
 0.198163 0.1895477 0.1781271 0.1645861 0.1500224 0.1356039 0.1222593 0.1105614 0.1008054 0.09313256
 0.08761711 0.08434727 0.08348989 0.08537693 0.09062357 0.09976886 0.1119317 0.1236358 0.1301056 0.12889
 0.1220924 0.1144607 0.109512 0.1078012 0.1081281 0.1093139 0.1108924 0.1129736 0.115841 0.1195392
 0.1238299 0.1285956 0.1340748 0.1405053 0.147662 0.1549359 0.1618424 0.168338 0.1746461 0.180874
 0.1868553 0.1923098 0.1970625 0.2011067 0.2045476 0.2075299 0.210182 0.2125905 0.2148144 0.2168856
 0.2187656 0.2203284 0.2214343 0.2220413 0.2222556 0.2222783 0.2222932 0.2223908 0.2225841 0.2228652
 0.223226 0.2236533 0.2241339 0.2246594 0.2252171 0.2257892 0.2263633 0.2269301 0.2274762 0.2279915
 0.2284758 0.2289309 0.2293587 0.2297663 0.2301621 0.2305483 0.2309276 0.2313055 0.231681 0.2320462
 0.2323974 0.2327359 0.2330609 0.2333709 0.2336662 0.2339459 0.2342113 0.2344701 0.2347293 0.2349887
 0.235247 0.2355056 0.2357629 0.236016 0.2362659 0.2365133 0.2367541 0.2369877 0.2372219 0.2374625
 0.2377061 0.2379464 0.2381813 0.2384117 0.2386416 0.2388755 0.239114 0.2393538 0.2395927 0.2398313
 0.2400718 0.2403189 0.2405763 0.2408413 0.2411095 0.24138 0.2416531 0.2419266 0.2421996 0.2424745
 0.2427508 0.2430255 0.2432996 0.2435749 0.2438456 0.2441005 0.2443355 0.2445572 0.2447784 0.2450098
 0.2452531 0.245503 0.2457542 0.2460044 0.246251 0.2464921 0.2467296 0.2469686 0.247214 0.2474726
 0.2477507 0.248045 0.248343 0.2486356 0.2489224 0.2492068 0.2494923 0.2497821 0.2500743 0.2503603
 0.2506341 0.2509012 0.2511777 0.2514797 0.2518097 0.2521513 0.2524828 0.2527965 0.2531017 0.2534117
 0.2537343 0.2540643 0.2543776 0.2546472 0.2548804 0.2551277 0.255439 0.2558156 0.2562141 0.2565897
 0.2569281 0.2572434 0.2575541 0.2578639 0.25816 0.2584288 0.2586766 0.2589362 0.2592444 0.2596046
 0.259982 0.2603412 0.2606737 0.2609852 0.2612795 0.261563 0.2618344 0.2620616 0.2622133 0.2623311
 0.2625299 0.262891 0.2633719 0.2638494 0.2642429 0.2645673 0.2648721 0.2651772 0.265475 0.2657409
 0.2659054 0.265891 0.2657506 0.2657145 0.2660037 0.266608 0.2673116 0.2679114 0.2683527 0.2686865
 0.2689776 0.2692583 0.2695097 0.2696673 0.2696893 0.2696528 0.2697439 0.2700904 0.2706186 0.2711327
 0.2715213 0.2718214 0.2721086 0.2724083 0.2726845 0.2728248 0.272689 0.2723038 0.2719955 0.2721796
 0.272957 0.2739951 0.2748581 0.275395 0.2757398 0.2760022 0.2761061 0.275929 0.2754513 0.2747616
 0.2741007 0.2739019 0.2745078 0.2757332 0.2769388 0.2776712 0.2780541 0.2784696 0.2790619 0.2796709
 0.2800957 0.2802798 0.2802791 0.2801367 0.2798576 0.2795496 0.2795099 0.280014 0.2809966 0.2820638
 0.2828645 0.2833692 0.2837167 0.2838103 0.2832101 0.2816548 0.2797518 0.2788244 0.2797374 0.2819885
 0.2842535 0.2856945 0.2864185 0.2868629 0.2872245 0.2874021 0.286979 0.2853615 0.2825854 0.2800216
 0.279544 0.2816815 0.2850262 0.2875977 0.2883552 0.2874113 0.2855333 0.2837895 0.2831641 0.284018
 0.2859392 0.2881627 0.290031 0.2911683 0.2914975 0.2912002 0.2906426 0.290279 0.2903678 0.2905817
 0.2902091 0.289076 0.287878 0.2871034 0.2861327 0.2842562 0.2822804 0.2820237 0.2840689 0.2869156
 0.2887169 0.2891676 0.2891569 0.2889762 0.2875987 0.2840302 0.2791551 0.2756997 0.2758956 0.2792505
 0.2830376 0.2849762 0.2850312 0.284621 0.2846258 0.28446 0.2829443 0.2799772 0.2771757 0.276425
 0.2777607 0.2793056 0.2793439 0.2775197 0.2739251 0.2686718 0.2633248 0.2611932 0.2644066 0.2712598
 0.2777202 0.2809083 0.2799949 0.2749962 0.2670738 0.2597897 0.2575007 0.2613339 0.2678674 0.2724457
 0.2728462 0.2693567 0.2628746 0.2545252 0.2466565 0.2425455 0.244312 0.25122 0.2598043 0.2653587
 0.2643458 0.2572429 0.2492466 0.2463486 0.2496976 0.2548493 0.2569942 0.2554791 0.2527919 0.2511734
 0.2513844 0.2531361 0.2554172 0.2572899 0.2586111 0.2586945 0.2549769 0.2458521 0.2348941 0.2289695
 0.231162 0.2382767 0.246035 0.2533813 0.260142 0.2639429 0.2627313 0.2588536 0.2575692 0.2614319
 0.2678521 0.2724059 0.2733293 0.272233 0.271165 0.2701618 0.2682879 0.2662938 0.2666324 0.2704176
 0.2756841 0.2795177 0.2809724 0.2810772 0.280885 0.2805818 0.280022 0.2791705 0.2780712 0.2768575
 0.2757376 0.2747689 0.2738179 0.2728254 0.271735 0.2699087 0.2661771 0.2603594 0.2545693 0.2517639
 0.2526418 0.255194 0.2575801 0.2594636 0.259629 0.2549927 0.2446382 0.2334312 0.2286719 0.2330365
 0.2424444 0.2506269 0.2540819 0.2525113 0.2466944 0.2381199 0.2304539 0.2289183 0.2362793 0.2499353
 0.2642239 0.2751973 0.2821473 0.2854282 0.28492 0.2811136 0.2763794 0.2740433 0.2760921 0.2818588
 0.2885435 0.2925338 0.290962 0.2840471 0.2766803 0.2754967 0.282307 0.2917004 0.2970169 0.2973346
 0.2965388 0.2971528 0.2981579 0.2983804 0.2989122 0.3012441 0.3048099 0.3074536 0.3073678 0.3038573
 0.2973394 0.2898856 0.2849021 0.2844338 0.2869093 0.2889543 0.2888657 0.2866403 0.2818426 0.2745422
 0.2680024 0.2669327 0.2721365 0.2792979 0.2838984 0.2854246 0.2859918 0.2865373 0.2857226 0.2821919
 0.276987 0.2731072 0.2725714 0.2745114 0.2766076 0.2776052 0.2775117 0.2761415 0.2731292 0.2694965
 0.2677872 0.2698008 0.2746605 0.2796659 0.282775 0.2838458 0.2838422 0.2835943 0.2833643 0.2830057
 0.2823589 0.2818078 0.282312 0.2843855 0.2871888 0.2892857 0.2902998 0.2912321 0.2930652 0.2955711
 0.2976718 0.2986313 0.2987033 0.2987947 0.2996423 0.3012011 0.3026921 0.3032957 0.3029625 0.3025645
 0.3031069 0.3047671 0.3068285 0.3085021 0.3095869 0.3103551 0.3111024 0.3118991 0.3125587 0.312795
 0.3126023 0.3124845 0.3130775 0.3144839 0.3161491 0.3174242 0.3180973 0.3183501 0.3183857 0.3182348
 0.3178639 0.3173403 0.3168412 0.3165225 0.3164091 0.316415 0.3164397 0.3164317 0.3163933 0.3163641
 0.3163946 0.316507 0.3166829 0.3168949 0.3171269 0.3173537 0.317536 0.3176607 0.3177555 0.3178376
 0.3178701 0.3177859 0.3175315 0.3170691 0.316357 0.3153567 0.3140457 0.3124018 0.310399 0.3080977
 0.30581 0.30414 0.3037358 0.3048757 0.3072448 0.3101122 0.3127494 0.3147464 0.3160484 0.3167993
 0.31718 0.3173322 0.3173427 0.31725 0.3170652 0.3167988 0.3164718 0.3161095 0.3157389 0.3153881
 0.3150753 0.3147971 0.314531 0.3142474 0.3139199 0.3135311 0.3130748 0.3125513 0.3119614 0.3113003
 0.3105534 0.3097016 0.3087453 0.3077243 0.3067046 0.3057393 0.3048378 0.3039693 0.3030904 0.3021614
 0.3011307 0.2999282 0.2985341 0.2970696 0.2957622 0.2947634 0.2940125 0.2933068 0.2924811 0.291493
 0.2903722 0.2891542 0.2878687 0.2865458 0.2852026 0.2838278 0.2823874 0.280847 0.2791949 0.277446
 0.2756255 0.2737511 0.271835 0.2698863 0.2678914 0.2657823 0.26343 0.2606767 0.2573816 0.2534519
 0.248863 0.2436761 0.2380442 0.2321871 0.226341 0.2207133 0.2154683 0.210738 0.2066354 0.2032551
 0.200666 0.19891 0.1980091 0.1979683 0.1987702 0.2003683 0.2026858 0.2056114 0.2089942 0.2126468
 0.2163645 0.2199567 0.2232929 0.2263398 0.2291486 0.2317836 0.2342543 0.2365173 0.2385307 0.2402887
 0.2418061 0.2430915 0.2441498 0.245003 0.2456946 0.2462741 0.2467805 0.2472305 0.2476166 0.2479209
 0.2481387 0.2482924 0.248422 0.2485652 0.2487452 0.2489676 0.249229 0.249532 0.2498939 0.2503375
 0.2508743 0.2514948 0.252173 0.2528845 0.2536265 0.2544229 0.2553101 0.2563227 0.2574877 0.258819
 0.2603091 0.2619234 0.2635969 0.2652361 0.2667345 0.2679999 0.2689774 0.2696537 0.270045 0.2701822
 0.2701007 0.2698384 0.2694293 0.2688954 0.2682518 0.2675215 0.2667328 0.2658985 0.2650104 0.2640595
 0.2630579 0.2620382 0.2610323 0.2600514 0.2590902 0.2581452 0.2572224 0.2563257 0.2554532 0.2546063
 0.2537911 0.2530113 0.2522667 0.2515584 0.2508839 0.2502266 0.2495502 0.2488021 0.24793 0.2469044
 0.2457234 0.2443965 0.2429308 0.2413301 0.2395983 0.2377441 0.2357871 0.2337519 0.231651 0.22948
 0.2272252 0.2248762 0.2224483 0.2200048 0.2176436 0.2154443 0.2134312 0.2115834 0.2098635 0.2082388
 0.2066899 0.2052055 0.2037766 0.2024019 0.2010896 0.1998438 0.19866 0.1975392 0.1964946 0.195543
 0.1946983 0.1939697 0.1933515 0.1928276 0.1923871 0.1920257 0.1917406 0.1915481 0.191485 0.191559
 0.1917061 0.1918243 0.1918458 0.1917741 0.1916671 0.1915871 0.1915567 0.1915627 0.1915828 0.191577
 0.191463 0.1911345 0.1905028 0.1895057 0.1881058 0.1863136 0.1842098 0.1819385 0.1796772 0.1775922
 0.1757959 0.1743439 0.1732488 0.1724671 0.1718955 0.1714348 0.1710672 0.1708629 0.170913 0.1712309
 0.1716814 0.172046 0.1722188 0.1723216 0.1725923 0.1731838 0.1740796 0.1751401 0.1761987 0.1771406
 0.1779163 0.178506 0.1789122 0.179176 0.1793438 0.1794194 0.1793814 0.1792224 0.1789471 0.178567
 0.1781071 0.1775822 0.1769732 0.176258 0.1754381 0.1745203 0.1735106 0.1724173 0.1712161 0.169856
 0.1683786 0.1670031 0.1660361 0.165701 0.1660306 0.1668613 0.1679449 0.1691087 0.1702729 0.1713293
 0.1721521 0.1727993 0.1736033 0.1749502 0.1769513 0.1793268 0.1816015 0.1834152 0.184639 0.1852674
 0.1853278 0.184883 0.1839802 0.1826025 0.1807644 0.1785897 0.1762273 0.1738016 0.1714695 0.1693814
 0.1675926 0.1661105 0.1649337 0.1640601 0.1635641 0.1631714 0.1612535 0.1554102 0.1458861 0.1377518
 0.1370499 0.1442637 0.1536193 0.1592759 0.160276 0.1591096 0.1578324 0.1568865 0.1561948 0.1558347
 0.1558661 0.1561757 0.1565226 0.1566602 0.1564901 0.1560321 0.1551539 0.1533416 0.1497107 0.1433268
 0.1338969 0.1224014 0.1108764 0.1013332 0.09477462 0.09099785 0.0890245 0.08777437 0.08668694 0.0859202
 0.08598357 0.0872115 0.08957829 0.09286447 0.09681869 0.1011169 0.1052945 0.1088945 0.1117192 0.1138502
 0.1154179 0.1164578 0.116984 0.1170641 0.1167834 0.1162143 0.1154251 0.1144535 0.1132801 0.1118802
 0.1103266 0.108828 0.1076384 0.1068895 0.1065107 0.1063355 0.1062531 0.1062339 0.1062694 0.1063509
 0.1064796 0.1066603 0.1069029 0.1072207 0.1075957 0.1079617 0.1082532 0.1084505 0.1085628 0.1085872
 0.1084916 0.1082398 0.1078582 0.1074476 0.1070493 0.106518 0.1056393 0.1044092 0.1031332 0.1022281
 0.1019394 0.1022044 0.1027251 0.1031819 0.1034281 0.1035147 0.1035485 0.1035377 0.1033727 0.1029508
</values></Ydata></ScRf><Data_Parameters_AB><parameter name="DPF">1</parameter><parameter name="NPT">3497</parameter><parameter name="FXV">3996</parameter><parameter name="LXV">500</parameter><parameter name="CSF">1</parameter><parameter name="MXY">0.00874302908778191</parameter><parameter name="MNY">-0.0898019522428513</parameter><parameter name="DAT">13/02/2024</parameter><parameter name="TIM">13:10:23.776 (GMT+1)</parameter><parameter name="DXU">WN</parameter></Data_Parameters_AB><AB__Qtest><MainReport name="Quality Test Report"><Header><Line><Legend>Test result ok/not ok [1/0]: </Legend><Value>0</Value></Line><Line><Legend>Method file: </Legend><Value>C:\Users\Public\Documents\Bruker\OPUS_8.2.28\QT\IRBT_v3_default.QT</Value></Line></Header><Matrix><Line><Legend></Legend><Legend>min</Legend><Legend>max</Legend><Legend>measured</Legend></Line><Line><Value>Absorption (X-Range 1):</Value><Value>0.400000</Value><Value>2.000000</Value><Value>0.061155</Value></Line><Line><Value>Noise (X-Range 4):</Value><Value></Value><Value>0.000300</Value><Value>0.000041</Value></Line><Line><Value>Signal/Noise (X-Range 2):</Value><Value>200.000000</Value><Value></Value><Value>31.249090</Value></Line><Line><Value>Signal/Noise (X-Range 3):</Value><Value>40.000000</Value><Value></Value><Value>10.006531</Value></Line><Line><Value>Water vapour (X-Range 5):</Value><Value></Value><Value>0.000300</Value><Value>0.000008</Value></Line><Line><Value>Signal/Water (X-Range 2):</Value><Value>100.000000</Value><Value></Value><Value>154.272178</Value></Line><Line><Value>Signal/Water (X-Range 3):</Value><Value>20.000000</Value><Value></Value><Value>49.400775</Value></Line><Line><Value>Fringes (X-Range 6):</Value><Value></Value><Value>0.000100</Value><Value>0.000031</Value></Line></Matrix></MainReport></AB__Qtest><Data_Parameters_ScSm><parameter name="DPF">1</parameter><parameter name="NPT">1814</parameter><parameter name="FXV">3996.63438082617</parameter><parameter name="LXV">499.579297603271</parameter><parameter name="CSF">1</parameter><parameter name="MXY">0.333325028419495</parameter><parameter name="MNY">0.0840197578072548</parameter><parameter name="DAT">13/02/2024</parameter><parameter name="TIM">13:10:23.776 (GMT+1)</parameter><parameter name="DXU">WN</parameter></Data_Parameters_ScSm><Data_Parameters_ScRf><parameter name="DPF">1</parameter><parameter name="NPT">1820</parameter><parameter name="FXV">4004.34989121387</parameter><parameter name="LXV">495.721542409425</parameter><parameter name="CSF">1</parameter><parameter name="MXY">0.318385660648346</parameter><parameter name="MNY">0.0685800015926361</parameter><parameter name="DAT">13/02/2024</parameter><parameter name="TIM">13:09:57.921 (GMT+1)</parameter><parameter name="DXU">WN</parameter></Data_Parameters_ScRf><Optic_Parameters_Rf><parameter name="APR">0</parameter><parameter name="APT">Open</parameter><parameter name="BMS">KBr</parameter><parameter name="DTC">RT-DLaTGS_IR-Biotyper [Microplate reader]</parameter><parameter name="HPF">0</parameter><parameter name="LPF">10.0</parameter><parameter name="LPV">4000</parameter><parameter name="PGR">0</parameter><parameter name="RCH">Module port</parameter><parameter name="RDX">0</parameter><parameter name="SRC">MIR</parameter><parameter name="VEL">10.0</parameter><parameter name="SON">Off</parameter></Optic_Parameters_Rf><Acquisition_Parameters_Rf><parameter name="ADT">1</parameter><parameter name="AQM">DD</parameter><parameter name="CFE">0</parameter><parameter name="COR">0</parameter><parameter name="DEL">0</parameter><parameter name="DLY">0</parameter><parameter name="HFW">8000</parameter><parameter name="LFW">0</parameter><parameter name="NSR">32</parameter><parameter name="PLF">AB</parameter><parameter name="RES">6</parameter><parameter name="RGN">-1</parameter><parameter name="STR">0</parameter><parameter name="TCL">MakeCompatibleScalar (0, {WSV=1.000000, ARV=0});</parameter><parameter name="TDL">37</parameter><parameter name="RPO">0</parameter></Acquisition_Parameters_Rf><FT_-_Parameters_Rf><parameter name="APF">B3</parameter><parameter name="HFQ">500</parameter><parameter name="LFQ">4000</parameter><parameter name="NLI">0</parameter><parameter name="PHR">24</parameter><parameter name="PHZ">ML</parameter><parameter name="SPZ">NO</parameter><parameter name="ZFF">1</parameter></FT_-_Parameters_Rf><Optic_Parameters_><parameter name="APR">0</parameter><parameter name="APT">Open</parameter><parameter name="BMS">KBr</parameter><parameter name="CHN">Module port</parameter><parameter name="DTC">RT-DLaTGS_IR-Biotyper [Microplate reader]</parameter><parameter name="HPF">0</parameter><parameter name="LPF">10.0</parameter><parameter name="LPV">4000</parameter><parameter name="PGN">0</parameter><parameter name="RDX">0</parameter><parameter name="SRC">MIR</parameter><parameter name="VEL">10.0</parameter><parameter name="SON">Off</parameter></Optic_Parameters_><FT_-_Parameters_><parameter name="APF">B3</parameter><parameter name="HFQ">500</parameter><parameter name="LFQ">4000</parameter><parameter name="NLI">0</parameter><parameter name="PHR">24</parameter><parameter name="PHZ">ML</parameter><parameter name="SPZ">NO</parameter><parameter name="ZFF">1</parameter></FT_-_Parameters_><Acquisition_Parameters_><parameter name="ADT">1</parameter><parameter name="AQM">DD</parameter><parameter name="CFE">0</parameter><parameter name="COR">0</parameter><parameter name="DEL">0</parameter><parameter name="DLY">0</parameter><parameter name="HFW">8000</parameter><parameter name="LFW">0</parameter><parameter name="NSS">32</parameter><parameter name="PLF">AB</parameter><parameter name="RES">6</parameter><parameter name="SOT">0</parameter><parameter name="TCL">MakeCompatibleScalar (0, {WSV=1.000000, ARV=0});</parameter><parameter name="TDL">37</parameter><parameter name="SPO">0</parameter><parameter name="SGN">-1</parameter></Acquisition_Parameters_><Instrument_Parameters_Rf><parameter name="HFL">15801.365274</parameter><parameter name="LFL">0</parameter><parameter name="LWN">15801.365274</parameter><parameter name="ABP">32157</parameter><parameter name="SSP">1</parameter><parameter name="ARG">2</parameter><parameter name="ASG">2</parameter><parameter name="ASS">32</parameter><parameter name="GFW">16</parameter><parameter name="GBW">16</parameter><parameter name="BFW">0</parameter><parameter name="BBW">0</parameter><parameter name="PKA">9176</parameter><parameter name="PKL">5009</parameter><parameter name="PRA">9170</parameter><parameter name="PRL">4988</parameter><parameter name="P2A">1</parameter><parameter name="P2L">1</parameter><parameter name="P2R">1</parameter><parameter name="P2K">1</parameter><parameter name="DAQ">0</parameter><parameter name="AG2">1</parameter><parameter name="SSM">1</parameter><parameter name="RSN">48107</parameter><parameter name="CRR">0</parameter><parameter name="SRT">1707829797.922</parameter><parameter name="DUR">19.6389923095703</parameter><parameter name="TSC">29.9</parameter><parameter name="MVD">0.326502174139023</parameter><parameter name="AN1">0.225934720723936</parameter><parameter name="AN2">0</parameter><parameter name="VSN">2.485 Apr  4 2017</parameter><parameter name="SRN">0085</parameter><parameter name="CAM">0</parameter><parameter name="INS">IR-Biotyper</parameter><parameter name="FOC">69</parameter><parameter name="RDY">1</parameter><parameter name="ARS">32</parameter></Instrument_Parameters_Rf><Sample_Parameters_><parameter name="BLD"></parameter><parameter name="CNM">Admin</parameter><parameter name="CPY"></parameter><parameter name="DPM"></parameter><parameter name="EXP">IRBT_v3_32Scans.XPM</parameter><parameter name="LCT"></parameter><parameter name="SFM">Microplate, HTS-XT</parameter><parameter name="SNM">240213-1206-Cdiff_SCFA_3_GDA_C37_242151007_B3_6b07657d-9619-4043-bc62-214515f576a4.0</parameter><parameter name="XPP">C:\Users\Public\Documents\Bruker\OPUS_8.2.28\XPM</parameter><parameter name="IST">OK</parameter><parameter name="CPG">1252</parameter><parameter name="UID">dea93e85-7733-4d32-8e55-08e4e437cb9e</parameter></Sample_Parameters_><Instrument_Parameters_><parameter name="HFL">15801.365274</parameter><parameter name="LFL">0</parameter><parameter name="LWN">15801.365274</parameter><parameter name="ABP">32157</parameter><parameter name="SSP">1</parameter><parameter name="ASG">2</parameter><parameter name="ARG">2</parameter><parameter name="ASS">32</parameter><parameter name="GFW">16</parameter><parameter name="GBW">16</parameter><parameter name="BFW">0</parameter><parameter name="BBW">0</parameter><parameter name="PKA">10083</parameter><parameter name="PKL">5009</parameter><parameter name="PRA">10188</parameter><parameter name="PRL">4988</parameter><parameter name="P2A">1</parameter><parameter name="P2L">1</parameter><parameter name="P2R">1</parameter><parameter name="P2K">1</parameter><parameter name="DAQ">0</parameter><parameter name="AG2">1</parameter><parameter name="SSM">1</parameter><parameter name="RSN">24751</parameter><parameter name="CRR">0</parameter><parameter name="SRT">1707829823.776</parameter><parameter name="DUR">19.6389923095703</parameter><parameter name="TSC">30</parameter><parameter name="MVD">0.304350644350052</parameter><parameter name="AN1">0.225980589764895</parameter><parameter name="AN2">0</parameter><parameter name="VSN">2.485 Apr  4 2017</parameter><parameter name="SRN">0085</parameter><parameter name="CAM">0</parameter><parameter name="INS">IR-Biotyper</parameter><parameter name="FOC">69</parameter><parameter name="RDY">1</parameter></Instrument_Parameters_><History/></OPUSDataFile>
