<?xml version="1.0" encoding="UTF-8" ?>
<OPUSDataFile><AB><Ydata ylabel="Absorbance Units"><values byteorder="INTEL" format="FLOAT32" numvalues="3497"> -0.08564658 -0.0856461 -0.08565073 -0.08566084 -0.08567853 -0.08570153 -0.08572559 -0.08574984 -0.08577045 -0.08578957
 -0.08580802 -0.08582762 -0.08585096 -0.08587541 -0.08590104 -0.08592284 -0.08593901 -0.08594701 -0.08594556 -0.08593603
 -0.08591817 -0.08589574 -0.08586889 -0.08584328 -0.08581924 -0.08580378 -0.08579703 -0.08580333 -0.08582161 -0.08584909
 -0.08588372 -0.08591731 -0.0859488 -0.08597118 -0.08598629 -0.08599348 -0.0859956 -0.08599564 -0.08599474 -0.08599497
 -0.08599538 -0.08599597 -0.08599601 -0.085995 -0.08599366 -0.08599188 -0.08599144 -0.08599252 -0.08599686 -0.08600463
 -0.08601669 -0.08603305 -0.08605215 -0.08607376 -0.08609484 -0.08611542 -0.0861339 -0.08615085 -0.08616734 -0.08618361
 -0.08620095 -0.08621885 -0.08623707 -0.08625531 -0.08627322 -0.08629043 -0.08630704 -0.08632139 -0.08633293 -0.08633959
 -0.08633996 -0.0863354 -0.08632529 -0.0863152 -0.08630589 -0.08630139 -0.08630244 -0.08630676 -0.08631425 -0.0863198
 -0.08632351 -0.08632481 -0.08632436 -0.08632576 -0.08632898 -0.08633602 -0.08634597 -0.08635782 -0.08637078 -0.08638315
 -0.08639449 -0.0864037 -0.0864106 -0.08641416 -0.08641637 -0.0864173 -0.08642127 -0.08643029 -0.08644503 -0.08646711
 -0.08649007 -0.08651363 -0.08652877 -0.08653441 -0.08652791 -0.08650911 -0.08648257 -0.08644874 -0.08641414 -0.0863792
 -0.08634938 -0.08632524 -0.08631191 -0.08630899 -0.08631887 -0.08633889 -0.08636606 -0.08639743 -0.08642812 -0.08645758
 -0.08648374 -0.08650723 -0.08652847 -0.08654571 -0.08655877 -0.0865645 -0.08656146 -0.08655126 -0.08653322 -0.08651498
 -0.08649708 -0.08648683 -0.08648464 -0.08649298 -0.08651162 -0.08653843 -0.08657274 -0.08661029 -0.08664906 -0.08668011
 -0.08670082 -0.08669893 -0.08667712 -0.08663183 -0.08657327 -0.0865115 -0.08645473 -0.08641366 -0.08638912 -0.0863852
 -0.08639766 -0.08642701 -0.0864645 -0.08650917 -0.08654875 -0.08658123 -0.08659745 -0.08659561 -0.08658009 -0.086551
 -0.08652248 -0.08649499 -0.08647824 -0.08647136 -0.08647379 -0.08648457 -0.08649998 -0.0865196 -0.08654069 -0.08656305
 -0.08658516 -0.08660689 -0.08662738 -0.08664691 -0.08666637 -0.0866828 -0.08669607 -0.08669904 -0.0866883 -0.08666201
 -0.08661662 -0.08656561 -0.08650959 -0.08646753 -0.08644198 -0.08643862 -0.08645807 -0.08648801 -0.08652754 -0.08656064
 -0.08658785 -0.08660451 -0.08661229 -0.08661555 -0.08661389 -0.08660878 -0.08659853 -0.08658013 -0.08655436 -0.08652
 -0.08648105 -0.08643991 -0.08640104 -0.0863676 -0.08634227 -0.08632714 -0.0863218 -0.08632714 -0.08633919 -0.08635777
 -0.0863773 -0.08639721 -0.08641327 -0.08642519 -0.08643108 -0.08643098 -0.08642518 -0.08641404 -0.08640029 -0.08638419
 -0.08636875 -0.08635307 -0.08633658 -0.08631819 -0.08629493 -0.08626833 -0.08623806 -0.0862086 -0.08618385 -0.08616622
 -0.08615924 -0.0861598 -0.0861681 -0.08617843 -0.08618887 -0.08619796 -0.08620453 -0.08621317 -0.08622426 -0.0862416
 -0.08626559 -0.08629233 -0.0863214 -0.08634428 -0.08636127 -0.08637019 -0.0863722 -0.08637176 -0.08636766 -0.08635901
 -0.08634405 -0.08631718 -0.08628298 -0.08624338 -0.08620692 -0.08618335 -0.08617245 -0.08617974 -0.08619244 -0.08620759
 -0.08621144 -0.08619775 -0.0861684 -0.08612124 -0.0860707 -0.08601815 -0.08597427 -0.08594001 -0.08591417 -0.08589634
 -0.08587798 -0.08585867 -0.0858309 -0.08579578 -0.08575328 -0.08570576 -0.0856595 -0.08561613 -0.08558212 -0.08555641
 -0.08554122 -0.08553233 -0.08552732 -0.08552125 -0.0855099 -0.08549251 -0.08546701 -0.08543722 -0.08540405 -0.0853694
 -0.08533426 -0.08529623 -0.08525515 -0.08520895 -0.08515737 -0.08510274 -0.08504524 -0.08498869 -0.0849328 -0.08487748
 -0.08482133 -0.0847585 -0.08468765 -0.08460125 -0.08450104 -0.0843851 -0.08425983 -0.0841323 -0.0840087 -0.0838979
 -0.08380046 -0.08372016 -0.08365259 -0.08359779 -0.08354807 -0.08350243 -0.08344942 -0.08338707 -0.08330535 -0.08320224
 -0.08307809 -0.08293259 -0.08277417 -0.08260317 -0.08242535 -0.08224064 -0.08205085 -0.08185636 -0.08165962 -0.08146135
 -0.08126484 -0.0810705 -0.0808807 -0.08069532 -0.08051603 -0.08033986 -0.0801656 -0.07998772 -0.07980156 -0.07960641
 -0.0793993 -0.07918742 -0.07897267 -0.07875874 -0.0785481 -0.07833251 -0.07811155 -0.07787535 -0.07762289 -0.077356
 -0.07707494 -0.07678759 -0.07649399 -0.0761977 -0.07589857 -0.07559735 -0.0752949 -0.07499381 -0.0746958 -0.0744062
 -0.07412415 -0.07385291 -0.07358455 -0.07331427 -0.07303116 -0.07272451 -0.07239597 -0.07204007 -0.07167558 -0.07130748
 -0.07094757 -0.07060149 -0.0702588 -0.06991948 -0.06956812 -0.06920314 -0.06882511 -0.06843449 -0.06804692 -0.067663
 -0.0672955 -0.06694251 -0.06660279 -0.06627223 -0.06593836 -0.06559785 -0.06523687 -0.06485767 -0.06445584 -0.06403974
 -0.06361531 -0.06319055 -0.06277337 -0.06236512 -0.06196963 -0.06158097 -0.0611987 -0.06081503 -0.06042809 -0.06003422
 -0.05963237 -0.0592241 -0.05880948 -0.05838877 -0.05796186 -0.05752488 -0.05707805 -0.05662082 -0.05615523 -0.05569072
 -0.05522908 -0.05478176 -0.05434654 -0.05392535 -0.05351276 -0.05310184 -0.05268879 -0.0522663 -0.05183605 -0.05139588
 -0.05095199 -0.05050645 -0.05006486 -0.04962997 -0.0492023 -0.04878304 -0.04836787 -0.04795671 -0.04754269 -0.04712527
 -0.04669949 -0.0462652 -0.04582248 -0.04537163 -0.04491585 -0.04445493 -0.04398928 -0.0435187 -0.04304185 -0.04256088
 -0.04207911 -0.04159962 -0.04112933 -0.04066679 -0.04021429 -0.03976601 -0.03931765 -0.03886836 -0.03841514 -0.03796449
 -0.03751811 -0.03707995 -0.03665236 -0.03622964 -0.03581171 -0.03539011 -0.03496399 -0.03453047 -0.03408949 -0.033644
 -0.03319434 -0.03274496 -0.03229601 -0.03185073 -0.03140901 -0.03097226 -0.0305404 -0.03011379 -0.02969272 -0.02927761
 -0.02886907 -0.02846799 -0.02807437 -0.02768917 -0.02730985 -0.02693637 -0.02656298 -0.02618768 -0.02580707 -0.02541911
 -0.02502801 -0.02463375 -0.02424311 -0.02385702 -0.02347369 -0.02309297 -0.02270531 -0.0223107 -0.02190473 -0.02148919
 -0.021071 -0.0206522 -0.02024362 -0.01984474 -0.01946081 -0.01908778 -0.01872228 -0.01835957 -0.01799256 -0.01762093
 -0.01724114 -0.0168579 -0.01647309 -0.01608874 -0.01570707 -0.01532349 -0.01493728 -0.01454506 -0.01414542 -0.01374357
 -0.01333965 -0.01294166 -0.01254998 -0.01216733 -0.01179346 -0.01142675 -0.01106662 -0.01070973 -0.01035467 -0.009995162
 -0.009629776 -0.009250836 -0.008861321 -0.008460286 -0.00805705 -0.007660663 -0.007279791 -0.006925905 -0.006595891 -0.006293731
 -0.006004989 -0.005725535 -0.00544481 -0.005158146 -0.004868688 -0.004575866 -0.00428698 -0.004003062 -0.003722126 -0.003444074
 -0.003161088 -0.002873098 -0.002576694 -0.002272832 -0.00196478 -0.001654097 -0.001347674 -0.001046712 -0.0007582806 -0.0004803311
 -0.0002145924 4.641444E-05 0.0003097722 0.0005824981 0.0008739782 0.001181686 0.001509099 0.001843724 0.002182643 0.002513331
 0.002831878 0.003133023 0.003414676 0.00368042 0.003929971 0.00417308 0.004410268 0.004650095 0.004892572 0.005139987
 0.005391894 0.005646716 0.005904544 0.006164965 0.006428152 0.006694716 0.006963721 0.007234538 0.007504635 0.007771577
 0.008031546 0.00828078 0.008517059 0.00873677 0.008944637 0.009139793 0.009334417 0.009531007 0.009739976 0.009964454
 0.01020186 0.01045316 0.01070192 0.01094727 0.01117257 0.01137805 0.01156259 0.0117286 0.01189052 0.0120492
 0.01221688 0.01238934 0.01256282 0.01273257 0.01288755 0.01302927 0.01315393 0.01326782 0.01337502 0.01347904
 0.01358351 0.01368749 0.01379102 0.01389461 0.01399758 0.014105 0.01421716 0.01434122 0.01447806 0.01463106
 0.01480055 0.01497912 0.01516566 0.01534213 0.0155075 0.01564498 0.01575671 0.01584028 0.01590142 0.01595251
 0.01599881 0.01605577 0.01612306 0.01620784 0.01630352 0.01640771 0.01651308 0.01661383 0.01670974 0.01679843
 0.01688555 0.01697244 0.01706145 0.01715385 0.01724537 0.01733574 0.01742102 0.01750091 0.01757731 0.01765048
 0.01772518 0.01780128 0.01788088 0.01796274 0.01804365 0.01812158 0.01818953 0.01824711 0.0182889 0.01831968
 0.01834139 0.01836301 0.01839269 0.01843605 0.01850029 0.01858102 0.01867994 0.0187847 0.01889272 0.01899331
 0.01908347 0.01916243 0.01922914 0.01929219 0.01935202 0.01941865 0.01949236 0.01957796 0.01967529 0.01978509
 0.01990808 0.02004755 0.02020422 0.02038349 0.02058083 0.02079412 0.02100997 0.02121243 0.02138807 0.02151673
 0.02160269 0.02163715 0.0216478 0.02164157 0.02164797 0.0216786 0.02173885 0.02183423 0.02194437 0.02206852
 0.02218031 0.02227796 0.02234651 0.02238603 0.02239782 0.02238384 0.02235816 0.02232269 0.0222933 0.0222689
 0.02225549 0.02224923 0.02224563 0.02224267 0.02223521 0.02222477 0.02221111 0.02219528 0.02217918 0.02215847
 0.02213332 0.02209396 0.02203829 0.02195664 0.02184615 0.02170632 0.02153574 0.02134695 0.02114057 0.0209321
 0.02072191 0.02051537 0.02031166 0.02010687 0.01990098 0.01969152 0.01948005 0.01926968 0.01906129 0.01885792
 0.01865994 0.01846889 0.01828532 0.01811069 0.01794368 0.01778498 0.01762938 0.01747561 0.01731673 0.01715042
 0.01697281 0.01678212 0.01658109 0.01636901 0.01615747 0.01594702 0.01575266 0.01557466 0.0154165 0.01527584
 0.01513646 0.01499564 0.01483166 0.01464692 0.01443531 0.01420421 0.01396463 0.0137221 0.01348941 0.01326593
 0.01305616 0.01285606 0.01266432 0.01247794 0.01229506 0.0121151 0.0119375 0.01176235 0.0115899 0.01141813
 0.01124715 0.01107194 0.01089217 0.01070358 0.01050616 0.01030146 0.01009013 0.009878173 0.009665727 0.009456896
 0.009250517 0.009045448 0.008840532 0.008632754 0.008422179 0.008207681 0.007989535 0.007767923 0.007542099 0.007311594
 0.007076048 0.006834751 0.006589418 0.006340106 0.006089719 0.005838802 0.005589494 0.005342163 0.005097729 0.004856321
 0.004617554 0.004381341 0.004145463 0.003909665 0.003670651 0.003428626 0.003182342 0.002933072 0.002683519 0.00243549
 0.002194073 0.001959636 0.001735778 0.00151931 0.001309604 0.001100334 0.0008870966 0.0006660651 0.0004329873 0.0001923235
 -5.64939E-05 -0.000304077 -0.000548451 -0.0007843723 -0.001010539 -0.001228161 -0.001437204 -0.001639368 -0.001834785 -0.002025855
 -0.002213518 -0.002406875 -0.002607293 -0.002827197 -0.003064799 -0.003323099 -0.003595477 -0.003870683 -0.004142028 -0.004394414
 -0.004627243 -0.0048325 -0.005018085 -0.00518518 -0.005346381 -0.005507603 -0.005677581 -0.005861643 -0.006057317 -0.006266306
 -0.006476739 -0.006687293 -0.006889069 -0.007080957 -0.007264848 -0.007440866 -0.007613868 -0.007783183 -0.007944841 -0.008097138
 -0.008228718 -0.008340576 -0.008427782 -0.00849687 -0.008557796 -0.008618718 -0.008696621 -0.008793058 -0.008918155 -0.009063145
 -0.009226585 -0.009395801 -0.009563749 -0.009725444 -0.009876464 -0.01002199 -0.01016227 -0.01030283 -0.01044525 -0.01058555
 -0.01072374 -0.01085193 -0.01096988 -0.01107775 -0.01117639 -0.01127477 -0.01137275 -0.01147497 -0.01157889 -0.01167861
 -0.01177272 -0.01185406 -0.01192607 -0.0119899 -0.01205118 -0.01211657 -0.01218805 -0.01226977 -0.01235953 -0.01245727
 -0.01256102 -0.01266953 -0.01278447 -0.01290537 -0.01303762 -0.01318184 -0.01334268 -0.01352089 -0.01371361 -0.01392052
 -0.01412863 -0.01433702 -0.0145309 -0.01471087 -0.01487132 -0.01501525 -0.0151486 -0.01527514 -0.0154057 -0.0155428
 -0.01569536 -0.01586286 -0.01604919 -0.01624939 -0.01646265 -0.0166797 -0.01689639 -0.01710426 -0.01729887 -0.01747897
 -0.01764211 -0.01779719 -0.01794467 -0.01809573 -0.01825174 -0.01841397 -0.01858241 -0.01874678 -0.01890669 -0.0190534
 -0.01918859 -0.01931672 -0.01943974 -0.01956772 -0.01969836 -0.01983256 -0.01996475 -0.02008636 -0.02019481 -0.02028311
 -0.02035385 -0.0204069 -0.02044442 -0.02046863 -0.02047622 -0.02046755 -0.02043515 -0.0203779 -0.02028788 -0.02016415
 -0.01999875 -0.01979112 -0.01953235 -0.01922196 -0.0188518 -0.01842227 -0.01793335 -0.01738879 -0.01680646 -0.01619496
 -0.01559063 -0.01500399 -0.01447621 -0.01401358 -0.01364477 -0.01336863 -0.013196 -0.01311926 -0.01313822 -0.01323907
 -0.01341787 -0.01365304 -0.01393971 -0.01424796 -0.0145724 -0.01487985 -0.01516543 -0.01540108 -0.01558376 -0.01569583
 -0.01573623 -0.01569702 -0.01557809 -0.01537613 -0.01509067 -0.01471731 -0.0142553 -0.01369904 -0.01304963 -0.01230572
 -0.0114715 -0.01055229 -0.009553436 -0.008482648 -0.007343816 -0.006142029 -0.004880106 -0.003560472 -0.002185715 -0.0007576828
 0.0007241802 0.002259013 0.00385179 0.005503711 0.007214786 0.008986485 0.01079899 0.01265128 0.01449992 0.01634159
 0.0181232 0.01984184 0.02145323 0.02295663 0.02432556 0.02556154 0.02665391 0.0276073 0.02842154 0.02910897
 0.02967782 0.030155 0.03055638 0.03092615 0.03128564 0.03168697 0.03215148 0.0327209 0.0334106 0.03423664
 0.03520621 0.0363068 0.03753944 0.038872 0.04030279 0.04179157 0.04333587 0.04489461 0.04646454 0.04800632
 0.04951577 0.05095765 0.05232761 0.05359891 0.05476654 0.05581304 0.05672845 0.05749921 0.05810467 0.05852885
 0.05874227 0.05872675 0.05845641 0.05791577 0.05709855 0.0559957 0.05463169 0.05300373 0.05117192 0.04913828
 0.04699462 0.04474608 0.04249802 0.04025538 0.03810791 0.03605591 0.03414866 0.03237961 0.0307532 0.029258
 0.02786983 0.02657688 0.02534897 0.0241775 0.02304062 0.02193459 0.02084857 0.01978473 0.01874051 0.0177223
 0.01673157 0.01577481 0.01485388 0.01397312 0.01313318 0.01233881 0.01159007 0.01089631 0.01025799 0.009689126
 0.00919069 0.008778857 0.008455279 0.008238753 0.008130642 0.008148668 0.008287902 0.008551049 0.00891767 0.009360407
 0.009844517 0.01031926 0.01075574 0.0111076 0.01137904 0.01155081 0.01166676 0.01173385 0.01181093 0.0119145
 0.01208443 0.01233236 0.01266406 0.01308344 0.01356659 0.0141128 0.01467446 0.01524693 0.01575338 0.01618162
 0.01641657 0.01643813 0.01610646 0.01540757 0.01422488 0.01257916 0.01043491 0.007868704 0.00494072 0.001771977
 -0.001527456 -0.004835571 -0.008052837 -0.01110503 -0.01393483 -0.01653195 -0.01887769 -0.02100495 -0.02291425 -0.0246502
 -0.02621695 -0.02765398 -0.02896394 -0.03017932 -0.03130165 -0.03235738 -0.03334738 -0.03429072 -0.03518752 -0.0360485
 -0.03687339 -0.03766686 -0.03842877 -0.03916078 -0.03986332 -0.04053735 -0.04118379 -0.04180368 -0.04239786 -0.04296696
 -0.04351201 -0.04403306 -0.04453288 -0.04501165 -0.04547444 -0.045922 -0.04635917 -0.04678677 -0.04720579 -0.04761648
 -0.04801479 -0.04840054 -0.04876989 -0.04912337 -0.04946268 -0.04978915 -0.0501096 -0.0504242 -0.05073774 -0.05104753
 -0.05135087 -0.05164504 -0.05192424 -0.05219067 -0.05244284 -0.05268788 -0.05292985 -0.05317339 -0.05342265 -0.05367463
 -0.05393004 -0.0541819 -0.05442899 -0.05466644 -0.05489333 -0.05510888 -0.05531286 -0.0555077 -0.05569363 -0.05587598
 -0.05605503 -0.05623601 -0.05641815 -0.05660134 -0.05678405 -0.05696161 -0.0571339 -0.0572978 -0.05745572 -0.05760972
 -0.05776138 -0.05791387 -0.05806456 -0.05821339 -0.0583557 -0.05848906 -0.0586122 -0.05872335 -0.05882695 -0.0589232
 -0.05901821 -0.05911281 -0.05921045 -0.05931148 -0.05941664 -0.05952593 -0.05963943 -0.05975696 -0.05987747 -0.06000032
 -0.06012213 -0.0602425 -0.06035789 -0.06046962 -0.06057812 -0.06068586 -0.0607968 -0.06091136 -0.06103215 -0.0611563
 -0.0612828 -0.06140902 -0.06153302 -0.06165551 -0.06177605 -0.06189674 -0.06201802 -0.06214081 -0.06226525 -0.06239209
 -0.06252135 -0.06265476 -0.06279237 -0.06293478 -0.06308166 -0.0632304 -0.06338064 -0.06352925 -0.06367636 -0.06382092
 -0.06396294 -0.06410225 -0.06423798 -0.0643687 -0.06449418 -0.06461314 -0.06472751 -0.06483793 -0.0649469 -0.06505608
 -0.06516556 -0.06527597 -0.06538561 -0.06549421 -0.06560059 -0.06570451 -0.06580589 -0.06590468 -0.06600124 -0.06609563
 -0.06618947 -0.06628303 -0.06637949 -0.06647883 -0.06658305 -0.06669123 -0.06680195 -0.0669138 -0.06702305 -0.06712937
 -0.06723014 -0.06732725 -0.06742097 -0.06751506 -0.06761218 -0.06771486 -0.06782588 -0.06794239 -0.0680648 -0.06818695
 -0.06830733 -0.06842341 -0.06853419 -0.06864345 -0.06875142 -0.06886151 -0.06897375 -0.06908632 -0.06919905 -0.06930916
 -0.06941732 -0.06952535 -0.06963397 -0.06974694 -0.06986331 -0.06998327 -0.07010478 -0.07022471 -0.07034241 -0.0704556
 -0.07056563 -0.07067243 -0.07077821 -0.07088409 -0.07099111 -0.07110006 -0.0712102 -0.07132168 -0.07143255 -0.07154257
 -0.07165021 -0.07175526 -0.07185808 -0.07195866 -0.07205795 -0.07215595 -0.07225314 -0.07234954 -0.07244552 -0.0725413
 -0.07263775 -0.07273515 -0.07283457 -0.07293595 -0.07303977 -0.07314576 -0.07325388 -0.07336363 -0.07347488 -0.07358642
 -0.07369795 -0.07380737 -0.07391385 -0.07401627 -0.0741139 -0.0742083 -0.0742994 -0.07439017 -0.07448086 -0.07457291
 -0.07466634 -0.07476013 -0.07485421 -0.0749471 -0.07503889 -0.07512912 -0.07521793 -0.07530563 -0.07539206 -0.07547711
 -0.07556034 -0.07564095 -0.07571877 -0.07579295 -0.0758646 -0.07593362 -0.07600308 -0.07607426 -0.07615003 -0.07623211
 -0.07631978 -0.07641383 -0.07650948 -0.07660633 -0.07669935 -0.076788 -0.07687043 -0.07694658 -0.07701786 -0.07708447
 -0.07714915 -0.07721201 -0.07727508 -0.07733823 -0.07740221 -0.0774669 -0.07753225 -0.07759854 -0.07766598 -0.07773521
 -0.07780709 -0.07788164 -0.07795942 -0.07803928 -0.0781211 -0.07820287 -0.07828384 -0.0783629 -0.07843957 -0.07851377
 -0.07858544 -0.07865454 -0.07872109 -0.07878431 -0.07884415 -0.07890121 -0.07895577 -0.07901143 -0.07906839 -0.0791302
 -0.07919591 -0.07926444 -0.07933401 -0.07939958 -0.07946118 -0.07951578 -0.07956649 -0.07961538 -0.07966541 -0.07972023
 -0.07977895 -0.07984272 -0.07990768 -0.07997252 -0.08003512 -0.08009432 -0.08015155 -0.08020674 -0.08026254 -0.08031929
 -0.08037737 -0.0804368 -0.08049606 -0.0805551 -0.08061294 -0.08066977 -0.08072612 -0.08078212 -0.08083846 -0.08089508
 -0.080952 -0.08100964 -0.08106855 -0.08112954 -0.08119389 -0.08126169 -0.08133386 -0.08140881 -0.08148625 -0.08156381
 -0.08164051 -0.08171519 -0.08178721 -0.08185688 -0.08192404 -0.08199029 -0.08205575 -0.0821222 -0.08218975 -0.08225979
 -0.0823323 -0.0824073 -0.08248467 -0.08256364 -0.08264406 -0.08272505 -0.08280652 -0.08288797 -0.08296906 -0.08304922
 -0.08312755 -0.08320288 -0.08327425 -0.08334016 -0.08340132 -0.08345705 -0.08351079 -0.08356353 -0.08361836 -0.08367671
 -0.08373772 -0.08380178 -0.08386517 -0.08392751 -0.08398701 -0.08404354 -0.08409852 -0.08415204 -0.08420555 -0.08425899
 -0.08431255 -0.08436642 -0.0844213 -0.08447777 -0.08453783 -0.08460142 -0.08466975 -0.08474164 -0.08481648 -0.08489228
 -0.08496738 -0.08503996 -0.0851084 -0.08517222 -0.08523039 -0.08528505 -0.08533617 -0.08538768 -0.08544035 -0.0854959
 -0.08555482 -0.0856149 -0.08567604 -0.08573513 -0.08579214 -0.08584656 -0.08589856 -0.08594897 -0.08599779 -0.08604533
 -0.08609176 -0.08613749 -0.08618312 -0.08623 -0.08627813 -0.08632837 -0.0863794 -0.08643053 -0.08648032 -0.08652749
 -0.08657216 -0.08661386 -0.08665395 -0.08669255 -0.08673134 -0.08677057 -0.08681176 -0.08685512 -0.08690134 -0.0869505
 -0.0870014 -0.08705389 -0.08710534 -0.08715574 -0.08720348 -0.08724894 -0.08729279 -0.08733535 -0.08737795 -0.08742014
 -0.08746187 -0.08750219 -0.08753965 -0.08757433 -0.08760525 -0.08763449 -0.08766267 -0.08769257 -0.08772551 -0.08776297
 -0.08780596 -0.08785329 -0.08790512 -0.08795892 -0.08801448 -0.08806919 -0.08812284 -0.08817352 -0.08822119 -0.08826498
 -0.08830494 -0.08834087 -0.08837299 -0.08840172 -0.0884278 -0.08845306 -0.08847883 -0.08850814 -0.08854225 -0.08858418
 -0.08863373 -0.08869191 -0.08875763 -0.08883025 -0.08890993 -0.08899613 -0.08909101 -0.08919503 -0.08930995 -0.08943661
 -0.08957302 -0.08971938 -0.08987019 -0.09002513 -0.09017911 -0.09033198 -0.0904813 -0.09062711 -0.09076877 -0.09090567
 -0.09103552 -0.09115658 -0.09126359 -0.091354 -0.09142086 -0.09146219 -0.09147274 -0.09145143 -0.09139422 -0.09130519
 -0.09118194 -0.09104171 -0.09088792 -0.09074623 -0.09062435 -0.09053958 -0.09049741 -0.09049997 -0.09054931 -0.09063227
 -0.09074851 -0.09087154 -0.09100001 -0.09110793 -0.09119633 -0.0912602 -0.09130287 -0.09133615 -0.09136129 -0.0913883
 -0.09141559 -0.09144517 -0.09147427 -0.09150006 -0.09152054 -0.09153245 -0.09153645 -0.09153137 -0.09152059 -0.09150509
 -0.09148805 -0.09147082 -0.09145407 -0.09143835 -0.09142236 -0.09140597 -0.09138848 -0.09136976 -0.0913523 -0.09133632
 -0.09132646 -0.09132277 -0.09132819 -0.09134174 -0.09136101 -0.0913845 -0.09140658 -0.09142686 -0.09144139 -0.09145191
 -0.09145863 -0.09146464 -0.09147277 -0.09148549 -0.09150551 -0.09153276 -0.09156863 -0.09160927 -0.09165433 -0.09169832
 -0.09173997 -0.09177651 -0.09180704 -0.09183431 -0.09185839 -0.09188446 -0.09191271 -0.09194541 -0.09198227 -0.09202175
 -0.09206364 -0.09210601 -0.09214914 -0.09219301 -0.09223759 -0.092283 -0.09232864 -0.09237361 -0.09241777 -0.09246034
 -0.09250236 -0.09254432 -0.09258682 -0.09263072 -0.09267439 -0.09271774 -0.0927583 -0.09279545 -0.0928283 -0.09285644
 -0.09288201 -0.09290507 -0.09292922 -0.0929546 -0.09298367 -0.09301629 -0.09305235 -0.09309131 -0.09313063 -0.09316989
 -0.09320639 -0.09324042 -0.09327104 -0.09329921 -0.09332597 -0.09335184 -0.09337782 -0.09340365 -0.09342953 -0.09345476
 -0.09347891 -0.09350219 -0.09352452 -0.09354646 -0.09356826 -0.09358938 -0.09360984 -0.09362858 -0.09364548 -0.09366056
 -0.09367385 -0.09368616 -0.0936975 -0.09370803 -0.09371776 -0.09372653 -0.09373487 -0.0937442 -0.09375519 -0.09377014
 -0.09378882 -0.09381236 -0.09383893 -0.09386729 -0.09389552 -0.09392168 -0.0939458 -0.09396701 -0.09398749 -0.09400767
 -0.09402987 -0.09405489 -0.09408268 -0.09411354 -0.09414513 -0.09417731 -0.09420772 -0.09423625 -0.09426212 -0.09428546
 -0.09430699 -0.09432693 -0.09434675 -0.09436636 -0.09438645 -0.0944064 -0.09442534 -0.0944427 -0.09445693 -0.09446868
 -0.0944776 -0.09448569 -0.09449411 -0.0945046 -0.09451859 -0.09453583 -0.0945569 -0.09457969 -0.09460399 -0.09462729
 -0.09464917 -0.09466823 -0.09468427 -0.09469803 -0.09470958 -0.09472109 -0.0947326 -0.09474587 -0.09476057 -0.09477637
 -0.09479269 -0.09480761 -0.09482083 -0.09483054 -0.09483751 -0.09484172 -0.09484519 -0.09484991 -0.09485766 -0.09487073
 -0.09488856 -0.09491212 -0.09493792 -0.0949652 -0.09499051 -0.09501264 -0.09503129 -0.09504592 -0.09505977 -0.09507304
 -0.09508866 -0.09510674 -0.09512626 -0.09514689 -0.09516473 -0.0951799 -0.09519079 -0.09519849 -0.09520569 -0.09521333
 -0.09522505 -0.09524056 -0.09526116 -0.09528575 -0.09531388 -0.09534393 -0.0953748 -0.09540464 -0.09543221 -0.0954566
 -0.09547689 -0.0954944 -0.09550901 -0.0955234 -0.09553802 -0.09555425 -0.09557234 -0.0955916 -0.09561197 -0.09563167
 -0.09565066 -0.09566771 -0.09568305 -0.09569718 -0.09571058 -0.0957253 -0.09574113 -0.09575891 -0.09577751 -0.09579546
 -0.09581219 -0.09582604 -0.09583831 -0.09584929 -0.09586052 -0.09587305 -0.09588712 -0.09590305 -0.09592069 -0.09593993
 -0.09596119 -0.09598462 -0.09600993 -0.09603723 -0.09606476 -0.09609243 -0.09611844 -0.09614269 -0.09616369 -0.09618142
 -0.096195 -0.09620462 -0.09621017 -0.09621255 -0.09621359 -0.09621435 -0.09621742 -0.09622318 -0.09623318 -0.09624714
 -0.09626552 -0.09628735 -0.09631264 -0.09633912 -0.09636626 -0.0963913 -0.0964134 -0.09643148 -0.09644504 -0.09645524
 -0.09646206 -0.0964677 -0.09647228 -0.09647798 -0.09648492 -0.0964952 -0.09650873 -0.09652622 -0.09654699 -0.09656907
 -0.09659156 -0.09661114 -0.09662784 -0.09663993 -0.0966486 -0.09665447 -0.09665881 -0.09666293 -0.09666734 -0.09667252
 -0.09667901 -0.09668704 -0.09669717 -0.0967097 -0.09672415 -0.09674068 -0.09675726 -0.09677369 -0.09678867 -0.09680214
 -0.09681533 -0.09682834 -0.09684324 -0.09685978 -0.09687769 -0.09689656 -0.09691449 -0.09693156 -0.09694687 -0.0969611
 -0.09697513 -0.09698924 -0.09700435 -0.09701964 -0.0970348 -0.09704897 -0.09706132 -0.09707241 -0.09708195 -0.0970919
 -0.09710269 -0.0971158 -0.09713177 -0.09714986 -0.09717021 -0.09719021 -0.09720972 -0.09722637 -0.09724017 -0.09725078
 -0.09725844 -0.09726433 -0.09726884 -0.09727402 -0.09727997 -0.0972882 -0.09729806 -0.09730962 -0.09732106 -0.09733036
 -0.09733598 -0.09733553 -0.09732975 -0.09731774 -0.09730291 -0.0972863 -0.09727052 -0.0972568 -0.09724443 -0.09723362
 -0.09722229 -0.09721009 -0.09719759 -0.09718478 -0.09717491 -0.09716802 -0.09716538 -0.09716654 -0.09716913 -0.09717262
 -0.09717351 -0.09717201 -0.09716678 -0.09715836 -0.09714716 -0.09713348 -0.09711775 -0.09710058 -0.09708232 -0.09706423
 -0.09704722 -0.09703162 -0.09701801 -0.09700523 -0.09699308 -0.0969806 -0.09696753 -0.09695394 -0.09693984 -0.09692515
 -0.09690986 -0.0968928 -0.09687395 -0.09685262 -0.09682915 -0.0968053 -0.09678159 -0.09676123 -0.09674416 -0.09673218
 -0.0967243 -0.09671982 -0.09671746 -0.0967152 -0.09671275 -0.09670898 -0.09670445 -0.09669932 -0.09669344 -0.09668711
 -0.09667875 -0.09666795 -0.09665378 -0.09663569 -0.09661553 -0.09659326 -0.09657254 -0.09655359 -0.09653906 -0.09652893
 -0.09652323 -0.09652171 -0.09652293 -0.09652659 -0.09653085 -0.09653529 -0.09653797 -0.09653845 -0.09653483 -0.09652758
 -0.09651618 -0.09650229 -0.09648727 -0.09647201 -0.09645785 -0.09644358 -0.09642912 -0.09641282 -0.09639388 -0.09637295
 -0.09634994 -0.09632637 -0.09630252 -0.09627825 -0.09625356 -0.09622793 -0.09620144 -0.09617599 -0.09615182 -0.096132
 -0.0961162 -0.09610501 -0.09609737 -0.09609079 -0.09608435 -0.09607501 -0.09606272 -0.09604598 -0.09602579 -0.09600224
 -0.09597722 -0.09595188 -0.0959276 -0.09590555 -0.0958849 -0.09586608 -0.09584586 -0.0958238 -0.09579702 -0.09576486
 -0.09572833 -0.09568735 -0.09564622 -0.09560508 -0.09556731 -0.09553265 -0.09550076 -0.0954713 -0.09544238 -0.0954142
 -0.09538642 -0.0953592 -0.09533305 -0.095307 -0.09528019 -0.09525121 -0.09521819 -0.09518122 -0.09513945 -0.09509454
 -0.09504694 -0.09499814 -0.09494875 -0.09489906 -0.09484928 -0.09479897 -0.09474812 -0.09469612 -0.09464291 -0.09458838
 -0.09453256 -0.0944766 -0.09442079 -0.0943681 -0.09431879 -0.0942761 -0.09423892 -0.09420658 -0.09417601 -0.09414109
 -0.09409931 -0.09404363 -0.09397633 -0.09389581 -0.0938087 -0.09371869 -0.0936307 -0.09354835 -0.09347185 -0.09340237
 -0.09333717 -0.09327613 -0.09321542 -0.09315463 -0.09309047 -0.09302265 -0.09295021 -0.09287316 -0.0927925 -0.09270819
 -0.09262013 -0.0925281 -0.09243062 -0.09232824 -0.0922213 -0.09211146 -0.09200224 -0.09189462 -0.09179189 -0.09169295
 -0.09159859 -0.09150536 -0.09141139 -0.09131361 -0.09120963 -0.09110009 -0.09098408 -0.09086588 -0.09074631 -0.09062789
 -0.09051154 -0.09039383 -0.09027469 -0.09014823 -0.09001427 -0.0898715 -0.08972041 -0.08956515 -0.08940589 -0.08924624
 -0.08908471 -0.08891896 -0.08874703 -0.08856327 -0.08836804 -0.08815866 -0.08793837 -0.08770973 -0.08747409 -0.08723398
 -0.0869866 -0.08673141 -0.08646539 -0.08618692 -0.085897 -0.08559566 -0.08528385 -0.08496251 -0.08462491 -0.08427111
 -0.08388489 -0.08346533 -0.08299413 -0.08247111 -0.08188718 -0.08124281 -0.08053763 -0.07976765 -0.0789241 -0.07799471
 -0.0769517 -0.07578159 -0.07445009 -0.07295925 -0.07129052 -0.06947574 -0.06752189 -0.06548604 -0.06339099 -0.06129666
 -0.05922462 -0.05722077 -0.05529647 -0.05348892 -0.05180249 -0.0502791 -0.04892216 -0.04776772 -0.04681724 -0.04607737
 -0.04554608 -0.0452062 -0.04505529 -0.04507333 -0.04525755 -0.04559061 -0.04606722 -0.04667057 -0.04739037 -0.04821084
 -0.04910645 -0.05005392 -0.05100915 -0.05193613 -0.05280101 -0.05357508 -0.05425613 -0.05483653 -0.05532539 -0.05572423
 -0.05603539 -0.05625938 -0.05639742 -0.05644968 -0.05641749 -0.05630078 -0.05609162 -0.05578991 -0.05538911 -0.05489358
 -0.05432175 -0.05367981 -0.05299906 -0.05227881 -0.05153292 -0.05075807 -0.0499534 -0.04912134 -0.04826418 -0.04738379
 -0.04648627 -0.04555832 -0.04459931 -0.04358164 -0.04249588 -0.0413237 -0.04005563 -0.03870437 -0.03726766 -0.03578185
 -0.03424934 -0.03270589 -0.03115334 -0.02961304 -0.0280839 -0.02656367 -0.02504622 -0.02349809 -0.02191313 -0.02024627
 -0.01851167 -0.01670947 -0.01487797 -0.01308008 -0.01133123 -0.00968168 -0.008102156 -0.006588386 -0.005108532 -0.003640338
 -0.002184225 -0.0007327854 0.0006955103 0.002096614 0.003463309 0.004793392 0.006088613 0.00734904 0.008574124 0.009763873
 0.01092274 0.01205057 0.01314928 0.01421475 0.01522556 0.01617654 0.01703656 0.01780865 0.01848286 0.01906796
 0.01957403 0.02000592 0.02037273 0.02067656 0.02091958 0.02111005 0.02125127 0.02135446 0.02142456 0.02146715
 0.02148548 0.02147607 0.02143993 0.02136513 0.02125127 0.02108038 0.02085146 0.02054713 0.02016789 0.01971328
 0.01918777 0.01861667 0.01800399 0.0173783 0.01673777 0.01609156 0.01543816 0.01477612 0.01411293 0.01345308
 0.01281284 0.01220522 0.01164398 0.01114029 0.01069918 0.01032421 0.01001964 0.009786295 0.009631325 0.00955661
 0.009561696 0.009647445 0.009801782 0.01002408 0.01030257 0.01063714 0.01102394 0.01146309 0.01195362 0.01249482
 0.01308387 0.01371924 0.01439623 0.01511323 0.01586571 0.01665252 0.01747064 0.0183196 0.01919777 0.02010602
 0.02104389 0.02201411 0.02301755 0.0240563 0.02513181 0.02624078 0.02738339 0.02855314 0.02974949 0.03096739
 0.03220655 0.03345697 0.03471743 0.03596897 0.0372104 0.03842567 0.03961337 0.04076334 0.04186708 0.04290164
 0.04385358 0.04468821 0.04540301 0.04597954 0.04642586 0.04674314 0.04693649 0.04700872 0.04696434 0.04680647
 0.04653458 0.04615415 0.04563586 0.04497891 0.04413416 0.04309347 0.04186236 0.04043993 0.03892 0.03730639
 0.03567442 0.03401755 0.03232906 0.03060331 0.02881252 0.02696296 0.02505525 0.02309948 0.02111664 0.01910367
 0.01706944 0.01499607 0.01286578 0.01068565 0.00843918 0.006194223 0.003970479 0.001829284 -0.0002002869 -0.002135539
 -0.003971886 -0.005754935 -0.00749084 -0.009187452 -0.01084591 -0.01244469 -0.01398335 -0.01545235 -0.01685366 -0.01819667
 -0.01948191 -0.02071685 -0.02189954 -0.02302706 -0.02410187 -0.02512283 -0.02610394 -0.02705844 -0.02800702 -0.02897228
 -0.02996411 -0.03099733 -0.032064 -0.03316525 -0.0342893 -0.0354342 -0.03658774 -0.03775192 -0.0388867 -0.03999033
 -0.04100303 -0.04192042 -0.04272839 -0.04342893 -0.0440601 -0.04462422 -0.04515659 -0.04565381 -0.04612157 -0.04655448
 -0.04694136 -0.04727905 -0.0475579 -0.04777382 -0.0479199 -0.04798764 -0.04796891 -0.0478535 -0.04763396 -0.04730168
 -0.04685227 -0.04627776 -0.04557569 -0.04473889 -0.04376628 -0.04265054 -0.04139242 -0.03996905 -0.0383797 -0.03657115
 -0.0345422 -0.03226054 -0.02974368 -0.02709029 -0.02434247 -0.0217257 -0.01926715 -0.01716264 -0.01539544 -0.01403746
 -0.01302951 -0.01233818 -0.01187647 -0.01156155 -0.0113207 -0.01107999 -0.01082836 -0.01053178 -0.01024983 -0.009988222
 -0.009818589 -0.00976051 -0.009821393 -0.01000863 -0.01027142 -0.01060736 -0.01095702 -0.01131807 -0.01165098 -0.01195658
 -0.01222232 -0.0124505 -0.01264435 -0.01280449 -0.01293442 -0.01303325 -0.01310086 -0.01313642 -0.01313909 -0.01310736
 -0.01304147 -0.01293423 -0.01278523 -0.01257506 -0.01229954 -0.01192814 -0.01145241 -0.01084692 -0.01010415 -0.009218834
 -0.008188568 -0.007021951 -0.005719242 -0.004290925 -0.002738471 -0.001090162 0.0006472861 0.002409568 0.004187997 0.005909269
 0.007572313 0.009137105 0.01060538 0.01196627 0.01321019 0.01432545 0.0152886 0.01607762 0.01666551 0.01702961
 0.01715231 0.01701809 0.01662969 0.01598038 0.01509796 0.01398268 0.01268159 0.01119761 0.009590902 0.007864858
 0.006092837 0.004278852 0.002495848 0.0007458155 -0.0009223624 -0.002509619 -0.003994339 -0.005377312 -0.006648873 -0.007811068
 -0.008859709 -0.009806358 -0.01065874 -0.01144446 -0.01218613 -0.01292211 -0.01368233 -0.01449471 -0.01538443 -0.0163414
 -0.01737559 -0.0184343 -0.01951195 -0.02054822 -0.02153351 -0.02244226 -0.02327086 -0.02403221 -0.02472699 -0.0253724
 -0.02596668 -0.02650236 -0.02697531 -0.02736053 -0.0276598 -0.02786119 -0.02797823 -0.02802818 -0.02803275 -0.02802648
 -0.0280316 -0.02808049 -0.02818917 -0.02837826 -0.02865236 -0.02902051 -0.02947428 -0.03001578 -0.0306234 -0.03129628
 -0.03199917 -0.03272965 -0.03344207 -0.03413318 -0.03476018 -0.03532135 -0.03579688 -0.03618912 -0.03651009 -0.03676469
 -0.0369826 -0.03716639 -0.03733997 -0.03750121 -0.03765785 -0.03780498 -0.03793915 -0.03805562 -0.03814847 -0.03821494
 -0.03825115 -0.03825694 -0.03823081 -0.03817529 -0.03809045 -0.03798039 -0.03784576 -0.03769044 -0.03751488 -0.03732277
 -0.03711425 -0.0368958 -0.03666785 -0.03644028 -0.03621363 -0.03599694 -0.03579 -0.0355963 -0.03541566 -0.03524839
 -0.03509665 -0.03496424 -0.03485526 -0.03477776 -0.03473297 -0.03472689 -0.03475356 -0.03481241 -0.03489237 -0.03498888
 -0.03509133 -0.03519581 -0.035294 -0.03538397 -0.03545806 -0.03551505 -0.03554945 -0.03556047 -0.0355492 -0.03551583
 -0.03546916 -0.03540992 -0.03534881 -0.03528583 -0.03522709 -0.0351714 -0.03511841 -0.03506653 -0.03501242 -0.03495449
 -0.0348895 -0.034815 -0.03472822 -0.03462471 -0.03450133 -0.03435246 -0.03417485 -0.03396419 -0.03371857 -0.03343482
 -0.03311211 -0.03274732 -0.03233982 -0.03188812 -0.03139162 -0.03085677 -0.03028409 -0.02969187 -0.02908222 -0.02848302
 -0.02789748 -0.02735641 -0.02686283 -0.0264429 -0.02609752 -0.02584219 -0.0256741 -0.02559703 -0.02560403 -0.02569072
 -0.02584708 -0.02606619 -0.02633595 -0.02664994 -0.02699583 -0.02736889 -0.02775833 -0.02816097 -0.02857024 -0.02898466
 -0.02940186 -0.02982156 -0.03024199 -0.03066298 -0.03107804 -0.03148634 -0.03187648 -0.03224779 -0.03259036 -0.0329049
 -0.03318818 -0.03344217 -0.03366941 -0.03387211 -0.03405435 -0.03421867 -0.0343691 -0.03450761 -0.03463739 -0.03475754
 -0.0348696 -0.03496788 -0.03505164 -0.03511255 -0.03514843 -0.03515447 -0.03512878 -0.03507574 -0.03499491 -0.03490114
 -0.03479523 -0.03469389 -0.03459708 -0.03451026 -0.03443095 -0.03434845 -0.0342597 -0.03414796 -0.03401325 -0.03384675
 -0.03365131 -0.03342813 -0.03317802 -0.03290393 -0.03260096 -0.03226727 -0.03189587 -0.03148191 -0.03102399 -0.03051929
 -0.02997382 -0.02938817 -0.02876906 -0.02811797 -0.02743609 -0.02672383 -0.02597863 -0.02520039 -0.02439038 -0.02354928
 -0.02268555 -0.02180063 -0.02090709 -0.02000629 -0.01910974 -0.01821759 -0.01733645 -0.01646431 -0.01560145 -0.01474416
 -0.01388836 -0.01303143 -0.01216946 -0.01130314 -0.01043108 -0.009557161 -0.008682019 -0.007810509 -0.006943626 -0.006086232
 -0.005239283 -0.004405524 -0.003585576 -0.002777342 -0.001980749 -0.001188307 -0.0003995199 0.0003942148 0.001192759 0.002000219
 0.002814999 0.003634091 0.004454883 0.00526963 0.006076755 0.006869366 0.007649386 0.008415117 0.009172528 0.009924153
 0.01067989 0.01144342 0.01222997 0.01304368 0.0139045 0.01481768 0.01579874 0.01685267 0.01797552 0.01916912
 0.0204059 0.0216845 0.02296464 0.02424403 0.0254833 0.02668045 0.02780301 0.0288502 0.02980018 0.0306568
 0.03141593 0.03208787 0.03268678 0.03322408 0.03371971 0.03417716 0.03460787 0.03500462 0.03536753 0.03568594
 0.03595582 0.03617024 0.03632657 0.03642178 0.03645472 0.03642571 0.03633409 0.03618753 0.03598632 0.03574688
 0.03547023 0.03517424 0.0348593 0.03453706 0.03420696 0.03387349 0.03353515 0.03319134 0.03283875 0.0324723
 0.03208714 0.03167562 0.03123411 0.03075645 0.03024317 0.02969226 0.02910733 0.02848884 0.02784173 0.02716672
 0.02647063 0.02575387 0.02502734 0.02429186 0.02355963 0.02283149 0.02211346 0.02140515 0.0207004 0.01999778
 0.0192841 0.01855946 0.01781602 0.0170575 0.01628842 0.01551474 0.01474853 0.01399505 0.01326524 0.01256258
 0.01189293 0.01126 0.01066584 0.01011844 0.009619212 0.00918295 0.008812875 0.008524545 0.008322679 0.008206806
 0.008179667 0.008212538 0.008304278 0.008406539 0.00851689 0.008591389 0.008629714 0.008608028 0.008528251 0.00838469
 0.008180339 0.007918683 0.007605187 0.007249119 0.006860124 0.006452397 0.006037048 0.005628564 0.005232828 0.004858868
 0.004502884 0.004166954 0.003840188 0.003520589 0.003197203 0.002867575 0.002526097 0.002171603 0.001804119 0.00142353
 0.001032103 0.0006298823 0.0002176793 -0.0002048289 -0.0006393613 -0.00108674 -0.00155104 -0.00203334 -0.002538718 -0.003067493
 -0.003623603 -0.004204137 -0.004808311 -0.005429496 -0.006062021 -0.006699789 -0.007336514 -0.007972561 -0.008605201 -0.009241933
 -0.009883726 -0.01053944 -0.01121085 -0.01190374 -0.01261908 -0.01335925 -0.01412453 -0.01491427 -0.01572819 -0.01656063
 -0.01741015 -0.0182639 -0.01911913 -0.01995806 -0.02077738 -0.02155948 -0.02230124 -0.02298878 -0.02362049 -0.02418804
 -0.02469302 -0.02513292 -0.02551331 -0.02583655 -0.02610831 -0.02633235 -0.02650879 -0.02663926 -0.02671837 -0.02674501
 -0.02671712 -0.02663325 -0.02650326 -0.02632719 -0.02612994 -0.02591335 -0.02571367 -0.0255336 -0.02541102 -0.02534704
 -0.02536801 -0.0254706 -0.02566114 -0.02593086 -0.02626816 -0.02666022 -0.02708694 -0.02753455 -0.02798377 -0.02842551
 -0.02884752 -0.02924958 -0.02962762 -0.02998801 -0.03033215 -0.03066362 -0.03098434 -0.03128969 -0.03157986 -0.03184563
 -0.03208638 -0.03229502 -0.03247134 -0.03261356 -0.03272232 -0.03280152 -0.03285288 -0.03288561 -0.03290235 -0.03291523
 -0.03292636 -0.03294611 -0.03297396 -0.03301419 -0.03306356 -0.03312067 -0.03318246 -0.03324626 -0.0333112 -0.03337683
 -0.03344068 -0.03350344 -0.03355592 -0.03359745 -0.03361458 -0.0336054 -0.03356198 -0.03348327 -0.03337235 -0.03322955
 -0.03306441 -0.03287751 -0.03267784 -0.03246583 -0.03224828 -0.03202543 -0.03180207 -0.0315771 -0.03135135 -0.03112164
 -0.03088355 -0.0306358 -0.03037356 -0.03010308 -0.02982514 -0.02955177 -0.02928886 -0.02904354 -0.02882051 -0.02861674
 -0.02843291 -0.02826216 -0.02810358 -0.02795345 -0.02781143 -0.0276747 -0.02754302 -0.02741115 -0.02727877 -0.02714061
 -0.02699701 -0.02684665 -0.02669038 -0.02653008 -0.02636631 -0.02620153 -0.02603474 -0.02586634 -0.02569282 -0.02551126
 -0.02531764 -0.02510753 -0.02488153 -0.02463738 -0.02438219 -0.02411745 -0.02384999 -0.02358242 -0.02331305 -0.02304257
 -0.02276309 -0.02247377 -0.0221738 -0.02186345 -0.0215568 -0.02125519 -0.02097815 -0.02072496 -0.02050319 -0.02030919
 -0.02013547 -0.0199792 -0.01983003 -0.01968887 -0.01955224 -0.0194231 -0.01930254 -0.01919498 -0.01910286 -0.01903251
 -0.01898748 -0.01897214 -0.01899024 -0.01903637 -0.01911188 -0.01920056 -0.01930122 -0.01939463 -0.0194791 -0.01954137
 -0.01958083 -0.01959477 -0.01958386 -0.01955412 -0.01950586 -0.01944459 -0.01936846 -0.01927438 -0.01916064 -0.01902058
 -0.01885719 -0.01867037 -0.01846801 -0.01825809 -0.01804683 -0.01784226 -0.01764345 -0.01745315 -0.01726465 -0.01707634
 -0.01688292 -0.0166823 -0.01647517 -0.01626097 -0.0160443 -0.01582551 -0.01560826 -0.01539274 -0.01518079 -0.01497245
 -0.01476915 -0.01457059 -0.01437629 -0.01418507 -0.01399303 -0.01379876 -0.01359722 -0.01338773 -0.0131669 -0.01293502
 -0.0126905 -0.01243587 -0.01217124 -0.01190286 -0.01163355 -0.0113689 -0.01111235 -0.01086263 -0.01062072 -0.01038059
 -0.01014125 -0.009900424 -0.009657595 -0.009415503 -0.009174268 -0.00893588 -0.00870026 -0.008466761 -0.008235661 -0.008008009
 -0.007784595 -0.007569149 -0.007361091 -0.007161939 -0.006968322 -0.006776189 -0.006581379 -0.006377442 -0.006163153 -0.005934925
 -0.005695018 -0.005443753 -0.005182859 -0.004913501 -0.004634381 -0.004345377 -0.004045378 -0.003733759 -0.003413562 -0.003084897
 -0.00275216 -0.002415575 -0.002074312 -0.0017279 -0.001370089 -0.001000699 -0.0006151016 -0.0002143656 0.0002002335 0.0006277023
 0.001064749 0.001511878 0.001968734 0.002435181 0.00291195 0.003395697 0.003885552 0.004374136 0.004859845 0.005328282
 0.005777205 0.006182219 0.006538267 0.006821988 0.007027143 0.007154291 0.00720099 0.00719828 0.007147757 0.007090538
 0.007028121 0.006990112 0.006975824 0.006997457 0.007051764 0.007134953 0.007241904 0.007358595 0.007482087 0.0076005
 0.007715499 0.007825137 0.007929464 0.008029935 0.008119685 0.008195816 0.008251888 0.008283262 0.00829381 0.008282646
 0.008259363 0.008225625 0.008185892 0.008140869 0.008090938 0.00803612 0.00798279 0.007931862 0.00789769 0.007880974
 0.007894397 0.007935669 0.008004572 0.008095542 0.008195416 0.008299401 0.008392634 0.008475715 0.008542317 0.008598298
 0.008645242 0.008691436 0.008740944 0.008802517 0.008880623 0.008979319 0.009103192 0.009238441 0.00938507 0.009519051
 0.009636985 0.009735958 0.009815499 0.009889397 0.00995819 0.01003224 0.01011101 0.01019718 0.01028839 0.01037893
 0.01046362 0.01052737 0.01056532 0.01056045 0.010516 0.01042612 0.01030429 0.01015818 0.01000242 0.009847522
 0.009700991 0.009568256 0.009451361 0.009351454 0.009270802 0.009209631 0.009171743 0.009157619 0.009169454 0.009207515
 0.009265763 0.009342977 0.009419591 0.009492866 0.009535035 0.009544455 0.009498601 0.009400601 0.009243785 0.009039696
 0.008801435 0.008548832 0.00831012 0.008101217 0.007948186 0.007847217 0.007806259 0.00780735 0.007845519 0.007906285
 0.00798495 0.008072679 0.00816721 0.008263526 0.008359899 0.008465079 0.008579283 0.00872431 0.008900468 0.009115053
 0.009364937 0.009631382 0.009912426 0.01018875 0.01046414 0.01073885 0.01101649 0.01130488 0.01160258 0.01191088
 0.01222788 0.01255184 0.01288317 0.01322298 0.0135668 0.0139147 0.0142563 0.01458765 0.01490776 0.01521346
 0.01552271 0.01583666 0.01617524 0.01654018 0.01692877 0.01733999 0.01775266 0.01816599 0.01856443 0.01894833
 0.01931316 0.01965454 0.0199607 0.02022249 0.02041626 0.02054043 0.02057917 0.020547 0.02044853 0.02030473
 0.02012924 0.01993618 0.01973368 0.01953218 0.01933461 0.01915456 0.01899508 0.01886423 0.0187646 0.01868591
 0.018628 0.01856848 0.01850652 0.01842707 0.01833154 0.01822313 0.01810442 0.01798875 0.01787569 0.01777253
 0.01767366 0.01757204 0.01746292 0.01733389 0.01719278 0.01703805 0.01689101 0.01676497 0.01667209 0.01662767
 0.01660707 0.01661228 0.01659129 0.01653391 0.01640878 0.01620716 0.01595357 0.01564803 0.01534883 0.01505804
 0.01481119 0.01460417 0.01442183 0.01425755 0.01407279 0.01386888 0.01362706 0.01335828 0.01307432 0.01278473
 0.01250949 0.01224624 0.0120014 0.01176551 0.01153276 0.0113021 0.01106855 0.01084584 0.01063504 0.01045659
 0.01031467 0.0102228 0.01018462 0.01019315 0.0102491 0.01031422 0.01038793</values></Ydata></AB><ScSm><Ydata ylabel="Single channel"><values byteorder="INTEL" format="FLOAT32" numvalues="1814"> 0.08548804 0.08560008 0.0857299 0.08588572 0.08605865 0.0862302 0.08638521 0.0865203 0.08664036 0.08674794
 0.0868438 0.08694006 0.08705954 0.08721435 0.08739105 0.08755969 0.08769563 0.08779981 0.08790272 0.08803537
 0.0881867 0.08830141 0.0883328 0.08829479 0.08825333 0.08826645 0.08834707 0.08849795 0.08874793 0.08908679
 0.08937848 0.08944951 0.08930416 0.0891562 0.0891927 0.08938704 0.08958323 0.08966905 0.08962309 0.08950241
 0.08946179 0.08970208 0.09028824 0.09100461 0.09142235 0.09114411 0.09006726 0.08853089 0.08723827 0.08688889
 0.08767215 0.08905636 0.0901873 0.09057675 0.0903661 0.08996296 0.08961781 0.08941768 0.08946969 0.08987867
 0.09057359 0.09124435 0.09146356 0.09096383 0.08994019 0.08901815 0.08874582 0.08916799 0.09001411 0.09102499
 0.09171179 0.09111349 0.08864749 0.08539905 0.08378322 0.08531518 0.08902553 0.09247026 0.0939568 0.09343649
 0.09179598 0.09007585 0.08920122 0.0896623 0.09118909 0.09301995 0.09451031 0.09530994 0.09520116 0.09419698
 0.09274772 0.09155127 0.09116651 0.09185461 0.09347311 0.09531152 0.09637353 0.09616236 0.09505257 0.09380116
 0.09299192 0.09300537 0.09403838 0.09586902 0.0978834 0.09953289 0.1006197 0.1011694 0.1012893 0.1011471
 0.1008909 0.1006311 0.1005555 0.100832 0.1012803 0.1014104 0.1009685 0.1002814 0.09992689 0.1001394
 0.1006077 0.1008499 0.1006916 0.1001768 0.09907786 0.0970072 0.09421211 0.09169722 0.09024463 0.08986618
 0.0904392 0.09203877 0.09417118 0.09554039 0.09534892 0.09436915 0.09410757 0.09518178 0.09693826 0.09841898
 0.09929498 0.09992111 0.1007764 0.1019173 0.1028328 0.102812 0.1016626 0.1001684 0.09957117 0.1003712
 0.1018454 0.1029474 0.1034141 0.103736 0.1042886 0.1047841 0.1045198 0.1031276 0.101206 0.1001144
 0.1008526 0.1030704 0.1052491 0.1058507 0.1044103 0.1017858 0.09943745 0.09838076 0.0987892 0.1004056
 0.1029017 0.105727 0.1080291 0.1090859 0.1088029 0.1076889 0.1063029 0.1047368 0.1028172 0.1009133
 0.1001469 0.1013401 0.103956 0.1065249 0.1079998 0.1083366 0.1078944 0.1067249 0.1046653 0.1020695
 0.1001339 0.1000114 0.1015012 0.1031006 0.103604 0.1032292 0.1029311 0.1030924 0.1033143 0.1032174
 0.1029957 0.1031318 0.103782 0.1045855 0.1050553 0.1050321 0.1047205 0.1043997 0.1041577 0.103841
 0.103287 0.1026834 0.1025522 0.1031996 0.1043037 0.1052384 0.1056889 0.1057764 0.1056819 0.105343
 0.1045703 0.1034291 0.1024214 0.1021272 0.1026397 0.1034963 0.1041687 0.1044528 0.1044118 0.1041781
 0.1038656 0.1035383 0.1032249 0.1029991 0.1029672 0.1031238 0.1033102 0.1033721 0.1032849 0.1030973
 0.1028318 0.1024875 0.1021011 0.1017641 0.1015656 0.1015213 0.1015721 0.1016444 0.1016795 0.1016233
 0.1014458 0.1011816 0.1009049 0.1006611 0.1004528 0.1002831 0.100172 0.100121 0.1000916 0.1000334
 0.09992754 0.09978698 0.0996235 0.09943458 0.09922428 0.09901801 0.09884892 0.09873515 0.0986654 0.09860628
 0.09853731 0.09847356 0.09843217 0.09838741 0.09829272 0.09814207 0.09797942 0.09785107 0.09777078 0.09772348
 0.09768038 0.09760857 0.09748068 0.09729448 0.09709331 0.09695123 0.09691599 0.09697244 0.0970722 0.0971766
 0.0972581 0.09729412 0.09728608 0.09726169 0.0972403 0.09721348 0.09716799 0.09711332 0.09708098 0.09710041
 0.09717083 0.09725824 0.09732585 0.09736018 0.09736593 0.0973576 0.09736197 0.09739806 0.09744479 0.09745781
 0.09742989 0.09740622 0.09742838 0.09748462 0.09752733 0.09752857 0.09750736 0.09750456 0.09753904 0.09759393
 0.09764221 0.09767543 0.09770599 0.09774668 0.09778839 0.09780079 0.0977641 0.09769684 0.09763771 0.0976046
 0.09758858 0.09758412 0.09759998 0.09763686 0.09767276 0.09768018 0.0976532 0.09761225 0.09758113 0.09756093
 0.09753176 0.09747931 0.09741139 0.09734607 0.0972925 0.0972464 0.09719718 0.09713542 0.09705718 0.09696455
 0.09686293 0.09675632 0.09664443 0.09652713 0.09641443 0.09632594 0.09626833 0.09621488 0.0961206 0.09596373
 0.09576672 0.09557439 0.09541547 0.09528568 0.09516211 0.09502856 0.09488748 0.09475096 0.09462707 0.09451585
 0.09441333 0.09431605 0.09422707 0.09416068 0.09413303 0.09414027 0.09415248 0.09413905 0.09409836 0.09405573
 0.09403593 0.0940448 0.09407349 0.09411104 0.09415441 0.0942101 0.09428342 0.09436509 0.09443742 0.09449719
 0.09456247 0.09465349 0.09477585 0.09492335 0.09508374 0.09523907 0.09537502 0.09549776 0.09563161 0.0957937
 0.09597804 0.09616877 0.09636082 0.09656069 0.09677415 0.09700172 0.09724462 0.09750749 0.0977928 0.09809589
 0.09840639 0.0987145 0.09901765 0.09932406 0.09964864 0.1000017 0.1003793 0.1007651 0.1011438 0.1015131
 0.1018827 0.1022609 0.102647 0.1030377 0.1034372 0.1038532 0.1042837 0.1047172 0.1051451 0.1055701
 0.1060007 0.106439 0.1068793 0.1073165 0.1077561 0.1082093 0.1086767 0.1091407 0.1095807 0.1099952
 0.1104024 0.1108208 0.1112541 0.1116907 0.1121131 0.1125093 0.1128842 0.1132586 0.1136491 0.1140511
 0.1144474 0.1148348 0.1152298 0.1156451 0.1160663 0.1164598 0.1168057 0.1171179 0.1174287 0.1177545
 0.1180831 0.1183934 0.1186824 0.118965 0.1192533 0.1195466 0.1198436 0.1201513 0.1204734 0.1207965
 0.1211007 0.1213803 0.1216469 0.1219099 0.1221659 0.1224059 0.1226269 0.1228358 0.1230448 0.1232617
 0.1234834 0.1237037 0.1239288 0.1241756 0.1244538 0.1247574 0.1250775 0.1254134 0.1257643 0.1261196
 0.1264693 0.1268214 0.1271938 0.1275835 0.1279574 0.1282836 0.1285642 0.1288248 0.1290809 0.1293303
 0.1295747 0.1298262 0.1300878 0.1303374 0.1305377 0.130659 0.1306986 0.1306843 0.130656 0.1306393
 0.1306433 0.1306823 0.1307901 0.1310049 0.1313411 0.1317763 0.1322582 0.1327235 0.133118 0.1334037
 0.1335524 0.133545 0.1333812 0.1330822 0.1326692 0.132139 0.1314681 0.1306367 0.1296412 0.1284817
 0.1271504 0.1256444 0.1239969 0.1222958 0.1206705 0.1192577 0.118165 0.1174521 0.1171265 0.1171461
 0.1174206 0.1178182 0.1181839 0.1183663 0.1182447 0.1177529 0.1168935 0.1157312 0.1143644 0.1128959
 0.1114163 0.1099984 0.108697 0.107566 0.1066898 0.1061981 0.1062405 0.1069369 0.1083344 0.1103746
 0.1128802 0.1155838 0.1182129 0.1205854 0.1226459 0.124432 0.1260154 0.1274657 0.1288376 0.1301626
 0.1314446 0.1326702 0.1338247 0.1348989 0.1358813 0.13675 0.1374729 0.1380122 0.1383328 0.1384204
 0.1383032 0.1380593 0.1377959 0.137603 0.1375028 0.1374295 0.1372622 0.1368933 0.1362832 0.1354769
 0.1346008 0.133868 0.133579 0.1340709 0.1355939 0.1381661 0.1415208 0.1452072 0.1487816 0.1519522
 0.1546085 0.156774 0.158544 0.160032 0.1613322 0.1625054 0.163587 0.1645975 0.1655489 0.166449
 0.1673052 0.1681263 0.1689212 0.1696952 0.1704463 0.1711685 0.1718614 0.1725348 0.1732013 0.1738651
 0.1745203 0.1751588 0.1757802 0.176392 0.176999 0.1775952 0.1781721 0.1787309 0.1792822 0.1798345
 0.180389 0.1809425 0.181488 0.1820166 0.1825225 0.1830072 0.183476 0.1839333 0.1843829 0.1848302
 0.1852762 0.1857141 0.1861344 0.1865373 0.1869343 0.1873369 0.1877456 0.1881513 0.1885461 0.1889317
 0.1893161 0.1897065 0.190103 0.1904998 0.1908922 0.1912838 0.1916841 0.1920973 0.1925169 0.1929335
 0.1933448 0.1937547 0.1941658 0.1945779 0.1949904 0.1954027 0.1958123 0.1962154 0.1966106 0.1969998
 0.1973863 0.197772 0.1981562 0.1985377 0.1989161 0.1992936 0.1996724 0.2000526 0.2004319 0.2008092
 0.2011876 0.2015716 0.2019617 0.2023538 0.2027415 0.2031193 0.2034868 0.2038505 0.204219 0.2045961
 0.20498 0.2053689 0.2057622 0.2061572 0.2065491 0.2069353 0.2073167 0.2076963 0.2080767 0.208458
 0.2088387 0.209219 0.2096007 0.2099828 0.2103615 0.2107361 0.2111097 0.2114852 0.2118627 0.2122421
 0.2126225 0.213002 0.2133785 0.2137519 0.2141223 0.2144905 0.2148577 0.2152236 0.2155864 0.2159466
 0.2163065 0.2166665 0.2170241 0.2173788 0.2177342 0.2180948 0.2184613 0.218828 0.2191877 0.2195396
 0.219889 0.2202403 0.2205941 0.220951 0.2213113 0.2216715 0.2220277 0.2223809 0.2227354 0.2230933
 0.223453 0.2238113 0.2241663 0.2245184 0.2248691 0.2252184 0.2255688 0.2259257 0.2262901 0.2266536
 0.2270091 0.2273594 0.2277119 0.22807 0.2284321 0.228794 0.2291529 0.229512 0.2298773 0.2302499
 0.2306251 0.2309986 0.2313671 0.2317272 0.2320802 0.232432 0.2327852 0.2331381 0.2334894 0.2338383
 0.2341822 0.234522 0.2348644 0.235214 0.2355707 0.2359337 0.2363007 0.2366684 0.2370378 0.2374128
 0.2377907 0.2381656 0.238539 0.2389149 0.2392916 0.2396661 0.2400395 0.2404116 0.2407812 0.2411515
 0.2415271 0.2419085 0.2422966 0.2426918 0.2430883 0.2434787 0.2438632 0.2442457 0.2446276 0.2450109
 0.2453977 0.2457852 0.2461714 0.2465595 0.2469486 0.2473311 0.2477075 0.2480868 0.2484704 0.2488539
 0.2492363 0.2496164 0.2499911 0.2503659 0.2507503 0.2511423 0.2515346 0.2519277 0.2523213 0.2527077
 0.2530856 0.2534599 0.25383 0.2541963 0.2545673 0.2549447 0.2553187 0.2556871 0.256054 0.2564088
 0.2567217 0.256928 0.2568562 0.2561445 0.2541914 0.2501696 0.2431932 0.2326809 0.2187195 0.2021534
 0.1843376 0.1667072 0.1503923 0.1360833 0.1241381 0.1147365 0.1079793 0.1039804 0.1029452 0.1052786
 0.1117319 0.1229633 0.137893 0.1522624 0.16022 0.1587601 0.1504546 0.1411162 0.1350551 0.132959
 0.1333664 0.1348366 0.136797 0.1393802 0.1429323 0.1475044 0.1528008 0.1586792 0.1654388 0.173373
 0.182199 0.1911638 0.1996779 0.2077003 0.2155102 0.2232325 0.2306521 0.2374201 0.243322 0.2483498
 0.252633 0.2563532 0.2596737 0.2627003 0.2654991 0.268104 0.2704688 0.2724444 0.2738617 0.2746674
 0.2749876 0.275068 0.275138 0.2753115 0.2756025 0.2759957 0.2764796 0.277042 0.2776724 0.2783633
 0.2790973 0.2798491 0.2806002 0.2813385 0.2820483 0.2827207 0.2833584 0.2839651 0.2845407 0.2850896
 0.285617 0.2861215 0.2866044 0.2870762 0.2875445 0.2880075 0.2884626 0.2889095 0.2893452 0.2897652
 0.2901655 0.2905426 0.2908992 0.2912479 0.2915995 0.291953 0.2923036 0.2926505 0.2929929 0.2933289
 0.2936611 0.2939926 0.2943221 0.2946477 0.2949698 0.2952875 0.2955993 0.2959093 0.2962227 0.2965402
 0.2968606 0.297184 0.2975092 0.2978337 0.2981556 0.2984734 0.2987886 0.2991115 0.2994536 0.2998122
 0.3001734 0.3005283 0.3008787 0.3012295 0.3015858 0.3019505 0.3023192 0.3026852 0.3030494 0.3034158
 0.3037788 0.3041254 0.3044496 0.3047569 0.3050595 0.3053681 0.3056853 0.3060063 0.3063279 0.3066525
 0.3069822 0.3073152 0.307649 0.3079814 0.3083116 0.308647 0.3090003 0.3093739 0.3097569 0.3101389
 0.3105193 0.3109004 0.3112838 0.3116725 0.3120648 0.3124494 0.3128163 0.3131718 0.3135384 0.3139392
 0.3143784 0.3148348 0.315279 0.3156978 0.3160993 0.3165005 0.3169159 0.317343 0.3177514 0.3181061
 0.3184179 0.3187519 0.3191663 0.3196558 0.3201658 0.3206488 0.3210959 0.3215227 0.321943 0.3223532
 0.322738 0.3230857 0.3234088 0.323751 0.3241603 0.3246406 0.3251414 0.3256088 0.3260297 0.3264188
 0.3267933 0.327167 0.3275334 0.327845 0.3280607 0.3282349 0.3285095 0.3289781 0.3295829 0.3301779
 0.3306753 0.3310977 0.3314978 0.331887 0.3322519 0.3325692 0.3327631 0.3327414 0.3325673 0.3325238
 0.3328832 0.3336303 0.3344933 0.3352194 0.3357437 0.3361334 0.3364722 0.3368023 0.3370989 0.3372757
 0.3372766 0.3372023 0.3372923 0.3377067 0.3383463 0.3389617 0.3394175 0.3397668 0.3401084 0.3404737
 0.3408145 0.3409865 0.3408079 0.3403063 0.3398895 0.3400845 0.3410278 0.3423086 0.3433792 0.344044
 0.3444651 0.3447811 0.3449019 0.3446777 0.3440833 0.3432267 0.3424022 0.3421417 0.3428686 0.3443586
 0.345827 0.3467139 0.3471684 0.3476585 0.3483614 0.3490824 0.3495769 0.3497726 0.3497316 0.3495083
 0.3491224 0.3487185 0.3486567 0.3492566 0.350423 0.351675 0.3525983 0.3531696 0.3535566 0.3536284
 0.3528343 0.3508539 0.3484422 0.3472384 0.3483113 0.3510367 0.3537742 0.3554878 0.3563115 0.3567846
 0.3571493 0.3572826 0.3566752 0.3545948 0.3510799 0.347816 0.3471163 0.349642 0.3536634 0.3567372
 0.3575759 0.3563169 0.3539015 0.3516368 0.3507319 0.3516408 0.3538686 0.3564756 0.3586452 0.3599077
 0.3601653 0.3596413 0.3587857 0.3581584 0.35808 0.3581523 0.3575012 0.355909 0.3542271 0.3530568
 0.3516374 0.3490902 0.3463884 0.3457519 0.3479019 0.351019 0.3528493 0.3530056 0.3525584 0.3518646
 0.3496824 0.3447967 0.3382511 0.333306 0.3326151 0.3355335 0.3387075 0.339308 0.3372186 0.3341304
 0.3311988 0.3279471 0.3232467 0.3171763 0.3116975 0.3090093 0.309191 0.3101482 0.3099372 0.3081079
 0.304692 0.2997313 0.2948822 0.293738 0.2985591 0.307319 0.3154154 0.3195741 0.3188406 0.313226
 0.3040563 0.2953822 0.2921551 0.2956782 0.3021164 0.3062413 0.3055818 0.3005177 0.2921072 0.2816054
 0.2715597 0.2655126 0.2657327 0.2713835 0.2787151 0.2827263 0.2797324 0.2703021 0.2599167 0.2548449
 0.256309 0.2597414 0.2601913 0.2569791 0.2526513 0.2494867 0.2482262 0.248554 0.2494673 0.2500447
 0.2501488 0.2491652 0.2447107 0.2352988 0.2243432 0.2183588 0.220236 0.2268879 0.2342129 0.2411982
 0.2476886 0.251449 0.2505557 0.2472672 0.2465993 0.2509663 0.2578582 0.2630054 0.2646794 0.2643822
 0.2640306 0.2636097 0.2621852 0.2604808 0.2608858 0.2644889 0.2693818 0.2727356 0.2736409 0.2731066
 0.2721637 0.271012 0.2695386 0.2677304 0.2656341 0.2633734 0.2611395 0.2589826 0.2567826 0.254497
 0.2520874 0.2489905 0.2441851 0.2375702 0.231124 0.2275738 0.2275861 0.2293594 0.2312303 0.2328914
 0.233242 0.2294987 0.2208496 0.2117102 0.2086803 0.2141655 0.2244482 0.2338024 0.2389664 0.2395472
 0.23612 0.2300005 0.2247303 0.2254697 0.2350074 0.2508259 0.2673396 0.2806032 0.2898208 0.2952141
 0.2965497 0.2942837 0.2908653 0.2897966 0.2932488 0.3006451 0.3091293 0.3148737 0.3147171 0.3087789
 0.302294 0.3024547 0.3112059 0.3225951 0.3293213 0.3304065 0.33016 0.331363 0.3328519 0.3332764
 0.333799 0.336027 0.339279 0.3411153 0.3395176 0.333742 0.3242645 0.3133074 0.3045506 0.3004078
 0.2996863 0.2993095 0.2976844 0.2946346 0.2893359 0.2815364 0.2744854 0.2731156 0.2783993 0.2859631
 0.2910954 0.2931306 0.2941289 0.2950066 0.2943853 0.2908803 0.2855735 0.2815574 0.2809017 0.2826796
 0.2844407 0.2848105 0.2837319 0.2810106 0.2763274 0.2707904 0.2670407 0.2669664 0.2697814 0.2728873
 0.274347 0.2741183 0.2732622 0.2726968 0.2727418 0.2732521 0.2740046 0.275268 0.2778625 0.2821558
 0.2871625 0.2913172 0.2941604 0.2966682 0.2998401 0.3034942 0.3066437 0.3086902 0.3100149 0.3115525
 0.3139361 0.3169554 0.3197086 0.3213423 0.3218329 0.3220831 0.3231086 0.3250867 0.3273264 0.329122
 0.3304013 0.3315562 0.3329451 0.3346301 0.3363495 0.3376875 0.3385006 0.3392166 0.3404801 0.3424393
 0.3445641 0.3462047 0.3471505 0.3475938 0.3477389 0.3476016 0.347136 0.3464216 0.3456676 0.3450585
 0.3446318 0.3443071 0.3439962 0.3436661 0.3433352 0.3430585 0.3429101 0.3429404 0.3431441 0.3434756
 0.3438756 0.3442712 0.3445869 0.3447877 0.3448937 0.3449314 0.3448849 0.3447059 0.3443471 0.3437661
 0.3429138 0.3417388 0.3401933 0.3382207 0.3357656 0.3328842 0.3299142 0.3275054 0.3263485 0.326748
 0.3284059 0.3306177 0.3326993 0.3342929 0.335386 0.336141 0.3367274 0.3372479 0.3377385 0.3381919
 0.3385886 0.3389245 0.3392128 0.3394649 0.3396803 0.3398533 0.3399817 0.3400639 0.3400925 0.3400526
 0.3399253 0.3396944 0.3393502 0.3388844 0.338284 0.3375329 0.3366215 0.3355606 0.3343884 0.333158
 0.3319122 0.3306679 0.3294187 0.3281375 0.3267794 0.3252832 0.3235664 0.3215448 0.3192118 0.3167181
 0.3143163 0.3121695 0.3102227 0.3082844 0.3062062 0.3039621 0.3015975 0.2991613 0.2966861 0.2941921
 0.2916872 0.2891667 0.2866148 0.2840115 0.2813423 0.2786041 0.275799 0.2729331 0.2700252 0.2671058
 0.264183 0.2611985 0.2580191 0.2544721 0.2503924 0.2456534 0.2401949 0.2340626 0.2274365 0.2206005
 0.2138594 0.2074673 0.20161 0.1964204 0.1919888 0.1883625 0.1855576 0.1835826 0.1824544 0.1821925
 0.1828001 0.1842499 0.1864744 0.189355 0.1927209 0.1963695 0.2000968 0.2037259 0.2071414 0.2103231
 0.2133359 0.2162569 0.2191048 0.2218373 0.2244028 0.2267756 0.228946 0.2309024 0.2326402 0.2341861
 0.2356014 0.2369489 0.2382519 0.2394847 0.2406005 0.2415672 0.2423794 0.2430424 0.2435545 0.2439103
 0.2441256 0.2442571 0.2443967 0.2446444 0.2450766 0.245726 0.2465815 0.2475978 0.2487102 0.2498575
 0.2510095 0.2521819 0.2534269 0.2548085 0.256376 0.2581456 0.2601005 0.2622024 0.2643973 0.266609
 0.2687401 0.2706922 0.2723939 0.2738174 0.2749745 0.2758989 0.2766305 0.2772103 0.2776792 0.2780707
 0.2784061 0.278695 0.2789283 0.2790704 0.2790684 0.2788798 0.2784948 0.2779395 0.2772563 0.2764741
 0.2755932 0.2746021 0.2735052 0.2723349 0.271154 0.2700504 0.2691137 0.2683987 0.2679067 0.267594
 0.2673883 0.267204 0.2669593 0.2665875 0.2660443 0.2653088 0.264373 0.2632264 0.2618564 0.2602639
 0.2584705 0.2565151 0.2544436 0.2522952 0.2500871 0.2478126 0.24545 0.2429769 0.2403964 0.2377638
 0.235173 0.2327026 0.2303824 0.2282044 0.2261464 0.2241852 0.2223027 0.2204833 0.2187096 0.2169757
 0.2153024 0.213721 0.2122467 0.2108779 0.2096128 0.2084578 0.207426 0.2065278 0.2057558 0.2050844
 0.2044866 0.2039461 0.2034629 0.2030635 0.2027891 0.2026463 0.2025734 0.2024721 0.2022671 0.2019466
 0.2015665 0.201213 0.2009431 0.2007582 0.2006234 0.200481 0.2002439 0.1998088 0.1990844 0.1980066
 0.1965472 0.194728 0.1926194 0.1903303 0.1880087 0.1858235 0.1839109 0.1823367 0.1811 0.1801431
 0.1793717 0.1787133 0.1781698 0.1778091 0.1777057 0.1778603 0.178142 0.1783468 0.1783787 0.1783592
 0.1785206 0.1790074 0.1797888 0.1807116 0.1816039 0.1823549 0.1829237 0.1833009 0.183498 0.1835593
 0.1835307 0.1834156 0.1831907 0.1828426 0.1823734 0.1818014 0.1811597 0.1804611 0.1796793 0.1787881
 0.177787 0.176675 0.1754474 0.1741106 0.1726505 0.1710296 0.1692946 0.1676592 0.1664217 0.1658018
 0.1658315 0.1663426 0.1670801 0.1678705 0.1686434 0.1693095 0.1697745 0.1701434 0.1707881 0.1720924
 0.1741159 0.1765097 0.1787542 0.1804837 0.1815926 0.1821038 0.1820621 0.1815356 0.1805798 0.1791914
 0.1773882 0.1752797 0.1729959 0.1706477 0.168381 0.1663334 0.1645524 0.1630475 0.1618315 0.16092
 0.1603957 0.1599856 0.1580795 0.1523091 0.1429044 0.1348388 0.1340528 0.1410393 0.1501454 0.1556385
 0.1565675 0.1553683 0.1540652 0.1531141 0.1524587 0.1521719 0.1522919 0.1526903 0.1531222 0.1533329
 0.1532047 0.1527446 0.1518337 0.1499978 0.1464029 0.140156 0.1309763 0.1198145 0.1086429 0.09939943
 0.09303587 0.08934435 0.08738606 0.08613254 0.0850473 0.08427452 0.08429821 0.08544452 0.08769669 0.09083778
 0.09460166 0.09865429 0.1025528 0.105882 0.1084661 0.1103734 0.1117165 0.1125353 0.1128585 0.1127541
 0.1122979 0.1115591 0.1106109 0.1094989 0.1082176 0.106767 0.1052363 0.1038207 0.1027393 0.1020951
 0.1018095 0.1017149 0.1016982 0.1017314 0.1018144 0.1019478 0.1021333 0.1023676 0.1026513 0.1029972
 0.1033987 0.1037994 0.1041279 0.1043502 0.1044737 0.1045176 0.1044805 0.1043415 0.1041113 0.1038551
 0.1035925 0.1031886 0.1024505 0.1013715 0.1002334 0.09944247 0.0992571 0.09962641 0.1002453 0.10078
 0.101076 0.1011801 0.1011989 0.1011536</values></Ydata></ScSm><ScRf><Ydata ylabel="Single channel"><values byteorder="INTEL" format="FLOAT32" numvalues="1820"> 0.06974689 0.06987546 0.06999135 0.07009397 0.07018684 0.07027926 0.07038309 0.07050435 0.07063872 0.07077333
 0.07089458 0.07099795 0.07108881 0.07117268 0.07125224 0.07133691 0.07144317 0.07157752 0.07172479 0.07185809
 0.07195926 0.07203453 0.07211325 0.07222068 0.07234497 0.07243898 0.0724646 0.07243375 0.0724002 0.07241042
 0.07247394 0.07259255 0.0727908 0.07306208 0.07329565 0.07334857 0.07322363 0.07309638 0.0731206 0.07327482
 0.07343243 0.07350306 0.07346857 0.07337233 0.07333872 0.07353354 0.07401279 0.07459999 0.07494146 0.07471037
 0.07382356 0.07256047 0.07149847 0.07121117 0.07185246 0.07298347 0.07390314 0.07421517 0.07404108 0.07371666
 0.0734444 0.07329156 0.07334235 0.07367955 0.07424385 0.07478383 0.07495347 0.07453565 0.0736904 0.07293141
 0.07270971 0.07306121 0.07375986 0.07458881 0.07514572 0.07464465 0.07261217 0.06994408 0.06862515 0.0698964
 0.07295549 0.07578989 0.07700767 0.07657059 0.07521191 0.07379293 0.07307713 0.0734636 0.07472327 0.07622634
 0.07744463 0.07809352 0.07799681 0.07716659 0.0759726 0.0749865 0.07466819 0.07523684 0.07657807 0.07810232
 0.0789807 0.07880151 0.07787935 0.07684465 0.07617836 0.07618946 0.07703859 0.07854619 0.08020969 0.08157592
 0.08247785 0.08293292 0.08302885 0.08290558 0.08268857 0.08247139 0.08240934 0.08263962 0.08301276 0.0831252
 0.08276951 0.0822154 0.08193568 0.08211786 0.08250341 0.08269884 0.08256531 0.08214052 0.08123514 0.07952911
 0.07722808 0.07516071 0.07396889 0.07365972 0.07413362 0.07545526 0.07721657 0.07834554 0.07818532 0.077378
 0.0771694 0.07806638 0.07952484 0.08075187 0.08147763 0.08199868 0.08271293 0.08366637 0.08443455 0.0844284
 0.08348891 0.0822638 0.08177824 0.08244507 0.08366843 0.0845872 0.08498642 0.0852704 0.08574624 0.08617507
 0.08597931 0.08486003 0.0833142 0.08246013 0.08311453 0.08498178 0.08680721 0.08732414 0.0861543 0.08401342
 0.08211345 0.08129305 0.08169203 0.08309644 0.08523538 0.08765256 0.08963875 0.09059086 0.09042718 0.08957124
 0.0884929 0.0872699 0.08575204 0.08424354 0.08368672 0.08477888 0.08707526 0.08934301 0.09070019 0.0911051
 0.09085381 0.08998285 0.08835207 0.08626652 0.08474907 0.08478019 0.08618288 0.08767566 0.08823773 0.08806132
 0.08795839 0.08824623 0.08857596 0.08862405 0.08856681 0.08883052 0.08955331 0.09041712 0.09099031 0.09112932
 0.09101367 0.09089153 0.09084313 0.09073386 0.09042125 0.09007094 0.09014116 0.09089642 0.09204827 0.09304482
 0.09361421 0.09386925 0.09396949 0.09385315 0.09334402 0.0924973 0.09176395 0.09167057 0.09230837 0.09326486
 0.09406278 0.09451613 0.09468055 0.09467033 0.09458195 0.09447271 0.09437467 0.09435752 0.09451454 0.09483806
 0.09518657 0.09542432 0.09553054 0.09554722 0.09549125 0.09535876 0.09518231 0.09504661 0.09503473 0.09516112
 0.09537081 0.09559713 0.09579036 0.09590262 0.09590248 0.09581689 0.09571716 0.09565335 0.09563081 0.09564675
 0.09571132 0.095823 0.09594973 0.09605136 0.0961123 0.0961412 0.09614684 0.09612984 0.09609684 0.09606866
 0.09607144 0.09612075 0.0962072 0.09630165 0.09638992 0.09649267 0.09662467 0.0967478 0.0968025 0.09678205
 0.09674197 0.09673852 0.09678444 0.09685972 0.09693716 0.09698986 0.09699297 0.09694093 0.09687051 0.09684989
 0.09692781 0.09709965 0.09732836 0.09757584 0.09780358 0.0979766 0.09809035 0.09817491 0.09825741 0.09833623
 0.0983999 0.09845691 0.09853889 0.09867604 0.0988663 0.09907116 0.09924744 0.09937759 0.09946978 0.09954959
 0.09965402 0.09980126 0.09995683 0.1000621 0.100109 0.1001558 0.1002547 0.1003888 0.1004986 0.1005531
 0.1005785 0.1006222 0.1007041 0.1008074 0.1009086 0.101005 0.1011121 0.1012367 0.1013543 0.1014199
 0.1014124 0.1013643 0.1013313 0.1013376 0.1013681 0.1014081 0.1014644 0.1015422 0.101621 0.1016691
 0.1016772 0.101668 0.1016699 0.1016855 0.1016906 0.1016635 0.1016086 0.1015502 0.1015103 0.1014938
 0.1014876 0.1014707 0.1014288 0.1013624 0.1012838 0.1012056 0.1011317 0.101063 0.1010132 0.1010062
 0.1010422 0.101071 0.1010213 0.100868 0.1006602 0.1004749 0.1003505 0.1002674 0.1001795 0.1000573
 0.09990468 0.0997466 0.09960491 0.09948398 0.09937467 0.09926831 0.0991682 0.09909047 0.09904829 0.09902854
 0.09899074 0.09890164 0.09876935 0.09863289 0.09852266 0.09844193 0.09837979 0.09832774 0.09828563 0.09826203
 0.09826376 0.09828007 0.09828749 0.09827583 0.09825985 0.09826249 0.09829873 0.09837373 0.09847672 0.09857535
 0.09863736 0.09866589 0.0986983 0.09876556 0.0988654 0.09897845 0.09909597 0.09922346 0.09936664 0.09952424
 0.09969345 0.09987561 0.1000745 0.1002902 0.1005151 0.1007381 0.1009535 0.1011686 0.1013985 0.1016527
 0.1019267 0.1022052 0.1024753 0.1027367 0.1030003 0.1032741 0.1035553 0.1038379 0.1041257 0.1044291
 0.1047516 0.1050844 0.1054157 0.1057402 0.1060605 0.1063818 0.106707 0.1070363 0.1073749 0.1077326
 0.1081072 0.1084723 0.1087968 0.1090786 0.1093498 0.1096463 0.1099792 0.11033 0.1106666 0.1109655
 0.1112323 0.1114978 0.1117871 0.1120944 0.1123994 0.1127032 0.1130323 0.113402 0.1137842 0.1141254
 0.114396 0.1146174 0.1148369 0.1150789 0.1153279 0.1155583 0.11577 0.1159847 0.1162139 0.1164488
 0.1166846 0.1169345 0.1172086 0.1174905 0.1177506 0.1179781 0.1181848 0.1183823 0.1185658 0.1187214
 0.1188416 0.118936 0.1190291 0.1191427 0.1192784 0.1194228 0.1195685 0.1197212 0.1198866 0.1200644
 0.1202583 0.1204792 0.1207293 0.1209902 0.1212413 0.1214889 0.1217594 0.122058 0.1223479 0.1225891
 0.1227847 0.1229711 0.1231719 0.1233843 0.1236073 0.1238557 0.1241408 0.1244508 0.1247593 0.1250477
 0.1253215 0.1256053 0.1259146 0.1262292 0.1265061 0.1267223 0.1268978 0.1270762 0.1272905 0.1275472
 0.1278327 0.1281253 0.1284059 0.1286588 0.1288669 0.129016 0.1291112 0.1291781 0.1292362 0.1292721
 0.1292482 0.1291327 0.1289128 0.1285813 0.1281263 0.1275455 0.1268673 0.1261561 0.1254982 0.1249819
 0.1246785 0.1246297 0.1248395 0.1252726 0.125858 0.1265017 0.1271058 0.1275826 0.1278596 0.127887
 0.127652 0.1271842 0.1265416 0.1257874 0.1249764 0.1241497 0.123339 0.1225836 0.1219577 0.1215761
 0.1215669 0.1220274 0.1229884 0.1243892 0.1260718 0.1278189 0.1294378 0.1308329 0.1320102 0.1330237
 0.1339248 0.134749 0.1355228 0.1362635 0.1369747 0.137651 0.1382877 0.1388832 0.1394336 0.1399295
 0.1403568 0.1406988 0.1409445 0.1410998 0.1411872 0.1412311 0.1412477 0.1412487 0.141241 0.1412109
 0.1411148 0.140899 0.1405338 0.1400366 0.1394775 0.1389807 0.1387141 0.1388525 0.1395057 0.1406502
 0.1421237 0.1437004 0.1451883 0.1464759 0.1475233 0.1483415 0.1489798 0.1495028 0.1499618 0.1503826
 0.1507749 0.1511448 0.1514976 0.1518385 0.152173 0.1525072 0.1528475 0.1531973 0.1535508 0.1538961
 0.1542263 0.154549 0.1548803 0.1552286 0.1555857 0.1559356 0.1562728 0.1566094 0.1569582 0.1573129
 0.157654 0.157973 0.1582814 0.1585963 0.158926 0.1592691 0.1596165 0.1599535 0.1602685 0.1605638
 0.1608508 0.1611369 0.1614213 0.1617039 0.1619888 0.1622778 0.1625659 0.162848 0.1631254 0.1634032
 0.1636804 0.1639489 0.1642039 0.1644515 0.1647035 0.164964 0.165226 0.1654809 0.1657287 0.1659775
 0.1662358 0.1665042 0.1667754 0.1670401 0.167294 0.1675399 0.1677838 0.1680298 0.1682792 0.1685324
 0.1687898 0.1690495 0.1693073 0.1695602 0.1698098 0.1700599 0.1703119 0.1705649 0.1708182 0.1710709
 0.1713208 0.1715653 0.1718055 0.1720468 0.1722954 0.1725523 0.1728101 0.1730589 0.1732965 0.1735274
 0.1737557 0.1739824 0.1742103 0.1744448 0.1746878 0.1749348 0.1751801 0.1754221 0.1756629 0.1759041
 0.176145 0.1763843 0.1766216 0.1768579 0.1770947 0.1773345 0.1775785 0.1778247 0.178069 0.1783101
 0.1785492 0.1787869 0.1790225 0.1792563 0.1794888 0.1797207 0.1799542 0.1801913 0.1804304 0.1806675
 0.1809019 0.1811344 0.1813658 0.1815968 0.1818294 0.1820642 0.1823006 0.1825394 0.1827816 0.1830252
 0.1832647 0.1834957 0.1837192 0.1839421 0.1841723 0.1844114 0.1846557 0.1849026 0.185151 0.1853981
 0.1856396 0.1858745 0.1861058 0.1863371 0.1865709 0.1868069 0.1870439 0.1872826 0.1875251 0.1877704
 0.1880148 0.1882582 0.188504 0.1887539 0.189006 0.1892561 0.1895021 0.1897461 0.1899931 0.1902444
 0.1904959 0.1907461 0.1909995 0.1912591 0.1915222 0.1917845 0.1920423 0.1922922 0.1925337 0.192769
 0.1929991 0.1932252 0.193451 0.1936785 0.1939054 0.1941301 0.194355 0.1945817 0.1948102 0.1950411
 0.195274 0.1955072 0.1957436 0.1959894 0.1962456 0.196507 0.1967684 0.197027 0.1972818 0.1975363
 0.1977942 0.1980535 0.1983108 0.1985683 0.198828 0.1990869 0.1993439 0.1996022 0.1998626 0.2001242
 0.2003893 0.2006578 0.2009239 0.2011863 0.2014497 0.2017166 0.2019865 0.2022608 0.2025379 0.2028105
 0.2030762 0.2033414 0.2036101 0.2038824 0.2041582 0.2044344 0.2047053 0.2049724 0.2052425 0.2055158
 0.2057908 0.2060704 0.2063529 0.2066301 0.2069014 0.2071742 0.207449 0.2077217 0.2079932 0.208261
 0.2085184 0.2087681 0.2090183 0.2092635 0.2094813 0.209619 0.2095353 0.2089309 0.2073083 0.2039868
 0.198244 0.1896113 0.1781639 0.1645916 0.1500008 0.1355664 0.1222155 0.1105125 0.1007464 0.09305952
 0.08753105 0.08425352 0.08339547 0.08528805 0.09054466 0.09970368 0.1118834 0.123604 0.1300839 0.1288696
 0.122067 0.1144272 0.1094686 0.1077468 0.1080637 0.1092418 0.1108156 0.1128965 0.1157694 0.1194765
 0.1237752 0.1285468 0.1340321 0.1404705 0.1476335 0.1549081 0.1618105 0.1683026 0.1746139 0.1808541
 0.1868551 0.1923326 0.1971048 0.2011573 0.2045927 0.2075644 0.2102151 0.2126365 0.2148781 0.2169589
 0.2188374 0.2203953 0.2214997 0.2221076 0.2223215 0.2223426 0.2223573 0.2224558 0.2226477 0.2229232
 0.2232781 0.2237043 0.2241898 0.2247219 0.2252823 0.2258507 0.2264176 0.2269782 0.2275215 0.2280372
 0.2285253 0.2289885 0.2294284 0.2298482 0.2302513 0.2306373 0.2310093 0.2313758 0.2317414 0.2321044
 0.2324623 0.2328116 0.2331449 0.2334571 0.2337502 0.2340276 0.234293 0.2345522 0.2348087 0.2350613
 0.2353104 0.2355599 0.2358108 0.2360599 0.2363065 0.2365523 0.2367985 0.2370469 0.2372971 0.2375429
 0.2377779 0.2380045 0.2382313 0.238464 0.2387047 0.238952 0.2392011 0.2394466 0.2396883 0.2399292
 0.240174 0.2404295 0.240698 0.2409702 0.2412345 0.2414912 0.2417498 0.2420156 0.2422871 0.2425608
 0.2428353 0.2431126 0.2433959 0.2436819 0.2439581 0.2442117 0.2444405 0.2446541 0.2448682 0.2450945
 0.2453331 0.2455744 0.2458127 0.2460513 0.2462952 0.2465452 0.2467979 0.2470476 0.2472924 0.2475424
 0.2478113 0.2480988 0.2483915 0.2486797 0.248963 0.2492424 0.2495198 0.249801 0.2500885 0.2503765
 0.2506588 0.2509399 0.2512327 0.2515488 0.2518873 0.2522308 0.2525578 0.2528637 0.2531614 0.2534679
 0.2537925 0.254129 0.254448 0.2547172 0.2549443 0.2551865 0.2554981 0.2558785 0.2562809 0.2566628
 0.2570142 0.2573459 0.2576675 0.2579772 0.2582666 0.2585291 0.2587724 0.2590275 0.2593336 0.2596979
 0.2600816 0.2604392 0.2607582 0.2610523 0.261338 0.2616256 0.2619054 0.2621356 0.2622848 0.2624019
 0.2626051 0.2629701 0.2634478 0.2639166 0.2643033 0.2646273 0.2649383 0.2652526 0.2655596 0.2658324
 0.2660033 0.265999 0.2658742 0.2658539 0.2661495 0.2667462 0.2674326 0.2680143 0.2684421 0.2687687
 0.2690594 0.2693451 0.2696021 0.2697595 0.269775 0.2697313 0.2698203 0.2701704 0.2707046 0.2712247
 0.2716178 0.271919 0.2722036 0.2724998 0.2727754 0.272918 0.2727817 0.2723887 0.2720691 0.2722472
 0.2730286 0.2740765 0.2749464 0.2754813 0.2758149 0.2760626 0.2761579 0.2759854 0.275525 0.2748576
 0.2742146 0.2740243 0.2746301 0.2758518 0.2770574 0.2777985 0.278195 0.2786174 0.2792013 0.2797899
 0.2801944 0.280365 0.2803553 0.2802064 0.2799281 0.2796311 0.2796056 0.2801154 0.2810913 0.2821462
 0.282938 0.2834405 0.283789 0.2838825 0.2832795 0.2817221 0.2798203 0.2788967 0.2798118 0.2820613
 0.2843233 0.2857638 0.2864909 0.2869391 0.2873033 0.2874814 0.287056 0.2854307 0.2826406 0.2800615
 0.2795749 0.2817138 0.2850669 0.2876473 0.2884114 0.2874742 0.2856035 0.2838617 0.2832278 0.2840676
 0.2859834 0.2882197 0.290114 0.2912753 0.2916142 0.2913112 0.2907414 0.2903694 0.2904559 0.2906684
 0.2902906 0.2891521 0.2879569 0.2871965 0.286243 0.284373 0.2823853 0.2821053 0.2841311 0.2869723
 0.2887802 0.2892402 0.2892351 0.2890549 0.2876759 0.2841073 0.2792359 0.2757884 0.275993 0.2793494
 0.2831251 0.2850425 0.2850766 0.2846547 0.2846579 0.2844962 0.2829858 0.2800234 0.2772261 0.2764791
 0.2778175 0.2793638 0.2794031 0.2775775 0.2739748 0.2687073 0.2633497 0.2612207 0.2644462 0.2713084
 0.2777684 0.2809531 0.2800421 0.2750517 0.267137 0.2598546 0.2575621 0.261391 0.2679233 0.2725043
 0.2729093 0.2694237 0.2629439 0.2545955 0.2467261 0.2426108 0.2443686 0.2512643 0.2598338 0.265371
 0.2643406 0.2572265 0.2492336 0.2463541 0.2497264 0.2548928 0.2570404 0.2555233 0.252837 0.2512202
 0.2514271 0.2531701 0.2554479 0.2573279 0.2586598 0.2587469 0.2550234 0.2458889 0.2349243 0.2289992
 0.2311948 0.2383133 0.2460758 0.2534289 0.2601993 0.264009 0.2628013 0.2589227 0.2576363 0.2614991
 0.2679227 0.2724822 0.2734104 0.2723154 0.2712436 0.2702323 0.2683485 0.2663476 0.266686 0.2704757
 0.2757485 0.2795906 0.2810564 0.2811685 0.2809726 0.2806579 0.2800908 0.2792436 0.2781557 0.2769536
 0.2758434 0.2748833 0.2739387 0.2729477 0.2718531 0.270017 0.2662695 0.2604322 0.2546247 0.2518084
 0.2526805 0.2552283 0.2576121 0.2594979 0.2596684 0.2550336 0.244673 0.2334528 0.2286776 0.2330294
 0.2424311 0.2506135 0.254072 0.2525059 0.246692 0.2381167 0.2304477 0.2289116 0.2362772 0.2499404
 0.2642368 0.2752187 0.2821777 0.2854678 0.2849676 0.281165 0.2764252 0.2740755 0.2761143 0.2818855
 0.2885859 0.2925868 0.2910063 0.2840664 0.2766767 0.2754883 0.282311 0.2917191 0.29704 0.2973512
 0.2965465 0.2971588 0.2981732 0.2984128 0.298962 0.3013071 0.3048822 0.3075324 0.3074492 0.3039364
 0.2974124 0.2899519 0.2849637 0.2844941 0.2869698 0.2890124 0.2889166 0.2866814 0.2818763 0.2745759
 0.2680448 0.2669873 0.2721984 0.2793602 0.2839617 0.2854972 0.2860788 0.2866324 0.2858138 0.2822739
 0.2770642 0.2731863 0.2726523 0.2745881 0.2766744 0.27766 0.2775524 0.2761658 0.2731403 0.2695065
 0.2678121 0.2698501 0.2747329 0.2797531 0.2828671 0.2839347 0.283927 0.2836814 0.2834592 0.283103
 0.2824458 0.2818786 0.2823758 0.2844543 0.2872632 0.2893555 0.2903575 0.291279 0.2931054 0.2956038
 0.2976938 0.2986439 0.2987148 0.2988164 0.2996812 0.3012571 0.3027587 0.3033617 0.3030175 0.302604
 0.3031357 0.3047956 0.3068652 0.3085499 0.3096446 0.3104202 0.3111736 0.311976 0.3126402 0.3128776
 0.3126821 0.3125646 0.3131688 0.314595 0.316275 0.3175475 0.3182017 0.3184316 0.3184504 0.3182905
 0.3179145 0.3173886 0.316892 0.3165823 0.3164828 0.3165023 0.3165336 0.3165225 0.3164758 0.3164407
 0.3164697 0.3165818 0.3167565 0.3169677 0.3171983 0.3174189 0.3175882 0.3176974 0.3177807 0.3178598
 0.3178971 0.3178197 0.3175684 0.3171062 0.3163994 0.3154135 0.314119 0.312483 0.310475 0.3081605
 0.3058605 0.3041846 0.3037804 0.3049216 0.3072926 0.3101668 0.3128178 0.3148299 0.3161413 0.316896
 0.317279 0.317431 0.3174349 0.3173294 0.3171329 0.3168638 0.3165432 0.3161883 0.3158168 0.3154541
 0.3151241 0.3148324 0.3145628 0.3142854 0.3139661 0.3135776 0.3131107 0.3125737 0.3119789 0.3113259
 0.3105949 0.3097578 0.3088081 0.3077832 0.3067526 0.3057767 0.3048717 0.3040075 0.303137 0.3022176
 0.3011962 0.3000007 0.2986082 0.2971386 0.2958227 0.2948187 0.294072 0.2933796 0.2925669 0.2915771
 0.2904359 0.289192 0.287892 0.2865692 0.2852326 0.2838675 0.2824449 0.2809316 0.2793061 0.2775696
 0.275741 0.2738447 0.2719072 0.2699489 0.2679569 0.2658556 0.2635092 0.2607577 0.2574584 0.2535161
 0.2489074 0.2437008 0.2380598 0.2322122 0.2263936 0.2208002 0.2155807 0.2108568 0.206744 0.2033472
 0.2007433 0.198974 0.1980561 0.1979947 0.198781 0.2003788 0.2027128 0.2056628 0.2090662 0.2127301
 0.2164523 0.2200485 0.2233905 0.2264422 0.2292511 0.2318817 0.2343483 0.2366114 0.2386269 0.2403832
 0.2418944 0.2431749 0.2442339 0.2450891 0.2457799 0.2463591 0.246866 0.2473083 0.2476716 0.2479459
 0.248143 0.2482919 0.2484278 0.2485822 0.248773 0.2489998 0.2492567 0.2495539 0.2499186 0.2503721
 0.2509141 0.2515284 0.2521965 0.2529068 0.2536587 0.2544663 0.2553581 0.2563718 0.2575417 0.2588816
 0.2603773 0.2619906 0.2636619 0.2653039 0.2668065 0.2680644 0.269016 0.2696602 0.2700353 0.2701811
 0.2701219 0.2698771 0.269473 0.2689369 0.2682921 0.2675633 0.2667742 0.2659356 0.2650435 0.2640957
 0.2631055 0.2620997 0.2611032 0.2601246 0.25916 0.258208 0.2572759 0.2563715 0.2554982 0.2546596
 0.2538584 0.2530919 0.252355 0.2516463 0.2509639 0.2502945 0.2496056 0.2488457 0.2479626 0.2469285
 0.2457445 0.2444194 0.2429559 0.2413571 0.2396331 0.2377975 0.2358646 0.2338475 0.2317544 0.2295861
 0.2273324 0.224977 0.2225285 0.2200564 0.2176718 0.2154612 0.2134457 0.2116002 0.2098869 0.2082712
 0.2067283 0.2052443 0.2038131 0.2024366 0.2011219 0.1998728 0.1986865 0.1975648 0.1965175 0.1955582
 0.194705 0.1939764 0.1933739 0.1928754 0.1924521 0.1920851 0.1917756 0.1915582 0.1914834 0.1915591
 0.1917158 0.1918481 0.1918858 0.1918285 0.1917295 0.1916483 0.1916094 0.1916041 0.1916133 0.1916
 0.1914862 0.1911672 0.1905448 0.1895428 0.1881248 0.1863201 0.1842226 0.1819675 0.1797164 0.1776338
 0.1758404 0.1743917 0.1732918 0.1724945 0.1719051 0.1714345 0.1710667 0.1708644 0.1709091 0.1712112
 0.1716455 0.1720094 0.1722047 0.1723454 0.1726542 0.1732728 0.174179 0.1752337 0.1762765 0.1772016
 0.1779647 0.1785437 0.1789381 0.1791904 0.1793533 0.179434 0.1794059 0.1792526 0.1789764 0.1785929
 0.1781287 0.1775961 0.1769787 0.1762644 0.175459 0.1745588 0.1735555 0.1724561 0.1712473 0.1698872
 0.1684154 0.1670455 0.1660838 0.1657574 0.1660993 0.1669396 0.1680244 0.1691798 0.1703285 0.1713658
 0.1721693 0.1728038 0.1736086 0.1749716 0.1769949 0.1793821 0.1816497 0.1834455 0.1846541 0.1852735
 0.1853269 0.1848788 0.1839838 0.1826253 0.1808081 0.1786485 0.1762941 0.1738663 0.171516 0.1693932
 0.167566 0.1660596 0.1648828 0.1640286 0.1635577 0.1631839 0.161273 0.1554232 0.1458807 0.1377238
 0.1370077 0.1442226 0.1535899 0.1592589 0.1602653 0.1591012 0.1578268 0.1568852 0.1561944 0.155827
 0.1558457 0.156148 0.1565008 0.1566497 0.1564788 0.1560007 0.1550958 0.1532703 0.149644 0.1432681
 0.1338348 0.1223276 0.1108 0.1012721 0.0947338 0.09096454 0.08898824 0.08774293 0.08667374 0.08592366
 0.08599281 0.08723001 0.0896261 0.09295048 0.09692045 0.1011967 0.1053331 0.1089037 0.1117238 0.1138608
 0.1154234 0.1164394 0.1169335 0.1169907 0.1167063 0.1161484 0.1153718 0.114408 0.1132437 0.1118631
 0.1103342 0.108851 0.1076602 0.1068987 0.1065042 0.1063142 0.106224 0.1062118 0.1062696 0.1063786
 0.106528 0.1067175 0.1069593 0.107272 0.1076394 0.1079915 0.1082604 0.1084367 0.1085468 0.1085906
 0.1085177 0.1082753 0.1078942 0.1074921 0.1071188 0.1066204 0.1057639 0.1045293 0.1032239 0.1022871
 0.1019873 0.1022614 0.1027918 0.1032474 0.1034898 0.1035805 0.1036232 0.1036105 0.1034179 0.1029412
</values></Ydata></ScRf><Data_Parameters_AB><parameter name="DPF">1</parameter><parameter name="NPT">3497</parameter><parameter name="FXV">3996</parameter><parameter name="LXV">500</parameter><parameter name="CSF">1</parameter><parameter name="MXY">0.0587422698736191</parameter><parameter name="MNY">-0.0973359793424606</parameter><parameter name="DAT">13/02/2024</parameter><parameter name="TIM">13:27:45.825 (GMT+1)</parameter><parameter name="DXU">WN</parameter></Data_Parameters_AB><AB__Qtest><MainReport name="Quality Test Report"><Header><Line><Legend>Test result ok/not ok [1/0]: </Legend><Value>0</Value></Line><Line><Legend>Method file: </Legend><Value>C:\Users\Public\Documents\Bruker\OPUS_8.2.28\QT\IRBT_v3_default.QT</Value></Line></Header><Matrix><Line><Legend></Legend><Legend>min</Legend><Legend>max</Legend><Legend>measured</Legend></Line><Line><Value>Absorption (X-Range 1):</Value><Value>0.400000</Value><Value>2.000000</Value><Value>0.118821</Value></Line><Line><Value>Noise (X-Range 4):</Value><Value></Value><Value>0.000300</Value><Value>0.000038</Value></Line><Line><Value>Signal/Noise (X-Range 2):</Value><Value>200.000000</Value><Value></Value><Value>63.440573</Value></Line><Line><Value>Signal/Noise (X-Range 3):</Value><Value>40.000000</Value><Value></Value><Value>54.946078</Value></Line><Line><Value>Water vapour (X-Range 5):</Value><Value></Value><Value>0.000300</Value><Value>0.000037</Value></Line><Line><Value>Signal/Water (X-Range 2):</Value><Value>100.000000</Value><Value></Value><Value>64.326667</Value></Line><Line><Value>Signal/Water (X-Range 3):</Value><Value>20.000000</Value><Value></Value><Value>55.713526</Value></Line><Line><Value>Fringes (X-Range 6):</Value><Value></Value><Value>0.000100</Value><Value>0.000023</Value></Line></Matrix></MainReport></AB__Qtest><Data_Parameters_ScSm><parameter name="DPF">1</parameter><parameter name="NPT">1814</parameter><parameter name="FXV">3996.63438082617</parameter><parameter name="LXV">499.579297603271</parameter><parameter name="CSF">1</parameter><parameter name="MXY">0.360165268182755</parameter><parameter name="MNY">0.0837832242250443</parameter><parameter name="DAT">13/02/2024</parameter><parameter name="TIM">13:27:45.825 (GMT+1)</parameter><parameter name="DXU">WN</parameter></Data_Parameters_ScSm><Data_Parameters_ScRf><parameter name="DPF">1</parameter><parameter name="NPT">1820</parameter><parameter name="FXV">4004.34989121387</parameter><parameter name="LXV">495.721542409425</parameter><parameter name="CSF">1</parameter><parameter name="MXY">0.318450391292572</parameter><parameter name="MNY">0.0686251521110535</parameter><parameter name="DAT">13/02/2024</parameter><parameter name="TIM">13:27:19.773 (GMT+1)</parameter><parameter name="DXU">WN</parameter></Data_Parameters_ScRf><Optic_Parameters_Rf><parameter name="APR">0</parameter><parameter name="APT">Open</parameter><parameter name="BMS">KBr</parameter><parameter name="DTC">RT-DLaTGS_IR-Biotyper [Microplate reader]</parameter><parameter name="HPF">0</parameter><parameter name="LPF">10.0</parameter><parameter name="LPV">4000</parameter><parameter name="PGR">0</parameter><parameter name="RCH">Module port</parameter><parameter name="RDX">0</parameter><parameter name="SRC">MIR</parameter><parameter name="VEL">10.0</parameter><parameter name="SON">Off</parameter></Optic_Parameters_Rf><Acquisition_Parameters_Rf><parameter name="ADT">1</parameter><parameter name="AQM">DD</parameter><parameter name="CFE">0</parameter><parameter name="COR">0</parameter><parameter name="DEL">0</parameter><parameter name="DLY">0</parameter><parameter name="HFW">8000</parameter><parameter name="LFW">0</parameter><parameter name="NSR">32</parameter><parameter name="PLF">AB</parameter><parameter name="RES">6</parameter><parameter name="RGN">-1</parameter><parameter name="STR">0</parameter><parameter name="TCL">MakeCompatibleScalar (0, {WSV=1.000000, ARV=0});</parameter><parameter name="TDL">37</parameter><parameter name="RPO">0</parameter></Acquisition_Parameters_Rf><FT_-_Parameters_Rf><parameter name="APF">B3</parameter><parameter name="HFQ">500</parameter><parameter name="LFQ">4000</parameter><parameter name="NLI">0</parameter><parameter name="PHR">24</parameter><parameter name="PHZ">ML</parameter><parameter name="SPZ">NO</parameter><parameter name="ZFF">1</parameter></FT_-_Parameters_Rf><Optic_Parameters_><parameter name="APR">0</parameter><parameter name="APT">Open</parameter><parameter name="BMS">KBr</parameter><parameter name="CHN">Module port</parameter><parameter name="DTC">RT-DLaTGS_IR-Biotyper [Microplate reader]</parameter><parameter name="HPF">0</parameter><parameter name="LPF">10.0</parameter><parameter name="LPV">4000</parameter><parameter name="PGN">0</parameter><parameter name="RDX">0</parameter><parameter name="SRC">MIR</parameter><parameter name="VEL">10.0</parameter><parameter name="SON">Off</parameter></Optic_Parameters_><FT_-_Parameters_><parameter name="APF">B3</parameter><parameter name="HFQ">500</parameter><parameter name="LFQ">4000</parameter><parameter name="NLI">0</parameter><parameter name="PHR">24</parameter><parameter name="PHZ">ML</parameter><parameter name="SPZ">NO</parameter><parameter name="ZFF">1</parameter></FT_-_Parameters_><Acquisition_Parameters_><parameter name="ADT">1</parameter><parameter name="AQM">DD</parameter><parameter name="CFE">0</parameter><parameter name="COR">0</parameter><parameter name="DEL">0</parameter><parameter name="DLY">0</parameter><parameter name="HFW">8000</parameter><parameter name="LFW">0</parameter><parameter name="NSS">32</parameter><parameter name="PLF">AB</parameter><parameter name="RES">6</parameter><parameter name="SOT">0</parameter><parameter name="TCL">MakeCompatibleScalar (0, {WSV=1.000000, ARV=0});</parameter><parameter name="TDL">37</parameter><parameter name="SPO">0</parameter><parameter name="SGN">-1</parameter></Acquisition_Parameters_><Instrument_Parameters_Rf><parameter name="HFL">15801.365274</parameter><parameter name="LFL">0</parameter><parameter name="LWN">15801.365274</parameter><parameter name="ABP">32157</parameter><parameter name="SSP">1</parameter><parameter name="ARG">2</parameter><parameter name="ASG">2</parameter><parameter name="ASS">32</parameter><parameter name="GFW">16</parameter><parameter name="GBW">16</parameter><parameter name="BFW">0</parameter><parameter name="BBW">0</parameter><parameter name="PKA">9175</parameter><parameter name="PKL">5009</parameter><parameter name="PRA">9170</parameter><parameter name="PRL">4988</parameter><parameter name="P2A">1</parameter><parameter name="P2L">1</parameter><parameter name="P2R">1</parameter><parameter name="P2K">1</parameter><parameter name="DAQ">0</parameter><parameter name="AG2">1</parameter><parameter name="SSM">1</parameter><parameter name="RSN">48145</parameter><parameter name="CRR">0</parameter><parameter name="SRT">1707830839.774</parameter><parameter name="DUR">19.6389923095703</parameter><parameter name="TSC">30</parameter><parameter name="MVD">0.348705679178238</parameter><parameter name="AN1">0.225941624507144</parameter><parameter name="AN2">0</parameter><parameter name="VSN">2.485 Apr  4 2017</parameter><parameter name="SRN">0085</parameter><parameter name="CAM">0</parameter><parameter name="INS">IR-Biotyper</parameter><parameter name="FOC">69</parameter><parameter name="RDY">1</parameter><parameter name="ARS">32</parameter></Instrument_Parameters_Rf><Sample_Parameters_><parameter name="BLD"></parameter><parameter name="CNM">Admin</parameter><parameter name="CPY"></parameter><parameter name="DPM"></parameter><parameter name="EXP">IRBT_v3_32Scans.XPM</parameter><parameter name="LCT"></parameter><parameter name="SFM">Microplate, HTS-XT</parameter><parameter name="SNM">240213-1206-Cdiff_SCFA_3_GDA_C38_242149694_C6_3303b8d1-a175-40ac-91c4-e3f8e40a54dd.0</parameter><parameter name="XPP">C:\Users\Public\Documents\Bruker\OPUS_8.2.28\XPM</parameter><parameter name="IST">OK</parameter><parameter name="CPG">1252</parameter><parameter name="UID">961362c4-d95e-485f-84ce-7dd7208aaa3f</parameter></Sample_Parameters_><Instrument_Parameters_><parameter name="HFL">15801.365274</parameter><parameter name="LFL">0</parameter><parameter name="LWN">15801.365274</parameter><parameter name="ABP">32157</parameter><parameter name="SSP">1</parameter><parameter name="ASG">2</parameter><parameter name="ARG">2</parameter><parameter name="ASS">32</parameter><parameter name="GFW">16</parameter><parameter name="GBW">16</parameter><parameter name="BFW">0</parameter><parameter name="BBW">0</parameter><parameter name="PKA">10219</parameter><parameter name="PKL">5001</parameter><parameter name="PRA">10242</parameter><parameter name="PRL">4989</parameter><parameter name="P2A">1</parameter><parameter name="P2L">1</parameter><parameter name="P2R">1</parameter><parameter name="P2K">1</parameter><parameter name="DAQ">0</parameter><parameter name="AG2">1</parameter><parameter name="SSM">1</parameter><parameter name="RSN">24770</parameter><parameter name="CRR">0</parameter><parameter name="SRT">1707830865.826</parameter><parameter name="DUR">19.6379852294922</parameter><parameter name="TSC">30</parameter><parameter name="MVD">0.326225727796555</parameter><parameter name="AN1">0.22593099888615</parameter><parameter name="AN2">0</parameter><parameter name="VSN">2.485 Apr  4 2017</parameter><parameter name="SRN">0085</parameter><parameter name="CAM">0</parameter><parameter name="INS">IR-Biotyper</parameter><parameter name="FOC">69</parameter><parameter name="RDY">1</parameter></Instrument_Parameters_><History/></OPUSDataFile>
