<?xml version="1.0" encoding="UTF-8" ?>
<OPUSDataFile><AB><Ydata ylabel="Absorbance Units"><values byteorder="INTEL" format="FLOAT32" numvalues="3497"> -0.09162255 -0.09162726 -0.09163809 -0.09165427 -0.09167371 -0.09169549 -0.09171698 -0.09173696 -0.09175264 -0.09176318
 -0.09176601 -0.09176306 -0.09175418 -0.09174357 -0.09173317 -0.09172587 -0.09172354 -0.09172528 -0.09173156 -0.09173925
 -0.09174796 -0.09175536 -0.09176105 -0.09176641 -0.09177157 -0.09178197 -0.09179787 -0.09182426 -0.09186018 -0.09190386
 -0.09195261 -0.09199697 -0.09203503 -0.09205721 -0.09206536 -0.09205713 -0.0920376 -0.09201077 -0.09198173 -0.09195524
 -0.0919347 -0.09192275 -0.09192174 -0.09193341 -0.0919571 -0.09199411 -0.09203672 -0.09208471 -0.09212586 -0.09215896
 -0.09217767 -0.09218176 -0.09217689 -0.09216385 -0.09215336 -0.09214515 -0.09214343 -0.09214684 -0.09215271 -0.092161
 -0.09216983 -0.09218104 -0.09219705 -0.09221824 -0.09224706 -0.09227993 -0.0923155 -0.09234932 -0.09237824 -0.09240182
 -0.0924186 -0.09243193 -0.09244251 -0.09245171 -0.09246019 -0.09246539 -0.09246714 -0.09246391 -0.09245566 -0.0924471
 -0.09243865 -0.0924368 -0.09244123 -0.09245357 -0.09247301 -0.09249746 -0.09252677 -0.09255973 -0.09259609 -0.09263593
 -0.0926761 -0.09271413 -0.09274478 -0.09276242 -0.09276693 -0.09275465 -0.09273481 -0.09270867 -0.09268863 -0.09267835
 -0.09268288 -0.0927045 -0.09273684 -0.09277995 -0.09282131 -0.09286025 -0.09288888 -0.09290739 -0.09291631 -0.09291652
 -0.09291323 -0.09290709 -0.092903 -0.09290108 -0.0929041 -0.09291171 -0.09292491 -0.09294232 -0.09296315 -0.09298517
 -0.09300674 -0.09302531 -0.0930391 -0.09304655 -0.09304623 -0.09303974 -0.09302676 -0.09301144 -0.09299444 -0.09297817
 -0.0929629 -0.09294985 -0.09293909 -0.09293728 -0.09294508 -0.09297398 -0.09302309 -0.0930953 -0.09318452 -0.09327183
 -0.09334925 -0.09338471 -0.09338346 -0.09333465 -0.09325991 -0.09318076 -0.09311008 -0.09306838 -0.09304967 -0.09305739
 -0.09307951 -0.09311228 -0.09314767 -0.09318318 -0.09321341 -0.09323726 -0.09325064 -0.09325271 -0.09324545 -0.09322891
 -0.09321139 -0.0931931 -0.09317898 -0.09316862 -0.09316139 -0.09315772 -0.09315862 -0.09316517 -0.09318121 -0.0932057
 -0.09323958 -0.09327918 -0.09332106 -0.09336111 -0.0933954 -0.09341983 -0.09343112 -0.09342693 -0.0934042 -0.09336843
 -0.09331853 -0.09326994 -0.09322488 -0.09319557 -0.0931842 -0.09318886 -0.09320963 -0.09323584 -0.09326716 -0.09329681
 -0.09332529 -0.09335279 -0.09337905 -0.09340371 -0.0934253 -0.09343947 -0.09344625 -0.09344278 -0.09343203 -0.09341615
 -0.09339822 -0.09338204 -0.09336744 -0.09335618 -0.0933444 -0.09333091 -0.09331298 -0.09328859 -0.09326211 -0.0932332
 -0.09321148 -0.09319804 -0.09319853 -0.09321347 -0.09323902 -0.09327473 -0.09331294 -0.0933534 -0.09339113 -0.09342585
 -0.09345415 -0.09347504 -0.09348385 -0.09348098 -0.09346367 -0.09343644 -0.09340269 -0.09336895 -0.09334231 -0.09332518
 -0.09332232 -0.09332886 -0.09334444 -0.09336276 -0.09338133 -0.09340027 -0.09341855 -0.09344239 -0.0934727 -0.09351046
 -0.09355601 -0.09359816 -0.09363627 -0.09365802 -0.09366447 -0.09365744 -0.09363859 -0.09361678 -0.09358995 -0.09355655
 -0.09351593 -0.09346309 -0.09340695 -0.09335589 -0.0933193 -0.09331156 -0.09332629 -0.09336733 -0.09341458 -0.09346082
 -0.09349185 -0.0934998 -0.09349114 -0.09346455 -0.09343626 -0.09340832 -0.09338775 -0.0933753 -0.09336734 -0.09336358
 -0.09335824 -0.09335141 -0.09334085 -0.09332743 -0.09331331 -0.09329958 -0.0932904 -0.09328587 -0.09328903 -0.09329698
 -0.09330836 -0.0933174 -0.09331828 -0.09330808 -0.09328107 -0.09324483 -0.0931999 -0.09315791 -0.09312345 -0.09309752
 -0.0930824 -0.09306739 -0.09305166 -0.09302548 -0.09298791 -0.09294093 -0.09288502 -0.09283125 -0.09278004 -0.0927405
 -0.09271087 -0.09268973 -0.09267289 -0.09264819 -0.09261303 -0.09255499 -0.09247871 -0.09238362 -0.09227894 -0.09217319
 -0.09207147 -0.09198018 -0.09189849 -0.09182817 -0.0917649 -0.09170867 -0.0916518 -0.09159327 -0.09152488 -0.0914451
 -0.09135369 -0.09125037 -0.09114097 -0.09102561 -0.09090498 -0.09077881 -0.09064441 -0.09050288 -0.09035731 -0.09020945
 -0.09006639 -0.08992757 -0.08979604 -0.0896688 -0.08954316 -0.08941642 -0.08928478 -0.08914793 -0.08900414 -0.08885556
 -0.08870296 -0.08854707 -0.08838922 -0.08822453 -0.08805247 -0.08786774 -0.0876689 -0.08746028 -0.08724187 -0.08702349
 -0.08680543 -0.08659094 -0.08637974 -0.08617073 -0.08596411 -0.08576065 -0.08556009 -0.0853629 -0.08516664 -0.0849672
 -0.08476143 -0.08454335 -0.08431123 -0.08406062 -0.08379343 -0.08350722 -0.08321244 -0.08291115 -0.08261923 -0.08234329
 -0.08208639 -0.08185278 -0.08162563 -0.08140415 -0.08116704 -0.08091228 -0.08063498 -0.08033545 -0.0800291 -0.07971709
 -0.07941689 -0.07912671 -0.07884848 -0.07857778 -0.07830225 -0.07801972 -0.07771838 -0.07740223 -0.07707097 -0.07673109
 -0.07638913 -0.07604828 -0.07571269 -0.0753831 -0.07506073 -0.07474592 -0.07443943 -0.07413927 -0.07384573 -0.07355346
 -0.07326196 -0.07296609 -0.07266552 -0.07235474 -0.07203341 -0.07169451 -0.07133843 -0.07096473 -0.07057635 -0.07018697
 -0.06979923 -0.06942959 -0.06907557 -0.06874113 -0.06841999 -0.06810492 -0.06779127 -0.06747086 -0.06714446 -0.06680885
 -0.06647032 -0.06613049 -0.06579626 -0.06547135 -0.06515412 -0.06484641 -0.06453587 -0.06422132 -0.06389124 -0.06354419
 -0.06318264 -0.0628069 -0.06242954 -0.06205099 -0.06168059 -0.06131728 -0.06096099 -0.06061003 -0.06025901 -0.05990735
 -0.05955084 -0.05919055 -0.05882622 -0.05845893 -0.05808987 -0.0577191 -0.05734659 -0.05697372 -0.05660016 -0.05623094
 -0.05586767 -0.05551375 -0.05517127 -0.05483529 -0.05450603 -0.05417362 -0.05383712 -0.05349242 -0.05313941 -0.05278303
 -0.05242372 -0.05206776 -0.05171468 -0.05136528 -0.0510188 -0.0506727 -0.05032795 -0.04998515 -0.04964597 -0.04931373
 -0.04898767 -0.04866916 -0.04835423 -0.04804076 -0.04772488 -0.04740394 -0.04707662 -0.04674123 -0.04640083 -0.04605491
 -0.0457115 -0.0453715 -0.04504241 -0.04472534 -0.04441798 -0.04412008 -0.04381847 -0.04351262 -0.04319127 -0.0428561
 -0.0425093 -0.04215417 -0.04180285 -0.04145685 -0.04112625 -0.04080874 -0.04050587 -0.04021314 -0.03992649 -0.03964227
 -0.03935645 -0.0390676 -0.03877394 -0.03847537 -0.03817142 -0.03786278 -0.03754923 -0.03723308 -0.03691447 -0.03659649
 -0.03627938 -0.03596582 -0.03565595 -0.03535205 -0.03505408 -0.03476295 -0.03447787 -0.03419554 -0.03391433 -0.03362656
 -0.03333243 -0.0330272 -0.03271539 -0.03240105 -0.03209031 -0.03179183 -0.03150778 -0.03124371 -0.03099563 -0.03076384
 -0.03054124 -0.03032564 -0.0301115 -0.02989711 -0.02967977 -0.02945873 -0.02923382 -0.02900491 -0.02877269 -0.02853718
 -0.02829861 -0.02805693 -0.02781159 -0.02756262 -0.0273098 -0.02705369 -0.02679593 -0.02653727 -0.02628069 -0.02602549
 -0.02577235 -0.02551911 -0.02526329 -0.02500451 -0.02474049 -0.02447549 -0.02421038 -0.0239514 -0.02370138 -0.02346224
 -0.02323573 -0.02301775 -0.02280811 -0.02260192 -0.02239854 -0.02219726 -0.021998 -0.02180265 -0.02161105 -0.021422
 -0.02123484 -0.02104483 -0.0208521 -0.0206542 -0.02045272 -0.02025028 -0.02004792 -0.01984876 -0.01965246 -0.01945974
 -0.01927037 -0.01908435 -0.01890158 -0.01872296 -0.01854465 -0.01836663 -0.01818074 -0.01798472 -0.01777442 -0.01754747
 -0.01731268 -0.01706979 -0.01683863 -0.01662029 -0.01643051 -0.0162687 -0.01613104 -0.0160146 -0.01589926 -0.01578396
 -0.01565266 -0.01550969 -0.01535652 -0.01519963 -0.01505103 -0.014913 -0.01479399 -0.01469061 -0.01460401 -0.01452709
 -0.0144573 -0.01438574 -0.01430865 -0.01422003 -0.01411685 -0.01400086 -0.01387136 -0.01373509 -0.0135927 -0.01344834
 -0.01330228 -0.01315604 -0.01301003 -0.0128702 -0.01273774 -0.0126236 -0.01252761 -0.01245631 -0.01240584 -0.0123711
 -0.0123464 -0.01231953 -0.01228791 -0.01224268 -0.01218656 -0.01211865 -0.01204266 -0.01196121 -0.01187379 -0.01178093
 -0.01168109 -0.01157288 -0.01146107 -0.01134524 -0.01123699 -0.01113752 -0.01105427 -0.01098788 -0.01093297 -0.0108887
 -0.01084096 -0.01078939 -0.01072389 -0.01064675 -0.01056058 -0.0104692 -0.01038387 -0.01030592 -0.01024405 -0.01019449
 -0.01015737 -0.01012536 -0.01009296 -0.01005335 -0.0100007 -0.009933045 -0.009846956 -0.009748245 -0.009636681 -0.009523118
 -0.009409281 -0.009303398 -0.009206926 -0.009119828 -0.009042269 -0.008968201 -0.008897281 -0.008823503 -0.00874648 -0.008661054
 -0.008566365 -0.008456243 -0.008330156 -0.008182116 -0.008015782 -0.007832242 -0.007642053 -0.007457172 -0.007289481 -0.007155028
 -0.007053889 -0.006994622 -0.006959344 -0.00694511 -0.006928535 -0.006901622 -0.006855585 -0.006785611 -0.006703122 -0.006607977
 -0.006520269 -0.006441313 -0.006383552 -0.006346819 -0.006327601 -0.006324389 -0.006324324 -0.006327626 -0.006327353 -0.006326892
 -0.006331989 -0.006344561 -0.006372604 -0.006411447 -0.006459637 -0.006509286 -0.006551984 -0.006586132 -0.006605869 -0.006621011
 -0.006632124 -0.006655904 -0.006696873 -0.006767233 -0.00687125 -0.007006316 -0.00717376 -0.007356978 -0.007555088 -0.007750059
 -0.007941409 -0.008121463 -0.008291022 -0.008452244 -0.008606018 -0.008757012 -0.008905695 -0.009055699 -0.00920704 -0.009361714
 -0.009518702 -0.00967774 -0.009837204 -0.00999519 -0.01015186 -0.01030616 -0.01046073 -0.01061618 -0.01077545 -0.01093973
 -0.01110961 -0.011286 -0.01146485 -0.01164629 -0.01182158 -0.01199013 -0.0121443 -0.01228413 -0.01241189 -0.01252904
 -0.01264794 -0.0127695 -0.01290503 -0.01305263 -0.01321332 -0.01338385 -0.01355807 -0.01373529 -0.0139115 -0.01408882
 -0.01426808 -0.01445029 -0.01463725 -0.01482603 -0.01501646 -0.01520356 -0.01538588 -0.01555998 -0.01572444 -0.01588079
 -0.0160285 -0.01617491 -0.01632039 -0.01647455 -0.01663761 -0.01681181 -0.01699599 -0.01718175 -0.01736809 -0.01754516
 -0.01771503 -0.01787786 -0.01803751 -0.01820222 -0.0183725 -0.01855367 -0.01874138 -0.01893357 -0.01912615 -0.01931497
 -0.01950104 -0.01968311 -0.01986542 -0.02004906 -0.02023661 -0.02042899 -0.02062589 -0.02082744 -0.02103222 -0.02124014
 -0.02144961 -0.02166051 -0.02186999 -0.02207788 -0.02228108 -0.02248008 -0.02267503 -0.02286738 -0.0230615 -0.02325816
 -0.0234616 -0.02367003 -0.02388301 -0.02409797 -0.02431175 -0.02452448 -0.02473476 -0.02494518 -0.02515686 -0.02537058
 -0.02558748 -0.02580454 -0.02602195 -0.02623359 -0.02643904 -0.02663052 -0.02680738 -0.02696428 -0.02710131 -0.02722446
 -0.02733571 -0.02745492 -0.02758386 -0.02774295 -0.02792909 -0.02814579 -0.02838463 -0.02863101 -0.02887693 -0.0291039
 -0.02931114 -0.02948915 -0.02964636 -0.02978391 -0.02991481 -0.03004544 -0.03018368 -0.03033498 -0.03049455 -0.03066331
 -0.03082966 -0.0309918 -0.03114524 -0.0312891 -0.03143061 -0.03157004 -0.03171301 -0.0318584 -0.03199851 -0.03213122
 -0.03224121 -0.03232958 -0.03238966 -0.03242836 -0.03245512 -0.03247965 -0.0325204 -0.03258166 -0.03267726 -0.03279861
 -0.03294661 -0.03310406 -0.03326263 -0.03341287 -0.0335478 -0.03367442 -0.03379256 -0.03391223 -0.03403593 -0.03415943
 -0.03428298 -0.03439356 -0.0344907 -0.03457129 -0.03463646 -0.03469646 -0.03475184 -0.03481152 -0.03487349 -0.03493608
 -0.03499732 -0.03505126 -0.03509947 -0.03514101 -0.03517957 -0.03521868 -0.03526044 -0.03530779 -0.0353601 -0.03541772
 -0.03547991 -0.03554573 -0.03561835 -0.03569752 -0.03579073 -0.0358989 -0.03602834 -0.03617997 -0.03635186 -0.03654372
 -0.03674249 -0.03694704 -0.03714052 -0.0373229 -0.03748437 -0.0376274 -0.03775403 -0.03786828 -0.03797993 -0.03809117
 -0.03821018 -0.03833561 -0.03846947 -0.0386087 -0.03875155 -0.03889642 -0.03904172 -0.03918814 -0.0393356 -0.03948481
 -0.03963604 -0.03978906 -0.0399441 -0.04009905 -0.04025402 -0.04040266 -0.04054461 -0.04067118 -0.04078259 -0.04087709
 -0.04095688 -0.04103282 -0.0411066 -0.04119084 -0.04128275 -0.04138321 -0.0414867 -0.04158406 -0.04167467 -0.04175294
 -0.0418243 -0.04189153 -0.04195716 -0.04202529 -0.0420887 -0.04214699 -0.04218877 -0.04221119 -0.04220798 -0.04217764
 -0.04211891 -0.04203173 -0.04191262 -0.04176137 -0.04157177 -0.04134403 -0.04107727 -0.0407742 -0.04044766 -0.04010342
 -0.03976669 -0.03944358 -0.03916049 -0.03891943 -0.03873621 -0.03860689 -0.03853422 -0.03851042 -0.03853123 -0.03858867
 -0.03867891 -0.0387922 -0.0389267 -0.03906567 -0.03920705 -0.03932717 -0.03942269 -0.03947364 -0.03947744 -0.03942834
 -0.03932596 -0.0391755 -0.03897694 -0.0387323 -0.0384397 -0.03808969 -0.03767994 -0.03719647 -0.03664048 -0.0360062
 -0.03529995 -0.0345283 -0.03369893 -0.03282334 -0.03190453 -0.03094937 -0.02995517 -0.02892234 -0.02784788 -0.02672973
 -0.02557085 -0.02437068 -0.02313705 -0.02187072 -0.02058008 -0.01926572 -0.01793714 -0.01659491 -0.01525485 -0.01391869
 -0.01261177 -0.01133683 -0.01012264 -0.008971266 -0.00790515 -0.006924935 -0.006043368 -0.005259697 -0.004580108 -0.003998321
 -0.003514464 -0.003108104 -0.002770406 -0.00246298 -0.002168198 -0.001841425 -0.001463639 -0.001003196 -0.000447663 0.0002127409
 0.0009828751 0.001853956 0.002826565 0.003880132 0.005013582 0.006197853 0.007430837 0.008678192 0.009937409 0.01117618
 0.01239255 0.01356283 0.01468521 0.015745 0.01673782 0.01765276 0.01847894 0.01920367 0.01980703 0.02027382
 0.02057533 0.02069551 0.02060318 0.02028346 0.01971668 0.01889134 0.01781826 0.01649202 0.01496483 0.01323772
 0.01139719 0.009448053 0.007488637 0.005523762 0.003639875 0.00183847 0.000174628 -0.001356585 -0.002741022 -0.003990643
 -0.005125398 -0.006159934 -0.007127386 -0.008038428 -0.008919002 -0.009772463 -0.01061049 -0.01143097 -0.0122362 -0.0130218
 -0.01378705 -0.01452659 -0.0152395 -0.01591896 -0.01656399 -0.01716774 -0.01772942 -0.01824458 -0.01871293 -0.01913046
 -0.01949654 -0.01980132 -0.02004285 -0.02020307 -0.02028083 -0.02025924 -0.02014458 -0.01993883 -0.01966126 -0.01934139
 -0.01900675 -0.01870161 -0.01844507 -0.01827197 -0.01817614 -0.01816969 -0.01821995 -0.01832087 -0.01843067 -0.01853835
 -0.01861091 -0.01864089 -0.01860994 -0.01851473 -0.01835117 -0.01811848 -0.01783177 -0.01749405 -0.01715353 -0.01682138
 -0.01659117 -0.01648363 -0.01662825 -0.01704274 -0.0178463 -0.0190254 -0.02062752 -0.02258668 -0.0248579 -0.02733494
 -0.0299225 -0.03251698 -0.03503215 -0.03740993 -0.03960283 -0.04160751 -0.04341021 -0.0450399 -0.0464978 -0.04781983
 -0.04900937 -0.05009845 -0.05108925 -0.05200839 -0.052857 -0.05365475 -0.05440187 -0.05510943 -0.05577757 -0.05641247
 -0.05701514 -0.05759111 -0.05814181 -0.05867238 -0.05918343 -0.05967793 -0.06015548 -0.06061681 -0.06106114 -0.0614878
 -0.06189776 -0.06229031 -0.0626703 -0.06303822 -0.06340135 -0.06376145 -0.06412104 -0.06448136 -0.06483488 -0.06518131
 -0.06550899 -0.06581767 -0.06610291 -0.06636599 -0.066614 -0.06684867 -0.06708133 -0.06731188 -0.06754649 -0.06778272
 -0.06801897 -0.06825297 -0.06848039 -0.06870206 -0.06891644 -0.06912716 -0.06933626 -0.06954543 -0.06975684 -0.06996708
 -0.07017614 -0.07037846 -0.07057274 -0.07075696 -0.07093033 -0.07109623 -0.07125475 -0.0714123 -0.07156911 -0.07172942
 -0.07189284 -0.07205877 -0.07222623 -0.07239059 -0.07255137 -0.07270443 -0.07285053 -0.07298893 -0.07312084 -0.07324752
 -0.07336972 -0.07348847 -0.07360437 -0.07371815 -0.07382975 -0.07393968 -0.07404623 -0.07414924 -0.07424623 -0.07433632
 -0.07442028 -0.07449766 -0.0745738 -0.07464898 -0.07472929 -0.0748149 -0.07490773 -0.07500739 -0.07511182 -0.0752204
 -0.07532936 -0.07543834 -0.07554426 -0.0756472 -0.07574558 -0.07584038 -0.07593198 -0.07602228 -0.07611328 -0.07620604
 -0.07630234 -0.0764007 -0.07650106 -0.07660136 -0.07670052 -0.07679942 -0.07689768 -0.07699862 -0.07710271 -0.07721139
 -0.07732488 -0.07744138 -0.07756075 -0.07768057 -0.07780089 -0.07792131 -0.0780419 -0.07816295 -0.07828418 -0.0784049
 -0.07852471 -0.07864226 -0.07875773 -0.07887058 -0.07898176 -0.07909209 -0.07920203 -0.07931247 -0.07942236 -0.07953173
 -0.07963854 -0.0797421 -0.07984151 -0.07993636 -0.08002715 -0.08011378 -0.08019761 -0.0802787 -0.08035876 -0.08043789
 -0.08051808 -0.0805994 -0.08068342 -0.08076999 -0.0808594 -0.08095122 -0.08104444 -0.08113854 -0.08123201 -0.08132453
 -0.08141488 -0.08150332 -0.0815894 -0.08167434 -0.08175863 -0.08184385 -0.08193087 -0.08202057 -0.08211362 -0.08220938
 -0.08230819 -0.08240721 -0.08250636 -0.08260112 -0.0826911 -0.08277421 -0.0828505 -0.08292348 -0.08299371 -0.08306797
 -0.08314632 -0.08323304 -0.083327 -0.08342725 -0.083532 -0.0836372 -0.08374146 -0.08384083 -0.08393532 -0.084023
 -0.08410606 -0.08418491 -0.08426321 -0.08434287 -0.08442598 -0.08451405 -0.0846057 -0.08470121 -0.08479722 -0.08489332
 -0.08498704 -0.08507808 -0.08516595 -0.08525064 -0.08533296 -0.08541309 -0.08549292 -0.08557266 -0.08565444 -0.08573793
 -0.0858235 -0.08591007 -0.08599551 -0.08607902 -0.08615804 -0.08623357 -0.08630518 -0.08637545 -0.08644598 -0.08651882
 -0.08659574 -0.0866762 -0.0867608 -0.08684696 -0.08693434 -0.08702037 -0.08710461 -0.08718595 -0.08726423 -0.08733926
 -0.08741103 -0.08747947 -0.08754463 -0.08760685 -0.08766657 -0.08772633 -0.0877868 -0.08785184 -0.08792094 -0.08799549
 -0.08807333 -0.08815177 -0.08822919 -0.08830229 -0.08837222 -0.08843853 -0.08850342 -0.08856823 -0.08863299 -0.0886982
 -0.08876272 -0.0888261 -0.08888907 -0.08895159 -0.08901519 -0.08908013 -0.08914556 -0.08921146 -0.08927578 -0.08933857
 -0.08939975 -0.08945961 -0.08951995 -0.0895805 -0.08964143 -0.08970226 -0.08976176 -0.08982026 -0.08987741 -0.08993442
 -0.08999249 -0.09005234 -0.09011525 -0.09018016 -0.09024723 -0.09031409 -0.09038007 -0.09044295 -0.09050192 -0.09055676
 -0.09060699 -0.09065538 -0.09070204 -0.09075056 -0.09080113 -0.09085456 -0.09091065 -0.09096751 -0.09102494 -0.09108096
 -0.09113571 -0.09118861 -0.09123985 -0.0912896 -0.09133796 -0.09138518 -0.09143139 -0.09147684 -0.09152161 -0.09156579
 -0.09160955 -0.09165286 -0.0916964 -0.09174041 -0.0917851 -0.09183081 -0.09187612 -0.09192084 -0.09196395 -0.09200522
 -0.09204598 -0.09208631 -0.09212872 -0.09217315 -0.0922194 -0.09226714 -0.09231419 -0.09236071 -0.09240595 -0.0924506
 -0.0924961 -0.09254266 -0.09259138 -0.09264212 -0.09269495 -0.09275033 -0.09280851 -0.09287037 -0.09293665 -0.09300714
 -0.09308234 -0.09316003 -0.09324016 -0.09331884 -0.09339562 -0.09346644 -0.09353077 -0.09358718 -0.09363555 -0.09367904
 -0.09371803 -0.09375836 -0.09380018 -0.09384766 -0.09390002 -0.09395695 -0.09401718 -0.09407751 -0.09413736 -0.09419417
 -0.09424815 -0.09429847 -0.09434579 -0.09439009 -0.0944329 -0.09447467 -0.09451798 -0.09456393 -0.09461384 -0.09466881
 -0.09472626 -0.09478623 -0.09484429 -0.0948998 -0.09495216 -0.09500126 -0.09505028 -0.09509927 -0.09515013 -0.09520242
 -0.09525428 -0.09530555 -0.09535436 -0.09540156 -0.0954484 -0.09549554 -0.09554505 -0.09559599 -0.09564832 -0.09570052
 -0.0957512 -0.09579991 -0.09584574 -0.09588978 -0.09593218 -0.09597401 -0.09601565 -0.09605734 -0.09609913 -0.09614148
 -0.09618437 -0.09622879 -0.09627478 -0.09632255 -0.09637201 -0.09642173 -0.09647153 -0.09651935 -0.09656529 -0.09660851
 -0.09664939 -0.0966885 -0.09672596 -0.09676223 -0.09679744 -0.0968319 -0.09686586 -0.09689969 -0.09693334 -0.09696697
 -0.09700005 -0.09703227 -0.09706379 -0.09709445 -0.0971252 -0.09715615 -0.09718836 -0.09722196 -0.09725743 -0.09729481
 -0.09733472 -0.09737713 -0.09742216 -0.09746945 -0.09751682 -0.09756362 -0.09760603 -0.09764403 -0.09767526 -0.09770096
 -0.09772197 -0.09774026 -0.09775866 -0.09777823 -0.09780116 -0.09782667 -0.0978551 -0.09788485 -0.09791525 -0.09794569
 -0.09797563 -0.09800628 -0.09803776 -0.09807102 -0.09810632 -0.0981425 -0.09817952 -0.09821466 -0.09824786 -0.0982774
 -0.0983035 -0.09832666 -0.09834743 -0.09836826 -0.09838954 -0.09841336 -0.09844 -0.09847067 -0.09850609 -0.09854735
 -0.09859565 -0.09865241 -0.09871835 -0.09879469 -0.09888028 -0.09897511 -0.09907734 -0.09918652 -0.09930104 -0.09942066
 -0.09954365 -0.09966994 -0.0997969 -0.09992437 -0.1000502 -0.1001743 -0.1002959 -0.1004147 -0.1005289 -0.1006375
 -0.1007357 -0.100822 -0.1008906 -0.1009396 -0.1009636 -0.1009602 -0.1009236 -0.100854 -0.1007464 -0.1006123
 -0.1004526 -0.1002935 -0.1001445 -0.1000288 -0.0999563 -0.09993036 -0.09995505 -0.1000162 -0.1001137 -0.1002235
 -0.1003442 -0.1004509 -0.100543 -0.1006098 -0.1006528 -0.1006784 -0.1006877 -0.100689 -0.1006822 -0.100671
 -0.1006566 -0.1006434 -0.100632 -0.1006263 -0.1006232 -0.1006214 -0.1006167 -0.100605 -0.1005872 -0.1005619
 -0.100535 -0.1005082 -0.1004847 -0.1004661 -0.1004491 -0.1004336 -0.1004166 -0.1003976 -0.1003801 -0.1003644
 -0.1003547 -0.1003505 -0.10035 -0.1003523 -0.1003529 -0.1003529 -0.1003529 -0.1003543 -0.1003613 -0.1003725
 -0.1003881 -0.1004047 -0.1004188 -0.10043 -0.1004362 -0.1004417 -0.1004478 -0.1004579 -0.100474 -0.1004949
 -0.1005212 -0.1005488 -0.1005773 -0.1006039 -0.1006282 -0.1006501 -0.1006696 -0.1006884 -0.1007067 -0.1007264
 -0.1007475 -0.1007712 -0.1007975 -0.100827 -0.1008594 -0.100895 -0.1009334 -0.100974 -0.101016 -0.1010584
 -0.1011008 -0.1011427 -0.1011838 -0.1012239 -0.1012616 -0.1012968 -0.1013272 -0.1013525 -0.1013721 -0.1013857
 -0.1013955 -0.1014016 -0.1014069 -0.1014114 -0.101417 -0.1014238 -0.101432 -0.1014416 -0.1014523 -0.1014638
 -0.1014753 -0.1014869 -0.101498 -0.1015094 -0.1015217 -0.1015356 -0.1015525 -0.1015716 -0.1015935 -0.1016153
 -0.1016362 -0.1016539 -0.1016674 -0.1016774 -0.1016835 -0.1016883 -0.101692 -0.1016958 -0.1016998 -0.1017039
 -0.1017083 -0.1017133 -0.101719 -0.101726 -0.101734 -0.1017427 -0.1017519 -0.1017611 -0.1017703 -0.1017799
 -0.10179 -0.1018012 -0.101813 -0.101825 -0.1018374 -0.1018496 -0.1018631 -0.1018787 -0.1018965 -0.1019176
 -0.1019381 -0.1019576 -0.1019711 -0.1019775 -0.1019769 -0.101969 -0.1019606 -0.101952 -0.10195 -0.1019545
 -0.1019662 -0.1019845 -0.1020062 -0.1020307 -0.1020544 -0.1020773 -0.1020973 -0.1021143 -0.102127 -0.1021355
 -0.1021392 -0.1021392 -0.1021356 -0.1021306 -0.102125 -0.102121 -0.1021197 -0.1021209 -0.1021251 -0.1021296
 -0.1021342 -0.1021363 -0.1021358 -0.1021343 -0.1021317 -0.1021319 -0.1021349 -0.1021415 -0.1021514 -0.1021624
 -0.1021744 -0.102185 -0.1021946 -0.1022023 -0.1022082 -0.1022118 -0.1022134 -0.1022126 -0.1022101 -0.1022062
 -0.1022018 -0.1021972 -0.1021928 -0.1021889 -0.1021858 -0.1021835 -0.1021832 -0.1021852 -0.1021904 -0.102199
 -0.1022104 -0.1022244 -0.1022382 -0.1022515 -0.1022608 -0.1022662 -0.1022668 -0.1022633 -0.1022578 -0.1022512
 -0.1022462 -0.1022426 -0.1022418 -0.1022427 -0.1022449 -0.1022475 -0.1022498 -0.1022511 -0.1022509 -0.1022492
 -0.1022455 -0.1022409 -0.1022355 -0.1022308 -0.1022272 -0.1022259 -0.1022269 -0.102231 -0.1022379 -0.1022481
 -0.1022612 -0.1022763 -0.1022928 -0.1023077 -0.1023204 -0.1023277 -0.1023305 -0.1023285 -0.1023238 -0.1023196
 -0.1023164 -0.1023166 -0.102318 -0.1023193 -0.102319 -0.102315 -0.1023099 -0.102304 -0.1023015 -0.1023042
 -0.1023114 -0.1023238 -0.1023357 -0.1023467 -0.1023525 -0.1023531 -0.102349 -0.1023403 -0.102329 -0.1023152
 -0.1023002 -0.1022843 -0.1022698 -0.1022572 -0.1022494 -0.1022459 -0.1022475 -0.1022524 -0.102259 -0.1022657
 -0.1022706 -0.1022741 -0.1022756 -0.1022762 -0.1022764 -0.1022764 -0.1022766 -0.1022762 -0.102275 -0.1022732
 -0.1022706 -0.1022683 -0.1022663 -0.1022654 -0.1022653 -0.1022652 -0.1022648 -0.1022621 -0.1022574 -0.1022505
 -0.1022423 -0.1022349 -0.1022289 -0.1022265 -0.1022273 -0.1022318 -0.1022385 -0.1022463 -0.1022537 -0.1022597
 -0.1022636 -0.1022649 -0.1022642 -0.1022614 -0.1022574 -0.1022523 -0.1022466 -0.1022404 -0.1022338 -0.1022269
 -0.1022193 -0.1022112 -0.1022025 -0.1021932 -0.1021842 -0.1021758 -0.1021696 -0.1021656 -0.1021648 -0.1021664
 -0.1021698 -0.1021735 -0.1021757 -0.1021752 -0.10217 -0.1021608 -0.1021468 -0.1021311 -0.1021145 -0.1021007
 -0.1020911 -0.1020861 -0.1020865 -0.1020887 -0.1020926 -0.1020942 -0.1020931 -0.1020889 -0.1020817 -0.1020738
 -0.1020653 -0.1020584 -0.1020528 -0.1020484 -0.1020449 -0.1020409 -0.1020361 -0.1020291 -0.1020202 -0.1020089
 -0.1019954 -0.10198 -0.1019627 -0.1019436 -0.1019231 -0.1019011 -0.1018787 -0.1018561 -0.1018342 -0.1018133
 -0.1017928 -0.1017725 -0.1017517 -0.1017302 -0.1017083 -0.1016862 -0.1016642 -0.1016423 -0.1016194 -0.1015955
 -0.1015692 -0.1015411 -0.1015118 -0.1014819 -0.1014527 -0.101424 -0.1013957 -0.1013669 -0.1013367 -0.1013055
 -0.1012728 -0.1012403 -0.1012089 -0.1011792 -0.101152 -0.1011261 -0.1011015 -0.1010764 -0.1010506 -0.1010237
 -0.1009956 -0.1009673 -0.1009387 -0.10091 -0.1008811 -0.1008504 -0.1008181 -0.1007834 -0.1007471 -0.1007108
 -0.1006753 -0.1006433 -0.100614 -0.100588 -0.1005636 -0.1005392 -0.1005147 -0.1004889 -0.1004637 -0.1004395
 -0.1004178 -0.1003997 -0.100383 -0.1003678 -0.1003504 -0.1003303 -0.1003061 -0.1002778 -0.1002477 -0.1002159
 -0.1001852 -0.1001554 -0.1001275 -0.1001015 -0.100078 -0.1000569 -0.1000388 -0.1000228 -0.1000084 -0.09999449
 -0.09997932 -0.09996281 -0.09994423 -0.09992385 -0.09990181 -0.09987763 -0.09985099 -0.09982216 -0.09979074 -0.09975934
 -0.09972835 -0.09969978 -0.09967414 -0.09965 -0.09962732 -0.09960327 -0.09957779 -0.09954997 -0.09951995 -0.09948828
 -0.09945506 -0.09942074 -0.09938554 -0.09935028 -0.09931514 -0.09928108 -0.09924751 -0.09921421 -0.09918015 -0.09914417
 -0.09910619 -0.09906556 -0.09902354 -0.09898049 -0.09893768 -0.09889573 -0.09885434 -0.09881369 -0.09877248 -0.09873057
 -0.09868711 -0.09864198 -0.09859596 -0.09854912 -0.0985027 -0.09845668 -0.09841151 -0.09836725 -0.09832444 -0.09828324
 -0.09824474 -0.09820826 -0.09817353 -0.09813848 -0.09810032 -0.09805737 -0.09800649 -0.09794898 -0.09788399 -0.09781576
 -0.09774563 -0.09767768 -0.09761368 -0.09755431 -0.09750045 -0.09744899 -0.09739982 -0.09734853 -0.09729479 -0.0972371
 -0.09717552 -0.09711251 -0.09704832 -0.09698621 -0.09692601 -0.09686892 -0.09681421 -0.09676068 -0.09670717 -0.09665084
 -0.09659094 -0.09652501 -0.09645361 -0.09637613 -0.09629426 -0.09620868 -0.0961216 -0.09603376 -0.09594824 -0.09586609
 -0.09578946 -0.09571952 -0.09565356 -0.09559187 -0.0955268 -0.09545779 -0.09537942 -0.09529163 -0.09519624 -0.09509384
 -0.09499027 -0.09488575 -0.09478465 -0.0946862 -0.09459086 -0.09449707 -0.094402 -0.0943046 -0.09420161 -0.09409441
 -0.09398262 -0.09386925 -0.09375647 -0.09364502 -0.09353629 -0.09342814 -0.09332027 -0.09321077 -0.09309914 -0.09298499
 -0.09286822 -0.0927485 -0.09262577 -0.09250073 -0.09237345 -0.09224587 -0.09211776 -0.09198841 -0.09185666 -0.09171666
 -0.09156764 -0.0914034 -0.09122571 -0.09103441 -0.09083328 -0.09062774 -0.09041987 -0.09021463 -0.09000961 -0.08980525
 -0.08959716 -0.08938312 -0.08916151 -0.08893072 -0.0886936 -0.0884506 -0.08820349 -0.0879532 -0.08769461 -0.08742774
 -0.08714039 -0.08683189 -0.08648905 -0.08611178 -0.08569393 -0.08523627 -0.0847403 -0.08420462 -0.08362778 -0.08300355
 -0.08231943 -0.08156798 -0.08073159 -0.0798109 -0.07879587 -0.07770284 -0.07653527 -0.07532237 -0.07407624 -0.07282552
 -0.07158122 -0.07036253 -0.06917426 -0.06803299 -0.0669398 -0.06592125 -0.06497914 -0.06414146 -0.06340931 -0.06278893
 -0.06227864 -0.06186372 -0.06154313 -0.06130397 -0.06114709 -0.06107 -0.06107049 -0.06114572 -0.06128561 -0.06147764
 -0.06170411 -0.06194469 -0.06218066 -0.06239253 -0.062571 -0.06270619 -0.06279755 -0.06284339 -0.0628427 -0.06279514
 -0.0626994 -0.06255505 -0.06236362 -0.06212548 -0.06183683 -0.06149732 -0.06109149 -0.06061934 -0.06007246 -0.05945604
 -0.05879201 -0.05808651 -0.0573727 -0.05664875 -0.0559273 -0.05520279 -0.05447118 -0.053731 -0.05297961 -0.0522154
 -0.05143974 -0.05064005 -0.04981418 -0.04893858 -0.04800508 -0.04699732 -0.04590707 -0.04474425 -0.04350632 -0.04222755
 -0.04090991 -0.03959166 -0.03827474 -0.03698326 -0.03571587 -0.03446857 -0.03323471 -0.03197731 -0.03069018 -0.02932665
 -0.02790026 -0.02640999 -0.02489121 -0.02340188 -0.02195515 -0.02059595 -0.0192972 -0.01805399 -0.01683867 -0.01563153
 -0.0144334 -0.01323858 -0.01206035 -0.01090199 -0.009765893 -0.008652744 -0.007563774 -0.00649871 -0.005466619 -0.004467917
 -0.003502773 -0.002570884 -0.001666342 -0.0007922953 3.748827E-05 0.0008178488 0.001521521 0.002151337 0.002698499 0.00317218
 0.003584296 0.003937861 0.004242118 0.004493076 0.004687911 0.004832313 0.00492532 0.004983835 0.005013935 0.005025534
 0.005024063 0.005002664 0.004962144 0.004887064 0.004776201 0.004616905 0.00440845 0.004142744 0.003820057 0.003440379
 0.003006115 0.002530648 0.002016868 0.001482407 0.0009273166 0.0003602232 -0.0002195588 -0.0008110181 -0.001410199 -0.002014916
 -0.002614017 -0.003200328 -0.003759296 -0.004282211 -0.004757361 -0.005178902 -0.005539527 -0.005835997 -0.006067127 -0.006231342
 -0.006336377 -0.00638251 -0.006380402 -0.006330659 -0.006237715 -0.00610139 -0.005920094 -0.005693686 -0.005420263 -0.005100569
 -0.004735822 -0.00432774 -0.003880514 -0.003396523 -0.002881364 -0.002336869 -0.001767356 -0.001173335 -0.0005568235 8.312678E-05
 0.0007461758 0.001434503 0.002148715 0.0028909 0.003661915 0.004461655 0.005290295 0.006147034 0.007031875 0.007943849
 0.008882941 0.009841364 0.01081799 0.01179544 0.01277237 0.01373287 0.01467465 0.01558429 0.01645294 0.01725429
 0.01797738 0.01858913 0.01909204 0.0194738 0.01974693 0.01991839 0.0199951 0.01998304 0.01988458 0.01970192
 0.01943608 0.01909026 0.01865053 0.01811685 0.0174635 0.01668602 0.01579037 0.0147762 0.01369898 0.01256069
 0.01140119 0.0102162 0.008996531 0.00773922 0.006426041 0.005062199 0.003650369 0.002199039 0.0007256247 -0.0007690942
 -0.002273951 -0.00380094 -0.005357624 -0.006948927 -0.008587662 -0.01024514 -0.01191602 -0.01356569 -0.0151802 -0.01676059
 -0.0183041 -0.01982293 -0.0213197 -0.02278185 -0.02420893 -0.02557588 -0.02688236 -0.02812073 -0.02929275 -0.030407
 -0.03146372 -0.03246817 -0.03341978 -0.03431736 -0.03516611 -0.03597091 -0.03674629 -0.03750965 -0.03827785 -0.0390722
 -0.0398976 -0.04076589 -0.04166511 -0.04259494 -0.04353794 -0.0444908 -0.04543511 -0.04636991 -0.04726334 -0.04811275
 -0.04888398 -0.04957429 -0.05018472 -0.05071678 -0.05119887 -0.05163181 -0.05203509 -0.0524065 -0.05274759 -0.05305602
 -0.05332723 -0.05355831 -0.05374406 -0.05387703 -0.05394747 -0.05394561 -0.05385961 -0.05368433 -0.05341328 -0.05304562
 -0.0525807 -0.05201391 -0.05134501 -0.05056491 -0.04967232 -0.04865924 -0.04752553 -0.04625605 -0.0448502 -0.04327578
 -0.04153284 -0.0396146 -0.03753619 -0.0353959 -0.03322453 -0.03120304 -0.02934566 -0.0277896 -0.02651549 -0.02556
 -0.02487588 -0.02442768 -0.02414907 -0.02397511 -0.02384613 -0.02370415 -0.02353261 -0.02330062 -0.02305359 -0.02279224
 -0.02258677 -0.02245369 -0.02241544 -0.02248038 -0.02261348 -0.02281349 -0.02303076 -0.02326332 -0.02347796 -0.02367555
 -0.02384703 -0.02399427 -0.02412092 -0.02422649 -0.02431187 -0.02437477 -0.02441098 -0.02441965 -0.02439761 -0.02434584
 -0.02426563 -0.02415312 -0.02400982 -0.02381985 -0.02357971 -0.02326619 -0.02287192 -0.0223823 -0.02179181 -0.02110413
 -0.02031842 -0.01944575 -0.01848677 -0.017449 -0.01633336 -0.01515684 -0.01392394 -0.01267685 -0.01142162 -0.01020786
 -0.009036747 -0.007935976 -0.006906172 -0.00595757 -0.005100231 -0.004347846 -0.003719067 -0.00323462 -0.002909962 -0.002761739
 -0.002793942 -0.003014092 -0.003414228 -0.003996059 -0.004739827 -0.005644644 -0.006679483 -0.007842659 -0.009091323 -0.01042316
 -0.01178333 -0.01316881 -0.01452445 -0.01584871 -0.01710426 -0.01829208 -0.01939635 -0.02041884 -0.02135562 -0.0222098
 -0.02298305 -0.02368453 -0.02432323 -0.02491808 -0.02548597 -0.0260524 -0.02663773 -0.02726048 -0.02793731 -0.02866211
 -0.02944181 -0.03024112 -0.03105685 -0.03184513 -0.03259941 -0.03329713 -0.03393538 -0.0345203 -0.03505228 -0.03554372
 -0.03599334 -0.03639575 -0.03674754 -0.0370283 -0.03723932 -0.03737019 -0.03743241 -0.03744021 -0.0374129 -0.03738069
 -0.03736349 -0.03739035 -0.03747473 -0.03763506 -0.03787291 -0.0381955 -0.03859236 -0.0390643 -0.03959026 -0.04016911
 -0.04076743 -0.04138296 -0.04197184 -0.04253088 -0.04302061 -0.04343957 -0.04377434 -0.04402767 -0.04421776 -0.0443492
 -0.04445357 -0.04453263 -0.04460864 -0.04467947 -0.04475181 -0.04482179 -0.04488694 -0.04494369 -0.04498793 -0.0450165
 -0.04502641 -0.04501477 -0.04497961 -0.04491898 -0.04483147 -0.04471794 -0.04457773 -0.04441552 -0.04423141 -0.04403297
 -0.04382066 -0.04360244 -0.04337872 -0.04315616 -0.04293492 -0.04271911 -0.04250886 -0.04230659 -0.04211309 -0.04193147
 -0.04176386 -0.04161577 -0.04148963 -0.04139185 -0.04132222 -0.0412841 -0.0412727 -0.04128696 -0.04131883 -0.04136501
 -0.04141721 -0.04147274 -0.04152372 -0.04156845 -0.04159959 -0.04161583 -0.0416131 -0.04159067 -0.04155139 -0.04149548
 -0.04143123 -0.04135909 -0.04128675 -0.04121419 -0.04114542 -0.04108004 -0.04101928 -0.04096197 -0.04090715 -0.04085154
 -0.0407907 -0.04071978 -0.04063221 -0.04052486 -0.04039303 -0.04023711 -0.04005602 -0.03985113 -0.03962327 -0.03937068
 -0.03909377 -0.03878695 -0.03844961 -0.0380763 -0.03766617 -0.03722133 -0.03674206 -0.03624383 -0.03572882 -0.03522481
 -0.03473502 -0.03429064 -0.03389395 -0.03356901 -0.03331562 -0.03314589 -0.03305614 -0.03304746 -0.03311216 -0.0332444
 -0.03343263 -0.03366829 -0.03393862 -0.03423591 -0.03454984 -0.03487546 -0.03520675 -0.03554142 -0.03587728 -0.03621373
 -0.03655 -0.03688617 -0.03721878 -0.0375476 -0.03786536 -0.03817149 -0.03845743 -0.03872309 -0.03896331 -0.03917908
 -0.03937048 -0.03953945 -0.03968994 -0.03982412 -0.03994713 -0.04006012 -0.04016676 -0.04026583 -0.04035798 -0.04044053
 -0.04051225 -0.04057145 -0.04061698 -0.04064937 -0.04066845 -0.04067524 -0.04066981 -0.04065311 -0.04062506 -0.04058881
 -0.04054457 -0.04049741 -0.04044741 -0.04039694 -0.04034515 -0.04028862 -0.04022611 -0.04015138 -0.04006423 -0.03996107
 -0.03984242 -0.03970813 -0.039557 -0.03938869 -0.03919892 -0.0389852 -0.03874159 -0.03846436 -0.03814979 -0.03779516
 -0.03740159 -0.03696824 -0.03650023 -0.03599801 -0.03546687 -0.03490734 -0.03432269 -0.03371312 -0.03308178 -0.0324291
 -0.03176131 -0.03107925 -0.03039106 -0.02969724 -0.02900429 -0.02831146 -0.02762066 -0.02692975 -0.02623648 -0.02553817
 -0.02483095 -0.02411318 -0.02338191 -0.02263788 -0.02188017 -0.02111182 -0.02033315 -0.019549 -0.01876007 -0.01797256
 -0.01718743 -0.0164097 -0.01564023 -0.01487788 -0.01412262 -0.0133675 -0.01261229 -0.01185187 -0.01108707 -0.01032019
 -0.009552614 -0.008790798 -0.00803498 -0.007289404 -0.006552497 -0.005823977 -0.005101182 -0.004381471 -0.003661353 -0.002937988
 -0.002206639 -0.001464774 -0.0007066257 6.976711E-05 0.0008711277 0.001699292 0.002559555 0.003453524 0.004380844 0.005342411
 0.006327426 0.007335417 0.008343672 0.009350361 0.01032528 0.01126662 0.0121475 0.01296833 0.01371526 0.01439211
 0.01500021 0.01554566 0.01603875 0.01648522 0.01689596 0.01727349 0.01762431 0.01794578 0.01823925 0.01849787
 0.01872006 0.01889789 0.019029 0.01910853 0.01913458 0.01910988 0.01903374 0.01891882 0.01876575 0.0185929
 0.01840103 0.01820407 0.01800163 0.01779802 0.01759249 0.01738451 0.0171738 0.01696016 0.01674185 0.01651769
 0.01628107 0.01602516 0.01574035 0.01541592 0.01504768 0.01462786 0.01416475 0.0136578 0.01312303 0.01256429
 0.01199384 0.01141486 0.01083059 0.01024174 0.009649024 0.009052461 0.008456311 0.007860864 0.007271689 0.006688455
 0.006111894 0.005540872 0.004970987 0.004402169 0.003831152 0.003260499 0.002692368 0.002131352 0.00158315 0.001053301
 0.0005472142 7.203766E-05 -0.0003683064 -0.0007633617 -0.001109333 -0.001394363 -0.001614276 -0.001763224 -0.001838032 -0.001846547
 -0.001787822 -0.001685407 -0.001540427 -0.001385842 -0.001223416 -0.001084721 -0.0009706166 -0.0009027957 -0.0008803402 -0.0009119867
 -0.0009948165 -0.001126956 -0.001302906 -0.001513491 -0.001750593 -0.002001578 -0.002257688 -0.002507094 -0.002745054 -0.002964359
 -0.003167679 -0.003353202 -0.003529413 -0.003697931 -0.003866814 -0.004038037 -0.004214515 -0.004396874 -0.004585285 -0.00477971
 -0.004983621 -0.005197452 -0.005429628 -0.005680784 -0.005959736 -0.006266383 -0.006605147 -0.006975257 -0.007377224 -0.007809605
 -0.008270662 -0.008757509 -0.009266374 -0.009793383 -0.0103338 -0.0108854 -0.01144519 -0.01201344 -0.01258967 -0.01317413
 -0.01376692 -0.01436753 -0.01497535 -0.01559336 -0.01622126 -0.01686774 -0.01753337 -0.01822548 -0.01894397 -0.01968534
 -0.0204478 -0.02121669 -0.02198957 -0.02274866 -0.02349199 -0.02420546 -0.02488739 -0.02552846 -0.02612699 -0.02667728
 -0.02717792 -0.02762594 -0.02802001 -0.02835865 -0.02864067 -0.02886504 -0.02903179 -0.02914005 -0.02919355 -0.02919175
 -0.02914481 -0.02905292 -0.02893328 -0.02878681 -0.02863565 -0.02848111 -0.02834675 -0.02823411 -0.02816576 -0.02814294
 -0.02818391 -0.02828757 -0.02846213 -0.02870138 -0.02899975 -0.02934528 -0.02972179 -0.03011467 -0.03050537 -0.03088342
 -0.03123569 -0.0315618 -0.03185676 -0.03212976 -0.032382 -0.03262347 -0.03285694 -0.03308467 -0.03330791 -0.03352091
 -0.03372355 -0.03390646 -0.03406924 -0.03420457 -0.03431299 -0.03439492 -0.03445259 -0.03449595 -0.03452754 -0.0345603
 -0.03459442 -0.03463728 -0.03468556 -0.03473854 -0.03479091 -0.03483773 -0.03487427 -0.03489535 -0.03490078 -0.03488804
 -0.03486302 -0.03482662 -0.03478542 -0.03474163 -0.03469468 -0.03464541 -0.03458619 -0.03451651 -0.03443037 -0.03432765
 -0.03420958 -0.03407661 -0.03393371 -0.03378052 -0.0336183 -0.03344543 -0.03325749 -0.03305367 -0.03282885 -0.03258644
 -0.03232734 -0.03205962 -0.03179054 -0.03152854 -0.03128185 -0.0310534 -0.03084763 -0.03066051 -0.03049225 -0.03033638
 -0.03019136 -0.03005433 -0.02992449 -0.02980301 -0.02969003 -0.02958428 -0.02948555 -0.02938655 -0.02928702 -0.02918093
 -0.0290693 -0.02895417 -0.02883614 -0.02871928 -0.02860076 -0.02847722 -0.02834476 -0.02819509 -0.02802953 -0.02784481
 -0.02764804 -0.02744288 -0.02723536 -0.02703027 -0.02682662 -0.02662618 -0.02642189 -0.0262128 -0.02599205 -0.02575816
 -0.02551045 -0.02524831 -0.0249805 -0.02470759 -0.02444514 -0.0241938 -0.02396687 -0.02376303 -0.02358371 -0.02342534
 -0.02327763 -0.02313804 -0.02299492 -0.02285089 -0.02270361 -0.02255962 -0.0224247 -0.02230367 -0.0222021 -0.02212083
 -0.02206142 -0.02202439 -0.02200995 -0.0220197 -0.02205484 -0.0221117 -0.02219107 -0.02227969 -0.02237696 -0.02246512
 -0.02254325 -0.02259661 -0.022625 -0.02262031 -0.02258366 -0.02251525 -0.02241841 -0.02230323 -0.02217363 -0.02204398
 -0.02191361 -0.02178925 -0.02166471 -0.02153604 -0.02139833 -0.02124576 -0.0210795 -0.02089872 -0.02070495 -0.02049892
 -0.02027957 -0.02004535 -0.01980389 -0.01955433 -0.01931835 -0.01909769 -0.0189096 -0.01875475 -0.01862465 -0.01851699
 -0.01840318 -0.0182822 -0.01813237 -0.01795762 -0.0177585 -0.01754114 -0.01731977 -0.01709692 -0.01688389 -0.01667731
 -0.0164786 -0.0162818 -0.01608275 -0.01587811 -0.01566426 -0.01544317 -0.01521391 -0.01498253 -0.01474986 -0.01452263
 -0.01430214 -0.01409103 -0.01388995 -0.01369532 -0.01350694 -0.01331768 -0.01312725 -0.01292987 -0.01272613 -0.01251566
 -0.01230043 -0.0120864 -0.01187631 -0.01167976 -0.01149689 -0.01133357 -0.0111847 -0.01104801 -0.01091595 -0.0107821
 -0.01064187 -0.01049093 -0.01032864 -0.01015367 -0.009967278 -0.009769291 -0.009562237 -0.009346367 -0.009124375 -0.008896581
 -0.008663819 -0.008426148 -0.008184345 -0.007938674 -0.007692902 -0.007446941 -0.007203322 -0.006959619 -0.006709626 -0.006449279
 -0.006166012 -0.00585769 -0.005514169 -0.005138497 -0.004727846 -0.004292854 -0.003837716 -0.003380539 -0.00292944 -0.002505436
 -0.002116834 -0.001780608 -0.001503085 -0.001289562 -0.00114376 -0.00105149 -0.001013102 -0.0009973368 -0.001002487 -0.0009979153
 -0.0009832425 -0.0009458497 -0.0008875812 -0.0008127515 -0.0007230166 -0.0006265775 -0.0005236011 -0.0004187211 -0.00031095 -0.0002004935
 -8.704852E-05 3.093097E-05 0.0001495658 0.0002683605 0.0003774095 0.0004720636 0.0005426328 0.0005828592 0.0005947987 0.0005752801
 0.0005417131 0.0004951605 0.0004585962 0.0004345915 0.000435849 0.0004632815 0.0005106985 0.0005769131 0.0006435382 0.0007100535
 0.0007629392 0.0008049693 0.0008385251 0.0008676459 0.0009041186 0.0009481655 0.001006967 0.00107513 0.001149333 0.001224584
 0.001293715 0.00136095 0.001424205 0.001497115 0.001584447 0.001695551 0.001837517 0.00199359 0.002164078 0.002318585
 0.002452682 0.002564973 0.002654999 0.002741568 0.00282507 0.002914826 0.003008993 0.003101086 0.003188088 0.003255327
 0.003301077 0.003312959 0.003292715 0.0032362 0.003149927 0.003038477 0.002911575 0.00277789 0.002646193 0.002523304
 0.002415419 0.002326535 0.002259153 0.002215443 0.002191822 0.002188517 0.002198487 0.002220917 0.002252366 0.00229255
 0.002342465 0.002401751 0.002465944 0.002532651 0.00258464 0.002618214 0.00260909 0.002557171 0.002446546 0.002287328
 0.002085781 0.001862017 0.001642896 0.001442058 0.001283866 0.001160769 0.001076274 0.001017087 0.0009763159 0.0009556399
 0.0009531683 0.0009777247 0.001031735 0.001112961 0.001222303 0.001346199 0.001483883 0.001623447 0.001764773 0.001905426
 0.002046437 0.002193097 0.002347218 0.002518424 0.002708487 0.002927515 0.00317461 0.003454612 0.003761029 0.004089418
 0.004429518 0.004770819 0.005107589 0.005431619 0.00574799 0.006055936 0.006364512 0.006676883 0.006994518 0.007318487
 0.007646115 0.007976636 0.008314849 0.008660872 0.009026169 0.009410786 0.009816504 0.0102404 0.01066386 0.01108126
 0.01146021 0.01179629 0.01206041 0.01225367 0.01236297 0.01239577 0.01235443 0.01225085 0.0120935 0.01189951
 0.01167814 0.01145233 0.01123261 0.01103741 0.01087634 0.01074663 0.01065195 0.01056852 0.0104945 0.01040688
 0.01030369 0.01018186 0.01004196 0.009897548 0.009749677 0.009612876 0.009486299 0.009374781 0.009275496 0.009183548
 0.009096097 0.009004396 0.008910257 0.008809915 0.008713393 0.00862743 0.008562576 0.008530816 0.008524954 0.008550027
 0.008576369 0.008597926 0.008586014 0.008532249 0.008433357 0.008286623 0.008107829 0.007897835 0.007669875 0.007424466
 0.0071686 0.006903375 0.006640105 0.006380947 0.006142136 0.005923289 0.005733594 0.005567062 0.005418022 0.005277622
 0.005130179 0.004975006 0.004801678 0.004625965 0.004452301 0.004302004 0.004187327 0.004113037 0.004085831 0.004091142
 0.004128268 0.004178832 0.004240951 0.004298289 0.004349707 0.004378539 0.0043845</values></Ydata></AB><ScSm><Ydata ylabel="Single channel"><values byteorder="INTEL" format="FLOAT32" numvalues="1814"> 0.08661177 0.08672665 0.0868579 0.08701214 0.08718301 0.08735526 0.08751287 0.08764977 0.08777115 0.08788233
 0.08798546 0.08809124 0.08822014 0.08838269 0.08856504 0.08873798 0.08887807 0.08898702 0.08909556 0.08923461
 0.08939263 0.08951315 0.08954789 0.08951025 0.0894682 0.08948232 0.08956493 0.08971535 0.08996052 0.0902922
 0.09057775 0.09064634 0.09050465 0.0903669 0.09041586 0.09061797 0.09081466 0.09089746 0.09084933 0.09072723
 0.09068453 0.09092481 0.09151833 0.0922493 0.09268124 0.09240949 0.09133115 0.08978951 0.0884915 0.08813983
 0.08892696 0.09032004 0.09145942 0.09185347 0.09164586 0.09124701 0.09090593 0.09070647 0.09075677 0.09116725
 0.09187131 0.09255608 0.09278438 0.09228034 0.09124105 0.09030337 0.09002558 0.09045373 0.09131288 0.09234016
 0.09304157 0.0924446 0.0899555 0.08666676 0.0850233 0.08656807 0.09032933 0.09383243 0.09535454 0.09483837
 0.09318104 0.09143956 0.09055215 0.09101394 0.09255213 0.09440021 0.0959113 0.09673256 0.09663992 0.09563997
 0.09418266 0.0929711 0.09257117 0.09325203 0.09487824 0.09673773 0.0978214 0.09761994 0.09650816 0.09525237
 0.09444258 0.09446017 0.09550379 0.09735445 0.09939748 0.1010789 0.1021933 0.1027583 0.1028782 0.1027268
 0.1024631 0.1022051 0.1021418 0.102439 0.1029098 0.1030532 0.1026095 0.1019117 0.1015497 0.101763
 0.1022374 0.1024861 0.1023331 0.1018217 0.1007175 0.09862304 0.0957868 0.09323037 0.09175239 0.09136536
 0.0919407 0.09355481 0.09571445 0.09710929 0.09692431 0.09593514 0.09567122 0.09676631 0.09856007 0.1000758
 0.1009748 0.1016179 0.1024955 0.1036674 0.1046138 0.1046089 0.1034532 0.1019392 0.1013287 0.1021342
 0.1036264 0.1047445 0.1052201 0.1055505 0.1061183 0.1066336 0.1063833 0.1049885 0.1030502 0.1019471
 0.1027013 0.1049646 0.1071946 0.1078226 0.1063714 0.1037137 0.1013385 0.1002797 0.1007124 0.102373
 0.1049299 0.1078277 0.1102009 0.1113098 0.1110516 0.1099428 0.1085572 0.1069913 0.1050633 0.1031425
 0.1023738 0.1036064 0.1063017 0.10896 0.1105073 0.110893 0.1104803 0.1093182 0.1072382 0.1046027
 0.1026397 0.1025365 0.1040965 0.1057841 0.1063567 0.1060252 0.1057623 0.1059637 0.1062249 0.1061569
 0.1059584 0.106129 0.1068343 0.1077025 0.1082271 0.1082415 0.1079583 0.1076665 0.1074569 0.1071723
 0.106648 0.106075 0.1059859 0.1066948 0.1078737 0.10888 0.1093893 0.1095265 0.1094784 0.1091802
 0.1084329 0.1072987 0.1062938 0.1060228 0.1065923 0.1075283 0.1082805 0.1086309 0.1086416 0.1084477
 0.1081668 0.1078664 0.1075786 0.1073805 0.1073829 0.1075826 0.1078164 0.1079232 0.1078762 0.1077254
 0.1074926 0.1071736 0.1068063 0.1064895 0.1063192 0.1063107 0.1063985 0.1065037 0.1065675 0.1065371
 0.1063841 0.1061442 0.1058928 0.1056734 0.1054862 0.105336 0.1052483 0.1052286 0.1052369 0.1052179
 0.1051466 0.1050312 0.1048849 0.1047124 0.1045248 0.1043475 0.1042097 0.1041285 0.1040929 0.1040669
 0.1040276 0.1039936 0.1039872 0.1039803 0.1039177 0.103791 0.1036507 0.1035492 0.1034973 0.1034729
 0.1034462 0.1033893 0.1032794 0.1031147 0.1029351 0.1028115 0.1027911 0.1028634 0.1029856 0.1031201
 0.1032346 0.103301 0.1033188 0.1033176 0.103319 0.1033147 0.1032912 0.1032583 0.1032486 0.1032934
 0.1033927 0.1035104 0.1036053 0.1036609 0.1036824 0.1036872 0.1037054 0.1037573 0.1038206 0.1038493
 0.1038361 0.1038267 0.1038623 0.1039287 0.103977 0.1039815 0.1039655 0.1039718 0.1040164 0.1040779
 0.1041289 0.1041665 0.1042097 0.1042717 0.1043361 0.1043647 0.1043351 0.1042691 0.1042109 0.1041818
 0.104172 0.1041725 0.1041905 0.1042289 0.1042682 0.1042811 0.1042601 0.1042239 0.1041946 0.1041701
 0.1041296 0.1040615 0.1039788 0.1039043 0.1038488 0.1038054 0.1037576 0.1036919 0.1036051 0.1035046
 0.1033996 0.1032929 0.1031805 0.1030604 0.1029439 0.1028535 0.1027965 0.1027422 0.1026402 0.1024684
 0.1022561 0.1020545 0.1018924 0.1017603 0.1016305 0.1014843 0.1013239 0.1011645 0.1010217 0.1009021
 0.1008013 0.1007091 0.100622 0.1005528 0.1005203 0.1005227 0.1005291 0.100507 0.1004558 0.1004038
 0.100376 0.1003751 0.1003912 0.1004173 0.1004544 0.1005089 0.1005823 0.1006617 0.1007285 0.1007798
 0.1008346 0.1009151 0.1010297 0.1011741 0.1013344 0.1014877 0.1016149 0.1017223 0.1018384 0.1019858
 0.1021623 0.1023536 0.1025534 0.1027659 0.1029933 0.1032323 0.1034817 0.103747 0.1040339 0.1043393
 0.1046513 0.1049587 0.1052612 0.1055711 0.1059045 0.1062688 0.1066555 0.1070472 0.1074301 0.1078042
 0.1081802 0.108566 0.1089581 0.1093511 0.1097505 0.1101699 0.1106121 0.1110631 0.1115083 0.1119466
 0.1123863 0.112832 0.1132805 0.1137277 0.1141763 0.1146348 0.1151035 0.1155672 0.1160074 0.1164232
 0.1168328 0.1172549 0.1176942 0.1181405 0.1185746 0.1189795 0.1193565 0.1197297 0.1201222 0.1205311
 0.1209354 0.121328 0.1217266 0.1221472 0.1225759 0.1229774 0.1233312 0.1236527 0.1239744 0.1243104
 0.1246454 0.1249573 0.1252435 0.1255203 0.1258022 0.1260906 0.1263848 0.1266921 0.1270159 0.1273413
 0.1276457 0.1279229 0.1281855 0.128445 0.1286988 0.1289363 0.1291523 0.1293556 0.1295643 0.1297891
 0.130022 0.1302482 0.1304705 0.1307088 0.1309756 0.1312655 0.1315722 0.1319004 0.1322531 0.132617
 0.1329754 0.1333317 0.1337045 0.1340943 0.1344689 0.1347951 0.1350749 0.1353364 0.1356005 0.1358715
 0.1361549 0.1364599 0.1367827 0.137099 0.137377 0.1375958 0.1377573 0.1378878 0.1380198 0.1381656
 0.1383162 0.1384674 0.1386401 0.1388666 0.1391645 0.1395228 0.1399055 0.1402666 0.1405665 0.140779
 0.1408843 0.1408651 0.1407181 0.1404584 0.1401019 0.1396435 0.1390613 0.1383366 0.1374619 0.1364307
 0.1352332 0.1338712 0.1323819 0.1308487 0.1293902 0.1281318 0.127174 0.1265733 0.1263389 0.126434
 0.1267748 0.1272346 0.1276609 0.1279044 0.1278478 0.1274271 0.1266422 0.1255506 0.1242432 0.1228178
 0.1213623 0.1199447 0.1186158 0.1174307 0.1164833 0.1159177 0.1158969 0.1165512 0.1179343 0.1199896
 0.1225353 0.1252944 0.127982 0.1304023 0.1324878 0.1342703 0.1358248 0.1372307 0.138551 0.1398209
 0.1410459 0.1422151 0.1433172 0.1443423 0.1452753 0.1460934 0.1467704 0.1472789 0.147594 0.1477089
 0.1476541 0.1475017 0.1473444 0.1472568 0.1472571 0.1472899 0.1472487 0.1470292 0.1465764 0.145906
 0.1451134 0.1443904 0.1440325 0.1443905 0.1457391 0.1481169 0.1512639 0.1547278 0.1580668 0.1609978
 0.1634215 0.1653714 0.1669497 0.168272 0.1694274 0.1704682 0.1714233 0.1723131 0.1731542 0.1739581
 0.174732 0.1754806 0.176208 0.176917 0.1776087 0.1782832 0.1789415 0.1795857 0.1802185 0.1808423
 0.1814576 0.1820623 0.1826566 0.1832463 0.1838354 0.1844175 0.1849812 0.1855239 0.1860545 0.1865835
 0.187117 0.1876557 0.1881939 0.1887186 0.1892182 0.1896931 0.1901538 0.1906088 0.1910579 0.1914971
 0.1919268 0.1923507 0.1927701 0.1931841 0.1935944 0.1940041 0.1944125 0.1948139 0.1952049 0.1955895
 0.1959757 0.196367 0.1967605 0.1971513 0.1975384 0.1979268 0.198325 0.1987368 0.1991562 0.1995722
 0.1999781 0.2003755 0.2007707 0.2011691 0.2015736 0.2019831 0.2023938 0.2028012 0.2032031 0.2035989
 0.2039889 0.204375 0.2047597 0.2051439 0.2055267 0.2059062 0.206282 0.2066568 0.2070343 0.2074173
 0.2078053 0.208195 0.2085813 0.2089608 0.2093332 0.2097002 0.2100627 0.2104204 0.2107758 0.2111347
 0.211503 0.2118823 0.2122688 0.212656 0.2130396 0.2134203 0.2138001 0.2141789 0.214555 0.2149268
 0.2152945 0.2156608 0.2160298 0.2164043 0.2167828 0.2171613 0.2175353 0.2179022 0.2182629 0.2186217
 0.2189822 0.219346 0.2197133 0.220084 0.2204563 0.220828 0.2211972 0.2215616 0.2219188 0.2222703
 0.2226207 0.2229728 0.2233249 0.2236741 0.2240197 0.2243653 0.2247164 0.225074 0.2254334 0.2257899
 0.226144 0.2264994 0.2268581 0.227219 0.2275771 0.2279279 0.2282719 0.2286148 0.2289618 0.2293144
 0.2296716 0.2300294 0.2303823 0.2307302 0.231079 0.231431 0.2317837 0.2321368 0.2324923 0.2328493
 0.2332057 0.2335615 0.2339165 0.23427 0.2346242 0.2349822 0.2353433 0.2357068 0.2360746 0.2364461
 0.2368158 0.2371801 0.2375387 0.237892 0.2382419 0.2385921 0.2389438 0.2392956 0.2396484 0.2400029
 0.240355 0.240701 0.2410428 0.2413844 0.2417288 0.2420777 0.2424293 0.2427797 0.2431299 0.2434845
 0.2438439 0.2442065 0.2445749 0.2449493 0.245323 0.2456933 0.2460667 0.246447 0.2468303 0.247213
 0.2475951 0.2479768 0.2483602 0.2487464 0.2491299 0.2495059 0.2498793 0.2502559 0.2506356 0.2510186
 0.2514067 0.2517943 0.2521753 0.2525525 0.2529313 0.2533109 0.2536919 0.2540778 0.2544647 0.254846
 0.2552215 0.2555933 0.2559615 0.2563336 0.2567197 0.2571166 0.2575141 0.2579086 0.2582979 0.2586767
 0.2590481 0.2594196 0.2597892 0.2601532 0.2605185 0.2608881 0.2612554 0.2616195 0.2619834 0.2623342
 0.2626418 0.2628407 0.2627555 0.2620149 0.2600047 0.2558823 0.2487472 0.2380082 0.2237511 0.2068321
 0.1886301 0.1706088 0.1539232 0.1392814 0.1270537 0.1174277 0.1105066 0.1064039 0.1053275 0.1076916
 0.1142653 0.125724 0.1409708 0.1556634 0.1638212 0.1623556 0.1538754 0.1443187 0.1381031 0.1359415
 0.1363397 0.1378228 0.139807 0.1424302 0.1460467 0.1507099 0.1561181 0.1621227 0.1690218 0.1771123
 0.1861085 0.1952463 0.2039234 0.2120916 0.2200346 0.2278867 0.2354377 0.2423314 0.2483405 0.2534525
 0.2578025 0.2615804 0.2649511 0.2680194 0.2708525 0.2734878 0.2758793 0.2778735 0.2792991 0.2801065
 0.2804289 0.2805144 0.2805873 0.2807564 0.2810358 0.2814164 0.281892 0.2824501 0.2830757 0.2837567
 0.2844745 0.285206 0.2859386 0.2866661 0.2873771 0.2880605 0.2887121 0.2893253 0.2898936 0.2904232
 0.2909282 0.2914175 0.291895 0.292366 0.2928323 0.293292 0.2937467 0.2941965 0.2946332 0.2950481
 0.2954395 0.2958099 0.2961651 0.2965147 0.2968624 0.2972013 0.2975287 0.297853 0.2981809 0.2985117
 0.2988441 0.2991765 0.2995037 0.2998217 0.3001312 0.3004339 0.3007318 0.3010308 0.301335 0.3016415
 0.3019476 0.3022563 0.3025694 0.3028836 0.3031957 0.3035053 0.3038152 0.3041324 0.3044612 0.3047956
 0.3051264 0.3054554 0.3057915 0.3061386 0.3064945 0.3068569 0.3072212 0.3075804 0.3079321 0.3082774
 0.3086139 0.3089346 0.3092357 0.309521 0.3098019 0.3100907 0.3103925 0.3107024 0.3110144 0.3113277
 0.3116426 0.3119584 0.3122739 0.3125862 0.3128948 0.3132101 0.3135476 0.3139072 0.3142745 0.3146426
 0.3150175 0.3153998 0.315779 0.3161488 0.3165103 0.3168618 0.3171995 0.3175319 0.3178837 0.3182771
 0.3187092 0.3191493 0.3195671 0.3199589 0.3203431 0.3207378 0.3211504 0.3215712 0.3219669 0.3223011
 0.3225845 0.3228859 0.323272 0.3237438 0.3242461 0.3247254 0.3251658 0.3255785 0.3259746 0.3263536
 0.3267077 0.3270324 0.3273397 0.3276672 0.3280588 0.3285195 0.3290025 0.329455 0.3298622 0.3302357
 0.3305891 0.3309344 0.3312655 0.3315374 0.331713 0.3318511 0.3320987 0.3325539 0.3331582 0.3337572
 0.3342516 0.3346573 0.3350305 0.3353912 0.3357333 0.3360347 0.3362147 0.3361752 0.3359765 0.3359041
 0.3362355 0.3369569 0.3377953 0.3384975 0.3390023 0.3393779 0.3397029 0.3400146 0.3402897 0.3404471
 0.340431 0.3403372 0.3404022 0.3407893 0.3414046 0.342002 0.3424439 0.3427794 0.3431036 0.3434485
 0.3437665 0.3439127 0.3437065 0.3431805 0.3427471 0.3429304 0.3438589 0.3451177 0.346164 0.346809
 0.3472166 0.3475218 0.3476298 0.347388 0.3467708 0.3458874 0.3450355 0.3447509 0.3454587 0.3469333
 0.3483874 0.3492603 0.3497009 0.3501757 0.3508606 0.3515627 0.3520403 0.3522201 0.3521599 0.3519114
 0.3514951 0.3510574 0.3509638 0.351542 0.3527017 0.3539557 0.3548775 0.3554381 0.3558095 0.3558674
 0.3550609 0.3530627 0.3506247 0.349393 0.3504468 0.3531648 0.3558992 0.3576049 0.3584135 0.3588685
 0.3592176 0.3593387 0.3587175 0.3566136 0.3530651 0.349771 0.3490615 0.3515987 0.3556337 0.3587039
 0.3595213 0.3582373 0.355804 0.3535284 0.352615 0.3535165 0.3557422 0.3583566 0.3605405 0.3618129
 0.3620658 0.3615247 0.3606529 0.3600199 0.3599441 0.3600169 0.3593574 0.3577524 0.3560661 0.3549075
 0.3535076 0.350972 0.3482736 0.3476512 0.3498417 0.3530183 0.3549084 0.3551174 0.3547258 0.3541025
 0.352007 0.347223 0.3408055 0.3360438 0.3356221 0.3389145 0.3425806 0.343814 0.3425307 0.3404348
 0.338641 0.3365647 0.3329353 0.3277302 0.3229041 0.3207029 0.3212075 0.3222512 0.3218216 0.3194749
 0.315297 0.3093875 0.3034901 0.30134 0.3053203 0.3134139 0.3209373 0.3245523 0.3233036 0.3172214
 0.3076409 0.298634 0.2951921 0.2986382 0.3051095 0.3093258 0.3087749 0.3038122 0.2954807 0.2850366
 0.2750598 0.2691472 0.2696106 0.275617 0.2833722 0.2877912 0.2851017 0.2758504 0.2656083 0.2607788
 0.2626235 0.2664755 0.267262 0.264279 0.2601298 0.2571472 0.2560937 0.2566552 0.2578121 0.2586205
 0.2589367 0.258117 0.2536816 0.2440708 0.2328081 0.2266579 0.228647 0.2355906 0.2432246 0.2504869
 0.2572224 0.2611189 0.2601702 0.2567022 0.2559176 0.2603386 0.2673799 0.2726208 0.2742721 0.2739016
 0.273513 0.2730992 0.2716844 0.2700077 0.2705468 0.2744412 0.2797156 0.2834272 0.2846216 0.2843422
 0.2836575 0.2827676 0.2815458 0.2799744 0.2781053 0.2760741 0.2740855 0.2721888 0.2702473 0.2682034
 0.26601 0.2630695 0.258298 0.2515857 0.2450312 0.2415317 0.2417918 0.2438816 0.2460116 0.2478446
 0.2482194 0.244182 0.2348471 0.2248744 0.2212712 0.2266194 0.2370038 0.2463678 0.2512681 0.2513142
 0.247147 0.2401654 0.2340647 0.2342206 0.2435554 0.2594791 0.2761911 0.2895685 0.2987627 0.3040052
 0.3050708 0.3024387 0.2986317 0.297249 0.3005166 0.3078347 0.3162658 0.3218874 0.321472 0.3151412
 0.3082286 0.3080727 0.3166828 0.328021 0.3346496 0.3355519 0.3351052 0.3361502 0.3375133 0.3378187
 0.3382447 0.3404353 0.3437185 0.3456315 0.3441301 0.3384622 0.3291263 0.3184174 0.3101181 0.306673
 0.3067594 0.3070805 0.3059044 0.3030554 0.2977666 0.289847 0.2826489 0.281225 0.2865679 0.2941971
 0.2992975 0.3012152 0.3020918 0.3028797 0.3021608 0.2985052 0.2930171 0.2888718 0.2881996 0.2900565
 0.2919362 0.292448 0.2915606 0.2890916 0.284706 0.279522 0.2762359 0.2767721 0.2802925 0.2840841
 0.28612 0.2863378 0.2858119 0.2854563 0.2855659 0.2859788 0.2864841 0.2873982 0.2896108 0.2935397
 0.2981958 0.3019816 0.3044402 0.3066036 0.3095269 0.313024 0.3160426 0.3179087 0.3189709 0.3201924
 0.3222651 0.3250184 0.3275465 0.3289716 0.3292636 0.3293472 0.3302639 0.3321944 0.3344254 0.3362217
 0.3374912 0.3386169 0.3399512 0.3415504 0.3431479 0.344327 0.3449525 0.345472 0.3465545 0.3483633
 0.3503674 0.3519058 0.3527584 0.3531175 0.3531937 0.3530083 0.3525155 0.3517892 0.3510303 0.3504156
 0.3499803 0.3496462 0.3493258 0.3489812 0.3486274 0.3483234 0.3481472 0.3481448 0.348302 0.3485719
 0.3489013 0.3492225 0.349463 0.3495956 0.349652 0.349662 0.3496003 0.3494076 0.3490334 0.3484361
 0.3475639 0.3463624 0.3447876 0.3427911 0.3403249 0.3374503 0.3345121 0.3321667 0.3311085 0.3316407
 0.3334597 0.3358492 0.3381066 0.3398564 0.3410785 0.3419353 0.3425919 0.3431399 0.3436071 0.3439909
 0.3442841 0.344493 0.3446387 0.3447404 0.3448052 0.3448346 0.344833 0.3448021 0.3447339 0.3446104
 0.3444111 0.3441178 0.3437186 0.3432093 0.342589 0.341853 0.3409878 0.3399852 0.3388637 0.3376715
 0.336464 0.3352775 0.3341163 0.3329509 0.3317271 0.3303785 0.3288243 0.3269812 0.3248377 0.3225378
 0.320333 0.3183915 0.3166622 0.3149505 0.3130994 0.3110723 0.308905 0.3066396 0.3043049 0.3019185
 0.2994863 0.2970039 0.2944618 0.2918499 0.2891627 0.2864022 0.2835751 0.2806934 0.2777796 0.2748596
 0.2719291 0.268917 0.2656834 0.2620584 0.2578889 0.2530693 0.2475621 0.2414244 0.2348259 0.2280256
 0.2213095 0.2149277 0.2090675 0.2038587 0.1993897 0.1957205 0.1928885 0.1909152 0.1898147 0.1895957
 0.1902549 0.1917622 0.1940449 0.1969769 0.2003831 0.2040627 0.207814 0.211457 0.2148707 0.2180339
 0.2210187 0.2239135 0.2267405 0.2294491 0.2319761 0.2342928 0.2363954 0.238276 0.2399261 0.241364
 0.2426444 0.2438309 0.24496 0.2460247 0.2469884 0.2478138 0.2484838 0.2490012 0.2493747 0.2496134
 0.249739 0.2497999 0.2498712 0.250037 0.250365 0.2508869 0.2515979 0.252464 0.2534301 0.2544364
 0.255447 0.2564717 0.2575599 0.2587729 0.260157 0.2617333 0.2635009 0.2654382 0.2674955 0.2695884
 0.2716112 0.2734647 0.2750801 0.2764278 0.2775136 0.2783639 0.2790131 0.2794998 0.2798682 0.2801587
 0.2803964 0.2805874 0.28072 0.2807663 0.2806875 0.2804484 0.2800351 0.2794629 0.2787635 0.2779595
 0.2770551 0.2760535 0.2749738 0.273851 0.2727341 0.2716885 0.2707845 0.2700703 0.269554 0.2692015
 0.2689452 0.268699 0.2683791 0.2679204 0.2672837 0.2664546 0.2654315 0.264211 0.2627858 0.2611574
 0.2593461 0.2573886 0.2553244 0.2531782 0.250953 0.2486389 0.2462205 0.243684 0.2410445 0.238371
 0.2357621 0.2332878 0.2309678 0.2287939 0.2267475 0.2248004 0.2229233 0.2210985 0.2193234 0.2176098
 0.2159788 0.2144448 0.213009 0.2116719 0.2104421 0.2093279 0.2083329 0.2074577 0.2066964 0.2060356
 0.2054588 0.2049472 0.2044925 0.2041207 0.2038807 0.2037796 0.2037439 0.2036639 0.2034695 0.2031669
 0.2028234 0.2025182 0.2022927 0.2021394 0.202023 0.2018857 0.2016436 0.2012031 0.2004801 0.1994007
 0.1979192 0.1960558 0.1938999 0.1915804 0.1892454 0.1870477 0.1851116 0.1835114 0.1822685 0.1813393
 0.1806194 0.1800107 0.1794972 0.1791466 0.1790438 0.1791992 0.1794891 0.1797156 0.1797829 0.1798027
 0.1799915 0.1804867 0.1812665 0.1821928 0.183101 0.1838786 0.1844832 0.1849052 0.1851505 0.1852535
 0.1852573 0.1851741 0.184991 0.1846929 0.1842671 0.1837186 0.1830836 0.1823915 0.1816287 0.1807685
 0.1798056 0.1787377 0.17756 0.1762759 0.1748669 0.1732917 0.1715974 0.1700085 0.1688407 0.1683191
 0.1684598 0.1690741 0.1699011 0.170773 0.1716246 0.1723662 0.1728986 0.1733187 0.1739929 0.1753068
 0.1773267 0.1797121 0.1819538 0.1836933 0.1848189 0.1853395 0.1852915 0.184746 0.1837603 0.1823286
 0.1804723 0.1783134 0.1759879 0.1735956 0.1712666 0.1691398 0.1672863 0.1657429 0.1645267 0.1636325
 0.1631195 0.1626998 0.160739 0.1548386 0.1452455 0.1370286 0.1362306 0.1433439 0.1526102 0.1581994
 0.1591521 0.1579514 0.1566534 0.1557109 0.1550547 0.1547545 0.1548528 0.1552231 0.1556178 0.1557837
 0.155617 0.1551419 0.154237 0.1523995 0.1487575 0.142399 0.1330535 0.1217004 0.1103395 0.1009311
 0.09444669 0.09068943 0.0887118 0.08746126 0.08637968 0.08560444 0.08562735 0.08679004 0.08908823 0.09230737
 0.09617449 0.1003415 0.1043437 0.1077462 0.1103737 0.1123155 0.1136969 0.1145477 0.1148816 0.1147704
 0.114305 0.1135611 0.112606 0.1114809 0.1101853 0.1087261 0.1071932 0.1057793 0.104702 0.1040622
 0.1037754 0.1036717 0.1036435 0.1036708 0.1037573 0.1039007 0.104096 0.1043335 0.1046116 0.1049472
 0.105337 0.1057251 0.1060403 0.1062509 0.1063694 0.1064151 0.1063756 0.1062133 0.1059402 0.1056497
 0.105385 0.1049947 0.1042449 0.1031128 0.1019057 0.1010615 0.1008403 0.1011698 0.1017317 0.102202
 0.102447 0.1025275 0.1025506 0.1025248</values></Ydata></ScSm><ScRf><Ydata ylabel="Single channel"><values byteorder="INTEL" format="FLOAT32" numvalues="1820"> 0.06968359 0.06981333 0.06993465 0.0700428 0.07013816 0.07023003 0.07033169 0.07045003 0.07058193 0.07071732
 0.07084489 0.07095875 0.07105995 0.07115038 0.07123187 0.07131487 0.07141736 0.07154705 0.07168958 0.07181868
 0.07191704 0.07199249 0.072076 0.07219315 0.07233001 0.07243527 0.07246604 0.07243082 0.07238474 0.07238142
 0.07243812 0.0725581 0.07275994 0.07303086 0.07326113 0.07331416 0.07319621 0.07307868 0.07310826 0.07326032
 0.0734105 0.07347222 0.07342993 0.07332869 0.07329375 0.07349038 0.07397261 0.07456225 0.07490547 0.07467662
 0.07379371 0.07253517 0.07147562 0.0711877 0.07182814 0.07296113 0.07388379 0.07419474 0.07401346 0.07367902
 0.07339731 0.0732356 0.07327791 0.07361013 0.07417664 0.07472435 0.07490152 0.07448789 0.0736452 0.07288899
 0.07266904 0.07302003 0.07371844 0.07455097 0.07511444 0.07461718 0.07258093 0.06990278 0.06857359 0.06983933
 0.07289816 0.07573602 0.07696024 0.07653236 0.07518359 0.07377127 0.07305478 0.07343229 0.07467917 0.07617404
 0.07739487 0.07805583 0.07797363 0.07715407 0.07596457 0.07497734 0.0746529 0.07521073 0.07653885 0.07805333
 0.07893133 0.07876209 0.0778547 0.07683188 0.07616974 0.07617639 0.0770148 0.07850987 0.08016349 0.08152516
 0.08242817 0.08288936 0.08299518 0.08288289 0.08267447 0.082461 0.08239748 0.08262271 0.08298953 0.08309674
 0.0827385 0.08218433 0.08190472 0.082085 0.08246745 0.08266211 0.08253188 0.08211225 0.08121061 0.07950638
 0.0772073 0.07514387 0.07395785 0.0736542 0.07413057 0.07545041 0.07720719 0.07833156 0.07816733 0.0773554
 0.07714106 0.07803288 0.07948869 0.08071572 0.08144255 0.08196376 0.08267628 0.08362667 0.08439235 0.08438619
 0.08345003 0.08223026 0.08174879 0.08241467 0.08363085 0.08453918 0.08492973 0.08521064 0.08568949 0.08612496
 0.08593489 0.08481517 0.08326105 0.08239503 0.08304156 0.08491086 0.0867486 0.08728327 0.08613022 0.08400102
 0.08210671 0.08128596 0.08167835 0.08307154 0.08519924 0.08760935 0.08959331 0.09054665 0.09038723 0.08953799
 0.08846682 0.0872502 0.08573874 0.08423658 0.08368281 0.08477204 0.08706141 0.08932251 0.09067424 0.09107213
 0.09081247 0.08993841 0.0883155 0.08624394 0.08473431 0.08476126 0.08615453 0.0876422 0.08820491 0.0880301
 0.08792749 0.08821614 0.08854824 0.08859897 0.08854355 0.08880848 0.08953217 0.09039685 0.09097171 0.09111315
 0.09099793 0.09087052 0.09081151 0.09069252 0.09037797 0.09003389 0.09011213 0.09087107 0.09202163 0.09301473
 0.09358037 0.09383227 0.09393144 0.09381633 0.09330794 0.09245886 0.09172215 0.09162961 0.09227465 0.0932411
 0.09404543 0.09449763 0.09465462 0.09463644 0.09454483 0.09443726 0.09434135 0.09432329 0.09447667 0.09479611
 0.09514176 0.0953788 0.09548648 0.0955049 0.09544817 0.09531186 0.09513095 0.09499234 0.09497908 0.09510513
 0.09531669 0.09554799 0.0957482 0.0958676 0.09587368 0.09579229 0.09569283 0.09562479 0.09559654 0.09561001
 0.09567787 0.09579709 0.09593115 0.0960355 0.09609276 0.09611335 0.09610958 0.0960854 0.09604894 0.09602084
 0.09602599 0.09607844 0.0961678 0.09626423 0.09635291 0.09645383 0.09658188 0.09670061 0.09675304 0.09673323
 0.09669496 0.0966927 0.09673934 0.09681498 0.09689125 0.09694186 0.09694576 0.09690093 0.09684324 0.09683679
 0.09692657 0.09710562 0.09733518 0.09757617 0.09779179 0.09795249 0.09806062 0.09814814 0.0982362 0.09831598
 0.0983757 0.09842832 0.09850671 0.0986381 0.09881961 0.09901606 0.09918815 0.09932017 0.09942041 0.09951307
 0.09963097 0.09978686 0.09994349 0.1000442 0.1000854 0.1001281 0.1002246 0.1003579 0.1004682 0.1005222
 0.1005435 0.1005811 0.1006602 0.1007671 0.1008746 0.1009747 0.101082 0.1012073 0.1013294 0.101402
 0.1013987 0.1013473 0.101304 0.1012986 0.1013212 0.1013593 0.1014196 0.1015059 0.1015954 0.1016519
 0.1016617 0.1016477 0.1016425 0.1016523 0.1016532 0.101623 0.1015669 0.1015096 0.1014713 0.1014551
 0.1014488 0.1014346 0.1014001 0.1013448 0.1012773 0.1012051 0.1011297 0.1010538 0.1009942 0.1009773
 0.1010055 0.1010313 0.1009847 0.1008383 0.1006364 0.1004522 0.1003242 0.1002351 0.1001413 0.1000144
 0.09985916 0.09970114 0.09956047 0.09943812 0.09932365 0.09921115 0.09910814 0.09903206 0.09899326 0.09897429
 0.09893277 0.09883781 0.09870191 0.09856742 0.09846523 0.09839637 0.09834688 0.09830647 0.09827468 0.0982585
 0.09826147 0.09827162 0.0982684 0.09824616 0.09822267 0.09822263 0.09826118 0.09834003 0.09844354 0.09853906
 0.09859929 0.09863023 0.09866565 0.09873088 0.09882247 0.09892502 0.09903491 0.09916069 0.09930806 0.09947294
 0.09964812 0.0998313 0.1000264 0.1002374 0.1004605 0.1006837 0.1008985 0.1011125 0.1013453 0.1016091
 0.1018963 0.1021866 0.1024642 0.102729 0.1029922 0.1032629 0.1035404 0.1038216 0.1041114 0.1044184
 0.1047414 0.1050685 0.1053898 0.1057052 0.1060204 0.1063384 0.1066589 0.1069833 0.1073217 0.1076863
 0.1080714 0.1084447 0.108771 0.1090487 0.1093128 0.1096024 0.1099308 0.1102816 0.1106213 0.1109235
 0.1111923 0.1114604 0.1117539 0.1120645 0.1123684 0.1126668 0.11299 0.1133574 0.1137425 0.1140889
 0.1143623 0.1145831 0.1148018 0.115045 0.115294 0.1155193 0.1157216 0.1159273 0.1161527 0.1163895
 0.1166293 0.1168809 0.1171534 0.1174327 0.1176925 0.1179222 0.1181332 0.1183368 0.1185272 0.1186872
 0.1188057 0.1188927 0.1189777 0.1190872 0.1192227 0.1193674 0.119512 0.1196651 0.1198367 0.1200253
 0.1202279 0.1204487 0.1206895 0.1209384 0.1211825 0.1214312 0.1217099 0.1220196 0.1223197 0.1225678
 0.1227663 0.1229528 0.1231518 0.1233615 0.1235824 0.1238298 0.1241135 0.1244193 0.1247212 0.125004
 0.1252755 0.1255592 0.1258685 0.1261843 0.1264657 0.1266902 0.1268756 0.1270625 0.1272797 0.127531
 0.127804 0.128084 0.128358 0.1286099 0.1288172 0.1289635 0.1290563 0.1291245 0.1291862 0.1292243
 0.1291993 0.1290817 0.1288635 0.1285399 0.1280963 0.1275228 0.126842 0.1261209 0.1254557 0.1249421
 0.1246507 0.1246168 0.1248393 0.12528 0.1258663 0.126505 0.1271017 0.127572 0.1278436 0.127867
 0.127631 0.1271665 0.1265285 0.1257755 0.1249599 0.1241247 0.1233049 0.1225426 0.1219135 0.1215353
 0.1215372 0.1220113 0.1229788 0.1243742 0.1260446 0.1277815 0.1293956 0.1307886 0.1319639 0.1329761
 0.1338778 0.1347031 0.1354766 0.136215 0.1369222 0.1375935 0.1382262 0.1388208 0.1393726 0.139867
 0.1402857 0.1406165 0.1408587 0.1410238 0.1411294 0.1411899 0.1412156 0.1412191 0.1412107 0.1411781
 0.1410775 0.1408554 0.1404848 0.1399854 0.1394274 0.1389317 0.1386629 0.1387944 0.1394387 0.1405782
 0.1420556 0.1436449 0.1451475 0.1464428 0.1474868 0.148295 0.1489243 0.1494424 0.1498978 0.1503138
 0.1507024 0.1510738 0.1514344 0.1517871 0.1521338 0.1524781 0.1528245 0.1531746 0.1535228 0.1538595
 0.1541817 0.1545004 0.1548321 0.1551842 0.1555476 0.1559057 0.1562509 0.1565919 0.1569388 0.1572871
 0.1576214 0.1579358 0.1582418 0.1585562 0.1588873 0.1592319 0.159577 0.1599061 0.1602107 0.1604976
 0.1607814 0.1610699 0.1613602 0.1616468 0.1619284 0.1622075 0.162488 0.1627725 0.1630618 0.1633515
 0.1636331 0.1638991 0.1641497 0.1643937 0.1646423 0.1649005 0.1651643 0.1654249 0.1656782 0.1659301
 0.1661907 0.1664625 0.1667363 0.1670005 0.1672518 0.1674947 0.1677353 0.1679777 0.1682256 0.1684804
 0.1687391 0.168996 0.169248 0.169496 0.1697434 0.1699936 0.1702482 0.1705061 0.1707639 0.1710174
 0.171264 0.1715057 0.1717475 0.1719941 0.1722476 0.1725051 0.1727602 0.1730069 0.1732431 0.1734709
 0.173695 0.1739217 0.1741558 0.1743972 0.1746409 0.1748825 0.1751212 0.1753591 0.1756 0.175847
 0.1760984 0.1763471 0.176587 0.1768181 0.1770455 0.1772752 0.1775116 0.1777557 0.1780034 0.1782484
 0.178487 0.1787211 0.1789557 0.1791934 0.179432 0.1796677 0.1799007 0.1801347 0.1803724 0.1806138
 0.1808581 0.1811033 0.1813466 0.1815851 0.1818165 0.1820421 0.1822665 0.1824935 0.1827221 0.1829513
 0.1831847 0.1834247 0.1836663 0.1839037 0.1841385 0.1843764 0.184619 0.184863 0.1851044 0.1853412
 0.1855739 0.1858041 0.1860334 0.1862645 0.1865007 0.1867431 0.1869878 0.1872309 0.1874717 0.1877109
 0.1879493 0.1881896 0.1884344 0.1886828 0.1889325 0.1891828 0.1894334 0.189683 0.1899326 0.1901839
 0.1904386 0.1906977 0.1909607 0.1912236 0.1914823 0.1917372 0.1919889 0.192235 0.1924751 0.1927118
 0.1929446 0.1931706 0.1933903 0.1936079 0.1938269 0.1940511 0.1942844 0.1945251 0.1947663 0.195003
 0.195235 0.195465 0.1956989 0.1959419 0.1961931 0.1964479 0.1967031 0.1969558 0.1972043 0.1974536
 0.1977101 0.1979724 0.1982346 0.1984967 0.1987614 0.1990262 0.1992894 0.1995529 0.1998163 0.2000777
 0.2003395 0.2006043 0.2008713 0.2011397 0.2014095 0.201676 0.2019367 0.2021972 0.2024631 0.2027327
 0.2030055 0.2032834 0.2035625 0.2038372 0.2041085 0.2043779 0.2046439 0.2049107 0.2051851 0.2054638
 0.2057387 0.2060112 0.2062863 0.2065635 0.2068422 0.2071215 0.2073944 0.2076584 0.2079218 0.2081889
 0.2084525 0.2087104 0.2089668 0.2092158 0.2094365 0.2095751 0.2094873 0.2088731 0.2072398 0.2039134
 0.1981739 0.1895511 0.1781199 0.1645706 0.1500079 0.1356005 0.1222698 0.110578 0.100817 0.0931335
 0.08760954 0.08433618 0.08348005 0.08537412 0.09063369 0.09979315 0.111964 0.123667 0.1301311 0.1289121
 0.1221156 0.1144849 0.1095317 0.107811 0.1081289 0.1093116 0.1108913 0.1129741 0.1158442 0.1195505
 0.1238547 0.1286331 0.1341181 0.1405479 0.1476989 0.1549614 0.1618517 0.1683336 0.1746376 0.180869
 0.1868542 0.1923114 0.197069 0.2011202 0.2045654 0.2075472 0.2101973 0.212605 0.2148293 0.2169004
 0.218779 0.2203399 0.2214451 0.2220543 0.2222731 0.2223 0.2223158 0.2224087 0.2225912 0.2228591
 0.2232117 0.2236402 0.2241291 0.2246635 0.2252251 0.2257949 0.2263636 0.2269279 0.2274793 0.228007
 0.2285045 0.2289676 0.2293972 0.2298033 0.2301968 0.2305799 0.2309536 0.2313218 0.2316848 0.2320405
 0.2323908 0.2327372 0.2330724 0.2333887 0.2336857 0.2339654 0.2342294 0.2344843 0.2347404 0.2350025
 0.2352687 0.235533 0.2357882 0.236032 0.2362701 0.2365087 0.2367483 0.2369886 0.2372313 0.2374749
 0.2377157 0.2379528 0.2381888 0.2384269 0.2386692 0.2389153 0.2391598 0.2393984 0.2396328 0.2398669
 0.2401049 0.2403529 0.2406144 0.2408831 0.2411494 0.2414133 0.2416809 0.2419526 0.2422246 0.2424964
 0.2427703 0.2430478 0.2433283 0.2436079 0.2438782 0.2441315 0.2443668 0.2445903 0.2448129 0.2450454
 0.2452895 0.2455379 0.245783 0.246023 0.246258 0.2464899 0.2467249 0.2469672 0.247215 0.2474682
 0.2477339 0.2480173 0.2483123 0.2486085 0.2489009 0.2491899 0.2494783 0.2497696 0.2500642 0.2503566
 0.2506407 0.250918 0.2512016 0.2515086 0.2518426 0.2521855 0.2525143 0.2528237 0.2531273 0.2534406
 0.2537693 0.254104 0.2544169 0.2546816 0.2549103 0.2551573 0.2554698 0.2558433 0.2562339 0.2566039
 0.2569459 0.2572711 0.2575876 0.257893 0.2581799 0.2584445 0.2586966 0.2589659 0.2592851 0.2596546
 0.2600355 0.2603889 0.2607098 0.2610129 0.2613091 0.2616003 0.2618721 0.2620866 0.2622217 0.2623322
 0.2625358 0.2629051 0.2633898 0.2638679 0.2642641 0.2645943 0.2649039 0.2652082 0.2655019 0.2657663
 0.2659351 0.2659286 0.2657955 0.2657635 0.2660518 0.2666487 0.2673403 0.267929 0.2683639 0.2686957
 0.2689871 0.2692706 0.2695275 0.2696891 0.2697087 0.2696641 0.2697468 0.270087 0.270609 0.2711175
 0.2715065 0.2718156 0.2721159 0.2724262 0.272709 0.2728545 0.2727219 0.2723328 0.2720106 0.2721752
 0.2729371 0.2739704 0.2748392 0.2753876 0.2757436 0.2760126 0.2761188 0.2759441 0.2754732 0.2747951
 0.2741461 0.2739531 0.2745537 0.2757629 0.2769503 0.2776727 0.2780546 0.2784688 0.2790542 0.279656
 0.2800797 0.2802647 0.2802587 0.2801069 0.2798266 0.2795315 0.2795089 0.2800202 0.2809965 0.282052
 0.2828451 0.2833498 0.2837018 0.2838004 0.2832039 0.2816538 0.2797594 0.2788433 0.2797666 0.2820233
 0.2842862 0.2857168 0.2864263 0.2868589 0.2872158 0.2873939 0.2869741 0.2853612 0.2825889 0.2800251
 0.2795425 0.2816739 0.2850154 0.287587 0.2883458 0.2874047 0.2855323 0.2837945 0.2831708 0.2840222
 0.2859424 0.2881706 0.2900483 0.2911966 0.2915364 0.2912463 0.2906889 0.2903187 0.2903973 0.2906007
 0.2902193 0.2890806 0.2878802 0.2871069 0.2861419 0.2842751 0.2823068 0.2820494 0.2840874 0.2869283
 0.2887284 0.2891763 0.2891556 0.28896 0.2875715 0.284003 0.2791378 0.2756959 0.2759017 0.2792601
 0.2830461 0.2849818 0.2850325 0.2846151 0.2846103 0.2844363 0.2829186 0.2799562 0.2771617 0.276416
 0.277755 0.2793052 0.2793516 0.2775326 0.2739323 0.2686606 0.2632923 0.2611496 0.2643659 0.2712286
 0.2776979 0.2808967 0.2800024 0.2750293 0.2671267 0.259844 0.257538 0.2613487 0.2678676 0.2724431
 0.2728486 0.2693681 0.2628966 0.2545555 0.2466885 0.2425718 0.2443306 0.2512336 0.2598135 0.265358
 0.264329 0.2572129 0.2492158 0.2463287 0.249692 0.254855 0.257009 0.2555032 0.2528244 0.2512093
 0.2514164 0.253159 0.2554311 0.2572985 0.258619 0.2587066 0.2549979 0.2458836 0.2349328 0.2290093
 0.2311974 0.2383046 0.2460543 0.2533944 0.2601541 0.2639594 0.262756 0.2588877 0.2576101 0.2614743
 0.2678927 0.2724469 0.2733727 0.2722741 0.2711944 0.2701761 0.2682944 0.2663038 0.2666496 0.2704345
 0.2756916 0.2795149 0.2809671 0.2810773 0.2808932 0.2805979 0.2800463 0.2792037 0.2781124 0.2769064
 0.275795 0.2748335 0.2738839 0.2728848 0.2717825 0.2699422 0.2661966 0.2603691 0.2545781 0.2517804
 0.2526675 0.255222 0.2576004 0.2594702 0.2596242 0.2549854 0.2446356 0.2334319 0.2286681 0.2330239
 0.2424259 0.2506084 0.2540658 0.2524953 0.2466755 0.2380988 0.2304366 0.2289112 0.2362821 0.2499402
 0.2642237 0.2751913 0.2821405 0.2854267 0.2849278 0.2811316 0.2764039 0.2740681 0.2761135 0.2818777
 0.2885608 0.292545 0.2909591 0.2840288 0.2766594 0.2754912 0.2823248 0.2917319 0.2970442 0.2973453
 0.2965314 0.2971328 0.2981324 0.2983575 0.2989001 0.3012462 0.3048218 0.3074658 0.3073734 0.3038557
 0.2973347 0.2898831 0.284906 0.2844465 0.2869317 0.2889839 0.2888954 0.2866608 0.2818489 0.2745391
 0.268001 0.2669406 0.2721519 0.279314 0.2839135 0.2854449 0.2860234 0.2865759 0.2857545 0.2822092
 0.2769962 0.273123 0.2726022 0.2745549 0.2766577 0.2776574 0.2775614 0.2761816 0.2731533 0.2695039
 0.2677843 0.2697974 0.2746656 0.279686 0.2828114 0.2838928 0.2838906 0.283637 0.283398 0.2830277
 0.2823666 0.2818043 0.2823092 0.2843956 0.2872137 0.2893155 0.2903227 0.2912436 0.2930687 0.2955716
 0.2976719 0.2986329 0.2987115 0.298815 0.299673 0.301234 0.3027192 0.303314 0.3029723 0.3025658
 0.3031005 0.3047576 0.3068229 0.308505 0.309597 0.3103667 0.311111 0.311903 0.3125566 0.3127857
 0.3125887 0.312477 0.3130888 0.3145211 0.3162089 0.3174948 0.3181638 0.3184017 0.3184181 0.318249
 0.3178661 0.3173438 0.3168616 0.3165664 0.31647 0.3164805 0.3165008 0.3164849 0.3164386 0.316404
 0.3164331 0.3165469 0.3167256 0.316941 0.3171729 0.3173889 0.3175489 0.3176502 0.3177335 0.3178191
 0.3178625 0.317789 0.3175419 0.3170807 0.3163648 0.3153639 0.3140651 0.3124429 0.3104556 0.308154
 0.3058552 0.3041727 0.3037582 0.3048903 0.3072576 0.3101324 0.3127809 0.3147838 0.3160839 0.3168328
 0.3172166 0.3173714 0.3173764 0.3172701 0.3170689 0.3167878 0.31645 0.316083 0.3157129 0.3153637
 0.3150523 0.3147781 0.3145198 0.3142433 0.3139179 0.3135277 0.3130704 0.3125481 0.3119602 0.3112993
 0.3105501 0.3096966 0.3087429 0.3077276 0.3067109 0.3057429 0.3048369 0.3039675 0.3030907 0.3021619
 0.3011283 0.2999267 0.2985436 0.2970961 0.2958008 0.2948039 0.2940506 0.2933446 0.2925183 0.29152
 0.2903786 0.2891416 0.2878494 0.2865279 0.2851825 0.2838001 0.2823577 0.2808288 0.2791953 0.2774605
 0.2756454 0.2737716 0.2718543 0.2699029 0.2679043 0.2657915 0.2634364 0.260682 0.2573878 0.2534584
 0.2488642 0.2436648 0.2380195 0.2321598 0.2263274 0.2207238 0.2155011 0.2107832 0.2066831 0.2033002
 0.2007093 0.1989546 0.1980547 0.19801 0.198804 0.2003959 0.2027117 0.2056376 0.2090183 0.2126664
 0.2163787 0.2199666 0.2233026 0.2263573 0.2291808 0.2318287 0.2343021 0.2365597 0.2385704 0.2403337
 0.2418571 0.2431369 0.2441747 0.2450019 0.2456761 0.2462542 0.2467681 0.2472205 0.2475955 0.24788
 0.248083 0.2482383 0.248386 0.2485516 0.2487421 0.2489571 0.2492022 0.2494949 0.2498563 0.2503006
 0.2508308 0.2514414 0.252119 0.2528455 0.2536093 0.2544197 0.2553074 0.2563134 0.257475 0.2588106
 0.2603104 0.2619335 0.2636103 0.2652463 0.266736 0.2679887 0.2689518 0.2696155 0.2699986 0.2701306
 0.2700464 0.2697859 0.2693858 0.2688674 0.2682405 0.2675207 0.2667326 0.2658932 0.2650026 0.2640537
 0.2630512 0.2620202 0.2609967 0.2600053 0.2590495 0.2581226 0.2572185 0.2563309 0.2554564 0.2546043
 0.2537907 0.2530227 0.2522947 0.2515994 0.2509298 0.2502714 0.2495938 0.2488484 0.2479813 0.2469568
 0.2457666 0.2444187 0.2429248 0.2412999 0.2395593 0.237714 0.2357721 0.2337423 0.2316336 0.2294547
 0.2272077 0.2248836 0.2224846 0.2200603 0.2177012 0.2154845 0.2134382 0.2115523 0.209801 0.2081569
 0.2066011 0.2051244 0.2037162 0.2023635 0.2010606 0.1998098 0.1986178 0.1974972 0.1964622 0.1955201
 0.1946772 0.1939456 0.1933288 0.192811 0.1923721 0.1920031 0.1917118 0.1915252 0.1914753 0.1915543
 0.1916925 0.1917975 0.1918149 0.1917519 0.1916576 0.1915826 0.1915459 0.1915402 0.1915509 0.191543
 0.1914371 0.1911279 0.1905201 0.1895381 0.1881367 0.1863332 0.1842197 0.1819398 0.1796617 0.1775518
 0.1757385 0.1742885 0.173204 0.1724206 0.171831 0.171353 0.1709841 0.1707906 0.1708515 0.1711783
 0.1716423 0.1720244 0.1722088 0.1723142 0.1725885 0.1731933 0.174105 0.1751675 0.1762045 0.1771083
 0.1778495 0.1784276 0.1788466 0.1791299 0.1793078 0.1793876 0.1793612 0.1792242 0.1789721 0.1786089
 0.1781583 0.1776331 0.1770121 0.1762789 0.1754462 0.1745241 0.1735113 0.1724093 0.1711957 0.1698254
 0.1683424 0.1669652 0.1659994 0.1656661 0.1659944 0.1668213 0.1679067 0.1690856 0.1702734 0.1713448
 0.1721592 0.1727799 0.17356 0.1749027 0.176918 0.1793104 0.1815913 0.1833973 0.1846039 0.1852115
 0.1852559 0.1848077 0.1839153 0.1825522 0.1807196 0.1785409 0.1761789 0.1737681 0.1714569 0.1693748
 0.1675672 0.166054 0.164858 0.1639922 0.1635248 0.1631582 0.1612408 0.1553681 0.1458033 0.1376428
 0.1369418 0.1441769 0.1535603 0.1592444 0.1602695 0.159122 0.1578503 0.1568944 0.1561821 0.155797
 0.1558038 0.156095 0.1564346 0.1565739 0.1564049 0.155943 0.1550612 0.1532533 0.1496338 0.1432605
 0.1338344 0.1223373 0.1108112 0.1012679 0.09470175 0.09090395 0.0889079 0.08765615 0.08659443 0.08585876
 0.08593354 0.08715489 0.08951899 0.09281687 0.09678497 0.101085 0.1052549 0.1088488 0.1116715 0.1137983
 0.1153558 0.116381 0.1168887 0.1169477 0.1166536 0.1160921 0.1153304 0.1143893 0.1132339 0.1118422
 0.1102968 0.1088062 0.1076149 0.1068515 0.1064568 0.1062777 0.106204 0.1061952 0.1062347 0.1063167
 0.1064476 0.1066297 0.1068652 0.1071656 0.1075191 0.1078681 0.1081528 0.108357 0.1084896 0.108542
 0.1084721 0.1082354 0.1078573 0.1074454 0.1070511 0.1065322 0.1056664 0.104438 0.1031495 0.1022263
 0.1019235 0.1021817 0.1027027 0.1031682 0.1034329 0.1035415 0.1035871 0.1035642 0.10336 0.1028855
</values></Ydata></ScRf><Data_Parameters_AB><parameter name="DPF">1</parameter><parameter name="NPT">3497</parameter><parameter name="FXV">3996</parameter><parameter name="LXV">500</parameter><parameter name="CSF">1</parameter><parameter name="MXY">0.0206955093890429</parameter><parameter name="MNY">-0.102353066205978</parameter><parameter name="DAT">13/02/2024</parameter><parameter name="TIM">13:11:19.177 (GMT+1)</parameter><parameter name="DXU">WN</parameter></Data_Parameters_AB><AB__Qtest><MainReport name="Quality Test Report"><Header><Line><Legend>Test result ok/not ok [1/0]: </Legend><Value>0</Value></Line><Line><Legend>Method file: </Legend><Value>C:\Users\Public\Documents\Bruker\OPUS_8.2.28\QT\IRBT_v3_default.QT</Value></Line></Header><Matrix><Line><Legend></Legend><Legend>min</Legend><Legend>max</Legend><Legend>measured</Legend></Line><Line><Value>Absorption (X-Range 1):</Value><Value>0.400000</Value><Value>2.000000</Value><Value>0.107374</Value></Line><Line><Value>Noise (X-Range 4):</Value><Value></Value><Value>0.000300</Value><Value>0.000027</Value></Line><Line><Value>Signal/Noise (X-Range 2):</Value><Value>200.000000</Value><Value></Value><Value>75.046543</Value></Line><Line><Value>Signal/Noise (X-Range 3):</Value><Value>40.000000</Value><Value></Value><Value>64.145762</Value></Line><Line><Value>Water vapour (X-Range 5):</Value><Value></Value><Value>0.000300</Value><Value>0.000024</Value></Line><Line><Value>Signal/Water (X-Range 2):</Value><Value>100.000000</Value><Value></Value><Value>86.391685</Value></Line><Line><Value>Signal/Water (X-Range 3):</Value><Value>20.000000</Value><Value></Value><Value>73.842981</Value></Line><Line><Value>Fringes (X-Range 6):</Value><Value></Value><Value>0.000100</Value><Value>0.000037</Value></Line></Matrix></MainReport></AB__Qtest><Data_Parameters_ScSm><parameter name="DPF">1</parameter><parameter name="NPT">1814</parameter><parameter name="FXV">3996.63438082617</parameter><parameter name="LXV">499.579297603271</parameter><parameter name="CSF">1</parameter><parameter name="MXY">0.36206579208374</parameter><parameter name="MNY">0.0850232988595963</parameter><parameter name="DAT">13/02/2024</parameter><parameter name="TIM">13:11:19.177 (GMT+1)</parameter><parameter name="DXU">WN</parameter></Data_Parameters_ScSm><Data_Parameters_ScRf><parameter name="DPF">1</parameter><parameter name="NPT">1820</parameter><parameter name="FXV">4004.34989121387</parameter><parameter name="LXV">495.721542409425</parameter><parameter name="CSF">1</parameter><parameter name="MXY">0.318418085575104</parameter><parameter name="MNY">0.0685735940933228</parameter><parameter name="DAT">13/02/2024</parameter><parameter name="TIM">13:10:53.322 (GMT+1)</parameter><parameter name="DXU">WN</parameter></Data_Parameters_ScRf><Optic_Parameters_Rf><parameter name="APR">0</parameter><parameter name="APT">Open</parameter><parameter name="BMS">KBr</parameter><parameter name="DTC">RT-DLaTGS_IR-Biotyper [Microplate reader]</parameter><parameter name="HPF">0</parameter><parameter name="LPF">10.0</parameter><parameter name="LPV">4000</parameter><parameter name="PGR">0</parameter><parameter name="RCH">Module port</parameter><parameter name="RDX">0</parameter><parameter name="SRC">MIR</parameter><parameter name="VEL">10.0</parameter><parameter name="SON">Off</parameter></Optic_Parameters_Rf><Acquisition_Parameters_Rf><parameter name="ADT">1</parameter><parameter name="AQM">DD</parameter><parameter name="CFE">0</parameter><parameter name="COR">0</parameter><parameter name="DEL">0</parameter><parameter name="DLY">0</parameter><parameter name="HFW">8000</parameter><parameter name="LFW">0</parameter><parameter name="NSR">32</parameter><parameter name="PLF">AB</parameter><parameter name="RES">6</parameter><parameter name="RGN">-1</parameter><parameter name="STR">0</parameter><parameter name="TCL">MakeCompatibleScalar (0, {WSV=1.000000, ARV=0});</parameter><parameter name="TDL">37</parameter><parameter name="RPO">0</parameter></Acquisition_Parameters_Rf><FT_-_Parameters_Rf><parameter name="APF">B3</parameter><parameter name="HFQ">500</parameter><parameter name="LFQ">4000</parameter><parameter name="NLI">0</parameter><parameter name="PHR">24</parameter><parameter name="PHZ">ML</parameter><parameter name="SPZ">NO</parameter><parameter name="ZFF">1</parameter></FT_-_Parameters_Rf><Optic_Parameters_><parameter name="APR">0</parameter><parameter name="APT">Open</parameter><parameter name="BMS">KBr</parameter><parameter name="CHN">Module port</parameter><parameter name="DTC">RT-DLaTGS_IR-Biotyper [Microplate reader]</parameter><parameter name="HPF">0</parameter><parameter name="LPF">10.0</parameter><parameter name="LPV">4000</parameter><parameter name="PGN">0</parameter><parameter name="RDX">0</parameter><parameter name="SRC">MIR</parameter><parameter name="VEL">10.0</parameter><parameter name="SON">Off</parameter></Optic_Parameters_><FT_-_Parameters_><parameter name="APF">B3</parameter><parameter name="HFQ">500</parameter><parameter name="LFQ">4000</parameter><parameter name="NLI">0</parameter><parameter name="PHR">24</parameter><parameter name="PHZ">ML</parameter><parameter name="SPZ">NO</parameter><parameter name="ZFF">1</parameter></FT_-_Parameters_><Acquisition_Parameters_><parameter name="ADT">1</parameter><parameter name="AQM">DD</parameter><parameter name="CFE">0</parameter><parameter name="COR">0</parameter><parameter name="DEL">0</parameter><parameter name="DLY">0</parameter><parameter name="HFW">8000</parameter><parameter name="LFW">0</parameter><parameter name="NSS">32</parameter><parameter name="PLF">AB</parameter><parameter name="RES">6</parameter><parameter name="SOT">0</parameter><parameter name="TCL">MakeCompatibleScalar (0, {WSV=1.000000, ARV=0});</parameter><parameter name="TDL">37</parameter><parameter name="SPO">0</parameter><parameter name="SGN">-1</parameter></Acquisition_Parameters_><Instrument_Parameters_Rf><parameter name="HFL">15801.365274</parameter><parameter name="LFL">0</parameter><parameter name="LWN">15801.365274</parameter><parameter name="ABP">32157</parameter><parameter name="SSP">1</parameter><parameter name="ARG">2</parameter><parameter name="ASG">2</parameter><parameter name="ASS">32</parameter><parameter name="GFW">16</parameter><parameter name="GBW">16</parameter><parameter name="BFW">0</parameter><parameter name="BBW">0</parameter><parameter name="PKA">9177</parameter><parameter name="PKL">5009</parameter><parameter name="PRA">9167</parameter><parameter name="PRL">4988</parameter><parameter name="P2A">1</parameter><parameter name="P2L">1</parameter><parameter name="P2R">1</parameter><parameter name="P2K">1</parameter><parameter name="DAQ">0</parameter><parameter name="AG2">1</parameter><parameter name="SSM">1</parameter><parameter name="RSN">48109</parameter><parameter name="CRR">0</parameter><parameter name="SRT">1707829853.323</parameter><parameter name="DUR">19.6389923095703</parameter><parameter name="TSC">30</parameter><parameter name="MVD">0.416428238153458</parameter><parameter name="AN1">0.225962478553841</parameter><parameter name="AN2">0</parameter><parameter name="VSN">2.485 Apr  4 2017</parameter><parameter name="SRN">0085</parameter><parameter name="CAM">0</parameter><parameter name="INS">IR-Biotyper</parameter><parameter name="FOC">69</parameter><parameter name="RDY">1</parameter><parameter name="ARS">32</parameter></Instrument_Parameters_Rf><Sample_Parameters_><parameter name="BLD"></parameter><parameter name="CNM">Admin</parameter><parameter name="CPY"></parameter><parameter name="DPM"></parameter><parameter name="EXP">IRBT_v3_32Scans.XPM</parameter><parameter name="LCT"></parameter><parameter name="SFM">Microplate, HTS-XT</parameter><parameter name="SNM">240213-1206-Cdiff_SCFA_3_GDA_C38_242149694_C3_55f5216f-8559-4a69-b3cf-ba1ab5d947ef.0</parameter><parameter name="XPP">C:\Users\Public\Documents\Bruker\OPUS_8.2.28\XPM</parameter><parameter name="IST">OK</parameter><parameter name="CPG">1252</parameter><parameter name="UID">eba227c2-1a29-445b-b147-99bc2d98e0f4</parameter></Sample_Parameters_><Instrument_Parameters_><parameter name="HFL">15801.365274</parameter><parameter name="LFL">0</parameter><parameter name="LWN">15801.365274</parameter><parameter name="ABP">32157</parameter><parameter name="SSP">1</parameter><parameter name="ASG">2</parameter><parameter name="ARG">2</parameter><parameter name="ASS">32</parameter><parameter name="GFW">16</parameter><parameter name="GBW">16</parameter><parameter name="BFW">0</parameter><parameter name="BBW">0</parameter><parameter name="PKA">10461</parameter><parameter name="PKL">5009</parameter><parameter name="PRA">10549</parameter><parameter name="PRL">4980</parameter><parameter name="P2A">1</parameter><parameter name="P2L">1</parameter><parameter name="P2R">1</parameter><parameter name="P2K">1</parameter><parameter name="DAQ">0</parameter><parameter name="AG2">1</parameter><parameter name="SSM">1</parameter><parameter name="RSN">24752</parameter><parameter name="CRR">0</parameter><parameter name="SRT">1707829879.177</parameter><parameter name="DUR">19.6389923095703</parameter><parameter name="TSC">30</parameter><parameter name="MVD">0.295550495386124</parameter><parameter name="AN1">0.225922364744606</parameter><parameter name="AN2">0</parameter><parameter name="VSN">2.485 Apr  4 2017</parameter><parameter name="SRN">0085</parameter><parameter name="CAM">0</parameter><parameter name="INS">IR-Biotyper</parameter><parameter name="FOC">69</parameter><parameter name="RDY">1</parameter></Instrument_Parameters_><History/></OPUSDataFile>
