<?xml version="1.0" encoding="UTF-8" ?>
<OPUSDataFile><AB><Ydata ylabel="Absorbance Units"><values byteorder="INTEL" format="FLOAT32" numvalues="3497"> -0.09381896 -0.09383088 -0.09384865 -0.09386967 -0.09388538 -0.09389615 -0.09389757 -0.09389386 -0.09388934 -0.09388743
 -0.09389473 -0.09390812 -0.09392865 -0.09394892 -0.09396493 -0.09397444 -0.09397463 -0.09397101 -0.09396412 -0.09395972
 -0.09395911 -0.09396198 -0.09396857 -0.09397505 -0.09398128 -0.09398588 -0.09398918 -0.09399401 -0.0940007 -0.09401282
 -0.09402944 -0.09405006 -0.0940724 -0.09409127 -0.09410522 -0.0941088 -0.09410468 -0.09409229 -0.09407843 -0.09406754
 -0.09406514 -0.09407642 -0.09409904 -0.09413493 -0.0941736 -0.09421337 -0.09424427 -0.09426389 -0.09427239 -0.09426909
 -0.09426388 -0.09425724 -0.09425762 -0.09426468 -0.0942779 -0.09429621 -0.09431341 -0.09432937 -0.09433998 -0.09434661
 -0.09434994 -0.09435198 -0.09435608 -0.09436359 -0.09437771 -0.09439733 -0.09442343 -0.0944519 -0.09448125 -0.0945072
 -0.09452763 -0.09454164 -0.09454823 -0.09454995 -0.09454698 -0.09454194 -0.09453513 -0.09452744 -0.09451891 -0.09451077
 -0.09450316 -0.09449839 -0.09449638 -0.09449808 -0.09450289 -0.09450925 -0.0945169 -0.09452415 -0.09453165 -0.09454001
 -0.0945489 -0.09455895 -0.09456729 -0.09457192 -0.09457102 -0.09456148 -0.09454913 -0.09453411 -0.094527 -0.09453084
 -0.09454989 -0.09458651 -0.09463196 -0.09468611 -0.09473411 -0.09477516 -0.09480205 -0.09481534 -0.09482004 -0.09481699
 -0.09481408 -0.0948104 -0.09480675 -0.09480228 -0.09479406 -0.09478495 -0.09477756 -0.09477624 -0.09478846 -0.09481181
 -0.09484946 -0.09488952 -0.09492716 -0.09495157 -0.09495568 -0.09494314 -0.09491204 -0.09487545 -0.09483538 -0.09479886
 -0.09476696 -0.09474005 -0.0947182 -0.09470902 -0.0947132 -0.09474342 -0.09479783 -0.09487464 -0.09496588 -0.09504288
 -0.09509786 -0.09509227 -0.09503788 -0.0949306 -0.09480032 -0.09468208 -0.09458906 -0.09454814 -0.09454573 -0.0945836
 -0.09464078 -0.09470969 -0.0947774 -0.094839 -0.09488969 -0.09492806 -0.09495141 -0.09495908 -0.09495303 -0.09493332
 -0.09491053 -0.09488526 -0.09486815 -0.09485863 -0.09485868 -0.09486713 -0.094881 -0.09489936 -0.09491903 -0.09493846
 -0.09495387 -0.09496368 -0.09496368 -0.094956 -0.09493988 -0.09492109 -0.09490287 -0.09488809 -0.09487929 -0.09487434
 -0.09487317 -0.09487379 -0.09487573 -0.09487897 -0.09488354 -0.09488852 -0.09489385 -0.09489821 -0.09490155 -0.09490329
 -0.09490304 -0.09489823 -0.09488798 -0.09486678 -0.09483578 -0.09479381 -0.09474529 -0.09469728 -0.09465306 -0.09462034
 -0.09459753 -0.0945863 -0.0945831 -0.09458619 -0.09459379 -0.09460486 -0.09461857 -0.09463477 -0.0946516 -0.09466885
 -0.09468428 -0.09469768 -0.09470705 -0.09471224 -0.09471238 -0.09470759 -0.09469956 -0.09468891 -0.09468083 -0.09467556
 -0.09467735 -0.09468488 -0.09469736 -0.09471249 -0.09472592 -0.09473626 -0.09473951 -0.09473698 -0.09472769 -0.09471559
 -0.09470266 -0.0946916 -0.09468444 -0.09468029 -0.09467915 -0.09468057 -0.09468386 -0.09469347 -0.09470981 -0.09473655
 -0.09477409 -0.09481677 -0.09486403 -0.09490524 -0.09494041 -0.09496475 -0.09497833 -0.09497975 -0.09496707 -0.09493306
 -0.09487969 -0.0948036 -0.09471716 -0.09463371 -0.09456466 -0.0945278 -0.09451757 -0.0945392 -0.09457287 -0.09461219
 -0.09464122 -0.09465218 -0.09464794 -0.09462652 -0.0946017 -0.09457511 -0.09455317 -0.09453659 -0.09451885 -0.09449948
 -0.09446878 -0.09442741 -0.0943746 -0.09431309 -0.09425355 -0.09419831 -0.09415974 -0.09413671 -0.09413423 -0.09414646
 -0.09416956 -0.09419414 -0.09421074 -0.09421287 -0.09419157 -0.09415297 -0.09409535 -0.09403401 -0.09397352 -0.0939213
 -0.09388082 -0.0938458 -0.09381621 -0.09378274 -0.09374459 -0.09370164 -0.09365426 -0.09361146 -0.09357342 -0.09354652
 -0.09352856 -0.09351441 -0.09349997 -0.09347092 -0.09342606 -0.09335434 -0.09326201 -0.09315126 -0.09303186 -0.09291382
 -0.09280214 -0.09270356 -0.09261703 -0.09254421 -0.09248111 -0.09242749 -0.09237746 -0.09233025 -0.09227936 -0.09222417
 -0.09215798 -0.09208035 -0.09198376 -0.09186799 -0.09172973 -0.09157052 -0.09140052 -0.09122214 -0.09105229 -0.09088996
 -0.09074198 -0.09060404 -0.09047093 -0.09033991 -0.09020466 -0.09006555 -0.08992016 -0.0897712 -0.08961896 -0.08946829
 -0.08932175 -0.08918093 -0.08904901 -0.08891498 -0.08877847 -0.08862204 -0.08844242 -0.08823901 -0.08801092 -0.08777799
 -0.087541 -0.08731393 -0.08709571 -0.08688316 -0.0866752 -0.08646467 -0.08625309 -0.08604085 -0.08583063 -0.0856289
 -0.08543472 -0.08525188 -0.08507194 -0.08488992 -0.08469409 -0.08447292 -0.08422849 -0.08395462 -0.0836731 -0.08338929
 -0.08311883 -0.08286827 -0.08262902 -0.0824017 -0.08216839 -0.08192752 -0.08167396 -0.08140779 -0.08113758 -0.08086346
 -0.08059104 -0.08031842 -0.08003964 -0.07975318 -0.07945003 -0.0791333 -0.07880332 -0.07846746 -0.07813662 -0.07781445
 -0.0775102 -0.07721901 -0.0769413 -0.07666915 -0.07639886 -0.07612608 -0.07584861 -0.07556499 -0.0752744 -0.07497734
 -0.07467342 -0.07436679 -0.07405771 -0.07375003 -0.07344376 -0.07313528 -0.07282427 -0.07250531 -0.07217985 -0.07185168
 -0.0715231 -0.07120398 -0.07089344 -0.07059523 -0.07030552 -0.07002036 -0.06973688 -0.06945026 -0.06916077 -0.06886701
 -0.06857046 -0.06827193 -0.06797088 -0.06766771 -0.06735982 -0.06704657 -0.06672712 -0.06640085 -0.06607185 -0.06574029
 -0.06541172 -0.06508636 -0.06476592 -0.06445013 -0.064137 -0.06382617 -0.06351493 -0.06320307 -0.06288834 -0.06257132
 -0.06225201 -0.06193134 -0.06161121 -0.06129066 -0.06097007 -0.06064651 -0.06031731 -0.05998312 -0.05964199 -0.05930137
 -0.05896283 -0.0586339 -0.05831731 -0.0580123 -0.05771977 -0.05743195 -0.05714836 -0.05686194 -0.05657243 -0.05627856
 -0.05598068 -0.05568196 -0.05538237 -0.0550837 -0.05478491 -0.05448329 -0.05417862 -0.05386825 -0.05355474 -0.05324045
 -0.05292841 -0.05262362 -0.05232467 -0.05203312 -0.05174359 -0.05145355 -0.05116032 -0.05086127 -0.05056106 -0.05025961
 -0.04996501 -0.04967872 -0.0494037 -0.04914076 -0.04888352 -0.04863162 -0.04837449 -0.04811195 -0.04783791 -0.0475533
 -0.04725931 -0.04695766 -0.04665437 -0.04635096 -0.04605404 -0.04576344 -0.04548255 -0.04520827 -0.04493902 -0.04467088
 -0.04440012 -0.04412574 -0.04384558 -0.04356241 -0.04327641 -0.04299129 -0.0427081 -0.04242812 -0.04215207 -0.04187704
 -0.04160295 -0.04132516 -0.04104349 -0.04075984 -0.04047506 -0.04019984 -0.03993431 -0.03968601 -0.03945148 -0.03922366
 -0.03899844 -0.03876165 -0.03851498 -0.03825283 -0.03798364 -0.03771382 -0.03745161 -0.0372065 -0.03697843 -0.03677186
 -0.03657696 -0.03639219 -0.03620582 -0.03601402 -0.03581439 -0.03560518 -0.03539359 -0.03518002 -0.03497181 -0.03476934
 -0.03457318 -0.0343831 -0.03419663 -0.03401345 -0.03383081 -0.03364806 -0.03346138 -0.03327073 -0.03307372 -0.03287165
 -0.03266577 -0.03245638 -0.03224487 -0.03202939 -0.03180838 -0.0315824 -0.03135009 -0.03111698 -0.03088455 -0.03065754
 -0.03043783 -0.03022522 -0.03001994 -0.0298214 -0.02962947 -0.02944583 -0.02927058 -0.0291024 -0.02894078 -0.02877855
 -0.02861515 -0.02844314 -0.02826359 -0.02807564 -0.02788198 -0.02768818 -0.02749681 -0.0273149 -0.02714247 -0.02698313
 -0.02683328 -0.02669202 -0.02655395 -0.02641634 -0.02627437 -0.02612592 -0.02596731 -0.02579713 -0.02561386 -0.02541606
 -0.02521093 -0.02499812 -0.02479668 -0.02460766 -0.02444923 -0.0243209 -0.02422074 -0.02414542 -0.02407325 -0.02400274
 -0.02391519 -0.02381525 -0.02370388 -0.02358772 -0.02347951 -0.02337967 -0.02329552 -0.02321986 -0.02315011 -0.02307792
 -0.02299733 -0.02290604 -0.02280037 -0.02268682 -0.02256547 -0.02244665 -0.02233245 -0.0222266 -0.0221304 -0.0220355
 -0.02194151 -0.02183777 -0.02172458 -0.02160431 -0.02147917 -0.0213648 -0.02126207 -0.02118396 -0.02112676 -0.021089
 -0.02106439 -0.02104145 -0.0210166 -0.02098025 -0.02093386 -0.02087514 -0.02080733 -0.02073184 -0.02065025 -0.02056318
 -0.02047254 -0.02037793 -0.02028599 -0.02019732 -0.02012003 -0.02005538 -0.02000399 -0.01996606 -0.01993175 -0.01990046
 -0.01986109 -0.01981414 -0.01975704 -0.01969172 -0.01962415 -0.01955586 -0.01949415 -0.01943848 -0.01939189 -0.01935154
 -0.01931571 -0.0192806 -0.01924261 -0.01919884 -0.01914625 -0.01908505 -0.01901394 -0.01893666 -0.01885334 -0.01877025
 -0.01868823 -0.01861371 -0.0185477 -0.01849181 -0.01844634 -0.01840455 -0.01836567 -0.0183165 -0.01825633 -0.01817343
 -0.01806848 -0.01793696 -0.01778174 -0.01760622 -0.01741671 -0.01722382 -0.01703756 -0.01687395 -0.01674072 -0.01665227
 -0.0166036 -0.01659993 -0.01661999 -0.01665871 -0.0166912 -0.01670893 -0.0167012 -0.01666298 -0.01660285 -0.01652014
 -0.01643483 -0.01634804 -0.01628016 -0.01623181 -0.01621455 -0.01622706 -0.01626663 -0.0163301 -0.01640359 -0.01648455
 -0.01655885 -0.01662661 -0.0166812 -0.01672461 -0.01675662 -0.01677928 -0.01679391 -0.01680312 -0.01680755 -0.01681352
 -0.01682208 -0.01684462 -0.01688378 -0.01695085 -0.01704921 -0.01717912 -0.01734219 -0.0175235 -0.01772238 -0.01791757
 -0.0181084 -0.01828333 -0.01844349 -0.01859147 -0.01872913 -0.01886561 -0.0190017 -0.01914462 -0.01929339 -0.01945038
 -0.01961224 -0.01977635 -0.01993795 -0.02009139 -0.02023553 -0.02036658 -0.0204902 -0.02060696 -0.02072525 -0.02084803
 -0.02097845 -0.02111838 -0.02126338 -0.02141359 -0.02156031 -0.02170292 -0.02183512 -0.02195697 -0.02207092 -0.02217844
 -0.0222922 -0.02241302 -0.02255239 -0.02270731 -0.0228764 -0.02305427 -0.02322933 -0.02340013 -0.02355855 -0.02370937
 -0.02385361 -0.02399707 -0.02414423 -0.02429657 -0.02445647 -0.02462118 -0.02479087 -0.02496072 -0.02513017 -0.02529351
 -0.02544994 -0.02559629 -0.02573212 -0.02586016 -0.02598071 -0.02610119 -0.0262221 -0.02635085 -0.02648754 -0.02663705
 -0.02679806 -0.02697033 -0.02715052 -0.02733234 -0.02751265 -0.02768368 -0.02784684 -0.02799946 -0.02814751 -0.02829406
 -0.02844332 -0.02859889 -0.02875859 -0.02892294 -0.02908736 -0.02925088 -0.02941164 -0.02956913 -0.02972431 -0.02987723
 -0.03002866 -0.03017862 -0.03032733 -0.03047496 -0.03062276 -0.03077146 -0.03092492 -0.03108406 -0.03125396 -0.03143413
 -0.03162703 -0.03182903 -0.03203697 -0.03224568 -0.03244886 -0.03264434 -0.03282823 -0.03300233 -0.03316611 -0.03332302
 -0.03347392 -0.03362158 -0.03376674 -0.03391093 -0.03405483 -0.03419547 -0.03433283 -0.03446063 -0.03457876 -0.03468686
 -0.0347864 -0.03488995 -0.03499923 -0.03513005 -0.03528047 -0.03545433 -0.03564573 -0.03584499 -0.03604672 -0.03623883
 -0.03642001 -0.03658386 -0.03673336 -0.03686769 -0.0369931 -0.03711167 -0.03723016 -0.0373516 -0.0374775 -0.03760956
 -0.03774206 -0.03787453 -0.03800163 -0.03812268 -0.03823974 -0.03835296 -0.038467 -0.03858118 -0.03869119 -0.03879508
 -0.03888018 -0.03894697 -0.03898805 -0.03901016 -0.03902208 -0.03903339 -0.03906256 -0.03911238 -0.0391955 -0.03930147
 -0.03942915 -0.0395619 -0.03969084 -0.03980859 -0.03990891 -0.03999912 -0.04007925 -0.04015901 -0.04024042 -0.04032326
 -0.04040791 -0.04048786 -0.04056287 -0.04063103 -0.04069261 -0.04075 -0.04080273 -0.04084949 -0.04088951 -0.0409188
 -0.0409389 -0.04095026 -0.04095672 -0.04096419 -0.04097506 -0.04099456 -0.04102176 -0.04105815 -0.04110045 -0.0411479
 -0.04119633 -0.0412437 -0.0412898 -0.04133276 -0.0413821 -0.04143811 -0.04151557 -0.04161615 -0.04174258 -0.04189473
 -0.04205442 -0.04222003 -0.04236729 -0.04249712 -0.04260028 -0.04268142 -0.04275014 -0.04281089 -0.04287839 -0.04295329
 -0.04304374 -0.04314652 -0.0432618 -0.04338494 -0.04351286 -0.04364182 -0.04376912 -0.04389315 -0.04401272 -0.04412772
 -0.0442378 -0.04434404 -0.04444653 -0.04454645 -0.04464399 -0.04473805 -0.04482853 -0.04491197 -0.04498848 -0.04505794
 -0.04512155 -0.04518584 -0.04525145 -0.04532496 -0.04540386 -0.04548639 -0.04556868 -0.04564309 -0.04570983 -0.04576533
 -0.04581363 -0.04585736 -0.04589704 -0.04593544 -0.04596505 -0.04598492 -0.04598447 -0.04596094 -0.04590859 -0.04582591
 -0.04571238 -0.04556785 -0.04539213 -0.04518519 -0.04494425 -0.04466948 -0.04436057 -0.04401984 -0.04365804 -0.04328073
 -0.04291123 -0.04255568 -0.04223964 -0.04196522 -0.04174789 -0.04158428 -0.04147726 -0.04142073 -0.04141184 -0.04144336
 -0.04151248 -0.04160848 -0.04172942 -0.04185747 -0.04198987 -0.04210465 -0.04219857 -0.04225354 -0.04226733 -0.04223287
 -0.04214971 -0.04201892 -0.04184055 -0.04161589 -0.04134404 -0.0410206 -0.04064428 -0.04020793 -0.0397119 -0.0391526
 -0.03853306 -0.0378557 -0.03712538 -0.03634796 -0.03552806 -0.03467076 -0.03377961 -0.0328575 -0.03190709 -0.03092973
 -0.02992762 -0.02890149 -0.0278527 -0.02678133 -0.02568973 -0.02457769 -0.02345296 -0.02231595 -0.0211832 -0.02005615
 -0.01895672 -0.01788663 -0.01686675 -0.01589852 -0.01499749 -0.01416542 -0.01341428 -0.01274462 -0.01216466 -0.0116683
 -0.01125652 -0.01090913 -0.01061653 -0.01034461 -0.01007621 -0.009775877 -0.009426722 -0.009009243 -0.008513766 -0.007941717
 -0.007290768 -0.006573908 -0.005791811 -0.004958856 -0.00407587 -0.003157804 -0.002205868 -0.001239118 -0.0002595864 0.0007113594
 0.001671088 0.002599532 0.003493434 0.004335927 0.005122945 0.005841346 0.006485906 0.007047567 0.00751716 0.007888135
 0.008142547 0.008272931 0.008252464 0.008071344 0.007704343 0.007141742 0.006377073 0.005403904 0.004250075 0.002914335
 0.001462762 -0.0001012066 -0.001687541 -0.003291544 -0.004829101 -0.006299275 -0.007651933 -0.008892594 -0.01001289 -0.0110229
 -0.01194168 -0.01277986 -0.01356319 -0.01430002 -0.01501014 -0.01569764 -0.01637296 -0.0170345 -0.01768517 -0.01831845
 -0.01893303 -0.01952163 -0.02008191 -0.02061048 -0.0211062 -0.02156919 -0.02199945 -0.02239635 -0.02275991 -0.02308485
 -0.02337054 -0.02360686 -0.02379269 -0.02391579 -0.02397542 -0.02396071 -0.02387488 -0.02371668 -0.02349908 -0.02323925
 -0.02296019 -0.02269498 -0.02246337 -0.02229635 -0.02219173 -0.02216233 -0.02218065 -0.02224223 -0.02231135 -0.02237837
 -0.022417 -0.02242089 -0.02237764 -0.02228473 -0.02214167 -0.02194803 -0.02171688 -0.02145039 -0.02118313 -0.02092309
 -0.02073616 -0.02063878 -0.02072773 -0.02102086 -0.0216181 -0.02251567 -0.02376646 -0.02532152 -0.02715791 -0.0291845
 -0.03132664 -0.03348744 -0.03559043 -0.03757841 -0.03940604 -0.04107071 -0.04255896 -0.04390173 -0.04510104 -0.04619138
 -0.04717654 -0.04808163 -0.04890843 -0.04967573 -0.05038439 -0.05104949 -0.05167153 -0.05226122 -0.05281892 -0.05335167
 -0.05386011 -0.05434956 -0.05482034 -0.05527569 -0.05571472 -0.0561378 -0.05654357 -0.0569308 -0.05729913 -0.05764752
 -0.05797777 -0.05828955 -0.05858788 -0.05887344 -0.05915317 -0.0594286 -0.05970308 -0.05997764 -0.06024846 -0.06051544
 -0.06077165 -0.06101693 -0.06124865 -0.06146737 -0.06167624 -0.06187554 -0.06206836 -0.062254 -0.06243196 -0.06260198
 -0.06276263 -0.06291599 -0.06306355 -0.06320895 -0.06335612 -0.06350683 -0.06366416 -0.06382547 -0.06399104 -0.06415554
 -0.06431767 -0.06447293 -0.06462016 -0.06475741 -0.06488421 -0.06500086 -0.06510731 -0.06520619 -0.06529776 -0.0653868
 -0.06547359 -0.06556237 -0.06565289 -0.0657464 -0.06584216 -0.06593871 -0.06603545 -0.06613062 -0.06622369 -0.06631316
 -0.0663989 -0.06648015 -0.06655741 -0.06663076 -0.06670077 -0.06676801 -0.06683153 -0.06689132 -0.06694562 -0.06699371
 -0.06703693 -0.06707492 -0.06711383 -0.06715403 -0.06720142 -0.06725609 -0.06731812 -0.06738692 -0.06745743 -0.06752925
 -0.06759761 -0.06766314 -0.06772508 -0.06778461 -0.06784365 -0.06790294 -0.06796441 -0.06802816 -0.06809518 -0.06816459
 -0.0682367 -0.06830873 -0.06837977 -0.06844699 -0.06850886 -0.06856621 -0.06861831 -0.06867069 -0.06872388 -0.06878254
 -0.06884717 -0.06891738 -0.06899305 -0.0690709 -0.06915098 -0.06923239 -0.06931546 -0.06940157 -0.06949017 -0.06958073
 -0.06967174 -0.06975976 -0.06984416 -0.06992222 -0.06999498 -0.07006228 -0.07012578 -0.07018651 -0.07024559 -0.07030372
 -0.07036161 -0.07041955 -0.07047816 -0.07053772 -0.07059792 -0.07065886 -0.07071873 -0.07077738 -0.07083358 -0.07088731
 -0.07093933 -0.07098974 -0.07103987 -0.07108958 -0.07113874 -0.07118736 -0.07123522 -0.07128305 -0.0713321 -0.07138315
 -0.07143817 -0.07149637 -0.07155797 -0.07162113 -0.07168444 -0.07174756 -0.07180962 -0.07187229 -0.07193598 -0.07200177
 -0.07207032 -0.07213999 -0.07221086 -0.07227977 -0.07234646 -0.07240898 -0.07246728 -0.07252212 -0.07257374 -0.07262491
 -0.07267571 -0.07272805 -0.07278141 -0.07283528 -0.07288911 -0.07294127 -0.07299227 -0.0730418 -0.07309134 -0.07314231
 -0.07319569 -0.07325276 -0.07331331 -0.07337778 -0.07344496 -0.07351489 -0.07358502 -0.0736551 -0.07372138 -0.07378329
 -0.07383831 -0.07388601 -0.07392835 -0.0739655 -0.07400341 -0.07404228 -0.0740867 -0.07413614 -0.07419057 -0.074249
 -0.07430825 -0.07436786 -0.0744251 -0.07448051 -0.07453379 -0.07458523 -0.07463511 -0.07468334 -0.07472974 -0.07477494
 -0.0748188 -0.07486342 -0.07490947 -0.07495831 -0.07501081 -0.07506471 -0.07512006 -0.07517268 -0.07522214 -0.07526696
 -0.07530709 -0.07534545 -0.07538227 -0.07542121 -0.07546201 -0.07550542 -0.07555071 -0.075596 -0.0756406 -0.07568198
 -0.07572029 -0.07575434 -0.07578535 -0.07581392 -0.07584185 -0.07587059 -0.07590142 -0.07593548 -0.07597289 -0.076014
 -0.07605844 -0.07610638 -0.07615635 -0.07620835 -0.07625949 -0.07630955 -0.07635582 -0.07639819 -0.07643689 -0.07647208
 -0.07650575 -0.07653773 -0.07656828 -0.07659686 -0.07662157 -0.07664287 -0.07666031 -0.07667594 -0.07669256 -0.07671209
 -0.07673822 -0.07677015 -0.07680924 -0.07685164 -0.07689594 -0.07693856 -0.07697746 -0.07701308 -0.07704494 -0.07707539
 -0.07710487 -0.07713377 -0.0771623 -0.0771881 -0.07721105 -0.07723095 -0.07724808 -0.07726588 -0.07728456 -0.07730739
 -0.07733358 -0.07736231 -0.07739241 -0.07742047 -0.07744662 -0.07746921 -0.07748993 -0.07750985 -0.07753079 -0.07755467
 -0.07758178 -0.07761305 -0.0776471 -0.07768389 -0.07772112 -0.07775842 -0.07779323 -0.0778251 -0.07785249 -0.0778751
 -0.07789373 -0.0779084 -0.07792239 -0.07793581 -0.07795146 -0.07796907 -0.07798847 -0.07800937 -0.0780304 -0.07805194
 -0.0780741 -0.07809762 -0.07812403 -0.07815319 -0.07818577 -0.07822071 -0.07825756 -0.07829506 -0.07833243 -0.07836884
 -0.07840386 -0.0784369 -0.07846768 -0.07849628 -0.07852255 -0.07854765 -0.07857161 -0.0785962 -0.07862151 -0.07864857
 -0.07867736 -0.07870802 -0.07874051 -0.07877456 -0.07881019 -0.07884732 -0.07888562 -0.07892446 -0.07896303 -0.07899962
 -0.07903393 -0.07906467 -0.07909279 -0.07911853 -0.07914301 -0.07916719 -0.07919057 -0.07921328 -0.07923421 -0.07925277
 -0.07926992 -0.0792854 -0.07930282 -0.07932248 -0.07934735 -0.07937762 -0.07941323 -0.07945393 -0.07949653 -0.07954052
 -0.07958117 -0.07961822 -0.07964782 -0.0796707 -0.07968626 -0.07969647 -0.07970431 -0.0797114 -0.07972118 -0.07973313
 -0.0797484 -0.07976467 -0.07978094 -0.0797957 -0.0798076 -0.07981851 -0.07982829 -0.07984059 -0.07985619 -0.07987607
 -0.0799007 -0.07992633 -0.07995275 -0.07997489 -0.07999268 -0.08000441 -0.08001062 -0.08001398 -0.0800152 -0.0800184
 -0.08002374 -0.08003385 -0.08004788 -0.08006585 -0.08008596 -0.08010621 -0.08012478 -0.08013921 -0.08014962 -0.08015486
 -0.08015741 -0.08015776 -0.08015867 -0.08016123 -0.08016574 -0.08017259 -0.08018026 -0.08018859 -0.08019661 -0.08020426
 -0.08021225 -0.08022062 -0.08022985 -0.08023976 -0.08024921 -0.08025797 -0.08026432 -0.08026864 -0.08027095 -0.080272
 -0.08027318 -0.08027472 -0.08027758 -0.08028124 -0.0802855 -0.08029022 -0.08029525 -0.08030076 -0.08030696 -0.08031318
 -0.08031961 -0.08032388 -0.08032564 -0.08032317 -0.08031603 -0.0803055 -0.0802916 -0.08027824 -0.08026558 -0.08025672
 -0.08025146 -0.08024991 -0.08025157 -0.08025437 -0.08025841 -0.08026253 -0.08026806 -0.0802766 -0.08028982 -0.08031048
 -0.08033951 -0.08037887 -0.08042809 -0.08048775 -0.08055594 -0.08063245 -0.08071393 -0.08079971 -0.08088601 -0.08097199
 -0.08105562 -0.0811363 -0.08121604 -0.08129487 -0.08137811 -0.08146593 -0.08156203 -0.0816652 -0.0817697 -0.08187186
 -0.08195353 -0.08201185 -0.08202758 -0.0820054 -0.08194325 -0.08185086 -0.08174153 -0.08161704 -0.0814843 -0.08134018
 -0.08118007 -0.08101832 -0.08085591 -0.08072057 -0.08062135 -0.08057109 -0.08057614 -0.08062459 -0.08071745 -0.0808259
 -0.08094836 -0.08105236 -0.0811369 -0.08118597 -0.08120158 -0.08119141 -0.08115767 -0.08111381 -0.08106036 -0.08100501
 -0.08094884 -0.0808974 -0.08085134 -0.08081462 -0.08078469 -0.08076108 -0.08073988 -0.08071808 -0.08069468 -0.08066819
 -0.08064013 -0.08061077 -0.08058072 -0.08055029 -0.08051881 -0.0804861 -0.08045304 -0.0804196 -0.08038826 -0.08035908
 -0.08033273 -0.0803089 -0.08028513 -0.08026119 -0.08023421 -0.08020527 -0.08017544 -0.08014692 -0.08012445 -0.08010915
 -0.08010527 -0.08011051 -0.08012504 -0.08014413 -0.08016492 -0.0801839 -0.08019847 -0.08020858 -0.08021342 -0.08021497
 -0.08021349 -0.08021047 -0.08020611 -0.08020131 -0.08019613 -0.08019219 -0.08018961 -0.08019032 -0.08019426 -0.08020186
 -0.08021262 -0.08022472 -0.08023766 -0.08024891 -0.08025873 -0.08026613 -0.08027232 -0.0802784 -0.0802858 -0.0802964
 -0.08031052 -0.08032927 -0.08035116 -0.08037619 -0.08040158 -0.08042666 -0.08044882 -0.08046731 -0.08048135 -0.08049059
 -0.08049673 -0.08049985 -0.08050214 -0.0805037 -0.080505 -0.08050596 -0.080506 -0.08050533 -0.08050457 -0.0805041
 -0.08050559 -0.08050878 -0.08051402 -0.08052061 -0.08052767 -0.0805348 -0.08054134 -0.08054694 -0.08055147 -0.08055376
 -0.08055317 -0.08054916 -0.08054107 -0.08053057 -0.08051768 -0.0805051 -0.08049321 -0.08048342 -0.08047589 -0.08047074
 -0.08046797 -0.08046748 -0.08046914 -0.08047178 -0.08047517 -0.08047751 -0.08047897 -0.08047909 -0.08047848 -0.08047835
 -0.08047879 -0.0804808 -0.08048331 -0.08048561 -0.0804869 -0.08048604 -0.08048391 -0.08048026 -0.08047733 -0.08047579
 -0.08047699 -0.08048163 -0.0804885 -0.08049776 -0.0805066 -0.08051484 -0.08052 -0.080522 -0.08052099 -0.08051726
 -0.08051359 -0.08051018 -0.08050979 -0.08051179 -0.080516 -0.080521 -0.08052355 -0.08052295 -0.08051623 -0.08050489
 -0.08048894 -0.0804709 -0.08045276 -0.08043552 -0.08042046 -0.08040661 -0.08039389 -0.08038146 -0.08036888 -0.08035711
 -0.08034613 -0.08033735 -0.08033092 -0.08032701 -0.08032562 -0.0803256 -0.08032686 -0.08032821 -0.08032949 -0.08032934
 -0.0803275 -0.0803223 -0.08031369 -0.08030039 -0.08028333 -0.08026294 -0.08024112 -0.08022007 -0.08020087 -0.0801855
 -0.08017248 -0.08016193 -0.0801512 -0.08013911 -0.08012547 -0.08010952 -0.08009468 -0.08008126 -0.08007243 -0.08006866
 -0.08006923 -0.0800741 -0.08007889 -0.08008337 -0.08008315 -0.08007852 -0.0800685 -0.08005409 -0.08003799 -0.08002108
 -0.08000697 -0.0799951 -0.07998666 -0.07997955 -0.07997197 -0.07996236 -0.07994845 -0.07993142 -0.07991069 -0.07988976
 -0.07986963 -0.07985304 -0.07984114 -0.07983334 -0.07982997 -0.07982804 -0.07982737 -0.07982511 -0.07982111 -0.07981404
 -0.07980396 -0.07979106 -0.07977568 -0.07975971 -0.07974362 -0.07973017 -0.07971919 -0.07971205 -0.07970741 -0.07970387
 -0.07970005 -0.07969369 -0.07968479 -0.07967244 -0.07965755 -0.07964024 -0.07962174 -0.07960228 -0.07958364 -0.07956606
 -0.07955194 -0.07954175 -0.0795362 -0.07953555 -0.07953722 -0.07954106 -0.07954284 -0.07954244 -0.0795369 -0.07952646
 -0.07951071 -0.07949034 -0.07946737 -0.07944269 -0.07941943 -0.07939782 -0.07937987 -0.07936468 -0.07935219 -0.07934108
 -0.07933022 -0.07931922 -0.07930747 -0.07929535 -0.07928292 -0.07927018 -0.07925734 -0.07924329 -0.07922797 -0.07920995
 -0.07918896 -0.07916553 -0.07913967 -0.07911514 -0.07909212 -0.07907469 -0.07906239 -0.07905513 -0.07905161 -0.07904705
 -0.07904068 -0.07902794 -0.07900987 -0.07898588 -0.07895792 -0.0789279 -0.07889728 -0.0788677 -0.07884009 -0.07881524
 -0.07879406 -0.07877727 -0.07876441 -0.07875589 -0.07874897 -0.07874346 -0.0787361 -0.07872648 -0.0787138 -0.07869798
 -0.07868078 -0.07866226 -0.07864413 -0.07862622 -0.07860845 -0.07859063 -0.07857192 -0.07855244 -0.0785321 -0.0785111
 -0.07848981 -0.07846821 -0.07844639 -0.07842435 -0.07840183 -0.07837985 -0.07835873 -0.07833989 -0.0783241 -0.07831157
 -0.07830279 -0.07829599 -0.07829108 -0.07828591 -0.07828023 -0.07827317 -0.07826469 -0.0782544 -0.07824227 -0.07822763
 -0.07821056 -0.0781911 -0.07816977 -0.07814854 -0.07812788 -0.07811029 -0.07809506 -0.07808249 -0.07807082 -0.07805807
 -0.07804307 -0.07802393 -0.07800106 -0.07797395 -0.07794406 -0.07791168 -0.07787848 -0.07784492 -0.07781208 -0.07778035
 -0.07774924 -0.07771888 -0.07768704 -0.07765359 -0.07761758 -0.0775791 -0.07754002 -0.07750056 -0.07746342 -0.0774283
 -0.07739562 -0.07736464 -0.07733367 -0.07730244 -0.07726958 -0.07723543 -0.07719995 -0.07716342 -0.07712597 -0.0770881
 -0.07704981 -0.07701263 -0.07697707 -0.07694439 -0.07691552 -0.07688847 -0.07686344 -0.07683591 -0.07680533 -0.07676949
 -0.07672814 -0.07668454 -0.07663894 -0.07659609 -0.07655576 -0.07651896 -0.07648493 -0.07645117 -0.07641727 -0.0763808
 -0.07634198 -0.07629994 -0.07625554 -0.07620918 -0.07616244 -0.07611661 -0.0760734 -0.07603443 -0.07599968 -0.07596999
 -0.07594288 -0.07591803 -0.07589254 -0.07586577 -0.07583663 -0.07580484 -0.07577115 -0.07573558 -0.07569969 -0.07566356
 -0.07562822 -0.07559364 -0.07556013 -0.07552761 -0.075496 -0.07546512 -0.07543442 -0.07540362 -0.07537183 -0.07533916
 -0.07530522 -0.07527073 -0.07523634 -0.075202 -0.07516821 -0.0751337 -0.07509796 -0.07506049 -0.07502069 -0.0749803
 -0.07493956 -0.07489984 -0.07486155 -0.07482272 -0.07478329 -0.07474087 -0.07469551 -0.07464781 -0.07459812 -0.07454924
 -0.07450119 -0.07445564 -0.07441209 -0.07437015 -0.07432915 -0.07428761 -0.07424519 -0.07420073 -0.0741544 -0.07410588
 -0.07405566 -0.07400403 -0.07395115 -0.07389709 -0.07384215 -0.07378621 -0.07373038 -0.0736748 -0.0736203 -0.07356711
 -0.07351454 -0.07346254 -0.07341044 -0.07335825 -0.07330629 -0.07325456 -0.07320309 -0.07315174 -0.07309967 -0.07304689
 -0.07299298 -0.07293826 -0.07288333 -0.07282802 -0.07277253 -0.07271609 -0.07265795 -0.07259802 -0.07253574 -0.07247215
 -0.07240748 -0.07234276 -0.0722784 -0.07221465 -0.07215169 -0.0720891 -0.07202696 -0.07196371 -0.07189927 -0.07183191
 -0.07176164 -0.07168847 -0.07161277 -0.07153767 -0.07146341 -0.07139312 -0.07132589 -0.07126106 -0.07119697 -0.07112989
 -0.07105927 -0.07098217 -0.07090063 -0.07081512 -0.0707286 -0.07064323 -0.07056046 -0.07048178 -0.0704063 -0.07033445
 -0.07026327 -0.07019259 -0.07011815 -0.0700394 -0.06995354 -0.06986024 -0.0697602 -0.0696535 -0.069543 -0.06942895
 -0.06931457 -0.06920024 -0.06908948 -0.06898229 -0.06888097 -0.06878414 -0.06869043 -0.06859782 -0.06850246 -0.06840438
 -0.0683018 -0.06819654 -0.06808946 -0.06798132 -0.06787288 -0.06776343 -0.06765276 -0.06754094 -0.06742796 -0.06731389
 -0.06719895 -0.06708104 -0.06696 -0.06683449 -0.06670457 -0.06657293 -0.06643974 -0.06630842 -0.06617793 -0.06604569
 -0.06590986 -0.06576306 -0.06560531 -0.06543207 -0.06524688 -0.06505258 -0.06485283 -0.06465308 -0.06445268 -0.06425351
 -0.06405174 -0.06384572 -0.06363403 -0.06341531 -0.06319179 -0.06296384 -0.06273258 -0.06249885 -0.06225745 -0.06200844
 -0.06173967 -0.06145043 -0.06112649 -0.06076765 -0.06036619 -0.05992289 -0.05943863 -0.058912 -0.05834115 -0.0577198
 -0.05703462 -0.05627939 -0.05543698 -0.05451182 -0.05349728 -0.05241421 -0.0512706 -0.05009691 -0.04890756 -0.04772889
 -0.04657207 -0.04545236 -0.04437404 -0.04334938 -0.04237896 -0.0414852 -0.04066956 -0.03995698 -0.03934841 -0.03884827
 -0.03845481 -0.03815212 -0.03793908 -0.03780135 -0.0377403 -0.03775362 -0.03784087 -0.0380023 -0.03823116 -0.03852095
 -0.03885672 -0.03922429 -0.0396027 -0.03997412 -0.04032216 -0.04063386 -0.0409039 -0.04112758 -0.04130527 -0.04143628
 -0.04152183 -0.04156216 -0.04155719 -0.04150735 -0.04140487 -0.04124921 -0.04102381 -0.04072877 -0.04035698 -0.03991315
 -0.03941796 -0.03887628 -0.03831645 -0.03773605 -0.03714376 -0.03653517 -0.03590579 -0.03525691 -0.03458815 -0.03390127
 -0.03320055 -0.03247606 -0.03172746 -0.03093341 -0.03008649 -0.02917314 -0.02818571 -0.02713724 -0.02602609 -0.02488559
 -0.02371803 -0.02255508 -0.02139832 -0.02026406 -0.01915102 -0.01805301 -0.01696469 -0.01585462 -0.01471824 -0.01351792
 -0.01226628 -0.0109658 -0.009647363 -0.008363224 -0.007123852 -0.005968255 -0.004871208 -0.003827436 -0.002810978 -0.001803436
 -0.0008046367 0.0001914681 0.001171187 0.002131636 0.003067283 0.003976675 0.004859217 0.00571481 0.006541406 0.007338942
 0.008112893 0.008863299 0.009594564 0.01030306 0.01097121 0.01159453 0.0121457 0.01262943 0.01304054 0.01339125
 0.01369966 0.01397108 0.01422123 0.01444181 0.01463088 0.01478321 0.01489266 0.01496792 0.01501046 0.01502856
 0.01502594 0.01499876 0.01494772 0.01486267 0.01474279 0.0145802 0.01437445 0.014121 0.0138201 0.01347303
 0.01308158 0.01265642 0.01219973 0.01172476 0.01123247 0.01073072 0.01022177 0.009710978 0.009204484 0.008709988
 0.008235103 0.007787852 0.007373403 0.006995883 0.00666011 0.006367571 0.006126078 0.005937997 0.005807299 0.005736349
 0.005715539 0.005744654 0.005808697 0.005906818 0.006034545 0.006192343 0.006385879 0.006615287 0.006884822 0.00719271
 0.007535373 0.007909998 0.008308061 0.008728076 0.009163029 0.009614863 0.01008211 0.01056995 0.01108181 0.01162199
 0.01219444 0.01279864 0.01343616 0.01410173 0.01479456 0.01550937 0.0162447 0.01700137 0.0177791 0.01858237
 0.01941144 0.02026192 0.02113254 0.02200478 0.02287648 0.02372623 0.02455071 0.02532929 0.02605375 0.02669437
 0.02724435 0.02767497 0.02799506 0.0282005 0.02831049 0.02833971 0.02829956 0.02820171 0.02804592 0.02783564
 0.0275643 0.02723234 0.0268262 0.0263442 0.02577227 0.02510734 0.02435979 0.02352982 0.02265466 0.02173534
 0.02079306 0.01982549 0.01882659 0.01779657 0.01673152 0.01563705 0.01452488 0.01340044 0.01228082 0.01116157
 0.01004891 0.008922788 0.007770129 0.006571724 0.00530646 0.003989468 0.002616594 0.001225805 -0.0001721473 -0.001560758
 -0.002935095 -0.004292436 -0.005633461 -0.006938492 -0.008206542 -0.009409185 -0.01054602 -0.01160785 -0.01259693 -0.01352415
 -0.01439102 -0.015209 -0.01597825 -0.01670334 -0.01738779 -0.01803678 -0.01866157 -0.01927569 -0.01989383 -0.02053347
 -0.02120099 -0.02190742 -0.02264463 -0.02341356 -0.02419977 -0.02500106 -0.02580016 -0.02659625 -0.02735966 -0.02808791
 -0.02874956 -0.02934212 -0.02986497 -0.03031931 -0.03072869 -0.03109393 -0.03143212 -0.03174161 -0.03202489 -0.03228006
 -0.03250415 -0.03269428 -0.03284582 -0.03295182 -0.03300301 -0.03299098 -0.03290506 -0.03274163 -0.03249529 -0.03216649
 -0.03175543 -0.03125794 -0.03067392 -0.02999498 -0.02921951 -0.02834283 -0.02736465 -0.02627837 -0.02508386 -0.02375926
 -0.02230453 -0.02071218 -0.01899401 -0.01722493 -0.01543016 -0.01375491 -0.01221135 -0.01091166 -0.009840506 -0.009028645
 -0.008438203 -0.008041664 -0.00778476 -0.007615424 -0.007482756 -0.007338325 -0.00716724 -0.006942382 -0.006704886 -0.006455674
 -0.006257624 -0.006126064 -0.006077476 -0.006119119 -0.006215369 -0.006364737 -0.006522703 -0.006687685 -0.00683367 -0.006961768
 -0.007068049 -0.007154289 -0.007226154 -0.0072835 -0.007329185 -0.007361416 -0.007377908 -0.007377915 -0.007359135 -0.007322553
 -0.007269188 -0.007196913 -0.007107312 -0.006989176 -0.00684068 -0.006643177 -0.006391645 -0.006070477 -0.005675338 -0.005201381
 -0.004647213 -0.004014233 -0.00330234 -0.002515044 -0.001653208 -0.000734193 0.0002376275 0.001220582 0.002209526 0.00315866
 0.004068623 0.004917611 0.005708797 0.006440545 0.007109066 0.007711977 0.008236115 0.008670732 0.008999639 0.009210255
 0.009290581 0.009231657 0.009030942 0.008683719 0.008201313 0.007582766 0.006852666 0.00601211 0.005096023 0.004106326
 0.003086182 0.002037954 0.001004485 -1.293104E-05 -0.0009846676 -0.001910942 -0.002777053 -0.003583299 -0.00432218 -0.004995663
 -0.005601217 -0.006148275 -0.006644538 -0.007109316 -0.007560428 -0.008020548 -0.008509854 -0.009039872 -0.009624533 -0.01025136
 -0.01092392 -0.0116078 -0.01229849 -0.01296009 -0.01358686 -0.0141629 -0.01468608 -0.01516149 -0.01558942 -0.0159789
 -0.01632917 -0.0166378 -0.01690273 -0.01711223 -0.01726714 -0.01736129 -0.01740255 -0.01740065 -0.01737023 -0.01733301
 -0.01730658 -0.01731433 -0.01737027 -0.0174911 -0.01768112 -0.01794819 -0.01828461 -0.01869238 -0.01915115 -0.01965995
 -0.0201865 -0.02072824 -0.02124645 -0.02173814 -0.02217259 -0.02254874 -0.02285866 -0.02310448 -0.02330154 -0.02345293
 -0.02358165 -0.02368833 -0.02378729 -0.02387644 -0.02395847 -0.02403107 -0.02409201 -0.02414006 -0.02417317 -0.0241908
 -0.02419206 -0.02417649 -0.02414352 -0.02409357 -0.02402646 -0.02394354 -0.02384487 -0.02373239 -0.0236061 -0.02346972
 -0.02332339 -0.02317277 -0.02301815 -0.0228655 -0.02271494 -0.02256976 -0.02242993 -0.02229668 -0.02217064 -0.02205398
 -0.02194828 -0.02185765 -0.02178367 -0.0217306 -0.02169842 -0.02168932 -0.02170083 -0.02173279 -0.02178021 -0.02184154
 -0.02191008 -0.02198402 -0.02205579 -0.02212384 -0.02218106 -0.02222617 -0.02225571 -0.02226908 -0.0222683 -0.02225352
 -0.02223016 -0.02219846 -0.02216292 -0.02212351 -0.0220824 -0.02203951 -0.0219959 -0.02195115 -0.02190536 -0.02185689
 -0.02180388 -0.02174373 -0.02167339 -0.02159015 -0.02149137 -0.0213749 -0.02123937 -0.02108256 -0.02090377 -0.0207002
 -0.02047144 -0.02021375 -0.01992656 -0.01960707 -0.01925469 -0.01887277 -0.01846165 -0.01803601 -0.01759775 -0.01717146
 -0.01675965 -0.01638824 -0.01605865 -0.01578944 -0.01557999 -0.01543863 -0.01536222 -0.01535077 -0.01539822 -0.01549953
 -0.01564633 -0.0158321 -0.01604805 -0.01628867 -0.0165472 -0.01682043 -0.0171039 -0.01739619 -0.01769427 -0.01799763
 -0.01830392 -0.01861297 -0.01892197 -0.01923072 -0.01953459 -0.01983312 -0.02011991 -0.02039446 -0.02065055 -0.02088804
 -0.02110302 -0.02129609 -0.02146616 -0.02161515 -0.02174495 -0.02185882 -0.02196083 -0.02205358 -0.02214065 -0.02222181
 -0.02229852 -0.02236732 -0.02242766 -0.02247522 -0.02250882 -0.02252621 -0.02252645 -0.02251196 -0.02248248 -0.02244635
 -0.022404 -0.0223648 -0.02232869 -0.02229846 -0.02227275 -0.02224546 -0.0222152 -0.02217368 -0.02212111 -0.0220539
 -0.02197272 -0.02187791 -0.02176771 -0.02164123 -0.02149427 -0.0213235 -0.02112582 -0.02089808 -0.02064141 -0.02035484
 -0.02004304 -0.01970668 -0.01935072 -0.01897614 -0.01858514 -0.01817823 -0.01775345 -0.01731069 -0.01684531 -0.01635732
 -0.01584501 -0.01530964 -0.0147571 -0.01418979 -0.01361932 -0.01304698 -0.01248243 -0.01192356 -0.0113722 -0.01082346
 -0.01027259 -0.009715785 -0.009147733 -0.008569455 -0.007979013 -0.007382186 -0.006780335 -0.006179128 -0.005580486 -0.004986123
 -0.004396789 -0.00381126 -0.003229383 -0.002651738 -0.002078346 -0.001511157 -0.0009500859 -0.000394682 0.0001557399 0.0007056003
 0.001255414 0.001809806 0.002367887 0.00293022 0.003494822 0.004058665 0.004620346 0.005176302 0.005728334 0.006275353
 0.006823694 0.007374938 0.007939527 0.00852064 0.009129685 0.009769998 0.01044916 0.01116967 0.01192992 0.01273095
 0.01355809 0.01441065 0.01526291 0.01611322 0.01693311 0.01772166 0.01845821 0.019144 0.01977173 0.02034494
 0.02086804 0.02134511 0.02178524 0.02219023 0.02256644 0.02291206 0.02322801 0.02351122 0.02375971 0.02397324
 0.02415079 0.02429486 0.02440594 0.02448567 0.02453458 0.02455194 0.02453765 0.02449181 0.02441437 0.02431105
 0.02418258 0.02404099 0.02388739 0.02373535 0.02358469 0.02344306 0.02330708 0.02317345 0.023036 0.02288294
 0.02270931 0.02250329 0.02226629 0.02199389 0.02169423 0.02137007 0.02103012 0.02067882 0.02031946 0.01995401
 0.0195819 0.01920285 0.01881925 0.01843079 0.01804628 0.01766621 0.01730108 0.01695104 0.01661999 0.01630649
 0.01600335 0.01570807 0.01540675 0.01509864 0.01477344 0.01443513 0.01408446 0.01372962 0.01338012 0.0130444
 0.01273254 0.01245015 0.01220274 0.01199459 0.01182758 0.01170835 0.01163851 0.01162527 0.01167112 0.01177393
 0.01193547 0.01213339 0.01236685 0.01259577 0.01281806 0.01299499 0.01312689 0.01319631 0.01320681 0.01316307
 0.01306878 0.01293589 0.01276639 0.01256829 0.01234504 0.01210249 0.01184776 0.01158822 0.01133081 0.01108258
 0.01084381 0.01061739 0.01039713 0.01018198 0.009966432 0.009748594 0.00953022 0.009310815 0.009097996 0.00889225
 0.008698944 0.008517927 0.008345514 0.008180673 0.008013709 0.007844698 0.007668029 0.007486132 0.007302401 0.00711961
 0.006944813 0.00677855 0.006624795 0.00648194 0.006350145 0.006227143 0.006112223 0.006001568 0.005894341 0.00578417
 0.005669578 0.005543947 0.00540584 0.00525116 0.005079358 0.004887193 0.004674462 0.004436851 0.004174211 0.003883827
 0.003566206 0.003223622 0.002857306 0.002473519 0.002073489 0.001663374 0.001244721 0.0008226472 0.0003997243 -1.9092E-05
 -0.0004308087 -0.0008314007 -0.001217994 -0.001588617 -0.001938378 -0.00226594 -0.002563213 -0.002828155 -0.003052604 -0.003234075
 -0.003371413 -0.003463048 -0.003520702 -0.003544577 -0.003559117 -0.00356588 -0.003595151 -0.003648215 -0.003749567 -0.003898326
 -0.004104537 -0.004364998 -0.004676714 -0.005035192 -0.005431436 -0.005859813 -0.006310627 -0.006775934 -0.007246409 -0.007712807
 -0.008167081 -0.008602368 -0.009013229 -0.009398709 -0.009756585 -0.0100918 -0.01040445 -0.01070195 -0.01098534 -0.01125857
 -0.01152218 -0.01177294 -0.01201056 -0.01222811 -0.01242579 -0.01260167 -0.01275745 -0.0128996 -0.01302979 -0.01315685
 -0.01327993 -0.01340233 -0.01352059 -0.01363139 -0.01373197 -0.01381756 -0.01388983 -0.01394742 -0.01399592 -0.01403742
 -0.0140763 -0.0141151 -0.0141522 -0.01418835 -0.01421725 -0.01423824 -0.01424638 -0.0142411 -0.01422235 -0.01419018
 -0.01414671 -0.01409187 -0.01402592 -0.01394853 -0.01385812 -0.01375488 -0.01363833 -0.01350948 -0.01337009 -0.01322117
 -0.01306449 -0.01290183 -0.01273444 -0.01256705 -0.01240217 -0.01224646 -0.01210396 -0.01197701 -0.01186846 -0.01177249
 -0.01168896 -0.01160938 -0.01153252 -0.01145373 -0.01137244 -0.01128779 -0.01119975 -0.01110867 -0.01101476 -0.01091988
 -0.01082411 -0.01072935 -0.01063457 -0.01053806 -0.01043776 -0.01032833 -0.01020928 -0.01007683 -0.009933517 -0.009780033
 -0.009620059 -0.009456355 -0.009291166 -0.009126521 -0.008962207 -0.008798909 -0.008634412 -0.008468619 -0.008298193 -0.00812266
 -0.00793983 -0.007749378 -0.007552001 -0.007347827 -0.007141981 -0.006935135 -0.006735765 -0.006544404 -0.006368425 -0.006207352
 -0.006063804 -0.005936505 -0.005824093 -0.00572542 -0.005638352 -0.005561882 -0.005494097 -0.005434866 -0.005382671 -0.005340682
 -0.0053093 -0.005293953 -0.005297089 -0.005319471 -0.005363041 -0.005419182 -0.005487547 -0.005556192 -0.005624039 -0.005684187
 -0.005736298 -0.005777924 -0.00580888 -0.005826056 -0.005829605 -0.005817841 -0.005792637 -0.005758817 -0.005718644 -0.005680691
 -0.005642577 -0.005606413 -0.005563815 -0.005506833 -0.005429412 -0.005322312 -0.005191281 -0.005034671 -0.004866535 -0.004691672
 -0.004517595 -0.004348031 -0.004178965 -0.004010224 -0.003838489 -0.003662978 -0.003490472 -0.003321335 -0.003165259 -0.003021926
 -0.002891765 -0.002772797 -0.002655149 -0.002536485 -0.002403981 -0.002256584 -0.002084885 -0.001891156 -0.001672792 -0.001437974
 -0.001192964 -0.0009484497 -0.0007153944 -0.0004959799 -0.0002970676 -0.0001063345 7.806722E-05 0.0002702353 0.0004753521 0.0006925119
 0.0009236053 0.001154635 0.001384454 0.001603908 0.001812553 0.002013505 0.002207011 0.00239737 0.002583704 0.002763086
 0.002934884 0.003094655 0.00324408 0.00338452 0.003518291 0.00364977 0.003779939 0.00391099 0.004044818 0.004182552
 0.004328653 0.004485935 0.004656294 0.004842207 0.005038667 0.005245565 0.005455173 0.005666241 0.00587433 0.006078928
 0.006277275 0.006469199 0.006651895 0.006825618 0.006992099 0.00715276 0.007316566 0.007484825 0.007667183 0.007863175
 0.008076608 0.008306201 0.008551565 0.008811674 0.00908589 0.009371496 0.009667804 0.009967531 0.01026867 0.01055872
 0.01083412 0.01108059 0.011294 0.01146582 0.01159304 0.01167996 0.011726 0.01174596 0.01174063 0.01172646
 0.01170419 0.01168745 0.01167667 0.01168188 0.0117023 0.01174137 0.01179632 0.01186274 0.01193751 0.01201363
 0.01208914 0.01215936 0.01222278 0.01227689 0.01232066 0.01235239 0.01237359 0.01238387 0.01238706 0.01238405
 0.01237755 0.01236835 0.0123563 0.01234152 0.01232291 0.01230043 0.01227549 0.01224845 0.01222437 0.0122036
 0.01219122 0.01218644 0.01218959 0.01219859 0.01220871 0.01221809 0.01222126 0.01221822 0.01220636 0.0121879
 0.01216289 0.01213606 0.01210886 0.0120888 0.0120784 0.01208534 0.01211331 0.01215984 0.01222683 0.01229742
 0.01237008 0.01243258 0.01248405 0.01252459 0.0125544 0.01257653 0.01259102 0.01259944 0.01260144 0.01259658
 0.01258444 0.01256363 0.01253434 0.01249637 0.0124496 0.01239434 0.01232885 0.01225107 0.0121622 0.01206011
 0.01195465 0.01184808 0.01175234 0.0116722 0.01160805 0.01156172 0.01152376 0.01149323 0.01146551 0.01144024
 0.01141939 0.01140255 0.01138412 0.0113619 0.01131821 0.01125204 0.01114837 0.01101159 0.010843 0.01065269
 0.01045733 0.01026821 0.01010587 0.009975906 0.009891673 0.009848455 0.009849406 0.009881009 0.009940031 0.01001093
 0.01008921 0.01016397 0.01023248 0.01028995 0.01033539 0.01036837 0.01038868 0.0104029 0.01041215 0.01043597
 0.0104767 0.01056091 0.01068829 0.01087413 0.01111173 0.01139336 0.01170855 0.01203545 0.01236662 0.01268315
 0.01298481 0.01326315 0.01352657 0.01377501 0.01402526 0.01428197 0.0145656 0.01488248 0.01524596 0.0156611
 0.01612298 0.01663329 0.01716758 0.01772468 0.0182723 0.01880928 0.01931468 0.01978989 0.02023509 0.02065158
 0.02104785 0.02141739 0.021751 0.02203331 0.02223133 0.02233694 0.02231947 0.02219812 0.0219715 0.02168245
 0.02135467 0.02102307 0.02071095 0.02042206 0.02016438 0.01992198 0.01969311 0.01946556 0.01923726 0.01900632
 0.0187724 0.01853739 0.01830142 0.01806682 0.0178337 0.01760425 0.01737817 0.01715502 0.01693515 0.01671778
 0.016507 0.01630882 0.01612973 0.01598184 0.01586528 0.01578779 0.01573644 0.01570822 0.0156833 0.01565262
 0.01560367 0.01552964 0.01543189 0.01530878 0.01516878 0.01501257 0.01484777 0.01467497 0.0144982 0.01431756
 0.01413456 0.01394891 0.01375891 0.01356422 0.01336146 0.01315284 0.01294097 0.01273244 0.01254058 0.0123713
 0.01224025 0.01214325 0.01208536 0.01205042 0.01203139 0.01201063 0.01197869 0.0119258 0.01184609 0.01174076
 0.01160712 0.01146063 0.01130111 0.01115851 0.01103479 0.01095779 0.010928</values></Ydata></AB><ScSm><Ydata ylabel="Single channel"><values byteorder="INTEL" format="FLOAT32" numvalues="1814"> 0.087089 0.08721184 0.08734965 0.08750723 0.08767737 0.0878465 0.08800247 0.08814076 0.08826356 0.08837339
 0.08847371 0.08857808 0.08870691 0.0888677 0.08904448 0.08920994 0.08934506 0.08945426 0.08956593 0.08970627
 0.08986214 0.08998022 0.09001572 0.08998145 0.08994149 0.08995402 0.09003381 0.09018514 0.09043699 0.09077804
 0.09107015 0.09113875 0.09099025 0.09084218 0.0908826 0.09108192 0.09128134 0.0913692 0.09132561 0.09120654
 0.09116445 0.09140106 0.09198613 0.09270759 0.09313381 0.09285963 0.09177618 0.09022363 0.08891375 0.08855648
 0.0893463 0.09074766 0.0918971 0.0922993 0.09209458 0.09169325 0.09134868 0.09115002 0.0912062 0.0916227
 0.09232768 0.09300871 0.09323347 0.09272747 0.09168293 0.09073314 0.0904409 0.09086014 0.09171892 0.09275112
 0.09345796 0.09286267 0.09036838 0.08706857 0.08541445 0.08695604 0.09072311 0.09423672 0.09576795 0.09525479
 0.09359195 0.0918382 0.09093885 0.0913972 0.09294222 0.09480114 0.09631912 0.09713964 0.09703913 0.0960258
 0.09455265 0.09332874 0.09292738 0.09362119 0.09526919 0.09714635 0.0982329 0.09802013 0.09689204 0.09562192
 0.09480025 0.09480837 0.09584846 0.09770368 0.09975508 0.101442 0.102558 0.1031252 0.103251 0.1031061
 0.1028432 0.102576 0.1024968 0.102779 0.1032425 0.1033869 0.1029482 0.1022542 0.1018927 0.1021042
 0.1025764 0.1028228 0.1026657 0.1021461 0.1010299 0.09892356 0.09608088 0.09352579 0.09205317 0.09166873
 0.09224023 0.09384644 0.09599897 0.09739009 0.09720472 0.09621744 0.09595615 0.09705295 0.09884663 0.1003601
 0.1012533 0.1018863 0.1027518 0.1039136 0.1048531 0.1048434 0.1036833 0.1021669 0.1015576 0.1023684
 0.1038678 0.1049925 0.1054731 0.1058072 0.1063766 0.1068906 0.106635 0.1052319 0.1032844 0.1021748
 0.1029263 0.1051893 0.107419 0.1080464 0.1065956 0.1039395 0.1015659 0.1005071 0.1009365 0.1025917
 0.1051435 0.108039 0.110412 0.1115216 0.111264 0.1101539 0.1087638 0.1071926 0.1052649 0.1033529
 0.1025967 0.1038391 0.1065395 0.1092008 0.1107504 0.1111379 0.1107265 0.1095674 0.1074941 0.1048672
 0.1029101 0.1028087 0.1043684 0.1060566 0.1066318 0.1063052 0.1060496 0.1062603 0.1065307 0.1064704
 0.1062783 0.1064552 0.1071679 0.1080455 0.1085807 0.1086053 0.1083314 0.1080495 0.1078511 0.1075784
 0.1070644 0.1065004 0.1064225 0.1071472 0.1083454 0.1093715 0.1099005 0.1100593 0.1100355 0.1097606
 0.1090293 0.1079028 0.1069022 0.1066395 0.1072223 0.1081745 0.1089442 0.1093144 0.1093462 0.1091724
 0.1089094 0.1086252 0.1083525 0.1081692 0.1081879 0.1084059 0.1086598 0.1087885 0.1087662 0.1086426
 0.108438 0.1081457 0.1077989 0.1074932 0.1073287 0.1073289 0.1074325 0.1075564 0.1076368 0.1076212
 0.107484 0.1072617 0.1070283 0.1068278 0.1066604 0.1065291 0.1064565 0.1064487 0.1064673 0.1064573
 0.1063935 0.1062877 0.1061576 0.1060081 0.1058451 0.1056881 0.105565 0.1054961 0.1054759 0.1054718
 0.1054574 0.1054436 0.105449 0.1054487 0.1053944 0.1052808 0.1051565 0.1050692 0.1050283 0.1050154
 0.1050042 0.1049664 0.1048769 0.104732 0.1045703 0.1044625 0.1044592 0.1045528 0.1046986 0.1048526
 0.1049781 0.1050485 0.1050694 0.1050754 0.1050895 0.1051004 0.1050893 0.1050633 0.1050588 0.1051136
 0.1052311 0.1053717 0.1054866 0.105554 0.1055816 0.1055932 0.105623 0.1056906 0.1057705 0.1058139
 0.1058126 0.1058151 0.1058662 0.1059537 0.1060271 0.1060556 0.1060558 0.1060667 0.1061076 0.1061666
 0.1062237 0.1062749 0.106332 0.1064023 0.1064698 0.1064982 0.1064665 0.1063987 0.106343 0.106323
 0.1063265 0.1063393 0.1063652 0.1064079 0.1064502 0.1064668 0.106451 0.1064221 0.1064028 0.1063918
 0.1063656 0.1063082 0.1062289 0.1061515 0.1060916 0.1060481 0.106007 0.1059523 0.1058764 0.1057838
 0.1056853 0.1055859 0.1054801 0.1053628 0.1052464 0.1051579 0.1051071 0.1050615 0.104968 0.1048042
 0.1046014 0.104413 0.1042667 0.1041481 0.1040241 0.1038771 0.1037185 0.1035723 0.1034515 0.1033495
 0.1032511 0.1031473 0.1030461 0.1029717 0.102944 0.1029536 0.1029619 0.1029364 0.1028812 0.1028273
 0.1027982 0.1027955 0.1028088 0.1028303 0.1028601 0.1029041 0.1029649 0.1030316 0.1030865 0.1031278
 0.1031738 0.1032467 0.1033565 0.1035017 0.1036677 0.103827 0.1039564 0.1040607 0.10417 0.104309
 0.1044776 0.104664 0.1048633 0.1050762 0.1053 0.1055305 0.1057703 0.1060276 0.1063078 0.1066084
 0.1069204 0.1072328 0.1075388 0.1078433 0.1081631 0.1085133 0.1088912 0.1092768 0.109651 0.1100117
 0.1103719 0.1107422 0.1111205 0.1115027 0.1118961 0.1123139 0.1127567 0.1132078 0.1136499 0.1140789
 0.1145014 0.1149244 0.1153506 0.1157819 0.1162237 0.1166815 0.1171506 0.1176109 0.1180414 0.1184414
 0.1188331 0.1192425 0.1196781 0.1201259 0.1205579 0.1209532 0.1213174 0.1216802 0.1220648 0.1224653
 0.1228605 0.123246 0.1236407 0.1240587 0.1244843 0.1248814 0.1252283 0.1255375 0.125841 0.1261574
 0.1264775 0.126782 0.1270675 0.1273474 0.1276309 0.1279139 0.128194 0.1284832 0.1287916 0.1291061
 0.1294006 0.1296657 0.1299144 0.1301593 0.1303965 0.1306155 0.1308144 0.1310024 0.131193 0.1313945
 0.1316024 0.1318066 0.1320088 0.1322259 0.1324716 0.1327436 0.1330351 0.1333482 0.133685 0.134033
 0.1343753 0.1347149 0.1350722 0.1354498 0.1358139 0.1361274 0.1363913 0.1366377 0.13689 0.1371492
 0.1374139 0.1376914 0.1379827 0.1382704 0.1385256 0.1387257 0.138869 0.1389804 0.1390932 0.1392212
 0.1393539 0.1394844 0.1396338 0.1398394 0.1401234 0.1404742 0.1408521 0.1412102 0.1415112 0.1417301
 0.1418453 0.1418401 0.1417155 0.1414922 0.1411869 0.1407891 0.1402696 0.1396077 0.1388009 0.1378498
 0.136746 0.1354857 0.1340983 0.132663 0.1312985 0.1301303 0.1292561 0.1287284 0.1285551 0.1287008
 0.1290832 0.1295764 0.1300318 0.1303086 0.1302994 0.1299469 0.1292534 0.1282733 0.1270891 0.1257865
 0.1244426 0.1231224 0.1218783 0.1207657 0.1198716 0.1193273 0.1192847 0.1198703 0.121143 0.1230601
 0.1254552 0.1280623 0.1306006 0.1328766 0.1348289 0.1364955 0.1379511 0.1392682 0.1405038 0.1416903
 0.1428318 0.1439148 0.1449262 0.1458608 0.1467129 0.1474689 0.1481052 0.1485915 0.148902 0.149031
 0.1490059 0.1488856 0.148747 0.1486574 0.1486387 0.1486452 0.1485808 0.1483497 0.1479031 0.1472577
 0.1465026 0.1458124 0.145455 0.1457497 0.1469503 0.1490988 0.1519627 0.1551269 0.1581798 0.1608552
 0.1630609 0.1648303 0.1662596 0.167455 0.1684981 0.1694383 0.170305 0.1711188 0.1718931 0.1726336
 0.1733416 0.1740187 0.1746698 0.1753007 0.1759148 0.1765139 0.177101 0.1776813 0.1782598 0.1788389
 0.1794146 0.1799769 0.1805193 0.1810463 0.1815677 0.1820856 0.1825942 0.1830905 0.1835791 0.1840661
 0.1845546 0.1850437 0.1855271 0.185995 0.1864401 0.186864 0.187274 0.187677 0.1880768 0.1884746
 0.1888694 0.1892575 0.1896355 0.1900035 0.1903665 0.1907322 0.1911029 0.1914727 0.1918339 0.1921857
 0.1925333 0.1928815 0.1932312 0.1935814 0.1939328 0.1942876 0.1946495 0.1950208 0.1953988 0.1957759
 0.1961444 0.1965032 0.1968587 0.1972176 0.1975804 0.1979426 0.1983012 0.1986567 0.1990104 0.1993618
 0.1997109 0.200059 0.2004069 0.2007527 0.2010951 0.2014353 0.2017747 0.2021131 0.2024494 0.2027856
 0.2031265 0.2034747 0.2038256 0.2041721 0.204511 0.204844 0.2051729 0.2054988 0.2058236 0.206151
 0.2064853 0.2068281 0.2071754 0.2075196 0.2078561 0.2081878 0.2085207 0.2088581 0.2091998 0.2095429
 0.2098842 0.2102225 0.2105588 0.2108939 0.2112266 0.2115562 0.2118833 0.2122084 0.2125331 0.2128596
 0.2131878 0.2135167 0.2138479 0.2141836 0.2145205 0.2148513 0.2151724 0.2154878 0.2158037 0.2161227
 0.2164424 0.2167583 0.2170691 0.2173786 0.2176913 0.2180086 0.2183294 0.2186521 0.2189743 0.2192943
 0.2196124 0.2199286 0.2202431 0.2205561 0.2208675 0.2211768 0.2214859 0.2217989 0.2221174 0.2224388
 0.2227601 0.2230797 0.2233956 0.2237082 0.2240187 0.2243283 0.2246384 0.2249532 0.2252742 0.2255963
 0.2259156 0.226235 0.226559 0.2268878 0.22722 0.227554 0.2278865 0.2282158 0.2285432 0.2288696
 0.2291946 0.2295193 0.2298441 0.2301665 0.2304848 0.2308001 0.2311121 0.2314195 0.2317233 0.2320237
 0.2323185 0.2326104 0.232909 0.2332194 0.233538 0.2338598 0.2341827 0.2345055 0.2348284 0.2351529
 0.2354784 0.2358045 0.2361329 0.2364636 0.236794 0.2371259 0.2374642 0.237808 0.238153 0.2384981
 0.2388409 0.239176 0.2395036 0.23983 0.2401569 0.2404832 0.2408141 0.2411542 0.2414993 0.241844
 0.2421862 0.2425225 0.2428518 0.2431816 0.2435172 0.2438553 0.2441936 0.2445343 0.244874 0.2452081
 0.2455401 0.2458738 0.2462061 0.2465378 0.2468747 0.2472163 0.2475585 0.2479027 0.2482477 0.2485865
 0.2489198 0.2492532 0.2495829 0.2499053 0.2502272 0.2505516 0.2508704 0.251182 0.2514913 0.2517891
 0.2520463 0.2521981 0.252078 0.2513357 0.2493865 0.2454209 0.2385706 0.2282641 0.2145807 0.1983395
 0.1808623 0.1635561 0.1475359 0.1334854 0.121758 0.1125262 0.1058805 0.101926 0.1008657 0.1031038
 0.1093794 0.1203347 0.1349167 0.1489719 0.1567788 0.1553763 0.147253 0.1380898 0.1321198 0.1300316
 0.1303968 0.1318003 0.1336798 0.1361678 0.1396075 0.1440516 0.1492075 0.1549277 0.1614975 0.1692052
 0.1777805 0.1864917 0.19476 0.2025408 0.2101069 0.2175863 0.2247766 0.2313396 0.2370622 0.2419315
 0.2460723 0.2496631 0.2528615 0.2557687 0.2584499 0.2609439 0.2632095 0.2650997 0.2664458 0.2671938
 0.2674675 0.2675098 0.267545 0.2676826 0.2679343 0.2682868 0.2687318 0.2692562 0.2698438 0.2704815
 0.271152 0.2718352 0.2725207 0.2732021 0.2738659 0.2744999 0.2751012 0.2756667 0.2761924 0.2766843
 0.277154 0.2776075 0.2780498 0.2784883 0.2789247 0.2793546 0.2797773 0.2801933 0.2805941 0.2809704
 0.2813229 0.2816592 0.2819872 0.2823126 0.2826357 0.2829511 0.2832575 0.2835595 0.2838588 0.2841533
 0.2844453 0.284738 0.2850283 0.2853121 0.2855904 0.2858652 0.2861366 0.2864072 0.28668 0.2869558
 0.2872359 0.2875221 0.287811 0.2880965 0.2883761 0.2886511 0.2889249 0.2892058 0.2895024 0.2898117
 0.2901226 0.2904294 0.2907343 0.291041 0.2913537 0.2916758 0.2920042 0.29233 0.2926494 0.2929649
 0.2932752 0.2935705 0.2938408 0.2940876 0.2943283 0.2945841 0.2948618 0.2951492 0.295433 0.2957112
 0.2959881 0.2962668 0.2965493 0.2968358 0.2971255 0.2974223 0.2977332 0.2980568 0.2983814 0.2987021
 0.2990258 0.2993593 0.2997014 0.3000472 0.3003899 0.3007191 0.3010273 0.3013225 0.3016294 0.3019737
 0.302359 0.3027601 0.3031445 0.3035012 0.3038434 0.3041902 0.3045518 0.3049209 0.3052685 0.3055654
 0.3058247 0.3061064 0.3064641 0.3068933 0.3073416 0.3077622 0.3081464 0.3085125 0.3088748 0.3092275
 0.3095533 0.3098428 0.3101128 0.3104078 0.3107704 0.3111958 0.3116312 0.3120291 0.3123851 0.312718
 0.3130419 0.3133645 0.3136751 0.3139271 0.3140838 0.3142032 0.3144261 0.3148431 0.315394 0.315932
 0.316369 0.3167289 0.3170691 0.3174056 0.3177261 0.3180054 0.3181684 0.3181247 0.3179314 0.3178555
 0.3181569 0.3188245 0.3196055 0.3202637 0.3207366 0.3210827 0.3213756 0.3216549 0.321902 0.3220412
 0.3220193 0.321925 0.3219797 0.3223369 0.3229104 0.3234686 0.3238793 0.324186 0.3244782 0.3247854
 0.325063 0.3251773 0.3249627 0.3244535 0.3240373 0.3242046 0.3250724 0.3262471 0.3272165 0.3278032
 0.328162 0.3284201 0.328491 0.3282362 0.3276344 0.326786 0.3259678 0.325685 0.3263423 0.327728
 0.3290954 0.329911 0.3303148 0.3307498 0.3313837 0.3320327 0.3324652 0.3326125 0.3325348 0.3322857
 0.3318826 0.3314575 0.3313512 0.3318739 0.3329439 0.3341048 0.3349565 0.3354725 0.3358132 0.3358569
 0.3350807 0.333177 0.3308598 0.3296844 0.3306681 0.3332218 0.3357888 0.3373836 0.3381339 0.338555
 0.3388779 0.3389809 0.338376 0.3363687 0.3330005 0.329877 0.329197 0.3315867 0.3353965 0.3383002
 0.3390756 0.3378564 0.3355373 0.3333593 0.332472 0.3333091 0.3354023 0.3378617 0.3399135 0.3411079
 0.3413459 0.3408395 0.3400232 0.3394322 0.3393662 0.3394412 0.338827 0.33732 0.3357306 0.3346331
 0.3333094 0.3309236 0.3283934 0.3278245 0.3299089 0.3329253 0.3347309 0.3349518 0.3346051 0.3340385
 0.332083 0.3275916 0.3215587 0.3170854 0.3167033 0.3198215 0.323286 0.3244467 0.3232294 0.3212582
 0.3196054 0.3177323 0.314439 0.3096903 0.3053122 0.3034078 0.3040434 0.3051675 0.3048822 0.3027766
 0.2989398 0.2934709 0.2880281 0.2861624 0.290144 0.2980604 0.3054572 0.3091499 0.3082125 0.3026543
 0.2937374 0.2853514 0.2822737 0.285774 0.2921546 0.2963546 0.2959635 0.2913229 0.2834392 0.2735249
 0.2640602 0.258503 0.2590845 0.265018 0.2726604 0.2771078 0.2747113 0.2659897 0.2563169 0.2518741
 0.2538781 0.2578192 0.2587947 0.2561225 0.2523203 0.2496506 0.24886 0.249643 0.2509983 0.2520002
 0.2525088 0.251895 0.2477271 0.238467 0.2275455 0.2215725 0.2235213 0.2303027 0.2377675 0.2448806
 0.2514787 0.2552863 0.2543346 0.2508999 0.2500749 0.2543297 0.2611375 0.2661731 0.2676787 0.2671813
 0.2666482 0.2660947 0.2645838 0.2628337 0.2632526 0.2669544 0.2720264 0.2756059 0.2767587 0.2764974
 0.275866 0.2750639 0.2739653 0.2725443 0.2708381 0.2689668 0.2671263 0.2653729 0.2635851 0.2617117
 0.2597022 0.2569637 0.2524298 0.2459959 0.2397278 0.2364714 0.2369112 0.2391365 0.241369 0.243263
 0.2436772 0.2397155 0.2305023 0.2206001 0.2168875 0.2219156 0.2318575 0.24077 0.2452672 0.2449684
 0.2405239 0.2333297 0.2270063 0.2267886 0.2355155 0.2506709 0.2666185 0.2793436 0.2880072 0.2928327
 0.2936173 0.2908413 0.2869475 0.2854028 0.2883411 0.2951725 0.3030616 0.3082416 0.307631 0.3013636
 0.2945516 0.2942162 0.3022841 0.3129917 0.3192302 0.3200178 0.3195266 0.320469 0.3217304 0.322003
 0.3224174 0.3245503 0.3277695 0.3297303 0.3284833 0.3233112 0.3146939 0.3048292 0.2973273 0.2944906
 0.2949831 0.2955786 0.2945957 0.2919025 0.2868222 0.2792135 0.27231 0.2709593 0.2760975 0.2834007
 0.2882386 0.2899989 0.2907597 0.2914453 0.2906932 0.2871299 0.2818198 0.277821 0.2771932 0.2790446
 0.2809787 0.281662 0.281056 0.278966 0.2750469 0.2703635 0.2675158 0.2683646 0.2720939 0.2760584
 0.2782628 0.278612 0.2781251 0.2776867 0.2775958 0.2777137 0.2778538 0.278339 0.2800477 0.2834066
 0.2874911 0.290788 0.2928684 0.2947177 0.2973349 0.3005281 0.3032771 0.304925 0.3057947 0.3068035
 0.3086208 0.3110977 0.3133759 0.3146089 0.3147594 0.314719 0.315504 0.3172997 0.3194142 0.3211194
 0.3223031 0.3233202 0.3245105 0.3259394 0.3273629 0.3283918 0.3289081 0.3293519 0.3303692 0.3321089
 0.3340446 0.3355255 0.3363336 0.3366595 0.3367163 0.3365331 0.3360715 0.3354071 0.3347363 0.3342279
 0.3339092 0.333697 0.3335015 0.333285 0.333059 0.332871 0.3327818 0.3328264 0.3329958 0.333262
 0.3335941 0.3339385 0.334224 0.3344147 0.3345309 0.3345964 0.3345868 0.3344463 0.3341268 0.3335891
 0.3327858 0.331668 0.3301976 0.3283304 0.3260187 0.3233169 0.3205548 0.3183702 0.3174408 0.3180606
 0.3199269 0.3223341 0.3245925 0.326333 0.3275301 0.3283373 0.3289177 0.3293732 0.3297465 0.3300468
 0.3302726 0.3304321 0.3305437 0.3306227 0.3306749 0.3307037 0.3307132 0.3307014 0.3306545 0.3305496
 0.3303635 0.3300824 0.3297045 0.3292311 0.3286553 0.3279601 0.3271285 0.3261622 0.3250947 0.3239808
 0.322871 0.3217913 0.3207385 0.319683 0.3185761 0.3173583 0.3159557 0.3142918 0.3123596 0.3103027
 0.3083653 0.3067009 0.3052426 0.3037887 0.3021879 0.300415 0.2985114 0.296515 0.2944505 0.2923421
 0.2902091 0.288052 0.2858484 0.2835677 0.2811944 0.2787397 0.2762248 0.2736647 0.2710703 0.2684533
 0.2658044 0.2630594 0.2600923 0.2567449 0.2528677 0.2483502 0.2431462 0.2373063 0.230996 0.2244705
 0.218008 0.2118493 0.2061754 0.2011165 0.1967662 0.193191 0.1904358 0.1885274 0.1874788 0.1872911
 0.1879499 0.1894176 0.1916252 0.1944638 0.1977781 0.2013723 0.2050338 0.2085712 0.2118662 0.21491
 0.217779 0.2205489 0.2232222 0.2257396 0.2280439 0.2301172 0.2319626 0.2335758 0.2349516 0.2361114
 0.2371116 0.2380175 0.2388679 0.2396607 0.2403661 0.2409526 0.2414056 0.2417283 0.2419299 0.2420213
 0.242028 0.2420054 0.2420329 0.2421861 0.2425099 0.2430134 0.243685 0.2445028 0.24543 0.2464172
 0.2474274 0.2484633 0.2495665 0.2507902 0.252171 0.2537149 0.255401 0.2571903 0.2590261 0.2608248
 0.2624812 0.2638973 0.2650156 0.2658294 0.2663649 0.2666575 0.2667418 0.2666573 0.2664504 0.2661666
 0.2658405 0.2654951 0.2651416 0.2647768 0.2643836 0.26394 0.2634337 0.2628703 0.2622653 0.2616233
 0.2609314 0.2601756 0.2593583 0.2585012 0.2576455 0.2568506 0.2561765 0.2556587 0.2552996 0.2550727
 0.254927 0.254793 0.2545956 0.2542678 0.2537632 0.2530673 0.2521889 0.251134 0.2498949 0.2484653
 0.2468555 0.2450904 0.2432005 0.2412128 0.2391427 0.2369905 0.2347437 0.2323885 0.2299379 0.2274555
 0.2250367 0.2227542 0.2206284 0.2186414 0.2167628 0.2149684 0.2132467 0.2115916 0.2099908 0.2084365
 0.2069418 0.2055294 0.2042092 0.2029782 0.2018325 0.2007754 0.1998199 0.1989835 0.1982704 0.1976622
 0.1971323 0.1966609 0.1962464 0.1959157 0.1957107 0.1956362 0.1956276 0.1955881 0.1954523 0.1952206
 0.1949471 0.1946971 0.194506 0.1943738 0.1942822 0.1941878 0.1940044 0.1936235 0.1929522 0.1919282
 0.1905228 0.1887552 0.1866979 0.1844709 0.1822314 0.1801405 0.1783147 0.1768111 0.1756437 0.1747766
 0.174119 0.1735781 0.1731307 0.1728344 0.1727729 0.1729635 0.1732838 0.1735277 0.1735928 0.1735972
 0.1737725 0.1742629 0.1750396 0.1759541 0.176842 0.177602 0.1782005 0.1786264 0.1788789 0.1789875
 0.1789913 0.1788984 0.1786959 0.1783809 0.1779603 0.1774487 0.1768712 0.1762369 0.1755233 0.1747114
 0.1738034 0.1727939 0.1716703 0.1704347 0.1690778 0.1675713 0.1659666 0.1644747 0.1633874 0.1629171
 0.1630891 0.1637339 0.1646025 0.1655294 0.1664468 0.1672614 0.1678669 0.168346 0.1690458 0.1703429
 0.1723181 0.1746603 0.1768808 0.1786201 0.1797556 0.1802907 0.1802672 0.1797649 0.1788451 0.1774958
 0.1757243 0.17364 0.171378 0.1690497 0.1667984 0.1647632 0.1630015 0.1615377 0.1603929 0.1595732
 0.1591351 0.158785 0.1569233 0.1512171 0.1419142 0.1339574 0.1332327 0.1402147 0.1492895 0.1547797
 0.1557573 0.1546413 0.1534231 0.1525294 0.1518878 0.1515748 0.1516482 0.1519969 0.1523828 0.1525581
 0.1524237 0.1520014 0.1511614 0.1494004 0.1458665 0.1396728 0.1305463 0.1194284 0.1082769 0.09903473
 0.09267342 0.08899461 0.08705026 0.08580106 0.08471344 0.08394358 0.08398424 0.08516361 0.08746217 0.09065576
 0.09446722 0.09855393 0.1024733 0.1058183 0.1084199 0.1103442 0.1116896 0.1124823 0.1127527 0.1125872
 0.1120772 0.1112925 0.1102995 0.1091449 0.1078314 0.1063668 0.104847 0.1034721 0.1024565 0.1018881
 0.1016738 0.101643 0.101688 0.1017854 0.1019354 0.1021328 0.1023733 0.1026546 0.1029827 0.1033695
 0.1037948 0.1041915 0.1044954 0.1046927 0.104804 0.1048417 0.1047852 0.1046023 0.1043164 0.1040203
 0.1037465 0.1033422 0.1025857 0.1014637 0.1002764 0.09944365 0.09921506 0.09952334 0.1000659 0.1005353
 0.100808 0.1009417 0.1010213 0.1010255</values></Ydata></ScSm><ScRf><Ydata ylabel="Single channel"><values byteorder="INTEL" format="FLOAT32" numvalues="1820"> 0.06972043 0.06984641 0.06996326 0.07007103 0.07016969 0.07026519 0.07037002 0.07049314 0.07063076 0.07076801
 0.07089045 0.07099539 0.07108994 0.07117858 0.07126128 0.0713454 0.07144724 0.07157483 0.07171602 0.07184716
 0.07195102 0.07203202 0.07211688 0.0722301 0.07235986 0.07245736 0.07248111 0.07244188 0.07239769 0.07240191
 0.07246681 0.07259031 0.07279095 0.07305995 0.07328983 0.07334248 0.07322216 0.07310107 0.07312815 0.07327971
 0.07343098 0.07349557 0.07345861 0.0733638 0.07333213 0.07352516 0.07399823 0.07457939 0.07492094 0.07469798
 0.073824 0.07257235 0.07151578 0.07122767 0.07186627 0.0729975 0.07391974 0.0742311 0.07404941 0.07371365
 0.07343176 0.07327245 0.07331873 0.07365493 0.07422456 0.07477342 0.07494821 0.07452862 0.0736783 0.07291516
 0.07269045 0.07304 0.0737406 0.07457729 0.0751441 0.07464874 0.07261585 0.06994558 0.06862801 0.06990416
 0.07296697 0.07580116 0.07701762 0.07658179 0.07522526 0.07380387 0.07307884 0.07345303 0.07470258 0.07620019
 0.0774181 0.07807174 0.07798421 0.07716566 0.07598315 0.07500538 0.07468846 0.07524869 0.07657358 0.07808164
 0.07895339 0.07878059 0.0778728 0.07685208 0.07619488 0.07621098 0.07706285 0.07857047 0.08023003 0.08158959
 0.08248544 0.08293725 0.08303249 0.08290981 0.08269364 0.08247696 0.08241482 0.08264536 0.08302008 0.08313403
 0.08277603 0.0822138 0.08192299 0.08209693 0.08248107 0.08268151 0.0825554 0.0821359 0.08123202 0.07952546
 0.07722457 0.07515912 0.07397059 0.07366462 0.07413927 0.07545787 0.07721484 0.0783425 0.07818436 0.07737796
 0.07716523 0.07805447 0.07950599 0.08072959 0.08145553 0.08197939 0.08269747 0.08365321 0.08442016 0.08440996
 0.08346707 0.08224255 0.08176216 0.08243626 0.08366531 0.08458627 0.08498521 0.08526888 0.08574529 0.0861741
 0.08597577 0.0848501 0.08329454 0.08243041 0.08307931 0.08494945 0.08678639 0.0873204 0.08616817 0.08403923
 0.08214089 0.08131316 0.08170243 0.08309961 0.08523299 0.08764394 0.08962525 0.09057894 0.09042484 0.08958118
 0.08851023 0.08728771 0.0857687 0.08426368 0.0837148 0.08481336 0.08710983 0.08937281 0.09072535 0.09112823
 0.09087592 0.09000348 0.0883714 0.08628382 0.08476016 0.0847804 0.08617362 0.08766448 0.08823001 0.08805438
 0.08794595 0.08822761 0.08855942 0.08862142 0.08858435 0.08886333 0.08958803 0.09044138 0.09100066 0.09113094
 0.09101388 0.09089468 0.09085032 0.09074481 0.09043438 0.09008244 0.09014618 0.09089243 0.09203678 0.09302939
 0.09359743 0.09385259 0.09395526 0.09384517 0.09334613 0.09251072 0.09178576 0.0916947 0.09232908 0.09328005
 0.09407383 0.09452429 0.09468471 0.09466876 0.09457518 0.09446338 0.09436493 0.09434798 0.09450506 0.09482784
 0.09517361 0.09540699 0.09551022 0.09552763 0.0954746 0.09534374 0.09516624 0.09502813 0.09501475 0.09514248
 0.09535731 0.09559084 0.09578946 0.09590309 0.09590203 0.09581574 0.09571503 0.09564726 0.09561747 0.09562682
 0.09569046 0.09580801 0.09594282 0.0960483 0.09610685 0.09613127 0.09613544 0.0961206 0.09609056 0.09606527
 0.09607334 0.09613152 0.09622699 0.09632506 0.09640871 0.09650025 0.09661938 0.09673351 0.09678595 0.09676874
 0.09673427 0.09673709 0.09678917 0.09686856 0.09694529 0.09699257 0.09698913 0.09693383 0.0968657 0.09685197
 0.09693834 0.09711722 0.09734906 0.09759296 0.09780993 0.09797049 0.09807891 0.09816787 0.09825765 0.09833907
 0.09840024 0.0984537 0.0985334 0.09866895 0.09885676 0.09905687 0.09922643 0.0993513 0.09944409 0.09953149
 0.09964718 0.09980379 0.09996186 0.1000609 0.1000957 0.1001302 0.1002214 0.1003552 0.1004709 0.1005335
 0.1005653 0.1006133 0.1007003 0.1008101 0.1009148 0.101007 0.1011041 0.1012214 0.1013409 0.101415
 0.1014133 0.1013619 0.1013197 0.1013192 0.1013507 0.1013978 0.1014622 0.1015451 0.1016244 0.101669
 0.1016717 0.101659 0.1016615 0.1016794 0.1016851 0.1016562 0.1015998 0.1015417 0.1015027 0.1014861
 0.1014796 0.1014646 0.101428 0.1013686 0.1012952 0.1012183 0.1011437 0.1010765 0.1010315 0.1010292
 0.1010653 0.1010881 0.10103 0.1008702 0.1006589 0.1004725 0.1003499 0.1002716 0.1001892 0.1000689
 0.09991238 0.09974603 0.09959498 0.099466 0.09935011 0.09923818 0.09913546 0.09906165 0.0990293 0.09901819
 0.09898071 0.09888461 0.09874588 0.0986111 0.09851227 0.09844823 0.09840129 0.09835775 0.09831633 0.09828722
 0.09828015 0.09828775 0.09828892 0.09827375 0.09825636 0.09826078 0.09830354 0.09838793 0.09849775 0.0985965
 0.09865323 0.09867556 0.09870362 0.09876755 0.09886401 0.09897489 0.09909233 0.09921876 0.09935595 0.09950493
 0.09967075 0.09985909 0.1000689 0.1002914 0.1005144 0.1007287 0.1009349 0.1011457 0.1013779 0.1016395
 0.1019225 0.1022089 0.1024847 0.10275 0.1030164 0.1032931 0.1035779 0.1038654 0.1041588 0.1044657
 0.1047851 0.1051069 0.1054239 0.1057372 0.1060526 0.1063734 0.1066991 0.10703 0.1073734 0.1077396
 0.1081238 0.1084959 0.1088225 0.1091013 0.1093646 0.1096506 0.1099744 0.1103218 0.1106602 0.1109625
 0.1112316 0.1114991 0.1117914 0.1121015 0.1124064 0.1127071 0.1130324 0.1134003 0.1137835 0.1141261
 0.1143954 0.1146118 0.114825 0.1150636 0.1153142 0.11555 0.1157672 0.1159836 0.1162096 0.1164396
 0.1166731 0.1169244 0.1172007 0.117482 0.1177379 0.1179588 0.1181601 0.118358 0.11855 0.1187175
 0.1188444 0.1189365 0.1190238 0.1191368 0.1192793 0.1194307 0.1195756 0.1197205 0.1198795 0.1200572
 0.1202534 0.1204731 0.1207187 0.120978 0.1212346 0.1214924 0.1217729 0.122078 0.1223705 0.1226109
 0.1228036 0.1229871 0.1231858 0.123396 0.1236148 0.1238567 0.1241351 0.1244419 0.1247527 0.1250477
 0.125328 0.1256151 0.125925 0.126242 0.126525 0.1267489 0.1269311 0.1271135 0.1273275 0.1275771
 0.1278481 0.1281236 0.1283911 0.1286369 0.1288413 0.1289883 0.129084 0.1291548 0.1292185 0.1292598
 0.1292403 0.1291293 0.1289156 0.1285931 0.1281487 0.1275746 0.1268931 0.1261689 0.1254964 0.1249736
 0.1246746 0.1246363 0.1248556 0.125293 0.1258773 0.1265174 0.12712 0.1275997 0.127881 0.1279088
 0.1276697 0.1271978 0.1265545 0.1258012 0.1249894 0.1241604 0.123347 0.1225887 0.1219602 0.1215798
 0.1215776 0.1220469 0.123011 0.124406 0.1260776 0.1278156 0.1294311 0.1308272 0.1320066 0.1330213
 0.1339231 0.1347483 0.1355227 0.1362615 0.1369668 0.1376339 0.1382611 0.1388497 0.1393959 0.1398889
 0.1403136 0.1406547 0.1409035 0.1410669 0.1411663 0.1412225 0.1412471 0.1412497 0.1412396 0.1412066
 0.1411085 0.140892 0.1405283 0.1400342 0.1394765 0.1389757 0.1387017 0.1388338 0.1394843 0.1406282
 0.142102 0.1436809 0.1451739 0.1464677 0.1475185 0.1483362 0.1489715 0.149491 0.1499458 0.150362
 0.1507525 0.1511266 0.151489 0.1518407 0.1521832 0.1525208 0.1528594 0.1532018 0.1535443 0.1538788
 0.154203 0.1545258 0.15486 0.1552109 0.1555713 0.155929 0.156279 0.1566265 0.1569755 0.1573193
 0.1576475 0.1579601 0.158269 0.1585864 0.1589184 0.159264 0.1596145 0.1599548 0.1602733 0.1605699
 0.1608531 0.161132 0.1614125 0.1616969 0.1619837 0.1622689 0.1625509 0.162832 0.163115 0.1633984
 0.1636764 0.163944 0.1642014 0.1644541 0.1647074 0.1649619 0.165215 0.1654644 0.1657116 0.1659634
 0.1662277 0.1665058 0.1667883 0.1670621 0.1673208 0.1675676 0.167809 0.1680492 0.1682905 0.1685348
 0.1687837 0.1690371 0.1692929 0.1695481 0.1698011 0.1700521 0.1703019 0.1705515 0.1708015 0.1710519
 0.1713022 0.1715524 0.1718013 0.1720481 0.172294 0.1725415 0.1727905 0.1730364 0.1732742 0.1735034
 0.1737277 0.1739525 0.1741821 0.1744187 0.174662 0.1749107 0.1751625 0.1754134 0.1756593 0.1758989
 0.1761344 0.1763683 0.176602 0.1768374 0.1770776 0.1773253 0.1775789 0.1778304 0.1780725 0.1783051
 0.1785336 0.178763 0.178995 0.1792308 0.1794706 0.1797123 0.1799536 0.1801939 0.1804336 0.1806725
 0.1809099 0.181145 0.1813778 0.1816098 0.1818424 0.1820759 0.1823107 0.1825478 0.1827864 0.1830241
 0.1832593 0.1834909 0.1837192 0.1839473 0.1841793 0.1844153 0.1846525 0.1848911 0.1851338 0.1853797
 0.1856238 0.1858622 0.1860956 0.1863287 0.1865664 0.1868077 0.1870478 0.1872861 0.187527 0.1877713
 0.1880152 0.1882575 0.1885013 0.1887483 0.1889974 0.1892475 0.1894973 0.1897451 0.1899919 0.1902402
 0.1904919 0.1907481 0.1910088 0.1912699 0.1915268 0.1917806 0.1920338 0.1922835 0.1925255 0.19276
 0.1929887 0.1932136 0.1934377 0.1936623 0.1938858 0.1941085 0.1943357 0.1945699 0.1948078 0.1950457
 0.1952821 0.1955177 0.1957563 0.1960011 0.1962505 0.1965014 0.1967557 0.1970152 0.1972764 0.197535
 0.1977902 0.1980415 0.1982906 0.1985448 0.1988084 0.1990765 0.1993427 0.1996048 0.1998628 0.2001204
 0.2003854 0.200659 0.2009316 0.2011967 0.2014585 0.2017222 0.2019897 0.2022622 0.202537 0.2028068
 0.2030708 0.2033366 0.2036076 0.2038815 0.204157 0.2044317 0.2047018 0.2049701 0.2052432 0.2055194
 0.205795 0.2060732 0.2063554 0.2066357 0.2069115 0.2071856 0.2074556 0.2077188 0.2079806 0.2082449
 0.2085089 0.2087746 0.2090441 0.209303 0.2095221 0.2096475 0.2095442 0.2089225 0.2072918 0.2039731
 0.1982412 0.189624 0.1781953 0.1646453 0.1500802 0.1356708 0.1223386 0.1106445 0.1008783 0.09318769
 0.08765925 0.08438882 0.08354065 0.08543886 0.09069473 0.09984976 0.1120258 0.1237441 0.1302226 0.1290056
 0.1221976 0.1145512 0.1095889 0.1078703 0.1081975 0.1093892 0.1109729 0.1130549 0.1159223 0.1196243
 0.1239208 0.1286884 0.1341638 0.1405873 0.1477339 0.1549929 0.1618822 0.1683675 0.1746791 0.1809206
 0.1869143 0.192371 0.197115 0.2011458 0.2045766 0.207558 0.2102186 0.2126395 0.2148733 0.216949
 0.2188291 0.2203908 0.2214975 0.2221091 0.2223301 0.2223586 0.2223758 0.2224704 0.2226548 0.2229238
 0.223276 0.2237027 0.2241875 0.2247156 0.2252717 0.2258398 0.2264098 0.2269732 0.2275186 0.2280381
 0.2285314 0.2289974 0.2294359 0.2298533 0.2302564 0.2306449 0.23102 0.2313873 0.2317486 0.2321025
 0.232452 0.232798 0.2331308 0.2334411 0.233732 0.2340129 0.2342888 0.23456 0.2348233 0.2350761
 0.2353225 0.2355712 0.2358232 0.2360712 0.2363123 0.2365506 0.2367911 0.2370366 0.2372857 0.2375328
 0.2377739 0.2380121 0.2382518 0.2384923 0.2387318 0.2389713 0.2392104 0.2394465 0.2396805 0.2399171
 0.2401614 0.2404176 0.2406857 0.2409582 0.2412282 0.2414967 0.2417668 0.2420354 0.2422993 0.2425628
 0.2428316 0.2431068 0.2433868 0.2436671 0.2439389 0.2441929 0.244427 0.2446488 0.2448715 0.2451051
 0.2453483 0.2455913 0.2458287 0.2460648 0.2463059 0.246554 0.2468065 0.2470578 0.247305 0.2475561
 0.2478232 0.2481073 0.248397 0.2486852 0.2489732 0.2492614 0.2495472 0.2498316 0.2501177 0.2504026
 0.2506806 0.2509532 0.2512336 0.2515387 0.2518729 0.2522192 0.2525527 0.2528639 0.2531638 0.2534706
 0.2537956 0.2541317 0.254447 0.2547093 0.2549307 0.2551723 0.2554888 0.2558765 0.2562848 0.2566683
 0.2570156 0.2573389 0.2576507 0.2579519 0.2582351 0.2584944 0.2587406 0.2590074 0.2593305 0.2597077
 0.2600951 0.260452 0.2607746 0.2610783 0.2613722 0.2616588 0.2619281 0.2621445 0.2622823 0.2623919
 0.2625922 0.2629599 0.2634444 0.2639181 0.264302 0.2646167 0.2649173 0.2652228 0.2655238 0.2657957
 0.2659713 0.2659721 0.2658468 0.2658231 0.2661201 0.2667249 0.2674205 0.2680087 0.2684416 0.2687713
 0.2690596 0.2693384 0.2695907 0.2697488 0.2697647 0.2697167 0.2697999 0.2701483 0.2706828 0.2711996
 0.2715858 0.271884 0.2721751 0.2724853 0.2727747 0.2729247 0.27279 0.2723976 0.2720786 0.272252
 0.2730194 0.274049 0.2749072 0.2754425 0.2757841 0.2760391 0.2761365 0.2759618 0.2754977 0.2748263
 0.2741797 0.2739859 0.2745875 0.275803 0.2770012 0.2777368 0.2781325 0.2785596 0.2791531 0.2797546
 0.2801705 0.2803469 0.280338 0.2801893 0.2799142 0.2796231 0.2796027 0.2801127 0.2810822 0.2821275
 0.2829123 0.2834132 0.2837659 0.2838691 0.2832816 0.2817412 0.2798513 0.2789301 0.2798404 0.2820825
 0.2843366 0.285767 0.2864819 0.2869211 0.2872843 0.2874674 0.287049 0.2854325 0.2826551 0.2800899
 0.2796113 0.2817487 0.2850927 0.2876601 0.2884114 0.2874659 0.285594 0.2838579 0.2832357 0.2840916
 0.2860206 0.2882562 0.2901334 0.2912731 0.2916017 0.2913034 0.2907445 0.2903794 0.2904661 0.2906764
 0.2902993 0.2891639 0.2879668 0.2871947 0.286225 0.2843469 0.2823664 0.2821034 0.284146 0.2869989
 0.2888121 0.2892696 0.2892525 0.2890559 0.2876642 0.2840908 0.2792194 0.275771 0.2759727 0.27933
 0.2831164 0.2850532 0.285105 0.2846872 0.2846801 0.2845055 0.2829937 0.280044 0.2772633 0.2765241
 0.2778559 0.2793862 0.2794097 0.2775783 0.2739828 0.2687281 0.263375 0.2612356 0.2644446 0.2713009
 0.2777724 0.2809776 0.2800823 0.2750969 0.267178 0.2598837 0.2575723 0.2613798 0.2678975 0.2724769
 0.272892 0.2694227 0.2629599 0.2546248 0.2467604 0.2426407 0.2443896 0.2512809 0.2598559 0.2654065
 0.2643911 0.2572877 0.2492962 0.2464064 0.2497605 0.2549105 0.2570507 0.2555341 0.2528513 0.2512394
 0.2514534 0.2532029 0.2554823 0.2573609 0.2586954 0.258792 0.25508 0.2459522 0.2349878 0.2290593
 0.2312524 0.2383718 0.2461377 0.2534923 0.2602571 0.2640526 0.2628276 0.2589366 0.2576458 0.2615077
 0.2679277 0.2724808 0.2734039 0.2723085 0.2712425 0.2702436 0.2683775 0.266394 0.2667414 0.2705277
 0.2757865 0.2796093 0.2810589 0.2811669 0.2809801 0.2806762 0.2801077 0.2792462 0.2781444 0.2769396
 0.2758338 0.2748731 0.2739181 0.2729151 0.2718175 0.2699884 0.2662509 0.260421 0.2546195 0.2518109
 0.2526912 0.2552429 0.2576248 0.2595097 0.2596884 0.2550708 0.2447276 0.2335188 0.2287499 0.2331055
 0.2425079 0.2506874 0.2541414 0.2525724 0.24676 0.2381926 0.2305342 0.2290036 0.2363659 0.2500224
 0.2643144 0.2752917 0.2822419 0.2855217 0.2850182 0.281222 0.2764937 0.2741532 0.2761959 0.2819674
 0.288667 0.2926666 0.2910851 0.284144 0.2767509 0.2755545 0.2823678 0.2917712 0.2970943 0.2974102
 0.2966074 0.2972158 0.2982199 0.2984474 0.2989908 0.3013392 0.3049196 0.3075707 0.3074872 0.3039775
 0.2974562 0.2899901 0.2849891 0.2845092 0.2869841 0.2890334 0.2889448 0.286714 0.2819139 0.2746235
 0.2681042 0.2670517 0.2722567 0.2794056 0.2839954 0.285526 0.2861103 0.2866697 0.2858521 0.2823021
 0.2770729 0.2731756 0.2726332 0.2745766 0.2766814 0.2776858 0.2775919 0.2762157 0.2731989 0.2695692
 0.2678706 0.2698977 0.2747675 0.2797758 0.2828805 0.2839431 0.2839345 0.2836892 0.2834663 0.2831095
 0.2824542 0.2818894 0.2823836 0.2844529 0.2872539 0.2893462 0.2903554 0.2912885 0.2931318 0.2956502
 0.2977527 0.2986999 0.2987577 0.2988481 0.2997083 0.3012837 0.3027869 0.3033971 0.3030649 0.3026601
 0.3031882 0.3048345 0.3068922 0.3085744 0.3096712 0.3104443 0.3111874 0.3119761 0.3126309 0.3128698
 0.3126876 0.3125858 0.3131974 0.3146211 0.3162962 0.3175679 0.318225 0.3184569 0.318474 0.3183084
 0.3179261 0.3173977 0.3169051 0.3166022 0.3165051 0.3165197 0.3165456 0.3165376 0.3165024 0.3164769
 0.3165051 0.3166063 0.3167664 0.316966 0.3171923 0.3174168 0.3175959 0.3177165 0.3178086 0.31789
 0.3179237 0.3178446 0.3176008 0.3171523 0.3164551 0.3154719 0.3141799 0.3125502 0.3105464 0.3082266
 0.305912 0.3042206 0.3038088 0.3049541 0.3073353 0.3102145 0.3128576 0.314853 0.3161497 0.3168989
 0.3172852 0.317445 0.317457 0.3173572 0.3171611 0.3168869 0.3165598 0.3162027 0.3158341 0.3154748
 0.3151456 0.314855 0.3145912 0.3143226 0.3140097 0.3136246 0.3131627 0.3126343 0.3120457 0.3113876
 0.3106375 0.3097761 0.3088116 0.3077904 0.306777 0.3058183 0.3049207 0.3040569 0.3031877 0.3022729
 0.3012549 0.3000591 0.298665 0.297195 0.2958755 0.2948585 0.294091 0.2933818 0.2925667 0.2915895
 0.2904645 0.2892273 0.2879207 0.2865866 0.2852454 0.2838825 0.2824595 0.2809396 0.2793089 0.2775762
 0.2757588 0.2738731 0.2719404 0.2699821 0.2679883 0.2658843 0.263533 0.2607747 0.2574718 0.253535
 0.2489391 0.2437446 0.2381085 0.2322553 0.2264183 0.2207962 0.215548 0.2108097 0.2067023 0.2033255
 0.2007473 0.1990022 0.1981028 0.1980521 0.1988409 0.200433 0.2027541 0.2056877 0.209077 0.2127343
 0.2164577 0.2200575 0.2233988 0.2264424 0.2292396 0.2318622 0.2343292 0.2366 0.238626 0.2403901
 0.2419017 0.2431752 0.2442271 0.2450878 0.2458006 0.2464039 0.246918 0.2473491 0.2476998 0.2479746
 0.2481839 0.2483474 0.2484919 0.2486458 0.2488312 0.2490588 0.2493274 0.2496357 0.2499945 0.2504245
 0.2509417 0.2515458 0.2522206 0.2529443 0.2537053 0.2545134 0.2553988 0.256403 0.2575653 0.2589067
 0.2604164 0.2620468 0.2637191 0.2653378 0.266806 0.2680432 0.2690021 0.269675 0.2700823 0.2702489
 0.2701932 0.2699381 0.2695202 0.2689773 0.2683357 0.2676135 0.2668287 0.265994 0.2651091 0.264168
 0.2631755 0.2621531 0.2611288 0.260122 0.2591406 0.2581905 0.2572767 0.256395 0.2555331 0.2546846
 0.2538574 0.2530673 0.2523273 0.2516382 0.2509826 0.2503288 0.2496388 0.2488717 0.2479891 0.246968
 0.2458018 0.2444881 0.2430257 0.2414211 0.2396866 0.2378316 0.2358672 0.2338148 0.2316997 0.2295335
 0.2273028 0.2249815 0.2225711 0.2201347 0.2177753 0.215572 0.2135446 0.2116717 0.2099233 0.208278
 0.2067246 0.2052524 0.2038443 0.2024861 0.2011782 0.199927 0.1987361 0.1976113 0.1965638 0.1956051
 0.1947502 0.1940155 0.1934022 0.1928902 0.1924579 0.1920961 0.191809 0.191619 0.1915583 0.1916253
 0.1917563 0.1918597 0.1918769 0.1918118 0.191716 0.1916451 0.1916204 0.1916301 0.1916525 0.1916478
 0.191536 0.191214 0.1905918 0.1896022 0.188207 0.1864234 0.1843366 0.1820841 0.1798321 0.1777439
 0.1759378 0.1744712 0.1733485 0.1725218 0.1719028 0.1714195 0.1710664 0.1708952 0.1709667 0.1712843
 0.1717307 0.1721057 0.1722985 0.1724135 0.1726809 0.17326 0.1741429 0.1751969 0.1762592 0.1772094
 0.1779864 0.1785674 0.1789684 0.1792422 0.179429 0.1795175 0.179481 0.1793195 0.1790451 0.1786678
 0.1782071 0.1776755 0.1770589 0.1763434 0.175537 0.1746429 0.1736526 0.1725613 0.1713473 0.1699744
 0.1684899 0.167105 0.1661201 0.1657654 0.1660822 0.1669044 0.167979 0.1691351 0.1702976 0.1713569
 0.1721812 0.1728293 0.1736419 0.1750104 0.1770378 0.1794285 0.181701 0.1835018 0.1847095 0.1853183
 0.1853566 0.184895 0.1839896 0.1826243 0.1808084 0.178661 0.176326 0.1739188 0.1715858 0.1694724
 0.1676449 0.1661346 0.1649625 0.1641265 0.1636756 0.1633045 0.1613713 0.1554864 0.1459175 0.1377557
 0.1370505 0.1442776 0.1536504 0.1593228 0.1603403 0.1591939 0.1579327 0.1569944 0.1563041 0.1559402
 0.1559585 0.1562455 0.1565705 0.1566974 0.1565273 0.1560722 0.1551925 0.1533723 0.1497287 0.1433312
 0.1338899 0.1223879 0.1108655 0.1013366 0.0947995 0.09104116 0.08907662 0.08782828 0.08674049 0.08596916
 0.08601901 0.08723174 0.08960253 0.09292365 0.09692647 0.1012559 0.105437 0.1090282 0.1118436 0.1139547
 0.1154802 0.1164695 0.1169685 0.1170613 0.116817 0.1162748 0.1154827 0.1144885 0.1132998 0.1119097
 0.1103811 0.1088991 0.1077081 0.1069541 0.1065848 0.106432 0.1063704 0.1063642 0.1064104 0.106505
 0.1066453 0.1068307 0.1070672 0.1073677 0.10772 0.1080685 0.1083522 0.1085436 0.1086414 0.1086421
 0.1085231 0.1082587 0.1078802 0.1074879 0.1071167 0.1066074 0.1057297 0.1044762 0.1031718 0.1022636
 0.1020072 0.1023152 0.1028553 0.1032983 0.1035168 0.1035831 0.1036103 0.1036 0.1034312 0.1029909
</values></Ydata></ScRf><Data_Parameters_AB><parameter name="DPF">1</parameter><parameter name="NPT">3497</parameter><parameter name="FXV">3996</parameter><parameter name="LXV">500</parameter><parameter name="CSF">1</parameter><parameter name="MXY">0.0283397063612938</parameter><parameter name="MNY">-0.0950978621840477</parameter><parameter name="DAT">13/02/2024</parameter><parameter name="TIM">13:05:54.469 (GMT+1)</parameter><parameter name="DXU">WN</parameter></Data_Parameters_AB><AB__Qtest><MainReport name="Quality Test Report"><Header><Line><Legend>Test result ok/not ok [1/0]: </Legend><Value>0</Value></Line><Line><Legend>Method file: </Legend><Value>C:\Users\Public\Documents\Bruker\OPUS_8.2.28\QT\IRBT_v3_default.QT</Value></Line></Header><Matrix><Line><Legend></Legend><Legend>min</Legend><Legend>max</Legend><Legend>measured</Legend></Line><Line><Value>Absorption (X-Range 1):</Value><Value>0.400000</Value><Value>2.000000</Value><Value>0.094571</Value></Line><Line><Value>Noise (X-Range 4):</Value><Value></Value><Value>0.000300</Value><Value>0.000030</Value></Line><Line><Value>Signal/Noise (X-Range 2):</Value><Value>200.000000</Value><Value></Value><Value>58.781406</Value></Line><Line><Value>Signal/Noise (X-Range 3):</Value><Value>40.000000</Value><Value></Value><Value>41.685761</Value></Line><Line><Value>Water vapour (X-Range 5):</Value><Value></Value><Value>0.000300</Value><Value>0.000011</Value></Line><Line><Value>Signal/Water (X-Range 2):</Value><Value>100.000000</Value><Value></Value><Value>154.316842</Value></Line><Line><Value>Signal/Water (X-Range 3):</Value><Value>20.000000</Value><Value></Value><Value>109.436223</Value></Line><Line><Value>Fringes (X-Range 6):</Value><Value></Value><Value>0.000100</Value><Value>0.000025</Value></Line></Matrix></MainReport></AB__Qtest><Data_Parameters_ScSm><parameter name="DPF">1</parameter><parameter name="NPT">1814</parameter><parameter name="FXV">3996.63438082617</parameter><parameter name="LXV">499.579297603271</parameter><parameter name="CSF">1</parameter><parameter name="MXY">0.341345876455307</parameter><parameter name="MNY">0.0839435756206512</parameter><parameter name="DAT">13/02/2024</parameter><parameter name="TIM">13:05:54.469 (GMT+1)</parameter><parameter name="DXU">WN</parameter></Data_Parameters_ScSm><Data_Parameters_ScRf><parameter name="DPF">1</parameter><parameter name="NPT">1820</parameter><parameter name="FXV">4004.34989121387</parameter><parameter name="LXV">495.721542409425</parameter><parameter name="CSF">1</parameter><parameter name="MXY">0.318473964929581</parameter><parameter name="MNY">0.0686280056834221</parameter><parameter name="DAT">13/02/2024</parameter><parameter name="TIM">13:05:28.615 (GMT+1)</parameter><parameter name="DXU">WN</parameter></Data_Parameters_ScRf><Optic_Parameters_Rf><parameter name="APR">0</parameter><parameter name="APT">Open</parameter><parameter name="BMS">KBr</parameter><parameter name="DTC">RT-DLaTGS_IR-Biotyper [Microplate reader]</parameter><parameter name="HPF">0</parameter><parameter name="LPF">10.0</parameter><parameter name="LPV">4000</parameter><parameter name="PGR">0</parameter><parameter name="RCH">Module port</parameter><parameter name="RDX">0</parameter><parameter name="SRC">MIR</parameter><parameter name="VEL">10.0</parameter><parameter name="SON">Off</parameter></Optic_Parameters_Rf><Acquisition_Parameters_Rf><parameter name="ADT">1</parameter><parameter name="AQM">DD</parameter><parameter name="CFE">0</parameter><parameter name="COR">0</parameter><parameter name="DEL">0</parameter><parameter name="DLY">0</parameter><parameter name="HFW">8000</parameter><parameter name="LFW">0</parameter><parameter name="NSR">32</parameter><parameter name="PLF">AB</parameter><parameter name="RES">6</parameter><parameter name="RGN">-1</parameter><parameter name="STR">0</parameter><parameter name="TCL">MakeCompatibleScalar (0, {WSV=1.000000, ARV=0});</parameter><parameter name="TDL">37</parameter><parameter name="RPO">0</parameter></Acquisition_Parameters_Rf><FT_-_Parameters_Rf><parameter name="APF">B3</parameter><parameter name="HFQ">500</parameter><parameter name="LFQ">4000</parameter><parameter name="NLI">0</parameter><parameter name="PHR">24</parameter><parameter name="PHZ">ML</parameter><parameter name="SPZ">NO</parameter><parameter name="ZFF">1</parameter></FT_-_Parameters_Rf><Optic_Parameters_><parameter name="APR">0</parameter><parameter name="APT">Open</parameter><parameter name="BMS">KBr</parameter><parameter name="CHN">Module port</parameter><parameter name="DTC">RT-DLaTGS_IR-Biotyper [Microplate reader]</parameter><parameter name="HPF">0</parameter><parameter name="LPF">10.0</parameter><parameter name="LPV">4000</parameter><parameter name="PGN">0</parameter><parameter name="RDX">0</parameter><parameter name="SRC">MIR</parameter><parameter name="VEL">10.0</parameter><parameter name="SON">Off</parameter></Optic_Parameters_><FT_-_Parameters_><parameter name="APF">B3</parameter><parameter name="HFQ">500</parameter><parameter name="LFQ">4000</parameter><parameter name="NLI">0</parameter><parameter name="PHR">24</parameter><parameter name="PHZ">ML</parameter><parameter name="SPZ">NO</parameter><parameter name="ZFF">1</parameter></FT_-_Parameters_><Acquisition_Parameters_><parameter name="ADT">1</parameter><parameter name="AQM">DD</parameter><parameter name="CFE">0</parameter><parameter name="COR">0</parameter><parameter name="DEL">0</parameter><parameter name="DLY">0</parameter><parameter name="HFW">8000</parameter><parameter name="LFW">0</parameter><parameter name="NSS">32</parameter><parameter name="PLF">AB</parameter><parameter name="RES">6</parameter><parameter name="SOT">0</parameter><parameter name="TCL">MakeCompatibleScalar (0, {WSV=1.000000, ARV=0});</parameter><parameter name="TDL">37</parameter><parameter name="SPO">0</parameter><parameter name="SGN">-1</parameter></Acquisition_Parameters_><Instrument_Parameters_Rf><parameter name="HFL">15801.365274</parameter><parameter name="LFL">0</parameter><parameter name="LWN">15801.365274</parameter><parameter name="ABP">32157</parameter><parameter name="SSP">1</parameter><parameter name="ARG">2</parameter><parameter name="ASG">2</parameter><parameter name="ASS">32</parameter><parameter name="GFW">16</parameter><parameter name="GBW">16</parameter><parameter name="BFW">0</parameter><parameter name="BBW">0</parameter><parameter name="PKA">9184</parameter><parameter name="PKL">5009</parameter><parameter name="PRA">9174</parameter><parameter name="PRL">4988</parameter><parameter name="P2A">1</parameter><parameter name="P2L">1</parameter><parameter name="P2R">1</parameter><parameter name="P2K">1</parameter><parameter name="DAQ">0</parameter><parameter name="AG2">1</parameter><parameter name="SSM">1</parameter><parameter name="RSN">48097</parameter><parameter name="CRR">0</parameter><parameter name="SRT">1707829528.616</parameter><parameter name="DUR">19.6389923095703</parameter><parameter name="TSC">29.9</parameter><parameter name="MVD">0.302858024835587</parameter><parameter name="AN1">0.22597249456949</parameter><parameter name="AN2">0</parameter><parameter name="VSN">2.485 Apr  4 2017</parameter><parameter name="SRN">0085</parameter><parameter name="CAM">0</parameter><parameter name="INS">IR-Biotyper</parameter><parameter name="FOC">69</parameter><parameter name="RDY">1</parameter><parameter name="ARS">32</parameter></Instrument_Parameters_Rf><Sample_Parameters_><parameter name="BLD"></parameter><parameter name="CNM">Admin</parameter><parameter name="CPY"></parameter><parameter name="DPM"></parameter><parameter name="EXP">IRBT_v3_32Scans.XPM</parameter><parameter name="LCT"></parameter><parameter name="SFM">Microplate, HTS-XT</parameter><parameter name="SNM">240213-1206-Cdiff_SCFA_3_GDA_C38_242149694_C2_c716b735-44c1-4e48-9590-47bfdc02f99e.0</parameter><parameter name="XPP">C:\Users\Public\Documents\Bruker\OPUS_8.2.28\XPM</parameter><parameter name="IST">OK</parameter><parameter name="CPG">1252</parameter><parameter name="UID">907189cf-b861-4d51-bb7a-a2adbdcba3a9</parameter></Sample_Parameters_><Instrument_Parameters_><parameter name="HFL">15801.365274</parameter><parameter name="LFL">0</parameter><parameter name="LWN">15801.365274</parameter><parameter name="ABP">32157</parameter><parameter name="SSP">1</parameter><parameter name="ASG">2</parameter><parameter name="ARG">2</parameter><parameter name="ASS">32</parameter><parameter name="GFW">16</parameter><parameter name="GBW">16</parameter><parameter name="BFW">0</parameter><parameter name="BBW">0</parameter><parameter name="PKA">10170</parameter><parameter name="PKL">5009</parameter><parameter name="PRA">10252</parameter><parameter name="PRL">4988</parameter><parameter name="P2A">1</parameter><parameter name="P2L">1</parameter><parameter name="P2R">1</parameter><parameter name="P2K">1</parameter><parameter name="DAQ">0</parameter><parameter name="AG2">1</parameter><parameter name="SSM">1</parameter><parameter name="RSN">24746</parameter><parameter name="CRR">0</parameter><parameter name="SRT">1707829554.469</parameter><parameter name="DUR">19.6389923095703</parameter><parameter name="TSC">29.9</parameter><parameter name="MVD">0.285340458154678</parameter><parameter name="AN1">0.225965593306929</parameter><parameter name="AN2">0</parameter><parameter name="VSN">2.485 Apr  4 2017</parameter><parameter name="SRN">0085</parameter><parameter name="CAM">0</parameter><parameter name="INS">IR-Biotyper</parameter><parameter name="FOC">69</parameter><parameter name="RDY">1</parameter></Instrument_Parameters_><History/></OPUSDataFile>
