<?xml version="1.0" encoding="UTF-8" ?>
<OPUSDataFile><AB><Ydata ylabel="Absorbance Units"><values byteorder="INTEL" format="FLOAT32" numvalues="3497"> -0.08891626 -0.08889312 -0.08888074 -0.08888008 -0.08889566 -0.08892397 -0.0889599 -0.08899991 -0.08903608 -0.08906815
 -0.08909213 -0.08911142 -0.08912723 -0.08914223 -0.08915847 -0.08917565 -0.08919426 -0.08921304 -0.0892318 -0.08924953
 -0.08926624 -0.08927952 -0.08928914 -0.08929327 -0.08929188 -0.08928885 -0.08928481 -0.08928794 -0.08929818 -0.08932014
 -0.08935171 -0.08938887 -0.0894291 -0.08946487 -0.08949521 -0.08951478 -0.08952545 -0.08952613 -0.08952206 -0.08951607
 -0.089514 -0.08952011 -0.08953529 -0.08956196 -0.08959395 -0.08963063 -0.08966504 -0.08969568 -0.0897218 -0.08974297
 -0.0897632 -0.08978266 -0.08980387 -0.08982661 -0.08984881 -0.08987005 -0.08988689 -0.08989955 -0.0899068 -0.08990946
 -0.08990875 -0.08990533 -0.0899004 -0.08989525 -0.08989117 -0.08989067 -0.08989609 -0.08990856 -0.08993055 -0.08995726
 -0.08998861 -0.09001581 -0.09003625 -0.09004728 -0.09004711 -0.09004378 -0.09003767 -0.09003828 -0.09004607 -0.09006158
 -0.09008427 -0.0901078 -0.09013206 -0.09015313 -0.09017174 -0.0901885 -0.09020359 -0.09021806 -0.09023109 -0.09024175
 -0.09024961 -0.09025353 -0.09025431 -0.09025168 -0.09024824 -0.09024508 -0.09024464 -0.09024846 -0.09025595 -0.09026773
 -0.09028007 -0.09029227 -0.09030338 -0.09031286 -0.0903271 -0.09034642 -0.09037743 -0.09041948 -0.09046701 -0.09051789
 -0.09055632 -0.09058247 -0.09058688 -0.09057463 -0.09055209 -0.09052554 -0.09050874 -0.09050284 -0.09051591 -0.09054225
 -0.09058119 -0.09062388 -0.09066555 -0.09070028 -0.09072401 -0.09073793 -0.09074129 -0.09073763 -0.09072764 -0.09071171
 -0.09068967 -0.09066501 -0.09063788 -0.09062357 -0.09062294 -0.09065265 -0.09071022 -0.09079166 -0.09088934 -0.09097376
 -0.09103991 -0.09105621 -0.09103446 -0.0909767 -0.09090372 -0.09084358 -0.0907993 -0.09078538 -0.09078968 -0.09080864
 -0.09083533 -0.09086527 -0.0909 -0.09094023 -0.09098168 -0.09102512 -0.09105602 -0.09107272 -0.09106872 -0.09104348
 -0.09100901 -0.09096619 -0.09093005 -0.09090031 -0.09088225 -0.09087548 -0.09088159 -0.09090018 -0.0909325 -0.09097482
 -0.09102244 -0.09106941 -0.09110626 -0.09113137 -0.09113897 -0.09113391 -0.091117 -0.09109356 -0.09106541 -0.0910374
 -0.09101029 -0.09099155 -0.09098265 -0.09098758 -0.09100762 -0.0910351 -0.09106968 -0.09109799 -0.09111976 -0.09112873
 -0.09112602 -0.09111593 -0.09109907 -0.09108036 -0.09105884 -0.09103413 -0.0910063 -0.09097429 -0.09094123 -0.09090991
 -0.09088443 -0.09086952 -0.09086622 -0.09087781 -0.09089899 -0.09092943 -0.09096071 -0.09099019 -0.09101431 -0.09103131
 -0.09104551 -0.09105706 -0.09107093 -0.09108748 -0.09110414 -0.09112061 -0.09113081 -0.09113536 -0.09113517 -0.09113191
 -0.09113313 -0.09113881 -0.0911537 -0.09117441 -0.09119729 -0.09121929 -0.09123412 -0.09124362 -0.09124647 -0.09124745
 -0.09124991 -0.09125366 -0.09126007 -0.09126514 -0.09126714 -0.0912681 -0.09126705 -0.09127417 -0.09129072 -0.09132118
 -0.09136613 -0.09141502 -0.09146696 -0.09150573 -0.09153167 -0.09153944 -0.09153032 -0.09150691 -0.09146903 -0.09141618
 -0.09135115 -0.09127582 -0.09120049 -0.09113897 -0.09109774 -0.09109084 -0.0911082 -0.09115107 -0.09119809 -0.09124045
 -0.09126572 -0.0912658 -0.09125095 -0.09122034 -0.09119397 -0.09117444 -0.09117037 -0.09118272 -0.09120607 -0.09123983
 -0.09127285 -0.09130462 -0.09132589 -0.0913374 -0.09133668 -0.09132596 -0.0913099 -0.09129019 -0.0912731 -0.09125658
 -0.09124167 -0.0912228 -0.09119453 -0.09115584 -0.09110187 -0.09104283 -0.0909808 -0.09092793 -0.0908896 -0.09086502
 -0.09085616 -0.0908518 -0.09085102 -0.09084404 -0.09083 -0.09080678 -0.09077449 -0.09073621 -0.09069227 -0.09064696
 -0.0905997 -0.09055103 -0.09049883 -0.09043749 -0.09036583 -0.09027711 -0.09017656 -0.09006645 -0.08995669 -0.08985764
 -0.0897737 -0.08971271 -0.08966808 -0.08964066 -0.08961702 -0.08959422 -0.08955912 -0.08950824 -0.08943728 -0.08934457
 -0.08923709 -0.08911519 -0.08898523 -0.08884723 -0.08869874 -0.08853987 -0.08836963 -0.08819009 -0.08800976 -0.08783044
 -0.08766217 -0.08750387 -0.08735868 -0.08722371 -0.0870968 -0.08697455 -0.08685336 -0.08673015 -0.08660194 -0.08646721
 -0.08632517 -0.08617317 -0.08601137 -0.08583234 -0.08563434 -0.08541405 -0.08516918 -0.08491591 -0.08465489 -0.08441005
 -0.0841819 -0.08397391 -0.08378378 -0.0835936 -0.08340226 -0.08319394 -0.08297216 -0.08273808 -0.08249737 -0.08226306
 -0.08203512 -0.08182202 -0.08161303 -0.08140277 -0.08117705 -0.08092207 -0.08064029 -0.08032467 -0.07999958 -0.07967085
 -0.07935686 -0.07906494 -0.07878745 -0.07852548 -0.07825899 -0.07798638 -0.07769765 -0.07739277 -0.07707919 -0.07675794
 -0.07644167 -0.07612944 -0.07582446 -0.07552343 -0.07521822 -0.07490671 -0.07457963 -0.07423973 -0.07388609 -0.07352421
 -0.07315905 -0.0727945 -0.07243469 -0.07208132 -0.07173662 -0.07139933 -0.07107048 -0.0707439 -0.07041879 -0.0700887
 -0.06975237 -0.06940916 -0.0690589 -0.06870262 -0.06834025 -0.06796829 -0.06758704 -0.06719694 -0.06680029 -0.06640878
 -0.06602339 -0.06565489 -0.06529883 -0.0649519 -0.06460823 -0.06425682 -0.06389768 -0.06352521 -0.06314614 -0.06276285
 -0.06238244 -0.06200994 -0.06164477 -0.06128929 -0.06093432 -0.06057852 -0.06021367 -0.05983768 -0.05945359 -0.05906117
 -0.05866997 -0.05828031 -0.05789443 -0.05751163 -0.05712549 -0.05673613 -0.05634021 -0.05593964 -0.05553862 -0.05513866
 -0.05474551 -0.0543581 -0.05397809 -0.05360187 -0.05322664 -0.05284905 -0.05246513 -0.05207592 -0.05167968 -0.05128299
 -0.05088741 -0.0504987 -0.05011911 -0.04974725 -0.04938368 -0.04902265 -0.04866367 -0.0483036 -0.04794234 -0.04758178
 -0.04722203 -0.046865 -0.04651007 -0.04615492 -0.04579893 -0.04543824 -0.04507428 -0.04470775 -0.04434147 -0.04398049
 -0.04362496 -0.04327804 -0.04293546 -0.04259527 -0.04225382 -0.04190801 -0.04155912 -0.04120645 -0.04085385 -0.04050223
 -0.0401532 -0.03980729 -0.03946359 -0.03912218 -0.0387802 -0.03843748 -0.03808916 -0.03773516 -0.03737218 -0.03700141
 -0.03662672 -0.03625043 -0.03588259 -0.03552361 -0.03518054 -0.03484955 -0.0345287 -0.03421225 -0.033893 -0.03356867
 -0.03323446 -0.03289305 -0.03254401 -0.03219204 -0.03183858 -0.03148718 -0.03113922 -0.03079482 -0.0304546 -0.0301143
 -0.02977365 -0.02942826 -0.02907798 -0.02872584 -0.02837252 -0.02802742 -0.02769017 -0.02736471 -0.027048 -0.02673212
 -0.02641428 -0.02608273 -0.02574049 -0.02538482 -0.02502563 -0.02467174 -0.02433292 -0.02402112 -0.02373482 -0.02347959
 -0.02323936 -0.02301089 -0.02277684 -0.02253129 -0.02227133 -0.02199463 -0.02171053 -0.02141966 -0.0211292 -0.02083951
 -0.02055024 -0.0202613 -0.01997171 -0.01968172 -0.0193926 -0.01910429 -0.0188173 -0.01853136 -0.01824585 -0.01796115
 -0.01767759 -0.01739557 -0.01711603 -0.01683802 -0.01656125 -0.01628457 -0.01600682 -0.0157292 -0.01545141 -0.01517675
 -0.01490603 -0.01464104 -0.01438256 -0.01412816 -0.0138777 -0.01362845 -0.01338026 -0.01313583 -0.01289549 -0.01266498
 -0.01244351 -0.01223005 -0.01202243 -0.01181221 -0.01159856 -0.01137454 -0.01114251 -0.01090292 -0.01065885 -0.010414
 -0.01017031 -0.009930109 -0.009695559 -0.009468407 -0.009249858 -0.009042103 -0.008839344 -0.008641974 -0.008437124 -0.008222368
 -0.007991941 -0.007743867 -0.007492532 -0.007238621 -0.007005562 -0.006793273 -0.006606892 -0.006442946 -0.006282109 -0.006123163
 -0.005949107 -0.005766291 -0.005580885 -0.005400228 -0.005241593 -0.00510245 -0.004988671 -0.004889916 -0.004799781 -0.004710935
 -0.00461676 -0.004517087 -0.004410128 -0.004298268 -0.004181933 -0.004062288 -0.003939938 -0.003812849 -0.003681134 -0.00353929
 -0.003386983 -0.00322223 -0.003045746 -0.002867167 -0.002688429 -0.002527082 -0.002383206 -0.002267725 -0.00217666 -0.002106538
 -0.002051866 -0.002001486 -0.001952915 -0.001898336 -0.001838878 -0.001773446 -0.001701857 -0.001624524 -0.001538297 -0.001441337
 -0.001334666 -0.001216625 -0.001097334 -0.0009779863 -0.0008682772 -0.0007701677 -0.0006787776 -0.0005940462 -0.0004995858 -0.000395032
 -0.0002715267 -0.0001313707 1.552492E-05 0.0001654048 0.0002980729 0.0004129665 0.000496965 0.000555125 0.0005887735 0.0006065733
 0.0006189427 0.0006333755 0.000659867 0.0007011406 0.0007624683 0.0008403433 0.0009358907 0.001040019 0.001151135 0.001259581
 0.001362942 0.001459008 0.001546763 0.001632392 0.001716209 0.001803842 0.001895267 0.00198974 0.002087508 0.002188849
 0.002296212 0.002419362 0.002560436 0.002732282 0.002929613 0.003152729 0.003386071 0.003612221 0.003815192 0.003972983
 0.004085551 0.004142003 0.004163854 0.004154492 0.00414216 0.004135807 0.004149662 0.004189351 0.004249052 0.004329718
 0.004413732 0.004500104 0.004571817 0.00462852 0.00466374 0.004678872 0.004680421 0.004670036 0.004658457 0.004644829
 0.004632971 0.004619893 0.004601338 0.004576719 0.004542294 0.004502167 0.004458246 0.004415104 0.004377587 0.004342538
 0.004312646 0.004272436 0.004219483 0.004135454 0.004015406 0.003856305 0.003655618 0.003432149 0.003186745 0.00294392
 0.002704367 0.002479468 0.002268082 0.002067318 0.001875868 0.001686922 0.001499974 0.00131011 0.001117691 0.0009203154
 0.0007207228 0.000521151 0.0003246965 0.0001357783 -4.677453E-05 -0.0002211588 -0.0003935639 -0.0005659733 -0.0007435998 -0.0009288855
 -0.001121844 -0.001323701 -0.001528117 -0.001735209 -0.0019322 -0.002118289 -0.002281145 -0.002420838 -0.00254086 -0.002643898
 -0.002752489 -0.002868413 -0.003013113 -0.003182443 -0.003377039 -0.003589862 -0.003806894 -0.004026367 -0.00423902 -0.004448831
 -0.004657021 -0.004864645 -0.005074343 -0.005280517 -0.005481592 -0.005672485 -0.005850307 -0.006017795 -0.006174141 -0.006328051
 -0.006480392 -0.006638275 -0.006802379 -0.006973603 -0.007151824 -0.007333214 -0.007517505 -0.007700569 -0.007882928 -0.008064499
 -0.008246345 -0.008431573 -0.008620504 -0.00881579 -0.009015768 -0.009219509 -0.00942494 -0.009629515 -0.009832902 -0.01003334
 -0.01023398 -0.01043555 -0.01064148 -0.01085347 -0.01107102 -0.01129494 -0.01152 -0.01174562 -0.01196806 -0.01218681
 -0.01240501 -0.01262286 -0.01284566 -0.01307299 -0.01330388 -0.01353709 -0.01376601 -0.01399084 -0.01420809 -0.01442012
 -0.01463004 -0.0148395 -0.01505276 -0.01526844 -0.01548706 -0.01570598 -0.01592333 -0.01613846 -0.01634998 -0.01656063
 -0.01677065 -0.01698408 -0.01720246 -0.01742435 -0.01765076 -0.0178699 -0.01808113 -0.01827034 -0.01843732 -0.01858479
 -0.01871541 -0.01885395 -0.01900272 -0.01918802 -0.01940534 -0.01965754 -0.01993348 -0.02021258 -0.02048569 -0.0207293
 -0.02094516 -0.02112363 -0.02127818 -0.02141307 -0.02154532 -0.02168433 -0.02183823 -0.02201374 -0.02220287 -0.02240649
 -0.02260833 -0.0228061 -0.02299098 -0.02316168 -0.02332255 -0.02347382 -0.02362174 -0.02376562 -0.02390175 -0.02402857
 -0.02413557 -0.02422398 -0.02429036 -0.02434076 -0.02438484 -0.0244302 -0.02449286 -0.02457409 -0.0246838 -0.02481181
 -0.02495621 -0.02510128 -0.02523833 -0.02536071 -0.02546208 -0.02555205 -0.02563061 -0.02571229 -0.02579967 -0.02589655
 -0.02600389 -0.02611382 -0.02622595 -0.02633174 -0.02643119 -0.02652103 -0.0266015 -0.02667193 -0.02673255 -0.02678306
 -0.02682513 -0.02686138 -0.02689507 -0.02693224 -0.02697452 -0.02702692 -0.02708613 -0.02715217 -0.02721922 -0.02728353
 -0.02734515 -0.02740126 -0.02746277 -0.02753056 -0.0276193 -0.02773181 -0.02787188 -0.0280409 -0.02822411 -0.02842062
 -0.0286071 -0.02878306 -0.02893398 -0.02906208 -0.0291704 -0.02926289 -0.02935365 -0.02944528 -0.02955071 -0.02966908
 -0.02980537 -0.02995575 -0.03011849 -0.03028913 -0.03046421 -0.03064008 -0.03081434 -0.03098404 -0.03114758 -0.03130394
 -0.03145205 -0.03159507 -0.031733 -0.03187139 -0.03201093 -0.03215217 -0.03229508 -0.0324327 -0.03256478 -0.03268569
 -0.03279667 -0.03290122 -0.03300082 -0.03310305 -0.03320631 -0.03331143 -0.03341476 -0.03351045 -0.03359761 -0.03367249
 -0.03373708 -0.03379221 -0.03383776 -0.03387485 -0.03389935 -0.03391033 -0.03390374 -0.03387874 -0.03383172 -0.03376277
 -0.03366383 -0.03353463 -0.03336186 -0.03314483 -0.03287378 -0.03254948 -0.03217625 -0.03175784 -0.03131535 -0.03085514
 -0.03040841 -0.02998175 -0.02960511 -0.02928172 -0.02903039 -0.02884924 -0.02874466 -0.02870928 -0.02874183 -0.02882897
 -0.02896645 -0.02913423 -0.0293269 -0.02952035 -0.02970918 -0.02987166 -0.03000408 -0.03009085 -0.03013022 -0.03011252
 -0.03003716 -0.02989848 -0.02969628 -0.02942667 -0.02908908 -0.02867869 -0.02819395 -0.02762668 -0.02697657 -0.02623748
 -0.02541344 -0.0245065 -0.02352489 -0.02247804 -0.02137306 -0.02021895 -0.0190173 -0.01777199 -0.01647992 -0.01514104
 -0.01375158 -0.01231039 -0.01081614 -0.009267729 -0.007670049 -0.006022555 -0.004341803 -0.002628678 -0.0009139631 0.000799801
 0.002473149 0.004102799 0.005649918 0.007111627 0.008457518 0.009685745 0.01077629 0.01173054 0.0125387 0.01321203
 0.01375254 0.01419127 0.01454401 0.01486311 0.0151745 0.01553503 0.01597041 0.01651711 0.01719101 0.01799751
 0.01894165 0.02000759 0.02119521 0.02247966 0.0238596 0.0253041 0.02681083 0.02834234 0.02989534 0.03143148
 0.03294736 0.03441101 0.035819 0.03714825 0.03839459 0.03954297 0.04058526 0.04151085 0.04230055 0.0429424
 0.04340116 0.04365999 0.04367543 0.04342882 0.04288816 0.04203868 0.04088078 0.03940663 0.03766337 0.03565018
 0.03346471 0.03111213 0.02872318 0.02630482 0.02398096 0.02175341 0.0196988 0.01780921 0.0160995 0.01455424
 0.01314524 0.01185614 0.0106474 0.009507249 0.00840639 0.007339821 0.006293125 0.005268623 0.004262536 0.003283103
 0.002331923 0.001418383 0.0005453893 -0.0002821895 -0.001062718 -0.001796917 -0.002484826 -0.003126128 -0.003720916 -0.004261189
 -0.004745826 -0.005156744 -0.00549151 -0.005725097 -0.005856033 -0.00586247 -0.005750604 -0.005518842 -0.00518879 -0.004790942
 -0.004359004 -0.003944112 -0.003572799 -0.003288858 -0.003088872 -0.002990605 -0.002955769 -0.002979197 -0.003006435 -0.003024122
 -0.002986088 -0.002881744 -0.002687979 -0.002399917 -0.002019805 -0.001547035 -0.001009418 -0.0004107636 0.0001878075 0.000773279
 0.001235482 0.001547983 0.001552056 0.001220569 0.0003946598 -0.0009165021 -0.002791278 -0.005149819 -0.007949267 -0.01104899
 -0.01433021 -0.01764802 -0.02088684 -0.02395932 -0.02679834 -0.02939159 -0.03171773 -0.03381175 -0.03567411 -0.03735173
 -0.03884889 -0.04020781 -0.04143132 -0.04255555 -0.04358223 -0.04454144 -0.04543414 -0.04628176 -0.04708441 -0.04785379
 -0.04858997 -0.04929867 -0.04998088 -0.05064069 -0.05127962 -0.05190196 -0.05250625 -0.05309377 -0.0536592 -0.0541996
 -0.05471152 -0.05519115 -0.0556443 -0.05607041 -0.05648208 -0.05688151 -0.05727753 -0.05767201 -0.05806291 -0.05845039
 -0.05882589 -0.05918908 -0.05953348 -0.05985966 -0.06016837 -0.06046106 -0.0607441 -0.06101846 -0.06129047 -0.06155929
 -0.06182654 -0.06209033 -0.06234847 -0.06260084 -0.06284603 -0.06308606 -0.06332171 -0.06355492 -0.06378693 -0.06401783
 -0.06424816 -0.06447626 -0.06470217 -0.06492274 -0.0651378 -0.06534279 -0.06553733 -0.0657197 -0.06589007 -0.06605349
 -0.06621064 -0.06636947 -0.06652987 -0.06669597 -0.06686636 -0.06703942 -0.06721369 -0.06738577 -0.06755468 -0.06771797
 -0.06787466 -0.06802303 -0.06816261 -0.06829219 -0.06841318 -0.06852537 -0.06863219 -0.06873436 -0.06883533 -0.06893598
 -0.06903747 -0.06914016 -0.06924305 -0.06934609 -0.06944878 -0.06955118 -0.0696547 -0.06975937 -0.06986649 -0.06997559
 -0.07008529 -0.07019505 -0.07030215 -0.07040724 -0.07051005 -0.07061203 -0.07071526 -0.07081993 -0.07092746 -0.07103598
 -0.07114465 -0.07125216 -0.07135718 -0.07146138 -0.07156461 -0.07167028 -0.07177897 -0.07189341 -0.07201417 -0.07214151
 -0.07227557 -0.0724142 -0.0725572 -0.07270061 -0.07284426 -0.0729847 -0.07312232 -0.07325706 -0.07338969 -0.07352272
 -0.07365595 -0.07379071 -0.07392508 -0.074057 -0.0741847 -0.07430527 -0.07441919 -0.07452539 -0.07462668 -0.07472391
 -0.0748198 -0.07491552 -0.07501182 -0.07510925 -0.07520653 -0.07530357 -0.07539923 -0.07549335 -0.07558692 -0.07568002
 -0.07577556 -0.07587361 -0.07597617 -0.07608283 -0.0761928 -0.07630549 -0.07641876 -0.07653222 -0.07664416 -0.07675426
 -0.07686143 -0.07696541 -0.07706539 -0.07716195 -0.07725497 -0.07734606 -0.07743572 -0.07752582 -0.07761696 -0.07771066
 -0.07780746 -0.07790756 -0.07801129 -0.07811651 -0.07822316 -0.07832773 -0.07843008 -0.0785286 -0.07862353 -0.0787168
 -0.0788087 -0.07890198 -0.07899631 -0.07909213 -0.07918903 -0.07928608 -0.07938379 -0.07948244 -0.0795828 -0.07968625
 -0.07979158 -0.07989894 -0.08000533 -0.08010922 -0.08020926 -0.08030415 -0.08039586 -0.08048449 -0.08057234 -0.0806599
 -0.08074715 -0.08083416 -0.08092003 -0.08100474 -0.08108922 -0.08117365 -0.08126037 -0.08134936 -0.08144201 -0.08153778
 -0.08163593 -0.08173558 -0.0818345 -0.08193225 -0.08202685 -0.08211931 -0.08220962 -0.0822995 -0.08239056 -0.08248263
 -0.08257667 -0.08266971 -0.0827609 -0.0828483 -0.08293068 -0.08301107 -0.08308941 -0.0831712 -0.083257 -0.08334866
 -0.08344617 -0.08354528 -0.08364548 -0.08374035 -0.08382985 -0.08391025 -0.08398257 -0.0840478 -0.0841076 -0.08416592
 -0.08422409 -0.08428597 -0.08435173 -0.08442319 -0.08449934 -0.08458021 -0.08466422 -0.08475085 -0.08483793 -0.08492485
 -0.08500908 -0.08508982 -0.08516598 -0.08523708 -0.0853044 -0.08536792 -0.08543033 -0.08549178 -0.08555444 -0.08561835
 -0.08568455 -0.08575288 -0.08582322 -0.08589508 -0.08596674 -0.0860379 -0.08610669 -0.08617387 -0.08623952 -0.08630519
 -0.08637282 -0.08644261 -0.08651586 -0.08659044 -0.08666578 -0.08673961 -0.08681072 -0.08687912 -0.08694442 -0.08700798
 -0.08707001 -0.08713137 -0.0871922 -0.08725226 -0.08731154 -0.0873692 -0.08742523 -0.08747953 -0.08753226 -0.08758433
 -0.0876359 -0.0876882 -0.08774086 -0.08779367 -0.08784626 -0.08789764 -0.08794855 -0.08799911 -0.08805083 -0.0881051
 -0.08816209 -0.08822273 -0.0882851 -0.08834895 -0.08841192 -0.08847339 -0.088532 -0.08858743 -0.08863914 -0.088687
 -0.08873197 -0.08877412 -0.08881538 -0.08885582 -0.08889703 -0.08893894 -0.08898171 -0.08902539 -0.08907011 -0.08911628
 -0.08916492 -0.08921634 -0.08927152 -0.08933046 -0.08939344 -0.08946066 -0.08953246 -0.08960871 -0.08968991 -0.08977406
 -0.08986101 -0.08994698 -0.09003095 -0.09011071 -0.09018548 -0.09025644 -0.09032352 -0.09038919 -0.09045359 -0.09051736
 -0.09058048 -0.09064205 -0.09070218 -0.09076092 -0.09081873 -0.09087754 -0.0909373 -0.0909992 -0.0910623 -0.09112566
 -0.09118821 -0.0912481 -0.09130557 -0.09135987 -0.09141259 -0.09146433 -0.09151655 -0.09156992 -0.09162516 -0.09168261
 -0.09174236 -0.09180463 -0.09186815 -0.09193291 -0.09199651 -0.09205882 -0.09211794 -0.09217389 -0.09222689 -0.09227723
 -0.09232673 -0.09237563 -0.09242569 -0.092477 -0.09253069 -0.09258672 -0.09264567 -0.09270705 -0.09277067 -0.0928354
 -0.09290043 -0.09296441 -0.09302635 -0.09308553 -0.09314135 -0.09319405 -0.09324338 -0.09329069 -0.09333611 -0.09338115
 -0.093426 -0.09347144 -0.09351753 -0.09356392 -0.09361065 -0.09365784 -0.09370567 -0.09375552 -0.09380747 -0.09386277
 -0.09392093 -0.09398162 -0.09404369 -0.09410532 -0.09416503 -0.09422025 -0.09427051 -0.0943141 -0.09435252 -0.09438564
 -0.09441666 -0.09444674 -0.09447824 -0.0945122 -0.09454864 -0.09458787 -0.09462848 -0.09467034 -0.09471269 -0.09475547
 -0.09479795 -0.09484003 -0.09488045 -0.09491921 -0.0949557 -0.09499038 -0.09502475 -0.09505937 -0.09509672 -0.09513635
 -0.09517892 -0.09522279 -0.09526605 -0.09530798 -0.09534676 -0.09538396 -0.09541976 -0.0954564 -0.09549525 -0.0955357
 -0.09557828 -0.09561973 -0.09565949 -0.09569566 -0.09572773 -0.09575756 -0.09578519 -0.09581392 -0.09584382 -0.09587653
 -0.09591189 -0.09594958 -0.09598939 -0.09603034 -0.09607238 -0.0961147 -0.09615792 -0.0962024 -0.09624983 -0.09630211
 -0.09636154 -0.09643078 -0.09651097 -0.09660391 -0.09670861 -0.09682526 -0.0969522 -0.0970891 -0.09723439 -0.097388
 -0.09754701 -0.09771138 -0.09787555 -0.09803917 -0.09819681 -0.09834838 -0.09849213 -0.09862824 -0.09875768 -0.09887945
 -0.09899069 -0.09908874 -0.09916533 -0.09921797 -0.09923831 -0.09922512 -0.09917305 -0.09908297 -0.09895021 -0.09878797
 -0.09859699 -0.09840897 -0.09823567 -0.0981049 -0.09802959 -0.09801044 -0.09805229 -0.09813309 -0.09825209 -0.09837894
 -0.09851164 -0.09862541 -0.09871969 -0.09878807 -0.098832 -0.09885973 -0.09887218 -0.09887723 -0.09887534 -0.09887131
 -0.09886629 -0.09886537 -0.09886719 -0.098873 -0.09887858 -0.09888018 -0.09887622 -0.09886359 -0.09884587 -0.09882382
 -0.09880061 -0.09877794 -0.09875448 -0.09873042 -0.09870309 -0.09867183 -0.09863877 -0.09860386 -0.09857328 -0.09854727
 -0.09852976 -0.09852028 -0.09851696 -0.09851894 -0.09852134 -0.09852413 -0.09852451 -0.09852334 -0.09852082 -0.09851807
 -0.0985165 -0.09851746 -0.09852267 -0.09853304 -0.09855016 -0.09857248 -0.09860038 -0.09862961 -0.09865904 -0.09868544
 -0.09870761 -0.09872658 -0.09874219 -0.09875719 -0.09877178 -0.09878656 -0.09880152 -0.098816 -0.09883024 -0.09884565
 -0.09886269 -0.09888431 -0.09891026 -0.09894167 -0.09897714 -0.09901461 -0.09905282 -0.09908906 -0.09912308 -0.09915362
 -0.09918111 -0.0992054 -0.09922715 -0.09924646 -0.09926445 -0.0992813 -0.09929876 -0.09931735 -0.09933734 -0.09935901
 -0.09938041 -0.09940141 -0.09942069 -0.09943826 -0.0994562 -0.09947475 -0.09949723 -0.09952322 -0.09955294 -0.09958491
 -0.09961483 -0.09964162 -0.09966066 -0.09967282 -0.09967677 -0.0996753 -0.09967058 -0.099665 -0.099661 -0.09965899
 -0.09965989 -0.099663 -0.09966819 -0.09967529 -0.09968435 -0.09969478 -0.0997067 -0.09971797 -0.09972844 -0.09973615
 -0.09974108 -0.09974387 -0.0997448 -0.09974673 -0.09974978 -0.09975635 -0.09976599 -0.09977882 -0.09979392 -0.09980948
 -0.09982477 -0.09983771 -0.09984885 -0.09985764 -0.09986605 -0.09987541 -0.09988669 -0.09990124 -0.0999171 -0.09993423
 -0.09994958 -0.09996221 -0.09997185 -0.09997802 -0.09998407 -0.09999022 -0.09999947 -0.1000119 -0.1000266 -0.1000432
 -0.1000578 -0.1000702 -0.1000769 -0.1000785 -0.1000745 -0.1000664 -0.1000568 -0.100047 -0.1000403 -0.100037
 -0.1000392 -0.1000452 -0.1000549 -0.100066 -0.1000775 -0.1000877 -0.1000958 -0.1001014 -0.1001043 -0.100105
 -0.1001034 -0.100101 -0.1000979 -0.1000961 -0.1000956 -0.1000971 -0.1001005 -0.1001039 -0.1001072 -0.100108
 -0.1001063 -0.100101 -0.1000929 -0.100083 -0.1000724 -0.1000631 -0.1000561 -0.1000532 -0.1000542 -0.1000597
 -0.1000682 -0.1000794 -0.1000909 -0.1001023 -0.1001116 -0.1001183 -0.1001216 -0.1001212 -0.1001186 -0.1001138
 -0.10011 -0.1001074 -0.100108 -0.1001116 -0.1001176 -0.1001255 -0.1001334 -0.1001417 -0.1001499 -0.1001585
 -0.1001687 -0.1001798 -0.1001922 -0.100204 -0.1002137 -0.1002196 -0.1002196 -0.1002144 -0.1002033 -0.10019
 -0.1001753 -0.1001635 -0.1001561 -0.100154 -0.1001578 -0.100164 -0.1001725 -0.100179 -0.1001831 -0.1001831
 -0.100179 -0.100172 -0.1001625 -0.1001529 -0.1001435 -0.1001364 -0.1001315 -0.1001296 -0.1001304 -0.1001337
 -0.1001391 -0.1001462 -0.1001539 -0.1001616 -0.1001683 -0.1001731 -0.1001768 -0.100179 -0.1001821 -0.1001868
 -0.1001927 -0.1002006 -0.1002063 -0.1002095 -0.1002074 -0.1001998 -0.1001897 -0.1001776 -0.1001699 -0.1001665
 -0.1001705 -0.1001805 -0.100194 -0.1002096 -0.1002228 -0.1002337 -0.1002404 -0.1002447 -0.1002478 -0.1002511
 -0.1002563 -0.1002625 -0.1002702 -0.1002772 -0.1002826 -0.1002857 -0.100286 -0.1002844 -0.1002811 -0.1002774
 -0.1002735 -0.1002698 -0.1002664 -0.1002632 -0.1002602 -0.1002571 -0.100254 -0.1002508 -0.1002478 -0.1002453
 -0.1002432 -0.100242 -0.1002413 -0.1002411 -0.1002408 -0.1002399 -0.1002387 -0.1002372 -0.100236 -0.1002356
 -0.100236 -0.1002372 -0.1002384 -0.1002392 -0.100239 -0.1002376 -0.1002351 -0.1002315 -0.1002274 -0.1002228
 -0.1002186 -0.1002145 -0.1002107 -0.1002071 -0.100203 -0.1001985 -0.1001934 -0.1001883 -0.1001841 -0.1001814
 -0.1001815 -0.1001836 -0.1001878 -0.1001923 -0.1001958 -0.1001974 -0.100196 -0.100193 -0.1001884 -0.1001849
 -0.1001833 -0.1001841 -0.1001879 -0.1001924 -0.1001976 -0.1002003 -0.1002004 -0.1001967 -0.1001895 -0.1001801
 -0.1001686 -0.1001569 -0.1001448 -0.1001329 -0.1001211 -0.1001095 -0.1000981 -0.1000869 -0.1000759 -0.1000652
 -0.1000547 -0.1000442 -0.1000336 -0.100023 -0.1000117 -0.09999961 -0.09998624 -0.09997133 -0.09995456 -0.09993576
 -0.09991556 -0.09989402 -0.09987168 -0.0998486 -0.09982448 -0.09979926 -0.09977172 -0.09974191 -0.09970926 -0.09967428
 -0.09963848 -0.09960233 -0.09956806 -0.09953517 -0.09950396 -0.09947344 -0.09944224 -0.09941068 -0.09937817 -0.09934648
 -0.09931669 -0.09928921 -0.09926489 -0.09924183 -0.09921971 -0.09919683 -0.09917261 -0.09914777 -0.09912232 -0.0990974
 -0.09907311 -0.09904823 -0.09902264 -0.09899406 -0.09896267 -0.09892845 -0.09889203 -0.09885597 -0.09882068 -0.09878863
 -0.09875947 -0.0987337 -0.09871083 -0.09869038 -0.09867214 -0.09865614 -0.09864102 -0.09862649 -0.09860976 -0.09858949
 -0.09856465 -0.09853402 -0.09850106 -0.09846594 -0.09843362 -0.09840488 -0.09838081 -0.09836162 -0.09834445 -0.0983292
 -0.09831347 -0.09829743 -0.0982812 -0.09826494 -0.09824952 -0.09823476 -0.09822067 -0.09820674 -0.09819195 -0.09817605
 -0.09815814 -0.09813863 -0.0981176 -0.0980953 -0.09807207 -0.09804734 -0.0980209 -0.09799255 -0.09796186 -0.09793045
 -0.09789842 -0.09786804 -0.09783971 -0.09781368 -0.09779003 -0.09776699 -0.09774446 -0.09772041 -0.09769484 -0.09766676
 -0.09763648 -0.09760482 -0.09757203 -0.09753941 -0.09750666 -0.0974738 -0.09744059 -0.09740628 -0.09737205 -0.09733855
 -0.09730721 -0.0972799 -0.09725435 -0.09723084 -0.0972041 -0.09717235 -0.09713356 -0.09708628 -0.09703524 -0.09698058
 -0.09692901 -0.09688105 -0.09683946 -0.09680415 -0.09677292 -0.09674538 -0.0967175 -0.09668913 -0.09665736 -0.09662269
 -0.09658511 -0.09654496 -0.09650305 -0.09645922 -0.09641355 -0.09636598 -0.0963163 -0.09626509 -0.09621259 -0.09615949
 -0.09610621 -0.09605294 -0.09599973 -0.09594711 -0.09589512 -0.09584478 -0.09579626 -0.09574955 -0.09570469 -0.09565999
 -0.09561538 -0.09556915 -0.09552141 -0.09547217 -0.09542163 -0.09537076 -0.09531918 -0.0952666 -0.09521197 -0.09515283
 -0.0950892 -0.09501933 -0.09494573 -0.09486999 -0.09479461 -0.0947225 -0.09465196 -0.09458347 -0.09451301 -0.09443913
 -0.09436093 -0.0942774 -0.09419253 -0.09410655 -0.09402372 -0.09394448 -0.09386882 -0.09379658 -0.09372264 -0.09364666
 -0.09356313 -0.09347273 -0.09337522 -0.09327252 -0.09317035 -0.09306963 -0.09297571 -0.09288653 -0.09280225 -0.09271871
 -0.09263209 -0.09253928 -0.09243643 -0.09232462 -0.09220213 -0.09207582 -0.09194693 -0.09182315 -0.09170708 -0.0915981
 -0.09149733 -0.09139446 -0.09128882 -0.09117208 -0.09104412 -0.09090778 -0.09076364 -0.09061871 -0.09047204 -0.09032313
 -0.09016985 -0.09000494 -0.08982883 -0.08963791 -0.08943594 -0.08922689 -0.08901317 -0.08879988 -0.08858389 -0.08836517
 -0.08813901 -0.08790214 -0.08765598 -0.08739934 -0.08713883 -0.08687626 -0.08661252 -0.08634925 -0.0860742 -0.08578699
 -0.08546867 -0.08511837 -0.0847223 -0.0842809 -0.08379272 -0.08325863 -0.08268365 -0.08206489 -0.08139853 -0.08067579
 -0.07987772 -0.07899524 -0.07800499 -0.07690902 -0.07569549 -0.07438609 -0.07298646 -0.07153308 -0.07004147 -0.06854711
 -0.06706355 -0.0656157 -0.06420977 -0.06286695 -0.06158901 -0.06040596 -0.05931995 -0.05836147 -0.05753176 -0.05683871
 -0.0562807 -0.05584454 -0.05552895 -0.05532115 -0.05522059 -0.05522109 -0.05531776 -0.05550062 -0.05575737 -0.05606899
 -0.05641748 -0.05677994 -0.05713791 -0.05747207 -0.05777096 -0.0580246 -0.05822712 -0.05837511 -0.05846369 -0.05849085
 -0.0584564 -0.05835967 -0.0582053 -0.05799408 -0.05772128 -0.05738644 -0.0569697 -0.05647153 -0.05588625 -0.05522112
 -0.05451109 -0.05376283 -0.0530192 -0.05227513 -0.05154101 -0.05080831 -0.0500667 -0.04931565 -0.04855083 -0.0477731
 -0.04698614 -0.04617559 -0.0453402 -0.04444995 -0.04349437 -0.04245405 -0.04131833 -0.04010403 -0.03880889 -0.03747615
 -0.03610888 -0.03474646 -0.03339088 -0.03206149 -0.03075667 -0.02946787 -0.02818807 -0.02687592 -0.02552474 -0.02408301
 -0.02256629 -0.02097428 -0.01934773 -0.01775384 -0.0162076 -0.01476133 -0.01338197 -0.01206334 -0.0107699 -0.009476914
 -0.008183182 -0.006880092 -0.005586043 -0.004304491 -0.003044895 -0.001809001 -0.0006029499 0.0005727719 0.001709734 0.00280756
 0.003871931 0.004903238 0.005910998 0.006890566 0.007821606 0.008697567 0.00948157 0.01017933 0.01078255 0.01130673
 0.01177492 0.01219157 0.01257445 0.01291062 0.01319352 0.01342062 0.01358396 0.0137029 0.01378275 0.0138372
 0.01387328 0.01388154 0.01386266 0.01379816 0.01368616 0.0135178 0.01329254 0.01301038 0.01267165 0.01227999
 0.01183621 0.01134654 0.01081195 0.01023881 0.009628286 0.008984846 0.00831261 0.007617911 0.00690997 0.006199787
 0.005498722 0.004818588 0.004167153 0.003551013 0.002975634 0.002442953 0.001962125 0.001535117 0.001171373 0.0008736731
 0.0006395701 0.0004698081 0.0003507213 0.0002815846 0.0002526346 0.0002641324 0.0003173083 0.0004131189 0.0005582376 0.0007523558
 0.0009986875 0.001294611 0.001636159 0.002019558 0.002436801 0.002885774 0.003360515 0.003861833 0.004388125 0.00494175
 0.005523372 0.006135494 0.006779014 0.007456209 0.008167548 0.008915739 0.009700975 0.01052753 0.01139592 0.01230883
 0.01326649 0.01425852 0.01528325 0.01631539 0.01735278 0.01837072 0.01936627 0.02031919 0.0212197 0.0220355
 0.0227558 0.02334359 0.02380625 0.02413367 0.02434827 0.02446514 0.02449941 0.02446511 0.02436359 0.02419915
 0.02396706 0.02366804 0.02329176 0.02283734 0.02229114 0.02165052 0.02092124 0.02010325 0.01922913 0.01829997
 0.01733769 0.01634001 0.0153019 0.01422269 0.01309563 0.0119253 0.01071885 0.009482512 0.008232002 0.006965783
 0.005692881 0.004395882 0.003065497 0.001681665 0.0002251144 -0.001295149 -0.00288469 -0.004512451 -0.006170502 -0.00784253
 -0.009525206 -0.0112065 -0.01288683 -0.01453265 -0.01614209 -0.0176782 -0.01914065 -0.02052123 -0.02182248 -0.0230582
 -0.02422861 -0.02534201 -0.0263965 -0.02738899 -0.02832371 -0.02920202 -0.03004077 -0.03085783 -0.03167505 -0.03251788
 -0.03339538 -0.03432333 -0.03529036 -0.03629797 -0.03732519 -0.03836878 -0.03940407 -0.04042949 -0.04140535 -0.04232791
 -0.04316014 -0.04389897 -0.04454959 -0.04511371 -0.0456241 -0.04608119 -0.04650392 -0.0468897 -0.04723799 -0.04754714
 -0.0478133 -0.04803439 -0.04820745 -0.04832435 -0.04837578 -0.04834983 -0.04823326 -0.04801854 -0.04769744 -0.04726749
 -0.04672688 -0.04607077 -0.04529833 -0.0444024 -0.04338198 -0.04223061 -0.04094898 -0.0395163 -0.0379319 -0.0361485
 -0.03416573 -0.03196706 -0.02957118 -0.02709558 -0.02457854 -0.02224284 -0.0201053 -0.0183331 -0.01690112 -0.01585066
 -0.01512478 -0.01467876 -0.01443576 -0.01431915 -0.01426055 -0.01419329 -0.01409734 -0.01393718 -0.01376269 -0.01357423
 -0.01345002 -0.01340867 -0.01347337 -0.01365345 -0.01390657 -0.01423114 -0.01456975 -0.01492019 -0.01524554 -0.01554684
 -0.01581457 -0.01605087 -0.01625985 -0.01644186 -0.01659983 -0.01673319 -0.0168417 -0.01692612 -0.01698694 -0.01702592
 -0.01704655 -0.01704411 -0.01702092 -0.0169575 -0.01684994 -0.01666847 -0.016404 -0.01603637 -0.01555818 -0.01497345
 -0.01428087 -0.01349576 -0.01261905 -0.01166118 -0.01062326 -0.009524778 -0.008371199 -0.007213129 -0.006058115 -0.00496766
 -0.003941718 -0.003012836 -0.002174742 -0.001428716 -0.000774154 -0.0002070461 0.000261141 0.0006244011 0.0008638155 0.0009667168
 0.0009175615 0.0007046728 0.0003280994 -0.0002178973 -0.0009131904 -0.00175751 -0.002717978 -0.00379221 -0.004941713 -0.00616429
 -0.007413085 -0.008685324 -0.009929124 -0.01114228 -0.01228338 -0.01335262 -0.01432815 -0.01521248 -0.01599988 -0.01669629
 -0.01730744 -0.01784613 -0.01832754 -0.01877413 -0.01920811 -0.01965756 -0.02014625 -0.02069313 -0.02131688 -0.02200684
 -0.0227699 -0.02356254 -0.02438 -0.0251723 -0.02593159 -0.02663535 -0.02728052 -0.02787586 -0.02842182 -0.02893093
 -0.02940161 -0.029826 -0.03020053 -0.03050287 -0.03073438 -0.03088385 -0.0309628 -0.03098504 -0.03097012 -0.03094799
 -0.03094009 -0.03097638 -0.03107287 -0.03124972 -0.03151078 -0.03186507 -0.03230184 -0.03282288 -0.03340312 -0.03404116
 -0.03469807 -0.03537079 -0.03601221 -0.03661873 -0.03715175 -0.03760986 -0.03798082 -0.03826711 -0.0384853 -0.03863959
 -0.03875835 -0.03884385 -0.03891788 -0.03897966 -0.0390385 -0.03909126 -0.03913794 -0.03917417 -0.03919582 -0.03919932
 -0.03918059 -0.03913942 -0.03907434 -0.03898738 -0.03887907 -0.03875011 -0.03860083 -0.03843074 -0.03823941 -0.03803012
 -0.03780279 -0.03756632 -0.0373212 -0.03707715 -0.03683436 -0.0365981 -0.03636843 -0.036148 -0.03593785 -0.03574205
 -0.03556265 -0.03540578 -0.03527297 -0.03516952 -0.03509464 -0.03505052 -0.03503272 -0.03504019 -0.03506465 -0.03510304
 -0.03514532 -0.03518808 -0.035223 -0.03524765 -0.03525772 -0.03525204 -0.03523085 -0.03519395 -0.03514418 -0.0350817
 -0.03500972 -0.0349285 -0.03484134 -0.03474904 -0.03465717 -0.03456669 -0.03448405 -0.03440867 -0.03434349 -0.03428478
 -0.03422935 -0.03417115 -0.03410334 -0.0340203 -0.03391615 -0.03378738 -0.033631 -0.03344503 -0.03322866 -0.03297875
 -0.03269497 -0.03237218 -0.03200958 -0.03160401 -0.03115469 -0.03066767 -0.03014343 -0.02960082 -0.02904203 -0.02849571
 -0.02796499 -0.02748083 -0.02704582 -0.02668495 -0.02639821 -0.02619877 -0.02608276 -0.02605167 -0.0260971 -0.02621268
 -0.02638623 -0.02660841 -0.02686673 -0.02715296 -0.02745893 -0.02778011 -0.02811302 -0.02845646 -0.02880707 -0.02916459
 -0.02952368 -0.02988393 -0.03024084 -0.03059417 -0.03094061 -0.03127966 -0.03160497 -0.03191552 -0.03220201 -0.03246455
 -0.03269769 -0.03290421 -0.0330872 -0.03325015 -0.0334002 -0.0335383 -0.03366872 -0.03378944 -0.03390031 -0.0339995
 -0.03408556 -0.03415921 -0.03422029 -0.03427008 -0.03430922 -0.03433629 -0.03435121 -0.03435233 -0.03433922 -0.0343154
 -0.03428106 -0.03424421 -0.03420484 -0.03416577 -0.03412549 -0.03407693 -0.03401864 -0.03394125 -0.03384597 -0.0337308
 -0.03359782 -0.03345049 -0.03328736 -0.03310948 -0.0329111 -0.03268879 -0.03243636 -0.03214953 -0.03182541 -0.03146182
 -0.03105872 -0.03061569 -0.03013347 -0.02961224 -0.02905167 -0.02845174 -0.02781241 -0.02713367 -0.0264185 -0.02566753
 -0.02488894 -0.02408418 -0.02326543 -0.02243415 -0.02160196 -0.02076915 -0.01994255 -0.01912073 -0.01830476 -0.0174922
 -0.01668076 -0.01586852 -0.01505315 -0.01423394 -0.01340966 -0.01258105 -0.01174761 -0.01091222 -0.01007478 -0.009241277
 -0.008412355 -0.007594583 -0.006788836 -0.005997069 -0.005219452 -0.004450699 -0.00369027 -0.002929373 -0.002168005 -0.001401195
 -0.0006303936 0.0001419336 0.0009142168 0.001680591 0.002442531 0.003198622 0.003954046 0.004713838 0.005483012 0.00626749
 0.00706895 0.007889492 0.008730729 0.009592404 0.01048122 0.01139806 0.01235196 0.01334527 0.01437845 0.01545286
 0.01655322 0.01767882 0.01880331 0.0199252 0.02101877 0.02208306 0.02309979 0.02406772 0.02497298 0.02581392
 0.0265787 0.02726873 0.027879 0.02841716 0.02888915 0.02930434 0.0296732 0.02999822 0.03028508 0.03052808
 0.0307266 0.03087444 0.0309692 0.03101071 0.03099794 0.03093641 0.03082624 0.03067575 0.03048537 0.03026533
 0.03001644 0.02975218 0.02947377 0.02919637 0.02892009 0.02865471 0.02839682 0.02814407 0.02789032 0.0276243
 0.0273411 0.02702996 0.02669 0.02631661 0.02591159 0.02547486 0.02500782 0.02451145 0.02398469 0.02342758
 0.02283824 0.02221555 0.02156385 0.02088254 0.02018672 0.01947716 0.01877365 0.0180767 0.01739661 0.01673185
 0.01607727 0.01543092 0.01478149 0.01413033 0.01347365 0.01281733 0.0121692 0.01153603 0.01092966 0.0103528
 0.009812213 0.009306809 0.008836932 0.008404168 0.008007516 0.00765555 0.007349621 0.00710009 0.006909884 0.006779487
 0.006710601 0.006686945 0.006707907 0.006744831 0.006796116 0.00683292 0.006854489 0.006841704 0.006794736 0.006703915
 0.006569903 0.006388329 0.006162677 0.005894931 0.005594217 0.005271063 0.004937165 0.004606448 0.004285021 0.003981696
 0.003693603 0.003422584 0.003160856 0.002906814 0.002653876 0.00240047 0.002143556 0.001882426 0.001617888 0.001349972
 0.001079127 0.0008049851 0.0005206834 0.0002245466 -9.876213E-05 -0.0004509741 -0.0008477955 -0.001289016 -0.0017826 -0.002326279
 -0.002920112 -0.003560557 -0.004243989 -0.004965212 -0.005719482 -0.00649993 -0.007301649 -0.008118459 -0.008946538 -0.009783138
 -0.01062658 -0.01147671 -0.01233314 -0.01319681 -0.01406772 -0.01494741 -0.01583598 -0.01673461 -0.01764312 -0.01855824
 -0.01947855 -0.0203925 -0.02129702 -0.02217354 -0.02301871 -0.023814 -0.02455745 -0.0252365 -0.02585154 -0.02639792
 -0.02687699 -0.02728859 -0.02763336 -0.02791158 -0.02812392 -0.02827006 -0.02835318 -0.02837322 -0.02833704 -0.02824503
 -0.0281076 -0.02792506 -0.02771415 -0.02747562 -0.02723423 -0.02699152 -0.02677689 -0.02659204 -0.02646374 -0.0263929
 -0.02639863 -0.02647931 -0.02664243 -0.02688086 -0.02718758 -0.02754844 -0.02794411 -0.02835749 -0.02876654 -0.02915954
 -0.02952139 -0.02985215 -0.03014661 -0.03041447 -0.03065686 -0.03088509 -0.03110192 -0.03131238 -0.03151798 -0.03171582
 -0.03190599 -0.03208097 -0.03224037 -0.03237734 -0.03249216 -0.03258379 -0.0326537 -0.03270765 -0.03274739 -0.03278103
 -0.0328091 -0.03283656 -0.03286295 -0.03288963 -0.03291611 -0.03294262 -0.03296803 -0.03299213 -0.03301242 -0.03302797
 -0.03303615 -0.03303602 -0.03302579 -0.03300529 -0.03297123 -0.03292349 -0.03285626 -0.03276908 -0.03265854 -0.03252467
 -0.03237151 -0.03219989 -0.03201913 -0.03182939 -0.03163686 -0.03144001 -0.03123755 -0.03102809 -0.03080734 -0.03057697
 -0.0303365 -0.03009061 -0.02984326 -0.02959922 -0.02936288 -0.02913684 -0.02892353 -0.02872315 -0.02853663 -0.02836173
 -0.02819843 -0.02804303 -0.02789498 -0.02775216 -0.02761423 -0.02748311 -0.0273589 -0.02724389 -0.02713769 -0.02703798
 -0.02694353 -0.02684725 -0.02674804 -0.02663884 -0.02651941 -0.02638564 -0.02623831 -0.02607644 -0.02590192 -0.02571564
 -0.02552105 -0.02532051 -0.02511728 -0.02491402 -0.02471028 -0.02450741 -0.02429994 -0.02408735 -0.02386282 -0.02362506
 -0.0233722 -0.02310363 -0.02282551 -0.02253829 -0.02225431 -0.02197437 -0.02171111 -0.0214644 -0.02124073 -0.02103829
 -0.02085512 -0.02068907 -0.02053435 -0.02039077 -0.02025499 -0.02012926 -0.02001419 -0.0199131 -0.01982806 -0.01976266
 -0.01971902 -0.01969978 -0.01970717 -0.01973816 -0.01979405 -0.01986262 -0.0199432 -0.02001908 -0.02008877 -0.02014151
 -0.02017684 -0.02019413 -0.02019357 -0.02017707 -0.02014398 -0.02009162 -0.02001957 -0.01992403 -0.01980746 -0.01967269
 -0.01952363 -0.01936787 -0.01920636 -0.01904371 -0.01887716 -0.01870623 -0.01852822 -0.01834131 -0.01814523 -0.01793904
 -0.01772511 -0.01750291 -0.01727958 -0.01705515 -0.01684282 -0.01664357 -0.01647005 -0.01632281 -0.01620279 -0.01610848
 -0.01602485 -0.0159489 -0.01585647 -0.01574671 -0.01560237 -0.0154284 -0.01522564 -0.01500309 -0.01477516 -0.01454713
 -0.01433189 -0.01412545 -0.01393029 -0.01373714 -0.01354158 -0.01333869 -0.01312454 -0.01290304 -0.01267352 -0.01244503
 -0.0122187 -0.01200193 -0.0117957 -0.01160146 -0.01141927 -0.01124429 -0.01107595 -0.01090619 -0.01073476 -0.01055549
 -0.01036953 -0.01017701 -0.009979933 -0.009783065 -0.00958705 -0.00939526 -0.009206834 -0.009022003 -0.008840167 -0.008661264
 -0.008483815 -0.008308313 -0.008128759 -0.007943677 -0.007746418 -0.007534254 -0.007308502 -0.007068308 -0.006821354 -0.006568422
 -0.006312756 -0.006054534 -0.005788745 -0.005514883 -0.005225345 -0.004919896 -0.004592955 -0.004245305 -0.00387603 -0.003487432
 -0.003084345 -0.002668481 -0.002245661 -0.001813851 -0.001373199 -0.0009210376 -0.0004530202 2.4532E-05 0.0005134757 0.0009931625
 0.001460335 0.00188363 0.00225628 0.002549786 0.002757071 0.002873731 0.002896392 0.002858136 0.002760629 0.002660827
 0.002561269 0.002509887 0.002505077 0.002563855 0.002679485 0.002839013 0.003033259 0.00323502 0.003436881 0.00361447
 0.003765347 0.003876304 0.003951317 0.003987462 0.003995148 0.003977463 0.003948488 0.00391363 0.003883633 0.0038627
 0.003853348 0.003856979 0.003870814 0.003894716 0.003926548 0.003966182 0.004011899 0.004063596 0.004119236 0.004179126
 0.004243922 0.00431439 0.004394067 0.004482579 0.004581346 0.004688308 0.004801142 0.004916901 0.005031168 0.005142393
 0.005246264 0.005347864 0.005446345 0.00555547 0.005680723 0.005829636 0.006010097 0.006197435 0.006390704 0.006554077
 0.006681651 0.006780006 0.006849041 0.00691787 0.006986991 0.007068681 0.007160729 0.007255288 0.007350093 0.007432526
 0.007501978 0.007550933 0.007579086 0.007582084 0.007561371 0.007515514 0.007450438 0.007368937 0.00728063 0.007191168
 0.007108468 0.007037623 0.006979287 0.006935376 0.006900471 0.006873571 0.006853042 0.00683795 0.006836599 0.006849458
 0.006882799 0.006935749 0.006995342 0.007058593 0.007098514 0.007114707 0.007089558 0.007028323 0.006934886 0.006815368
 0.006683789 0.006539292 0.006386768 0.00622289 0.006041774 0.005856616 0.005668578 0.005505832 0.005381187 0.005306679
 0.005291603 0.005320359 0.005392302 0.005489156 0.005608175 0.005746758 0.005904565 0.006082286 0.006279534 0.006488621
 0.006709837 0.006940438 0.007183232 0.007448935 0.007737773 0.008058538 0.008403325 0.008763983 0.009128663 0.009478437
 0.009808797 0.01010642 0.01038092 0.01063226 0.01087635 0.01112058 0.01137102 0.01163211 0.01189849 0.01216926
 0.01244394 0.01272173 0.01301123 0.01331314 0.01362577 0.01394796 0.01425687 0.01455062 0.01480334 0.01501745
 0.01518803 0.0153207 0.01542888 0.01551377 0.01558551 0.01563849 0.01566872 0.01567421 0.01564777 0.01560236
 0.01554172 0.01548334 0.01543893 0.01540357 0.01538208 0.01534697 0.0152928 0.01520716 0.01508521 0.01495292
 0.01481128 0.0146982 0.01461438 0.01457012 0.01456199 0.01456926 0.0145884 0.01459321 0.01458374 0.01454639
 0.01448369 0.01439303 0.01427961 0.01414596 0.01400543 0.01386757 0.01375225 0.0136763 0.0136447 0.01367104
 0.0137232 0.01379976 0.01384908 0.0138597 0.01380763 0.01368596 0.01351365 0.01329126 0.01304554 0.0127771
 0.01249135 0.01218833 0.01186837 0.01153635 0.01121278 0.01090442 0.01064349 0.01042677 0.01026765 0.01014894
 0.01005392 0.009967493 0.009865772 0.009754469 0.009627401 0.009502705 0.009388292 0.009290551 0.009214814 0.009153458
 0.009105817 0.009065907 0.00903295 0.009003329 0.008976964 0.008943519 0.008902826</values></Ydata></AB><ScSm><Ydata ylabel="Single channel"><values byteorder="INTEL" format="FLOAT32" numvalues="1814"> 0.0861067 0.08621813 0.08634768 0.08650275 0.08667548 0.08684859 0.08700684 0.08714671 0.0872737 0.08739036
 0.08749654 0.08760349 0.08773313 0.08789526 0.08807435 0.08824129 0.08837563 0.0884824 0.08859244 0.08873288
 0.0888887 0.08900494 0.08903824 0.08900413 0.08896765 0.08898626 0.08907306 0.08922913 0.08948058 0.08981706
 0.09010582 0.09017658 0.09003412 0.08989002 0.0899292 0.09012523 0.09032471 0.09041649 0.09037563 0.09025444
 0.09020838 0.09044491 0.09103465 0.09176075 0.09218817 0.09191459 0.09083666 0.08929537 0.08799674 0.08764408
 0.08843056 0.08982413 0.09096451 0.09135704 0.0911439 0.09074084 0.09040473 0.09021959 0.09028377 0.09069755
 0.09139295 0.0920642 0.0922834 0.0917799 0.09074949 0.08982345 0.08955488 0.08998701 0.09084345 0.09186223
 0.09255561 0.09196015 0.08948454 0.08621167 0.08457288 0.08610794 0.08985518 0.09335176 0.09487765 0.09437096
 0.09272347 0.09098797 0.09009962 0.09055472 0.09208529 0.09392767 0.09543376 0.09625024 0.09615543 0.09515591
 0.09369783 0.09248313 0.09208184 0.09276613 0.09439786 0.09626058 0.09734378 0.09713873 0.09602086 0.09475796
 0.09394283 0.0939579 0.09499904 0.09684315 0.09887479 0.1005441 0.1016519 0.1022194 0.1023492 0.1022103
 0.1019569 0.1017027 0.1016339 0.1019174 0.1023745 0.1025135 0.1020773 0.101392 0.1010382 0.1012526
 0.1017242 0.1019697 0.1018143 0.1013031 0.1002052 0.09812489 0.0953065 0.09276484 0.09129449 0.0909075
 0.09147574 0.093077 0.09522367 0.09661316 0.09643295 0.09545224 0.09519184 0.09628338 0.09807135 0.09958391
 0.1004825 0.1011242 0.1019962 0.1031586 0.1040954 0.1040859 0.102931 0.1014186 0.1008053 0.1016059
 0.1030973 0.1042216 0.1047068 0.105044 0.1056121 0.1061232 0.1058691 0.1044753 0.1025417 0.1014401
 0.1021871 0.1044372 0.1066565 0.1072831 0.1058393 0.1031918 0.100823 0.09976457 0.1001914 0.1018401
 0.1043785 0.1072537 0.1096055 0.1107011 0.1104411 0.1093393 0.1079631 0.1064047 0.1044823 0.1025637
 0.1017888 0.103005 0.1056795 0.1083201 0.1098536 0.1102276 0.1098079 0.1086503 0.1065877 0.1039723
 0.1020163 0.1018991 0.1034299 0.1050879 0.1056418 0.105303 0.105037 0.1052321 0.1054816 0.1054006
 0.1051908 0.1053494 0.1060377 0.106886 0.1073954 0.1074039 0.1071201 0.1068247 0.1066034 0.1063008
 0.1057565 0.1051652 0.1050612 0.1057587 0.1069285 0.1079253 0.1084215 0.1085411 0.1084748 0.1081624
 0.1074045 0.1062589 0.1052373 0.1049455 0.1054935 0.1064092 0.1071402 0.1074686 0.1074599 0.1072528
 0.1069646 0.1066599 0.106368 0.1061643 0.1061582 0.1063459 0.1065655 0.1066582 0.1065994 0.1064406
 0.1062041 0.1058839 0.1055121 0.1051834 0.1049967 0.104974 0.1050533 0.1051521 0.105208 0.1051695
 0.105011 0.1047683 0.1045131 0.1042866 0.1040882 0.103923 0.1038177 0.1037796 0.1037705 0.1037352
 0.1036484 0.1035198 0.1033651 0.1031898 0.1030005 0.1028144 0.1026563 0.1025467 0.1024834 0.1024366
 0.1023811 0.1023286 0.1022979 0.1022659 0.1021862 0.1020522 0.1019067 0.1017932 0.1017215 0.1016754
 0.1016294 0.1015555 0.10143 0.1012503 0.1010555 0.100915 0.100877 0.1009335 0.1010432 0.101167
 0.1012688 0.1013179 0.1013155 0.1012949 0.10128 0.1012625 0.1012274 0.1011837 0.1011635 0.1011967
 0.1012807 0.1013772 0.1014458 0.1014747 0.1014757 0.1014692 0.1014806 0.1015233 0.1015738 0.1015906
 0.1015669 0.1015435 0.1015592 0.1016077 0.1016502 0.1016614 0.1016549 0.1016645 0.1017053 0.1017594
 0.1018008 0.101825 0.1018499 0.1018898 0.1019323 0.1019423 0.1018995 0.1018263 0.1017665 0.1017391
 0.1017309 0.1017287 0.101738 0.1017643 0.1017943 0.1018028 0.1017771 0.1017291 0.1016808 0.1016394
 0.1015922 0.1015282 0.1014536 0.101383 0.101323 0.101269 0.1012122 0.1011456 0.1010669 0.1009764
 0.1008746 0.1007627 0.1006439 0.1005225 0.100408 0.1003149 0.1002471 0.1001789 0.1000682 0.09989655
 0.0996912 0.09950013 0.09934939 0.09922621 0.09909961 0.09895191 0.09879116 0.09863853 0.09850869 0.09840158
 0.09830721 0.098216 0.09812976 0.09806488 0.09803863 0.09804697 0.09806116 0.09805298 0.09802169 0.09799041
 0.09798016 0.09799422 0.09802439 0.09806267 0.09810812 0.0981668 0.09824339 0.09832956 0.09840843 0.09847508
 0.09854487 0.09863645 0.09875597 0.09889937 0.09905751 0.09921377 0.0993517 0.0994738 0.09960348 0.09976105
 0.09994531 0.1001429 0.1003464 0.1005573 0.1007774 0.1010081 0.1012537 0.1015202 0.1018087 0.1021122
 0.1024201 0.1027246 0.1030262 0.1033347 0.103664 0.1040218 0.1044038 0.1047964 0.1051866 0.105569
 0.105947 0.1063273 0.106714 0.1071091 0.1075171 0.1079425 0.1083825 0.1088264 0.1092653 0.1096989
 0.1101322 0.110569 0.1110107 0.1114583 0.1119152 0.1123838 0.1128582 0.1133226 0.1137629 0.1141814
 0.1145948 0.1150186 0.1154566 0.1159003 0.1163332 0.1167402 0.1171226 0.117502 0.117898 0.1183056
 0.1187042 0.1190883 0.119477 0.1198886 0.1203116 0.1207109 0.1210631 0.1213798 0.121692 0.1220143
 0.1223328 0.1226295 0.1229071 0.1231841 0.1234701 0.1237588 0.1240461 0.1243412 0.1246524 0.1249687
 0.1252679 0.1255399 0.125793 0.1260394 0.126282 0.1265152 0.1267326 0.1269351 0.1271343 0.127342
 0.1275582 0.1277748 0.1279946 0.128233 0.1284997 0.1287893 0.1290952 0.1294212 0.1297691 0.1301254
 0.1304751 0.1308246 0.1311949 0.1315852 0.1319605 0.1322868 0.1325676 0.1328316 0.1330961 0.1333593
 0.1336228 0.1338986 0.1341897 0.1344743 0.1347163 0.1348869 0.1349851 0.1350416 0.135098 0.1351768
 0.1352754 0.1353921 0.1355486 0.1357782 0.1360963 0.1364837 0.1368946 0.1372772 0.1375906 0.1378073
 0.1379051 0.1378647 0.1376824 0.1373725 0.1369498 0.1364082 0.135727 0.1348932 0.133907 0.1327661
 0.1314573 0.129975 0.1283513 0.1266717 0.1250621 0.1236563 0.1225616 0.1218394 0.1215035 0.1215223
 0.1218126 0.1222385 0.1226322 0.1228323 0.1227182 0.1222276 0.1213628 0.1201824 0.1187807 0.1172612
 0.1157171 0.1142216 0.1128291 0.1115933 0.1105993 0.1099808 0.1098971 0.1104851 0.1118122 0.1138402
 0.1164044 0.1192343 0.1220333 0.1245811 0.1267893 0.1286809 0.1303316 0.1318234 0.1332216 0.1345638
 0.1358573 0.1370891 0.1382446 0.1393167 0.1402987 0.1411731 0.1419081 0.1424639 0.1428051 0.1429189
 0.1428337 0.1426254 0.1423991 0.1422446 0.1421867 0.1421636 0.1420556 0.1417478 0.1411857 0.1403942
 0.1394787 0.1386352 0.1381662 0.1384464 0.1397929 0.1422862 0.1456767 0.149478 0.1531862 0.1564623
 0.1591792 0.1613658 0.1631292 0.1645936 0.1658611 0.1669993 0.168048 0.1690296 0.1699581 0.1708441
 0.1716962 0.172516 0.1733004 0.1740492 0.1747697 0.1754707 0.1761569 0.1768296 0.1774912 0.1781442
 0.1787871 0.1794144 0.1800249 0.1806262 0.1812261 0.1818216 0.1824023 0.1829647 0.1835172 0.1840709
 0.1846302 0.1851901 0.1857398 0.1862682 0.1867711 0.1872544 0.1877275 0.1881955 0.188658 0.1891134
 0.1895605 0.1899969 0.1904211 0.1908353 0.1912461 0.1916586 0.1920712 0.1924773 0.192872 0.1932581
 0.1936425 0.1940305 0.1944213 0.1948109 0.1951988 0.1955908 0.1959947 0.1964134 0.1968407 0.197266
 0.197683 0.1980932 0.1985027 0.1989151 0.1993296 0.1997433 0.2001539 0.2005599 0.2009591 0.2013507
 0.2017377 0.2021245 0.2025124 0.2028997 0.2032862 0.2036738 0.2040623 0.2044489 0.2048327 0.2052172
 0.2056072 0.2060019 0.2063937 0.2067754 0.2071467 0.2075143 0.2078838 0.2082569 0.2086328 0.2090112
 0.2093919 0.2097741 0.2101562 0.2105374 0.2109197 0.2113054 0.2116936 0.2120791 0.2124592 0.2128363
 0.2132152 0.2135975 0.2139807 0.21436 0.2147332 0.2151025 0.2154727 0.2158455 0.216219 0.2165922
 0.2169653 0.217339 0.217713 0.218086 0.2184562 0.2188233 0.2191902 0.2195584 0.2199262 0.2202897
 0.2206464 0.2209979 0.2213494 0.2217059 0.2220677 0.2224311 0.2227939 0.2231553 0.2235139 0.2238688
 0.2242211 0.2245731 0.2249266 0.2252838 0.2256454 0.2260083 0.2263697 0.2267303 0.227091 0.2274513
 0.2278111 0.2281697 0.2285255 0.2288789 0.2292331 0.2295891 0.2299457 0.2303024 0.2306596 0.2310161
 0.2313726 0.2317329 0.2320983 0.2324652 0.2328312 0.2331956 0.233557 0.2339161 0.2342775 0.2346435
 0.2350114 0.2353778 0.2357408 0.236099 0.2364539 0.2368085 0.2371642 0.2375206 0.2378775 0.2382325
 0.238582 0.2389279 0.2392774 0.2396317 0.239987 0.2403432 0.2407039 0.2410686 0.2414362 0.2418069
 0.2421797 0.2425522 0.2429255 0.2433004 0.2436754 0.2440517 0.2444316 0.244813 0.2451936 0.2455761
 0.2459606 0.2463418 0.2467208 0.2471064 0.2475002 0.2478946 0.2482846 0.2486699 0.2490513 0.2494329
 0.2498193 0.2502077 0.2505949 0.2509854 0.2513816 0.2517766 0.2521664 0.2525535 0.2529371 0.253316
 0.2536951 0.2540765 0.2544557 0.2548349 0.2552222 0.2556148 0.2560045 0.256392 0.2567804 0.2571669
 0.2575519 0.2579382 0.2583208 0.2586964 0.2590733 0.2594532 0.2598264 0.2601913 0.2605546 0.2609077
 0.2612213 0.2614283 0.2613538 0.2606302 0.2586468 0.2545635 0.2474827 0.2368151 0.2226437 0.205816
 0.1877026 0.1697659 0.153165 0.1386068 0.1264537 0.1168849 0.1100004 0.1059138 0.104833 0.1071709
 0.1136944 0.125081 0.1402495 0.1548854 0.1630297 0.1615909 0.1531553 0.1436394 0.1374525 0.1353081
 0.1357143 0.1371976 0.1391764 0.1417908 0.1453958 0.1500421 0.1554231 0.1613873 0.1682369 0.1762774
 0.1852304 0.1943333 0.2029799 0.2111191 0.2190329 0.2268543 0.234372 0.2412338 0.2472206 0.252324
 0.2566741 0.2604507 0.2638145 0.2668724 0.2696932 0.2723123 0.2746837 0.2766601 0.2780775 0.2788854
 0.2792076 0.2792854 0.2793447 0.2795003 0.2797706 0.2801457 0.2806177 0.2811726 0.2817957 0.2824777
 0.2832031 0.2839479 0.2846934 0.2854256 0.2861278 0.2867888 0.2874103 0.2879966 0.2885509 0.2890821
 0.2895994 0.2901023 0.2905869 0.2910547 0.2915092 0.2919544 0.2923982 0.2928426 0.2932753 0.2936833
 0.294067 0.2944349 0.2947927 0.2951424 0.2954831 0.2958141 0.2961413 0.2964728 0.2968076 0.2971381
 0.2974615 0.2977803 0.2980958 0.2984089 0.2987212 0.2990308 0.2993354 0.2996367 0.299937 0.3002356
 0.3005355 0.3008421 0.3011524 0.3014562 0.3017499 0.302041 0.3023409 0.3026583 0.3029934 0.3033348
 0.3036715 0.304005 0.3043416 0.30468 0.3050169 0.3053563 0.3057041 0.3060614 0.306426 0.3067923
 0.3071469 0.3074746 0.3077701 0.3080425 0.3083104 0.3085918 0.3088925 0.3092054 0.3095208 0.3098343
 0.3101444 0.3104508 0.3107566 0.3110649 0.3113778 0.3117022 0.3120475 0.3124112 0.3127788 0.313142
 0.3135058 0.3138733 0.3142403 0.3146052 0.3149713 0.3153379 0.3156985 0.3160524 0.3164141 0.3168061
 0.3172356 0.3176793 0.3181014 0.3184873 0.3188538 0.3192292 0.3196315 0.3200523 0.3204511 0.3207856
 0.3210674 0.3213705 0.3217631 0.3222427 0.3227485 0.3232246 0.3236575 0.324064 0.3244606 0.3248465
 0.3252071 0.3255313 0.3258328 0.3261565 0.3265502 0.3270143 0.3274961 0.3279444 0.3283513 0.3287323
 0.3290979 0.3294531 0.3297883 0.3300602 0.3302343 0.330371 0.330617 0.331069 0.3316665 0.3322541
 0.3327364 0.3331358 0.3335117 0.333881 0.3342313 0.3345363 0.3347165 0.3346766 0.3344783 0.3344056
 0.3347344 0.3354528 0.3362913 0.336999 0.337511 0.3378887 0.3382078 0.3385091 0.3387753 0.3389274
 0.3389086 0.3388137 0.3388812 0.3392755 0.3399003 0.3405039 0.340946 0.3412779 0.3415995 0.3419456
 0.3422714 0.3424316 0.3422385 0.3417138 0.3412673 0.3414346 0.3423583 0.3436252 0.3446823 0.3453323
 0.3457382 0.3460386 0.3461426 0.3458997 0.3452847 0.3444062 0.3435595 0.3432781 0.3439868 0.3454632
 0.3469242 0.3478094 0.348262 0.3487411 0.3494205 0.350114 0.3505884 0.3507735 0.3507254 0.3504943
 0.3500991 0.3496808 0.3495964 0.3501712 0.3513231 0.3525768 0.3535094 0.354085 0.3544658 0.354524
 0.3537155 0.3517222 0.3492975 0.34808 0.3491421 0.3518624 0.3545972 0.3563046 0.357119 0.3575861
 0.357953 0.3580932 0.3574895 0.3554012 0.3518645 0.3485731 0.3478563 0.3503861 0.3544258 0.3575137
 0.3583494 0.3570719 0.3546335 0.3523545 0.3514515 0.3523735 0.3546114 0.3572156 0.3593754 0.360633
 0.3608953 0.3603794 0.3595262 0.3588917 0.3588027 0.3588703 0.3582223 0.3566334 0.3549505 0.3537813
 0.352371 0.3498362 0.347144 0.3465198 0.3486975 0.3518574 0.3537303 0.3539171 0.3534957 0.3528417
 0.3507228 0.3459181 0.3394652 0.3346355 0.3341074 0.3372613 0.3407621 0.3417978 0.3402706 0.3378784
 0.3357489 0.3333314 0.3293967 0.3239446 0.3189168 0.3165324 0.3168741 0.3178121 0.3173707 0.3151144
 0.3111174 0.3054538 0.2998165 0.297875 0.3019778 0.3101299 0.3176956 0.3213645 0.3201853 0.3141876
 0.304695 0.295744 0.2922899 0.2956609 0.3020416 0.3061969 0.3056297 0.3006955 0.2924364 0.2820913
 0.2721947 0.2662933 0.2666813 0.2725515 0.2801619 0.2844824 0.2817729 0.2725604 0.2623441 0.257459
 0.259169 0.2628731 0.2635519 0.2604945 0.2562688 0.253189 0.2520201 0.2524573 0.2534925 0.2541861
 0.2543889 0.2534772 0.2490313 0.2395217 0.2283923 0.2222727 0.2241422 0.2308885 0.2383285 0.2454141
 0.2519944 0.2558084 0.254887 0.2515007 0.2507467 0.2551108 0.2620776 0.267318 0.269061 0.2688215
 0.2685574 0.2682711 0.2670145 0.2655114 0.2661894 0.2701682 0.2755117 0.2793252 0.2806606 0.2805333
 0.2799917 0.2792376 0.2781523 0.2767202 0.2749871 0.2730779 0.27119 0.2693748 0.2674977 0.265494
 0.2633072 0.260348 0.2555615 0.2488612 0.2423411 0.2388782 0.239172 0.2413014 0.2434678 0.2453091
 0.2456647 0.2416141 0.2322794 0.2222647 0.2185074 0.2235806 0.2336274 0.2426595 0.247271 0.2470849
 0.2427506 0.2356582 0.2294525 0.2294375 0.2385193 0.2541842 0.2707358 0.2840885 0.293355 0.298721
 0.299948 0.2975061 0.2938789 0.2926106 0.2958988 0.3031677 0.3115428 0.3171715 0.3168703 0.3107432
 0.304031 0.3039628 0.3125266 0.3237757 0.33037 0.3312961 0.3308695 0.3319007 0.3332368 0.333514
 0.3338851 0.3359663 0.3390911 0.3408257 0.3391531 0.3333335 0.3238527 0.3129535 0.304358 0.3005217
 0.3002342 0.3003256 0.299102 0.2963519 0.2912686 0.2836151 0.27665 0.2753356 0.2806768 0.2882975
 0.2934602 0.2954965 0.296495 0.297394 0.2968037 0.2933154 0.2880122 0.2840257 0.2834716 0.285437
 0.2874524 0.2881265 0.2874065 0.2851056 0.2808968 0.2758877 0.2727491 0.2734057 0.2770592 0.2810334
 0.2832885 0.2837058 0.2833085 0.2830007 0.2830977 0.2834589 0.2838816 0.2846805 0.2867425 0.2904892
 0.2949435 0.2985178 0.3007527 0.3026716 0.3053338 0.3085794 0.3113913 0.31312 0.3141134 0.3153093
 0.3173673 0.3201001 0.3226095 0.3240319 0.3243374 0.3244342 0.3253483 0.3272603 0.3294708 0.3312589
 0.3325375 0.3336872 0.335059 0.3367108 0.3383757 0.3396312 0.3403282 0.3408979 0.3419979 0.3437944
 0.3457703 0.3472769 0.348097 0.3484197 0.3484557 0.3482327 0.3477125 0.3469702 0.3462 0.3455696
 0.3451105 0.3447477 0.3443977 0.3440255 0.3436496 0.3433322 0.3431502 0.3431437 0.3432924 0.3435447
 0.3438475 0.3441402 0.3443601 0.3444826 0.3445329 0.3445326 0.3444529 0.3442351 0.3438348 0.3432232
 0.3423624 0.3411999 0.3396799 0.3377408 0.3353289 0.3325018 0.3295943 0.327251 0.3261598 0.3266265
 0.3283548 0.33064 0.3327949 0.3344591 0.3356186 0.3364329 0.3370608 0.3375895 0.3380459 0.3384305
 0.3387409 0.3389835 0.3391726 0.3393219 0.3394386 0.3395245 0.3395784 0.3395962 0.3395705 0.3394852
 0.3393173 0.3390476 0.3386715 0.3381937 0.3376127 0.3369144 0.3360797 0.3351033 0.3340086 0.3328428
 0.3316557 0.3304802 0.3293224 0.3281567 0.3269332 0.3255905 0.3240522 0.3222322 0.3201045 0.3177943
 0.3155419 0.3135144 0.3116675 0.309817 0.3078201 0.3056546 0.3033655 0.3009987 0.2985843 0.2961413
 0.2936743 0.2911742 0.2886257 0.2860162 0.2833429 0.2806118 0.2778284 0.2749959 0.2721265 0.2692435
 0.266347 0.263368 0.2601616 0.2565522 0.2523893 0.2475759 0.2420823 0.2359682 0.2294036 0.222646
 0.2159736 0.209622 0.2037669 0.1985425 0.1940569 0.190389 0.1875801 0.1856411 0.1845715 0.1843713
 0.1850339 0.1865282 0.1887822 0.1916756 0.1950454 0.1986979 0.2024267 0.2060418 0.209419 0.21254
 0.2154772 0.2183155 0.2210795 0.2237305 0.2262214 0.2285357 0.2306736 0.2326214 0.2343539 0.2358706
 0.237215 0.2384507 0.2396179 0.2407125 0.2417026 0.2425609 0.2432831 0.2438782 0.2443515 0.2447046
 0.2449522 0.2451353 0.2453198 0.2455819 0.2459862 0.2465696 0.2473373 0.2482649 0.2493026 0.2503901
 0.2514871 0.252595 0.2537556 0.2550296 0.2564691 0.2580979 0.259908 0.2618727 0.2639539 0.2660918
 0.2682021 0.2701957 0.2720075 0.2736066 0.2749876 0.2761583 0.2771363 0.2779481 0.278623 0.2791834
 0.279645 0.2800193 0.280306 0.2804768 0.2804791 0.2802653 0.2798269 0.2791983 0.278426 0.2775344
 0.2765266 0.275411 0.2742158 0.2729857 0.271778 0.2706609 0.2697012 0.2689458 0.2684067 0.2680514
 0.2678033 0.2675649 0.2672464 0.2667817 0.2661323 0.26529 0.2642636 0.2630559 0.2616575 0.2600638
 0.258287 0.2563533 0.2542955 0.2521415 0.249907 0.2475937 0.2451894 0.2426751 0.2400561 0.2373951
 0.2347926 0.2323246 0.2300114 0.2278407 0.2257934 0.2238478 0.221979 0.220163 0.2183864 0.2166581
 0.215007 0.2134581 0.2120176 0.2106841 0.2094592 0.2083458 0.2073486 0.206474 0.2057172 0.2050578
 0.2044733 0.2039494 0.2034855 0.2031078 0.2028605 0.2027507 0.2027102 0.2026306 0.2024378 0.2021335
 0.2017819 0.2014593 0.2012067 0.2010229 0.2008824 0.2007333 0.2004884 0.2000487 0.1993312 0.1982686
 0.1968174 0.194988 0.1928568 0.1905478 0.1882185 0.1860351 0.1841263 0.1825559 0.1813271 0.1803865
 0.1796383 0.1790033 0.1784779 0.178128 0.1780281 0.178181 0.1784618 0.1786775 0.1787429 0.1787811
 0.1790114 0.1795564 0.1803713 0.1813056 0.1822039 0.1829728 0.1835795 0.1840112 0.1842678 0.1843807
 0.1843885 0.1842991 0.1841004 0.1837871 0.183358 0.1828208 0.1822035 0.1815229 0.1807576 0.1798845
 0.1789088 0.177835 0.176654 0.1753607 0.1739362 0.1723475 0.1706466 0.1690502 0.1678594 0.1672929
 0.1673739 0.1679259 0.1686935 0.1695052 0.1702894 0.1709538 0.1714047 0.1717532 0.1723852 0.1737001
 0.1757599 0.1781988 0.1804741 0.1822072 0.1832932 0.1837673 0.1836948 0.1831623 0.1822266 0.1808646
 0.1790698 0.1769411 0.1746138 0.1722095 0.1698815 0.1677743 0.165945 0.1644101 0.1631773 0.1622477
 0.1616931 0.1612408 0.1592791 0.1534263 0.1439083 0.1357338 0.1348999 0.141919 0.1510964 0.1566439
 0.1575941 0.1564015 0.155106 0.1541578 0.1534857 0.1531574 0.1532217 0.1535651 0.1539494 0.1541211
 0.1539697 0.1535124 0.1526248 0.1508099 0.1472098 0.140922 0.1316689 0.1204124 0.1091442 0.09982885
 0.09343795 0.08976025 0.08783016 0.08659166 0.08550115 0.08471322 0.08472331 0.08586353 0.08812119 0.09128262
 0.09508082 0.09917475 0.1031114 0.1064694 0.1090766 0.1110095 0.1123819 0.1132296 0.1135818 0.113512
 0.113098 0.1124069 0.1115128 0.1104649 0.1092541 0.1078647 0.1063661 0.1049443 0.1038239 0.1031213
 0.102772 0.1026251 0.1025828 0.102618 0.1027112 0.1028368 0.102985 0.1031626 0.1033901 0.1036951
 0.104072 0.1044572 0.1047708 0.1049732 0.1050715 0.1050902 0.1050326 0.1048732 0.1046202 0.1043531
 0.1041087 0.10374 0.1030126 0.1018943 0.1006886 0.09984376 0.09963274 0.09998228 0.1005645 0.1010518
 0.1013158 0.1014193 0.1014638 0.101453</values></Ydata></ScSm><ScRf><Ydata ylabel="Single channel"><values byteorder="INTEL" format="FLOAT32" numvalues="1820"> 0.0697042 0.06983647 0.06995597 0.07006285 0.07016171 0.07026032 0.07036695 0.07048573 0.07061441 0.07074478
 0.07086685 0.0709759 0.0710741 0.07116323 0.07124384 0.07132585 0.07142849 0.0715607 0.07170746 0.07184036
 0.07194044 0.07201485 0.07209405 0.07220364 0.07233097 0.07242699 0.07245114 0.07241444 0.07237327 0.07237877
 0.07244241 0.07256295 0.0727602 0.07302696 0.07325733 0.07331353 0.07319849 0.07308298 0.07311563 0.0732723
 0.07342682 0.07349168 0.07345246 0.07335389 0.07331792 0.07350761 0.07397989 0.07456209 0.07490302 0.07467555
 0.07379535 0.07254028 0.07148457 0.07119901 0.07183863 0.07296918 0.07389174 0.07420664 0.07403003 0.07369603
 0.07340989 0.07324362 0.0732865 0.07362472 0.07419746 0.07474598 0.0749174 0.07449521 0.07364604 0.07288772
 0.0726691 0.07302321 0.07372526 0.07456023 0.07512292 0.07462206 0.07258344 0.06990685 0.06858046 0.06984597
 0.07290255 0.07574148 0.07697213 0.07655044 0.07520066 0.07377991 0.07305487 0.07343148 0.07468598 0.07619041
 0.0774152 0.07807231 0.07798201 0.07715516 0.07596241 0.07497692 0.07465796 0.07522207 0.07655364 0.07806653
 0.07893813 0.07876052 0.07784675 0.07682314 0.0761674 0.07618663 0.07703999 0.07854687 0.08020484 0.08156252
 0.08245569 0.0829048 0.08299979 0.08288087 0.08267091 0.08245885 0.08239727 0.08262519 0.08299651 0.08310752
 0.08274705 0.08218333 0.0818921 0.08206515 0.08244632 0.08264314 0.08251652 0.08210178 0.08120548 0.07950428
 0.07720371 0.07513581 0.07394673 0.07364435 0.07412469 0.07544753 0.07720522 0.07833043 0.07816894 0.07736129
 0.07715119 0.07804564 0.07950097 0.08072291 0.08143985 0.08194867 0.08265047 0.08359531 0.08436139 0.08435996
 0.08343017 0.08221623 0.08173938 0.08241008 0.08363276 0.08454821 0.0849428 0.08522186 0.08569476 0.08612581
 0.08593746 0.08482555 0.0832808 0.0824212 0.08306882 0.08493277 0.08675876 0.08727875 0.08611429 0.08398057
 0.08208682 0.0812688 0.08166648 0.08306845 0.08520597 0.08762272 0.08960839 0.09055999 0.09039724 0.08954389
 0.08846816 0.08724746 0.08573449 0.08423567 0.08368981 0.08478653 0.08707625 0.08932894 0.09067102 0.09106795
 0.09081726 0.08995193 0.08832692 0.08624269 0.08471999 0.08474225 0.0861393 0.08763289 0.08819834 0.08802283
 0.08791882 0.08820697 0.08853905 0.08858997 0.08853529 0.08880073 0.08952323 0.09038581 0.09096079 0.09110641
 0.09099843 0.09087919 0.09082685 0.09071004 0.09039105 0.09003757 0.09010629 0.09086025 0.09201229 0.09301247
 0.09358769 0.09384739 0.09394945 0.09383299 0.09332287 0.09247436 0.0917386 0.09164332 0.09228133 0.09324107
 0.09404399 0.09449966 0.09466012 0.09464134 0.09454557 0.09443384 0.09433702 0.0943222 0.09448186 0.09480802
 0.0951574 0.09539239 0.09549281 0.09550296 0.09544136 0.09530412 0.09512265 0.09498078 0.09496304 0.09508809
 0.09530394 0.09554066 0.09574119 0.09585546 0.09585816 0.09578189 0.09569447 0.09563726 0.09561192 0.09561947
 0.095676 0.09578359 0.09591065 0.0960151 0.09607848 0.09610853 0.09611537 0.09610052 0.09606939 0.09604135
 0.09604276 0.09609039 0.09617547 0.09626785 0.09635155 0.09644695 0.09657134 0.09668998 0.09674403 0.09672459
 0.09668569 0.09668475 0.09673554 0.0968163 0.09689706 0.09695099 0.09695585 0.09690819 0.09684482 0.09683268
 0.09691782 0.09709218 0.09731729 0.09755679 0.09777507 0.09793963 0.09804964 0.0981389 0.09823252 0.09832031
 0.09838362 0.09843258 0.09850606 0.0986387 0.0988268 0.09902838 0.09920016 0.09932727 0.09941943 0.09950131
 0.0996086 0.09975958 0.09992026 0.1000314 0.1000832 0.1001314 0.100227 0.1003561 0.1004639 0.1005224
 0.1005558 0.1006083 0.1006971 0.100803 0.1008992 0.1009829 0.101076 0.101194 0.1013158 0.1013919
 0.1013934 0.1013477 0.1013104 0.1013088 0.1013312 0.1013653 0.1014194 0.1014987 0.1015814 0.1016342
 0.101648 0.1016474 0.101661 0.1016864 0.101693 0.1016593 0.1015956 0.1015308 0.1014855 0.1014618
 0.1014489 0.1014316 0.1013987 0.1013476 0.1012835 0.1012121 0.1011366 0.1010626 0.1010087 0.1009996
 0.1010341 0.1010618 0.101012 0.1008584 0.1006469 0.1004536 0.1003203 0.100231 0.1001402 0.1000161
 0.09986177 0.09970427 0.09956733 0.09945346 0.09934834 0.09923966 0.09913328 0.09905162 0.09901036 0.09899191
 0.09895062 0.09885434 0.09871685 0.09858108 0.09847744 0.09840685 0.09835511 0.09830982 0.09826861 0.09824094
 0.09823637 0.09824672 0.09824951 0.0982344 0.098216 0.09821799 0.09825678 0.09833767 0.0984479 0.09855237
 0.09861799 0.09864865 0.09868144 0.09874491 0.09883599 0.09893978 0.09905382 0.0991846 0.09933256 0.09949198
 0.0996611 0.09984475 0.1000469 0.1002638 0.100485 0.1006997 0.1009065 0.1011167 0.1013471 0.1016063
 0.1018875 0.1021738 0.1024524 0.1027222 0.1029897 0.1032591 0.1035304 0.1038066 0.1040975 0.1044102
 0.1047382 0.1050671 0.1053883 0.1057048 0.1060228 0.1063437 0.1066647 0.1069882 0.1073273 0.1076961
 0.1080858 0.1084588 0.108779 0.1090493 0.1093102 0.1096031 0.1099388 0.1102957 0.110637 0.110936
 0.1111996 0.111463 0.1117539 0.1120644 0.1123701 0.1126698 0.1129909 0.1133521 0.1137295 0.1140701
 0.1143428 0.1145682 0.1147955 0.115049 0.1153082 0.1155422 0.1157491 0.1159529 0.1161707 0.1164
 0.1166375 0.1168918 0.1171663 0.1174428 0.1176949 0.1179156 0.11812 0.1183208 0.1185103 0.1186679
 0.1187834 0.1188715 0.1189654 0.1190899 0.1192406 0.1193945 0.1195396 0.1196856 0.1198458 0.1200223
 0.1202152 0.1204323 0.120677 0.1209339 0.1211837 0.1214318 0.1217042 0.1220051 0.1222981 0.1225444
 0.1227478 0.1229426 0.1231492 0.1233646 0.1235904 0.1238422 0.1241278 0.1244318 0.1247296 0.1250085
 0.1252769 0.1255573 0.1258633 0.1261784 0.126463 0.1266914 0.1268778 0.1270615 0.1272757 0.1275293
 0.1278101 0.1280963 0.1283691 0.1286145 0.1288188 0.1289686 0.1290663 0.1291343 0.1291911 0.1292237
 0.1291941 0.1290718 0.1288481 0.1285204 0.1280769 0.1275099 0.1268416 0.1261347 0.1254804 0.1249726
 0.1246823 0.124644 0.1248557 0.1252815 0.125854 0.1264836 0.1270767 0.1275492 0.1278288 0.1278616
 0.1276301 0.1271624 0.1265177 0.1257597 0.1249432 0.1241104 0.123294 0.1225342 0.1219067 0.1215288
 0.1215289 0.1219992 0.1229635 0.1243582 0.126028 0.1277629 0.1293762 0.1307739 0.1319599 0.1329846
 0.1338961 0.1347273 0.1355028 0.1362391 0.1369413 0.1376073 0.1382365 0.1388306 0.139385 0.1398848
 0.1403101 0.1406455 0.1408879 0.1410496 0.1411505 0.1412068 0.1412296 0.1412315 0.1412213 0.1411842
 0.1410756 0.1408452 0.1404707 0.1399742 0.1394234 0.1389343 0.138668 0.1387973 0.1394364 0.1405695
 0.1420412 0.1436269 0.1451275 0.1464222 0.1474671 0.1482774 0.1489084 0.1494277 0.1498867 0.1503108
 0.1507097 0.151089 0.1514531 0.1518055 0.1521478 0.1524825 0.1528158 0.1531549 0.1534999 0.1538423
 0.1541739 0.1544975 0.1548258 0.1551689 0.155524 0.1558779 0.1562209 0.1565582 0.1569002 0.1572461
 0.157584 0.1579073 0.1582226 0.1585416 0.1588726 0.1592171 0.1595681 0.1599092 0.1602267 0.1605206
 0.1608021 0.1610811 0.1613623 0.1616482 0.1619394 0.1622326 0.1625211 0.1628016 0.1630777 0.1633547
 0.1636318 0.1639015 0.1641585 0.164407 0.1646567 0.1649117 0.1651675 0.1654191 0.1656688 0.1659243
 0.1661901 0.1664639 0.166736 0.1669969 0.1672443 0.1674848 0.167728 0.167977 0.1682275 0.168476
 0.1687251 0.1689791 0.169237 0.1694939 0.1697474 0.1699993 0.1702523 0.1705065 0.1707605 0.1710115
 0.1712572 0.1714964 0.1717318 0.1719695 0.1722157 0.1724709 0.1727282 0.1729785 0.1732185 0.1734508
 0.1736796 0.1739094 0.1741443 0.1743861 0.1746321 0.1748778 0.1751212 0.175363 0.1756037 0.1758433
 0.1760826 0.176323 0.1765651 0.1768089 0.1770548 0.1773039 0.1775549 0.1778028 0.1780421 0.1782731
 0.1785014 0.1787322 0.1789673 0.1792044 0.1794403 0.1796746 0.1799117 0.1801541 0.1803963 0.1806303
 0.1808554 0.1810793 0.1813101 0.1815498 0.1817941 0.1820366 0.1822743 0.1825082 0.1827393 0.1829679
 0.1831962 0.1834284 0.1836654 0.1839048 0.1841437 0.1843804 0.1846149 0.1848495 0.1850876 0.1853295
 0.1855718 0.1858107 0.1860452 0.1862786 0.1865149 0.1867546 0.1869943 0.1872329 0.1874733 0.1877177
 0.1879649 0.1882133 0.1884612 0.1887083 0.1889566 0.189208 0.1894597 0.1897076 0.1899527 0.1901986
 0.190447 0.1906993 0.1909578 0.1912216 0.1914859 0.1917474 0.192004 0.1922528 0.1924927 0.1927257
 0.192952 0.1931714 0.1933874 0.1936047 0.1938246 0.1940477 0.1942759 0.194509 0.1947452 0.1949839
 0.1952249 0.1954663 0.1957096 0.1959591 0.1962144 0.1964709 0.1967262 0.196979 0.1972281 0.1974762
 0.1977291 0.1979882 0.1982512 0.1985171 0.1987829 0.1990422 0.199295 0.1995496 0.1998102 0.2000745
 0.2003404 0.2006076 0.2008747 0.2011423 0.2014127 0.201684 0.2019531 0.2022215 0.2024892 0.2027518
 0.2030112 0.2032752 0.2035466 0.2038221 0.2040994 0.204375 0.2046443 0.2049112 0.2051837 0.2054611
 0.2057387 0.206018 0.2062983 0.2065732 0.2068426 0.2071137 0.2073858 0.2076541 0.2079203 0.2081862
 0.2084495 0.2087125 0.2089778 0.209233 0.2094519 0.2095813 0.2094828 0.208863 0.207231 0.2039088
 0.1981718 0.1895478 0.1781102 0.1645471 0.1499629 0.1355341 0.1221922 0.1105036 0.1007532 0.0930783
 0.08755661 0.08428115 0.08342084 0.08530845 0.09055992 0.09971356 0.111885 0.123595 0.1300673 0.128853
 0.1220568 0.1144253 0.1094735 0.107758 0.1080813 0.1092649 0.1108404 0.1129196 0.115791 0.119499
 0.1237969 0.1285606 0.1340317 0.1404569 0.1476128 0.1548847 0.1617837 0.1682705 0.1745762 0.1808106
 0.1868047 0.192274 0.1970392 0.2010897 0.2045308 0.2075139 0.2101738 0.212595 0.214828 0.2168999
 0.2187748 0.2203323 0.2214367 0.2220463 0.2222655 0.2222928 0.2223112 0.222412 0.2226083 0.2228899
 0.2232467 0.2236669 0.2241419 0.2246665 0.2252246 0.2257914 0.2263529 0.2269072 0.2274504 0.2279748
 0.2284741 0.2289435 0.2293825 0.229799 0.2302007 0.2305887 0.2309635 0.23133 0.2316898 0.2320405
 0.232384 0.2327224 0.2330503 0.2333621 0.2336581 0.2339399 0.2342087 0.2344693 0.2347273 0.2349835
 0.2352365 0.235487 0.2357362 0.2359856 0.2362396 0.2364998 0.2367606 0.2370144 0.2372583 0.2374933
 0.2377236 0.237955 0.2381908 0.2384296 0.2386706 0.2389146 0.2391579 0.2393958 0.2396303 0.2398691
 0.2401183 0.240379 0.2406463 0.2409102 0.2411656 0.2414189 0.2416798 0.2419491 0.2422212 0.2424933
 0.242766 0.2430417 0.2433223 0.243604 0.2438739 0.244121 0.244347 0.2445655 0.2447911 0.2450294
 0.2452751 0.2455195 0.2457614 0.2460061 0.2462562 0.2465092 0.2467623 0.2470131 0.2472618 0.2475145
 0.2477805 0.2480613 0.2483483 0.2486338 0.2489173 0.2492011 0.2494897 0.2497873 0.2500903 0.2503856
 0.2506624 0.2509269 0.2512009 0.2515062 0.2518437 0.2521896 0.2525164 0.2528174 0.2531084 0.25341
 0.2537336 0.2540715 0.2543916 0.2546606 0.2548878 0.2551309 0.2554435 0.2558246 0.2562273 0.2566069
 0.2569507 0.2572721 0.2575863 0.2578944 0.2581848 0.2584473 0.2586913 0.2589526 0.2592702 0.2596445
 0.2600308 0.2603853 0.2607033 0.2610027 0.2612953 0.2615821 0.2618495 0.2620611 0.262194 0.2623026
 0.2625059 0.2628776 0.2633661 0.2638465 0.264243 0.2645732 0.2648842 0.2651899 0.2654809 0.2657379
 0.2658992 0.2658899 0.2657578 0.2657273 0.2660185 0.2666243 0.2673316 0.2679371 0.2683839 0.268721
 0.2690123 0.2692904 0.2695368 0.2696865 0.2696984 0.269652 0.269736 0.2700792 0.2706076 0.2711255
 0.2715207 0.2718277 0.2721203 0.2724252 0.2727081 0.2728546 0.2727194 0.2723275 0.272009 0.2721838
 0.2729543 0.2739882 0.2748502 0.2753881 0.2757316 0.2759895 0.2760896 0.2759148 0.2754472 0.2747727
 0.2741262 0.2739345 0.2745375 0.2757545 0.2769552 0.2776914 0.278081 0.2784951 0.2790745 0.2796687
 0.2800883 0.2802773 0.2802817 0.2801375 0.2798548 0.279551 0.279525 0.2800437 0.2810318 0.282094
 0.2828853 0.2833817 0.2837223 0.2838117 0.2832139 0.2816717 0.2797879 0.2788751 0.2797915 0.2820382
 0.2842973 0.2857317 0.2864463 0.2868785 0.28723 0.2874032 0.2869827 0.2853714 0.2825994 0.2800328
 0.2795463 0.2816738 0.2850119 0.2875833 0.2883516 0.2874301 0.2855754 0.2838399 0.2832044 0.2840437
 0.2859608 0.2881903 0.2900629 0.2911956 0.2915159 0.2912148 0.2906625 0.2903089 0.290401 0.2906039
 0.2902108 0.2890612 0.2878598 0.2870933 0.2861348 0.284269 0.2822977 0.2820376 0.2840769 0.2869245
 0.2887359 0.2891962 0.2891822 0.2889843 0.2875885 0.2840158 0.279153 0.275716 0.2759246 0.2792828
 0.2830672 0.2850012 0.2850507 0.2846339 0.284631 0.2844599 0.2829471 0.2799897 0.2771952 0.2764407
 0.2777635 0.2792954 0.2793254 0.277496 0.2738955 0.2686368 0.26329 0.2611662 0.2643872 0.2712396
 0.2776934 0.280881 0.2799788 0.2749966 0.2670866 0.2598062 0.257513 0.2613367 0.2678598 0.2724305
 0.2728292 0.2693453 0.2628756 0.2545403 0.2466804 0.2425676 0.2443224 0.2512147 0.2597853 0.2653288
 0.2643058 0.257196 0.2492037 0.2463223 0.2496913 0.2548549 0.2570015 0.2554834 0.2527944 0.2511763
 0.2513877 0.2531385 0.2554204 0.2572992 0.2586302 0.2587199 0.2549999 0.245866 0.2348996 0.2289718
 0.2311641 0.2382787 0.2460369 0.2533852 0.2601485 0.2639489 0.2627358 0.2588614 0.257587 0.2614608
 0.267887 0.2724418 0.2733641 0.2722656 0.2711922 0.27018 0.2682967 0.266297 0.2666342 0.2704175
 0.275679 0.2795054 0.2809539 0.2810555 0.2808638 0.2805657 0.2800161 0.2791788 0.2780939 0.2768907
 0.2757753 0.274806 0.2738519 0.272855 0.2717586 0.2699233 0.2661803 0.2603538 0.2545641 0.2517684
 0.2526567 0.2552125 0.2575966 0.2594775 0.2596413 0.2550017 0.2446398 0.2334212 0.2286483 0.2330004
 0.2423991 0.2505757 0.254028 0.2524588 0.2466465 0.238078 0.2304196 0.2288955 0.2362711 0.249939
 0.2642342 0.2752135 0.2821743 0.2854713 0.2849769 0.2811737 0.2764278 0.27407 0.2760993 0.2818579
 0.2885431 0.2925295 0.2909402 0.2839999 0.2766168 0.2754385 0.2822714 0.2916874 0.2970127 0.2973253
 0.2965211 0.2971329 0.2981431 0.2983751 0.2989191 0.3012657 0.3048459 0.3074975 0.3074077 0.3038792
 0.2973344 0.2898557 0.2848617 0.2844021 0.2868985 0.2889638 0.288886 0.2866607 0.2818551 0.2745438
 0.2679955 0.2669228 0.2721275 0.2792904 0.2838933 0.2854264 0.2860059 0.2865643 0.2857551 0.282219
 0.2770005 0.2731066 0.2725613 0.2744981 0.2765974 0.2776034 0.2775201 0.2761551 0.2731398 0.2695
 0.2677879 0.2698081 0.2746805 0.2796968 0.2828083 0.2838739 0.2838635 0.2836113 0.283376 0.2830065
 0.2823467 0.2817905 0.2823033 0.2843918 0.2872028 0.2892916 0.2902852 0.2911964 0.2930183 0.2955256
 0.2976359 0.2986096 0.2987009 0.298817 0.2996888 0.3012633 0.3027571 0.3033509 0.3029983 0.3025751
 0.3030924 0.3047355 0.3067944 0.3084803 0.3095835 0.3103645 0.3111143 0.3119068 0.3125622 0.3127985
 0.3126093 0.3124952 0.3130902 0.3145002 0.3161743 0.3174589 0.3181306 0.3183673 0.3183814 0.3182167
 0.3178432 0.3173246 0.3168356 0.3165297 0.3164272 0.3164363 0.3164554 0.3164371 0.3163897 0.3163565
 0.3163883 0.3165059 0.3166875 0.3169001 0.3171239 0.317337 0.3175094 0.317633 0.3177317 0.3178183
 0.3178576 0.3177849 0.3175429 0.3170873 0.3163779 0.3153832 0.3140826 0.312448 0.310446 0.3081369
 0.3058383 0.3041607 0.3037533 0.3048917 0.3072595 0.3101275 0.3127662 0.3147619 0.31606 0.3168109
 0.3171996 0.3173627 0.3173788 0.3172829 0.3170883 0.3168125 0.3164837 0.3161273 0.3157605 0.315403
 0.3150781 0.3147945 0.3145324 0.3142533 0.3139225 0.3135252 0.3130637 0.3125414 0.3119538 0.3112904
 0.3105375 0.3096807 0.3087223 0.3077004 0.3066801 0.3057154 0.3048154 0.3039472 0.3030667 0.3021369
 0.3011101 0.2999174 0.2985344 0.2970738 0.2957584 0.2947441 0.2939815 0.2932757 0.2924586 0.2914766
 0.2903538 0.2891319 0.2878487 0.2865313 0.2851883 0.2838097 0.2823723 0.2808487 0.2792197 0.2774861
 0.2756654 0.2737796 0.2718508 0.2698947 0.2678981 0.2657923 0.2634492 0.2607093 0.2574237 0.2534916
 0.2488874 0.2436802 0.2380339 0.2321753 0.2263389 0.2207254 0.2154935 0.2107708 0.2066656 0.2032723
 0.2006679 0.1989024 0.1979946 0.1979413 0.198726 0.2003137 0.2026334 0.2055668 0.2089533 0.2126065
 0.2163311 0.2199404 0.2232938 0.2263441 0.2291404 0.2317599 0.2342278 0.2365051 0.2385396 0.2403103
 0.2418264 0.2431045 0.2441593 0.2450122 0.2456997 0.2462668 0.2467518 0.247176 0.2475415 0.2478418
 0.2480766 0.2482607 0.2484194 0.2485786 0.2487558 0.2489599 0.2491985 0.2494884 0.2498536 0.25031
 0.2508547 0.2514746 0.2521568 0.2528895 0.2536618 0.2544757 0.2553566 0.2563488 0.2574967 0.2588238
 0.2603207 0.2619436 0.2636179 0.2652463 0.2667251 0.2679672 0.2689228 0.2695849 0.2699758 0.2701268
 0.270068 0.2698293 0.269439 0.2689171 0.2682783 0.267544 0.2667438 0.2658977 0.2650033 0.2640485
 0.2630376 0.2620026 0.2609843 0.2600021 0.25905 0.2581179 0.2572067 0.2563198 0.2554559 0.2546151
 0.2538025 0.2530223 0.2522759 0.2515625 0.2508775 0.2502068 0.249521 0.2487705 0.2479011 0.2468792
 0.2457008 0.2443732 0.2429025 0.2412974 0.2395697 0.2377299 0.2357901 0.2337651 0.2316661 0.2294951
 0.2272437 0.2249003 0.2224759 0.2200324 0.2176691 0.2154656 0.2134458 0.2115898 0.2098633 0.208236
 0.2066877 0.2052032 0.2037676 0.2023759 0.201041 0.1997782 0.198592 0.1974851 0.1964658 0.1955408
 0.1947122 0.1939834 0.1933548 0.1928197 0.1923694 0.1919976 0.1917046 0.1915105 0.1914487 0.1915181
 0.1916537 0.1917617 0.1917833 0.1917231 0.191632 0.1915628 0.1915342 0.1915358 0.1915478 0.1915313
 0.1914084 0.1910808 0.1904607 0.1894753 0.1880773 0.1862817 0.1841817 0.1819222 0.17967 0.1775847
 0.1757865 0.1743395 0.1732506 0.1724619 0.1718679 0.1713855 0.1710145 0.1708233 0.1708853 0.1712006
 0.1716392 0.1719964 0.1721723 0.1722845 0.1725672 0.1731747 0.1740881 0.1751572 0.1762035 0.177113
 0.1778536 0.1784287 0.1788491 0.1791404 0.1793267 0.1794033 0.1793556 0.1791856 0.1789037 0.1785257
 0.1780775 0.1775671 0.1769676 0.1762563 0.1754392 0.1745233 0.1735096 0.1724038 0.171186 0.1698128
 0.1683305 0.1669589 0.1660065 0.1656985 0.1660608 0.166913 0.1679949 0.1691382 0.1702772 0.1713105
 0.1721087 0.1727303 0.1735158 0.1748576 0.1768622 0.1792421 0.1815227 0.1833492 0.1845921 0.1852354
 0.185296 0.1848354 0.1839107 0.1825187 0.1806809 0.1785186 0.1761744 0.1737672 0.1714481 0.1693598
 0.1675574 0.1660587 0.1648766 0.1640131 0.1635356 0.1631599 0.1612486 0.155394 0.1458395 0.1376655
 0.1369327 0.1441382 0.1535094 0.1591955 0.1602251 0.1590789 0.1578123 0.1568723 0.1561809 0.1558083
 0.1558152 0.1561041 0.1564481 0.1565932 0.1564213 0.1559476 0.1550555 0.1532456 0.1496273 0.1432489
 0.1338125 0.1223129 0.1107984 0.1012707 0.09471045 0.0909105 0.08891241 0.08765629 0.08658087 0.08582874
 0.0858992 0.08713073 0.08950889 0.09281939 0.09680304 0.1011221 0.1053057 0.1088996 0.1117089 0.113814
 0.1153471 0.1163527 0.1168553 0.1169286 0.1166583 0.1161096 0.1153361 0.1143646 0.1131832 0.11179
 0.1102666 0.1088011 0.1076228 0.106866 0.1064843 0.1063198 0.1062476 0.1062274 0.10626 0.1063503
 0.1064967 0.1066874 0.1069196 0.1072092 0.1075491 0.1078812 0.1081435 0.1083239 0.1084413 0.1084931
 0.1084327 0.1082083 0.1078424 0.1074399 0.1070453 0.1065109 0.1056181 0.1043644 0.1030676 0.102162
 0.1018981 0.1021983 0.1027436 0.1032083 0.1034563 0.1035467 0.1035793 0.1035497 0.1033481 0.1028853
</values></Ydata></ScRf><Data_Parameters_AB><parameter name="DPF">1</parameter><parameter name="NPT">3497</parameter><parameter name="FXV">3996</parameter><parameter name="LXV">500</parameter><parameter name="CSF">1</parameter><parameter name="MXY">0.0436754263937473</parameter><parameter name="MNY">-0.10028599947691</parameter><parameter name="DAT">13/02/2024</parameter><parameter name="TIM">13:22:13.821 (GMT+1)</parameter><parameter name="DXU">WN</parameter></Data_Parameters_AB><AB__Qtest><MainReport name="Quality Test Report"><Header><Line><Legend>Test result ok/not ok [1/0]: </Legend><Value>0</Value></Line><Line><Legend>Method file: </Legend><Value>C:\Users\Public\Documents\Bruker\OPUS_8.2.28\QT\IRBT_v3_default.QT</Value></Line></Header><Matrix><Line><Legend></Legend><Legend>min</Legend><Legend>max</Legend><Legend>measured</Legend></Line><Line><Value>Absorption (X-Range 1):</Value><Value>0.400000</Value><Value>2.000000</Value><Value>0.114168</Value></Line><Line><Value>Noise (X-Range 4):</Value><Value></Value><Value>0.000300</Value><Value>0.000026</Value></Line><Line><Value>Signal/Noise (X-Range 2):</Value><Value>200.000000</Value><Value></Value><Value>87.242931</Value></Line><Line><Value>Signal/Noise (X-Range 3):</Value><Value>40.000000</Value><Value></Value><Value>78.537443</Value></Line><Line><Value>Water vapour (X-Range 5):</Value><Value></Value><Value>0.000300</Value><Value>0.000014</Value></Line><Line><Value>Signal/Water (X-Range 2):</Value><Value>100.000000</Value><Value></Value><Value>154.656960</Value></Line><Line><Value>Signal/Water (X-Range 3):</Value><Value>20.000000</Value><Value></Value><Value>139.224599</Value></Line><Line><Value>Fringes (X-Range 6):</Value><Value></Value><Value>0.000100</Value><Value>0.000031</Value></Line></Matrix></MainReport></AB__Qtest><Data_Parameters_ScSm><parameter name="DPF">1</parameter><parameter name="NPT">1814</parameter><parameter name="FXV">3996.63438082617</parameter><parameter name="LXV">499.579297603271</parameter><parameter name="CSF">1</parameter><parameter name="MXY">0.360895335674286</parameter><parameter name="MNY">0.0845728814601898</parameter><parameter name="DAT">13/02/2024</parameter><parameter name="TIM">13:22:13.821 (GMT+1)</parameter><parameter name="DXU">WN</parameter></Data_Parameters_ScSm><Data_Parameters_ScRf><parameter name="DPF">1</parameter><parameter name="NPT">1820</parameter><parameter name="FXV">4004.34989121387</parameter><parameter name="LXV">495.721542409425</parameter><parameter name="CSF">1</parameter><parameter name="MXY">0.318381398916245</parameter><parameter name="MNY">0.0685804635286331</parameter><parameter name="DAT">13/02/2024</parameter><parameter name="TIM">13:21:47.967 (GMT+1)</parameter><parameter name="DXU">WN</parameter></Data_Parameters_ScRf><Optic_Parameters_Rf><parameter name="APR">0</parameter><parameter name="APT">Open</parameter><parameter name="BMS">KBr</parameter><parameter name="DTC">RT-DLaTGS_IR-Biotyper [Microplate reader]</parameter><parameter name="HPF">0</parameter><parameter name="LPF">10.0</parameter><parameter name="LPV">4000</parameter><parameter name="PGR">0</parameter><parameter name="RCH">Module port</parameter><parameter name="RDX">0</parameter><parameter name="SRC">MIR</parameter><parameter name="VEL">10.0</parameter><parameter name="SON">Off</parameter></Optic_Parameters_Rf><Acquisition_Parameters_Rf><parameter name="ADT">1</parameter><parameter name="AQM">DD</parameter><parameter name="CFE">0</parameter><parameter name="COR">0</parameter><parameter name="DEL">0</parameter><parameter name="DLY">0</parameter><parameter name="HFW">8000</parameter><parameter name="LFW">0</parameter><parameter name="NSR">32</parameter><parameter name="PLF">AB</parameter><parameter name="RES">6</parameter><parameter name="RGN">-1</parameter><parameter name="STR">0</parameter><parameter name="TCL">MakeCompatibleScalar (0, {WSV=1.000000, ARV=0});</parameter><parameter name="TDL">37</parameter><parameter name="RPO">0</parameter></Acquisition_Parameters_Rf><FT_-_Parameters_Rf><parameter name="APF">B3</parameter><parameter name="HFQ">500</parameter><parameter name="LFQ">4000</parameter><parameter name="NLI">0</parameter><parameter name="PHR">24</parameter><parameter name="PHZ">ML</parameter><parameter name="SPZ">NO</parameter><parameter name="ZFF">1</parameter></FT_-_Parameters_Rf><Optic_Parameters_><parameter name="APR">0</parameter><parameter name="APT">Open</parameter><parameter name="BMS">KBr</parameter><parameter name="CHN">Module port</parameter><parameter name="DTC">RT-DLaTGS_IR-Biotyper [Microplate reader]</parameter><parameter name="HPF">0</parameter><parameter name="LPF">10.0</parameter><parameter name="LPV">4000</parameter><parameter name="PGN">0</parameter><parameter name="RDX">0</parameter><parameter name="SRC">MIR</parameter><parameter name="VEL">10.0</parameter><parameter name="SON">Off</parameter></Optic_Parameters_><FT_-_Parameters_><parameter name="APF">B3</parameter><parameter name="HFQ">500</parameter><parameter name="LFQ">4000</parameter><parameter name="NLI">0</parameter><parameter name="PHR">24</parameter><parameter name="PHZ">ML</parameter><parameter name="SPZ">NO</parameter><parameter name="ZFF">1</parameter></FT_-_Parameters_><Acquisition_Parameters_><parameter name="ADT">1</parameter><parameter name="AQM">DD</parameter><parameter name="CFE">0</parameter><parameter name="COR">0</parameter><parameter name="DEL">0</parameter><parameter name="DLY">0</parameter><parameter name="HFW">8000</parameter><parameter name="LFW">0</parameter><parameter name="NSS">32</parameter><parameter name="PLF">AB</parameter><parameter name="RES">6</parameter><parameter name="SOT">0</parameter><parameter name="TCL">MakeCompatibleScalar (0, {WSV=1.000000, ARV=0});</parameter><parameter name="TDL">37</parameter><parameter name="SPO">0</parameter><parameter name="SGN">-1</parameter></Acquisition_Parameters_><Instrument_Parameters_Rf><parameter name="HFL">15801.365274</parameter><parameter name="LFL">0</parameter><parameter name="LWN">15801.365274</parameter><parameter name="ABP">32157</parameter><parameter name="SSP">1</parameter><parameter name="ARG">2</parameter><parameter name="ASG">2</parameter><parameter name="ASS">32</parameter><parameter name="GFW">16</parameter><parameter name="GBW">16</parameter><parameter name="BFW">0</parameter><parameter name="BBW">0</parameter><parameter name="PKA">9173</parameter><parameter name="PKL">5009</parameter><parameter name="PRA">9166</parameter><parameter name="PRL">4988</parameter><parameter name="P2A">1</parameter><parameter name="P2L">1</parameter><parameter name="P2R">1</parameter><parameter name="P2K">1</parameter><parameter name="DAQ">0</parameter><parameter name="AG2">1</parameter><parameter name="SSM">1</parameter><parameter name="RSN">48133</parameter><parameter name="CRR">0</parameter><parameter name="SRT">1707830507.967</parameter><parameter name="DUR">19.6389923095703</parameter><parameter name="TSC">30</parameter><parameter name="MVD">0.301186859607697</parameter><parameter name="AN1">0.225909312161399</parameter><parameter name="AN2">0</parameter><parameter name="VSN">2.485 Apr  4 2017</parameter><parameter name="SRN">0085</parameter><parameter name="CAM">0</parameter><parameter name="INS">IR-Biotyper</parameter><parameter name="FOC">69</parameter><parameter name="RDY">1</parameter><parameter name="ARS">32</parameter></Instrument_Parameters_Rf><Sample_Parameters_><parameter name="BLD"></parameter><parameter name="CNM">Admin</parameter><parameter name="CPY"></parameter><parameter name="DPM"></parameter><parameter name="EXP">IRBT_v3_32Scans.XPM</parameter><parameter name="LCT"></parameter><parameter name="SFM">Microplate, HTS-XT</parameter><parameter name="SNM">240213-1206-Cdiff_SCFA_3_GDA_C38_242149694_C5_5d69bee1-b38b-4ca4-b4af-11ec10ded0db.0</parameter><parameter name="XPP">C:\Users\Public\Documents\Bruker\OPUS_8.2.28\XPM</parameter><parameter name="IST">OK</parameter><parameter name="CPG">1252</parameter><parameter name="UID">8abffc4c-5711-4856-8817-e440b86d8a5b</parameter></Sample_Parameters_><Instrument_Parameters_><parameter name="HFL">15801.365274</parameter><parameter name="LFL">0</parameter><parameter name="LWN">15801.365274</parameter><parameter name="ABP">32157</parameter><parameter name="SSP">1</parameter><parameter name="ASG">2</parameter><parameter name="ARG">2</parameter><parameter name="ASS">32</parameter><parameter name="GFW">16</parameter><parameter name="GBW">16</parameter><parameter name="BFW">0</parameter><parameter name="BBW">0</parameter><parameter name="PKA">10364</parameter><parameter name="PKL">5009</parameter><parameter name="PRA">10397</parameter><parameter name="PRL">4980</parameter><parameter name="P2A">1</parameter><parameter name="P2L">1</parameter><parameter name="P2R">1</parameter><parameter name="P2K">1</parameter><parameter name="DAQ">0</parameter><parameter name="AG2">1</parameter><parameter name="SSM">1</parameter><parameter name="RSN">24764</parameter><parameter name="CRR">0</parameter><parameter name="SRT">1707830533.821</parameter><parameter name="DUR">19.6389923095703</parameter><parameter name="TSC">30</parameter><parameter name="MVD">0.611437499523163</parameter><parameter name="AN1">0.225945747659198</parameter><parameter name="AN2">0</parameter><parameter name="VSN">2.485 Apr  4 2017</parameter><parameter name="SRN">0085</parameter><parameter name="CAM">0</parameter><parameter name="INS">IR-Biotyper</parameter><parameter name="FOC">69</parameter><parameter name="RDY">1</parameter></Instrument_Parameters_><History/></OPUSDataFile>
