<?xml version="1.0" encoding="UTF-8" ?>
<OPUSDataFile><AB><Ydata ylabel="Absorbance Units"><values byteorder="INTEL" format="FLOAT32" numvalues="3497"> -0.06218894 -0.06219159 -0.06219548 -0.06220087 -0.06220949 -0.0622194 -0.06222666 -0.06223153 -0.06223153 -0.0622308
 -0.06223319 -0.06224008 -0.06225528 -0.06227319 -0.06229251 -0.06230703 -0.06231316 -0.06231323 -0.06230637 -0.06229999
 -0.06229525 -0.06229516 -0.06230034 -0.06230694 -0.06231482 -0.06232195 -0.06232876 -0.06233959 -0.0623545 -0.06237702
 -0.06240515 -0.06243451 -0.06246294 -0.0624824 -0.06249502 -0.06249922 -0.06250124 -0.06250739 -0.06252096 -0.06254805
 -0.06258355 -0.06262791 -0.06267096 -0.0627094 -0.06273627 -0.06274862 -0.06274758 -0.06273217 -0.06271044 -0.06268274
 -0.06265949 -0.06264122 -0.06263497 -0.06264062 -0.06265938 -0.0626903 -0.06272953 -0.06277545 -0.0628212 -0.06286481
 -0.06289814 -0.06292115 -0.06292883 -0.06292587 -0.06291423 -0.06290152 -0.06289412 -0.06289624 -0.06291287 -0.0629408
 -0.06298114 -0.0630254 -0.06307234 -0.06311284 -0.06314541 -0.06316409 -0.063168 -0.06315734 -0.06313216 -0.06310013
 -0.06306212 -0.06303041 -0.06300589 -0.06300034 -0.06301313 -0.06304958 -0.06310593 -0.06317795 -0.06325816 -0.0633341
 -0.06339756 -0.06343365 -0.06344196 -0.06341363 -0.06336383 -0.06329516 -0.06323084 -0.06318071 -0.06315437 -0.06315883
 -0.06317995 -0.06321769 -0.06325056 -0.06327593 -0.0632889 -0.06328915 -0.06329046 -0.0632932 -0.06330661 -0.06332846
 -0.06335029 -0.06337039 -0.0633768 -0.0633729 -0.06335943 -0.063343 -0.06333517 -0.06333863 -0.06336297 -0.06340189
 -0.06345608 -0.06351144 -0.06356066 -0.06359445 -0.06360523 -0.06360067 -0.06358029 -0.06355711 -0.06353442 -0.06350975
 -0.06348316 -0.06344988 -0.06340963 -0.0633858 -0.06338035 -0.06342881 -0.06352619 -0.0636662 -0.06383163 -0.06395653
 -0.06403086 -0.0639853 -0.06385101 -0.06364057 -0.06340473 -0.06321546 -0.06307749 -0.06302583 -0.06302642 -0.06307019
 -0.06312912 -0.06318948 -0.06324153 -0.06328122 -0.06330037 -0.06329726 -0.06326516 -0.06320182 -0.06312343 -0.06303069
 -0.06295568 -0.0628987 -0.06287073 -0.06286886 -0.06287954 -0.0629021 -0.06292635 -0.06295496 -0.06299097 -0.06303279
 -0.06308121 -0.06312843 -0.06316583 -0.06318717 -0.06318335 -0.06315559 -0.06309988 -0.06302695 -0.06293711 -0.06285118
 -0.06277342 -0.06272411 -0.06270909 -0.06272653 -0.06277837 -0.06284011 -0.06291045 -0.06296642 -0.06300782 -0.0630291
 -0.06303087 -0.06301468 -0.06297994 -0.06292349 -0.06284818 -0.06275741 -0.06265898 -0.06256861 -0.06248933 -0.06243318
 -0.06239347 -0.06236892 -0.06235269 -0.06233975 -0.06232901 -0.06231895 -0.06230967 -0.06230138 -0.06229179 -0.06228059
 -0.062266 -0.06224789 -0.06222402 -0.06219427 -0.06215601 -0.06210969 -0.06206176 -0.06201401 -0.06198268 -0.06196702
 -0.06197483 -0.06199969 -0.06202993 -0.06205862 -0.0620666 -0.0620551 -0.06201519 -0.06195861 -0.06189087 -0.06182569
 -0.06177387 -0.0617385 -0.06172536 -0.06172491 -0.06173557 -0.06175032 -0.06176652 -0.06178922 -0.06181913 -0.06185583
 -0.06189968 -0.06192888 -0.06194253 -0.06192206 -0.06187063 -0.06180252 -0.06171963 -0.06164054 -0.06155725 -0.06145516
 -0.06133455 -0.06118113 -0.06101978 -0.06087671 -0.06076825 -0.06072759 -0.06072779 -0.06076835 -0.06080281 -0.06080797
 -0.06077204 -0.06068061 -0.06056825 -0.06043837 -0.0603229 -0.06022777 -0.06014942 -0.06008832 -0.06002387 -0.05995537
 -0.05986965 -0.05976816 -0.05965446 -0.05953179 -0.05941546 -0.05930738 -0.05922201 -0.05915562 -0.05911096 -0.059076
 -0.05903864 -0.05898371 -0.05889079 -0.05876079 -0.05858168 -0.05838293 -0.05817274 -0.05797841 -0.05781439 -0.05766891
 -0.05754498 -0.05740909 -0.05725666 -0.05707582 -0.05686483 -0.05664343 -0.05641279 -0.05619654 -0.05599343 -0.05580687
 -0.05563132 -0.05544699 -0.05524612 -0.05499568 -0.05469584 -0.05432533 -0.05390414 -0.05344602 -0.05297811 -0.05253251
 -0.05211641 -0.0517475 -0.05141043 -0.05110587 -0.05080776 -0.05051137 -0.05018562 -0.04982404 -0.04940552 -0.04892504
 -0.0483899 -0.04779984 -0.04717663 -0.04652104 -0.04584424 -0.04514696 -0.04443878 -0.04372239 -0.04301583 -0.04231889
 -0.04164219 -0.04097971 -0.04032549 -0.0396729 -0.03901093 -0.03833486 -0.0376357 -0.03691413 -0.036166 -0.03540058
 -0.03462271 -0.03383194 -0.03303484 -0.03219964 -0.03132185 -0.03037196 -0.02934075 -0.02826343 -0.02714043 -0.02604596
 -0.0249821 -0.02397297 -0.02301314 -0.0220676 -0.02113223 -0.02016859 -0.01918051 -0.01815791 -0.01710911 -0.01604744
 -0.01497385 -0.01390127 -0.0128103 -0.01169026 -0.01051613 -0.009258088 -0.007939485 -0.006550851 -0.005167214 -0.003813486
 -0.00252072 -0.001309334 -0.0001240342 0.001037609 0.002242227 0.003496557 0.004803239 0.006161117 0.007524325 0.008892255
 0.01023843 0.01156928 0.01290088 0.01423869 0.01561012 0.01700966 0.01844195 0.01989349 0.02134588 0.02279411
 0.02422345 0.02564371 0.02705659 0.02847225 0.02989702 0.03133175 0.03277793 0.03423523 0.03570392 0.03718302
 0.03867286 0.04016773 0.0416668 0.04317515 0.0446935 0.04624583 0.04783192 0.04946253 0.05113064 0.05280813
 0.05448913 0.05613798 0.05776111 0.05935286 0.0609257 0.0624961 0.06406949 0.06565937 0.06726035 0.06887416
 0.07049049 0.07210268 0.07371315 0.07531718 0.07693856 0.07858127 0.08026482 0.08199549 0.08375499 0.08554348
 0.08732057 0.0890847 0.09081921 0.09252615 0.09421887 0.09589959 0.09758625 0.09927896 0.1009879 0.1027108
 0.1044495 0.1061978 0.1079475 0.1096941 0.1114273 0.1131529 0.11487 0.1165902 0.1183197 0.1200615
 0.1218198 0.123585 0.1253563 0.1271227 0.1288818 0.1306325 0.1323742 0.1341159 0.1358579 0.1376051
 0.1393567 0.1411051 0.1428502 0.1445851 0.1463121 0.1480362 0.1497568 0.1514764 0.1531903 0.1548905
 0.1565787 0.1582515 0.159919 0.1615892 0.1632632 0.1649467 0.1666265 0.1682993 0.1699552 0.1715899
 0.1732078 0.1748082 0.1764022 0.1779904 0.1795819 0.1811771 0.1827762 0.1843782 0.1859709 0.1875532
 0.1891116 0.1906482 0.1921619 0.1936558 0.195136 0.1966043 0.1980652 0.1995226 0.2009823 0.2024461
 0.2039195 0.205395 0.2068713 0.2083387 0.2097925 0.2112328 0.2126586 0.2140726 0.2154756 0.216863
 0.2182342 0.2195861 0.2209185 0.2222363 0.2235398 0.2248348 0.2261219 0.2274074 0.2286921 0.2299835
 0.2312778 0.2325714 0.2338571 0.2351194 0.2363613 0.2375769 0.2387811 0.2399845 0.2411934 0.2424173
 0.2436438 0.2448715 0.246086 0.2472824 0.2484587 0.2496133 0.2507533 0.2518791 0.252999 0.2541133
 0.2552234 0.256329 0.2574236 0.2585074 0.2595775 0.260636 0.261689 0.2627361 0.2637804 0.264818
 0.2658429 0.2668547 0.2678494 0.2688312 0.2698027 0.270765 0.2717197 0.2726649 0.2735997 0.2745261
 0.2754447 0.2763557 0.2772601 0.2781524 0.279032 0.2798962 0.2807449 0.2815829 0.2824104 0.2832298
 0.2840402 0.2848379 0.2856231 0.286393 0.2871489 0.2878924 0.2886243 0.2893469 0.2900604 0.2907669
 0.291464 0.292152 0.292825 0.2934798 0.2941136 0.2947232 0.2953132 0.2958837 0.2964408 0.2969859
 0.29752 0.2980436 0.2985557 0.2990564 0.2995448 0.3000209 0.3004838 0.3009337 0.3013711 0.3017958
 0.302208 0.3026056 0.3029836 0.3033412 0.303673 0.3039849 0.3042805 0.304567 0.3048529 0.3051363
 0.3054199 0.3056942 0.3059556 0.3061988 0.3064204 0.306625 0.306812 0.306993 0.3071688 0.3073512
 0.307541 0.3077398 0.3079468 0.3081495 0.3083462 0.3085207 0.3086731 0.3087949 0.3088881 0.3089528
 0.3089916 0.3090082 0.3090062 0.3089899 0.3089641 0.3089328 0.3089029 0.3088782 0.308867 0.3088742
 0.3088998 0.3089474 0.3089997 0.3090554 0.3090909 0.3091026 0.3090858 0.3090398 0.3089865 0.3089274
 0.3088908 0.3088757 0.3088914 0.3089322 0.3089817 0.3090337 0.309062 0.3090696 0.3090456 0.3090057
 0.3089627 0.3089329 0.308937 0.3089745 0.3090546 0.309159 0.3092837 0.3094096 0.3095298 0.3096387
 0.309733 0.3098212 0.3099034 0.3099942 0.3100943 0.3102134 0.3103516 0.3105101 0.3106889 0.3108883
 0.3111105 0.311365 0.3116539 0.3119906 0.3123669 0.3127798 0.3132063 0.3136185 0.3139947 0.3143017
 0.3145472 0.3147184 0.3148566 0.3149731 0.3151082 0.3152783 0.3154887 0.315746 0.3160241 0.3163217
 0.3166078 0.3168803 0.3171183 0.3173216 0.317483 0.3176042 0.3176931 0.3177529 0.3178002 0.3178362
 0.3178729 0.3179087 0.3179459 0.3179843 0.3180233 0.3180673 0.3181197 0.3181836 0.318265 0.3183542
 0.3184541 0.3185343 0.31859 0.3185847 0.3185088 0.3183529 0.3181113 0.3178198 0.3174797 0.3171459
 0.3168205 0.3165354 0.316288 0.3160738 0.3158884 0.3157112 0.3155399 0.3153572 0.3151639 0.3149526
 0.3147272 0.3144893 0.3142435 0.3139952 0.3137441 0.3134928 0.3132351 0.3129683 0.3126904 0.3123986
 0.3121002 0.3117954 0.3114939 0.311197 0.3109102 0.3106341 0.3103707 0.31012 0.3098773 0.3096409
 0.3093941 0.3091352 0.3088449 0.3085273 0.3081807 0.3078151 0.307449 0.307088 0.3067501 0.3064288
 0.3061257 0.3058284 0.3055285 0.3052205 0.3048986 0.3045676 0.3042275 0.3038847 0.3035411 0.3031967
 0.302852 0.3025026 0.302148 0.3017855 0.3014152 0.3010375 0.3006524 0.3002605 0.2998619 0.299457
 0.2990469 0.298635 0.2982228 0.2978151 0.2974108 0.297011 0.2966119 0.2962101 0.295804 0.2953904
 0.2949724 0.2945504 0.2941278 0.2937061 0.2932841 0.2928624 0.292435 0.2920014 0.2915548 0.2910946
 0.2906171 0.2901223 0.2896131 0.2890902 0.2885627 0.2880313 0.2875045 0.2869817 0.286465 0.2859531
 0.2854433 0.2849357 0.2844289 0.2839243 0.2834233 0.2829257 0.2824326 0.2819395 0.2814454 0.2809441
 0.2804334 0.2799104 0.2793733 0.2788277 0.2782727 0.2777255 0.2771869 0.2766763 0.2761942 0.2757414
 0.2753147 0.2748877 0.2744563 0.2739864 0.2734811 0.2729283 0.2723395 0.2717303 0.2711129 0.2705115
 0.2699306 0.2693852 0.2688683 0.2683825 0.2679126 0.2674532 0.2669912 0.26652 0.2660394 0.265547
 0.2650525 0.264557 0.2640651 0.2635774 0.26309 0.262603 0.2621199 0.2616429 0.2611936 0.2607738
 0.2604062 0.2600853 0.2598101 0.2595654 0.2593215 0.2590623 0.2587501 0.2583832 0.2579403 0.2574429
 0.2568948 0.2563288 0.2557623 0.2552113 0.2546888 0.2541812 0.2536892 0.2531907 0.2526816 0.2521594
 0.251623 0.2510872 0.2505525 0.2500255 0.2495051 0.2489826 0.2484575 0.2479224 0.2473799 0.2468354
 0.2462903 0.2457519 0.2452157 0.244679 0.2441344 0.2435728 0.2429924 0.2423877 0.2417642 0.2411235
 0.2404701 0.2398079 0.2391292 0.2384347 0.2377052 0.2369376 0.2361206 0.2352516 0.2343486 0.2334128
 0.2324874 0.2315741 0.2307082 0.2298865 0.2291111 0.2283748 0.2276551 0.2269475 0.2262305 0.2255055
 0.2247649 0.2240126 0.2232499 0.2224806 0.2217075 0.2209351 0.2201661 0.2194041 0.2186512 0.2179069
 0.2171718 0.2164432 0.2157201 0.2150059 0.2143001 0.2136166 0.2129559 0.2123318 0.2117434 0.2111881
 0.2106625 0.2101467 0.2096394 0.2091241 0.2086062 0.2080889 0.207579 0.2070909 0.2066214 0.2061757
 0.2057395 0.2053048 0.204859 0.2043925 0.2039044 0.2033914 0.2028604 0.2023122 0.2017519 0.2011803
 0.2006005 0.2000125 0.1994227 0.1988315 0.1982514 0.1976829 0.1971381 0.1966154 0.1961152 0.195632
 0.1951485 0.1946592 0.1941414 0.1935976 0.1930186 0.1924181 0.1918056 0.1911991 0.1906149 0.1900651
 0.189561 0.1891046 0.1886998 0.1883424 0.1880319 0.1877647 0.1875397 0.1873587 0.1872215 0.1871357
 0.1871018 0.1871286 0.1872169 0.1873755 0.1876061 0.1879213 0.1883235 0.1888283 0.1894357 0.1901552
 0.1909804 0.1919076 0.1929248 0.1940189 0.1951767 0.1963852 0.1976329 0.1989119 0.2002112 0.2015268
 0.2028457 0.2041653 0.2054692 0.2067551 0.2080058 0.2092199 0.2103812 0.2114888 0.2125252 0.2134887
 0.2143541 0.2151182 0.2157497 0.216245 0.2165746 0.2167366 0.2167111 0.2165008 0.2160974 0.2155157
 0.2147606 0.2138726 0.2128724 0.2118293 0.2107775 0.2097929 0.2089104 0.2081755 0.2076103 0.2072097
 0.2069801 0.206878 0.2069013 0.2069946 0.2071545 0.2073312 0.2075222 0.2076865 0.2078218 0.2078931
 0.2078973 0.2078047 0.2076134 0.2073028 0.2068768 0.20633 0.2056745 0.2049193 0.2040828 0.2031795
 0.2022319 0.2012551 0.2002652 0.199278 0.1982729 0.1972596 0.1961537 0.1949492 0.1935328 0.1918897
 0.1899789 0.1877962 0.1854367 0.1829111 0.1803973 0.1779033 0.1755721 0.173394 0.1714125 0.1696058
 0.1679433 0.1664069 0.1649516 0.1635705 0.1622373 0.1609524 0.1597073 0.1585058 0.1573465 0.1562377
 0.1551807 0.1541896 0.1532676 0.1524282 0.1516746 0.1510096 0.1504345 0.1499408 0.1495282 0.1491894
 0.1489246 0.1487364 0.1486249 0.1485943 0.1486402 0.1487518 0.1489139 0.149089 0.1492491 0.149334
 0.1493107 0.1491162 0.14873 0.148109 0.1472628 0.1461767 0.1448949 0.1434235 0.1418292 0.1401256
 0.1383838 0.136616 0.1348813 0.133187 0.1315739 0.1300452 0.1286255 0.1273148 0.1261169 0.1250246
 0.1239982 0.1230178 0.121988 0.1208858 0.1195974 0.1181264 0.1164128 0.1145092 0.1124433 0.1102994
 0.1081551 0.1060781 0.1041351 0.1023374 0.1007126 0.0992218 0.09786264 0.09658702 0.09538504 0.09423266
 0.09312508 0.09206206 0.09104325 0.09007277 0.08915046 0.08827302 0.08743934 0.0866401 0.08587402 0.08513102
 0.08441012 0.08370358 0.08301125 0.08232922 0.08165791 0.08099647 0.08034474 0.07970257 0.07906899 0.07844348
 0.07782499 0.07721328 0.07660636 0.07600395 0.07540307 0.07480299 0.07420286 0.07360213 0.07300457 0.07241034
 0.07182542 0.07124998 0.07068679 0.07013529 0.06959288 0.06905859 0.06852671 0.06799739 0.06746764 0.06693936
 0.06641484 0.06589513 0.06538375 0.0648775 0.06437568 0.0638726 0.06336396 0.06284836 0.06232287 0.06179303
 0.06125899 0.06072949 0.06020582 0.05969659 0.05920307 0.05873006 0.05827823 0.05784208 0.05742091 0.05699896
 0.05657571 0.05613879 0.0556904 0.05523296 0.0547698 0.05431197 0.05385993 0.05341996 0.05299051 0.05257155
 0.05216321 0.05176532 0.05137907 0.05100578 0.05064401 0.05029406 0.04995212 0.0496168 0.04928728 0.04896274
 0.0486463 0.04833835 0.04804018 0.04775211 0.04746915 0.04719097 0.04691003 0.04662649 0.04633807 0.0460459
 0.04575403 0.04546288 0.04517607 0.04489244 0.04461138 0.04433208 0.04405273 0.04377425 0.04349719 0.04322141
 0.04294777 0.04267317 0.0423968 0.04211487 0.04182588 0.04152858 0.04122216 0.04090814 0.04058637 0.04026059
 0.03993101 0.03960252 0.03927531 0.03895241 0.03863351 0.03831731 0.0380031 0.03768675 0.03736824 0.03704514
 0.03671832 0.03638842 0.03605628 0.03572351 0.03539012 0.03505667 0.03472304 0.034389 0.03405562 0.03372299
 0.03339343 0.03306787 0.03274692 0.03243124 0.03211834 0.03180815 0.03149693 0.03118438 0.03086853 0.03054937
 0.03022749 0.02990314 0.02957868 0.02925445 0.02893331 0.02861518 0.02830147 0.02799165 0.02768509 0.02738199
 0.02708206 0.02678641 0.0264965 0.02621155 0.02593238 0.02565502 0.02537786 0.02509797 0.0248132 0.02452627
 0.02423687 0.02395079 0.02366899 0.02339339 0.0231244 0.02285892 0.02259681 0.02233494 0.02207348 0.02181288
 0.02155348 0.02129741 0.0210445 0.02079546 0.02054977 0.02030664 0.02006599 0.01982745 0.01959081 0.01935616
 0.01912202 0.01888766 0.0186512 0.01841106 0.0181682 0.01792195 0.0176766 0.01743302 0.01719389 0.01696011
 0.01672905 0.01650064 0.01627138 0.01604119 0.01581034 0.01557905 0.0153497 0.01512194 0.01489517 0.01466887
 0.01444065 0.01421121 0.0139807 0.01375041 0.01352277 0.01329722 0.01307465 0.01285251 0.01262922 0.01240309
 0.01217225 0.01193864 0.01170203 0.01146644 0.0112328 0.01100338 0.01077886 0.01055808 0.01034102 0.0101257
 0.009912058 0.009700613 0.009491432 0.009285679 0.009082861 0.008881134 0.008679681 0.008474495 0.008266023 0.008052976
 0.007836851 0.007619582 0.007401643 0.007184832 0.006967374 0.006748631 0.006526852 0.006300626 0.006070448 0.005835893
 0.005598989 0.005360065 0.00512091 0.004881852 0.004643729 0.004406644 0.004171067 0.003937024 0.003704798 0.003474451
 0.003246706 0.00302174 0.002800901 0.002584311 0.002373459 0.002167503 0.001965686 0.001766249 0.001565978 0.001364193
 0.001158152 0.0009503289 0.0007412221 0.0005345326 0.0003328672 0.0001361664 -5.432518E-05 -0.0002426043 -0.0004294667 -0.0006174263
 -0.0008074323 -0.0009968873 -0.001185783 -0.001369517 -0.001547862 -0.001719504 -0.001884729 -0.002046487 -0.002205255 -0.002365361
 -0.002526668 -0.002691314 -0.002858176 -0.003025823 -0.003193148 -0.00335719 -0.003519051 -0.003678267 -0.003837712 -0.003999802
 -0.004165166 -0.004335883 -0.004507492 -0.004679361 -0.004845693 -0.005004364 -0.005155341 -0.00529753 -0.005438253 -0.005577949
 -0.005724399 -0.005878032 -0.006040028 -0.006209936 -0.006382269 -0.006556573 -0.006727155 -0.006894613 -0.007057742 -0.007217968
 -0.007377867 -0.007538819 -0.007704112 -0.007874665 -0.008052863 -0.008238724 -0.008433566 -0.00863523 -0.008843644 -0.009054307
 -0.009265668 -0.009474268 -0.009678249 -0.009879939 -0.01007888 -0.01028196 -0.01048993 -0.01070612 -0.01093077 -0.01115794
 -0.01138708 -0.01160884 -0.01182355 -0.01202818 -0.01222438 -0.01241656 -0.01260583 -0.0127973 -0.01299058 -0.0131872
 -0.01338677 -0.0135892 -0.0137948 -0.01400374 -0.01421634 -0.01443324 -0.01465301 -0.01487567 -0.01509831 -0.01532041
 -0.01553886 -0.01575284 -0.01596219 -0.01616653 -0.0163698 -0.0165722 -0.01677836 -0.01698823 -0.0172018 -0.01741856
 -0.01763498 -0.01785114 -0.01806526 -0.01827815 -0.01849128 -0.01870426 -0.01891766 -0.01912919 -0.01933623 -0.01953748
 -0.0197302 -0.0199167 -0.0200969 -0.02027513 -0.02045306 -0.02063323 -0.02081698 -0.02100349 -0.02119305 -0.0213831
 -0.02157341 -0.02176186 -0.02194832 -0.02213259 -0.02231482 -0.0224974 -0.02268043 -0.02286603 -0.02305364 -0.02324239
 -0.02343149 -0.02361821 -0.023803 -0.02398512 -0.02416583 -0.02434658 -0.02452759 -0.02470984 -0.02489215 -0.02507398
 -0.02525479 -0.02543419 -0.0256122 -0.02578896 -0.02596333 -0.02613517 -0.0263031 -0.0264668 -0.02662739 -0.02678487
 -0.0269434 -0.02710317 -0.0272675 -0.02743606 -0.02760844 -0.02778393 -0.0279595 -0.0281349 -0.02830769 -0.02847854
 -0.02864756 -0.02881535 -0.02898308 -0.02915003 -0.02931613 -0.02948022 -0.02964125 -0.02979971 -0.02995514 -0.03010984
 -0.03026435 -0.03042039 -0.03057859 -0.03073814 -0.0308991 -0.03105938 -0.03121883 -0.03137642 -0.03153212 -0.03168558
 -0.03183665 -0.03198423 -0.03212817 -0.03226681 -0.03240103 -0.03253153 -0.03266111 -0.03279461 -0.03293544 -0.03309008
 -0.03325959 -0.0334477 -0.03365219 -0.03387323 -0.03410716 -0.03435275 -0.03460673 -0.03486827 -0.03513403 -0.03540345
 -0.03567325 -0.03594308 -0.03621005 -0.03647395 -0.0367313 -0.03698178 -0.03721961 -0.03744448 -0.03765148 -0.03784048
 -0.03800914 -0.03815588 -0.0382764 -0.03836685 -0.03841831 -0.03842785 -0.03838667 -0.03829788 -0.03815594 -0.03798155
 -0.03777779 -0.03758893 -0.03743202 -0.03734506 -0.03734631 -0.03743486 -0.03761813 -0.03785771 -0.03815277 -0.03844405
 -0.03872772 -0.03895166 -0.03911516 -0.03921249 -0.0392491 -0.03926495 -0.0392626 -0.03927558 -0.03929887 -0.03933597
 -0.03938108 -0.0394243 -0.03946396 -0.03949276 -0.03951398 -0.03952749 -0.03953826 -0.03955045 -0.03956328 -0.03957878
 -0.03958977 -0.03959422 -0.03958852 -0.03957039 -0.03954691 -0.03951818 -0.0394952 -0.03947887 -0.03947324 -0.03947821
 -0.03948962 -0.03950709 -0.03952526 -0.03954467 -0.03956475 -0.03958655 -0.03961312 -0.03964427 -0.0396816 -0.0397232
 -0.03976723 -0.03981205 -0.039855 -0.03989687 -0.03993716 -0.03997767 -0.04001928 -0.04006243 -0.04010766 -0.04015381
 -0.04020071 -0.04024773 -0.04029463 -0.04034239 -0.04039105 -0.04044202 -0.0404953 -0.04055012 -0.04060619 -0.0406605
 -0.04071321 -0.04076301 -0.04081099 -0.0408596 -0.04090958 -0.04096416 -0.04102201 -0.04108303 -0.04114495 -0.0412053
 -0.04126345 -0.04131793 -0.04136995 -0.04141989 -0.04146793 -0.04151445 -0.04155819 -0.04159874 -0.04163671 -0.04167184
 -0.04170769 -0.04174452 -0.04178507 -0.04182936 -0.04187534 -0.0419226 -0.04196636 -0.04200672 -0.0420415 -0.04207145
 -0.04209793 -0.04212114 -0.04214228 -0.04216101 -0.04217692 -0.04219081 -0.04220293 -0.0422151 -0.04222878 -0.04224448
 -0.04226309 -0.04228348 -0.04230541 -0.04232825 -0.0423517 -0.04237634 -0.04240227 -0.04242939 -0.04245772 -0.04248659
 -0.04251597 -0.04254571 -0.04257575 -0.04260574 -0.04263548 -0.04266377 -0.04269055 -0.04271474 -0.04273687 -0.04275752
 -0.04277722 -0.04279709 -0.04281706 -0.04283762 -0.04285813 -0.04287821 -0.04289769 -0.0429162 -0.04293462 -0.04295298
 -0.04297289 -0.04299486 -0.043019 -0.04304567 -0.04307219 -0.04309846 -0.04312072 -0.04313883 -0.04315174 -0.04315979
 -0.04316578 -0.04317027 -0.0431778 -0.04318835 -0.04320456 -0.04322532 -0.04324986 -0.04327632 -0.04330157 -0.04332454
 -0.04334264 -0.04335656 -0.04336564 -0.0433719 -0.04337591 -0.04338006 -0.04338516 -0.04339317 -0.04340472 -0.04342065
 -0.04344138 -0.04346537 -0.04349265 -0.04351971 -0.04354635 -0.04356932 -0.04358868 -0.04360373 -0.04361495 -0.04362432
 -0.04363213 -0.04364052 -0.04364918 -0.04365842 -0.04366794 -0.04367711 -0.04368663 -0.043697 -0.04370887 -0.04372321
 -0.04373912 -0.04375665 -0.043774 -0.04379033 -0.04380557 -0.04381932 -0.04383327 -0.04384765 -0.04386356 -0.04388118
 -0.04389979 -0.04391938 -0.04393957 -0.04396047 -0.04398342 -0.0440084 -0.04403651 -0.04406689 -0.04409757 -0.04412721
 -0.04415157 -0.04417096 -0.0441833 -0.04419144 -0.04419748 -0.04420403 -0.04421421 -0.04422737 -0.04424442 -0.0442627
 -0.04428137 -0.04429921 -0.04431553 -0.04433135 -0.04434664 -0.04436315 -0.04438102 -0.04440206 -0.04442639 -0.04445474
 -0.04448694 -0.04452112 -0.04455705 -0.04459217 -0.044627 -0.04466179 -0.04469735 -0.04473599 -0.04477717 -0.04482158
 -0.04486696 -0.04491121 -0.04495233 -0.04498773 -0.04501804 -0.04504228 -0.04506383 -0.04508325 -0.04510487 -0.04512984
 -0.04516072 -0.04519837 -0.04524164 -0.0452907 -0.04534156 -0.04539403 -0.04544356 -0.04549008 -0.04553156 -0.04556846
 -0.04560202 -0.04563319 -0.0456659 -0.04570072 -0.04574109 -0.04578654 -0.04583826 -0.04589442 -0.04595378 -0.04601391
 -0.04607256 -0.04612822 -0.04617913 -0.04622613 -0.04626863 -0.04631 -0.04635076 -0.0463943 -0.0464414 -0.04649279
 -0.04654877 -0.04660713 -0.04666777 -0.04672801 -0.04678785 -0.04684655 -0.0469044 -0.04696277 -0.04702182 -0.04708307
 -0.04714611 -0.04721094 -0.04727673 -0.04734212 -0.04740664 -0.04746928 -0.04752978 -0.04758767 -0.04764279 -0.04769465
 -0.04774429 -0.04779143 -0.04783944 -0.04788897 -0.04794318 -0.04800292 -0.04806804 -0.04813881 -0.04821141 -0.04828564
 -0.0483574 -0.04842665 -0.04849162 -0.04855266 -0.0486109 -0.04866688 -0.04872312 -0.04877989 -0.04883927 -0.04890085
 -0.04896503 -0.04903097 -0.04909779 -0.04916497 -0.04923186 -0.04929806 -0.04936334 -0.04942703 -0.04948882 -0.04954838
 -0.04960537 -0.04966079 -0.04971466 -0.04976863 -0.04982296 -0.04987767 -0.04993282 -0.04998633 -0.05003813 -0.05008643
 -0.05013147 -0.05017363 -0.05021335 -0.05025275 -0.05029169 -0.05033109 -0.05037019 -0.05040815 -0.05044432 -0.05047728
 -0.05050757 -0.05053487 -0.05056074 -0.05058582 -0.0506118 -0.05063959 -0.05066964 -0.05070255 -0.05073663 -0.05077193
 -0.0508053 -0.0508364 -0.05086352 -0.0508865 -0.05090709 -0.05092542 -0.05094399 -0.05096259 -0.05098088 -0.05099839
 -0.05101283 -0.05102452 -0.05103289 -0.05103915 -0.05104518 -0.05105171 -0.0510608 -0.05107132 -0.05108331 -0.05109471
 -0.05110425 -0.05111098 -0.05111373 -0.05111445 -0.05111317 -0.05111309 -0.05111502 -0.05111954 -0.05112706 -0.05113403
 -0.05114026 -0.05114131 -0.05113714 -0.05112692 -0.05111123 -0.05109341 -0.0510741 -0.05105785 -0.05104455 -0.05103662
 -0.05103286 -0.05103233 -0.05103374 -0.05103492 -0.05103576 -0.0510354 -0.05103407 -0.05103214 -0.0510281 -0.05102156
 -0.05101079 -0.05099452 -0.05097541 -0.05095315 -0.05093442 -0.05091999 -0.05091397 -0.05091678 -0.05092535 -0.05093929
 -0.05095132 -0.0509613 -0.05096446 -0.05096168 -0.05095382 -0.05094216 -0.0509305 -0.05091954 -0.05091236 -0.05090879
 -0.0509102 -0.05091502 -0.0509231 -0.05093058 -0.05093555 -0.05093366 -0.05092191 -0.05090111 -0.05086983 -0.05083515
 -0.05079813 -0.05076436 -0.05073507 -0.05070814 -0.05068363 -0.05065551 -0.05062362 -0.0505852 -0.05054067 -0.05049207
 -0.05043988 -0.05038733 -0.05033439 -0.05028269 -0.05023183 -0.05018172 -0.05013236 -0.05008362 -0.05003591 -0.04998987
 -0.04994475 -0.04990095 -0.0498553 -0.04980645 -0.04975277 -0.04969263 -0.04962996 -0.04956483 -0.04950329 -0.04944623
 -0.04939597 -0.04935285 -0.04931416 -0.04927968 -0.04924439 -0.04920803 -0.04916589 -0.04911852 -0.04906512 -0.0490074
 -0.04894972 -0.04889295 -0.04884165 -0.04879347 -0.04874763 -0.04870058 -0.04864812 -0.04859014 -0.04852442 -0.04845504
 -0.04838321 -0.04831222 -0.04824384 -0.04817709 -0.04811253 -0.04804587 -0.04797675 -0.04790126 -0.04781901 -0.04772967
 -0.04763341 -0.04753406 -0.04743223 -0.04733458 -0.04724116 -0.04715671 -0.04707908 -0.04700549 -0.04693183 -0.04684814
 -0.0467536 -0.04664081 -0.04651682 -0.04638468 -0.04625307 -0.0461298 -0.04601528 -0.0459127 -0.04581613 -0.0457244
 -0.04563301 -0.04554073 -0.04544608 -0.04534884 -0.04524731 -0.04514137 -0.04502976 -0.0449125 -0.04479001 -0.0446624
 -0.04453068 -0.04439516 -0.0442578 -0.0441191 -0.04398189 -0.04384571 -0.04371121 -0.04357728 -0.04344251 -0.04330653
 -0.04316871 -0.04302819 -0.04288482 -0.04273588 -0.04257954 -0.04241636 -0.04224486 -0.04207245 -0.04190043 -0.04173414
 -0.04157531 -0.04141808 -0.04126232 -0.04109824 -0.04092557 -0.0407428 -0.0405505 -0.04035361 -0.04015172 -0.03994576
 -0.0397341 -0.03951172 -0.03927881 -0.03903218 -0.0387756 -0.03851302 -0.03824766 -0.03798556 -0.03772374 -0.03746305
 -0.03719686 -0.03692134 -0.0366361 -0.03633875 -0.03603728 -0.03573303 -0.03543178 -0.03513535 -0.03483869 -0.03454187
 -0.03423312 -0.03391188 -0.03356879 -0.03320448 -0.03282025 -0.03241843 -0.03201156 -0.03160037 -0.03119528 -0.03079174
 -0.03038625 -0.02997231 -0.02953825 -0.02908232 -0.02859765 -0.02808724 -0.02755151 -0.02699175 -0.02640998 -0.02580165
 -0.02516721 -0.02449595 -0.02378632 -0.02302639 -0.02221312 -0.02134968 -0.02043513 -0.0194935 -0.0185259 -0.01755031
 -0.01656547 -0.01556452 -0.01454677 -0.0135037 -0.0124393 -0.01136385 -0.01027626 -0.009183712 -0.008072157 -0.006922969
 -0.005728332 -0.004465415 -0.003157008 -0.001808601 -0.0004514632 0.0008928195 0.002225759 0.003539856 0.00485805 0.006185132
 0.007531291 0.008899014 0.01028806 0.01169741 0.0131493 0.01464521 0.01622985 0.01790193 0.0196694 0.02151944
 0.0233875 0.02526633 0.02709155 0.02888051 0.03063721 0.03238522 0.03416401 0.03598209 0.03786132 0.03980838
 0.0418252 0.04394739 0.04618441 0.04859452 0.05120236 0.05403075 0.05709995 0.06035264 0.06378996 0.06730809
 0.07089878 0.07447856 0.07804327 0.08156169 0.085039 0.08851343 0.09200401 0.09562994 0.09941056 0.1034914
 0.1078361 0.1124613 0.1172624 0.1220731 0.1268572 0.1314791 0.1360443 0.1405785 0.1452039 0.1500034
 0.1549939 0.1602083 0.1655943 0.1711437 0.1768293 0.1826484 0.1885662 0.194582 0.2006239 0.2066884
 0.2127552 0.2188241 0.2249012 0.2309643 0.2368934 0.2426631 0.2480967 0.2532445 0.2581134 0.2628078
 0.2675208 0.2722472 0.2771007 0.2819064 0.2865547 0.2909628 0.2950186 0.2988512 0.3024883 0.3060085
 0.3094607 0.3127368 0.3158299 0.3186264 0.3211084 0.3233077 0.3252252 0.3269461 0.3284687 0.3297964
 0.3309188 0.3317707 0.3323574 0.3326568 0.332696 0.3325227 0.3321683 0.331699 0.3311483 0.3305728
 0.3300089 0.3294981 0.3290751 0.3287631 0.3286016 0.3286047 0.3288192 0.3292619 0.3299453 0.3308811
 0.3320111 0.3333324 0.3347769 0.3363405 0.3380214 0.339822 0.3417795 0.3438927 0.3461736 0.3486162
 0.3512036 0.3539341 0.3567943 0.3597875 0.3629121 0.3661759 0.3695837 0.3731522 0.3768927 0.3808284
 0.384973 0.3893459 0.3939573 0.3988174 0.4039316 0.409299 0.4149216 0.4207861 0.4268932 0.433208
 0.4397289 0.4463831 0.4531682 0.4600241 0.4669673 0.4740636 0.4813404 0.4889617 0.4968783 0.5050954
 0.513454 0.5216945 0.5296919 0.5372037 0.5441555 0.5504684 0.5559143 0.5603933 0.5635822 0.5653273
 0.5654818 0.5639823 0.5607582 0.5557972 0.5489755 0.540247 0.529938 0.5180581 0.5056541 0.4927701
 0.4802538 0.4680586 0.4562964 0.4449133 0.4337581 0.4228397 0.4121082 0.4015839 0.3912962 0.3812128
 0.371319 0.3615488 0.3518167 0.3421691 0.3325582 0.3232239 0.3142498 0.3057987 0.2979667 0.2906255
 0.2837802 0.2772185 0.2709133 0.2647912 0.2588452 0.2531155 0.2476034 0.2423364 0.2373121 0.232524
 0.2279755 0.2236782 0.2196343 0.2158681 0.2123481 0.2090493 0.2058935 0.2027859 0.1996419 0.1963528
 0.1928919 0.189201 0.1853275 0.1812714 0.1770984 0.1728207 0.1685069 0.1641556 0.1599213 0.1558135
 0.1520353 0.1486025 0.1455333 0.1428166 0.140247 0.1378046 0.1352485 0.1325839 0.1296915 0.126613
 0.1233896 0.1200728 0.1167707 0.1135199 0.1104017 0.1074534 0.1047268 0.102264 0.1001036 0.09826846
 0.0967777 0.09563442 0.09484091 0.09440661 0.09433171 0.09463577 0.09532132 0.09639889 0.09786993 0.09971885
 0.101941 0.104458 0.1072487 0.1101306 0.1130759 0.1158689 0.1185074 0.1208723 0.1229845 0.124826
 0.1264228 0.1277896 0.1289791 0.1300225 0.1310223 0.1320387 0.1331759 0.1345054 0.136024 0.137765
 0.1396002 0.1415117 0.1433996 0.1452443 0.147057 0.1488366 0.1506331 0.1524489 0.1543205 0.1562505
 0.1582712 0.1603893 0.1626451 0.1650546 0.1676738 0.1705347 0.1737174 0.1772563 0.1812307 0.1856508
 0.1905496 0.1959366 0.2018125 0.2082339 0.2152235 0.2228272 0.2310855 0.2399062 0.2492988 0.2590457
 0.2691232 0.279368 0.2897653 0.3002847 0.3109218 0.3216086 0.3323082 0.3427148 0.3527617 0.3619966
 0.3703799 0.3775755 0.3835645 0.3881727 0.3913512 0.3929666 0.3929853 0.3912992 0.3880015 0.3830752
 0.3767615 0.3691259 0.3604779 0.3508994 0.3406924 0.3299168 0.3188291 0.3074603 0.2960357 0.2845709
 0.273298 0.2622284 0.2515616 0.2412971 0.23152 0.2222202 0.2133918 0.2050387 0.1971643 0.1897884
 0.1829568 0.1766691 0.170956 0.1657736 0.1611032 0.156872 0.1530383 0.1495168 0.1462705 0.1432055
 0.1402916 0.1374477 0.1346506 0.131868 0.1290893 0.1263378 0.123613 0.1209726 0.1184206 0.1160416
 0.1138438 0.111935 0.1103195 0.1090833 0.1082049 0.107681 0.1074558 0.107428 0.107528 0.1076198
 0.1076528 0.1075251 0.1072315 0.1067302 0.1060619 0.1052301 0.1042879 0.1032534 0.1021558 0.1010064
 0.09980506 0.09855431 0.09724033 0.09586225 0.09440973 0.09288263 0.09128559 0.08962045 0.08790556 0.08614239
 0.08434788 0.08252168 0.08066972 0.07879531 0.0769027 0.07500865 0.07313128 0.07130484 0.06956284 0.0679493
 0.06650133 0.06525357 0.06423344 0.06344837 0.06291093 0.06259786 0.06251106 0.06260279 0.0628707 0.06324724
 0.06372845 0.06423355 0.06475829 0.0652305 0.06564945 0.06597746 0.06621972 0.06637969 0.06646603 0.06650735
 0.06650833 0.06649627 0.06646194 0.0664101 0.06631228 0.06614672 0.06587604 0.06546783 0.06489953 0.06414714
 0.06322247 0.06211733 0.06087843 0.05950882 0.05807613 0.05658714 0.05511239 0.05365757 0.05228182 0.05098817
 0.04981727 0.0487694 0.04786392 0.04709823 0.0464712 0.04597715 0.04559952 0.04532998 0.04514491 0.04503381
 0.04497202 0.0449507 0.04495052 0.04497147 0.04500528 0.04506292 0.04514674 0.04526906 0.04543535 0.04564897
 0.04591279 0.04622061 0.04657277 0.04695731 0.04737377 0.04780454 0.04824859 0.04868491 0.04911241 0.04951236
 0.04988436 0.05021617 0.05050831 0.05075532 0.05095953 0.05112251 0.05124849 0.05134396 0.05141351 0.05146395
 0.0514992 0.0515236 0.05154113 0.05155441 0.05156733 0.05158183 0.05159972 0.05162209 0.05164761 0.05167633
 0.05170613 0.05173659 0.05177031 0.05180749 0.05185869 0.05192455 0.05201755 0.05213528 0.05227498 0.05242649
 0.05255804 0.05265372 0.05266181 0.05257445 0.05235093 0.05200751 0.05153879 0.05098484 0.05036964 0.04973503
 0.04910908 0.0485129 0.0479616 0.04745511 0.04699676 0.04657879 0.04620065 0.04585497 0.04554117 0.04525236
 0.04498812 0.04474009 0.04450732 0.04427691 0.04404661 0.04379753 0.04352714 0.04321624 0.04286505 0.04246329
 0.04201584 0.04152373 0.0409975 0.0404457 0.03988652 0.0393323 0.03880861 0.03832837 0.03792045 0.03759502
 0.03738163 0.03728637 0.03734232 0.0375535 0.0379562 0.03855406 0.03937438 0.04041876 0.04168529 0.04317017
 0.04482812 0.04664883 0.04855182 0.0505248 0.05248173 0.05441799 0.05627681 0.0580685 0.05978073 0.06143576
 0.06305358 0.06465174 0.06625583 0.06785593 0.06946199 0.07103017 0.07255092 0.07397354 0.07528121 0.0764576
 0.07749268 0.07842069 0.07924134 0.08001903 0.08075729 0.08152051 0.0823114 0.08317938 0.08412591 0.08518503
 0.08635707 0.0876627 0.08909889 0.09067127 0.09237047 0.09418648 0.09610377 0.0981027 0.1001666 0.1022772
 0.1044214 0.106588 0.1087683 0.1109569 0.1131489 0.1153414 0.1175365 0.119733 0.1219418 0.1241635
 0.1264098 0.1286815 0.1309754 0.1332893 0.1355942 0.1378846 0.1401114 0.1422687 0.1443072 0.146225
 0.1479909 0.1496106 0.1510762 0.1524028 0.1536008 0.1546962 0.1557074 0.1566716 0.1576085 0.1585617
 0.1595492 0.1606089 0.1617557 0.1630017 0.1643559 0.1657883 0.1673001 0.1688243 0.1703572 0.171824
 0.1732222 0.1745029 0.1756696 0.1767165 0.177653 0.1785092 0.1792962 0.180056 0.1807953 0.1815459
 0.1823055 0.1830874 0.1838766 0.1846717 0.1854379 0.1861636 0.1867928 0.1873066 0.1876458 0.1877903
 0.1877102 0.1873926 0.186857 0.1861005 0.1851842 0.1841112 0.182961 0.1817379 0.1805187 0.1793067
 0.1781623 0.1770864 0.1761163 0.1752504 0.1745049 0.1738748 0.1733623 0.1729528 0.1726368 0.1723785
 0.1721555 0.1719055 0.1715952 0.1711517 0.1705403 0.1697094 0.1686341 0.167311 0.1657298 0.1639387
 0.1619381 0.1598099 0.1575588 0.1552736 0.1529583 0.1506849 0.1484538 0.1463047 0.1442336 0.1422469
 0.1403389 0.1384979 0.1367229 0.1350051 0.1333499 0.1317612 0.130241 0.1287986 0.1274129 0.1260855
 0.1247567 0.1234151 0.1219666 0.1203902 0.1185872 0.1165366 0.1141759 0.1114923 0.1084894 0.1051652
 0.101592 0.09777628 0.0938384 0.08978961 0.08576594 0.08177935 0.0779503 0.07428707 0.07087357 0.06771084
 0.06484081 0.06225655 0.05996821 0.05796143 0.05623087 0.05475254 0.05351719 0.05248427 0.05164322 0.05093253
 0.05033921 0.04979081 0.04927391 0.04872854 0.04814546 0.04749625 0.04677783 0.04599265 0.04514138 0.04424036
 0.04329024 0.04230348 0.04127941 0.0402211 0.03912898 0.03800421 0.03685144 0.03567844 0.03449288 0.03330791
 0.03212866 0.03096551 0.02981678 0.02868618 0.0275645 0.02645031 0.02532991 0.02419907 0.02304862 0.02187408
 0.02068406 0.01947691 0.01828299 0.01710378 0.01597894 0.01491026 0.01392794 0.01303174 0.01223414 0.01153268
 0.01092424 0.01040482 0.009962428 0.009592741 0.009282328 0.009027653 0.008819209 0.008653267 0.008524299 0.008426545
 0.008355774 0.008305067 0.008269876 0.008248399 0.008237021 0.00824638 0.008275284 0.008349702 0.008471289 0.008673218
 0.008958243 0.009345056 0.009833252 0.01040265 0.01104618 0.01169917 0.01234976 0.01291139 0.01337469 0.01366644
 0.01378756 0.01370084 0.01342325 0.01295563 0.01233372 0.01158442 0.01075631 0.00988461 0.009013786 0.008171539
 0.007383877 0.006664652 0.006023065 0.005463155 0.004988024 0.004598627 0.004295648 0.00407948 0.003943883 0.003888272
 0.003897978 0.003971797 0.004092738 0.004260612 0.00446538 0.004707933 0.004986807 0.005300264 0.005646483 0.00601751
 0.006402521 0.006792577 0.00717316 0.007545664 0.007903603 0.008261226 0.008622473 0.009002086 0.009406789 0.009838938
 0.01030208 0.0107838 0.0112846 0.01177932 0.01226682 0.01271147 0.01311136 0.01343077 0.0136697 0.01381144
 0.01386133 0.01383366 0.01373849 0.01361227 0.01346505 0.01333401 0.01322619 0.0131665 0.01315966 0.01321892
 0.01334659 0.0135493 0.01382296 0.01416912 0.01457636 0.0150423 0.01555444 0.01610968 0.01670079 0.01732654
 0.01798229 0.01866816 0.01936984 0.02008612 0.02078227 0.02145486 0.02205637 0.02258568 0.02300926 0.02333408
 0.02356128 0.0237047 0.02379258 0.02383809 0.02387246 0.02390267 0.02394818 0.02400751 0.02408721 0.02417784
 0.02427728 0.024375 0.02446575 0.02454962 0.02462371 0.02470191 0.02478493 0.02489067 0.02502081 0.02518551
 0.02538512 0.02561477 0.02587239 0.02613613 0.02640198 0.02663798 0.02684154 0.02698609 0.02707495 0.02709942
 0.02707135 0.02700109 0.02690827 0.02681478 0.02674071 0.02670837 0.0267241 0.02680063 0.02692237 0.0270901
 0.02727482 0.02747064 0.02765487 0.02782197 0.02797131 0.02810112 0.02823495 0.02837411 0.02855191 0.02876927
 0.02904853 0.02938757 0.02978783 0.0302447 0.0307448 0.03128282 0.03184137 0.0324154 0.0329904 0.0335619
 0.03412104 0.03466203 0.03517963 0.03566503 0.03611302 0.03651629 0.03687004 0.03717609 0.03743272 0.03765006
 0.0378289 0.03798068 0.03810646 0.03821393 0.0383035 0.03837783 0.03843679 0.03847933 0.03850613 0.03851927
 0.0385217 0.03852407 0.0385296 0.03855121 0.03858931 0.03864983 0.03873295 0.03883937 0.03897415 0.0391398
 0.03934498 0.03959482 0.03989455 0.04024856 0.04065264 0.04110913 0.04159946 0.04212366 0.04264813 0.043171
 0.04365029 0.04408365 0.04443364 0.04469963 0.04486227 0.04492483 0.04489361 0.04477612 0.04459961 0.04437358
 0.04413155 0.04388314 0.04365664 0.04346173 0.04331914 0.04323552 0.04322352 0.04328173 0.04341409 0.04361224
 0.04387455 0.04419239 0.04456365 0.04498158 0.04544522 0.0459478 0.04648878 0.04706077 0.04766333 0.04828966
 0.04893971 0.04961099 0.05030412 0.05102276 0.05176547 0.05253253 0.05331463 0.05409408 0.05485302 0.05555654
 0.0561873 0.05671167 0.05712254 0.05740134 0.0575547 0.05757742 0.05749163 0.05729914 0.05703895 0.05671659
 0.05638279 0.05604461 0.05574922 0.05550197 0.05533242 0.05524257 0.05524301 0.05533363 0.05551508 0.05578653
 0.05614486 0.05658674 0.05710015 0.05767857 0.05830061 0.05896144 0.05964444 0.06034498 0.06105344 0.06176094
 0.06245228 0.0631393 0.06380767 0.06453227 0.06532536 0.06629962 0.06750217 0.06891563 0.07056707 0.07224353
 0.07392367 0.07548677 0.07692353 0.07829328 0.07959791 0.08088253 0.08213393 0.08329203 0.08433722 0.08516295
 0.0857624 0.08606404 0.08607382 0.08576574 0.08515953 0.0842591 0.08310947 0.08173601 0.08021227 0.07857481
 0.07691281 0.07526328 0.07370275 0.07225844 0.0709697 0.06984923 0.06890029 0.06812569 0.06750984 0.0670522
 0.06672164 0.0665149 0.06637824 0.06630567 0.0662307 0.06615014 0.06601387 0.06582751 0.06557689 0.06527624
 0.06494271 0.06459036 0.06424535 0.06390847 0.06359349 0.06328292 0.06297313 0.06264041 0.0622741 0.06186121
 0.06139269 0.0608815 0.0603241 0.05976454 0.05920559 0.05869905 0.05824852 0.05787842 0.05758878 0.05737866
 0.05724847 0.05720197 0.05723912 0.05736558 0.05757276 0.05784363 0.05816494 0.05850388 0.05885636 0.05920297
 0.05954789 0.05989098 0.06022787 0.06056076 0.06086849 0.0611453 0.06136674 0.06152397 0.06160773 0.06161264
 0.06155163 0.06142383 0.06125975 0.061061 0.06086389 0.06067011 0.06050977 0.060383 0.06030597 0.06027616
 0.06029328 0.0603523 0.06043961 0.06055216 0.06067554 0.06081607 0.0609728 0.06116158 0.06139532 0.0616871
 0.06205108 0.06248397 0.06299108 0.06355301 0.06416741 0.0648095 0.06547501 0.06614356 0.06681217 0.06747063
 0.06811801 0.06875183 0.0693719 0.06997553 0.07056212 0.07112601 0.07166705 0.07218163 0.07267003 0.07313237
 0.07356607 0.07396847 0.0743318 0.07464673 0.07490225 0.07508738 0.07518862 0.07519792 0.07509559 0.07487451
 0.07450997 0.07399395 0.07330938 0.07245062 0.07141658 0.07020582 0.06882618 0.06727773 0.06557667 0.06372508
 0.06176483 0.05970247 0.05760762 0.05548668 0.05340534 0.05136341 0.04939401 0.04749392 0.04566952 0.04392548
 0.04226757 0.04070843 0.03926412 0.03793455 0.03673206 0.0356255 0.03460914 0.03363955 0.03270096 0.03177587
 0.03085526 0.02995364 0.0290714 0.02822445 0.02741433 0.02663992 0.02590122</values></Ydata></AB><ScSm><Ydata ylabel="Single channel"><values byteorder="INTEL" format="FLOAT32" numvalues="1814"> 0.08092966 0.08103976 0.08116382 0.08130751 0.08146467 0.08162184 0.08176658 0.08189485 0.08200997 0.08211416
 0.08220989 0.08231066 0.08243721 0.08259558 0.08276753 0.08292486 0.08304912 0.08314522 0.08324269 0.08337119
 0.08352211 0.08364322 0.08368541 0.08365492 0.08361205 0.08361571 0.0836831 0.08381896 0.08405142 0.08437299
 0.08465609 0.08473326 0.08460255 0.08446293 0.08449365 0.08467469 0.08486265 0.0849518 0.08491799 0.08480931
 0.08476879 0.08498849 0.08553615 0.08621401 0.08661944 0.08637519 0.08537784 0.08393794 0.08271175 0.08236089
 0.0830764 0.08437091 0.08544205 0.08581981 0.08562733 0.085249 0.08492678 0.08474347 0.08479539 0.08517979
 0.0858344 0.08647244 0.08669089 0.08623031 0.08526483 0.084382 0.0841077 0.0844935 0.08528372 0.0862325
 0.08688965 0.08635835 0.08406943 0.08100612 0.07943289 0.08081612 0.08429182 0.08756609 0.08901265 0.08855271
 0.08701009 0.08536783 0.08450713 0.08490683 0.08632887 0.0880577 0.08947648 0.090248 0.09016496 0.08923364
 0.08786935 0.08672614 0.08633521 0.08695323 0.08846101 0.09020007 0.09122502 0.09104754 0.09000769 0.08882165
 0.08804449 0.0880338 0.08897829 0.09068026 0.0925693 0.09412581 0.09515667 0.09568006 0.09579252 0.09565078
 0.09539831 0.09514147 0.09505562 0.0953016 0.09571874 0.09584826 0.09544084 0.09479152 0.09444229 0.09462243
 0.09504941 0.09527314 0.09512455 0.09464082 0.09360878 0.09166089 0.08901919 0.08662547 0.08522712 0.08484228
 0.08534685 0.08680984 0.0887877 0.09007583 0.08990506 0.0889723 0.08869321 0.08967183 0.0913074 0.0926891
 0.09349089 0.09404188 0.09480224 0.09583872 0.09667893 0.09665178 0.09556168 0.09412531 0.09350405 0.09418701
 0.09551738 0.0965105 0.09689903 0.09713391 0.09757847 0.09797879 0.09768012 0.09632307 0.09444273 0.09329682
 0.09383431 0.09575824 0.09766975 0.09813152 0.09669378 0.09413515 0.09180218 0.09064048 0.09081748 0.09209486
 0.09416956 0.09654349 0.0984429 0.09920584 0.0987393 0.09750128 0.09600368 0.09434293 0.09236594 0.0903848
 0.08938543 0.09011471 0.09212174 0.09410618 0.09512125 0.09511365 0.09440625 0.0930621 0.09094823 0.08835961
 0.08631218 0.08580661 0.08670327 0.08773199 0.08784047 0.08718276 0.08656552 0.08632962 0.08614728 0.08569144
 0.08511397 0.08482042 0.08495365 0.08522169 0.08521825 0.08480836 0.0841614 0.0835052 0.08291084 0.08225937
 0.0814223 0.08053691 0.08000481 0.08007243 0.08050188 0.0808094 0.0807443 0.08039483 0.07990409 0.07923524
 0.07824683 0.07697478 0.07578155 0.07510556 0.07503377 0.07523298 0.07531001 0.07510828 0.07466874 0.07408387
 0.07343861 0.07278642 0.07215093 0.07157852 0.07113714 0.07082324 0.07053326 0.07016592 0.06970358 0.06917711
 0.06860346 0.06798372 0.06734031 0.06673335 0.06622425 0.06582126 0.06547871 0.06514796 0.06480017 0.06440835
 0.06395254 0.06344862 0.06293902 0.06245356 0.06200017 0.06158454 0.06121488 0.06088689 0.06057563 0.0602495
 0.05989435 0.05951932 0.0591378 0.05875335 0.05836967 0.05800037 0.05766108 0.0573575 0.05708043 0.05680982
 0.05653511 0.05627107 0.05603327 0.05580106 0.05553334 0.05522178 0.0549021 0.05461252 0.05436213 0.05413648
 0.05391532 0.05368163 0.0534243 0.05314253 0.05285576 0.0526019 0.05241031 0.05227746 0.05217806 0.0520884
 0.05198853 0.05186169 0.05170942 0.05155238 0.05140461 0.05125968 0.05110812 0.05095594 0.05082224 0.05072349
 0.05065826 0.05060582 0.05054462 0.05046859 0.05038346 0.05029993 0.05023362 0.05019299 0.05016094 0.05010767
 0.05002838 0.04995177 0.04990575 0.04988752 0.04987129 0.04983748 0.04979123 0.04975414 0.04974037 0.04974471
 0.04975316 0.04975932 0.04976743 0.04978275 0.04980008 0.04980337 0.049783 0.04975156 0.04973286 0.04973638
 0.04975303 0.04977348 0.04979818 0.04982876 0.04985964 0.0498818 0.04989178 0.04989473 0.04989725 0.04989814
 0.04989076 0.04987394 0.0498537 0.04983377 0.04981161 0.04978444 0.04975296 0.04971768 0.04967677 0.04962779
 0.04956957 0.04950216 0.04942591 0.04934169 0.04925384 0.04917095 0.04909845 0.04902915 0.04894628 0.04883894
 0.04871277 0.04858448 0.04846721 0.04836152 0.04825938 0.04815551 0.04805346 0.04796117 0.04788297 0.04781667
 0.04775617 0.04769589 0.04763526 0.04758104 0.04754332 0.04752698 0.04752667 0.04753151 0.04753411 0.04753436
 0.04753608 0.0475428 0.04755662 0.04757856 0.0476092 0.0476492 0.04769831 0.04775302 0.04780873 0.04786472
 0.04792539 0.04799535 0.0480765 0.04816885 0.0482698 0.04837219 0.04846844 0.04855843 0.04864979 0.04874984
 0.04886059 0.04898137 0.04911185 0.04925107 0.0493967 0.04954801 0.04970781 0.04987998 0.05006596 0.05026334
 0.05046643 0.05066855 0.05086726 0.05106794 0.05127996 0.05150784 0.05174713 0.05198905 0.05222812 0.05246609
 0.05270938 0.05296251 0.05322409 0.05349078 0.05376373 0.05404731 0.05434111 0.05463773 0.05493033 0.05521963
 0.05551146 0.05580988 0.05611447 0.05642295 0.05673368 0.05704541 0.05735565 0.05766078 0.05795915 0.05825447
 0.05855408 0.05886294 0.05917941 0.05949627 0.05980436 0.06009725 0.0603767 0.06065382 0.06094009 0.06123545
 0.0615286 0.0618107 0.06208545 0.06236291 0.06264663 0.0629307 0.06320892 0.06348271 0.06375884 0.06404052
 0.06432344 0.06460064 0.06487095 0.06514089 0.06541796 0.06570399 0.06599763 0.06629992 0.06661266 0.06693211
 0.06725087 0.06756622 0.06788167 0.06820032 0.06852251 0.06884912 0.06918126 0.06951658 0.06985006 0.0701782
 0.07049973 0.07081564 0.07113203 0.07145894 0.07180196 0.07215786 0.07252184 0.07289498 0.07327883 0.07366608
 0.07404447 0.07441075 0.07477309 0.07513539 0.07548632 0.07581068 0.07610732 0.07638857 0.07666661 0.07695009
 0.0772512 0.07758439 0.0779537 0.07834703 0.07874446 0.07913093 0.079503 0.07986817 0.08023657 0.08061038
 0.080981 0.08133763 0.08167681 0.08200278 0.08232087 0.08263102 0.08292573 0.08319184 0.0834152 0.08358309
 0.08368225 0.08369865 0.083624 0.08346044 0.08321336 0.08287999 0.08245121 0.0819249 0.08131142 0.08062423
 0.07987138 0.07906203 0.0782211 0.07739769 0.07666044 0.07608292 0.07572703 0.07563227 0.07581168 0.07624764
 0.07688456 0.07762641 0.07835022 0.07893449 0.07929051 0.07938216 0.07922781 0.07888465 0.07842436 0.07791361
 0.07740729 0.07694895 0.07657162 0.07630301 0.07617964 0.07625569 0.07659042 0.07722886 0.07820157 0.07953008
 0.08120052 0.08311704 0.08510214 0.08697104 0.08861852 0.09004099 0.09129323 0.09243574 0.09350953 0.09453294
 0.0955057 0.09641601 0.09724875 0.0979912 0.09863449 0.09917153 0.09959283 0.09988625 0.1000476 0.1000981
 0.1000942 0.1001184 0.1002569 0.1005723 0.1010798 0.1017336 0.1024382 0.1030844 0.10359 0.1039244
 0.1041147 0.1042542 0.1045147 0.1051248 0.1062803 0.1080204 0.1101752 0.112448 0.1145704 0.116405
 0.1179405 0.1192289 0.1203318 0.1213 0.1221698 0.1229672 0.1237117 0.124419 0.1251013 0.1257671
 0.1264218 0.1270684 0.1277089 0.1283451 0.1289778 0.1296065 0.1302314 0.1308539 0.1314754 0.1320964
 0.132715 0.1333278 0.133933 0.1345334 0.135134 0.1357365 0.1363377 0.1369343 0.1375271 0.1381184
 0.1387075 0.1392891 0.1398585 0.1404169 0.1409681 0.1415126 0.1420475 0.1425707 0.1430824 0.1435827
 0.144071 0.1445474 0.1450136 0.1454705 0.1459189 0.1463602 0.1467955 0.1472254 0.1476502 0.1480711
 0.1484908 0.1489103 0.149328 0.1497414 0.1501528 0.1505697 0.1509995 0.1514442 0.1518994 0.1523571
 0.1528103 0.1532567 0.1537002 0.1541472 0.1546021 0.1550642 0.155529 0.1559915 0.15645 0.1569066
 0.1573638 0.157822 0.1582799 0.1587376 0.1591967 0.1596577 0.1601183 0.160575 0.1610267 0.1614744
 0.1619202 0.1623648 0.162807 0.1632455 0.1636791 0.1641066 0.1645269 0.1649426 0.165359 0.1657793
 0.1662006 0.166618 0.1670294 0.167435 0.1678365 0.1682373 0.1686423 0.1690543 0.1694704 0.1698839
 0.1702909 0.1706946 0.1711014 0.1715129 0.1719262 0.1723391 0.1727502 0.1731568 0.1735568 0.1739537
 0.1743533 0.1747584 0.1751673 0.1755767 0.1759841 0.1763888 0.1767903 0.1771865 0.177577 0.1779672
 0.178363 0.1787647 0.1791681 0.1795724 0.1799803 0.180394 0.180813 0.181235 0.1816558 0.1820727
 0.1824867 0.1829003 0.1833144 0.1837295 0.1841456 0.1845614 0.1849754 0.1853866 0.1857937 0.1861949
 0.1865908 0.1869837 0.1873751 0.1877664 0.1881579 0.1885474 0.1889317 0.1893126 0.1896945 0.1900779
 0.190461 0.1908438 0.1912286 0.1916164 0.1920071 0.1923988 0.1927892 0.1931809 0.1935787 0.1939822
 0.194386 0.1947883 0.1951915 0.1955958 0.1959994 0.1964023 0.196805 0.1972074 0.1976103 0.198015
 0.1984245 0.1988443 0.1992761 0.1997104 0.2001355 0.2005526 0.2009721 0.2014001 0.2018355 0.2022757
 0.2027189 0.2031657 0.203619 0.2040778 0.2045358 0.2049908 0.2054468 0.2059058 0.2063665 0.2068305
 0.2072989 0.2077674 0.2082317 0.2086917 0.2091479 0.2096023 0.2100579 0.2105134 0.2109644 0.2114145
 0.2118716 0.2123347 0.212797 0.2132577 0.2137166 0.2141706 0.2146228 0.2150808 0.2155435 0.2160031
 0.216458 0.2169092 0.2173542 0.2177966 0.2182452 0.2187019 0.2191632 0.2196302 0.2201018 0.2205706
 0.2210346 0.2214968 0.2219523 0.2223958 0.2228329 0.22327 0.2237063 0.2241436 0.2245826 0.2250081
 0.2253893 0.2256679 0.2256953 0.2251587 0.2235367 0.2201087 0.2140978 0.2049856 0.1928332 0.1783654
 0.162761 0.1472813 0.132932 0.1203361 0.1098192 0.101543 0.09559522 0.09207291 0.09115398 0.09319551
 0.09886411 0.1087543 0.1219432 0.1347042 0.1418649 0.1407119 0.1334506 0.125202 0.1198141 0.1179381
 0.1182962 0.1196071 0.1213541 0.1236506 0.126807 0.1308745 0.1355888 0.1408119 0.1468014 0.153827
 0.1616541 0.1696206 0.177193 0.1843213 0.1912521 0.1981055 0.2046984 0.2107196 0.2159727 0.2204495
 0.2242673 0.227588 0.2305536 0.2332561 0.235755 0.2380832 0.2402002 0.24197 0.2432412 0.2439693
 0.2442707 0.2443635 0.2444459 0.2446152 0.2448835 0.2452395 0.2456743 0.246177 0.2467396 0.2473571
 0.2480133 0.2486829 0.2493496 0.2500057 0.2506391 0.251238 0.2518016 0.2523339 0.2528371 0.253316
 0.2537773 0.2542237 0.2546577 0.2550857 0.255512 0.2559357 0.2563556 0.256768 0.2571652 0.2575416
 0.2578986 0.2582373 0.2585588 0.25887 0.2591797 0.2594888 0.259794 0.2600933 0.2603862 0.2606741
 0.2609622 0.2612536 0.2615438 0.2618281 0.2621074 0.2623847 0.2626606 0.2629377 0.2632186 0.2635029
 0.2637885 0.2640751 0.2643609 0.2646425 0.264919 0.2651925 0.2654683 0.2657549 0.2660583 0.2663735
 0.2666904 0.2670054 0.2673218 0.2676408 0.2679616 0.2682844 0.2686102 0.2689402 0.2692757 0.2696124
 0.2699368 0.2702363 0.2705119 0.2707752 0.2710396 0.2713143 0.2716005 0.2718917 0.2721834 0.2724792
 0.2727848 0.2731008 0.2734238 0.2737496 0.2740756 0.2744045 0.2747425 0.2750899 0.2754395 0.2757882
 0.2761416 0.2765063 0.2768835 0.2772688 0.2776512 0.2780184 0.2783689 0.2787179 0.2790897 0.2795004
 0.2799433 0.2803897 0.2808123 0.2812096 0.2816028 0.2820123 0.2824453 0.2828901 0.283313 0.2836822
 0.2840101 0.2843585 0.2847829 0.2852799 0.2857995 0.2862945 0.2867517 0.2871863 0.2876165 0.2880439
 0.2884541 0.288833 0.2891889 0.2895582 0.2899821 0.2904645 0.290965 0.291443 0.2918909 0.2923175
 0.2927262 0.2931196 0.2934918 0.2938085 0.2940422 0.2942457 0.2945448 0.2950205 0.2956183 0.2962036
 0.2966932 0.2971063 0.2974962 0.2978823 0.2982563 0.2985941 0.298822 0.2988541 0.2987441 0.2987431
 0.2990967 0.2997967 0.3006047 0.3012944 0.3018046 0.3021922 0.3025317 0.3028614 0.3031585 0.3033449
 0.3033713 0.3033298 0.3034354 0.3038285 0.304416 0.304973 0.30538 0.3056911 0.3060018 0.3063417
 0.3066622 0.3068271 0.3066724 0.3062258 0.3058558 0.3060371 0.3068949 0.3080614 0.3090409 0.3096501
 0.3100303 0.3103097 0.3104156 0.3102189 0.3096962 0.3089374 0.3081973 0.3079488 0.3085781 0.3098954
 0.3112007 0.3119863 0.3123787 0.3127941 0.313391 0.3139982 0.3144026 0.3145441 0.3144782 0.3142497
 0.3138695 0.3134605 0.3133475 0.3138321 0.3148449 0.3159562 0.3167815 0.3172855 0.3176129 0.3176504
 0.316912 0.3151123 0.3129234 0.3118131 0.3127451 0.3151647 0.3175972 0.3191035 0.3197972 0.3201645
 0.3204316 0.3204964 0.3199047 0.3179961 0.3147957 0.3118058 0.3111038 0.3132999 0.3168559 0.3195749
 0.3202884 0.3191146 0.3169021 0.3148247 0.3139626 0.3147176 0.3166472 0.3189192 0.3208113 0.3218975
 0.3220784 0.3215509 0.3207231 0.3200968 0.3199562 0.3199488 0.3192973 0.3178045 0.3162283 0.3151118
 0.3137816 0.3114496 0.3089766 0.3083428 0.3102006 0.312934 0.3145282 0.314629 0.3141966 0.3135714
 0.3116645 0.3073956 0.3016947 0.2974833 0.2971658 0.3002288 0.303753 0.3052754 0.3047295 0.3036192
 0.302888 0.3019164 0.2994495 0.2953672 0.291355 0.2893932 0.289551 0.2898962 0.2886382 0.285411
 0.2803542 0.2736138 0.2667503 0.263068 0.2647058 0.2699609 0.2747881 0.2763112 0.2737507 0.267193
 0.257787 0.2489216 0.244731 0.2463046 0.2504334 0.2527248 0.2510751 0.2457717 0.2376801 0.2278024
 0.2181633 0.211591 0.2098973 0.212423 0.2162328 0.2174624 0.2132914 0.2041292 0.1940766 0.1878384
 0.1863891 0.1863984 0.1841893 0.1791876 0.173209 0.1678906 0.1637337 0.1605255 0.1576634 0.1545938
 0.151267 0.1474751 0.1420222 0.1340801 0.1254505 0.1196935 0.1184272 0.1199374 0.1218761 0.1236281
 0.1252202 0.1256614 0.1240131 0.12135 0.1201344 0.1215882 0.1245099 0.1267892 0.1275098 0.1273168
 0.1270795 0.1267518 0.1258373 0.1246304 0.1242597 0.1252841 0.1268388 0.1275826 0.1270662 0.1257669
 0.1241891 0.1224386 0.1204632 0.1182491 0.1158023 0.1131578 0.1103857 0.1075051 0.1044773 0.1013098
 0.09803064 0.09448687 0.09034868 0.08556807 0.0808002 0.07701486 0.07455288 0.07292563 0.07168919 0.07093681
 0.0705803 0.06990288 0.06864348 0.06810616 0.07027531 0.07578202 0.08324082 0.09055296 0.09639739 0.1004185
 0.1026316 0.1034764 0.1045471 0.1083333 0.1162889 0.1273105 0.1387298 0.1485957 0.1564284 0.1621836
 0.1655724 0.166724 0.1669311 0.1681873 0.1718792 0.177921 0.1848847 0.1905976 0.1930432 0.192062
 0.1906957 0.1933364 0.2011691 0.2104437 0.2166554 0.2194463 0.2218123 0.225536 0.2296174 0.2329118
 0.2360575 0.2400737 0.2444205 0.2473167 0.2472553 0.2436432 0.2368543 0.2286738 0.222021 0.2188029
 0.2181069 0.2175331 0.2158327 0.2129577 0.2084423 0.2020908 0.1960735 0.1937822 0.1959049 0.19942
 0.2010989 0.2005536 0.1992471 0.1977781 0.1951492 0.190366 0.1840545 0.1781177 0.173777 0.1703533
 0.1662677 0.1607635 0.1541107 0.1466351 0.138488 0.1303463 0.1235259 0.119008 0.1166243 0.1154381
 0.114797 0.1148348 0.1160694 0.118808 0.1229711 0.1282273 0.1342215 0.1408835 0.1484862 0.1571067
 0.1660831 0.1744115 0.1817251 0.1885064 0.1952493 0.2017292 0.2072394 0.2113678 0.2144407 0.2172973
 0.2206507 0.2245553 0.2283994 0.231441 0.2334461 0.2348511 0.2362758 0.2379092 0.2394708 0.2407196
 0.2417922 0.2430059 0.2445297 0.2463014 0.2481017 0.2496934 0.2510899 0.2527099 0.2550639 0.2582166
 0.2616928 0.2649377 0.2677349 0.2701441 0.272184 0.273701 0.2745239 0.2746608 0.2743111 0.2737215
 0.2730685 0.2724595 0.2719699 0.2716404 0.2714635 0.271407 0.2714576 0.2716477 0.2720623 0.2728157
 0.2739883 0.2755575 0.2773944 0.2793295 0.2812097 0.2828977 0.2842582 0.2851834 0.2856283 0.285606
 0.2851563 0.284328 0.2831582 0.2816356 0.2797064 0.2773964 0.2749864 0.2730423 0.2721747 0.2726648
 0.2742687 0.2763735 0.2783607 0.2798781 0.2808684 0.2814367 0.2817203 0.2818254 0.2818131 0.2817068
 0.2815131 0.2812442 0.2809189 0.2805485 0.2801304 0.2796657 0.2791925 0.2788078 0.2786388 0.2787581
 0.2791113 0.2795402 0.2798887 0.2800805 0.2801086 0.2799819 0.2796989 0.2792604 0.2786936 0.2780666
 0.2774766 0.2770113 0.2767082 0.2765403 0.2764307 0.2762665 0.2758991 0.2751639 0.2739561 0.2723079
 0.2703543 0.2681875 0.2657732 0.2630453 0.2600504 0.256953 0.2539082 0.2509621 0.2480677 0.2451716
 0.2422906 0.2395179 0.2369518 0.2346077 0.2323991 0.2301931 0.227873 0.2253626 0.2226251 0.2196527
 0.2164448 0.2129818 0.2092158 0.2050841 0.2005342 0.1955433 0.1901272 0.1843477 0.1783177 0.1721951
 0.1661604 0.1603966 0.1550774 0.1503542 0.1463341 0.1430634 0.1405322 0.1386936 0.137483 0.1368281
 0.1366587 0.1369216 0.1375896 0.1386479 0.1400649 0.1417665 0.1436276 0.1454897 0.1472099 0.1487182
 0.1500343 0.1512283 0.1523742 0.1535405 0.1547949 0.156184 0.1577003 0.1592765 0.160818 0.16224
 0.163486 0.1645272 0.1653558 0.1659802 0.166434 0.1667983 0.16721 0.1678315 0.1687896 0.1701263
 0.1717912 0.1736722 0.1756427 0.177605 0.1795133 0.1813708 0.1832028 0.1850192 0.1867972 0.1885099
 0.1901868 0.1919547 0.1940214 0.1966118 0.1998914 0.2039078 0.2085664 0.2136477 0.2188534 0.2238631
 0.2283928 0.2322412 0.235311 0.2376005 0.2391787 0.2401677 0.2407346 0.241069 0.2413348 0.2416236
 0.241954 0.2423128 0.2426922 0.2430935 0.2435085 0.2439102 0.244268 0.2445746 0.2448539 0.2451443
 0.2454799 0.2458778 0.2463211 0.2467484 0.2470754 0.2472403 0.2472259 0.2470517 0.2467552 0.2463742
 0.2459295 0.2454194 0.2448264 0.2441235 0.2432742 0.2422307 0.2409325 0.2393178 0.2373614 0.2351216
 0.2327489 0.2304411 0.2283699 0.2266171 0.2251486 0.2238362 0.2225112 0.2210291 0.2193273 0.2174434
 0.2154711 0.2134902 0.2115392 0.2096306 0.2077652 0.2059327 0.2041219 0.202335 0.2005893 0.1989055
 0.1972915 0.1957318 0.1942038 0.1927072 0.1912734 0.1899543 0.1888127 0.1879076 0.1872574 0.1868175
 0.1865045 0.1862403 0.1859817 0.1857294 0.1855053 0.1853029 0.1850622 0.1847029 0.1841816 0.1835237
 0.1828214 0.1821981 0.1817483 0.1814961 0.1813935 0.181337 0.1811924 0.1808337 0.180173 0.1791591
 0.1777692 0.1760174 0.1739631 0.1717136 0.1694209 0.1672556 0.1653637 0.1638426 0.1627309 0.1619872
 0.1614923 0.1611168 0.1608006 0.1605751 0.160522 0.1606868 0.160987 0.1612323 0.1612931 0.1612377
 0.1612637 0.1615155 0.1619887 0.16257 0.1631286 0.1635836 0.163912 0.1641198 0.1642294 0.1642812
 0.1643046 0.1642892 0.1642051 0.1640363 0.1637799 0.1634374 0.1630141 0.1625031 0.1618814 0.1611364
 0.1602674 0.1592579 0.1580877 0.1567628 0.1552945 0.1536931 0.152054 0.150619 0.1496875 0.1494545
 0.1499083 0.1508384 0.1519632 0.1530895 0.1541276 0.154975 0.1555229 0.1558361 0.1562293 0.1570608
 0.1584349 0.1601008 0.1616326 0.1627076 0.163223 0.1632165 0.1627848 0.1620542 0.1611037 0.1599131
 0.1584544 0.1567758 0.1549404 0.1529911 0.151013 0.1491127 0.147347 0.1457523 0.144364 0.1432068
 0.1423541 0.1415737 0.1394781 0.1340027 0.1253019 0.1176415 0.1161728 0.1213765 0.1284171 0.1323767
 0.1324826 0.1309125 0.1294909 0.1286593 0.1283752 0.1286687 0.1295093 0.1306968 0.1319131 0.1328422
 0.1333301 0.1333779 0.1328948 0.1314816 0.1284349 0.1230166 0.1150173 0.1052763 0.09550907 0.08741882
 0.0818724 0.07872145 0.07714929 0.07623523 0.07548553 0.07501128 0.07522833 0.07641621 0.07855187 0.08143638
 0.08483641 0.08847112 0.09196224 0.0949403 0.09724252 0.09894179 0.1001728 0.1010041 0.1014688 0.1016094
 0.1014631 0.1010609 0.1004396 0.0996168 0.09857461 0.09731144 0.09590969 0.09454361 0.09340678 0.09259578
 0.09205444 0.09165336 0.09131157 0.09101916 0.09078373 0.09060596 0.09048717 0.0904294 0.09043836 0.09052341
 0.09067358 0.09084845 0.09101571 0.09118444 0.09139057 0.09165955 0.09197827 0.09230763 0.09264851 0.09306441
 0.09356195 0.09396833 0.09404072 0.09373566 0.09331359 0.09315319 0.09347679 0.0942224 0.09512608 0.09592386
 0.09651063 0.09694064 0.09729934 0.09757878</values></Ydata></ScSm><ScRf><Ydata ylabel="Single channel"><values byteorder="INTEL" format="FLOAT32" numvalues="1820"> 0.06969887 0.06982543 0.06993925 0.07003983 0.07013257 0.07022722 0.07033315 0.07045471 0.07058909 0.07072543
 0.07084943 0.07095545 0.07104962 0.07113841 0.07122332 0.07131185 0.07141997 0.07155477 0.07170141 0.07183307
 0.07193223 0.07200634 0.07208589 0.07219626 0.07232387 0.07241893 0.07244137 0.07240371 0.07236345 0.07237153
 0.07243822 0.07256137 0.07276107 0.07303017 0.07326092 0.07331337 0.07319155 0.07307021 0.0731008 0.07325858
 0.07341455 0.07347828 0.07343438 0.07333057 0.07329451 0.07349221 0.07397759 0.07457197 0.07491969 0.07469176
 0.07380402 0.07253702 0.07147017 0.07117881 0.0718185 0.0729516 0.0738755 0.07419058 0.07401632 0.07368851
 0.07340878 0.07324386 0.07328229 0.07361478 0.07418555 0.07473752 0.07491581 0.07449965 0.07365119 0.07288641
 0.072656 0.07299675 0.07368836 0.07452019 0.07508902 0.07460031 0.0725728 0.06990142 0.06857503 0.06983923
 0.07289609 0.07573752 0.07697196 0.0765547 0.07520951 0.07379249 0.07306866 0.07344283 0.07469171 0.07618976
 0.07741068 0.07806867 0.07798307 0.07716116 0.07597147 0.07498773 0.07467018 0.07523407 0.07656256 0.07807135
 0.07894114 0.07876429 0.0778504 0.07682301 0.0761613 0.07617566 0.07702562 0.07852828 0.08018118 0.08153693
 0.08243438 0.08289142 0.08299206 0.08287364 0.08266182 0.0824503 0.08239232 0.08262248 0.08299092 0.08309595
 0.08273207 0.08217042 0.08188538 0.08206593 0.08245303 0.08265065 0.08251764 0.08209164 0.08118557 0.07948196
 0.07718705 0.0751269 0.07394005 0.07363314 0.07410868 0.07543209 0.07719389 0.07832161 0.07815987 0.07735151
 0.07714121 0.07803563 0.07949211 0.08071805 0.08144163 0.08195768 0.0826643 0.08360881 0.08436906 0.0843599
 0.08342547 0.08221142 0.08173642 0.08240832 0.08363185 0.08454967 0.08494905 0.08523378 0.08571023 0.08614002
 0.08594583 0.08482633 0.08327526 0.08241142 0.0830572 0.0849232 0.08675584 0.08728354 0.08612139 0.08398148
 0.08207674 0.08124988 0.0816447 0.08304849 0.08518891 0.08760799 0.08959674 0.09055343 0.09039585 0.08954409
 0.08846478 0.08723695 0.08571589 0.08421037 0.08366173 0.08476166 0.08705899 0.08931792 0.09065913 0.09104831
 0.09078957 0.08992278 0.08830351 0.08622727 0.08470994 0.08473355 0.08612908 0.08762099 0.08818772 0.08801731
 0.08791962 0.08821302 0.08855005 0.08860628 0.08855443 0.08881684 0.08953124 0.09038396 0.09094967 0.09108811
 0.09097683 0.09085894 0.09081116 0.0907 0.09038571 0.09003383 0.09010055 0.09085143 0.09200278 0.09300464
 0.09358072 0.09383813 0.09393667 0.09381957 0.09331392 0.09247273 0.09174224 0.09164649 0.0922782 0.09322901
 0.09402521 0.09448063 0.09464741 0.09463651 0.09454347 0.09442643 0.09431906 0.09429403 0.09444782 0.09477301
 0.09512481 0.09536474 0.09547246 0.09549083 0.09543581 0.09530276 0.09512544 0.09498928 0.09497637 0.09510121
 0.0953113 0.09554094 0.09573752 0.09585077 0.09585153 0.09577005 0.09567626 0.09561548 0.09559101 0.09560252
 0.09566393 0.09577581 0.0959056 0.09601049 0.09607156 0.09609671 0.09609764 0.09607849 0.09604669 0.09602142
 0.09602676 0.09607668 0.09616151 0.0962535 0.09633987 0.09644029 0.09656778 0.09668571 0.0967384 0.09672029
 0.09668437 0.09668502 0.09673598 0.0968177 0.09690067 0.09695545 0.09695688 0.09690126 0.0968284 0.09680952
 0.09689383 0.09707339 0.09730612 0.09755024 0.09776731 0.0979268 0.09803133 0.0981156 0.09820419 0.09828837
 0.0983516 0.09840244 0.0984761 0.09860664 0.09879413 0.09900002 0.09918013 0.09931612 0.09941505 0.09950098
 0.09961005 0.09976082 0.09991903 0.1000246 0.1000669 0.1001035 0.1001899 0.1003157 0.1004259 0.1004875
 0.1005213 0.1005715 0.1006582 0.1007646 0.1008656 0.1009578 0.1010594 0.1011825 0.1013059 0.101383
 0.1013872 0.1013448 0.1013093 0.1013069 0.101327 0.1013597 0.1014156 0.1014993 0.101585 0.1016343
 0.1016354 0.1016166 0.1016139 0.1016314 0.101639 0.1016114 0.1015551 0.1014979 0.1014611 0.1014457
 0.1014376 0.1014185 0.1013774 0.1013156 0.1012426 0.1011666 0.1010898 0.1010154 0.100961 0.1009535
 0.1009934 0.1010277 0.1009825 0.1008324 0.100627 0.1004421 0.1003146 0.1002261 0.1001337 0.1000089
 0.09985335 0.09969117 0.09954612 0.0994243 0.09931521 0.09920813 0.09910727 0.09903148 0.09899384 0.09897719
 0.09893727 0.09884124 0.09870129 0.09856109 0.09845421 0.09838399 0.09833667 0.09829912 0.0982665 0.09824336
 0.09823564 0.09823757 0.09823421 0.09822139 0.09821345 0.09822794 0.09827368 0.09835225 0.09845379 0.09854965
 0.09860966 0.09863538 0.09866168 0.09872014 0.09881258 0.09892364 0.09904425 0.09917495 0.09931646 0.09946788
 0.09963137 0.09981234 0.1000137 0.100231 0.1004535 0.1006714 0.1008843 0.1011029 0.1013407 0.1016035
 0.1018843 0.1021691 0.1024461 0.102714 0.1029791 0.103247 0.1035174 0.1037915 0.1040788 0.1043894
 0.1047201 0.1050555 0.1053841 0.1057073 0.1060319 0.1063589 0.1066841 0.1070079 0.1073419 0.1077003
 0.1080782 0.1084443 0.108765 0.1090394 0.1093016 0.1095903 0.1099195 0.1102729 0.1106174 0.1109256
 0.1111981 0.1114634 0.1117469 0.1120463 0.1123454 0.1126485 0.1129823 0.1133587 0.1137464 0.114089
 0.114355 0.1145674 0.1147793 0.1150209 0.1152754 0.1155098 0.1157181 0.1159245 0.116148 0.116384
 0.1166238 0.1168749 0.1171465 0.1174259 0.1176866 0.1179173 0.118129 0.1183325 0.1185212 0.1186772
 0.1187909 0.1188756 0.1189639 0.1190836 0.1192331 0.1193893 0.1195387 0.1196903 0.1198564 0.1200377
 0.1202332 0.1204496 0.1206898 0.1209394 0.1211818 0.1214253 0.1216962 0.1219972 0.1222896 0.1225333
 0.122733 0.1229254 0.1231315 0.123346 0.1235683 0.1238163 0.1241021 0.1244117 0.1247172 0.1250018
 0.125273 0.1255547 0.1258606 0.1261731 0.1264528 0.1266766 0.1268606 0.1270448 0.1272617 0.127519
 0.1278023 0.1280877 0.1283557 0.1285952 0.1287961 0.1289478 0.1290525 0.1291308 0.129199 0.1292416
 0.1292174 0.1290931 0.1288602 0.1285201 0.1280659 0.1274905 0.1268131 0.1260954 0.1254311 0.124916
 0.1246209 0.1245812 0.1247973 0.1252339 0.1258198 0.1264601 0.1270583 0.1275296 0.1278032 0.1278282
 0.1275912 0.1271237 0.1264853 0.1257373 0.1249294 0.1240994 0.12328 0.1225157 0.1218857 0.1215085
 0.121511 0.1219845 0.1229522 0.124351 0.1260261 0.127765 0.1293776 0.1307692 0.1319467 0.1329635
 0.133869 0.1346967 0.1354717 0.1362105 0.1369166 0.1375862 0.1382191 0.1388173 0.1393754 0.1398772
 0.1403035 0.1406407 0.140886 0.1410488 0.1411464 0.141195 0.1412077 0.1412002 0.1411851 0.1411515
 0.1410556 0.1408422 0.1404796 0.1399828 0.1394211 0.1389207 0.1386525 0.1387902 0.1394405 0.1405793
 0.1420472 0.1436213 0.1451092 0.146398 0.1474471 0.1482676 0.1489072 0.1494284 0.1498825 0.1502988
 0.1506902 0.1510631 0.1514218 0.1517715 0.1521175 0.1524626 0.1528078 0.1531533 0.1534972 0.1538348
 0.1541652 0.1544945 0.154832 0.1551815 0.1555374 0.1558881 0.1562284 0.1565655 0.1569096 0.157258
 0.1575963 0.1579161 0.1582251 0.1585385 0.1588679 0.1592137 0.1595638 0.1598991 0.1602091 0.1604988
 0.1607811 0.1610628 0.1613443 0.1616264 0.1619105 0.1621954 0.1624773 0.1627556 0.163035 0.1633184
 0.163601 0.1638737 0.1641341 0.1643893 0.1646468 0.1649069 0.1651646 0.1654186 0.1656714 0.1659263
 0.1661849 0.1664468 0.1667086 0.1669669 0.1672207 0.1674714 0.1677213 0.1679716 0.1682238 0.1684786
 0.1687338 0.1689851 0.1692308 0.1694748 0.1697239 0.1699798 0.170238 0.1704931 0.1707441 0.1709925
 0.1712391 0.1714846 0.1717295 0.1719743 0.1722213 0.1724737 0.1727297 0.1729811 0.1732211 0.1734512
 0.1736786 0.1739093 0.1741451 0.1743851 0.1746269 0.1748684 0.1751081 0.1753451 0.1755802 0.1758164
 0.1760557 0.176297 0.1765381 0.1767782 0.1770179 0.1772573 0.1774981 0.1777426 0.1779905 0.1782385
 0.1784821 0.1787192 0.178952 0.1791841 0.1794168 0.1796487 0.1798803 0.1801145 0.1803528 0.1805933
 0.1808326 0.1810694 0.1813047 0.1815403 0.1817764 0.1820119 0.1822464 0.1824816 0.1827176 0.1829525
 0.1831862 0.183419 0.1836499 0.1838778 0.1841045 0.1843331 0.1845656 0.1848049 0.1850529 0.1853058
 0.1855556 0.1857973 0.1860333 0.1862695 0.186508 0.1867453 0.1869787 0.1872127 0.1874547 0.1877042
 0.1879535 0.1881976 0.1884381 0.1886787 0.1889222 0.1891682 0.189412 0.1896521 0.1898952 0.1901498
 0.190415 0.1906823 0.1909445 0.1911993 0.1914497 0.1917028 0.1919621 0.1922226 0.1924754 0.1927153
 0.1929409 0.1931559 0.1933696 0.1935904 0.1938184 0.1940483 0.1942766 0.1945031 0.1947307 0.1949647
 0.1952076 0.195456 0.195706 0.1959553 0.1962011 0.1964434 0.1966871 0.1969368 0.1971918 0.1974508
 0.1977116 0.197969 0.1982217 0.1984768 0.1987379 0.1989987 0.1992554 0.1995145 0.199782 0.2000564
 0.2003323 0.2006024 0.2008632 0.201122 0.20139 0.2016665 0.2019413 0.2022103 0.2024755 0.2027386
 0.2030031 0.203273 0.2035454 0.203815 0.204082 0.2043474 0.2046111 0.2048786 0.2051565 0.2054396
 0.2057194 0.2059979 0.2062795 0.2065614 0.2068413 0.2071198 0.2073936 0.2076603 0.2079249 0.2081895
 0.2084497 0.2087081 0.2089691 0.2092202 0.2094339 0.2095581 0.2094576 0.208839 0.2072077 0.2038832
 0.1981434 0.1895201 0.1780883 0.164535 0.1499612 0.1355367 0.1221887 0.110488 0.1007307 0.09305988
 0.08754975 0.08428624 0.08343509 0.08532871 0.09058183 0.09973111 0.1118927 0.12359 0.1300507 0.1288293
 0.1220324 0.1144054 0.1094588 0.1077431 0.1080602 0.1092372 0.1108124 0.112897 0.1157726 0.1194796
 0.1237758 0.1285428 0.1340214 0.1404521 0.1476088 0.1548804 0.1617831 0.1682772 0.174588 0.1808205
 0.1868051 0.1922619 0.1970177 0.2010656 0.2045094 0.2074957 0.2101557 0.2125747 0.2148053 0.2168756
 0.2187499 0.2203099 0.2214195 0.2220334 0.2222519 0.2222755 0.2222919 0.2223929 0.2225881 0.2228664
 0.2232216 0.2236431 0.224117 0.2246341 0.2251835 0.2257505 0.2263243 0.2268953 0.2274503 0.2279788
 0.228478 0.2289463 0.2293833 0.2297952 0.2301894 0.2305677 0.2309323 0.2312903 0.231646 0.2319996
 0.2323522 0.2327025 0.2330416 0.2333621 0.2336642 0.2339505 0.2342224 0.2344848 0.234742 0.2349945
 0.2352441 0.2354962 0.2357522 0.2360075 0.2362579 0.2365013 0.236737 0.236969 0.2372048 0.2374473
 0.2376927 0.2379372 0.2381783 0.2384133 0.2386434 0.2388749 0.2391126 0.2393545 0.2395957 0.239834
 0.2400733 0.2403225 0.2405851 0.2408541 0.2411219 0.2413895 0.2416607 0.2419333 0.2422043 0.2424751
 0.2427469 0.2430184 0.2432895 0.2435614 0.2438314 0.2440912 0.2443334 0.2445589 0.2447787 0.2450068
 0.2452474 0.2454933 0.2457368 0.2459772 0.2462185 0.2464649 0.2467181 0.2469733 0.2472232 0.2474704
 0.2477282 0.2480047 0.2482941 0.2485862 0.2488756 0.2491619 0.249448 0.2497377 0.2500305 0.2503192
 0.2505992 0.2508752 0.2511612 0.2514702 0.2518018 0.252139 0.2524634 0.2527732 0.2530798 0.2533941
 0.2537202 0.2540518 0.2543641 0.2546299 0.2548574 0.2550992 0.2554057 0.2557777 0.2561735 0.2565525
 0.2569039 0.2572389 0.2575663 0.2578798 0.2581662 0.258421 0.2586598 0.2589192 0.2592331 0.2595989
 0.259976 0.2603278 0.2606502 0.2609539 0.2612437 0.2615238 0.2617899 0.2620094 0.2621546 0.2622722
 0.2624785 0.2628492 0.2633346 0.2638102 0.2642003 0.2645247 0.2648346 0.2651469 0.2654499 0.2657169
 0.2658807 0.2658682 0.2657343 0.265706 0.2659984 0.2665989 0.2672966 0.2678951 0.2683403 0.2686774
 0.2689676 0.2692466 0.2695006 0.2696636 0.269688 0.2696483 0.2697338 0.2700766 0.2706036 0.2711164
 0.2715007 0.2717942 0.2720767 0.2723782 0.2726619 0.2728095 0.2726752 0.2722876 0.2719788 0.2721656
 0.2729445 0.273979 0.2748347 0.2753645 0.2757045 0.2759659 0.2760737 0.275905 0.2754362 0.2747517
 0.2740905 0.2738871 0.2744854 0.2757013 0.2768986 0.277629 0.2780179 0.2784415 0.2790363 0.2796424
 0.2800662 0.2802541 0.2802554 0.2801084 0.2798249 0.2795227 0.2794971 0.2800089 0.2809826 0.2820288
 0.2828099 0.2833062 0.283657 0.2837615 0.2831736 0.2816273 0.2797286 0.2788041 0.2797208 0.2819745
 0.2842367 0.2856676 0.2863778 0.2868118 0.2871727 0.2873594 0.2869485 0.2853373 0.2825582 0.2799866
 0.2795037 0.281642 0.2849904 0.2875647 0.2883244 0.2873862 0.2855178 0.2837801 0.2831501 0.283991
 0.2859032 0.2881314 0.2900166 0.291172 0.2915109 0.2912132 0.2906513 0.290288 0.2903814 0.2905948
 0.2902083 0.2890535 0.2878405 0.2870675 0.2861109 0.2842501 0.2822808 0.2820181 0.2840504 0.2868869
 0.2886853 0.2891353 0.2891205 0.2889341 0.2875561 0.2839943 0.2791266 0.2756731 0.2758657 0.2792168
 0.2830017 0.2849393 0.2849935 0.2845823 0.2845854 0.2844176 0.2829023 0.2799391 0.2771423 0.2763939
 0.2777315 0.279281 0.2793261 0.277505 0.2739034 0.2686322 0.2632626 0.2611142 0.2643225 0.2711799
 0.2776469 0.2808419 0.2799385 0.2749549 0.2670505 0.2597797 0.2574919 0.2613121 0.267825 0.272386
 0.27278 0.2692946 0.2628218 0.2544814 0.2466176 0.2425045 0.2442628 0.2511616 0.2597409 0.2652942
 0.264281 0.2571792 0.2491902 0.2463064 0.2496696 0.2548277 0.2569714 0.2554536 0.2527659 0.2511458
 0.2513494 0.2530882 0.255357 0.2572243 0.2585485 0.2586411 0.2549348 0.2458202 0.234871 0.2289557
 0.2311579 0.2382806 0.2460428 0.2533882 0.260144 0.2639381 0.2627219 0.2588438 0.2575616 0.261426
 0.2678475 0.2724025 0.2733235 0.2722185 0.2711392 0.2701295 0.2682565 0.2662661 0.2666046 0.2703837
 0.2756447 0.2794812 0.2809473 0.2810624 0.2808701 0.280557 0.2799857 0.2791294 0.2780347 0.2768326
 0.2757253 0.2747648 0.2738176 0.2728278 0.2717396 0.2699099 0.2661642 0.2603263 0.2545218 0.251715
 0.2525992 0.2551548 0.2575383 0.2594197 0.2595896 0.254962 0.2446122 0.2334003 0.2286288 0.2329843
 0.2423948 0.2505907 0.2540584 0.2524878 0.2466563 0.2380632 0.2303892 0.2288601 0.2362323 0.2498924
 0.2641799 0.2751575 0.28212 0.2854126 0.2849045 0.2810878 0.2763415 0.2739973 0.2760425 0.2818094
 0.2884975 0.29249 0.2909123 0.2839836 0.2766076 0.2754311 0.2822615 0.2916701 0.2969847 0.2972884
 0.2964814 0.2970946 0.298106 0.2983376 0.2988809 0.3012247 0.3047963 0.3074361 0.3073414 0.3038223
 0.2972958 0.2898316 0.2848395 0.2843707 0.286853 0.288904 0.2888145 0.2865838 0.2817836 0.2744886
 0.2679608 0.2669032 0.2721122 0.2792704 0.283866 0.2853946 0.2859724 0.2865276 0.2857129 0.2821741
 0.2769617 0.2730822 0.2725534 0.2745006 0.276598 0.27759 0.2774876 0.2761077 0.2730848 0.2694412
 0.2677253 0.269742 0.2746158 0.2796408 0.2827643 0.2838354 0.28382 0.2835586 0.2833212 0.282959
 0.28231 0.2817622 0.2822785 0.284365 0.2871708 0.2892564 0.2902527 0.2911702 0.2929977 0.2955073
 0.2976153 0.2985799 0.2986573 0.298761 0.2996255 0.3011947 0.3026817 0.3032692 0.3029155 0.3024977
 0.3030259 0.3046822 0.3067503 0.3084355 0.3095295 0.3103012 0.3110482 0.311846 0.3125133 0.3127645
 0.3125887 0.3124835 0.3130833 0.3144947 0.3161656 0.3174427 0.3181076 0.3183424 0.3183575 0.3181915
 0.3178136 0.3172927 0.3168068 0.3165077 0.3164121 0.3164262 0.3164468 0.3164246 0.3163671 0.3163214
 0.3163443 0.3164588 0.3166404 0.3168522 0.3170729 0.3172821 0.3174515 0.3175731 0.3176696 0.3177521
 0.3177845 0.3177032 0.3174551 0.3170023 0.3163074 0.3153335 0.3140502 0.3124218 0.3104152 0.3080963
 0.3057885 0.3041052 0.3036974 0.3048399 0.3072136 0.3100878 0.3127353 0.3147439 0.3160539 0.3168074
 0.3171871 0.3173358 0.3173407 0.3172427 0.3170569 0.3167944 0.3164717 0.3161088 0.3157302 0.3153651
 0.3150368 0.3147493 0.3144858 0.3142149 0.3138999 0.3135126 0.3130466 0.3125121 0.3119184 0.3112587
 0.3105116 0.3096587 0.3087066 0.3076947 0.3066782 0.3057025 0.3047845 0.3039084 0.3030388 0.302131
 0.3011205 0.2999275 0.2985291 0.2970505 0.2957268 0.2947172 0.2939657 0.2932683 0.2924533 0.2914708
 0.2903492 0.289129 0.2878422 0.2865135 0.285156 0.2837662 0.2823254 0.2808065 0.279186 0.2774581
 0.2756341 0.2737364 0.2717947 0.2698369 0.267856 0.2657734 0.2634405 0.2606869 0.2573736 0.2534204
 0.2488132 0.2436177 0.2379891 0.2321474 0.2263201 0.2207002 0.2154464 0.2107023 0.2065966 0.203226
 0.2006486 0.1988966 0.1979882 0.1979308 0.1987148 0.2003057 0.2026317 0.2055734 0.2089659 0.2126176
 0.2163309 0.2199235 0.2232631 0.226309 0.2291102 0.2317379 0.2342106 0.2364865 0.2385167 0.2402849
 0.2417989 0.2430685 0.2441084 0.2449511 0.2456436 0.2462286 0.2467332 0.2471678 0.2475296 0.2478138
 0.2480288 0.2482017 0.2483672 0.2485515 0.2487638 0.2490017 0.2492643 0.2495628 0.249918 0.2503491
 0.2508667 0.2514692 0.2521401 0.2528555 0.2536042 0.254401 0.2552797 0.2562795 0.2574357 0.2587685
 0.2602684 0.2618922 0.263568 0.2652032 0.2666959 0.2679555 0.268927 0.2696002 0.2699971 0.2701482
 0.2700804 0.269823 0.2694099 0.2688714 0.2682296 0.2675049 0.2667168 0.2658758 0.2649808 0.2640299
 0.2630325 0.2620131 0.2610023 0.2600194 0.259065 0.2581327 0.2572212 0.2563301 0.2554568 0.2546021
 0.2537748 0.2529851 0.2522398 0.2515406 0.2508795 0.2502317 0.2495572 0.2488067 0.2479348 0.2469141
 0.2457367 0.2444052 0.2429253 0.2413045 0.2395533 0.2376889 0.2357365 0.2337173 0.2316356 0.2294821
 0.2272424 0.2249041 0.2224804 0.2200366 0.2176729 0.2154664 0.2134396 0.2115749 0.2098399 0.2082043
 0.2066508 0.2051708 0.2037514 0.2023796 0.2010566 0.199793 0.1985961 0.1974734 0.1964374 0.1954993
 0.1946663 0.1939444 0.193331 0.1928112 0.1923689 0.1919968 0.1917035 0.1915211 0.1914862 0.1915884
 0.1917454 0.1918508 0.191844 0.1917404 0.1916102 0.1915253 0.1915101 0.1915408 0.1915774 0.1915703
 0.1914445 0.1911096 0.1904826 0.1894937 0.188098 0.1863072 0.1842045 0.1819303 0.179659 0.1775616
 0.175758 0.1743036 0.1732022 0.1724044 0.1718142 0.1713501 0.171004 0.1708335 0.1709066 0.171228
 0.1716735 0.172037 0.1722122 0.1723188 0.172599 0.1732089 0.1741226 0.1751889 0.1762391 0.1771633
 0.1779172 0.1784854 0.1788753 0.1791301 0.1792963 0.1793798 0.1793599 0.1792235 0.1789668 0.178597
 0.1781384 0.1776052 0.1769831 0.1762626 0.1754538 0.1745556 0.1735561 0.1724549 0.171235 0.1698567
 0.1683647 0.1669761 0.1660013 0.1656721 0.1660201 0.1668679 0.1679561 0.1691154 0.1702753 0.1713296
 0.1721471 0.1727855 0.1735819 0.1749264 0.1769286 0.1793041 0.1815753 0.1833824 0.1845992 0.185221
 0.1852758 0.1848284 0.1839287 0.182557 0.1807232 0.178554 0.1762074 0.173807 0.1714927 0.169398
 0.167584 0.1660819 0.1649088 0.1640576 0.1635835 0.1631993 0.1612768 0.1554208 0.1458779 0.1377195
 0.136992 0.1441847 0.1535299 0.1591902 0.1602047 0.1590545 0.1577893 0.1568544 0.1561749 0.1558194
 0.1558378 0.1561216 0.1564443 0.1565645 0.1563777 0.1559035 0.1550201 0.1532201 0.149611 0.1432464
 0.1338287 0.1223406 0.1108205 0.1012797 0.09472213 0.09094797 0.08898117 0.08774081 0.08666465 0.0859108
 0.08598911 0.08723284 0.08961491 0.09291404 0.09687254 0.1011592 0.1053131 0.1088906 0.1116999 0.1138152
 0.1153641 0.1163938 0.1169272 0.1170232 0.1167547 0.116194 0.1154134 0.114448 0.1132744 0.1118744
 0.1103282 0.1088403 0.1076555 0.1069056 0.1065278 0.1063558 0.1062722 0.1062458 0.1062757 0.1063602
 0.1064986 0.1066886 0.1069342 0.1072457 0.1076047 0.1079485 0.1082182 0.1084029 0.1085197 0.1085702
 0.1085189 0.1083163 0.1079709 0.1075739 0.1071725 0.1066337 0.1057484 0.1045091 0.1032208 0.1023108
 0.1020333 0.102316 0.1028382 0.1032703 0.10348 0.103537 0.1035473 0.1035038 0.10329 0.1028133
</values></Ydata></ScRf><Data_Parameters_AB><parameter name="DPF">1</parameter><parameter name="NPT">3497</parameter><parameter name="FXV">3996</parameter><parameter name="LXV">500</parameter><parameter name="CSF">1</parameter><parameter name="MXY">0.565481841564178</parameter><parameter name="MNY">-0.0640308633446693</parameter><parameter name="DAT">13/02/2024</parameter><parameter name="TIM">13:17:42.130 (GMT+1)</parameter><parameter name="DXU">WN</parameter></Data_Parameters_AB><AB__Qtest><MainReport name="Quality Test Report"><Header><Line><Legend>Test result ok/not ok [1/0]: </Legend><Value>0</Value></Line><Line><Legend>Method file: </Legend><Value>C:\Users\Public\Documents\Bruker\OPUS_8.2.28\QT\IRBT_v3_default.QT</Value></Line></Header><Matrix><Line><Legend></Legend><Legend>min</Legend><Legend>max</Legend><Legend>measured</Legend></Line><Line><Value>Absorption (X-Range 1):</Value><Value>0.400000</Value><Value>2.000000</Value><Value>0.420725</Value></Line><Line><Value>Noise (X-Range 4):</Value><Value></Value><Value>0.000300</Value><Value>0.000042</Value></Line><Line><Value>Signal/Noise (X-Range 2):</Value><Value>200.000000</Value><Value></Value><Value>154.497032</Value></Line><Line><Value>Signal/Noise (X-Range 3):</Value><Value>40.000000</Value><Value></Value><Value>145.973187</Value></Line><Line><Value>Water vapour (X-Range 5):</Value><Value></Value><Value>0.000300</Value><Value>0.000026</Value></Line><Line><Value>Signal/Water (X-Range 2):</Value><Value>100.000000</Value><Value></Value><Value>251.931195</Value></Line><Line><Value>Signal/Water (X-Range 3):</Value><Value>20.000000</Value><Value></Value><Value>238.031754</Value></Line><Line><Value>Fringes (X-Range 6):</Value><Value></Value><Value>0.000100</Value><Value>0.000028</Value></Line></Matrix></MainReport></AB__Qtest><Data_Parameters_ScSm><parameter name="DPF">1</parameter><parameter name="NPT">1814</parameter><parameter name="FXV">3996.63438082617</parameter><parameter name="LXV">499.579297603271</parameter><parameter name="CSF">1</parameter><parameter name="MXY">0.322078436613083</parameter><parameter name="MNY">0.0475266650319099</parameter><parameter name="DAT">13/02/2024</parameter><parameter name="TIM">13:17:42.130 (GMT+1)</parameter><parameter name="DXU">WN</parameter></Data_Parameters_ScSm><Data_Parameters_ScRf><parameter name="DPF">1</parameter><parameter name="NPT">1820</parameter><parameter name="FXV">4004.34989121387</parameter><parameter name="LXV">495.721542409425</parameter><parameter name="CSF">1</parameter><parameter name="MXY">0.318357527256012</parameter><parameter name="MNY">0.068575032055378</parameter><parameter name="DAT">13/02/2024</parameter><parameter name="TIM">13:17:15.720 (GMT+1)</parameter><parameter name="DXU">WN</parameter></Data_Parameters_ScRf><Optic_Parameters_Rf><parameter name="APR">0</parameter><parameter name="APT">Open</parameter><parameter name="BMS">KBr</parameter><parameter name="DTC">RT-DLaTGS_IR-Biotyper [Microplate reader]</parameter><parameter name="HPF">0</parameter><parameter name="LPF">10.0</parameter><parameter name="LPV">4000</parameter><parameter name="PGR">0</parameter><parameter name="RCH">Module port</parameter><parameter name="RDX">0</parameter><parameter name="SRC">MIR</parameter><parameter name="VEL">10.0</parameter><parameter name="SON">Off</parameter></Optic_Parameters_Rf><Acquisition_Parameters_Rf><parameter name="ADT">1</parameter><parameter name="AQM">DD</parameter><parameter name="CFE">0</parameter><parameter name="COR">0</parameter><parameter name="DEL">0</parameter><parameter name="DLY">0</parameter><parameter name="HFW">8000</parameter><parameter name="LFW">0</parameter><parameter name="NSR">32</parameter><parameter name="PLF">AB</parameter><parameter name="RES">6</parameter><parameter name="RGN">-1</parameter><parameter name="STR">0</parameter><parameter name="TCL">MakeCompatibleScalar (0, {WSV=1.000000, ARV=0});</parameter><parameter name="TDL">37</parameter><parameter name="RPO">0</parameter></Acquisition_Parameters_Rf><FT_-_Parameters_Rf><parameter name="APF">B3</parameter><parameter name="HFQ">500</parameter><parameter name="LFQ">4000</parameter><parameter name="NLI">0</parameter><parameter name="PHR">24</parameter><parameter name="PHZ">ML</parameter><parameter name="SPZ">NO</parameter><parameter name="ZFF">1</parameter></FT_-_Parameters_Rf><Optic_Parameters_><parameter name="APR">0</parameter><parameter name="APT">Open</parameter><parameter name="BMS">KBr</parameter><parameter name="CHN">Module port</parameter><parameter name="DTC">RT-DLaTGS_IR-Biotyper [Microplate reader]</parameter><parameter name="HPF">0</parameter><parameter name="LPF">10.0</parameter><parameter name="LPV">4000</parameter><parameter name="PGN">0</parameter><parameter name="RDX">0</parameter><parameter name="SRC">MIR</parameter><parameter name="VEL">10.0</parameter><parameter name="SON">Off</parameter></Optic_Parameters_><FT_-_Parameters_><parameter name="APF">B3</parameter><parameter name="HFQ">500</parameter><parameter name="LFQ">4000</parameter><parameter name="NLI">0</parameter><parameter name="PHR">24</parameter><parameter name="PHZ">ML</parameter><parameter name="SPZ">NO</parameter><parameter name="ZFF">1</parameter></FT_-_Parameters_><Acquisition_Parameters_><parameter name="ADT">1</parameter><parameter name="AQM">DD</parameter><parameter name="CFE">0</parameter><parameter name="COR">0</parameter><parameter name="DEL">0</parameter><parameter name="DLY">0</parameter><parameter name="HFW">8000</parameter><parameter name="LFW">0</parameter><parameter name="NSS">32</parameter><parameter name="PLF">AB</parameter><parameter name="RES">6</parameter><parameter name="SOT">0</parameter><parameter name="TCL">MakeCompatibleScalar (0, {WSV=1.000000, ARV=0});</parameter><parameter name="TDL">37</parameter><parameter name="SPO">0</parameter><parameter name="SGN">-1</parameter></Acquisition_Parameters_><Instrument_Parameters_Rf><parameter name="HFL">15801.365274</parameter><parameter name="LFL">0</parameter><parameter name="LWN">15801.365274</parameter><parameter name="ABP">32157</parameter><parameter name="SSP">1</parameter><parameter name="ARG">2</parameter><parameter name="ASG">2</parameter><parameter name="ASS">32</parameter><parameter name="GFW">16</parameter><parameter name="GBW">16</parameter><parameter name="BFW">0</parameter><parameter name="BBW">0</parameter><parameter name="PKA">9171</parameter><parameter name="PKL">5009</parameter><parameter name="PRA">9172</parameter><parameter name="PRL">4988</parameter><parameter name="P2A">1</parameter><parameter name="P2L">1</parameter><parameter name="P2R">1</parameter><parameter name="P2K">1</parameter><parameter name="DAQ">0</parameter><parameter name="AG2">1</parameter><parameter name="SSM">1</parameter><parameter name="RSN">48123</parameter><parameter name="CRR">0</parameter><parameter name="SRT">1707830235.72</parameter><parameter name="DUR">19.6399993896484</parameter><parameter name="TSC">30</parameter><parameter name="MVD">0.307142227888107</parameter><parameter name="AN1">0.225956034727637</parameter><parameter name="AN2">0</parameter><parameter name="VSN">2.485 Apr  4 2017</parameter><parameter name="SRN">0085</parameter><parameter name="CAM">0</parameter><parameter name="INS">IR-Biotyper</parameter><parameter name="FOC">69</parameter><parameter name="RDY">1</parameter><parameter name="ARS">32</parameter></Instrument_Parameters_Rf><Sample_Parameters_><parameter name="BLD"></parameter><parameter name="CNM">Admin</parameter><parameter name="CPY"></parameter><parameter name="DPM"></parameter><parameter name="EXP">IRBT_v3_32Scans.XPM</parameter><parameter name="LCT"></parameter><parameter name="SFM">Microplate, HTS-XT</parameter><parameter name="SNM">240213-1206-Cdiff_SCFA_3_GDA_C39_242149579_D4_311904c9-e2df-4528-967d-c643b09f06f8.0</parameter><parameter name="XPP">C:\Users\Public\Documents\Bruker\OPUS_8.2.28\XPM</parameter><parameter name="IST">OK</parameter><parameter name="CPG">1252</parameter><parameter name="UID">224c4008-2d6b-4504-a4e8-a65d7c0a36a0</parameter></Sample_Parameters_><Instrument_Parameters_><parameter name="HFL">15801.365274</parameter><parameter name="LFL">0</parameter><parameter name="LWN">15801.365274</parameter><parameter name="ABP">32157</parameter><parameter name="SSP">1</parameter><parameter name="ASG">2</parameter><parameter name="ARG">2</parameter><parameter name="ASS">32</parameter><parameter name="GFW">16</parameter><parameter name="GBW">16</parameter><parameter name="BFW">0</parameter><parameter name="BBW">0</parameter><parameter name="PKA">8154</parameter><parameter name="PKL">5001</parameter><parameter name="PRA">8259</parameter><parameter name="PRL">4980</parameter><parameter name="P2A">1</parameter><parameter name="P2L">1</parameter><parameter name="P2R">1</parameter><parameter name="P2K">1</parameter><parameter name="DAQ">0</parameter><parameter name="AG2">1</parameter><parameter name="SSM">1</parameter><parameter name="RSN">24759</parameter><parameter name="CRR">0</parameter><parameter name="SRT">1707830262.13</parameter><parameter name="DUR">19.6379852294922</parameter><parameter name="TSC">30</parameter><parameter name="MVD">0.350802361965179</parameter><parameter name="AN1">0.225949334720045</parameter><parameter name="AN2">0</parameter><parameter name="VSN">2.485 Apr  4 2017</parameter><parameter name="SRN">0085</parameter><parameter name="CAM">0</parameter><parameter name="INS">IR-Biotyper</parameter><parameter name="FOC">69</parameter><parameter name="RDY">1</parameter></Instrument_Parameters_><History/></OPUSDataFile>
