<?xml version="1.0" encoding="UTF-8" ?>
<OPUSDataFile><AB><Ydata ylabel="Absorbance Units"><values byteorder="INTEL" format="FLOAT32" numvalues="3497"> -0.05560033 -0.05559159 -0.05558677 -0.05558532 -0.055586 -0.05558772 -0.05558734 -0.05558499 -0.05557911 -0.05557138
 -0.05556279 -0.05555519 -0.05555035 -0.05554888 -0.05555185 -0.05555804 -0.05556758 -0.05557794 -0.05558863 -0.05559763
 -0.05560457 -0.05560852 -0.05560935 -0.05560701 -0.05560151 -0.05559341 -0.05558292 -0.05557228 -0.05556201 -0.05555601
 -0.05555446 -0.05556051 -0.05557286 -0.05559054 -0.05561154 -0.05563215 -0.05565195 -0.05566866 -0.05568384 -0.05569811
 -0.05571205 -0.05572661 -0.05574 -0.05575177 -0.05576066 -0.05576576 -0.05576973 -0.05577261 -0.05577861 -0.05578832
 -0.0558007 -0.05581564 -0.05582555 -0.0558303 -0.05582499 -0.05581131 -0.0557957 -0.05578024 -0.05577635 -0.05578221
 -0.05580071 -0.0558258 -0.05584905 -0.05586724 -0.05587206 -0.05586797 -0.05585461 -0.05583993 -0.0558282 -0.05582339
 -0.05582835 -0.05584208 -0.05586542 -0.0558937 -0.0559268 -0.05595747 -0.05598513 -0.05600274 -0.05600994 -0.0560068
 -0.05599402 -0.05597985 -0.05596507 -0.05595865 -0.05595983 -0.0559711 -0.0559905 -0.05601519 -0.05604282 -0.05606916
 -0.05609083 -0.05610306 -0.05610213 -0.05608233 -0.05604661 -0.05599238 -0.05593305 -0.05587192 -0.05582261 -0.05579026
 -0.05577517 -0.05577923 -0.05579117 -0.05581022 -0.05582624 -0.05583869 -0.05584487 -0.05584496 -0.05584016 -0.05583089
 -0.05581959 -0.05580707 -0.05579747 -0.05579106 -0.05579083 -0.05579586 -0.05580575 -0.05582024 -0.05583889 -0.05586166
 -0.05588961 -0.05591853 -0.05594744 -0.05596955 -0.05598137 -0.05598248 -0.05597134 -0.05595354 -0.05592997 -0.05590278
 -0.05587218 -0.05583956 -0.05580499 -0.0557824 -0.05577275 -0.05579431 -0.0558442 -0.05591766 -0.05600465 -0.05606649
 -0.05609649 -0.05605142 -0.05595046 -0.05579946 -0.05563419 -0.05550268 -0.05541343 -0.05539539 -0.05542488 -0.05549927
 -0.0555888 -0.05568166 -0.05576006 -0.0558167 -0.05584684 -0.0558479 -0.0558244 -0.05577575 -0.05571666 -0.05564788
 -0.05558723 -0.05553481 -0.05549546 -0.05546773 -0.05544453 -0.05542611 -0.05540901 -0.05539567 -0.05539107 -0.05539533
 -0.05541212 -0.05543745 -0.05546895 -0.05550085 -0.05552866 -0.05554552 -0.05554656 -0.05552728 -0.05548233 -0.05542129
 -0.05534283 -0.05527063 -0.05520852 -0.05517222 -0.05516507 -0.05517805 -0.05521093 -0.05524058 -0.05526617 -0.05527158
 -0.05525775 -0.05522222 -0.05516681 -0.05509588 -0.05501295 -0.0549278 -0.05484542 -0.05477954 -0.0547309 -0.05470792
 -0.05470297 -0.05471343 -0.05473005 -0.0547464 -0.05475874 -0.05476365 -0.05476217 -0.05475387 -0.05474049 -0.05472209
 -0.05470128 -0.05467833 -0.05465566 -0.05463348 -0.05460998 -0.05458499 -0.05455501 -0.05452054 -0.05448325 -0.05444387
 -0.0544068 -0.05437098 -0.05433603 -0.0543007 -0.05426152 -0.05422098 -0.05417998 -0.05414317 -0.05411557 -0.05409742
 -0.05409189 -0.05409196 -0.05409607 -0.05409666 -0.05409028 -0.0540785 -0.05405977 -0.05404637 -0.0540397 -0.05404688
 -0.05406875 -0.05409224 -0.0541162 -0.05411832 -0.0540996 -0.05405558 -0.05398989 -0.05391612 -0.0538337 -0.05374777
 -0.05365707 -0.05355813 -0.0534598 -0.05337091 -0.05330065 -0.05326444 -0.05325216 -0.05326672 -0.05328159 -0.05328566
 -0.0532654 -0.05321058 -0.05313901 -0.05305095 -0.05297186 -0.05290592 -0.05285492 -0.05281962 -0.05278146 -0.05273965
 -0.05267885 -0.0526005 -0.05250725 -0.05240218 -0.05229956 -0.05220065 -0.05211684 -0.05204608 -0.05199109 -0.05194633
 -0.05190769 -0.05186544 -0.05180974 -0.05173396 -0.0516279 -0.0515014 -0.05135335 -0.05120454 -0.05106188 -0.05093265
 -0.05082137 -0.05071567 -0.05061512 -0.05050415 -0.05038151 -0.0502436 -0.05009072 -0.04993082 -0.04976439 -0.04959987
 -0.04943523 -0.04926771 -0.04909226 -0.0488929 -0.04866814 -0.04840434 -0.04811153 -0.04779533 -0.04746986 -0.04715148
 -0.04684347 -0.04655429 -0.04627725 -0.04601268 -0.04574988 -0.0454875 -0.04520977 -0.04491391 -0.04458651 -0.04422465
 -0.04383112 -0.04340562 -0.04296062 -0.04249644 -0.04201746 -0.04152355 -0.041015 -0.04049318 -0.03996466 -0.03943019
 -0.03889587 -0.03836018 -0.037823 -0.037283 -0.03673851 -0.03618837 -0.03563104 -0.0350656 -0.03449042 -0.03390735
 -0.03331785 -0.03271915 -0.03211383 -0.03148329 -0.03082453 -0.03012181 -0.02936987 -0.02859099 -0.02778563 -0.026996
 -0.02622313 -0.02547586 -0.02475061 -0.02402099 -0.02328497 -0.0225181 -0.02172448 -0.02090184 -0.02005819 -0.01920888
 -0.01835735 -0.01751902 -0.01668151 -0.01584256 -0.01497874 -0.01407004 -0.01311641 -0.01210439 -0.0110742 -0.01003495
 -0.009018357 -0.008037143 -0.007076757 -0.006138714 -0.005189752 -0.004227009 -0.003239985 -0.002228862 -0.001209697 -0.0001831948
 0.0008363287 0.001852166 0.002871656 0.003899111 0.004953463 0.006030981 0.007136407 0.008256526 0.009373873 0.01048198
 0.01156399 0.01263203 0.01368714 0.01474717 0.01582192 0.01691677 0.01803717 0.01917544 0.02033189 0.02149348
 0.0226587 0.0238169 0.02496666 0.02611239 0.02725472 0.02841463 0.02959245 0.03080143 0.03203777 0.03329043
 0.03455548 0.03581416 0.03706779 0.03830975 0.03954364 0.04077151 0.0419971 0.04322456 0.04445702 0.04569862
 0.04694797 0.04820609 0.04946849 0.05073271 0.05200194 0.05327561 0.05456251 0.05586458 0.05718022 0.05850996
 0.05984095 0.06117266 0.06249762 0.06381628 0.06513008 0.06643947 0.06774688 0.06905292 0.07036034 0.07167039
 0.07298756 0.07431118 0.07564288 0.07697989 0.07832015 0.07966121 0.08100066 0.08233755 0.08367067 0.08500046
 0.08632626 0.08765133 0.08897594 0.09030438 0.09163728 0.09297755 0.09432561 0.09568058 0.09704227 0.09840259
 0.09976072 0.1011046 0.1024349 0.1037488 0.1050495 0.1063469 0.1076413 0.1089395 0.1102368 0.1115283
 0.1128131 0.1140868 0.1153553 0.1166223 0.1178904 0.1191634 0.1204362 0.121708 0.1229752 0.1242365
 0.1254925 0.1267433 0.1279886 0.1292284 0.1304614 0.1316874 0.1329054 0.1341152 0.135316 0.1365084
 0.1376958 0.1388797 0.1400675 0.1412578 0.1424517 0.1436439 0.1448262 0.1459967 0.1471494 0.1482874
 0.1494115 0.1505224 0.1516211 0.152706 0.153776 0.1548337 0.1558791 0.1569167 0.1579472 0.1589734
 0.1599953 0.1610184 0.1620432 0.1630736 0.1641091 0.165143 0.1661739 0.1671902 0.1681925 0.169177
 0.1701454 0.1710991 0.1720385 0.1729634 0.1738765 0.1747794 0.1756776 0.1765764 0.1774774 0.1783835
 0.1792913 0.1802001 0.1811074 0.1820128 0.1829153 0.1838152 0.1847096 0.1855983 0.1864788 0.187351
 0.1882141 0.1890684 0.1899134 0.1907492 0.1915763 0.1923951 0.1932068 0.1940105 0.1948038 0.1955856
 0.1963519 0.1971051 0.1978463 0.1985782 0.1993044 0.2000225 0.2007323 0.2014325 0.2021212 0.2028044
 0.2034835 0.2041622 0.2048423 0.2055173 0.2061871 0.2068449 0.2074901 0.2081255 0.2087515 0.2093736
 0.2099918 0.210607 0.2112182 0.2118217 0.2124165 0.2129981 0.2135671 0.2141223 0.2146659 0.2152006
 0.215726 0.2162436 0.2167505 0.2172442 0.2177274 0.2181993 0.2186681 0.2191369 0.2196039 0.2200707
 0.2205207 0.2209524 0.221353 0.2217215 0.2220623 0.2223762 0.2226754 0.2229603 0.2232386 0.2235101
 0.2237776 0.2240414 0.2243038 0.2245653 0.2248285 0.2250919 0.2253563 0.2256163 0.2258684 0.2261072
 0.2263276 0.2265318 0.2267185 0.2268944 0.2270618 0.2272217 0.2273749 0.2275198 0.2276558 0.2277892
 0.2279202 0.2280565 0.2281972 0.2283348 0.2284672 0.2285772 0.228666 0.2287277 0.2287674 0.2287955
 0.2288148 0.2288358 0.228856 0.2288766 0.2288941 0.2289044 0.2289091 0.2289068 0.2289041 0.2289038
 0.2289084 0.2289207 0.2289325 0.2289435 0.2289413 0.2289242 0.2288902 0.2288391 0.2287831 0.2287232
 0.2286755 0.2286396 0.2286229 0.2286225 0.2286318 0.2286465 0.2286515 0.2286456 0.2286177 0.2285751
 0.2285204 0.2284664 0.2284248 0.2284029 0.2284107 0.2284413 0.2284964 0.2285606 0.2286299 0.2286939
 0.2287487 0.2287988 0.2288436 0.2288971 0.2289603 0.2290422 0.2291427 0.2292594 0.2293919 0.2295365
 0.2296952 0.2298735 0.2300733 0.2303047 0.2305627 0.2308465 0.2311413 0.2314301 0.2316962 0.2319172
 0.2320918 0.2322072 0.2322872 0.2323342 0.2323839 0.2324471 0.2325438 0.2326821 0.2328497 0.2330482
 0.2332412 0.2334266 0.2335719 0.2336769 0.2337379 0.2337586 0.2337637 0.2337558 0.2337611 0.2337749
 0.2337999 0.2338282 0.2338452 0.2338505 0.2338347 0.2338083 0.2337764 0.2337492 0.2337378 0.2337351
 0.2337458 0.2337422 0.2337191 0.2336466 0.2335161 0.2333271 0.2330756 0.2327982 0.2324967 0.232213
 0.2319477 0.2317131 0.2315065 0.2313134 0.231132 0.2309475 0.2307605 0.2305659 0.2303639 0.2301523
 0.2299315 0.2297004 0.2294617 0.2292176 0.2289689 0.228718 0.2284599 0.2281933 0.2279135 0.2276174
 0.2273099 0.2269899 0.2266725 0.2263586 0.2260644 0.2257912 0.2255439 0.2253221 0.2251107 0.224907
 0.2246828 0.2244378 0.2241531 0.2238352 0.2234901 0.2231278 0.2227701 0.2224218 0.2221001 0.2218007
 0.2215274 0.2212707 0.2210264 0.2207855 0.2205433 0.2202943 0.2200361 0.2197667 0.2194852 0.2191927
 0.2188891 0.2185791 0.2182628 0.2179485 0.2176363 0.2173322 0.2170354 0.2167431 0.2164533 0.2161551
 0.215847 0.2155187 0.2151721 0.2148044 0.2144213 0.2140279 0.2136315 0.2132405 0.2128596 0.2124957
 0.2121465 0.2118145 0.2114903 0.2111725 0.2108509 0.2105231 0.2101845 0.2098342 0.2094727 0.2090999
 0.2087159 0.2083207 0.2079122 0.2074908 0.2070578 0.2066148 0.2061691 0.205722 0.2052819 0.2048483
 0.2044244 0.2040081 0.2035982 0.2031932 0.2027915 0.2023924 0.2019952 0.2015978 0.2011999 0.2007971
 0.2003882 0.19997 0.1995406 0.1991056 0.1986643 0.1982341 0.1978162 0.1974261 0.197064 0.1967223
 0.1963979 0.1960592 0.1957043 0.1953047 0.1948657 0.194386 0.1938772 0.1933609 0.1928477 0.1923626
 0.1919074 0.1914961 0.1911167 0.1907693 0.1904309 0.1900917 0.1897347 0.1893496 0.1889433 0.1885128
 0.1880832 0.1876578 0.1872529 0.1868709 0.1865055 0.1861563 0.1858096 0.1854664 0.1851286 0.1847997
 0.1844986 0.1842251 0.1839926 0.1837908 0.1836077 0.1834254 0.1832126 0.1829602 0.1826425 0.182274
 0.1818524 0.1814077 0.1809541 0.1805096 0.1800862 0.179676 0.1792803 0.1788844 0.1784852 0.1780841
 0.1776805 0.1772871 0.1769042 0.1765345 0.1761768 0.1758203 0.1754646 0.1751011 0.1747316 0.1743573
 0.1739784 0.1735974 0.1732111 0.1728159 0.1724088 0.1719848 0.1715446 0.171087 0.1706153 0.1701311
 0.169636 0.1691317 0.1686144 0.1680846 0.1675319 0.1669552 0.1663448 0.1656992 0.1650245 0.1643215
 0.1636176 0.1629148 0.1622455 0.1616084 0.161015 0.1604576 0.1599191 0.159391 0.1588451 0.1582804
 0.1576812 0.1570572 0.1564111 0.1557561 0.1551029 0.1544582 0.153829 0.1532145 0.1526161 0.1520303
 0.1514565 0.1508923 0.1503371 0.1497909 0.1492535 0.1487306 0.1482225 0.1477381 0.147277 0.1468389
 0.1464211 0.1460091 0.1456011 0.1451816 0.1447549 0.1443221 0.1438904 0.1434731 0.1430703 0.14269
 0.1423212 0.1419595 0.1415923 0.1412111 0.140813 0.1403938 0.1399592 0.1395094 0.1390519 0.1385877
 0.1381227 0.1376574 0.1371983 0.1367458 0.1363082 0.135886 0.1354855 0.1351057 0.134745 0.1343998
 0.1340578 0.1337148 0.1333538 0.132976 0.1325731 0.1321547 0.1317263 0.1313016 0.1308924 0.1305074
 0.130155 0.1298356 0.1295516 0.1293006 0.129082 0.1288954 0.1287405 0.1286198 0.1285335 0.1284868
 0.1284801 0.1285202 0.1286077 0.1287496 0.1289471 0.1292091 0.1295376 0.1299451 0.1304327 0.1310109
 0.1316745 0.1324226 0.1332425 0.1341212 0.135046 0.1360028 0.1369842 0.1379833 0.1389943 0.1400153
 0.141036 0.1420546 0.143059 0.1440474 0.145011 0.1459489 0.1468528 0.1477221 0.1485415 0.1493093
 0.1500022 0.150618 0.1511319 0.1515416 0.151827 0.1519869 0.1520076 0.1518904 0.1516287 0.1512315
 0.1507 0.1500615 0.1493282 0.1485511 0.1477531 0.1469958 0.1463055 0.1457258 0.145275 0.1449593
 0.1447858 0.1447269 0.1447825 0.144908 0.145101 0.1453122 0.1455392 0.1457376 0.1459063 0.1460146
 0.1460626 0.146034 0.1459272 0.1457312 0.1454432 0.1450529 0.1445625 0.1439678 0.1432813 0.1425086
 0.1416696 0.1407757 0.139844 0.1388861 0.1379005 0.1368939 0.1358342 0.1347203 0.133503 0.1321761
 0.1307204 0.1291339 0.1274619 0.1257099 0.1239661 0.122235 0.1205902 0.1190276 0.1175728 0.1162166
 0.1149497 0.1137645 0.1126448 0.1115857 0.1105761 0.109611 0.1086828 0.1077885 0.106923 0.106091
 0.1052913 0.1045363 0.1038285 0.1031791 0.1025908 0.1020661 0.1016057 0.1012062 0.1008673 0.1005866
 0.1003642 0.1002002 0.100094 0.1000435 0.100046 0.1000928 0.1001755 0.1002741 0.100369 0.1004229
 0.1004068 0.1002723 0.09999708 0.0995421 0.09891194 0.09809142 0.09711656 0.09599233 0.09477042 0.09346219
 0.09211835 0.09074779 0.08939262 0.08805786 0.0867752 0.08554696 0.08439191 0.0833098 0.08229876 0.08135357
 0.08044124 0.07955007 0.07861749 0.07763278 0.07653239 0.07532264 0.07397731 0.07252929 0.07100157 0.06944244
 0.06789926 0.06640808 0.06500697 0.06369832 0.06249654 0.06137521 0.06033112 0.05933672 0.05838547 0.05746827
 0.05658274 0.05573301 0.05491923 0.05414364 0.05340603 0.05270246 0.05203237 0.05139021 0.05077524 0.05018202
 0.04960889 0.04904905 0.04850067 0.04795701 0.04741801 0.04688028 0.04634631 0.04581657 0.04529508 0.04478441
 0.04428711 0.04380581 0.04333751 0.04288286 0.04243403 0.04198981 0.0415437 0.04109438 0.04064271 0.04018855
 0.03973794 0.03929118 0.03885365 0.03842505 0.03800577 0.03759501 0.03718959 0.03678914 0.03639089 0.03599532
 0.03560209 0.03521153 0.03482458 0.0344393 0.03405471 0.03366786 0.03327614 0.03287965 0.03247687 0.03207242
 0.03166696 0.03126591 0.03087059 0.03048316 0.03010421 0.02973298 0.02936951 0.02901091 0.028657 0.02830441
 0.02795313 0.0276015 0.02724997 0.02689961 0.02655085 0.0262056 0.02586361 0.02552509 0.02519036 0.02485942
 0.02453413 0.02421615 0.02390698 0.02360848 0.02331969 0.02304087 0.02277008 0.02250653 0.02225043 0.02200172
 0.02176079 0.02152801 0.02130014 0.02107707 0.02085358 0.0206295 0.0204027 0.02017346 0.0199437 0.01971325
 0.01948272 0.01925107 0.01901545 0.01877545 0.01852812 0.01827571 0.01801925 0.017763 0.01751123 0.01726689
 0.01703381 0.0168108 0.01659909 0.01639378 0.016194 0.01599448 0.01579414 0.01558915 0.01537902 0.01516035
 0.01493289 0.01469344 0.01444196 0.01417881 0.0139047 0.01362566 0.01334239 0.01306175 0.01278284 0.01250673
 0.01223189 0.01195513 0.01167722 0.01139717 0.01111824 0.01084341 0.01057455 0.01031443 0.01006145 0.00981597
 0.009574665 0.00933668 0.009099256 0.008861742 0.008622194 0.00838023 0.008135192 0.007886934 0.007636844 0.00738499
 0.00713286 0.006880325 0.006626816 0.00637213 0.006114701 0.005855085 0.005593917 0.005332324 0.005073124 0.004816435
 0.004563952 0.004314436 0.004067037 0.003821512 0.003576784 0.003335208 0.00309734 0.002866058 0.002642754 0.002427393
 0.002220714 0.00201905 0.001822261 0.001625177 0.001427377 0.001225185 0.001018487 0.0008074762 0.0005926114 0.0003782387
 0.0001649076 -4.217293E-05 -0.0002433254 -0.0004364522 -0.0006229857 -0.0008047582 -0.0009832521 -0.001161422 -0.00134 -0.001520824
 -0.001703976 -0.001890226 -0.002078814 -0.002269926 -0.002461497 -0.002653133 -0.002842274 -0.003028272 -0.003209671 -0.003385967
 -0.003558376 -0.00372684 -0.003894731 -0.004062226 -0.004232642 -0.004406053 -0.004584515 -0.004767885 -0.004956762 -0.005150569
 -0.005348284 -0.005548361 -0.005747233 -0.005943263 -0.006132053 -0.006314099 -0.006487513 -0.006655661 -0.006820175 -0.006984169
 -0.007150042 -0.007317597 -0.007487779 -0.007657417 -0.007825902 -0.007991285 -0.008152928 -0.008312307 -0.008469398 -0.008627335
 -0.00878626 -0.008947836 -0.009111919 -0.009277537 -0.009444554 -0.009611688 -0.009779115 -0.009946779 -0.01011482 -0.01028359
 -0.01045291 -0.01062256 -0.01079257 -0.01096281 -0.01113369 -0.01130564 -0.01147836 -0.01165211 -0.0118253 -0.01199741
 -0.01216746 -0.01233488 -0.01250088 -0.01266548 -0.01283048 -0.01299606 -0.01316275 -0.01333056 -0.01349903 -0.01366819
 -0.01383829 -0.01400934 -0.01418174 -0.01435509 -0.0145285 -0.01470128 -0.01487138 -0.01503874 -0.01520228 -0.01536251
 -0.01551976 -0.01567392 -0.01582527 -0.0159727 -0.01611551 -0.01625378 -0.0163868 -0.01651769 -0.01664686 -0.01677772
 -0.01691116 -0.01704662 -0.01718437 -0.01732001 -0.01745332 -0.01758056 -0.01770193 -0.01781878 -0.01793186 -0.01804616
 -0.018162 -0.01828349 -0.0184094 -0.01853946 -0.01867124 -0.01880091 -0.01892662 -0.01904439 -0.01915502 -0.01925704
 -0.01935443 -0.01944838 -0.01954369 -0.01964262 -0.01974655 -0.01985675 -0.01997022 -0.02008683 -0.02020278 -0.02031758
 -0.02043057 -0.02054172 -0.02065311 -0.02076485 -0.02087887 -0.02099509 -0.02111402 -0.02123547 -0.02135896 -0.02148461
 -0.02161245 -0.02174286 -0.02187659 -0.02201349 -0.02215407 -0.02229687 -0.02244112 -0.02258512 -0.02272742 -0.0228685
 -0.02300778 -0.023148 -0.02328985 -0.02343456 -0.0235827 -0.02373249 -0.02388385 -0.02403448 -0.02418424 -0.02433323
 -0.0244815 -0.02462992 -0.02477834 -0.02492614 -0.02507323 -0.02521871 -0.02536317 -0.0255074 -0.02565221 -0.02579953
 -0.02594909 -0.0261016 -0.02625572 -0.02641063 -0.02656525 -0.02671864 -0.02687067 -0.02702109 -0.02716993 -0.02731707
 -0.02746302 -0.0276077 -0.02775263 -0.02789789 -0.02804527 -0.02819488 -0.02834636 -0.0284995 -0.02865139 -0.02880189
 -0.0289486 -0.02909191 -0.02923196 -0.02936933 -0.02950558 -0.02964078 -0.02977588 -0.02991041 -0.03004417 -0.03017673
 -0.03030745 -0.03043676 -0.03056438 -0.030692 -0.03082004 -0.03095031 -0.03108355 -0.03121982 -0.03135953 -0.03150016
 -0.0316416 -0.03178033 -0.03191613 -0.03204778 -0.03217542 -0.032301 -0.03242481 -0.03254973 -0.03267539 -0.03280205
 -0.0329288 -0.03305329 -0.0331752 -0.03329258 -0.03340633 -0.03351647 -0.03362464 -0.03373213 -0.03384036 -0.03395047
 -0.0340632 -0.03417956 -0.03429785 -0.03441829 -0.03453683 -0.03465278 -0.03476355 -0.03486847 -0.03497003 -0.0350683
 -0.03516813 -0.03526964 -0.0353749 -0.03548359 -0.03559456 -0.0357075 -0.03582055 -0.03593363 -0.03604566 -0.03615667
 -0.03626597 -0.03637419 -0.03648164 -0.03658933 -0.0366985 -0.03680881 -0.03692093 -0.03703244 -0.03714265 -0.03724923
 -0.03735118 -0.03744834 -0.03754033 -0.03762885 -0.03771395 -0.03779807 -0.03788135 -0.03796659 -0.03805388 -0.0381452
 -0.03824019 -0.03833752 -0.0384364 -0.03853275 -0.03862634 -0.03871397 -0.03879714 -0.03887649 -0.03895481 -0.03903544
 -0.0391215 -0.03921673 -0.03932338 -0.03944417 -0.03957885 -0.03972867 -0.03988973 -0.04006171 -0.04023892 -0.04042027
 -0.04060232 -0.04078447 -0.04096616 -0.04114736 -0.04132676 -0.0415041 -0.04167429 -0.04183689 -0.0419865 -0.04212263
 -0.0422411 -0.04234016 -0.04241335 -0.04245848 -0.04246781 -0.04244207 -0.04237796 -0.04228014 -0.04214902 -0.04199679
 -0.0418262 -0.04166301 -0.04151652 -0.04141233 -0.04136151 -0.04136832 -0.04143804 -0.0415514 -0.04170839 -0.04187624
 -0.04205297 -0.04220588 -0.04233408 -0.04242428 -0.04247849 -0.04250583 -0.04250835 -0.04249921 -0.04247932 -0.04245739
 -0.04243463 -0.04241777 -0.04240617 -0.04240254 -0.04240353 -0.04240741 -0.0424104 -0.04240981 -0.04240296 -0.04238793
 -0.04236404 -0.04233001 -0.04228957 -0.04224255 -0.0421965 -0.04215241 -0.04211451 -0.04208332 -0.04205653 -0.04203394
 -0.04201073 -0.04198701 -0.04196129 -0.04193423 -0.04190785 -0.04188289 -0.04186256 -0.04184705 -0.04183833 -0.04183603
 -0.04184069 -0.04185126 -0.04186736 -0.04188676 -0.04190845 -0.04192907 -0.04194697 -0.04195999 -0.04196662 -0.04196855
 -0.04196549 -0.04196176 -0.0419579 -0.04195656 -0.04195805 -0.04196168 -0.04196745 -0.04197428 -0.0419824 -0.0419932
 -0.04200689 -0.04202547 -0.0420481 -0.04207377 -0.04210068 -0.04212471 -0.04214495 -0.04215786 -0.04216499 -0.04216608
 -0.04216418 -0.04216129 -0.0421591 -0.04215916 -0.04216097 -0.04216477 -0.04216945 -0.04217475 -0.04218053 -0.04218676
 -0.04219317 -0.04219982 -0.04220458 -0.04220731 -0.04220508 -0.04219792 -0.04218477 -0.04216631 -0.04214516 -0.04212216
 -0.04210138 -0.04208275 -0.04206834 -0.04205702 -0.04204801 -0.04204058 -0.04203358 -0.04202712 -0.04202107 -0.04201522
 -0.04200971 -0.04200339 -0.04199599 -0.04198636 -0.04197411 -0.04195925 -0.04194165 -0.04192219 -0.0419009 -0.04187974
 -0.04185885 -0.04184072 -0.0418254 -0.04181435 -0.04180717 -0.0418029 -0.04180064 -0.04179724 -0.04179204 -0.0417819
 -0.04176734 -0.04174718 -0.04172377 -0.04169877 -0.04167471 -0.04165417 -0.04163737 -0.04162557 -0.04161624 -0.04160907
 -0.04160095 -0.0415911 -0.04157807 -0.04156143 -0.04154171 -0.04151884 -0.04149528 -0.04147117 -0.04144946 -0.04143019
 -0.04141498 -0.04140351 -0.04139501 -0.04138901 -0.04138369 -0.04137852 -0.04137157 -0.04136232 -0.041349 -0.04133195
 -0.04131056 -0.0412863 -0.04125981 -0.04123283 -0.04120632 -0.04118144 -0.04115884 -0.04113863 -0.04112112 -0.04110528
 -0.04109119 -0.04107656 -0.04106121 -0.04104337 -0.04102299 -0.04100103 -0.04097773 -0.04095604 -0.04093593 -0.04091902
 -0.04090456 -0.04089089 -0.04087736 -0.04086147 -0.04084392 -0.04082443 -0.0408045 -0.04078588 -0.04076863 -0.0407538
 -0.04073954 -0.04072522 -0.04070941 -0.04069112 -0.04067133 -0.04064999 -0.04062873 -0.04060786 -0.04058773 -0.0405684
 -0.04054963 -0.04053142 -0.04051464 -0.04049933 -0.04048628 -0.04047536 -0.04046634 -0.04045882 -0.04045151 -0.04044382
 -0.04043389 -0.04042139 -0.04040465 -0.04038468 -0.04036124 -0.04033747 -0.04031527 -0.04029784 -0.04028779 -0.04028472
 -0.04028987 -0.0402984 -0.04030984 -0.04031813 -0.04032221 -0.04031926 -0.04030874 -0.04029272 -0.04027134 -0.04024963
 -0.04022781 -0.04021008 -0.04019616 -0.04018676 -0.04018134 -0.04017843 -0.04017778 -0.04017819 -0.04017948 -0.04018085
 -0.04018216 -0.04018288 -0.04018307 -0.04018228 -0.04018182 -0.04018202 -0.04018471 -0.04019076 -0.04020061 -0.04021485
 -0.04023157 -0.0402507 -0.04026955 -0.04028783 -0.04030399 -0.04031795 -0.04032985 -0.04033975 -0.04034835 -0.04035572
 -0.04036254 -0.04036885 -0.0403751 -0.04038138 -0.040388 -0.04039532 -0.04040392 -0.04041444 -0.04042801 -0.04044439
 -0.04046417 -0.04048561 -0.04050824 -0.04052963 -0.04054841 -0.0405649 -0.04057852 -0.04059228 -0.04060665 -0.04062319
 -0.04064235 -0.04066108 -0.04067923 -0.04069313 -0.04070292 -0.04070931 -0.04071309 -0.04071952 -0.0407287 -0.04074435
 -0.04076509 -0.04078968 -0.04081659 -0.04084224 -0.04086721 -0.04089024 -0.04091373 -0.04093932 -0.04096805 -0.04100166
 -0.0410375 -0.04107533 -0.04111143 -0.04114458 -0.04117404 -0.04119918 -0.04122281 -0.04124507 -0.04126919 -0.04129538
 -0.04132548 -0.0413595 -0.04139799 -0.04144068 -0.04148649 -0.04153484 -0.04158308 -0.04163074 -0.04167531 -0.04171668
 -0.04175365 -0.0417861 -0.04181325 -0.04183558 -0.04185257 -0.04186683 -0.04187915 -0.04189333 -0.04191127 -0.04193407
 -0.04196305 -0.04199467 -0.04202885 -0.0420604 -0.04208871 -0.04211143 -0.04212838 -0.04214038 -0.04214759 -0.04215289
 -0.04215661 -0.04216226 -0.04217011 -0.04218331 -0.04220148 -0.04222582 -0.04225469 -0.04228632 -0.04231811 -0.04234627
 -0.04236929 -0.04238397 -0.04239234 -0.04239389 -0.04239339 -0.04239251 -0.0423948 -0.04240206 -0.04241308 -0.04242835
 -0.04244318 -0.04245716 -0.04246654 -0.04247104 -0.04247061 -0.04246541 -0.0424582 -0.04244917 -0.04244084 -0.04243325
 -0.04242803 -0.04242484 -0.04242381 -0.04242431 -0.04242535 -0.04242633 -0.04242597 -0.04242454 -0.04242174 -0.0424183
 -0.04241475 -0.04241094 -0.04240709 -0.04240219 -0.04239601 -0.04238772 -0.04237702 -0.04236437 -0.04234972 -0.04233422
 -0.04231795 -0.0423013 -0.04228419 -0.04226558 -0.04224536 -0.04222206 -0.04219602 -0.04216754 -0.04213756 -0.04210869
 -0.04208145 -0.04205818 -0.0420382 -0.04202185 -0.04200768 -0.04199451 -0.04198154 -0.04196788 -0.04195339 -0.04193771
 -0.04192143 -0.04190451 -0.04188813 -0.04187241 -0.04185891 -0.04184787 -0.04183996 -0.04183528 -0.04183257 -0.04183163
 -0.04182891 -0.04182417 -0.04181374 -0.04179812 -0.04177701 -0.04175179 -0.04172594 -0.04170049 -0.04167919 -0.04166174
 -0.04164956 -0.04164122 -0.04163632 -0.04163254 -0.04162876 -0.04162198 -0.04161045 -0.04159345 -0.04156977 -0.041543
 -0.0415134 -0.04148526 -0.04145934 -0.04143554 -0.04141397 -0.04139056 -0.04136507 -0.04133331 -0.04129541 -0.04125011
 -0.0411983 -0.04114266 -0.04108455 -0.04102906 -0.04097671 -0.04093136 -0.04089146 -0.04085703 -0.04082539 -0.04079431
 -0.04076147 -0.04072473 -0.04068334 -0.04063602 -0.04058467 -0.04052906 -0.04047351 -0.04041875 -0.04036803 -0.04032211
 -0.04027973 -0.04024092 -0.04020229 -0.04016376 -0.0401238 -0.04008266 -0.04004138 -0.04000029 -0.0399615 -0.03992492
 -0.03989168 -0.03986083 -0.03983145 -0.03980169 -0.03976871 -0.03973137 -0.03968722 -0.03963731 -0.03958132 -0.03952141
 -0.03945828 -0.03939392 -0.039329 -0.03926505 -0.03920252 -0.0391418 -0.03908311 -0.03902515 -0.03896786 -0.03890931
 -0.03884941 -0.03878728 -0.03872313 -0.03865828 -0.03859302 -0.03852972 -0.03846774 -0.038407 -0.03834549 -0.03827915
 -0.03820691 -0.03812451 -0.03803493 -0.03793885 -0.03784074 -0.03774415 -0.03765004 -0.03755984 -0.03747293 -0.03738913
 -0.03730926 -0.0372336 -0.03716191 -0.03709457 -0.0370271 -0.03695923 -0.03688639 -0.03680846 -0.03672534 -0.03663731
 -0.03654667 -0.03645357 -0.03635986 -0.0362656 -0.03617197 -0.03607891 -0.03598708 -0.03589585 -0.03580481 -0.03571279
 -0.03561871 -0.03552118 -0.03541905 -0.03531126 -0.03519633 -0.03507667 -0.03495211 -0.03482777 -0.03470484 -0.03458549
 -0.03447059 -0.03435676 -0.03424389 -0.0341274 -0.03400712 -0.03388124 -0.03374977 -0.03361226 -0.03346862 -0.0333182
 -0.03316092 -0.03299612 -0.03282397 -0.03264414 -0.03245768 -0.03226561 -0.03206963 -0.0318721 -0.03167299 -0.03147339
 -0.03127129 -0.03106555 -0.03085664 -0.03064363 -0.0304315 -0.03022134 -0.03001563 -0.02981551 -0.02961569 -0.02941607
 -0.02920708 -0.02898828 -0.02875264 -0.02850063 -0.02823334 -0.02795245 -0.02766702 -0.02737759 -0.02709173 -0.02680636
 -0.02651912 -0.02622607 -0.02591986 -0.02560018 -0.02526366 -0.02491216 -0.02454693 -0.02416621 -0.02377067 -0.02335405
 -0.02291533 -0.02244606 -0.02194444 -0.0214036 -0.02082143 -0.0202023 -0.0195457 -0.01887044 -0.01817739 -0.01748028
 -0.01677825 -0.01606717 -0.01534634 -0.01460934 -0.01385838 -0.01309863 -0.01232875 -0.01155115 -0.01075671 -0.009931752
 -0.009073197 -0.008167487 -0.007231608 -0.006271891 -0.005306926 -0.004351372 -0.003399463 -0.002454672 -0.001498564 -0.0005265126
 0.000466966 0.001483856 0.002519804 0.0035739 0.004655811 0.005766278 0.006933108 0.008155787 0.009442263 0.01078479
 0.01214606 0.01352146 0.0148719 0.01620839 0.01753441 0.01886473 0.02022444 0.02161894 0.02306134 0.02455837
 0.02611119 0.02774979 0.02948273 0.0313561 0.03338962 0.03560126 0.0380067 0.04056277 0.0432705 0.04605051
 0.04889659 0.05174314 0.05458687 0.05740084 0.06018873 0.062976 0.06577674 0.06867772 0.07169347 0.07493135
 0.07836553 0.08200962 0.08578797 0.08958069 0.09336127 0.09703173 0.100667 0.1042855 0.107972 0.1117852
 0.1157319 0.1198335 0.1240507 0.1283758 0.1327927 0.1372996 0.141876 0.1465216 0.1511869 0.1558696
 0.1605562 0.1652467 0.1699472 0.1746417 0.1792452 0.1837384 0.1879928 0.1920412 0.1958821 0.1995855
 0.2032787 0.2069582 0.2106987 0.2143859 0.2179469 0.2213312 0.2244666 0.2274404 0.2302725 0.233014
 0.235697 0.2382505 0.2406701 0.2428799 0.2448686 0.2466502 0.2482252 0.2496392 0.2508913 0.2519803
 0.2529016 0.2536228 0.2541495 0.2544805 0.2546312 0.2546348 0.2545074 0.2542846 0.2539885 0.2536507
 0.2533055 0.2529841 0.2527254 0.2525541 0.2525054 0.2525947 0.2528516 0.2532883 0.2539075 0.2547161
 0.2556723 0.2567734 0.2579751 0.2592746 0.2606734 0.2621735 0.263801 0.2655549 0.2674428 0.2694599
 0.2715925 0.2738391 0.2761878 0.2786432 0.2812051 0.2838844 0.2866907 0.2896407 0.2927485 0.2960311
 0.2994999 0.3031693 0.3070459 0.3111443 0.3154688 0.3200308 0.3248327 0.3298797 0.3351732 0.3407059
 0.3464775 0.3524488 0.3586177 0.3649416 0.3714322 0.3781377 0.385076 0.3923684 0.3999591 0.4078187
 0.4157779 0.4235562 0.4309885 0.4377873 0.4438192 0.4489275 0.4529031 0.455599 0.4568596 0.4565654
 0.4547726 0.4514782 0.4467221 0.4405177 0.4328082 0.4235554 0.4131503 0.4016073 0.3899415 0.3781883
 0.3670574 0.3564939 0.3464866 0.3369837 0.3277757 0.3188758 0.3102171 0.3018192 0.2937042 0.2858339
 0.2781853 0.2706842 0.2632402 0.2558778 0.2485435 0.241432 0.2346082 0.2282062 0.222306 0.216796
 0.2116801 0.2067744 0.2020552 0.1974592 0.19298 0.1886569 0.1844912 0.1805114 0.1767144 0.1730899
 0.169639 0.1663599 0.1632567 0.160347 0.1576135 0.1550485 0.1525975 0.1502001 0.1477907 0.1452904
 0.142673 0.1398932 0.1369776 0.1339242 0.1307679 0.1275151 0.1242011 0.1208197 0.1174893 0.1142145
 0.1111801 0.1083997 0.1059175 0.1037253 0.1016725 0.09974285 0.09774756 0.09569071 0.09348018 0.09114692
 0.08872095 0.08623704 0.08377027 0.08134294 0.07900729 0.07678876 0.07472062 0.07283552 0.07116099 0.06971735
 0.06851985 0.06757336 0.06688038 0.06644972 0.06628156 0.0663942 0.06678957 0.06748224 0.06847358 0.06976342
 0.07134926 0.07318994 0.07527054 0.07746953 0.07976288 0.08198576 0.08412848 0.08607888 0.08784562 0.08938996
 0.09073225 0.09187181 0.09285915 0.0937208 0.09455086 0.095403 0.09637596 0.09753242 0.09888817 0.1004781
 0.1022002 0.1040467 0.1058988 0.1077402 0.1095141 0.1112152 0.1128255 0.1143457 0.1157896 0.1171645
 0.1185304 0.1198985 0.1213457 0.1228825 0.124571 0.1264297 0.1285151 0.1308553 0.1335073 0.1364931
 0.1398484 0.1435938 0.1477442 0.1523387 0.1573993 0.1629417 0.1689924 0.1754639 0.1823583 0.1895062
 0.196888 0.204385 0.2119861 0.2196726 0.2274415 0.2352455 0.243059 0.2506679 0.2580255 0.264817
 0.27101 0.2763614 0.2808438 0.2843075 0.2867021 0.2878989 0.2878719 0.2865248 0.2839445 0.2801213
 0.275261 0.2694245 0.2628577 0.2556309 0.2479634 0.2399015 0.2316206 0.223142 0.2146281 0.2060897
 0.1977045 0.1894809 0.181566 0.1739579 0.1667076 0.1598069 0.1532403 0.1470127 0.1411263 0.1355992
 0.1304718 0.1257464 0.1214529 0.1175604 0.11406 0.1108957 0.1080388 0.1054161 0.1029976 0.1007003
 0.09849592 0.09632196 0.0941576 0.09199289 0.08982075 0.08767439 0.08555493 0.08350773 0.0815357 0.07969417
 0.07798938 0.07649897 0.07522802 0.07424843 0.07354648 0.07313055 0.07295897 0.07296166 0.07308401 0.07322413
 0.07333995 0.07335251 0.07325068 0.07299948 0.07261806 0.07210441 0.0714862 0.07077213 0.06997777 0.06910843
 0.06816738 0.06715578 0.06607328 0.06491978 0.06369811 0.06240863 0.06106186 0.05965916 0.05821732 0.05673746
 0.05523356 0.05370609 0.05216182 0.05060496 0.04904332 0.04749059 0.0459645 0.04448927 0.04309098 0.04179813
 0.0406364 0.03962632 0.03878583 0.03811555 0.03762283 0.03728722 0.03710858 0.03705322 0.03711886 0.03726271
 0.0374822 0.03772728 0.03799528 0.03823952 0.03845926 0.03862776 0.03874779 0.03881779 0.03884225 0.0388345
 0.03879607 0.03873928 0.03865641 0.03854582 0.03838794 0.03816561 0.03785506 0.03743422 0.03689088 0.03621025
 0.03540211 0.03446209 0.03342126 0.03228151 0.03108946 0.0298491 0.02861547 0.02739268 0.02623251 0.02513761
 0.0241438 0.02325101 0.0224728 0.02180637 0.02124599 0.02078697 0.02041266 0.02011786 0.01988434 0.01970704
 0.01957125 0.01947281 0.01940183 0.01935752 0.01933511 0.01933958 0.01937111 0.01943808 0.01954333 0.01969237
 0.01988807 0.02012648 0.02040887 0.02071908 0.02105654 0.0213968 0.02173859 0.02206052 0.02236238 0.02263425
 0.02287686 0.02308897 0.02327078 0.02342208 0.02354295 0.02363271 0.02369342 0.02372704 0.02373782 0.02373064
 0.02370934 0.02367807 0.02363927 0.02359468 0.02354727 0.02349764 0.02345112 0.02340883 0.02337543 0.023352
 0.02333899 0.0233366 0.02334304 0.02335827 0.02338544 0.02342512 0.02348578 0.02356598 0.02366561 0.02377607
 0.02387221 0.02393901 0.02393038 0.02383786 0.02362254 0.02329909 0.0228614 0.02234716 0.02177864 0.0211952
 0.02062358 0.02008208 0.019585 0.01912855 0.01871525 0.01833392 0.01798321 0.01765528 0.01734922 0.01706127
 0.01679116 0.01653405 0.01628914 0.01604612 0.015803 0.01554356 0.01526582 0.01495411 0.01460836 0.0142198
 0.01379155 0.01332282 0.01282169 0.01229356 0.01175439 0.01121418 0.01069635 0.01021282 0.00978859 0.009433127
 0.009169644 0.009003368 0.008958754 0.009038755 0.009271082 0.009658435 0.01022266 0.01096505 0.01188345 0.0129749
 0.01420341 0.01556138 0.01698802 0.018475 0.01996073 0.02144223 0.02287965 0.02428035 0.02563556 0.02696202
 0.02827499 0.02958764 0.03092081 0.03226159 0.03361768 0.03494159 0.0362222 0.03740546 0.03847297 0.0394091
 0.04020295 0.04089563 0.04148725 0.04205047 0.04258933 0.04316971 0.04379353 0.04450062 0.04529045 0.04618031
 0.04716923 0.04826343 0.04946148 0.05076451 0.05216784 0.0536667 0.05525063 0.05690857 0.0586248 0.06038551
 0.06217362 0.06397673 0.06578339 0.06758501 0.06938358 0.07117586 0.0729776 0.07479026 0.07663094 0.0785023
 0.08040509 0.08233964 0.08428543 0.08624045 0.08817275 0.09007971 0.09192999 0.09372042 0.09542358 0.09703563
 0.09853327 0.0999153 0.1011667 0.1022953 0.1032996 0.1042021 0.1050142 0.1057729 0.1064968 0.1072282
 0.1079857 0.1088004 0.109686 0.1106465 0.1116883 0.1127826 0.1139293 0.1150771 0.1162233 0.1173176
 0.1183589 0.1193213 0.120208 0.1210243 0.1217759 0.1224864 0.1231601 0.1238198 0.1244662 0.1251119
 0.1257536 0.1263948 0.1270236 0.1276372 0.1282075 0.1287242 0.1291445 0.1294521 0.1296074 0.1295951
 0.1294022 0.1290205 0.1284724 0.1277573 0.1269222 0.12597 0.1249554 0.1238817 0.1228014 0.1217178
 0.1206771 0.1196825 0.1187711 0.1179441 0.1172245 0.1166072 0.1160975 0.115678 0.1153363 0.1150388
 0.1147605 0.1144544 0.114092 0.1136244 0.1130276 0.1122656 0.1113225 0.1101888 0.1088564 0.1073494
 0.1056665 0.1038626 0.1019405 0.09997035 0.09795558 0.09595915 0.09398229 0.09206484 0.09020464 0.08841528
 0.08669262 0.08503264 0.0834327 0.08188499 0.08039174 0.07895226 0.07757027 0.07625262 0.07498906 0.07378494
 0.0725969 0.07141972 0.07017501 0.068847 0.06734812 0.06566048 0.06372602 0.06153332 0.05907994 0.05636364
 0.05344111 0.05031762 0.04709169 0.04377257 0.04047191 0.03719888 0.03404971 0.03103067 0.02820729 0.02558181
 0.02318895 0.02102618 0.01910572 0.01741887 0.01596539 0.01472701 0.01369839 0.01284581 0.01216114 0.01159235
 0.01112859 0.01070859 0.01032104 0.009915451 0.009484239 0.009001451 0.008464548 0.007867727 0.00721091 0.006494937
 0.005719785 0.004884972 0.003991093 0.003039131 0.002032375 0.0009789076 -0.0001150893 -0.001235141 -0.00237476 -0.003519755
 -0.004666088 -0.005804876 -0.006935888 -0.008055333 -0.009168398 -0.01027507 -0.01138525 -0.01250223 -0.01363078 -0.01477463
 -0.01592071 -0.01706985 -0.01819106 -0.01928255 -0.02031167 -0.02127719 -0.02216028 -0.022962 -0.02368147 -0.02432163
 -0.02489414 -0.02540233 -0.02586147 -0.02627318 -0.02664793 -0.02698514 -0.02728794 -0.0275562 -0.02778987 -0.02799197
 -0.02816375 -0.02830964 -0.02843239 -0.02853257 -0.02861255 -0.02866372 -0.02868667 -0.02866218 -0.02858881 -0.02844381
 -0.02822516 -0.02792278 -0.02753721 -0.02708852 -0.02658237 -0.02607212 -0.02556738 -0.02513855 -0.02479389 -0.02459475
 -0.02454098 -0.02466536 -0.02495285 -0.02540288 -0.0259829 -0.02666791 -0.02741529 -0.02819292 -0.02896504 -0.02970782
 -0.03040364 -0.0310422 -0.03161792 -0.03212842 -0.03256992 -0.03294167 -0.03324139 -0.0334687 -0.03362645 -0.03371492
 -0.03374112 -0.03370583 -0.03361832 -0.03348023 -0.03330358 -0.03309055 -0.0328534 -0.03259425 -0.03232273 -0.03204091
 -0.03175607 -0.0314679 -0.03118071 -0.03088684 -0.03058411 -0.03026075 -0.02990958 -0.02952831 -0.02911208 -0.02867449
 -0.02821635 -0.02775572 -0.02729497 -0.02684603 -0.02640959 -0.02600141 -0.02562273 -0.02530471 -0.02504896 -0.02488592
 -0.02481101 -0.02482205 -0.02490563 -0.0250213 -0.02515617 -0.02526323 -0.02533963 -0.02536104 -0.02533052 -0.02524388
 -0.0251004 -0.0248989 -0.02463734 -0.02431295 -0.02393084 -0.02349078 -0.02300305 -0.02246928 -0.0218991 -0.02129297
 -0.02066592 -0.02001825 -0.01938001 -0.018753 -0.01817574 -0.01764943 -0.01720194 -0.01683108 -0.01654226 -0.0163298
 -0.01618005 -0.01608619 -0.0160282 -0.01600003 -0.01598515 -0.01597839 -0.01596892 -0.01595322 -0.01592473 -0.01588531
 -0.01583284 -0.01577532 -0.01571504 -0.0156575 -0.01560595 -0.01555324 -0.01550005 -0.015429 -0.01533876 -0.0152151
 -0.01505751 -0.01486745 -0.01464698 -0.01441648 -0.01418016 -0.01396972 -0.01378887 -0.01366719 -0.01360327 -0.013612
 -0.01368111 -0.01380414 -0.01395494 -0.01410812 -0.01423276 -0.0142973 -0.01429014 -0.0141906 -0.01402457 -0.0137908
 -0.01353755 -0.01327528 -0.01303746 -0.01283261 -0.01265934 -0.01251933 -0.01238945 -0.01226851 -0.01213245 -0.01198009
 -0.0117909 -0.0115637 -0.01128019 -0.01094229 -0.01054371 -0.01009351 -0.00960658 -0.009095094 -0.008584691 -0.008080998
 -0.007600826 -0.007141351 -0.006705684 -0.006289931 -0.005891969 -0.005512582 -0.005150585 -0.004811641 -0.004496143 -0.004212451
 -0.003962014 -0.003749297 -0.003575398 -0.003433173 -0.003322229 -0.003228955 -0.003153035 -0.003086687 -0.003030394 -0.002983554
 -0.002945233 -0.002912732 -0.002883127 -0.002849038 -0.002807026 -0.002749835 -0.002671711 -0.00256498 -0.002422051 -0.002234249
 -0.001999407 -0.001711932 -0.001380655 -0.001005652 -0.0006022956 -0.0001730392 0.0002653765 0.0007113021 0.001144558 0.001564025
 0.001942393 0.00227812 0.002542624 0.002735598 0.002843203 0.002869667 0.00282979 0.002731783 0.002611552 0.002474734
 0.00235252 0.00224505 0.002164963 0.002113862 0.002095715 0.002119031 0.002190805 0.002319118 0.002511694 0.002766266
 0.00308567 0.00345775 0.003881083 0.004341186 0.004835839 0.005353872 0.005893906 0.006450657 0.007023771 0.007613006
 0.008218628 0.008844287 0.009489974 0.01015889 0.01084811 0.01155153 0.01226074 0.01295496 0.01362295 0.01423773
 0.01479135 0.0152644 0.01565397 0.0159512 0.01615753 0.01626917 0.01629683 0.01623955 0.01612356 0.01595136
 0.01576199 0.01556005 0.01538671 0.01524614 0.01516981 0.01515976 0.01522655 0.01536921 0.01557594 0.0158449
 0.01615808 0.01651657 0.0169143 0.01735462 0.01784411 0.01838132 0.01897129 0.01959926 0.02025391 0.02091188
 0.02154613 0.02215794 0.02272614 0.0233122 0.02392253 0.024658 0.025555 0.0266268 0.02789858 0.02922571
 0.03059598 0.03190342 0.03314048 0.03432184 0.03544758 0.03652591 0.03754806 0.03846115 0.03925661 0.03987301
 0.04031097 0.04054273 0.0405689 0.04037762 0.03997147 0.03934189 0.03851346 0.0374924 0.03633427 0.03506175
 0.03374972 0.03242591 0.03116283 0.02998269 0.02893701 0.02803927 0.02730737 0.02674717 0.02633445 0.02606861
 0.02588925 0.02579233 0.02570714 0.02563107 0.02551158 0.02534994 0.02512164 0.02483197 0.02447916 0.02407436
 0.02363292 0.02317173 0.02271711 0.02228034 0.02188301 0.0215182 0.02119011 0.0208822 0.02058788 0.02029996
 0.02001326 0.01973574 0.01946708 0.01922114 0.01899953 0.01880977 0.01865253 0.01852407 0.01842457 0.01835494
 0.0183187 0.01834022 0.01842434 0.01860664 0.01888204 0.01926147 0.01972338 0.02023812 0.02077908 0.02129998
 0.02178944 0.02221813 0.02259733 0.02292451 0.02321567 0.02348006 0.02371366 0.02391969 0.02407891 0.02418677
 0.02424062 0.02423722 0.02420543 0.02414654 0.02409947 0.02406545 0.02406627 0.0241003 0.0241667 0.0242627
 0.02437649 0.02450727 0.02464571 0.02479532 0.02495684 0.02513729 0.02534495 0.02558751 0.02587371 0.02621068
 0.02660532 0.02706055 0.0275815 0.0281589 0.02879424 0.02946385 0.03016522 0.03087107 0.03157862 0.03226335
 0.03292359 0.03353701 0.03410298 0.03461044 0.03506206 0.03547173 0.0358444 0.03620929 0.03656699 0.03693609
 0.03730987 0.03768672 0.03805422 0.03839922 0.0387021 0.0389449 0.03910184 0.03915325 0.03907962 0.03886599
 0.03851197 0.03801175 0.03738302 0.03662707 0.03576524 0.03480053 0.03374306 0.03259392 0.03135147 0.03001604
 0.02859331 0.0270868 0.02552477 0.02391414 0.02229809 0.02068453 0.01911552 0.01759987 0.0161728 0.01484137
 0.01363127 0.01253897 0.01157467 0.01071835 0.009964479 0.009282974 0.008660819 0.008073648 0.007510632 0.00696433
 0.006430279 0.005915366 0.005419633 0.00495187 0.004512741 0.004107499 0.003736239</values></Ydata></AB><ScSm><Ydata ylabel="Single channel"><values byteorder="INTEL" format="FLOAT32" numvalues="1814"> 0.07976434 0.0798675 0.07998472 0.08012202 0.08027321 0.08042522 0.08056608 0.08069186 0.08080614 0.08091128
 0.08100771 0.08110482 0.08122124 0.08136593 0.08152527 0.08167289 0.08179072 0.08188511 0.08198602 0.08211872
 0.08226828 0.08238098 0.08241239 0.0823746 0.08233035 0.08233821 0.08241339 0.08255512 0.08278342 0.08308753
 0.08334787 0.08341023 0.08327746 0.08314094 0.08317022 0.08334327 0.08352114 0.08360273 0.08356634 0.08345969
 0.08342195 0.08363934 0.0841767 0.08483881 0.08522886 0.08497587 0.08398162 0.0825581 0.08135574 0.08102377
 0.08174153 0.08301945 0.0840652 0.08442377 0.08422664 0.08385414 0.08353755 0.08335295 0.08339824 0.08377469
 0.08442012 0.08504537 0.0852504 0.08478567 0.08383208 0.08297048 0.08271158 0.08309863 0.08387933 0.08481263
 0.08544974 0.08490269 0.08262143 0.07959567 0.07806405 0.07945494 0.0828952 0.08611949 0.08753539 0.087075
 0.085554 0.08394241 0.08310582 0.08350722 0.0849046 0.08659521 0.08797888 0.08872663 0.08863358 0.0877078
 0.08636293 0.08524561 0.08487728 0.08550373 0.08699638 0.08869933 0.08968747 0.089494 0.08846094 0.08728978
 0.08652329 0.08651539 0.08745329 0.08914003 0.09101172 0.09255516 0.0935767 0.0940919 0.09419829 0.09405407
 0.09380172 0.09354691 0.09346403 0.09370884 0.09411613 0.09423198 0.09381823 0.09317483 0.09283715 0.09302369
 0.09344763 0.09366381 0.09351107 0.09303015 0.09201014 0.09008989 0.08749347 0.08514862 0.08378266 0.08340944
 0.0839138 0.08536704 0.08732276 0.0885876 0.088413 0.08749752 0.08723411 0.08820808 0.08982458 0.09119169
 0.09199295 0.0925523 0.09331951 0.09435502 0.09518775 0.09515594 0.0940765 0.09266952 0.09208136 0.09277931
 0.09410343 0.09508982 0.09549057 0.09575244 0.0962203 0.09663216 0.09634435 0.09501542 0.09318669 0.09210195
 0.09268646 0.09463137 0.09654838 0.09702316 0.09562406 0.0931328 0.09088425 0.08980666 0.0900567 0.09139585
 0.09352452 0.09594698 0.0978929 0.09870663 0.0983012 0.09713741 0.09572431 0.09415081 0.09226024 0.09037188
 0.08948031 0.0903278 0.09244956 0.09453799 0.09564976 0.09573493 0.0951135 0.09384447 0.09179933 0.08929079
 0.08735466 0.0869908 0.08803257 0.08918415 0.08939593 0.08884305 0.0883425 0.0882269 0.0881584 0.08781096
 0.087346 0.0871774 0.08744894 0.08786115 0.08799533 0.08770652 0.08716395 0.0866058 0.08611295 0.08556549
 0.0848315 0.08405796 0.08366384 0.08389595 0.08449306 0.08494791 0.08500791 0.084773 0.08439057 0.08381474
 0.08289751 0.08168779 0.08057704 0.08002351 0.08010553 0.08046146 0.080676 0.08058976 0.08025259 0.07976496
 0.0792138 0.0786514 0.07810446 0.07762897 0.07730024 0.07710855 0.07693461 0.07666756 0.07629344 0.07585056
 0.07535708 0.07481154 0.07423797 0.07370274 0.07327254 0.07295658 0.07270691 0.07247044 0.07221136 0.07189508
 0.07149961 0.07104771 0.07059245 0.07016839 0.069779 0.06942286 0.06910626 0.06882853 0.06856921 0.06829842
 0.06800078 0.06768316 0.06735757 0.06702767 0.0666973 0.06637923 0.06608796 0.06582893 0.06559356 0.06536452
 0.06513634 0.06492674 0.06474684 0.06456709 0.06434193 0.06406605 0.06377979 0.06352308 0.06330491 0.06311149
 0.06292291 0.06272021 0.0624886 0.06222642 0.06195832 0.06173044 0.06157603 0.06148897 0.06143957 0.06140099
 0.06134967 0.06126448 0.06114544 0.06101565 0.06089224 0.06077021 0.06064076 0.06051122 0.06040259 0.06033301
 0.06030077 0.06028289 0.06025475 0.06020704 0.060142 0.06007005 0.06001361 0.0599901 0.05998316 0.05995579
 0.0599002 0.05985039 0.05983637 0.05984569 0.05984152 0.05980703 0.0597612 0.05973394 0.05973477 0.05975054
 0.05976767 0.05978636 0.05981436 0.05985401 0.05989462 0.059915 0.05990148 0.05986598 0.05983713 0.05983165
 0.05984507 0.05986946 0.05990575 0.05995467 0.0600058 0.06004296 0.06005904 0.06006237 0.0600657 0.06007068
 0.06006838 0.06005421 0.06003478 0.06001849 0.06000654 0.05999407 0.05997527 0.0599462 0.05990598 0.05985544
 0.05979536 0.05972615 0.05964841 0.05956377 0.0594786 0.05940429 0.05934568 0.05928852 0.0592083 0.05909471
 0.05896211 0.05883401 0.05872206 0.05862155 0.05852279 0.05842271 0.05832559 0.05823553 0.05815263 0.05807635
 0.05800763 0.05794632 0.05789141 0.05784681 0.05782139 0.05781839 0.0578279 0.05783472 0.05783291 0.05782904
 0.05783263 0.05784696 0.05786898 0.05789521 0.05792717 0.05797124 0.05803114 0.05810078 0.0581692 0.05823357
 0.05830234 0.05838428 0.05848028 0.05858704 0.05870125 0.05881677 0.05892619 0.05903 0.05913847 0.05926006
 0.05939244 0.05952896 0.05966903 0.05981759 0.05997809 0.06015019 0.06033309 0.06052722 0.06073296 0.06094905
 0.06117209 0.06139804 0.06162576 0.06185894 0.06210309 0.06235966 0.06262417 0.0628899 0.06315341 0.06341736
 0.0636885 0.06397171 0.06426632 0.06456884 0.06487803 0.06519404 0.06551424 0.06583376 0.06615075 0.06646813
 0.06678963 0.06711669 0.06744879 0.06778453 0.06812258 0.06846351 0.0688086 0.06915566 0.06949907 0.06983604
 0.07016962 0.07050356 0.07083791 0.07117057 0.07149869 0.07181811 0.072127 0.07243075 0.07273751 0.07304828
 0.07335734 0.07366294 0.07397059 0.07428361 0.07459611 0.07489887 0.07519005 0.07547696 0.07576799 0.07606423
 0.07635905 0.07664552 0.07692388 0.07720074 0.07748182 0.07776806 0.07806036 0.07836375 0.07868118 0.07900567
 0.07932603 0.07963983 0.07995411 0.08027296 0.08059189 0.08090583 0.08121675 0.08153056 0.08184946 0.08216815
 0.08247798 0.08277817 0.08308203 0.08340627 0.08375391 0.08411404 0.08447927 0.08485419 0.08524298 0.08563638
 0.08602045 0.08639484 0.0867722 0.08715655 0.08753099 0.08787467 0.08818544 0.08847848 0.08876853 0.08906533
 0.08938169 0.08973181 0.09011778 0.09052461 0.09093052 0.0913202 0.09169213 0.09205733 0.09242733 0.09279995
 0.09316006 0.09349537 0.09380829 0.09411161 0.09441636 0.09472322 0.09502149 0.09529483 0.0955289 0.09571096
 0.09582444 0.09585178 0.09578669 0.09563772 0.09541419 0.09511249 0.09472068 0.09423262 0.09365243 0.09298725
 0.09224202 0.09142575 0.09056498 0.0897125 0.08894317 0.08833691 0.08795913 0.08784989 0.08802207 0.08845864
 0.08910464 0.08986294 0.09060706 0.09121011 0.09157559 0.09165721 0.09146421 0.09105231 0.09050246 0.08989507
 0.08929303 0.08873837 0.08826104 0.08789457 0.087692 0.08772744 0.08807729 0.08879518 0.08990088 0.09137715
 0.09315613 0.09510635 0.09705761 0.09886513 0.1004625 0.1018598 0.1031025 0.1042376 0.1053012 0.1063135
 0.1072766 0.1081794 0.1090085 0.1097551 0.1104125 0.1109722 0.111421 0.1117455 0.1119421 0.1120297
 0.1120545 0.1120851 0.1121999 0.1124631 0.1128944 0.1134506 0.1140387 0.1145572 0.1149359 0.1151557
 0.1152538 0.115334 0.115572 0.1161833 0.117333 0.1190316 0.1211056 0.123282 0.1253226 0.1271027
 0.1286022 0.1298578 0.130924 0.1318542 0.13269 0.1334588 0.134178 0.1348611 0.1355208 0.1361672
 0.1368043 0.1374303 0.1380434 0.1386451 0.1392383 0.1398254 0.1404087 0.1409917 0.1415777 0.1421653
 0.1427494 0.1433243 0.143891 0.1444585 0.1450328 0.1456091 0.1461777 0.1467355 0.1472875 0.1478387
 0.1483912 0.1489446 0.1494973 0.150043 0.1505742 0.1510884 0.1515905 0.1520864 0.1525764 0.1530552
 0.1535198 0.1539729 0.1544189 0.1548592 0.1552928 0.15572 0.1561406 0.1565534 0.1569588 0.1573625
 0.1577711 0.1581865 0.1586033 0.1590139 0.1594146 0.1598096 0.1602091 0.1606212 0.1610451 0.161474
 0.1619024 0.1623306 0.1627614 0.163197 0.1636383 0.1640833 0.1645269 0.1649637 0.1653924 0.1658166
 0.1662411 0.1666681 0.1670979 0.1675308 0.1679676 0.1684075 0.1688477 0.1692867 0.169725 0.1701628
 0.1705997 0.1710346 0.1714645 0.1718845 0.1722913 0.1726857 0.1730732 0.1734617 0.1738581 0.1742629
 0.1746689 0.1750677 0.1754562 0.1758385 0.1762217 0.176611 0.1770052 0.1773982 0.1777852 0.1781664
 0.1785446 0.1789234 0.1793051 0.1796905 0.1800787 0.1804698 0.1808638 0.1812583 0.1816485 0.1820315
 0.1824082 0.1827823 0.1831581 0.1835368 0.1839162 0.1842932 0.184667 0.185037 0.1854042 0.1857731
 0.1861493 0.1865331 0.1869202 0.1873076 0.1876944 0.1880799 0.1884646 0.1888512 0.1892413 0.1896324
 0.1900204 0.190404 0.1907867 0.1911726 0.1915602 0.191944 0.1923227 0.1926999 0.1930766 0.1934491
 0.1938157 0.19418 0.1945448 0.1949101 0.1952733 0.1956314 0.1959849 0.1963396 0.1966998 0.197063
 0.1974237 0.1977794 0.1981299 0.1984778 0.1988302 0.199192 0.1995602 0.1999288 0.2002971 0.2006679
 0.2010435 0.2014252 0.2018111 0.2021949 0.202572 0.2029432 0.2033103 0.2036745 0.204039 0.204407
 0.2047777 0.2051502 0.2055256 0.2059039 0.2062844 0.2066695 0.2070608 0.2074558 0.2078531 0.2082542
 0.2086579 0.209062 0.2094691 0.2098816 0.2102954 0.2107069 0.2111181 0.2115301 0.2119418 0.2123543
 0.2127684 0.2131816 0.2135931 0.2140049 0.2144154 0.2148217 0.2152271 0.2156369 0.2160512 0.2164686
 0.2168877 0.2173038 0.2177145 0.2181242 0.2185337 0.2189362 0.2193312 0.2197283 0.2201328 0.220542
 0.2209525 0.2213587 0.2217546 0.2221455 0.2225447 0.2229553 0.2233709 0.2237881 0.2242038 0.2246133
 0.2250191 0.2254276 0.2258348 0.2262339 0.226627 0.2270162 0.2273981 0.2277748 0.2281501 0.2285134
 0.2288393 0.2290707 0.229053 0.2284613 0.2267594 0.2232122 0.2170339 0.2077075 0.1953048 0.180568
 0.164698 0.1489753 0.1344144 0.1216366 0.1109636 0.1025585 0.09651407 0.09293161 0.09199034 0.09404889
 0.09977967 0.1097799 0.1231042 0.1359684 0.1431431 0.1419109 0.1345327 0.1261926 0.120758 0.118861
 0.1192021 0.1204952 0.1222302 0.1245264 0.1276923 0.1317715 0.1364938 0.1417266 0.1477401 0.1548069
 0.1626796 0.1706801 0.1782719 0.1854138 0.1923582 0.1992229 0.2058206 0.2118399 0.2170867 0.2215528
 0.2253529 0.2286467 0.2315771 0.2342406 0.2367014 0.2389926 0.2410709 0.2428015 0.2440356 0.2447282
 0.2449895 0.2450331 0.2450596 0.2451724 0.2453878 0.2456955 0.2460874 0.2465522 0.2470774 0.2476521
 0.2482585 0.2488757 0.2494923 0.2501021 0.2506942 0.2512585 0.2517924 0.2522934 0.2527603 0.253202
 0.2536297 0.2540444 0.2544424 0.2548276 0.255208 0.2555885 0.2559701 0.2563456 0.2566986 0.257019
 0.2573135 0.2575961 0.2578759 0.2581551 0.2584296 0.2586932 0.2589465 0.259198 0.2594522 0.259708
 0.2599652 0.2602246 0.2604826 0.2607355 0.2609827 0.2612242 0.2614605 0.2616964 0.2619376 0.2621837
 0.2624308 0.2626765 0.2629195 0.2631603 0.2634012 0.2636421 0.2638825 0.2641287 0.2643903 0.2646672
 0.2649493 0.2652288 0.2655043 0.2657763 0.2660477 0.2663245 0.2666094 0.2668993 0.2671908 0.2674805
 0.2677595 0.2680176 0.2682536 0.2684808 0.2687178 0.2689744 0.269243 0.2695062 0.2697551 0.2699959
 0.2702398 0.2704935 0.2707586 0.2710323 0.2713116 0.2715988 0.2719008 0.2722169 0.2725377 0.2728574
 0.2731793 0.2735075 0.2738425 0.2741816 0.2745167 0.2748365 0.2751384 0.2754369 0.2757559 0.2761126
 0.2765042 0.2769061 0.2772905 0.2776496 0.2779981 0.2783557 0.2787316 0.2791161 0.2794781 0.2797895
 0.2800659 0.2803679 0.2807463 0.281194 0.2816615 0.2821082 0.2825263 0.2829264 0.2833145 0.2836852
 0.2840298 0.2843477 0.2846559 0.2849917 0.2853897 0.2858449 0.2863103 0.286741 0.2871283 0.2874872
 0.2878349 0.2881851 0.288529 0.2888179 0.2890106 0.2891579 0.289394 0.2898101 0.2903568 0.2908986
 0.2913507 0.2917319 0.2920943 0.2924525 0.2927956 0.293101 0.2932996 0.2933066 0.2931728 0.2931441
 0.2934638 0.2941265 0.2948987 0.2955565 0.2960367 0.2963932 0.2966995 0.2969973 0.2972707 0.2974446
 0.2974637 0.2974091 0.2974895 0.2978496 0.2984067 0.2989427 0.2993355 0.2996306 0.2999176 0.300228
 0.3005183 0.3006567 0.3004832 0.3000289 0.2996598 0.2998382 0.3006772 0.3018107 0.3027574 0.3033441
 0.3037089 0.3039721 0.3040614 0.3038533 0.3033261 0.3025671 0.301829 0.30158 0.3021979 0.3034908
 0.30477 0.305542 0.3059332 0.306348 0.3069375 0.307535 0.307936 0.308084 0.3080315 0.3078201
 0.3074588 0.3070675 0.306966 0.3074513 0.3084557 0.3095543 0.3103658 0.3108574 0.3111788 0.3112254
 0.3105188 0.308773 0.3066451 0.3055756 0.3065081 0.3088931 0.3112829 0.3127661 0.3134672 0.3138669
 0.3141761 0.3142782 0.3137193 0.3118567 0.3087306 0.3058293 0.3051908 0.3073986 0.3109284 0.3136238
 0.314348 0.3132265 0.3110949 0.3091038 0.3083095 0.3091023 0.3110468 0.3133275 0.3152377 0.3163619
 0.3166004 0.3161407 0.3153828 0.3148264 0.3147571 0.3148247 0.3142585 0.3128659 0.3113971 0.3103828
 0.3091524 0.3069295 0.3045706 0.3040315 0.3059527 0.3087384 0.3104079 0.310619 0.3103169 0.3098244
 0.3080562 0.303948 0.2984332 0.2944121 0.2942614 0.2974609 0.3011118 0.302781 0.3024161 0.3015144
 0.3010092 0.3002808 0.2980817 0.2942972 0.2906132 0.2890028 0.2895217 0.2902285 0.2893358 0.2864811
 0.2817951 0.2754168 0.2689276 0.2656706 0.2677993 0.2735793 0.2789164 0.2809019 0.2787381 0.2724988
 0.2633577 0.2547944 0.251046 0.2532124 0.257982 0.2608421 0.2596398 0.2546707 0.2468152 0.237108
 0.2276678 0.22146 0.220388 0.2237643 0.2284983 0.2304985 0.2267683 0.217754 0.2078459 0.2020625
 0.2014022 0.2022548 0.2006826 0.1961127 0.1905296 0.1857026 0.1821736 0.1796982 0.1775824 0.1751928
 0.1724617 0.169095 0.1636528 0.1551894 0.1458654 0.1398555 0.1390214 0.1413559 0.1441593 0.1467395
 0.1490788 0.1499361 0.1481948 0.1451813 0.1438536 0.145645 0.1490903 0.1516795 0.1523695 0.1519834
 0.1515806 0.1511056 0.1499722 0.1485522 0.148201 0.1495668 0.1515936 0.1526766 0.1522897 0.1510084
 0.149431 0.1476767 0.1456712 0.1433851 0.1408198 0.1380236 0.1350851 0.1320199 0.1287637 0.1253047
 0.1216496 0.1175785 0.112668 0.1068791 0.1010734 0.09650242 0.0936318 0.09191941 0.09089187 0.09067334
 0.09102361 0.09084268 0.08967416 0.08916389 0.09187049 0.09859474 0.1075363 0.1160173 0.1224062 0.126324
 0.127864 0.1276417 0.1276635 0.1309625 0.1392546 0.1511618 0.1634699 0.1738743 0.1818547 0.1874198
 0.1902922 0.190676 0.1900967 0.1908288 0.1943866 0.2005724 0.2076803 0.213231 0.2150145 0.2129585
 0.2105391 0.2126635 0.2206274 0.2302496 0.2365046 0.2389183 0.2407163 0.243862 0.247352 0.2500473
 0.2527152 0.2564986 0.2608428 0.2638554 0.2639329 0.2604336 0.2537218 0.2456425 0.2392353 0.2364495
 0.2362358 0.2360046 0.2344487 0.2315475 0.2268111 0.2200545 0.2136619 0.2113013 0.2136787 0.2175272
 0.2194457 0.2191367 0.2182332 0.2173303 0.2152528 0.2108755 0.2049133 0.1995068 0.1960161 0.1936683
 0.1906923 0.186233 0.1805391 0.1738619 0.1662638 0.1585001 0.1521396 0.148338 0.1468188 0.1463673
 0.1461573 0.1463566 0.1476013 0.1502594 0.1542298 0.1591253 0.1645642 0.1705295 0.1774077 0.1853431
 0.1936235 0.2011588 0.2075967 0.213544 0.2195998 0.2255269 0.2305272 0.2341282 0.2366815 0.2390917
 0.2420993 0.2457145 0.2492486 0.2519232 0.253555 0.2546899 0.2560258 0.257724 0.2593859 0.2606501
 0.2616031 0.2625915 0.263855 0.2653956 0.2670134 0.2684447 0.2696708 0.2711135 0.2733134 0.2763457
 0.2797033 0.282783 0.2853444 0.2874634 0.2892053 0.2904751 0.2911514 0.291269 0.2910274 0.290649
 0.2902674 0.2899355 0.28968 0.2895164 0.2894415 0.2894517 0.2895682 0.2898407 0.290339 0.2911391
 0.2922854 0.2937438 0.295404 0.2971337 0.2988169 0.3003405 0.3015811 0.3024365 0.3028614 0.3028587
 0.302447 0.3016484 0.3004812 0.2989311 0.2969534 0.2945845 0.2921196 0.2901542 0.28934 0.2899855
 0.2918347 0.2942236 0.2964743 0.2982 0.299345 0.3000347 0.3004219 0.3006188 0.3006899 0.3006596
 0.3005288 0.3003024 0.3000013 0.2996498 0.299257 0.2988228 0.2983736 0.2979975 0.2978234 0.2979316
 0.2982697 0.2986734 0.2989795 0.2991144 0.2990838 0.2989097 0.2985932 0.298125 0.2975231 0.2968579
 0.2962361 0.295749 0.2954263 0.2952309 0.2950829 0.2948775 0.2944789 0.2937357 0.292556 0.2909883
 0.2891852 0.2872503 0.285145 0.2827755 0.2801423 0.277362 0.2745611 0.2717856 0.2690074 0.2661928
 0.26337 0.2606415 0.2581152 0.2558115 0.2536362 0.2514429 0.2491094 0.2465678 0.2437966 0.2407989
 0.2375748 0.2340958 0.2303005 0.2261157 0.2214804 0.2163561 0.2107347 0.2046623 0.1982648 0.1917409
 0.1853147 0.1791901 0.1735359 0.1684922 0.1641715 0.1606458 0.1579358 0.1560115 0.1548055 0.1542364
 0.1542331 0.1547484 0.1557528 0.1572132 0.1590664 0.1612034 0.163468 0.1656839 0.1677119 0.1695057
 0.171113 0.172619 0.174092 0.1755785 0.1771218 0.1787536 0.1804633 0.1821898 0.1838495 0.1853725
 0.1867167 0.1878598 0.188791 0.1895145 0.1900655 0.1905239 0.191012 0.1916691 0.1926124 0.1938991
 0.195508 0.1973514 0.1993163 0.2013101 0.2032835 0.2052254 0.2071455 0.2090511 0.2109275 0.2127499
 0.214533 0.2163804 0.2184815 0.2210519 0.2242544 0.2281403 0.2326274 0.2375153 0.2425272 0.2473628
 0.2517492 0.2554839 0.2584594 0.260663 0.2621576 0.2630599 0.2635264 0.2637325 0.263833 0.2639261
 0.2640553 0.2642412 0.2645009 0.264837 0.2652233 0.2656128 0.2659658 0.2662754 0.2665654 0.2668689
 0.2672102 0.2675939 0.2679942 0.2683518 0.268598 0.2686894 0.2686208 0.2684174 0.2681212 0.2677726
 0.267389 0.2669565 0.2664377 0.2657822 0.2649379 0.2638587 0.2624995 0.2608163 0.258797 0.2565054
 0.2540851 0.2517148 0.2495476 0.2476596 0.2460219 0.2445112 0.2429613 0.2412346 0.2392833 0.2371626
 0.2349797 0.2328226 0.2307272 0.2286908 0.2266962 0.2247319 0.2228029 0.2209242 0.2191061 0.2173507
 0.2156511 0.2139888 0.2123475 0.21074 0.2092048 0.2077859 0.2065375 0.2055276 0.2047957 0.2043023
 0.203945 0.2036256 0.2033008 0.202987 0.202721 0.202501 0.2022592 0.2019019 0.2013797 0.2007298
 0.200063 0.1995018 0.1991168 0.1989109 0.1988378 0.1988094 0.1986959 0.1983568 0.1976795 0.1965926
 0.1950719 0.1931517 0.1909191 0.1884973 0.1860402 0.1837174 0.1816795 0.1800319 0.1788227 0.178015
 0.177483 0.1770793 0.176726 0.1764516 0.1763545 0.1764998 0.1768071 0.1770715 0.1771574 0.1771445
 0.177242 0.1775882 0.1781637 0.1788465 0.1795063 0.1800621 0.1804829 0.1807589 0.1809 0.1809472
 0.1809421 0.1808867 0.180758 0.1805414 0.1802332 0.1798377 0.1793678 0.1788175 0.1781479 0.1773252
 0.1763451 0.175208 0.1739156 0.1724872 0.1709335 0.1692533 0.1675321 0.1660141 0.1650121 0.1647311
 0.1651595 0.1660827 0.1672177 0.1683729 0.1694497 0.1703228 0.1708647 0.1711561 0.171562 0.1724867
 0.1740338 0.1759036 0.1776145 0.1788223 0.1794347 0.1794972 0.1790903 0.1783165 0.1772449 0.1758622
 0.1741565 0.1721959 0.1700651 0.1678322 0.1656056 0.1635045 0.1615881 0.1598933 0.1584437 0.1572386
 0.1563438 0.1555181 0.1532594 0.1473128 0.1378613 0.1296102 0.128217 0.1341706 0.1421135 0.1466343
 0.1469042 0.1453194 0.143848 0.1429273 0.142496 0.1426187 0.1433135 0.1443994 0.1455457 0.1464086
 0.1468094 0.1467341 0.1460829 0.14444 0.1410556 0.1351165 0.1263708 0.1157211 0.1050433 0.0961994
 0.09012748 0.08665384 0.08488134 0.08380477 0.08288732 0.08225914 0.08239317 0.0836145 0.08590335 0.08902887
 0.09271367 0.09663489 0.1003825 0.1035768 0.1060652 0.1079248 0.10927 0.1101454 0.1105865 0.1106593
 0.1104189 0.1099029 0.1091582 0.1082143 0.1070511 0.1056498 0.1040856 0.1025576 0.1012983 0.1004186
 0.0998413 0.09941196 0.09904448 0.09873361 0.09848912 0.09831643 0.09822334 0.09820622 0.09825338 0.09836311
 0.09852661 0.09870921 0.09888194 0.09905486 0.09925929 0.09950734 0.09976822 0.09998962 0.1001725 0.100398
 0.100699 0.1009182 0.1008071 0.1003052 0.09966544 0.09928404 0.09941977 0.1000349 0.1008506 0.1015601
 0.1020278 0.1023153 0.1025368 0.1026983</values></Ydata></ScSm><ScRf><Ydata ylabel="Single channel"><values byteorder="INTEL" format="FLOAT32" numvalues="1820"> 0.06972896 0.06985901 0.06997751 0.07008286 0.070178 0.07027169 0.07037556 0.07049595 0.07062948 0.0707654
 0.07089191 0.07100369 0.07110298 0.07119245 0.07127407 0.07135746 0.07145967 0.07158867 0.07173203 0.07186511
 0.07196956 0.0720493 0.07213177 0.07224204 0.07236848 0.07246307 0.07248615 0.07244938 0.07240883 0.07241456
 0.07247756 0.07259776 0.07279702 0.07306826 0.07330206 0.07335593 0.0732318 0.07310507 0.07313066 0.07328737
 0.07344682 0.07351619 0.07347637 0.07337217 0.07333047 0.07351916 0.0739951 0.07458171 0.07492473 0.07469672
 0.07381405 0.07255519 0.07149662 0.07121323 0.07186189 0.07300396 0.07393301 0.07424703 0.07406792 0.07373643
 0.07345781 0.07329819 0.07334192 0.07367535 0.07424195 0.07478767 0.07496108 0.07454304 0.07369599 0.0729357
 0.07271206 0.07306003 0.07375635 0.0745877 0.07515086 0.07465482 0.07262257 0.06995121 0.06862982 0.06990223
 0.07296488 0.07580215 0.07702124 0.0765862 0.07523151 0.073815 0.07309472 0.07346925 0.07471601 0.07621389
 0.07743843 0.07810156 0.07801926 0.0771969 0.07600243 0.07501142 0.07468937 0.07525705 0.07659654 0.07811566
 0.07898827 0.07880769 0.0778898 0.07686251 0.07620481 0.07622464 0.07707946 0.07858565 0.08024064 0.0815966
 0.08249174 0.08294478 0.083042 0.08292168 0.08270751 0.08249107 0.08242725 0.08265552 0.08302903 0.08314459
 0.08279248 0.0822393 0.08195545 0.08212869 0.08250427 0.08269408 0.08256198 0.08214352 0.0812446 0.07954203
 0.07724238 0.07517777 0.07399164 0.07368813 0.07416303 0.07548051 0.07723704 0.0783647 0.07820518 0.07739662
 0.0771834 0.07807445 0.07952797 0.08075204 0.08147737 0.08200042 0.08271752 0.08367231 0.08443895 0.08442906
 0.08348621 0.08226116 0.08178033 0.08245429 0.08368275 0.08460175 0.0849973 0.08527717 0.08575137 0.08618148
 0.08598774 0.08486722 0.08331387 0.08244693 0.0830887 0.08495057 0.08678109 0.0873103 0.08615335 0.08402154
 0.08212586 0.08130513 0.08169916 0.0830954 0.08522691 0.08764152 0.08963181 0.09059342 0.09044094 0.08959316
 0.08851685 0.08729125 0.08577138 0.0842652 0.08371301 0.08480623 0.08709651 0.08935343 0.09070051 0.09109913
 0.09084468 0.08997189 0.0883392 0.08625016 0.08472769 0.0847567 0.08616583 0.08767322 0.08825015 0.08808112
 0.08797789 0.08826337 0.08859412 0.08864811 0.08859883 0.08886658 0.08958501 0.09043822 0.09100253 0.09114052
 0.09103021 0.090913 0.09086389 0.09074869 0.09042911 0.0900743 0.09014335 0.09090115 0.09205983 0.09306532
 0.09363977 0.09389241 0.09398697 0.09386928 0.09336538 0.09252607 0.09179781 0.09170651 0.0923446 0.09330004
 0.09409485 0.09454128 0.09469482 0.09467334 0.09457813 0.09446749 0.09436989 0.09435193 0.09450723 0.09482957
 0.09517793 0.0954172 0.09552696 0.09554654 0.09548832 0.09534779 0.09516275 0.09502275 0.09501002 0.0951359
 0.09534553 0.0955742 0.0957714 0.09588714 0.09589063 0.09581048 0.09571631 0.09565423 0.09562925 0.09564324
 0.09571141 0.09583315 0.09597198 0.0960806 0.09613837 0.09615542 0.09614734 0.09612121 0.09608613 0.09606329
 0.09607826 0.09614228 0.09623796 0.09633105 0.0964106 0.09650446 0.09663036 0.09674823 0.09679687 0.09677073
 0.09672776 0.0967263 0.09677969 0.09686524 0.09695059 0.09700593 0.09700778 0.09695353 0.09688199 0.09686324
 0.09694718 0.09712735 0.09736137 0.09760602 0.09782264 0.09798193 0.09808681 0.09816952 0.09825236 0.09832904
 0.09838965 0.09844664 0.09853091 0.09866844 0.09885631 0.09905993 0.0992396 0.0993771 0.09947774 0.09956557
 0.09967675 0.09982729 0.09997958 0.100075 0.1001101 0.1001483 0.1002427 0.100375 0.1004855 0.1005446
 0.1005776 0.1006277 0.1007113 0.1008121 0.1009091 0.1010019 0.1011085 0.1012382 0.1013661 0.1014425
 0.1014405 0.1013905 0.1013509 0.1013502 0.1013765 0.1014167 0.1014787 0.1015669 0.1016571 0.1017116
 0.1017166 0.1016963 0.1016853 0.1016918 0.1016936 0.1016687 0.1016193 0.101567 0.1015318 0.1015179
 0.1015119 0.1014932 0.1014496 0.1013853 0.1013127 0.10124 0.1011667 0.1010932 0.1010358 0.1010211
 0.1010517 0.101079 0.1010323 0.1008844 0.1006799 0.1004933 0.1003652 0.1002796 0.1001906 0.1000667
 0.09991293 0.09975714 0.0996203 0.09950158 0.09938833 0.0992738 0.09916651 0.09908645 0.09904535 0.09902433
 0.09897913 0.09888124 0.09874885 0.09862636 0.0985399 0.09848346 0.09843931 0.09839667 0.09835614 0.09832824
 0.09832226 0.09832944 0.09832694 0.09830534 0.09828243 0.09828511 0.09832786 0.09840886 0.0985098 0.09859745
 0.09864543 0.09866299 0.09868981 0.09875666 0.09886055 0.0989809 0.09910611 0.09923775 0.09937892 0.09952977
 0.09969286 0.09987538 0.1000823 0.1003086 0.100539 0.1007578 0.1009623 0.1011666 0.1013917 0.1016487
 0.1019304 0.1022179 0.1024958 0.1027636 0.1030321 0.1033089 0.1035913 0.1038755 0.1041662 0.1044713
 0.1047891 0.1051098 0.1054282 0.1057473 0.1060704 0.1063953 0.1067178 0.1070405 0.1073763 0.1077392
 0.1081238 0.1084983 0.1088294 0.1091149 0.1093859 0.1096777 0.110004 0.1103519 0.1106908 0.1109929
 0.1112583 0.111518 0.1118004 0.1121029 0.1124056 0.1127091 0.1130393 0.1134109 0.1137957 0.114139
 0.114409 0.1146259 0.114838 0.115072 0.1153147 0.1155422 0.1157552 0.1159745 0.1162108 0.1164555
 0.1167023 0.1169596 0.1172331 0.1175069 0.1177574 0.1179802 0.1181894 0.1183934 0.1185817 0.1187365
 0.1188513 0.1189412 0.1190363 0.1191598 0.1193084 0.11946 0.1196019 0.1197422 0.1198944 0.1200629
 0.1202503 0.1204651 0.1207099 0.120969 0.1212227 0.1214764 0.1217561 0.1220663 0.1223678 0.1226168
 0.1228145 0.1229988 0.1231969 0.1234092 0.123635 0.1238862 0.1241702 0.1244742 0.124775 0.1250588
 0.1253326 0.1256178 0.125927 0.1262421 0.126523 0.1267464 0.1269297 0.1271144 0.127333 0.1275909
 0.1278722 0.1281545 0.1284218 0.1286632 0.1288641 0.1290096 0.1291022 0.1291674 0.1292279 0.1292714
 0.1292555 0.1291431 0.128921 0.1285868 0.1281325 0.1275548 0.1268794 0.1261699 0.1255157 0.1250065
 0.1247106 0.1246641 0.1248711 0.1253019 0.1258894 0.1265371 0.1271421 0.1276151 0.1278867 0.1279096
 0.1276709 0.1272 0.1265553 0.1258007 0.1249913 0.1241681 0.1233604 0.1226043 0.1219741 0.1215898
 0.1215838 0.12205 0.1230112 0.1244033 0.1260736 0.1278135 0.1294347 0.1308387 0.1320243 0.13304
 0.1339388 0.1347627 0.1355422 0.1362911 0.1370056 0.137677 0.1383051 0.1388949 0.1394441 0.1399401
 0.140365 0.1407022 0.1409439 0.1410992 0.1411904 0.1412378 0.1412537 0.1412513 0.1412421 0.1412141
 0.1411209 0.1409065 0.1405421 0.1400471 0.1394913 0.138996 0.1387271 0.1388595 0.1395052 0.1406439
 0.1421158 0.1436957 0.1451901 0.1464836 0.1475324 0.1483476 0.1489808 0.1494985 0.1499523 0.1503696
 0.1507637 0.1511422 0.1515093 0.1518667 0.1522145 0.1525541 0.152891 0.153232 0.1535779 0.1539209
 0.1542547 0.1545838 0.1549189 0.1552654 0.1556179 0.1559659 0.1563071 0.1566509 0.1570041 0.1573583
 0.157697 0.1580156 0.1583255 0.1586404 0.1589659 0.1593012 0.1596406 0.1599734 0.1602893 0.1605875
 0.1608758 0.1611613 0.1614451 0.161726 0.1620047 0.1622835 0.1625645 0.162849 0.1631363 0.1634224
 0.1637006 0.1639667 0.1642233 0.1644765 0.1647289 0.164979 0.1652254 0.1654705 0.1657186 0.1659745
 0.1662417 0.1665202 0.166803 0.1670776 0.1673343 0.1675741 0.1678086 0.1680492 0.1682977 0.1685475
 0.1687935 0.1690372 0.1692829 0.169533 0.1697875 0.1700438 0.1702988 0.1705519 0.1708057 0.171061
 0.1713143 0.1715623 0.1718069 0.172053 0.1723027 0.1725529 0.1727997 0.1730418 0.1732809 0.1735187
 0.1737556 0.1739921 0.1742299 0.1744697 0.1747107 0.1749522 0.1751937 0.1754352 0.1756784 0.1759243
 0.1761704 0.1764117 0.1766467 0.17688 0.177117 0.1773596 0.1776054 0.1778501 0.1780899 0.1783241
 0.1785554 0.1787882 0.1790258 0.1792672 0.1795073 0.1797425 0.1799761 0.180214 0.1804569 0.1807004
 0.1809389 0.1811697 0.1813948 0.1816207 0.1818528 0.182091 0.1823312 0.1825708 0.1828079 0.1830422
 0.183277 0.1835166 0.183761 0.1840053 0.1842445 0.1844778 0.1847084 0.1849398 0.1851725 0.1854048
 0.1856372 0.1858726 0.1861122 0.1863542 0.1865976 0.1868405 0.1870805 0.1873178 0.1875562 0.1877983
 0.1880423 0.1882858 0.1885269 0.188765 0.1890035 0.1892479 0.1894991 0.1897522 0.1900043 0.1902566
 0.1905099 0.1907647 0.1910215 0.19128 0.1915393 0.1918 0.1920608 0.1923155 0.1925582 0.1927896
 0.1930148 0.1932387 0.1934645 0.1936908 0.1939144 0.1941369 0.1943628 0.1945922 0.1948234 0.1950596
 0.1953032 0.1955501 0.1957954 0.1960397 0.1962847 0.1965313 0.1967829 0.1970418 0.1973033 0.1975616
 0.1978157 0.1980674 0.1983203 0.1985792 0.1988444 0.1991106 0.1993755 0.1996418 0.1999092 0.2001745
 0.2004377 0.2006999 0.2009609 0.2012233 0.2014914 0.2017631 0.2020328 0.2023003 0.2025661 0.2028285
 0.2030905 0.2033596 0.2036364 0.2039144 0.2041879 0.2044545 0.2047156 0.2049809 0.2052589 0.2055448
 0.2058291 0.2061106 0.2063898 0.2066645 0.2069381 0.2072147 0.2074879 0.2077514 0.2080116 0.2082754
 0.2085409 0.2088073 0.2090735 0.2093252 0.2095359 0.2096561 0.2095523 0.2089323 0.2073034 0.2039851
 0.1982507 0.1896254 0.1781812 0.1646101 0.1500219 0.1355905 0.1222397 0.1105324 0.1007608 0.09307127
 0.0875456 0.08427563 0.08342622 0.08532408 0.09057982 0.09973227 0.111903 0.1236171 0.1300968 0.1288887
 0.1220948 0.1144609 0.1095027 0.1077785 0.1080957 0.1092792 0.1108595 0.1129426 0.1158122 0.1195135
 0.1238062 0.1285728 0.1340557 0.1404947 0.1476602 0.1549382 0.1618469 0.1683508 0.1746756 0.180923
 0.1869187 0.1923785 0.1971279 0.2011643 0.2045999 0.2075852 0.2102483 0.2126697 0.2149024 0.2169772
 0.2188562 0.2204143 0.2215135 0.2221161 0.2223318 0.2223616 0.222386 0.222491 0.2226858 0.2229612
 0.2233114 0.223727 0.2241975 0.2247165 0.2252735 0.2258509 0.2264329 0.2270057 0.2275558 0.2280763
 0.2285678 0.2290287 0.2294584 0.2298675 0.2302689 0.2306635 0.2310464 0.2314173 0.2317787 0.2321324
 0.232482 0.2328279 0.2331618 0.2334756 0.2337687 0.2340453 0.234311 0.2345726 0.234833 0.2350902
 0.2353439 0.2355972 0.2358485 0.2360938 0.2363347 0.236576 0.2368194 0.2370655 0.2373142 0.2375621
 0.2378043 0.2380421 0.2382798 0.238519 0.2387604 0.2390054 0.2392507 0.2394914 0.2397266 0.2399604
 0.2401973 0.2404425 0.2406999 0.2409676 0.2412404 0.2415148 0.2417885 0.2420585 0.2423265 0.242598
 0.2428741 0.2431504 0.2434246 0.2436967 0.2439635 0.2442187 0.2444595 0.2446886 0.2449129 0.2451404
 0.2453739 0.2456106 0.245849 0.2460909 0.2463365 0.2465836 0.2468322 0.2470832 0.2473368 0.2475971
 0.247872 0.2481609 0.2484521 0.2487358 0.249013 0.2492913 0.2495768 0.2498703 0.2501644 0.2504474
 0.2507153 0.2509803 0.2512631 0.2515773 0.2519174 0.2522606 0.2525859 0.2528926 0.2531945 0.2535035
 0.2538248 0.254155 0.2544731 0.2547514 0.2549931 0.2552462 0.2555612 0.25594 0.2563391 0.2567149
 0.2570561 0.2573776 0.2576937 0.258002 0.2582893 0.2585478 0.2587892 0.2590463 0.2593532 0.2597118
 0.2600856 0.260437 0.2607601 0.2610677 0.2613684 0.2616639 0.261942 0.2621655 0.2623083 0.2624221
 0.2626271 0.2629997 0.2634869 0.2639589 0.2643371 0.2646456 0.2649442 0.265255 0.2655652 0.265842
 0.2660127 0.2660016 0.2658648 0.2658334 0.2661287 0.2667398 0.2674492 0.2680502 0.2684857 0.2688078
 0.2690867 0.2693605 0.2696128 0.2697755 0.2698009 0.2697645 0.2698549 0.270201 0.2707271 0.2712377
 0.2716248 0.2719281 0.2722222 0.2725297 0.2728117 0.2729532 0.2728125 0.2724193 0.2721043 0.2722847
 0.2730595 0.2740949 0.2749565 0.2754953 0.2758445 0.2761129 0.2762253 0.2760597 0.2755932 0.2749089
 0.2742442 0.2740341 0.274625 0.2758354 0.2770298 0.2777589 0.2781466 0.2785699 0.2791683 0.2797828
 0.2802141 0.2804011 0.2803943 0.2802415 0.2799604 0.2796644 0.2796406 0.2801497 0.281122 0.2821725
 0.282961 0.2834606 0.2838053 0.2838946 0.2832899 0.2817342 0.2798364 0.2789183 0.2798409 0.2820979
 0.284362 0.2857958 0.2865113 0.28695 0.2873092 0.287484 0.2870556 0.2854303 0.2826461 0.2800768
 0.2795992 0.2817433 0.2850996 0.287685 0.2884554 0.287522 0.2856514 0.2839099 0.2832781 0.2841166
 0.2860214 0.2882389 0.2901163 0.2912692 0.2916073 0.2913076 0.2907439 0.290381 0.2904774 0.2906974
 0.2903231 0.2891825 0.2879789 0.2872079 0.2862506 0.2843888 0.282416 0.2821465 0.2841744 0.2870145
 0.2888237 0.2892856 0.2892772 0.2890866 0.2876931 0.2841105 0.2792277 0.2757716 0.2759708 0.2793286
 0.2831158 0.2850531 0.2851062 0.2846902 0.2846825 0.2845019 0.2829795 0.2800195 0.2772347 0.2765014
 0.2778486 0.2793965 0.2794288 0.2775918 0.2739826 0.2687199 0.263373 0.2612489 0.2644697 0.2713256
 0.2777866 0.2809801 0.2800804 0.2750995 0.2671896 0.259904 0.2575978 0.2614065 0.2679211 0.2724947
 0.2729045 0.2694329 0.2629699 0.2546335 0.2467663 0.2426439 0.2443912 0.251281 0.2598537 0.2654012
 0.2643813 0.2572712 0.2492737 0.2463836 0.2497441 0.2549029 0.25705 0.2555388 0.2528615 0.2512541
 0.2514697 0.2532178 0.2554919 0.2573586 0.2586764 0.2587598 0.2550449 0.2459219 0.2349609 0.2290299
 0.2312189 0.2383403 0.2461182 0.253492 0.2602753 0.2640811 0.2628567 0.2589627 0.2576731 0.2615433
 0.267974 0.2725321 0.2734502 0.2723426 0.2712646 0.2702609 0.2683972 0.266417 0.2667623 0.2705417
 0.2757941 0.2796151 0.2810652 0.2811723 0.2809836 0.2806814 0.2801206 0.2792703 0.2781775 0.2769746
 0.2758629 0.2748941 0.2739359 0.2729373 0.2718478 0.2700259 0.2662933 0.2604659 0.2546642 0.2518539
 0.2527341 0.255289 0.2576748 0.2595576 0.2597241 0.2550873 0.2447265 0.233509 0.2287413 0.2331035
 0.2425117 0.2506929 0.2541449 0.2525732 0.2467571 0.2381818 0.230512 0.2289734 0.2363356 0.249997
 0.2642964 0.2752878 0.2822591 0.2855561 0.285052 0.2812377 0.2764857 0.2741263 0.2761564 0.2819213
 0.2886238 0.2926372 0.2910724 0.284141 0.27675 0.2755577 0.2823809 0.2917925 0.2971146 0.2974246
 0.2966187 0.2972257 0.2982243 0.2984411 0.2989739 0.3013161 0.3048964 0.3075529 0.3074763 0.30397
 0.2974482 0.2899818 0.2849841 0.2845098 0.2869914 0.2890479 0.2889656 0.2867359 0.2819277 0.2746218
 0.2680895 0.2670362 0.2722526 0.2794147 0.2840104 0.2855407 0.2861246 0.2866848 0.2858632 0.2823011
 0.2770575 0.2731535 0.2726157 0.274567 0.2766755 0.2776818 0.2775961 0.276234 0.2732283 0.2695977
 0.2678859 0.2698951 0.2747548 0.2797706 0.2828977 0.2839819 0.2839791 0.2837244 0.2834906 0.2831334
 0.282487 0.2819315 0.28243 0.2844997 0.2872988 0.2893869 0.2903896 0.2913138 0.2931447 0.2956502
 0.2977487 0.2987077 0.298787 0.2988942 0.2997571 0.3013209 0.3028041 0.3033927 0.3030467 0.302644
 0.3031905 0.3048601 0.3069289 0.3086013 0.3096751 0.3104281 0.3111654 0.3119646 0.3126395 0.3128959
 0.312716 0.3125993 0.3131896 0.3146009 0.3162793 0.3175644 0.3182336 0.318469 0.3184838 0.3183206
 0.3179511 0.3174391 0.3169519 0.316637 0.3165203 0.3165235 0.3165522 0.3165534 0.3165223 0.3164934
 0.3165185 0.3166254 0.316799 0.31701 0.3172386 0.3174587 0.3176327 0.3177477 0.3178321 0.3179088
 0.3179474 0.3178797 0.3176425 0.3171884 0.3164777 0.3154807 0.3141788 0.3125421 0.3105342 0.3082171
 0.3059146 0.3042397 0.3038364 0.3049722 0.3073293 0.3101854 0.3128205 0.3148234 0.3161328 0.3168906
 0.3172797 0.3174392 0.3174502 0.3173497 0.317155 0.3168851 0.3165644 0.3162155 0.3158563 0.3155056
 0.3151802 0.3148867 0.3146167 0.314346 0.3140386 0.3136614 0.3132015 0.3126671 0.3120695 0.3114054
 0.3106536 0.309793 0.3088281 0.3078029 0.3067838 0.3058227 0.3049283 0.3040681 0.3031958 0.3022709
 0.3012427 0.3000438 0.2986538 0.2971899 0.2958753 0.2948636 0.2941003 0.2933875 0.2925586 0.2915669
 0.2904407 0.2892191 0.2879362 0.2866195 0.2852782 0.2838961 0.2824449 0.2809005 0.2792547 0.2775173
 0.2757075 0.2738413 0.2719299 0.2699833 0.2679909 0.2658876 0.2635447 0.2608011 0.2575101 0.2535722
 0.2489611 0.2437476 0.2381016 0.2322502 0.2264188 0.2207981 0.2155483 0.2108108 0.2067071 0.2033316
 0.2007491 0.1989989 0.1980992 0.1980517 0.1988426 0.2004364 0.2027614 0.205699 0.2090885 0.2127439
 0.2164684 0.2200713 0.2234103 0.2264459 0.229239 0.2318687 0.2343477 0.2366235 0.238647 0.240413
 0.2419393 0.2432328 0.2442932 0.2451404 0.2458225 0.2463963 0.2469009 0.2473447 0.2477135 0.2479917
 0.248184 0.2483231 0.2484538 0.2486105 0.2488036 0.249027 0.2492788 0.2495738 0.2499353 0.2503794
 0.2509095 0.2515187 0.2521921 0.2529137 0.2536794 0.2545037 0.2554129 0.2564369 0.2576041 0.258932
 0.2604166 0.2620259 0.2636967 0.265335 0.266831 0.2680886 0.2690524 0.2697161 0.2701055 0.2702528
 0.2701827 0.2699195 0.2694958 0.2689458 0.2682972 0.2675718 0.2667871 0.2659519 0.2650652 0.2641234
 0.2631319 0.2621132 0.2611 0.2601141 0.2591545 0.2582125 0.2572898 0.2563948 0.255532 0.2546998
 0.253894 0.2531102 0.2523511 0.251629 0.2509512 0.2503015 0.2496356 0.2488936 0.2480232 0.2469985
 0.2458171 0.2444824 0.2429981 0.2413747 0.2396284 0.2377759 0.2358336 0.2338177 0.2317358 0.2295828
 0.227343 0.2249993 0.2225632 0.2201034 0.2177253 0.2155107 0.2134838 0.2116254 0.2098989 0.208268
 0.2067114 0.2052215 0.2037919 0.2024198 0.2011145 0.1998843 0.1987224 0.1976188 0.1965784 0.1956207
 0.1947694 0.1940401 0.1934269 0.1929063 0.1924599 0.1920832 0.1917825 0.1915828 0.1915234 0.1916073
 0.1917629 0.1918834 0.1919034 0.1918309 0.1917219 0.1916329 0.1915891 0.191588 0.1916128 0.1916191
 0.1915184 0.191202 0.190577 0.1895746 0.1881578 0.1863489 0.1842418 0.1819805 0.1797332 0.1776587
 0.1758694 0.1744187 0.1733098 0.1724916 0.1718699 0.1713721 0.1710031 0.1708296 0.1709152 0.17125
 0.1717012 0.172067 0.1722461 0.1723512 0.1726166 0.1732041 0.1741007 0.1751582 0.1762006 0.1771157
 0.177867 0.1784491 0.1788706 0.1791627 0.1793529 0.1794359 0.1793987 0.1792462 0.1789863 0.1786257
 0.1781833 0.1776675 0.1770561 0.1763357 0.1755226 0.1746251 0.1736315 0.1725344 0.1713161 0.1699437
 0.1684633 0.1670832 0.1661045 0.1657607 0.1660953 0.1669401 0.1680333 0.1691955 0.1703498 0.1713905
 0.1721906 0.1728139 0.1736062 0.1749613 0.1769804 0.179363 0.1816254 0.1834169 0.1846237 0.1852444
 0.1853016 0.1848552 0.1839556 0.1825871 0.1807579 0.1785857 0.1762244 0.1738088 0.1714966 0.1694227
 0.1676292 0.1661278 0.164935 0.1640591 0.1635695 0.163181 0.161258 0.1553976 0.1458474 0.1376889
 0.1369774 0.144201 0.1535795 0.1592623 0.1602834 0.15913 0.1578598 0.1569183 0.1562261 0.1558543
 0.1558634 0.1561499 0.1564811 0.156609 0.1564311 0.155968 0.155086 0.1532653 0.1496189 0.1432208
 0.1337884 0.1223035 0.1107951 0.1012661 0.09471306 0.09093304 0.08895732 0.08771826 0.08665632 0.08591634
 0.08599622 0.08723189 0.08960462 0.09289522 0.09684764 0.1011381 0.1053081 0.1089034 0.1117215 0.1138388
 0.1153883 0.1164132 0.116931 0.1170069 0.1167254 0.1161636 0.1153918 0.1144394 0.1132726 0.1118622
 0.1102905 0.1087803 0.107592 0.1068555 0.1064952 0.10634 0.1062765 0.1062739 0.1063199 0.1064011
 0.1065177 0.10668 0.1069023 0.1071987 0.1075542 0.1079086 0.1081957 0.1083869 0.1084868 0.1085024
 0.1084146 0.1081871 0.1078322 0.1074386 0.1070484 0.1065227 0.1056463 0.1044073 0.103112 0.1021949
 0.1019195 0.1022199 0.1027738 0.1032399 0.1034714 0.1035365 0.1035593 0.1035508 0.1033898 0.1029621
</values></Ydata></ScRf><Data_Parameters_AB><parameter name="DPF">1</parameter><parameter name="NPT">3497</parameter><parameter name="FXV">3996</parameter><parameter name="LXV">500</parameter><parameter name="CSF">1</parameter><parameter name="MXY">0.456859618425369</parameter><parameter name="MNY">-0.0561030581593513</parameter><parameter name="DAT">13/02/2024</parameter><parameter name="TIM">13:28:40.592 (GMT+1)</parameter><parameter name="DXU">WN</parameter></Data_Parameters_AB><AB__Qtest><MainReport name="Quality Test Report"><Header><Line><Legend>Test result ok/not ok [1/0]: </Legend><Value>0</Value></Line><Line><Legend>Method file: </Legend><Value>C:\Users\Public\Documents\Bruker\OPUS_8.2.28\QT\IRBT_v3_default.QT</Value></Line></Header><Matrix><Line><Legend></Legend><Legend>min</Legend><Legend>max</Legend><Legend>measured</Legend></Line><Line><Value>Absorption (X-Range 1):</Value><Value>0.400000</Value><Value>2.000000</Value><Value>0.329162</Value></Line><Line><Value>Noise (X-Range 4):</Value><Value></Value><Value>0.000300</Value><Value>0.000042</Value></Line><Line><Value>Signal/Noise (X-Range 2):</Value><Value>200.000000</Value><Value></Value><Value>118.865361</Value></Line><Line><Value>Signal/Noise (X-Range 3):</Value><Value>40.000000</Value><Value></Value><Value>122.874290</Value></Line><Line><Value>Water vapour (X-Range 5):</Value><Value></Value><Value>0.000300</Value><Value>0.000020</Value></Line><Line><Value>Signal/Water (X-Range 2):</Value><Value>100.000000</Value><Value></Value><Value>242.238763</Value></Line><Line><Value>Signal/Water (X-Range 3):</Value><Value>20.000000</Value><Value></Value><Value>250.408661</Value></Line><Line><Value>Fringes (X-Range 6):</Value><Value></Value><Value>0.000100</Value><Value>0.000029</Value></Line></Matrix></MainReport></AB__Qtest><Data_Parameters_ScSm><parameter name="DPF">1</parameter><parameter name="NPT">1814</parameter><parameter name="FXV">3996.63438082617</parameter><parameter name="LXV">499.579297603271</parameter><parameter name="CSF">1</parameter><parameter name="MXY">0.316600412130356</parameter><parameter name="MNY">0.0578183941543102</parameter><parameter name="DAT">13/02/2024</parameter><parameter name="TIM">13:28:40.592 (GMT+1)</parameter><parameter name="DXU">WN</parameter></Data_Parameters_ScSm><Data_Parameters_ScRf><parameter name="DPF">1</parameter><parameter name="NPT">1820</parameter><parameter name="FXV">4004.34989121387</parameter><parameter name="LXV">495.721542409425</parameter><parameter name="CSF">1</parameter><parameter name="MXY">0.318483769893646</parameter><parameter name="MNY">0.0686298236250877</parameter><parameter name="DAT">13/02/2024</parameter><parameter name="TIM">13:28:14.737 (GMT+1)</parameter><parameter name="DXU">WN</parameter></Data_Parameters_ScRf><Optic_Parameters_Rf><parameter name="APR">0</parameter><parameter name="APT">Open</parameter><parameter name="BMS">KBr</parameter><parameter name="DTC">RT-DLaTGS_IR-Biotyper [Microplate reader]</parameter><parameter name="HPF">0</parameter><parameter name="LPF">10.0</parameter><parameter name="LPV">4000</parameter><parameter name="PGR">0</parameter><parameter name="RCH">Module port</parameter><parameter name="RDX">0</parameter><parameter name="SRC">MIR</parameter><parameter name="VEL">10.0</parameter><parameter name="SON">Off</parameter></Optic_Parameters_Rf><Acquisition_Parameters_Rf><parameter name="ADT">1</parameter><parameter name="AQM">DD</parameter><parameter name="CFE">0</parameter><parameter name="COR">0</parameter><parameter name="DEL">0</parameter><parameter name="DLY">0</parameter><parameter name="HFW">8000</parameter><parameter name="LFW">0</parameter><parameter name="NSR">32</parameter><parameter name="PLF">AB</parameter><parameter name="RES">6</parameter><parameter name="RGN">-1</parameter><parameter name="STR">0</parameter><parameter name="TCL">MakeCompatibleScalar (0, {WSV=1.000000, ARV=0});</parameter><parameter name="TDL">37</parameter><parameter name="RPO">0</parameter></Acquisition_Parameters_Rf><FT_-_Parameters_Rf><parameter name="APF">B3</parameter><parameter name="HFQ">500</parameter><parameter name="LFQ">4000</parameter><parameter name="NLI">0</parameter><parameter name="PHR">24</parameter><parameter name="PHZ">ML</parameter><parameter name="SPZ">NO</parameter><parameter name="ZFF">1</parameter></FT_-_Parameters_Rf><Optic_Parameters_><parameter name="APR">0</parameter><parameter name="APT">Open</parameter><parameter name="BMS">KBr</parameter><parameter name="CHN">Module port</parameter><parameter name="DTC">RT-DLaTGS_IR-Biotyper [Microplate reader]</parameter><parameter name="HPF">0</parameter><parameter name="LPF">10.0</parameter><parameter name="LPV">4000</parameter><parameter name="PGN">0</parameter><parameter name="RDX">0</parameter><parameter name="SRC">MIR</parameter><parameter name="VEL">10.0</parameter><parameter name="SON">Off</parameter></Optic_Parameters_><FT_-_Parameters_><parameter name="APF">B3</parameter><parameter name="HFQ">500</parameter><parameter name="LFQ">4000</parameter><parameter name="NLI">0</parameter><parameter name="PHR">24</parameter><parameter name="PHZ">ML</parameter><parameter name="SPZ">NO</parameter><parameter name="ZFF">1</parameter></FT_-_Parameters_><Acquisition_Parameters_><parameter name="ADT">1</parameter><parameter name="AQM">DD</parameter><parameter name="CFE">0</parameter><parameter name="COR">0</parameter><parameter name="DEL">0</parameter><parameter name="DLY">0</parameter><parameter name="HFW">8000</parameter><parameter name="LFW">0</parameter><parameter name="NSS">32</parameter><parameter name="PLF">AB</parameter><parameter name="RES">6</parameter><parameter name="SOT">0</parameter><parameter name="TCL">MakeCompatibleScalar (0, {WSV=1.000000, ARV=0});</parameter><parameter name="TDL">37</parameter><parameter name="SPO">0</parameter><parameter name="SGN">-1</parameter></Acquisition_Parameters_><Instrument_Parameters_Rf><parameter name="HFL">15801.365274</parameter><parameter name="LFL">0</parameter><parameter name="LWN">15801.365274</parameter><parameter name="ABP">32157</parameter><parameter name="SSP">1</parameter><parameter name="ARG">2</parameter><parameter name="ASG">2</parameter><parameter name="ASS">32</parameter><parameter name="GFW">16</parameter><parameter name="GBW">16</parameter><parameter name="BFW">0</parameter><parameter name="BBW">0</parameter><parameter name="PKA">9175</parameter><parameter name="PKL">5009</parameter><parameter name="PRA">9170</parameter><parameter name="PRL">4988</parameter><parameter name="P2A">1</parameter><parameter name="P2L">1</parameter><parameter name="P2R">1</parameter><parameter name="P2K">1</parameter><parameter name="DAQ">0</parameter><parameter name="AG2">1</parameter><parameter name="SSM">1</parameter><parameter name="RSN">48147</parameter><parameter name="CRR">0</parameter><parameter name="SRT">1707830894.738</parameter><parameter name="DUR">19.6389923095703</parameter><parameter name="TSC">30</parameter><parameter name="MVD">0.289663046598434</parameter><parameter name="AN1">0.225953974613637</parameter><parameter name="AN2">0</parameter><parameter name="VSN">2.485 Apr  4 2017</parameter><parameter name="SRN">0085</parameter><parameter name="CAM">0</parameter><parameter name="INS">IR-Biotyper</parameter><parameter name="FOC">69</parameter><parameter name="RDY">1</parameter><parameter name="ARS">32</parameter></Instrument_Parameters_Rf><Sample_Parameters_><parameter name="BLD"></parameter><parameter name="CNM">Admin</parameter><parameter name="CPY"></parameter><parameter name="DPM"></parameter><parameter name="EXP">IRBT_v3_32Scans.XPM</parameter><parameter name="LCT"></parameter><parameter name="SFM">Microplate, HTS-XT</parameter><parameter name="SNM">240213-1206-Cdiff_SCFA_3_GDA_C39_242149579_D6_28b1c3b7-54b3-4ace-bad9-3e28a84eaa05.0</parameter><parameter name="XPP">C:\Users\Public\Documents\Bruker\OPUS_8.2.28\XPM</parameter><parameter name="IST">OK</parameter><parameter name="CPG">1252</parameter><parameter name="UID">a49537e4-70f0-482d-a54a-8a78fcb67ee7</parameter></Sample_Parameters_><Instrument_Parameters_><parameter name="HFL">15801.365274</parameter><parameter name="LFL">0</parameter><parameter name="LWN">15801.365274</parameter><parameter name="ABP">32157</parameter><parameter name="SSP">1</parameter><parameter name="ASG">2</parameter><parameter name="ARG">2</parameter><parameter name="ASS">32</parameter><parameter name="GFW">16</parameter><parameter name="GBW">16</parameter><parameter name="BFW">0</parameter><parameter name="BBW">0</parameter><parameter name="PKA">8543</parameter><parameter name="PKL">5001</parameter><parameter name="PRA">8627</parameter><parameter name="PRL">4980</parameter><parameter name="P2A">1</parameter><parameter name="P2L">1</parameter><parameter name="P2R">1</parameter><parameter name="P2K">1</parameter><parameter name="DAQ">0</parameter><parameter name="AG2">1</parameter><parameter name="SSM">1</parameter><parameter name="RSN">24771</parameter><parameter name="CRR">0</parameter><parameter name="SRT">1707830920.592</parameter><parameter name="DUR">19.6389923095703</parameter><parameter name="TSC">30</parameter><parameter name="MVD">0.270927637815475</parameter><parameter name="AN1">0.225960609980524</parameter><parameter name="AN2">0</parameter><parameter name="VSN">2.485 Apr  4 2017</parameter><parameter name="SRN">0085</parameter><parameter name="CAM">0</parameter><parameter name="INS">IR-Biotyper</parameter><parameter name="FOC">69</parameter><parameter name="RDY">1</parameter></Instrument_Parameters_><History/></OPUSDataFile>
