<?xml version="1.0" encoding="UTF-8" ?>
<OPUSDataFile><AB><Ydata ylabel="Absorbance Units"><values byteorder="INTEL" format="FLOAT32" numvalues="3497"> -0.04870142 -0.04870922 -0.04871789 -0.04872714 -0.04873626 -0.04874479 -0.04875161 -0.04875617 -0.0487564 -0.04875439
 -0.04875074 -0.04874963 -0.04875452 -0.048767 -0.04878962 -0.04881912 -0.04885514 -0.04889419 -0.04893535 -0.0489771
 -0.04901933 -0.04905948 -0.0490975 -0.04912782 -0.04915018 -0.04916127 -0.04916158 -0.04915472 -0.04914191 -0.04913156
 -0.04912409 -0.04912565 -0.04913504 -0.04915289 -0.04917746 -0.04920617 -0.04923849 -0.04927284 -0.04930941 -0.04934839
 -0.0493883 -0.04942924 -0.04946706 -0.04950067 -0.04952599 -0.04954163 -0.04954658 -0.04953999 -0.04952598 -0.04950456
 -0.04948391 -0.04946448 -0.04945463 -0.04945453 -0.04946911 -0.04949768 -0.04953962 -0.04959307 -0.04965217 -0.0497143
 -0.04977084 -0.04982027 -0.04985574 -0.04987936 -0.04988989 -0.04989258 -0.0498904 -0.04988876 -0.04989082 -0.04990109
 -0.04992194 -0.0499552 -0.0500029 -0.05005876 -0.05012332 -0.05018127 -0.0502314 -0.0502605 -0.05026791 -0.05025613
 -0.05022648 -0.05019505 -0.05016321 -0.05014719 -0.0501462 -0.05016702 -0.0502062 -0.05026074 -0.05032416 -0.05038594
 -0.05043906 -0.05047046 -0.05048085 -0.05046316 -0.05043174 -0.05039057 -0.05035668 -0.05033893 -0.05033844 -0.0503591
 -0.05038699 -0.05042053 -0.05044892 -0.05047046 -0.05048762 -0.05050047 -0.0505146 -0.05052965 -0.05054231 -0.05055208
 -0.05055358 -0.05054846 -0.05053952 -0.05052887 -0.05052315 -0.0505227 -0.05053095 -0.0505476 -0.05057432 -0.0506084
 -0.05065067 -0.0506908 -0.05072451 -0.0507408 -0.05073211 -0.0507043 -0.05065509 -0.05060433 -0.05055534 -0.05051721
 -0.05049142 -0.05047701 -0.05047395 -0.05049527 -0.05054192 -0.05063349 -0.05076513 -0.05092271 -0.05109116 -0.05120781
 -0.05126496 -0.05120044 -0.05104657 -0.05082073 -0.0505744 -0.05038146 -0.05024888 -0.0502142 -0.05024426 -0.05033253
 -0.05044608 -0.05057146 -0.0506881 -0.05078971 -0.0508583 -0.05088973 -0.05087531 -0.05081188 -0.05072195 -0.05060652
 -0.05050569 -0.05042012 -0.05036765 -0.05034565 -0.0503462 -0.05036808 -0.05040311 -0.05045097 -0.05050885 -0.05057184
 -0.05063108 -0.05068136 -0.0507112 -0.05072398 -0.05071783 -0.05069939 -0.05067289 -0.05063872 -0.0505968 -0.05055164
 -0.05050185 -0.05046507 -0.05044433 -0.05045014 -0.05048538 -0.05053551 -0.05059998 -0.05065312 -0.05069432 -0.05071064
 -0.05070315 -0.05067224 -0.05061895 -0.0505461 -0.05045653 -0.05035691 -0.05025377 -0.05016157 -0.05008382 -0.0500322
 -0.05000194 -0.04999391 -0.05000025 -0.05001696 -0.05003807 -0.05006076 -0.05008013 -0.05009446 -0.05010059 -0.05009736
 -0.05008623 -0.05006716 -0.05004274 -0.05001317 -0.04997816 -0.04993798 -0.04989648 -0.04985521 -0.04982718 -0.04981228
 -0.04981923 -0.04984197 -0.04987068 -0.04989745 -0.04990209 -0.04988545 -0.04983699 -0.04977066 -0.04969332 -0.04962029
 -0.04956466 -0.04952648 -0.04951083 -0.04950567 -0.04950754 -0.04951387 -0.0495219 -0.04954534 -0.04958613 -0.04964646
 -0.04972712 -0.04979816 -0.04985794 -0.04987298 -0.04984649 -0.04978463 -0.04969254 -0.04959705 -0.04949374 -0.04938306
 -0.04926306 -0.04912359 -0.04898333 -0.04886096 -0.04877295 -0.04874823 -0.04876718 -0.04883345 -0.04890218 -0.04895462
 -0.04896654 -0.0489216 -0.04884145 -0.04872499 -0.04861004 -0.04850172 -0.048414 -0.04834854 -0.04829361 -0.04824825
 -0.0481935 -0.04812959 -0.04804802 -0.04795232 -0.0478517 -0.04775066 -0.047667 -0.04760034 -0.04756133 -0.04753933
 -0.04752807 -0.04750978 -0.04746518 -0.04738799 -0.04726251 -0.04711188 -0.0469397 -0.04677455 -0.04662937 -0.0464995
 -0.04638896 -0.04626973 -0.04613829 -0.04598234 -0.0458002 -0.04560926 -0.04541072 -0.04522918 -0.04506386 -0.04492224
 -0.04479865 -0.04467556 -0.04454343 -0.04436597 -0.04414092 -0.04384026 -0.04348442 -0.04308387 -0.0426701 -0.04227813
 -0.04191792 -0.04161091 -0.04133879 -0.0411023 -0.0408709 -0.04063797 -0.04037264 -0.04006736 -0.03970739 -0.03928799
 -0.03882502 -0.03831888 -0.03779613 -0.03725746 -0.03671024 -0.03615408 -0.03558768 -0.03501346 -0.03444177 -0.03387446
 -0.03332395 -0.03278619 -0.03226075 -0.03173934 -0.03121147 -0.03066923 -0.03010027 -0.02950506 -0.02887716 -0.02823048
 -0.02757048 -0.02690386 -0.02623923 -0.02555071 -0.02483614 -0.02406395 -0.02322605 -0.0223437 -0.02141654 -0.02050374
 -0.01960708 -0.01874919 -0.01792619 -0.01711474 -0.0163125 -0.01549553 -0.01466743 -0.01382613 -0.01297611 -0.01212763
 -0.0112768 -0.01042772 -0.009560898 -0.008661247 -0.007708581 -0.006675861 -0.005586775 -0.004434223 -0.003286204 -0.002165328
 -0.00110072 -0.0001108081 0.0008518687 0.001788966 0.002761197 0.003774485 0.004836381 0.005946022 0.007064627 0.008191048
 0.009296871 0.01038776 0.01147428 0.01256371 0.01368524 0.01483698 0.0160329 0.01725834 0.01849938 0.01974257
 0.02096671 0.022175 0.02336079 0.0245384 0.02571254 0.02689454 0.02808965 0.02930041 0.03052942 0.03176889
 0.03301852 0.0342675 0.03551435 0.03676621 0.03802393 0.03931469 0.04063807 0.04200434 0.04340611 0.04481301
 0.0462192 0.0475878 0.04892586 0.0502281 0.05150807 0.05278324 0.05406186 0.05536012 0.05667591 0.05801466
 0.05936532 0.06072376 0.06208287 0.06343663 0.0647959 0.06616072 0.06754876 0.06896411 0.07040217 0.07186384
 0.07332243 0.07477675 0.07620892 0.0776201 0.0790142 0.08039346 0.08177021 0.08314633 0.08453391 0.08593366
 0.08735389 0.08879139 0.09024628 0.09171175 0.09318115 0.09464917 0.09610966 0.0975617 0.0990026 0.1004358
 0.1018611 0.103285 0.1047088 0.1061374 0.1075716 0.1090122 0.1104591 0.1119126 0.1133725 0.1148368
 0.1163044 0.1177638 0.1192139 0.1206417 0.1220505 0.1234424 0.1248234 0.1262083 0.1275986 0.1290048
 0.1304218 0.131849 0.1332786 0.1347055 0.1361223 0.1375237 0.1389072 0.1402696 0.141616 0.1429466
 0.1442672 0.1455789 0.1468836 0.1481813 0.1494745 0.1507632 0.1520506 0.1533363 0.154617 0.1558924
 0.1571574 0.1584138 0.1596644 0.1609103 0.1621567 0.1634009 0.1646413 0.1658754 0.1670991 0.1683141
 0.1695205 0.1707207 0.1719165 0.1731087 0.1742982 0.1754847 0.1766691 0.1778468 0.1790175 0.1801747
 0.1813175 0.1824469 0.183563 0.1846737 0.1857791 0.1868814 0.1879799 0.189071 0.1901545 0.1912287
 0.1922931 0.1933465 0.1943878 0.1954138 0.1964276 0.1974304 0.1984287 0.1994287 0.2004305 0.2014375
 0.2024412 0.2034395 0.2044255 0.2053967 0.2063532 0.2072942 0.2082257 0.2091478 0.2100696 0.2109914
 0.2119181 0.2128491 0.2137779 0.2147036 0.2156158 0.2165154 0.2173993 0.2182693 0.2191286 0.2199775
 0.220818 0.2216499 0.2224736 0.2232891 0.2240963 0.2248951 0.2256847 0.226468 0.2272452 0.2280213
 0.2287984 0.2295753 0.2303529 0.2311224 0.231883 0.2326298 0.2333622 0.2340824 0.2347906 0.2354895
 0.2361793 0.2368618 0.2375374 0.2382093 0.2388763 0.239538 0.2401917 0.2408321 0.241458 0.2420654
 0.2426567 0.2432323 0.2437951 0.244347 0.2448895 0.2454237 0.2459499 0.2464685 0.2469774 0.2474765
 0.2479634 0.2484378 0.2488993 0.2493478 0.2497813 0.2501998 0.2505997 0.250982 0.2513509 0.2517086
 0.2520661 0.2524221 0.2527806 0.2531361 0.2534804 0.2538108 0.2541192 0.2544097 0.2546826 0.2549434
 0.2551957 0.2554407 0.2556799 0.2559114 0.2561347 0.2563486 0.2565524 0.2567489 0.256938 0.257127
 0.2573161 0.2575096 0.2577073 0.2579034 0.2580967 0.2582768 0.2584438 0.2585924 0.2587253 0.258846
 0.2589566 0.2590634 0.2591651 0.2592636 0.2593544 0.2594336 0.2595007 0.2595519 0.2595973 0.2596386
 0.2596883 0.2597515 0.2598269 0.2599166 0.2600062 0.2600941 0.26017 0.2602331 0.260287 0.2603325
 0.2603792 0.2604273 0.2604817 0.2605416 0.2606063 0.2606755 0.260747 0.2608219 0.2608998 0.2609832
 0.2610741 0.2611767 0.2612948 0.2614326 0.261595 0.2617799 0.2619904 0.2622117 0.2624419 0.2626611
 0.2628643 0.2630481 0.26321 0.2633715 0.2635337 0.2637214 0.2639346 0.2641771 0.2644473 0.2647352
 0.2650424 0.26537 0.2657216 0.2661107 0.2665311 0.266984 0.2674478 0.2678978 0.2683141 0.2686658
 0.268961 0.2691886 0.2693872 0.2695674 0.2697669 0.2700011 0.2702757 0.2705979 0.2709408 0.2713037
 0.2716488 0.2719737 0.2722524 0.2724851 0.272673 0.2728196 0.2729511 0.2730699 0.2732013 0.273341
 0.2734912 0.2736442 0.2737853 0.2739145 0.2740231 0.2741213 0.2742147 0.2743123 0.2744243 0.2745429
 0.274672 0.2747846 0.2748756 0.2749166 0.2748993 0.2748218 0.2746804 0.2745062 0.2743005 0.2741005
 0.2739071 0.2737353 0.2735829 0.2734438 0.2733158 0.2731884 0.2730603 0.2729229 0.2727757 0.2726122
 0.2724369 0.272251 0.2720637 0.2718849 0.2717178 0.2715703 0.2714306 0.2712974 0.2711539 0.2709935
 0.2708145 0.2706129 0.2704076 0.2701997 0.270014 0.2698527 0.2697243 0.269628 0.269543 0.2694657
 0.2693581 0.2692198 0.2690269 0.2687876 0.2685105 0.2682078 0.2679075 0.2676151 0.2673513 0.2671105
 0.2668963 0.2666985 0.2665121 0.2663285 0.2661431 0.2659508 0.265749 0.2655362 0.2653112 0.2650776
 0.2648354 0.2645933 0.2643518 0.2641164 0.2638868 0.2636573 0.2634266 0.2631819 0.2629231 0.2626424
 0.2623432 0.2620298 0.2617071 0.2613865 0.26107 0.2607654 0.2604708 0.2601875 0.2599128 0.2596459
 0.2593845 0.2591286 0.2588715 0.2586126 0.2583407 0.2580532 0.257745 0.2574142 0.2570702 0.2567134
 0.2563573 0.2560023 0.255651 0.2553027 0.2549515 0.2545978 0.2542397 0.2538784 0.2535174 0.2531554
 0.2527918 0.252424 0.2520468 0.2516611 0.2512649 0.2508632 0.2504586 0.2500554 0.2496569 0.2492629
 0.2488744 0.2484887 0.248105 0.2477233 0.2473426 0.2469703 0.2466069 0.246262 0.2459356 0.2456229
 0.2453212 0.2450054 0.2446739 0.2443032 0.2438987 0.2434627 0.2430054 0.242549 0.2420996 0.2416764
 0.2412767 0.2409066 0.2405564 0.2402228 0.2398929 0.2395603 0.2392154 0.2388521 0.2384743 0.2380802
 0.2376853 0.2372917 0.2369098 0.2365411 0.2361823 0.2358335 0.2354915 0.2351579 0.2348452 0.2345556
 0.2343081 0.2340988 0.233929 0.2337855 0.2336435 0.2334884 0.2332869 0.2330371 0.2327204 0.2323551
 0.2319445 0.2315157 0.2310832 0.2306597 0.2302554 0.2298597 0.229473 0.2290807 0.2286797 0.2282726
 0.2278593 0.2274512 0.2270486 0.2266484 0.226249 0.2258336 0.225403 0.2249514 0.224484 0.2240144
 0.2235443 0.2230866 0.222634 0.2221824 0.2217219 0.2212397 0.2207331 0.2201946 0.2196309 0.2190425
 0.2184378 0.217821 0.2171913 0.2165514 0.2158874 0.215198 0.2144692 0.2136988 0.2128928 0.2120517
 0.2112047 0.2103533 0.2095273 0.2087251 0.2079551 0.207213 0.2064894 0.2057816 0.2050794 0.2043829
 0.2036884 0.2029957 0.2023036 0.201611 0.2009156 0.2002198 0.1995225 0.198832 0.1981506 0.1974864
 0.1968421 0.1962186 0.1956166 0.1950318 0.1944637 0.193913 0.19338 0.192872 0.1923888 0.1919336
 0.1915048 0.191095 0.190703 0.1903195 0.189946 0.1895805 0.1892251 0.1888832 0.1885519 0.1882314
 0.187913 0.1875913 0.1872578 0.1869063 0.1865337 0.1861371 0.1857168 0.1852725 0.1848034 0.1843091
 0.183791 0.1832487 0.1826942 0.1821283 0.1815733 0.1810298 0.1805146 0.1800251 0.1795564 0.1791023
 0.1786396 0.1781647 0.177656 0.1771188 0.1765497 0.175961 0.175364 0.17477 0.1741911 0.1736328
 0.1731009 0.1725978 0.1721249 0.1716853 0.1712796 0.1709111 0.1705803 0.1702918 0.1700456 0.1698495
 0.1697041 0.1696187 0.1695939 0.1696378 0.1697511 0.1699419 0.1702111 0.1705674 0.1710097 0.1715422
 0.1721589 0.172854 0.1736188 0.1744422 0.1753177 0.1762371 0.1771961 0.1781917 0.1792178 0.1802731
 0.1813475 0.1824396 0.183537 0.1846384 0.1857277 0.1868039 0.1878444 0.1888481 0.1897871 0.1906598
 0.1914376 0.1921181 0.1926733 0.1931001 0.1933727 0.1934884 0.1934273 0.1931917 0.1927725 0.1921844
 0.1914325 0.1905539 0.1895683 0.1885381 0.1874935 0.1865047 0.185603 0.1848337 0.1842174 0.1837546
 0.1834521 0.1832751 0.1832224 0.1832484 0.1833507 0.1834852 0.1836493 0.1837986 0.1839297 0.1839987
 0.1840035 0.1839111 0.1837235 0.1834272 0.1830294 0.1825341 0.1819512 0.1812925 0.1805685 0.1797902
 0.1789675 0.1781091 0.1772189 0.1763046 0.1753473 0.1743508 0.1732604 0.1720709 0.1707174 0.1691906
 0.1674777 0.1655769 0.1635646 0.1614485 0.1593562 0.157293 0.1553591 0.1535471 0.1518857 0.1503589
 0.148943 0.1476245 0.1463701 0.1451734 0.1440138 0.1428899 0.1417933 0.1407269 0.1396882 0.1386872
 0.1377256 0.1368184 0.1359694 0.1351908 0.1344853 0.1338573 0.1333076 0.1328369 0.1324453 0.1321339
 0.1319027 0.13175 0.1316742 0.1316658 0.1317203 0.1318196 0.131954 0.1320959 0.1322254 0.1323015
 0.1322936 0.1321511 0.1318473 0.1313392 0.1306264 0.1296887 0.1285637 0.1272534 0.125822 0.1242822
 0.1227026 0.121095 0.1195152 0.1179702 0.1164972 0.1150991 0.1137961 0.1125882 0.1114759 0.1104532
 0.1094856 0.1085573 0.1075908 0.1065674 0.105395 0.1040764 0.1025623 0.1008958 0.09909953 0.09724285
 0.09539005 0.09359483 0.0919116 0.09034704 0.08892228 0.0876052 0.08639294 0.08524936 0.08416659 0.08312873
 0.0821323 0.08117922 0.08026935 0.07940732 0.07859297 0.07782374 0.07709843 0.07640757 0.07574967 0.07511372
 0.07449868 0.0738963 0.0733059 0.0727227 0.07214597 0.07157286 0.07100323 0.07043559 0.06987139 0.06931087
 0.06875601 0.06820781 0.06766683 0.06713382 0.06660672 0.06608542 0.06556695 0.06505091 0.06453563 0.06402089
 0.06350894 0.06299999 0.06249905 0.06200608 0.06152374 0.06105088 0.060584 0.06012234 0.05966124 0.05920248
 0.05874715 0.05829721 0.05785715 0.05742348 0.05699624 0.05656702 0.05613026 0.05568175 0.05521667 0.05474086
 0.05425387 0.05376696 0.05328206 0.05280777 0.05234552 0.05189853 0.05146725 0.05104899 0.05064339 0.05024327
 0.04984821 0.04945146 0.04905366 0.04865379 0.04825313 0.04785484 0.04745939 0.0470692 0.04668398 0.04630416
 0.04592993 0.04556147 0.04519935 0.04484396 0.04449564 0.0441545 0.04382119 0.04349565 0.04317961 0.04287348
 0.04257791 0.04229336 0.04201688 0.04174841 0.0414823 0.04121829 0.04095128 0.04068145 0.04040772 0.04013093
 0.03985405 0.03957811 0.0393078 0.03904311 0.03878671 0.03853675 0.03829234 0.03805031 0.03780736 0.03756135
 0.03730922 0.03705261 0.03679074 0.03652859 0.03626767 0.03601062 0.03575904 0.03550871 0.03525977 0.03500383
 0.03474022 0.0344644 0.03417631 0.03387842 0.03357137 0.03326153 0.03294944 0.03264091 0.03233605 0.03203837
 0.0317472 0.03146339 0.03118487 0.03090951 0.0306347 0.03035681 0.03007547 0.02978875 0.02949921 0.02920754
 0.02891588 0.02862548 0.0283352 0.02804506 0.02775343 0.02745977 0.02716639 0.02687334 0.02658534 0.02630256
 0.02602681 0.02575768 0.02549209 0.0252295 0.02496557 0.02470044 0.02443215 0.02416154 0.02388926 0.02361627
 0.02334432 0.02307373 0.02280562 0.0225393 0.02227468 0.02201089 0.02174722 0.02148421 0.0212216 0.02096136
 0.02070383 0.0204508 0.02020259 0.01996012 0.01972351 0.01949305 0.0192687 0.019049 0.0188336 0.01861841
 0.01840319 0.01818414 0.01796209 0.01773723 0.01751124 0.01728788 0.01706763 0.01685321 0.01664324 0.01643736
 0.01623412 0.01603217 0.01583141 0.01563152 0.01543238 0.01523417 0.01503543 0.01483583 0.01463469 0.01443178
 0.01422781 0.01402288 0.013817 0.01361015 0.01340076 0.01318891 0.01297456 0.01275839 0.01254383 0.01233151
 0.01212544 0.01192504 0.01173149 0.01154277 0.01135677 0.01117097 0.01098201 0.01078858 0.01058801 0.01038255
 0.01017173 0.00996117 0.009752579 0.009550119 0.00935558 0.009167633 0.00898663 0.008808246 0.008632047 0.00845689
 0.00828274 0.008111427 0.007942778 0.007775873 0.00760988 0.007439798 0.00726528 0.007082061 0.00689148 0.006694187
 0.006491968 0.006287979 0.006082832 0.005878432 0.005674554 0.005471367 0.005269385 0.005068652 0.00487052 0.004675658
 0.004483998 0.004295961 0.004109358 0.003924044 0.003737413 0.003549202 0.003358059 0.003163916 0.002966845 0.002767005
 0.002565893 0.002364113 0.00216562 0.001971047 0.00178513 0.001606842 0.001437135 0.001272487 0.001108038 0.0009407565
 0.0007645715 0.0005810987 0.0003884595 0.0001926669 -3.983667E-06 -0.0001961587 -0.0003811299 -0.0005577442 -0.0007249659 -0.0008844292
 -0.001036084 -0.001182503 -0.001323781 -0.001463866 -0.001602982 -0.001745704 -0.001892015 -0.002043383 -0.00219908 -0.002355859
 -0.002512992 -0.002666052 -0.002815362 -0.002959251 -0.003098888 -0.003235337 -0.003369654 -0.003503388 -0.003637184 -0.003772001
 -0.003908143 -0.004046263 -0.004185441 -0.004325757 -0.004465207 -0.004603212 -0.004739059 -0.004872264 -0.005005025 -0.005137455
 -0.005272029 -0.005408878 -0.005547755 -0.005688536 -0.005829517 -0.005970731 -0.006111496 -0.006252024 -0.006392699 -0.006533676
 -0.006675204 -0.006818102 -0.006963415 -0.007112848 -0.007268644 -0.007432126 -0.007605872 -0.007787589 -0.00797769 -0.008170506
 -0.008364222 -0.008554282 -0.008738577 -0.008918453 -0.009093389 -0.009268573 -0.009444552 -0.009623738 -0.009806301 -0.009988787
 -0.01017096 -0.01034864 -0.0105222 -0.01069172 -0.01085795 -0.01102362 -0.01118911 -0.01135656 -0.0115263 -0.01169963
 -0.01187711 -0.01206022 -0.01224813 -0.0124414 -0.01263676 -0.01283292 -0.01302628 -0.01321483 -0.01339817 -0.01357531
 -0.01374949 -0.01392097 -0.01409325 -0.01426685 -0.01444163 -0.01461759 -0.0147921 -0.01496521 -0.01513681 -0.01530745
 -0.01548062 -0.01565628 -0.01583664 -0.01602012 -0.01620402 -0.01638687 -0.01656444 -0.01673764 -0.01690544 -0.01707032
 -0.01723417 -0.01739798 -0.01756317 -0.01772866 -0.01789424 -0.01805937 -0.01822349 -0.01838843 -0.01855442 -0.01872296
 -0.01889448 -0.01906649 -0.01923888 -0.01940651 -0.01956932 -0.01972512 -0.01987461 -0.02002118 -0.02016567 -0.02031333
 -0.02046381 -0.02061908 -0.02077789 -0.02093899 -0.02110134 -0.02126309 -0.02142401 -0.02158327 -0.02174101 -0.02189706
 -0.02205168 -0.02220515 -0.02235685 -0.02250676 -0.02265391 -0.022798 -0.02293928 -0.02307758 -0.02321546 -0.02335304
 -0.02349361 -0.02363725 -0.02378553 -0.02393824 -0.0240948 -0.02425477 -0.02441633 -0.02457901 -0.02474063 -0.02490101
 -0.02505877 -0.02521395 -0.02536599 -0.02551514 -0.02566141 -0.0258052 -0.02594657 -0.02608641 -0.02622514 -0.02636324
 -0.02650111 -0.02663784 -0.02677343 -0.02690629 -0.02703622 -0.02716241 -0.02728477 -0.027404 -0.02752022 -0.02763544
 -0.02774992 -0.02786631 -0.02798474 -0.02810724 -0.02823359 -0.02836422 -0.02849903 -0.02863776 -0.02878118 -0.02892992
 -0.02908542 -0.02924928 -0.02942201 -0.02960479 -0.02979604 -0.02999559 -0.0302012 -0.03041206 -0.03062757 -0.03084728
 -0.03107275 -0.03130433 -0.03154085 -0.03178243 -0.03202113 -0.03225632 -0.03247605 -0.03268015 -0.03286154 -0.03302098
 -0.03315835 -0.03327346 -0.03336648 -0.03343521 -0.03347611 -0.03348633 -0.03346017 -0.03339782 -0.03329293 -0.03316145
 -0.03300376 -0.03285947 -0.03274329 -0.0326895 -0.03271478 -0.03281662 -0.03300161 -0.03323257 -0.03350828 -0.033775
 -0.03402913 -0.03422739 -0.03436938 -0.03445509 -0.03448907 -0.03450685 -0.03450976 -0.03452288 -0.03454284 -0.03457272
 -0.03461036 -0.03465334 -0.03470015 -0.03474855 -0.03479566 -0.03483796 -0.03487426 -0.03490239 -0.03492364 -0.03493829
 -0.03494645 -0.03494818 -0.03494341 -0.0349315 -0.03491684 -0.03489951 -0.03488692 -0.03487963 -0.0348816 -0.03489282
 -0.03491151 -0.03493731 -0.03496666 -0.03499953 -0.03503405 -0.03507045 -0.03510852 -0.03514812 -0.03518896 -0.03523062
 -0.0352722 -0.03531416 -0.03535649 -0.03539994 -0.03544519 -0.03549205 -0.03554078 -0.03559032 -0.03564023 -0.03569069
 -0.03574159 -0.03579379 -0.03584753 -0.03590174 -0.03595641 -0.03600905 -0.03605963 -0.0361079 -0.03615423 -0.0362017
 -0.03625053 -0.03630359 -0.03636017 -0.03641988 -0.03648153 -0.03654243 -0.03660217 -0.03665875 -0.03671309 -0.03676531
 -0.03681643 -0.03686739 -0.03691787 -0.03696826 -0.03701688 -0.03706323 -0.0371063 -0.0371456 -0.03718185 -0.03721486
 -0.03724743 -0.03727974 -0.03731456 -0.03735197 -0.0373926 -0.03743625 -0.03748142 -0.03752798 -0.0375747 -0.03762168
 -0.03766886 -0.03771584 -0.03776208 -0.03780655 -0.03784728 -0.03788462 -0.03791765 -0.03794872 -0.03797918 -0.03801058
 -0.03804449 -0.03807949 -0.03811571 -0.03815052 -0.03818325 -0.03821313 -0.03823978 -0.03826486 -0.03828839 -0.03831301
 -0.03833885 -0.0383679 -0.03840006 -0.03843519 -0.03847287 -0.03851103 -0.03854949 -0.03858652 -0.03862249 -0.03865734
 -0.03869133 -0.038725 -0.03875791 -0.03879002 -0.03882036 -0.03884842 -0.03887298 -0.03889317 -0.03890885 -0.03891936
 -0.03892685 -0.03893121 -0.03893697 -0.03894465 -0.03895828 -0.03897829 -0.03900576 -0.03904069 -0.03908071 -0.0391255
 -0.03917098 -0.03921679 -0.0392589 -0.03929735 -0.03932982 -0.03935719 -0.03937995 -0.03939968 -0.03941888 -0.03943858
 -0.03946112 -0.03948554 -0.03951224 -0.03953893 -0.03956442 -0.03958792 -0.0396085 -0.0396281 -0.03964686 -0.0396671
 -0.03968929 -0.03971346 -0.03973972 -0.03976646 -0.0397936 -0.03981994 -0.03984547 -0.0398698 -0.03989289 -0.03991428
 -0.03993405 -0.03995189 -0.03996855 -0.03998524 -0.0400032 -0.04002501 -0.04005087 -0.04008251 -0.04011794 -0.04015668
 -0.04019572 -0.04023327 -0.04026831 -0.04029975 -0.0403291 -0.04035643 -0.04038347 -0.0404106 -0.04043787 -0.0404653
 -0.04049256 -0.04051965 -0.0405467 -0.04057375 -0.04060136 -0.04062954 -0.04065864 -0.04068845 -0.04071864 -0.04074866
 -0.04077721 -0.04080387 -0.04082708 -0.04084775 -0.04086594 -0.04088354 -0.04090197 -0.04092237 -0.04094598 -0.04097211
 -0.04100088 -0.04103125 -0.04106295 -0.04109564 -0.04112915 -0.04116383 -0.04119969 -0.04123759 -0.04127758 -0.04131998
 -0.04136458 -0.04140931 -0.0414538 -0.04149468 -0.04153218 -0.04156502 -0.04159429 -0.0416218 -0.04164852 -0.04167676
 -0.04170686 -0.04174004 -0.04177626 -0.04181603 -0.04185871 -0.04190445 -0.04195142 -0.04199903 -0.04204592 -0.04209134
 -0.04213644 -0.04218113 -0.04222808 -0.04227762 -0.04233021 -0.04238588 -0.04244208 -0.04249866 -0.04255302 -0.0426053
 -0.04265491 -0.04270224 -0.04274848 -0.04279371 -0.04283877 -0.04288348 -0.04292779 -0.04297192 -0.04301584 -0.04306046
 -0.04310634 -0.0431546 -0.04320625 -0.04326097 -0.04331917 -0.04337905 -0.04344033 -0.04350103 -0.04356065 -0.04361916
 -0.04367643 -0.04373412 -0.04379233 -0.04385235 -0.04391412 -0.04397738 -0.04404186 -0.04410603 -0.04416965 -0.04423084
 -0.04428998 -0.04434663 -0.04440211 -0.04445824 -0.04451637 -0.04457925 -0.044646 -0.04471744 -0.04479056 -0.04486389
 -0.04493558 -0.04500413 -0.04507108 -0.0451364 -0.04520234 -0.04526944 -0.04533756 -0.04540684 -0.04547514 -0.04554236
 -0.04560758 -0.04567087 -0.04573302 -0.0457942 -0.04585578 -0.04591786 -0.04598149 -0.04604648 -0.04611311 -0.04618063
 -0.04624793 -0.04631443 -0.04637881 -0.04644156 -0.04650252 -0.04656255 -0.04662219 -0.04668151 -0.04674071 -0.04679949
 -0.04685777 -0.04691556 -0.04697292 -0.04702953 -0.04708542 -0.04713963 -0.04719209 -0.04724307 -0.04729266 -0.04734275
 -0.04739332 -0.0474457 -0.04749922 -0.04755224 -0.04760402 -0.04765164 -0.04769549 -0.04773453 -0.04777037 -0.04780439
 -0.04783828 -0.04787412 -0.04791201 -0.04795299 -0.04799514 -0.04803807 -0.0480797 -0.04811922 -0.04815631 -0.04819058
 -0.0482237 -0.04825574 -0.04828877 -0.04832291 -0.04835885 -0.04839654 -0.04843511 -0.04847442 -0.04851296 -0.04855067
 -0.04858661 -0.04862073 -0.04865268 -0.04868193 -0.04870744 -0.0487289 -0.04874507 -0.04875742 -0.04876614 -0.04877451
 -0.04878464 -0.04879813 -0.04881679 -0.04883816 -0.04886226 -0.04888507 -0.0489057 -0.04892272 -0.04893563 -0.04894681
 -0.04895636 -0.04896698 -0.04897865 -0.04899111 -0.04900409 -0.04901538 -0.04902509 -0.04903239 -0.04903778 -0.04904239
 -0.04904614 -0.04904934 -0.04905185 -0.04905313 -0.04905465 -0.04905713 -0.0490629 -0.04907417 -0.04908997 -0.0491112
 -0.04913331 -0.04915518 -0.04917381 -0.04918797 -0.04919969 -0.04920888 -0.04921984 -0.04923288 -0.04924995 -0.04927092
 -0.04929352 -0.04931729 -0.0493378 -0.0493551 -0.0493666 -0.04937332 -0.04937647 -0.04937714 -0.04937794 -0.04937919
 -0.0493825 -0.04938733 -0.04939397 -0.04940121 -0.04940871 -0.04941442 -0.04941726 -0.04941666 -0.04941177 -0.04940508
 -0.04939681 -0.04938962 -0.04938408 -0.04937904 -0.04937449 -0.04936692 -0.04935621 -0.04934082 -0.049321 -0.04929796
 -0.04927221 -0.04924653 -0.04922116 -0.04919843 -0.04917769 -0.04915906 -0.04914114 -0.04912197 -0.04910108 -0.0490771
 -0.0490508 -0.04902248 -0.04899209 -0.04895975 -0.04892487 -0.04888685 -0.04884772 -0.0488075 -0.04876966 -0.04873483
 -0.04870302 -0.04867436 -0.04864567 -0.04861689 -0.04858698 -0.04855628 -0.04852706 -0.04849945 -0.04847562 -0.04845473
 -0.04843588 -0.04841762 -0.0483967 -0.04837235 -0.0483418 -0.04830615 -0.0482651 -0.04822075 -0.04817447 -0.0481271
 -0.04807945 -0.04803118 -0.04798216 -0.04793306 -0.04788395 -0.04783582 -0.04778901 -0.0477416 -0.04769353 -0.0476411
 -0.04758424 -0.04752207 -0.04745513 -0.04738759 -0.04731987 -0.04725661 -0.04719653 -0.04713912 -0.0470813 -0.04701644
 -0.0469436 -0.04685735 -0.04676197 -0.04665893 -0.04655381 -0.04645133 -0.04635234 -0.04625871 -0.04616857 -0.04608139
 -0.04599719 -0.04591595 -0.04583751 -0.04576217 -0.04568616 -0.04560925 -0.04552736 -0.04544039 -0.0453481 -0.04525077
 -0.04515068 -0.04504798 -0.04494451 -0.04484012 -0.04473551 -0.0446301 -0.04452308 -0.04441395 -0.04430129 -0.04418607
 -0.0440686 -0.04395004 -0.04383172 -0.04371257 -0.04359249 -0.04347035 -0.04334532 -0.04321911 -0.04309205 -0.04296475
 -0.04283783 -0.0427063 -0.04256983 -0.04242351 -0.04226725 -0.04210302 -0.04193123 -0.04175683 -0.0415792 -0.04139842
 -0.04121296 -0.04101794 -0.04081318 -0.04059504 -0.0403665 -0.04012978 -0.03988871 -0.03964861 -0.0394092 -0.03917287
 -0.03893513 -0.03869421 -0.03844799 -0.03819446 -0.03793766 -0.03767791 -0.03741997 -0.03716506 -0.03691101 -0.03665805
 -0.03639746 -0.03612877 -0.03584212 -0.03553776 -0.03521352 -0.03487138 -0.03452 -0.03416073 -0.03380346 -0.0334455
 -0.0330868 -0.03272247 -0.03234516 -0.03195247 -0.03153895 -0.03110494 -0.0306495 -0.03017181 -0.02967198 -0.02914682
 -0.02859633 -0.02801352 -0.02739754 -0.02673936 -0.02603677 -0.02529171 -0.02450341 -0.02369016 -0.0228528 -0.02200553
 -0.02114744 -0.02027375 -0.01938432 -0.01847476 -0.01754834 -0.01661523 -0.01567346 -0.01472749 -0.0137647 -0.01276697
 -0.0117291 -0.01063208 -0.009497252 -0.008331507 -0.007159995 -0.006001267 -0.004851342 -0.003715318 -0.002574004 -0.001422875
 -0.0002557765 0.0009289663 0.002130739 0.003348568 0.004601779 0.005891607 0.007254782 0.008690169 0.01020308 0.01178352
 0.01338045 0.0149889 0.01656044 0.01810923 0.01964087 0.02117326 0.02273764 0.02433961 0.02599498 0.02770917
 0.0294825 0.03134638 0.03330887 0.03542145 0.03770574 0.0401826 0.0428702 0.04571769 0.04872632 0.05180183
 0.05493673 0.05805558 0.06115465 0.0642077 0.06721913 0.07022202 0.07323184 0.07634626 0.07958117 0.08305491
 0.08674019 0.09065423 0.09471601 0.09879831 0.1028725 0.1068333 0.110762 0.1146783 0.118675 0.1228157
 0.1271095 0.1315799 0.136186 0.1409199 0.1457659 0.1507225 0.1557667 0.1608988 0.1660594 0.1712455
 0.1764345 0.1816258 0.1868169 0.1919895 0.197041 0.20195 0.2065694 0.210936 0.2150463 0.2189783
 0.2228717 0.2267261 0.2306251 0.2344524 0.2381343 0.2416263 0.2448571 0.2479274 0.2508633 0.2537176
 0.2565264 0.2592023 0.2617395 0.2640434 0.2661006 0.2679181 0.2694957 0.2708787 0.272066 0.2730556
 0.2738429 0.2743961 0.2747218 0.2748223 0.2747147 0.274437 0.2740076 0.273467 0.2728401 0.2721626
 0.271472 0.2708023 0.2701948 0.2696761 0.2692829 0.2690314 0.2689524 0.2690577 0.2693554 0.2698523
 0.2705177 0.2713504 0.2723129 0.2734033 0.2746169 0.2759545 0.2774272 0.2790334 0.280769 0.282631
 0.2846056 0.2866941 0.2888925 0.2912045 0.2936338 0.2961852 0.2988629 0.3016767 0.3046328 0.3077463
 0.3110253 0.3144853 0.3181338 0.3219799 0.3260285 0.3302768 0.3347262 0.3393658 0.3441959 0.3491974
 0.3543695 0.3596668 0.3650873 0.3705842 0.3761679 0.381876 0.3877278 0.3938352 0.4001625 0.4067117
 0.4133617 0.4199194 0.4262729 0.432229 0.43769 0.4425615 0.4466379 0.4498048 0.4518443 0.4526306
 0.4521273 0.4503008 0.4471638 0.4427175 0.4369258 0.4297586 0.4215304 0.4122529 0.4027447 0.3930348
 0.3837048 0.3747091 0.3660363 0.3576421 0.3493457 0.3411598 0.3330272 0.3249722 0.3170251 0.3091637
 0.3013844 0.2936332 0.2858399 0.2780524 0.2702323 0.2626027 0.2552421 0.2483037 0.2418762 0.2358496
 0.2302293 0.2248293 0.2196255 0.214559 0.2096241 0.2048651 0.2002836 0.1959084 0.1917365 0.1877576
 0.1839736 0.1803867 0.1770003 0.1738338 0.1708652 0.1680801 0.1654169 0.1628036 0.1601693 0.1574263
 0.1545492 0.1514896 0.1482827 0.1449274 0.1414732 0.1379288 0.1343469 0.1307241 0.1271936 0.1237627
 0.1206143 0.1177624 0.1152293 0.1130053 0.1109119 0.1089314 0.1068513 0.1046765 0.1023033 0.09976953
 0.09711543 0.09438643 0.09168102 0.08902927 0.08650248 0.0841293 0.08195226 0.08000372 0.07831411 0.07690044
 0.0757775 0.07494657 0.07440909 0.07417176 0.07423449 0.07461277 0.07530853 0.07633106 0.07768154 0.07935058
 0.08133457 0.08357286 0.08604765 0.08860681 0.09122527 0.093715 0.09607255 0.09818912 0.1000828 0.1017348
 0.1031687 0.104398 0.105467 0.1064033 0.1072884 0.1081715 0.1091323 0.110227 0.1114493 0.1128234
 0.1142493 0.1157112 0.1171432 0.1185299 0.1199044 0.121267 0.1226847 0.1241599 0.1257335 0.1274048
 0.1291837 0.1310714 0.1330726 0.1352009 0.1374875 0.1399645 0.1427017 0.1457348 0.1491404 0.152932
 0.1571452 0.1617889 0.166867 0.1724241 0.1784794 0.1850674 0.1922207 0.1998609 0.2079947 0.2164469
 0.2251979 0.2341252 0.2432174 0.2524595 0.2618476 0.2713182 0.2808388 0.2901353 0.2991521 0.3075022
 0.3151549 0.3218335 0.3275176 0.3320595 0.3354023 0.3374157 0.3380499 0.337189 0.3348939 0.3311322
 0.3260976 0.3198366 0.3126086 0.3044792 0.2957102 0.2863508 0.2766375 0.2665968 0.2564551 0.2462274
 0.2361546 0.2262486 0.2167104 0.2075391 0.1988162 0.1905312 0.182676 0.1752535 0.1682642 0.1617245
 0.1556717 0.1501029 0.1450405 0.1404446 0.1362953 0.1325304 0.1291131 0.1259701 0.1230692 0.1203297
 0.1177246 0.1151879 0.1126997 0.1102379 0.1077945 0.1053876 0.103017 0.1007212 0.09850311 0.09642584
 0.09449706 0.09281075 0.09137172 0.09026109 0.08946027 0.08896981 0.08873989 0.088681 0.08873168 0.08877189
 0.08875795 0.08860119 0.08829674 0.08780859 0.08716982 0.08638271 0.08549173 0.08451089 0.08346972 0.08237728
 0.08124477 0.08007506 0.07886998 0.0776299 0.07635467 0.07504441 0.07370325 0.07233205 0.07094049 0.06952891
 0.06810467 0.06666642 0.06521276 0.0637452 0.06226186 0.06077565 0.05929768 0.05785678 0.0564794 0.05520394
 0.05406199 0.05308397 0.05229397 0.0516976 0.05130581 0.05109658 0.0510709 0.05118795 0.05144516 0.05178951
 0.05221777 0.05266877 0.05313924 0.05357263 0.05396787 0.05429088 0.05454499 0.05472688 0.05484324 0.05491284
 0.05494025 0.05494694 0.05492683 0.0548851 0.05480094 0.05465893 0.054432 0.05409671 0.05363703 0.05303619
 0.052301 0.0514254 0.0504404 0.04934702 0.04819589 0.04699133 0.04579223 0.04460316 0.04347547 0.04241174
 0.04144512 0.04057576 0.03981819 0.03917068 0.03863359 0.03820308 0.0378691 0.03762491 0.03745322 0.03734468
 0.03727913 0.0372481 0.03723451 0.03723767 0.03724947 0.03728026 0.03733155 0.0374175 0.03754359 0.03771662
 0.03794045 0.03820955 0.03852484 0.03887099 0.03924735 0.03963285 0.04002634 0.0404071 0.04077442 0.04111369
 0.04142504 0.0417015 0.0419437 0.04215001 0.042321 0.04245687 0.04255859 0.04262683 0.04266485 0.04267482
 0.04266383 0.04263654 0.04260151 0.04256414 0.04252963 0.04250143 0.04247937 0.04246433 0.04245339 0.04244643
 0.04243957 0.04243246 0.04242213 0.04240847 0.04239305 0.04237628 0.04236418 0.04235599 0.04235263 0.04234926
 0.04233216 0.04229299 0.04220646 0.04206739 0.04185425 0.04157293 0.04121796 0.04080769 0.04035117 0.03987128
 0.03938112 0.03889763 0.03842974 0.03798479 0.03756649 0.03717491 0.03681099 0.03647035 0.03615286 0.03585225
 0.03556818 0.03529513 0.0350327 0.03477503 0.03452081 0.03426024 0.03399095 0.03369974 0.03338501 0.03303588
 0.03265378 0.03223442 0.03178473 0.03130736 0.03081832 0.03032607 0.0298567 0.02942238 0.02905302 0.02875994
 0.02856926 0.02848774 0.02853828 0.02872397 0.02906967 0.02957763 0.0302705 0.03114958 0.03221685 0.03346921
 0.03487103 0.03641322 0.03802686 0.03970119 0.04136153 0.04300407 0.04457999 0.04609857 0.04755012 0.0489535
 0.05032611 0.0516822 0.05304276 0.05440018 0.05576241 0.05709584 0.0583933 0.05961541 0.06074938 0.06178107
 0.06270269 0.06353806 0.06428676 0.0649957 0.06566744 0.06634941 0.06704386 0.06779054 0.06859178 0.06948169
 0.07046203 0.07155878 0.07276925 0.07410254 0.07554891 0.07709885 0.07873773 0.08044696 0.0822113 0.08401423
 0.08584223 0.08768427 0.08953111 0.09137601 0.09321874 0.09505627 0.09689969 0.09874944 0.1006213 0.1025171
 0.1044437 0.1064016 0.1083778 0.1103703 0.1123459 0.1143004 0.1161902 0.1180105 0.1197204 0.121318
 0.1227766 0.1241016 0.1252864 0.1263469 0.1272942 0.1281551 0.1289494 0.129712 0.1304635 0.1312401
 0.1320593 0.1329457 0.1339116 0.1349558 0.1360838 0.1372645 0.1384975 0.1397332 0.1409687 0.1421536
 0.1432863 0.1443323 0.1452934 0.1461613 0.1469423 0.1476539 0.1483047 0.1489244 0.1495192 0.1501141
 0.1507087 0.1513154 0.1519227 0.1525309 0.1531109 0.1536536 0.1541118 0.1544698 0.1546779 0.1547192
 0.1545688 0.1542158 0.1536765 0.1529483 0.1520822 0.1510807 0.1500097 0.1488727 0.1477341 0.1465972
 0.1455154 0.1444908 0.1435602 0.1427228 0.1419966 0.1413761 0.1408629 0.1404422 0.1401027 0.1398137
 0.1395539 0.1392744 0.1389478 0.138518 0.1379585 0.1372281 0.1363076 0.1351926 0.1338743 0.1323915
 0.1307444 0.1289993 0.1271598 0.1252917 0.1233976 0.1215232 0.1196688 0.1178594 0.1160938 0.1143814
 0.1127198 0.1111075 0.1095424 0.1080194 0.1065404 0.1051056 0.1037176 0.1023829 0.1010889 0.09983932
 0.09858949 0.09733251 0.09599274 0.09455433 0.09293447 0.09111643 0.08904337 0.08670442 0.0840944 0.0812109
 0.07810904 0.07479442 0.07137258 0.06785429 0.06436614 0.06091815 0.05761912 0.05447262 0.05154441 0.04883119
 0.04635768 0.04411737 0.04211294 0.04033511 0.03878006 0.03742963 0.03627768 0.03529067 0.03445977 0.03373568
 0.0331077 0.03251908 0.03195955 0.03138006 0.0307734 0.03011286 0.02939568 0.02862125 0.02779015 0.02691718
 0.02600338 0.02506341 0.0240972 0.02311192 0.02210769 0.02108764 0.02005405 0.0190119 0.01796496 0.01692003
 0.01588005 0.01485064 0.01383113 0.01282419 0.01182311 0.01082717 0.009824885 0.008812499 0.007783788 0.006734831
 0.005676772 0.004608719 0.003558425 0.00252746 0.001546106 0.0006155648 -0.000245446 -0.001037537 -0.001756427 -0.002404316
 -0.002987839 -0.00350992 -0.003981912 -0.004406062 -0.004792239 -0.005140641 -0.005455452 -0.005736451 -0.005983551 -0.006200619
 -0.006388234 -0.006555875 -0.00670752 -0.006850843 -0.00699141 -0.007120954 -0.007241969 -0.007325812 -0.007370477 -0.007342274
 -0.007238217 -0.007044902 -0.006762824 -0.006413156 -0.006001347 -0.005579316 -0.005156252 -0.004799561 -0.004518066 -0.004373323
 -0.00436579 -0.004530053 -0.004850118 -0.005324506 -0.005920791 -0.006612447 -0.007361524 -0.008137878 -0.008911265 -0.009661734
 -0.01037113 -0.01103057 -0.01162897 -0.01216275 -0.01262575 -0.01301618 -0.01333659 -0.0135867 -0.01377745 -0.01390937
 -0.01399169 -0.01402407 -0.0140068 -0.01393971 -0.01382045 -0.01365259 -0.01344342 -0.01320113 -0.01294497 -0.01268241
 -0.01243384 -0.01219736 -0.01198178 -0.01177264 -0.01156472 -0.01134059 -0.01108943 -0.010807 -0.0104869 -0.01014313
 -0.009776026 -0.009406449 -0.009037021 -0.008682728 -0.008344803 -0.008035059 -0.007754389 -0.0075229 -0.007342142 -0.007236377
 -0.007203704 -0.007251111 -0.007368985 -0.007534233 -0.007733462 -0.007928693 -0.008110495 -0.008249418 -0.008341742 -0.008373545
 -0.008343861 -0.008247415 -0.008086932 -0.007861221 -0.007577797 -0.007238453 -0.006850142 -0.006414652 -0.005935645 -0.005413005
 -0.004855662 -0.004263387 -0.003661542 -0.003051775 -0.002473027 -0.001927432 -0.0014515 -0.001044566 -0.000724267 -0.0004853728
 -0.0003225712 -0.0002275369 -0.0001813493 -0.0001757254 -0.0001913617 -0.0002214321 -0.0002525885 -0.0002799417 -0.0002956324 -0.0002994939
 -0.0002881886 -0.0002682308 -0.0002406079 -0.0002126551 -0.0001871512 -0.0001626159 -0.0001404669 -0.0001073266 -6.254242E-05 1.086038E-05
 0.000113609 0.0002517726 0.0004235222 0.0006136494 0.0008176063 0.001004503 0.001170559 0.001286708 0.001353748 0.001357384
 0.001305038 0.001198637 0.001053346 0.0008823424 0.0007066253 0.0005439157 0.0004113778 0.000323203 0.0002825268 0.0002953112
 0.0003514701 0.0004509245 0.0005785442 0.0007325016 0.0008995233 0.001078162 0.001262014 0.001450847 0.001651116 0.001864139
 0.002106606 0.002379338 0.002696699 0.00305583 0.00345648 0.00389207 0.004348823 0.004820028 0.005289434 0.005753598
 0.006202683 0.00663631 0.007051634 0.007447941 0.007825346 0.008179076 0.008508822 0.008805183 0.00906623 0.009283916
 0.009456088 0.009583788 0.009666323 0.009715249 0.009731188 0.009728306 0.009707172 0.009678184 0.00964204 0.009607688
 0.009576266 0.009556588 0.009548809 0.009557594 0.009582585 0.009624093 0.009685006 0.009767602 0.009877106 0.01001886
 0.01019361 0.01040427 0.01064578 0.01091701 0.01121396 0.01153578 0.01187884 0.01224398 0.01261675 0.01299708
 0.01335599 0.01369188 0.01397199 0.0141954 0.01434042 0.01440926 0.01440107 0.01432246 0.0141935 0.01402414
 0.01384588 0.01366797 0.013519 0.01340327 0.01333676 0.01331882 0.01335374 0.01344021 0.01357799 0.01376832
 0.01401205 0.01430807 0.01465771 0.01505149 0.01548865 0.0159579 0.0164577 0.01698688 0.0175453 0.01813809
 0.0187649 0.01942347 0.02011167 0.02081659 0.02153484 0.02224902 0.02295393 0.0236307 0.02427125 0.02485573
 0.02537462 0.02581025 0.02615536 0.02639759 0.02653759 0.02656871 0.02650768 0.02635391 0.02614382 0.02588222
 0.02561661 0.02535393 0.02513532 0.02496577 0.02486739 0.02484173 0.02489002 0.02501141 0.02519395 0.02543659
 0.02572676 0.02606488 0.02644567 0.02687059 0.02734114 0.02785674 0.02842039 0.02902172 0.02965363 0.03029628
 0.03092773 0.03154808 0.03213768 0.0327535 0.03340156 0.03417533 0.03511038 0.03620893 0.03749407 0.03881492
 0.04015771 0.04142257 0.04260217 0.04372329 0.04478656 0.04581116 0.04678748 0.04766406 0.0484286 0.04900609
 0.04939496 0.04955222 0.04948573 0.04918646 0.04867122 0.04795031 0.04705534 0.0460077 0.04485461 0.04362022
 0.04236372 0.04110759 0.03991195 0.03879523 0.03779984 0.03693747 0.03621826 0.03564657 0.03519922 0.03487542
 0.0346284 0.03445495 0.03429941 0.03415876 0.03398465 0.03377776 0.03351219 0.03319611 0.03283397 0.03244049
 0.03204377 0.03165247 0.03129314 0.03095354 0.03063559 0.03031636 0.02998089 0.02962249 0.02923236 0.02882132
 0.02838929 0.02795217 0.02751066 0.02709036 0.02669274 0.02635279 0.02607292 0.02587122 0.025747 0.0256867
 0.02568857 0.02573255 0.02582132 0.02595457 0.02613665 0.02638033 0.02668418 0.02705447 0.02748043 0.02795491
 0.02845817 0.02897493 0.02947886 0.02995279 0.03037201 0.0307226 0.03099149 0.03117048 0.03126443 0.03127027
 0.03121238 0.03109124 0.03094677 0.03078131 0.03063549 0.03051057 0.03042875 0.03038824 0.03038748 0.03042355
 0.03048362 0.03056652 0.03066231 0.03077181 0.03089075 0.03102345 0.03117058 0.03134513 0.03155561 0.03182133
 0.03215748 0.0325714 0.03307459 0.03364771 0.03429168 0.03496936 0.03567547 0.03637528 0.03706427 0.03772039
 0.03834164 0.03892273 0.03946424 0.03997981 0.0404713 0.04096062 0.04144584 0.04193264 0.04241322 0.04286941
 0.04329504 0.04366832 0.04399178 0.04425988 0.04447644 0.04464733 0.04476125 0.04481928 0.04478936 0.04466118
 0.04440053 0.04399347 0.04343084 0.04270563 0.04183734 0.04082663 0.03969774 0.0384524 0.03710645 0.03566097
 0.03413503 0.03253113 0.03087689 0.02917534 0.0274517 0.02571261 0.02398401 0.02228357 0.02065329 0.01911507
 0.0177186 0.01646519 0.01538158 0.01443566 0.01362018 0.01289045 0.01222485 0.01159801 0.01099605 0.01041871
 0.009864219 0.00933342 0.008827955 0.008329683 0.007837572 0.00733303 0.006815743</values></Ydata></AB><ScSm><Ydata ylabel="Single channel"><values byteorder="INTEL" format="FLOAT32" numvalues="1814"> 0.07848663 0.07859336 0.07871528 0.0788576 0.07901293 0.07916711 0.07930902 0.07943667 0.07955375 0.07966103
 0.07975858 0.07985739 0.07997699 0.08012551 0.08028858 0.08044036 0.08056358 0.08066399 0.08076979 0.0809054
 0.08105712 0.08117332 0.08120999 0.08117694 0.08113367 0.08113664 0.08120195 0.08133388 0.08155948 0.08187123
 0.08214568 0.08222155 0.08209828 0.08196902 0.08200608 0.08218768 0.08237377 0.08246347 0.08243572 0.08233666
 0.08230146 0.08251378 0.08304033 0.08369185 0.08407916 0.08383688 0.08286634 0.08147092 0.08028799 0.07995862
 0.08066628 0.08193479 0.08298114 0.08334723 0.08315569 0.08278482 0.08247136 0.08229361 0.0823438 0.08271737
 0.08335436 0.08397483 0.08418677 0.08373931 0.08280191 0.0819435 0.08167426 0.08204737 0.08281858 0.08374973
 0.08439967 0.08389258 0.08167372 0.07869916 0.07717024 0.07851292 0.08188929 0.08507185 0.08648086 0.0860399
 0.08454971 0.08296411 0.08213545 0.08252521 0.0839015 0.08557263 0.08694455 0.08769281 0.08761414 0.08670953
 0.08538038 0.08426675 0.08389083 0.08450162 0.08597686 0.08767197 0.08867005 0.08850068 0.08749529 0.08634756
 0.08559476 0.08558483 0.08650345 0.08816105 0.09000372 0.09152373 0.09253013 0.09304082 0.0931522 0.09301767
 0.09277578 0.0925305 0.092454 0.092701 0.09311038 0.09323311 0.09282844 0.09218761 0.09184182 0.09201634
 0.09243581 0.09265919 0.09252003 0.0920563 0.0910631 0.08918113 0.08662082 0.08429456 0.08293137 0.08255464
 0.08304738 0.08447559 0.0864049 0.08766346 0.08750468 0.08660533 0.08633825 0.08728994 0.0888816 0.09023453
 0.09103195 0.09158681 0.09233961 0.09335472 0.09417623 0.09415381 0.09309839 0.09171009 0.09112073 0.09180294
 0.09311178 0.09408778 0.09447534 0.09471741 0.09516728 0.0955758 0.09530519 0.09400605 0.09219842 0.0911051
 0.09165045 0.0935486 0.09543967 0.09592105 0.09454888 0.09207983 0.08983116 0.08873183 0.08894804 0.09024468
 0.09232216 0.09469377 0.09660545 0.09740956 0.09701091 0.09585443 0.09444086 0.09286472 0.090977 0.08908889
 0.08817425 0.08896717 0.09102 0.09305023 0.09412618 0.09419648 0.09357876 0.09233181 0.09031996 0.08783455
 0.08588622 0.08547057 0.08644752 0.08755321 0.08774315 0.08717312 0.08664528 0.08649707 0.08640264 0.0860384
 0.08555537 0.08535397 0.08557434 0.08592825 0.08601409 0.08569589 0.08513765 0.08456488 0.08405037 0.08347635
 0.08271506 0.08190882 0.0814669 0.08163761 0.08217603 0.08258998 0.08262689 0.08237684 0.0819808 0.08139544
 0.08047684 0.07926927 0.07815005 0.07756713 0.07760394 0.07791434 0.07809359 0.07798216 0.07762446 0.07711671
 0.07654503 0.0759638 0.07540064 0.07490785 0.07455574 0.07433556 0.07413454 0.07384592 0.07345293 0.0729898
 0.07247723 0.07192033 0.07134315 0.07080212 0.07035395 0.07000872 0.0697277 0.06946531 0.0691881 0.06886141
 0.06846169 0.0680075 0.06754727 0.06711449 0.06671579 0.066353 0.06603195 0.06574842 0.0654797 0.06519752
 0.06488921 0.06456158 0.06422377 0.06387694 0.06352542 0.06318556 0.06287618 0.06260447 0.06236011 0.0621224
 0.06188289 0.06165751 0.06145837 0.06126006 0.06102126 0.06073721 0.06044586 0.06018541 0.05996455 0.05976808
 0.05957311 0.05935945 0.05911559 0.05884467 0.05857168 0.05833766 0.05817155 0.05806834 0.05800184 0.05794658
 0.05787872 0.05777743 0.05764266 0.0574967 0.05735745 0.05722297 0.05708563 0.05694849 0.05682657 0.05673716
 0.05668397 0.0566489 0.05660612 0.05654256 0.05646169 0.05637864 0.05631544 0.05628256 0.05625975 0.05621422
 0.05614255 0.05607551 0.05603793 0.05602049 0.05599605 0.05595195 0.05590106 0.05586579 0.05585558 0.05586088
 0.05586738 0.05587115 0.05587924 0.05589722 0.05591656 0.05591606 0.05588278 0.05582987 0.05578512 0.05576359
 0.05576105 0.05577015 0.05578962 0.05581652 0.05584018 0.05584874 0.05583999 0.05582348 0.05581015 0.05579938
 0.0557798 0.0557435 0.05569498 0.05564459 0.05559753 0.05555026 0.05549585 0.05543163 0.05536085 0.05528587
 0.05520326 0.05510844 0.05500204 0.05488873 0.05477428 0.05466585 0.05456804 0.05447452 0.05436835 0.05423664
 0.05408382 0.05392797 0.05378497 0.05365736 0.05353773 0.05341946 0.05330177 0.05318643 0.05307546 0.05297203
 0.05287913 0.05279588 0.05271937 0.05265172 0.05260054 0.05256946 0.05255104 0.05253251 0.05250823 0.05248349
 0.05246666 0.05246066 0.05246317 0.0524722 0.05248946 0.05251791 0.05255612 0.05259632 0.05263147 0.05266378
 0.05270222 0.05275163 0.05281033 0.05287775 0.05295596 0.05304186 0.05312658 0.05320719 0.05329153 0.05338738
 0.05349284 0.0536015 0.05371246 0.05383009 0.05395757 0.05409476 0.05424074 0.05439597 0.0545624 0.05474142
 0.05493094 0.05512448 0.05531597 0.0555065 0.05570415 0.0559157 0.05613975 0.05636914 0.05659891 0.05682983
 0.05706498 0.05730541 0.05755023 0.0577996 0.058056 0.05832214 0.05859808 0.05888019 0.05916329 0.05944437
 0.05972422 0.06000576 0.06029118 0.06058095 0.06087467 0.06117173 0.06147031 0.06176648 0.06205585 0.06233776
 0.06261715 0.06290066 0.06319113 0.06348562 0.06377669 0.06405669 0.06432458 0.06458911 0.06486104 0.06514058
 0.06541668 0.0656803 0.065935 0.06619181 0.06645588 0.06672169 0.06698152 0.06723557 0.06749106 0.06775253
 0.0680161 0.06827508 0.06852856 0.06878282 0.06904492 0.06931719 0.06959888 0.06989037 0.07019219 0.07050067
 0.07080946 0.07111682 0.07142727 0.07174422 0.07206538 0.07238667 0.07270728 0.07303013 0.07335904 0.07369417
 0.07402919 0.07435622 0.07467565 0.07499769 0.07533257 0.07568304 0.07604696 0.07642095 0.07679778 0.07716551
 0.07751676 0.07785781 0.07820116 0.07854572 0.07887143 0.07915971 0.07941478 0.07965703 0.07990205 0.08015705
 0.08043256 0.08074286 0.08109262 0.0814715 0.08186191 0.08224781 0.08262117 0.08298717 0.08335952 0.08374383
 0.08412892 0.08449827 0.08484749 0.08518707 0.08552996 0.08587839 0.08622041 0.08653668 0.08680993 0.08702697
 0.08717404 0.08723731 0.08721156 0.08710371 0.08692195 0.08666335 0.08631626 0.08587351 0.08533843 0.08471736
 0.08401318 0.08323281 0.0824039 0.08158315 0.08084717 0.08027304 0.07992306 0.07983835 0.08003536 0.08049794
 0.08116812 0.08194623 0.08270745 0.08332989 0.0837231 0.08384618 0.08371026 0.08336628 0.08288598 0.08234474
 0.08180903 0.08132616 0.08092187 0.08061534 0.08044515 0.08047907 0.08079384 0.0814469 0.0824675 0.08385599
 0.08556399 0.08746962 0.0893968 0.09118646 0.09276267 0.09413655 0.09536014 0.09648289 0.09753782 0.09854218
 0.09949789 0.1003944 0.1012182 0.1019596 0.1026103 0.103157 0.103582 0.1038732 0.104035 0.1040957
 0.1041063 0.1041347 0.1042567 0.1045363 0.1049966 0.105598 0.1062468 0.1068359 0.1072881 0.1075774
 0.107734 0.1078517 0.1080979 0.1086906 0.1098127 0.1114976 0.1135812 0.1157803 0.1178394 0.1196247
 0.1211193 0.1223671 0.1234281 0.1243556 0.1251864 0.1259441 0.1266474 0.1273139 0.1279586 0.1285906
 0.1292145 0.1298315 0.1304416 0.131046 0.1316463 0.1322424 0.1328343 0.1334238 0.1340143 0.134607
 0.1351987 0.1357844 0.1363627 0.1369368 0.1375114 0.1380873 0.1386622 0.139235 0.1398068 0.1403787
 0.1409502 0.1415182 0.1420777 0.1426234 0.1431529 0.1436694 0.144179 0.1446859 0.1451893 0.1456845
 0.1461677 0.1466384 0.1470979 0.1475473 0.1479883 0.1484239 0.148856 0.1492832 0.1497023 0.1501134
 0.1505202 0.1509262 0.1513318 0.1517363 0.1521407 0.1525479 0.1529602 0.1533796 0.1538071 0.1542418
 0.1546801 0.1551175 0.1555515 0.155983 0.156414 0.1568454 0.1572775 0.1577114 0.158148 0.1585865
 0.1590261 0.1594677 0.159911 0.1603525 0.1607881 0.1612179 0.1616453 0.1620724 0.1624991 0.1629257
 0.1633546 0.1637866 0.1642181 0.1646429 0.1650571 0.1654606 0.1658564 0.166249 0.1666416 0.1670345
 0.1674277 0.1678225 0.1682199 0.1686181 0.1690144 0.1694071 0.169795 0.1701777 0.1705584 0.1709426
 0.1713327 0.171727 0.1721232 0.1725192 0.1729122 0.1732999 0.1736831 0.1740638 0.174444 0.1748259
 0.1752113 0.1755994 0.1759872 0.1763718 0.1767516 0.1771274 0.1774997 0.1778684 0.1782354 0.1786069
 0.1789879 0.1793771 0.1797692 0.180161 0.1805509 0.1809376 0.1813213 0.1817042 0.1820894 0.1824792
 0.1828737 0.1832699 0.1836633 0.1840523 0.1844373 0.184819 0.1852006 0.1855871 0.1859785 0.1863686
 0.1867523 0.1871284 0.187497 0.1878598 0.1882221 0.1885895 0.1889624 0.1893367 0.1897089 0.1900789
 0.1904495 0.1908226 0.1911956 0.1915647 0.1919304 0.1922958 0.1926637 0.1930367 0.1934169 0.1938019
 0.1941871 0.1945719 0.1949557 0.1953344 0.1957068 0.1960792 0.1964586 0.1968457 0.1972358 0.1976234
 0.1980059 0.1983869 0.1987716 0.1991597 0.1995498 0.1999447 0.2003466 0.2007517 0.2011599 0.2015773
 0.2020053 0.2024365 0.2028638 0.2032865 0.2037067 0.2041281 0.204553 0.204979 0.2054041 0.2058327
 0.2062681 0.2067058 0.2071417 0.2075766 0.2080098 0.2084388 0.2088661 0.2092958 0.209728 0.2101622
 0.2105982 0.2110319 0.2114611 0.2118909 0.2123237 0.2127539 0.2131799 0.2136076 0.2140389 0.2144707
 0.2149024 0.215332 0.2157552 0.2161755 0.2166025 0.217038 0.2174779 0.2179217 0.2183669 0.2188065
 0.2192402 0.2196727 0.2201016 0.2205249 0.2209492 0.2213759 0.2217956 0.2222047 0.222606 0.2229915
 0.2233391 0.2235962 0.2236154 0.2230827 0.2214755 0.2180743 0.2121064 0.2030589 0.1909953 0.1766391
 0.1611649 0.1458263 0.1316178 0.1191492 0.1087351 0.1005318 0.09462766 0.09112461 0.09020542 0.0922268
 0.09784848 0.107658 0.1207387 0.1333926 0.1404895 0.1393417 0.1321414 0.1239681 0.1186313 0.1167697
 0.1171166 0.1184094 0.1201416 0.1224223 0.1255508 0.1295748 0.1342374 0.139408 0.1453427 0.1523035
 0.1600525 0.1679331 0.1754215 0.1824744 0.1893385 0.1961307 0.2026667 0.208637 0.2138473 0.218288
 0.2220716 0.2253567 0.2282864 0.2309561 0.2334244 0.2357196 0.2378024 0.2395482 0.2408154 0.2415546
 0.2418661 0.2419566 0.2420259 0.2421794 0.2424354 0.2427847 0.2432189 0.2437246 0.2442896 0.2449064
 0.245561 0.2462307 0.2468998 0.2475594 0.2481958 0.2487974 0.2493649 0.2499052 0.250422 0.2509177
 0.2513941 0.2518504 0.25229 0.2527215 0.2531497 0.2535739 0.253994 0.2544098 0.254814 0.2551968
 0.255554 0.255887 0.2562026 0.2565124 0.256824 0.2571359 0.2574453 0.2577541 0.2580628 0.2583689
 0.2586711 0.2589687 0.2592608 0.2595502 0.2598419 0.260135 0.2604239 0.2607094 0.2609966 0.2612866
 0.2615778 0.2618707 0.2621638 0.2624534 0.2627386 0.2630232 0.2633142 0.2636205 0.2639456 0.2642805
 0.2646119 0.2649375 0.2652642 0.2655944 0.2659255 0.2662571 0.2665905 0.2669262 0.2672639 0.2676004
 0.2679262 0.2682316 0.2685161 0.2687888 0.2690622 0.2693466 0.2696443 0.2699498 0.2702592 0.2705746
 0.2708971 0.2712203 0.2715379 0.2718503 0.2721643 0.2724898 0.2728343 0.2731958 0.2735637 0.2739312
 0.2742991 0.2746697 0.2750441 0.2754247 0.2758107 0.2761937 0.2765651 0.2769283 0.2773009 0.2777019
 0.2781351 0.2785823 0.2790183 0.2794337 0.2798383 0.2802482 0.2806744 0.2811121 0.2815324 0.2819034
 0.2822344 0.2825844 0.2830075 0.2835016 0.2840199 0.2845192 0.2849874 0.2854345 0.2858711 0.286296
 0.2866983 0.2870716 0.2874297 0.2878104 0.2882503 0.2887475 0.2892578 0.2897374 0.2901762 0.2905858
 0.2909797 0.2913707 0.2917539 0.2920855 0.2923252 0.2925209 0.2928061 0.2932745 0.2938784 0.2944781
 0.2949817 0.2954065 0.2958111 0.2962185 0.2966157 0.2969676 0.2971944 0.2972153 0.2970985 0.2971056
 0.2974805 0.2982055 0.2990355 0.2997441 0.3002716 0.3006728 0.3010182 0.3013488 0.3016511 0.3018535
 0.3019024 0.3018804 0.302 0.3024091 0.3030227 0.3036152 0.3040584 0.3043969 0.3047219 0.305067
 0.3053926 0.3055709 0.3054401 0.3050236 0.3046833 0.304888 0.305759 0.3069302 0.3079148 0.3085394
 0.3089471 0.3092571 0.3093863 0.3092035 0.308691 0.3079476 0.3072333 0.3070186 0.3076813 0.3090252
 0.3103532 0.3111654 0.3115916 0.3120443 0.3126774 0.3133182 0.3137537 0.3139233 0.3138826 0.3136776
 0.313322 0.3129405 0.3128586 0.3133761 0.3144205 0.3155575 0.3164008 0.3169206 0.3172709 0.3173424
 0.3166438 0.3148828 0.3127314 0.3116586 0.3126246 0.3150681 0.3175151 0.31904 0.3197702 0.32019
 0.3205093 0.3206124 0.3200458 0.3181571 0.31498 0.3120227 0.3113623 0.3135998 0.3171861 0.3199246
 0.3206565 0.3195068 0.3173212 0.3152709 0.3144401 0.3152372 0.3172193 0.3195446 0.3214806 0.3226003
 0.3228085 0.3223062 0.3215058 0.3209151 0.3208219 0.320868 0.3202664 0.3188158 0.3172791 0.3162035
 0.3149122 0.312611 0.3101631 0.3095584 0.3114575 0.3142439 0.315899 0.3160649 0.3156966 0.3151257
 0.3132583 0.3090189 0.3033518 0.2991934 0.2989533 0.3021066 0.3057155 0.3073101 0.3068336 0.3058045
 0.3051713 0.304306 0.3019418 0.2979586 0.294059 0.2922403 0.2925653 0.2930781 0.2919732 0.2888838
 0.2839463 0.2773045 0.2705471 0.2670315 0.2689222 0.2744786 0.2795923 0.2813531 0.2789732 0.2725286
 0.2631805 0.2543926 0.2503974 0.2523029 0.2568104 0.2594165 0.2579746 0.2527885 0.2447481 0.2348843
 0.225287 0.2188795 0.2175403 0.220595 0.2250031 0.2267412 0.2228628 0.2137997 0.2038518 0.197936
 0.1970339 0.1976122 0.1958126 0.1910686 0.1853197 0.1802938 0.1765131 0.1737387 0.1713106 0.1686331
 0.165656 0.1621201 0.1566705 0.1484071 0.1393788 0.1335523 0.1326874 0.1348484 0.1374416 0.1398092
 0.1419587 0.1427338 0.1410803 0.1382563 0.137074 0.1388987 0.1423378 0.1449963 0.1458689 0.1457292
 0.1455785 0.1453516 0.1444771 0.1433108 0.1431595 0.1446455 0.1467446 0.1479081 0.1476374 0.1464971
 0.1450648 0.1434507 0.1415849 0.1394487 0.1370526 0.1344468 0.1317199 0.1288961 0.1259245 0.1228022
 0.1195384 0.1159157 0.1115123 0.1062835 0.1010668 0.09706125 0.09465244 0.09321218 0.09220662 0.09174876
 0.09164167 0.09085678 0.08898482 0.08766441 0.08942793 0.09510113 0.1029857 0.1105379 0.1162306 0.119738
 0.1211602 0.121056 0.1212859 0.1246969 0.1329066 0.1446023 0.156718 0.1670411 0.1750534 0.1807419
 0.1838238 0.1844811 0.1841724 0.185096 0.1887367 0.1949331 0.2020567 0.2077072 0.2097176 0.2079787
 0.2058392 0.2080651 0.215928 0.2253755 0.2315431 0.2340137 0.2359656 0.239301 0.2429822 0.2458336
 0.2485698 0.2522979 0.2564713 0.2592342 0.2590225 0.2552303 0.2482484 0.2399208 0.2332603 0.2302121
 0.2297757 0.2294098 0.2277989 0.224898 0.2202407 0.2136735 0.2075432 0.2054517 0.2081018 0.21225
 0.2144237 0.214166 0.2130218 0.2116708 0.2091121 0.2043211 0.1979722 0.1920984 0.1880102 0.1849838
 0.1813263 0.1762095 0.1698737 0.162587 0.1544432 0.1461705 0.1392473 0.1347714 0.132517 0.1313813
 0.1306071 0.1303548 0.1312327 0.133617 0.137455 0.1424164 0.1481421 0.1545736 0.1620076 0.1705156
 0.1793769 0.1875235 0.1945843 0.2010997 0.2076191 0.2139237 0.2192769 0.2232426 0.2261508 0.2288539
 0.2320625 0.2358101 0.2394668 0.2422975 0.2441054 0.2453791 0.2467741 0.2484726 0.2501484 0.251506
 0.2526488 0.2538923 0.2554258 0.2572075 0.2590135 0.260574 0.2618683 0.2633093 0.2654249 0.2682934
 0.2714375 0.2743034 0.2766963 0.2787096 0.2803881 0.281594 0.2821714 0.2821435 0.2817132 0.2811102
 0.2804802 0.2798997 0.279425 0.2790922 0.2788992 0.2788236 0.2788588 0.2790326 0.279409 0.280071
 0.2810752 0.2823996 0.28394 0.2855621 0.2871436 0.2885699 0.2897233 0.2905065 0.2908718 0.2908153
 0.2903547 0.2895221 0.2883486 0.2868238 0.2848946 0.2825845 0.2801754 0.2782445 0.2774181 0.2779847
 0.2796903 0.2818993 0.2839723 0.2855512 0.2865912 0.2872159 0.287568 0.2877426 0.2877877 0.2877249
 0.2875676 0.2873345 0.2870521 0.2867451 0.2864281 0.286112 0.2858229 0.2856114 0.2855353 0.2856185
 0.2858232 0.2860638 0.2862546 0.2863441 0.2863142 0.2861585 0.2858671 0.2854339 0.2848782 0.2842594
 0.2836636 0.2831669 0.2828022 0.2825492 0.2823457 0.2820939 0.2816533 0.2808625 0.2796249 0.2779921
 0.2761193 0.2741067 0.2719105 0.2694411 0.2667158 0.2638744 0.2610595 0.2583209 0.2556261 0.2529321
 0.2502443 0.2476248 0.2451458 0.2428261 0.24061 0.2384014 0.2361078 0.2336598 0.2310132 0.2281485
 0.2250578 0.2217193 0.2180817 0.2140778 0.2096491 0.2047613 0.1994121 0.1936478 0.1875821 0.1813925
 0.1752874 0.1694677 0.1641065 0.1593442 0.1552846 0.1519858 0.1494535 0.1476445 0.1464854 0.1459004
 0.1458344 0.1462573 0.1471481 0.1484709 0.1501616 0.1521254 0.1542347 0.1563366 0.1582918 0.1600302
 0.1615695 0.1629787 0.1643306 0.1656886 0.1671116 0.168638 0.1702581 0.1719102 0.1735097 0.1749818
 0.1762776 0.1773728 0.1782614 0.1789529 0.1794777 0.1799043 0.1803475 0.1809471 0.1818209 0.1830184
 0.1845051 0.186186 0.1879548 0.189738 0.1915085 0.1932725 0.1950452 0.1968282 0.1985989 0.2003318
 0.2020471 0.2038482 0.2059142 0.2084478 0.2116064 0.2154425 0.2198747 0.2246959 0.2296163 0.2343302
 0.2385822 0.2422054 0.2451237 0.2473349 0.2488941 0.2499054 0.2505148 0.2508912 0.2511843 0.251483
 0.2518082 0.2521464 0.2524851 0.2528199 0.2531406 0.2534232 0.2536459 0.2538138 0.253962 0.2541306
 0.2543431 0.2546028 0.2548901 0.2551577 0.2553447 0.2554082 0.2553398 0.2551608 0.2549039 0.2545934
 0.2542329 0.2538111 0.2533136 0.2527224 0.2520046 0.251106 0.2499543 0.2484816 0.2466697 0.2445855
 0.2423693 0.2401867 0.2381766 0.2364072 0.2348527 0.2334079 0.2319332 0.2303082 0.2284812 0.2264938
 0.2244466 0.2224277 0.2204723 0.2185731 0.2167073 0.2148599 0.2130396 0.2112748 0.20959 0.207989
 0.2064538 0.204953 0.2034655 0.2020055 0.2006163 0.199343 0.1982282 0.197321 0.1966552 0.1962138
 0.1959274 0.1957104 0.1955055 0.1953071 0.1951406 0.1950048 0.1948403 0.1945625 0.1941221 0.1935429
 0.1929194 0.1923722 0.1919868 0.1917833 0.1917233 0.1917153 0.1916241 0.1913114 0.1906765 0.1896583
 0.1882305 0.1864149 0.1842884 0.1819703 0.1796133 0.1773871 0.1754432 0.1738828 0.1727419 0.1719784
 0.1714833 0.1711406 0.170892 0.1707537 0.1707848 0.1710085 0.1713294 0.1715641 0.171611 0.1715679
 0.1716422 0.1719708 0.1725408 0.1732343 0.1739135 0.1744854 0.1749161 0.1752039 0.1753708 0.1754627
 0.1755158 0.175524 0.1754621 0.1753152 0.175072 0.1747263 0.174291 0.1737734 0.1731474 0.1723817
 0.1714706 0.1704168 0.169221 0.1678885 0.1664106 0.1647784 0.1630839 0.1615801 0.1605856 0.160314
 0.1607645 0.1617207 0.1628827 0.164046 0.1651237 0.1660159 0.1666045 0.1669498 0.1673865 0.1683061
 0.1698214 0.1716501 0.173323 0.1745017 0.1750971 0.1751593 0.1747757 0.1740543 0.1730638 0.1717836
 0.1701914 0.168342 0.1663056 0.1641388 0.1619514 0.1598774 0.1579936 0.1563431 0.1549455 0.1537942
 0.152946 0.1521561 0.1499504 0.1441263 0.1348706 0.1267904 0.1254216 0.1312468 0.1390325 0.1434866
 0.1437923 0.1422874 0.1408972 0.1400496 0.1396768 0.1398279 0.1405099 0.1415493 0.1426372 0.1434538
 0.1438339 0.1437673 0.1431563 0.1415875 0.1383143 0.1325259 0.1239648 0.1135119 0.1030119 0.09430763
 0.0883406 0.0849496 0.08324618 0.08223114 0.08137411 0.08080373 0.08097672 0.08219928 0.0844523 0.08752929
 0.09117809 0.09507851 0.09880225 0.1019522 0.104377 0.1061746 0.1074826 0.1083524 0.108811 0.108919
 0.1087339 0.1082867 0.1076003 0.1066862 0.1055347 0.1041576 0.1026514 0.1012052 0.1000167 0.0991663
 0.09857714 0.09812161 0.09773999 0.09743655 0.09721704 0.09707314 0.09699127 0.09695312 0.09695692 0.09703015
 0.09718521 0.09738144 0.09756458 0.09772484 0.09789659 0.0981132 0.09836504 0.09860748 0.09883492 0.09911306
 0.09946138 0.09972407 0.09966822 0.09924375 0.0986935 0.09839004 0.09857382 0.09920611 0.100024 0.1007428
 0.1012379 0.1015625 0.1018168 0.1020079</values></Ydata></ScSm><ScRf><Ydata ylabel="Single channel"><values byteorder="INTEL" format="FLOAT32" numvalues="1820"> 0.06970894 0.06984293 0.06996321 0.07006817 0.07016149 0.0702545 0.07036066 0.07048515 0.0706223 0.07076043
 0.07088806 0.07099967 0.07109646 0.07118075 0.07125491 0.07132998 0.07142512 0.07155074 0.0716958 0.07183488
 0.0719474 0.07203482 0.07212225 0.07223348 0.07235755 0.07244861 0.07246853 0.07242899 0.07238604 0.07239096
 0.07245572 0.07257928 0.07278071 0.07305039 0.07327886 0.07332669 0.07319982 0.07307521 0.0731061 0.07326864
 0.07343292 0.07350498 0.07346432 0.07335579 0.07330908 0.07349554 0.07397313 0.07456353 0.07490993 0.07468291
 0.07379865 0.07253751 0.07147755 0.07119174 0.07183409 0.07296792 0.07389279 0.0742083 0.0740307 0.07369605
 0.07341223 0.07325083 0.07329664 0.07363242 0.07420021 0.07474823 0.07492678 0.07451481 0.07367165 0.07291235
 0.07268837 0.07303551 0.07373014 0.07455942 0.07512245 0.07462999 0.07260379 0.06993702 0.06861541 0.06988326
 0.07294153 0.0757787 0.07700066 0.07656656 0.07520927 0.07379087 0.07307404 0.07345632 0.0747093 0.07620645
 0.07742245 0.07807352 0.07798231 0.07715856 0.07596862 0.07498159 0.07465677 0.07521456 0.07654326 0.07805793
 0.07893446 0.07876261 0.07785395 0.07683414 0.07618063 0.0762004 0.0770531 0.07855891 0.08021542 0.08157074
 0.08246101 0.0829082 0.08300291 0.08288462 0.08267613 0.08246838 0.08241454 0.08264942 0.08302072 0.08312351
 0.0827527 0.08218424 0.08189701 0.08208024 0.08247246 0.08267647 0.08255129 0.08213336 0.08123193 0.07952634
 0.07722395 0.07515693 0.07396922 0.07366621 0.07414436 0.07546645 0.07722612 0.07835283 0.07818764 0.07737042
 0.07714958 0.07803912 0.07949907 0.08073319 0.08146418 0.08198388 0.08269162 0.08363788 0.08440097 0.08439169
 0.08345103 0.08222809 0.08174859 0.08242261 0.0836504 0.08457009 0.08496942 0.08525515 0.08573423 0.08616599
 0.08597106 0.08484863 0.08329457 0.08242889 0.08307283 0.08493584 0.08676598 0.087295 0.08613892 0.08400717
 0.08210931 0.08128572 0.08167822 0.08307339 0.08520195 0.08761137 0.08959547 0.09055131 0.09039532 0.08954841
 0.08847705 0.08725665 0.08573835 0.08423035 0.08367711 0.08477461 0.08707575 0.08934643 0.09070358 0.09110473
 0.09084842 0.08997683 0.08835234 0.08627419 0.08475645 0.08477806 0.08616923 0.08765544 0.08821602 0.08803938
 0.08793584 0.08822417 0.08855721 0.08861183 0.08856255 0.08883172 0.08955396 0.09041165 0.09097856 0.09111702
 0.09100689 0.09088992 0.09083925 0.0907204 0.09039803 0.0900436 0.09011365 0.09086756 0.09201593 0.09301022
 0.09358094 0.09384064 0.09394841 0.09384214 0.09334341 0.09250404 0.09177385 0.09168101 0.09231785 0.09327087
 0.09406139 0.09450336 0.094655 0.09463537 0.09454525 0.09444147 0.09434997 0.09433407 0.09448686 0.094806
 0.0951542 0.09539496 0.09550427 0.095522 0.0954643 0.09532733 0.09514567 0.09500814 0.09500073 0.09513626
 0.09535506 0.09558681 0.09578151 0.09589365 0.09589381 0.09580833 0.09570641 0.09563768 0.0956098 0.0956229
 0.09568891 0.09580638 0.09594046 0.09604582 0.0961041 0.09612752 0.09613071 0.09611516 0.09608354 0.09605554
 0.09606081 0.09611675 0.09620998 0.09630627 0.09639081 0.09648688 0.09661157 0.09672867 0.09678082 0.09676156
 0.09672379 0.09672205 0.09677047 0.09684977 0.09693019 0.09698223 0.09698153 0.09692468 0.09685035 0.09682942
 0.09691274 0.09709363 0.09732926 0.09757719 0.09779987 0.09796619 0.09807497 0.09815701 0.0982385 0.09831752
 0.09838317 0.09844252 0.09852381 0.09865609 0.09884076 0.09904292 0.09921907 0.09934945 0.09944203 0.09952378
 0.09963197 0.09978341 0.09994172 0.100047 0.1000905 0.1001313 0.1002228 0.1003504 0.1004567 0.1005111
 0.1005392 0.1005872 0.1006747 0.1007833 0.100886 0.100978 0.1010777 0.1011986 0.1013203 0.1013957
 0.1013972 0.1013526 0.1013181 0.1013217 0.1013504 0.1013891 0.1014443 0.1015229 0.1016058 0.1016601
 0.1016729 0.1016641 0.1016617 0.1016686 0.1016636 0.1016307 0.1015788 0.1015305 0.1015016 0.1014922
 0.1014888 0.1014734 0.1014339 0.1013706 0.1012939 0.1012153 0.1011392 0.1010669 0.101011 0.1009946
 0.1010199 0.1010411 0.1009907 0.1008433 0.1006427 0.1004614 0.1003388 0.1002594 0.1001782 0.1000615
 0.09990964 0.09974799 0.09960072 0.09947371 0.09935845 0.09924743 0.09914546 0.09906851 0.09902643 0.09900216
 0.09895559 0.098859 0.09872568 0.0985953 0.09849572 0.0984272 0.09837581 0.09832984 0.09828772 0.09825942
 0.09825505 0.09826708 0.09827302 0.09826142 0.09824558 0.09824909 0.0982888 0.09837019 0.09847972 0.09858069
 0.09863874 0.09865963 0.09868634 0.09875337 0.09885768 0.09897697 0.09909922 0.09922609 0.09936121 0.0995072
 0.0996692 0.09985209 0.1000545 0.1002684 0.1004841 0.1006952 0.1009023 0.1011153 0.1013496 0.1016149
 0.1019059 0.102203 0.1024868 0.1027538 0.1030165 0.1032877 0.1035682 0.1038539 0.1041477 0.1044572
 0.1047809 0.105107 0.1054255 0.1057364 0.106047 0.1063635 0.1066877 0.1070201 0.1073665 0.1077334
 0.1081124 0.1084739 0.1087906 0.1090666 0.1093357 0.1096306 0.1099605 0.1103102 0.1106503 0.1109552
 0.1112249 0.1114884 0.1117747 0.1120823 0.112391 0.1126976 0.1130248 0.1133882 0.1137648 0.1141045
 0.1143761 0.114597 0.1148133 0.1150522 0.1153006 0.1155334 0.1157505 0.1159721 0.1162067 0.1164431
 0.1166762 0.1169207 0.1171888 0.1174656 0.1177217 0.117945 0.1181479 0.1183457 0.1185352 0.1186965
 0.1188146 0.1189 0.1189868 0.1191036 0.1192477 0.1193958 0.1195372 0.1196835 0.1198488 0.120035
 0.1202405 0.1204694 0.1207197 0.1209748 0.1212197 0.1214656 0.1217386 0.1220397 0.1223301 0.122572
 0.1227709 0.1229618 0.1231652 0.1233793 0.1236063 0.1238612 0.1241498 0.1244548 0.124751 0.1250265
 0.1252918 0.125571 0.1258777 0.1261933 0.1264773 0.1267056 0.126893 0.1270785 0.1272945 0.1275502
 0.1278321 0.1281161 0.1283825 0.128621 0.1288219 0.1289747 0.1290811 0.1291605 0.1292267 0.1292633
 0.1292321 0.1291048 0.128875 0.1285409 0.1280923 0.1275228 0.1268546 0.1261496 0.1254977 0.1249901
 0.124696 0.1246527 0.1248647 0.1252993 0.1258857 0.1265263 0.1271221 0.1275891 0.1278593 0.1278833
 0.1276455 0.1271742 0.1265289 0.1257748 0.1249656 0.1241393 0.123324 0.1225596 0.1219257 0.1215459
 0.1215508 0.1220295 0.1229999 0.1243954 0.126063 0.1277946 0.1294024 0.1307926 0.1319732 0.1329998
 0.1339212 0.1347651 0.1355496 0.136288 0.1369848 0.1376399 0.1382571 0.1388415 0.1393908 0.1398902
 0.1403189 0.1406588 0.140903 0.1410624 0.1411602 0.1412164 0.1412416 0.1412452 0.1412349 0.1411987
 0.1410953 0.1408745 0.1405102 0.1400197 0.1394695 0.1389793 0.138715 0.1388502 0.1394953 0.1406305
 0.1420993 0.1436789 0.1451733 0.1464635 0.1475058 0.1483141 0.148942 0.1494568 0.1499101 0.150328
 0.1507213 0.1510972 0.1514617 0.1518187 0.1521687 0.1525113 0.1528485 0.1531848 0.1535234 0.1538622
 0.1541969 0.1545278 0.1548616 0.1552058 0.1555596 0.1559124 0.1562571 0.1566002 0.1569526 0.1573106
 0.1576564 0.1579788 0.1582852 0.1585926 0.158913 0.159248 0.1595887 0.1599198 0.1602303 0.1605228
 0.1608087 0.1610968 0.1613869 0.1616746 0.161957 0.1622343 0.1625093 0.1627857 0.1630663 0.1633507
 0.1636337 0.1639069 0.1641657 0.1644149 0.1646654 0.1649246 0.1651894 0.1654513 0.1657053 0.1659556
 0.1662123 0.1664818 0.1667601 0.1670349 0.167296 0.1675418 0.1677785 0.1680157 0.1682606 0.1685146
 0.1687726 0.1690283 0.1692796 0.1695292 0.1697801 0.170032 0.1702827 0.1705313 0.17078 0.1710312
 0.1712841 0.1715347 0.1717802 0.1720227 0.172268 0.1725187 0.1727702 0.1730146 0.1732482 0.1734739
 0.1736978 0.1739263 0.1741631 0.1744062 0.1746494 0.1748892 0.1751278 0.1753698 0.1756166 0.1758648
 0.1761098 0.1763503 0.1765891 0.1768298 0.1770736 0.1773196 0.1775654 0.1778068 0.1780412 0.178272
 0.1785059 0.1787458 0.1789884 0.1792282 0.1794617 0.1796911 0.1799226 0.180161 0.1804038 0.1806458
 0.1808857 0.1811254 0.1813649 0.1816027 0.181838 0.1820713 0.1823035 0.1825352 0.1827656 0.1829947
 0.1832247 0.1834584 0.1836958 0.1839349 0.1841737 0.1844094 0.18464 0.1848707 0.1851089 0.1853549
 0.1856008 0.1858397 0.1860712 0.1863002 0.1865323 0.1867704 0.1870126 0.1872565 0.1875011 0.1877452
 0.1879872 0.1882284 0.1884725 0.1887217 0.1889762 0.1892339 0.1894898 0.1897389 0.189983 0.1902285
 0.1904795 0.1907357 0.1909953 0.1912561 0.1915162 0.191776 0.1920341 0.1922854 0.1925258 0.1927554
 0.1929765 0.1931928 0.1934103 0.1936325 0.1938562 0.1940769 0.1942962 0.1945186 0.1947488 0.1949895
 0.1952377 0.1954858 0.1957305 0.1959751 0.1962219 0.1964703 0.1967216 0.1969769 0.1972333 0.1974889
 0.1977458 0.1980052 0.1982651 0.1985242 0.198783 0.1990428 0.1993075 0.1995785 0.1998495 0.2001147
 0.2003778 0.2006434 0.2009091 0.201172 0.2014358 0.2017047 0.2019797 0.2022597 0.2025381 0.2028064
 0.2030665 0.2033281 0.2035952 0.2038651 0.2041367 0.2044092 0.2046803 0.2049529 0.2052318 0.2055131
 0.2057907 0.2060649 0.2063372 0.206605 0.2068709 0.2071404 0.207411 0.20768 0.2079516 0.2082259
 0.2084956 0.2087601 0.2090234 0.2092769 0.2094962 0.2096273 0.2095287 0.2089057 0.2072704 0.2039495
 0.1982204 0.1896085 0.1781846 0.1646363 0.1500664 0.1356444 0.1222975 0.1105969 0.1008383 0.09316302
 0.08764452 0.08437115 0.0835116 0.08540001 0.09065264 0.09980835 0.1119832 0.1236958 0.1301675 0.1289503
 0.1221533 0.1145242 0.1095726 0.1078494 0.108161 0.1093379 0.110915 0.1129966 0.1158638 0.1195638
 0.1238592 0.12863 0.134113 0.1405459 0.147701 0.1549661 0.1618585 0.1683422 0.1746469 0.1808806
 0.1868741 0.1923435 0.1971095 0.2011616 0.2046038 0.2075844 0.2102352 0.2126431 0.214864 0.2169279
 0.218799 0.2203576 0.2214685 0.2220882 0.2223151 0.2223436 0.2223562 0.2224471 0.2226329 0.2229087
 0.2232689 0.2237 0.2241859 0.2247146 0.225272 0.22584 0.2264066 0.226964 0.2275019 0.2280139
 0.2285014 0.2289652 0.2294038 0.2298214 0.2302248 0.2306154 0.2309934 0.2313616 0.2317209 0.2320709
 0.2324159 0.2327589 0.2330931 0.2334088 0.2337029 0.2339798 0.2342489 0.2345219 0.2348016 0.2350775
 0.235339 0.2355853 0.2358216 0.2360537 0.2362886 0.23653 0.2367749 0.2370187 0.2372604 0.2374998
 0.2377374 0.2379764 0.2382182 0.2384592 0.2386974 0.238936 0.2391763 0.2394158 0.2396545 0.2398959
 0.2401427 0.2403964 0.2406571 0.2409208 0.2411836 0.2414472 0.2417155 0.2419872 0.2422594 0.2425323
 0.2428068 0.2430821 0.2433577 0.2436315 0.2438985 0.2441528 0.2443924 0.2446197 0.244842 0.2450691
 0.2453052 0.2455464 0.2457884 0.2460316 0.2462765 0.2465219 0.2467687 0.2470193 0.247275 0.2475384
 0.2478133 0.2480965 0.2483797 0.248661 0.2489448 0.249231 0.2495156 0.2497996 0.2500872 0.2503761
 0.2506593 0.2509378 0.2512254 0.2515392 0.2518821 0.2522346 0.2525703 0.2528805 0.253178 0.2534819
 0.2538025 0.2541324 0.2544428 0.2547054 0.2549325 0.2551809 0.2554996 0.2558806 0.2562746 0.2566428
 0.2569821 0.2573074 0.257626 0.2579318 0.2582152 0.2584744 0.2587239 0.2589958 0.2593202 0.259693
 0.2600743 0.2604281 0.2607489 0.2610468 0.2613315 0.261614 0.2618905 0.2621214 0.2622717 0.2623862
 0.2625837 0.2629446 0.2634239 0.2639004 0.2642987 0.2646356 0.2649582 0.2652799 0.2655867 0.2658517
 0.2660086 0.2659869 0.2658441 0.26581 0.2661011 0.2667034 0.2674008 0.2679933 0.2684289 0.2687598
 0.2690517 0.2693369 0.2695935 0.2697513 0.2697666 0.2697231 0.2698143 0.2701678 0.2707021 0.2712161
 0.2716 0.2718952 0.2721806 0.2724854 0.2727746 0.2729291 0.2727966 0.2723988 0.2720696 0.2722355
 0.2730013 0.2740307 0.2748848 0.275414 0.2757562 0.276023 0.2761365 0.275972 0.2755096 0.2748376
 0.2741918 0.273998 0.2745958 0.2758048 0.276997 0.2777282 0.2781219 0.2785497 0.2791458 0.2797494
 0.2801648 0.280339 0.2803276 0.2801756 0.2798942 0.2795945 0.2795687 0.2800803 0.2810569 0.2821097
 0.2828999 0.2834029 0.2837512 0.2838425 0.2832409 0.2816945 0.2798111 0.278904 0.2798265 0.2820736
 0.2843262 0.2857537 0.2864676 0.2869058 0.2872643 0.2874409 0.2870188 0.2854022 0.2826248 0.2800578
 0.2795783 0.2817176 0.2850673 0.2876467 0.2884156 0.2874846 0.2856142 0.2838667 0.2832278 0.2840675
 0.2859833 0.2882129 0.2900946 0.291245 0.2915806 0.2912794 0.2907093 0.2903308 0.290408 0.2906138
 0.2902338 0.2890957 0.2879012 0.2871425 0.2861949 0.2843365 0.2823628 0.2820934 0.2841256 0.286973
 0.2887882 0.2892514 0.2892407 0.2890501 0.2876629 0.2840909 0.2792154 0.2757585 0.2759515 0.2793045
 0.2830905 0.2850251 0.2850708 0.2846492 0.2846462 0.2844805 0.2829723 0.2800148 0.2772194 0.2764693
 0.2778046 0.2793532 0.2793986 0.2775766 0.2739726 0.2687029 0.2633448 0.2612135 0.2644315 0.2712843
 0.2777389 0.2809251 0.2800213 0.2750418 0.2671387 0.2598625 0.2575656 0.2613802 0.2678944 0.2724607
 0.2728601 0.2693813 0.2629184 0.2545892 0.2467335 0.2426239 0.2443812 0.2512741 0.259843 0.2653857
 0.2643659 0.2572606 0.2492678 0.2463795 0.2497403 0.2548996 0.2570467 0.2555341 0.2528552 0.2512477
 0.2514634 0.2532103 0.2554837 0.2573539 0.258678 0.2587649 0.2550488 0.2459252 0.2349697 0.2290468
 0.2312353 0.23834 0.2460888 0.2534339 0.2602004 0.2640056 0.2627924 0.2589121 0.2576298 0.2614966
 0.2679176 0.2724691 0.2733917 0.2723001 0.2712415 0.2702488 0.2683818 0.2663876 0.2667179 0.2704893
 0.2757444 0.2795762 0.2810374 0.2811468 0.2809509 0.2806411 0.2800818 0.2792396 0.278151 0.2769442
 0.2758286 0.274864 0.2739177 0.272929 0.2718393 0.2700067 0.2662616 0.2604299 0.2546336 0.2518303
 0.2527105 0.2552597 0.2576414 0.2595258 0.2596997 0.2550741 0.2447236 0.2335062 0.228723 0.2330619
 0.2424541 0.2506334 0.2540931 0.2525306 0.2467228 0.2381554 0.2304927 0.2289572 0.2363161 0.2499673
 0.2642513 0.2752253 0.2821826 0.285474 0.2849759 0.2811785 0.2764497 0.2741126 0.2761561 0.2819208
 0.2886108 0.2926076 0.2910341 0.2841081 0.2767312 0.2755491 0.2823713 0.2917738 0.2970848 0.2973834
 0.2965675 0.2971719 0.2981801 0.2984154 0.2989664 0.3013188 0.304898 0.3075422 0.3074466 0.3039225
 0.2973904 0.2899228 0.2849301 0.2844634 0.2869512 0.2890103 0.2889291 0.2867042 0.2819065 0.2746108
 0.268078 0.2670092 0.2722024 0.2793464 0.2839346 0.2854617 0.2860388 0.286592 0.2857762 0.282239
 0.2770289 0.2731495 0.2726204 0.2745723 0.2766821 0.2776903 0.2776 0.2762241 0.2731988 0.2695507
 0.2678297 0.2698389 0.2747015 0.2797147 0.2828326 0.2839083 0.2839055 0.2836587 0.2834328 0.2830752
 0.2824199 0.2818535 0.2823445 0.2844104 0.2872085 0.2893012 0.2903166 0.2912583 0.2931033 0.295615
 0.2977145 0.2986743 0.298757 0.2988673 0.2997301 0.3012907 0.3027701 0.3033556 0.303005 0.302594
 0.3031285 0.3047868 0.3068531 0.3085364 0.3096295 0.3103982 0.3111384 0.3119283 0.3125898 0.3128388
 0.3126643 0.3125632 0.3131675 0.3145794 0.3162442 0.3175132 0.3181773 0.3184227 0.3184527 0.318296
 0.3179206 0.3174003 0.316912 0.3165997 0.3164795 0.3164716 0.3164894 0.3164855 0.3164539 0.3164261
 0.3164524 0.3165593 0.3167309 0.316939 0.3171657 0.3173856 0.3175617 0.3176825 0.3177744 0.3178531
 0.3178831 0.3178011 0.3175561 0.3171102 0.3164216 0.3154493 0.314163 0.3125288 0.3105137 0.3081857
 0.3058735 0.3041938 0.3037941 0.3049422 0.3073132 0.3101743 0.3128025 0.3147958 0.3161031 0.3168646
 0.3172527 0.3174022 0.3174008 0.3172941 0.3171003 0.3168329 0.3165107 0.3161535 0.3157815 0.3154206
 0.3150958 0.3148162 0.3145651 0.3143061 0.3139979 0.3136119 0.3131421 0.3125989 0.3119937 0.311324
 0.3105689 0.3097056 0.3087401 0.3077198 0.3067092 0.3057535 0.3048583 0.3039957 0.3031251 0.3022059
 0.3011831 0.2999861 0.2985946 0.2971277 0.2958118 0.2948024 0.2940458 0.2933414 0.2925178 0.2915248
 0.2903935 0.2891702 0.2878924 0.2865831 0.2852449 0.2838618 0.282411 0.2808742 0.2792426 0.2775164
 0.2757013 0.2738102 0.2718685 0.2699055 0.2679166 0.2658256 0.2634896 0.2607442 0.2574496 0.2535154
 0.248918 0.2437218 0.238087 0.2322392 0.2264117 0.2208016 0.2155635 0.2108273 0.2067121 0.2033236
 0.2007397 0.1989981 0.1981041 0.1980501 0.1988265 0.2004087 0.2027306 0.2056705 0.2090604 0.2127108
 0.2164281 0.2200303 0.2233804 0.2264309 0.2292263 0.2318388 0.2342936 0.2365577 0.2385863 0.2403601
 0.2418812 0.2431558 0.2441966 0.2450343 0.2457185 0.2463 0.2468126 0.2472652 0.247646 0.2479398
 0.248148 0.2482976 0.2484298 0.2485821 0.2487753 0.2490109 0.2492799 0.2495813 0.2499337 0.2503659
 0.250894 0.2515094 0.2521869 0.2529043 0.2536575 0.2544629 0.2553515 0.2563621 0.2575292 0.2588676
 0.2603637 0.261978 0.2636474 0.2652819 0.2667748 0.2680311 0.2689973 0.2696658 0.2700552 0.2701909
 0.2701022 0.2698271 0.2694052 0.2688659 0.2682275 0.2675077 0.2667267 0.265898 0.2650213 0.2640886
 0.2630997 0.2620781 0.2610635 0.2600812 0.2591261 0.2581846 0.2572585 0.256359 0.2554895 0.254647
 0.2538317 0.2530479 0.2522993 0.2515854 0.2508981 0.2502224 0.2495325 0.2487853 0.2479274 0.2469203
 0.2457514 0.2444214 0.2429357 0.2413099 0.2395668 0.2377232 0.2357875 0.2337674 0.2316739 0.2295144
 0.2272804 0.2249506 0.2225291 0.2200839 0.2177236 0.215526 0.2135028 0.211628 0.2098758 0.2082301
 0.2066781 0.2052029 0.2037856 0.2024197 0.2011169 0.1998867 0.198723 0.1976179 0.196578 0.1956209
 0.1947676 0.1940342 0.1934181 0.1928989 0.192457 0.1920843 0.191786 0.1915888 0.1915292 0.1916038
 0.1917413 0.1918451 0.1918579 0.1917863 0.1916815 0.1916005 0.1915712 0.1915883 0.1916276 0.1916377
 0.1915263 0.1911887 0.1905448 0.1895392 0.1881352 0.1863417 0.1842363 0.1819582 0.1796834 0.1775877
 0.1757968 0.1743643 0.1732831 0.1724933 0.1718989 0.171423 0.1710594 0.1708663 0.1709155 0.1712182
 0.1716569 0.172028 0.1722202 0.1723405 0.1726214 0.1732204 0.1741225 0.1751845 0.1762362 0.177163
 0.1779219 0.1785072 0.1789316 0.1792258 0.1794128 0.1794867 0.1794384 0.1792738 0.178998 0.1786196
 0.1781657 0.1776516 0.1770527 0.1763446 0.1755337 0.1746264 0.1736153 0.1724976 0.171256 0.1698589
 0.1683593 0.1669739 0.1660054 0.1656794 0.1660296 0.1668854 0.1679871 0.1691547 0.1703087 0.1713478
 0.1721525 0.1727839 0.173575 0.1749178 0.1769312 0.1793326 0.1816301 0.1834461 0.1846508 0.1852533
 0.1852978 0.1848538 0.1839643 0.1826026 0.1807751 0.1786051 0.176247 0.173826 0.1714901 0.1693801
 0.1675574 0.1660482 0.1648655 0.1640038 0.1635239 0.163141 0.1612243 0.1553755 0.1458417 0.1376961
 0.136984 0.1441917 0.1535494 0.1592228 0.1602566 0.159132 0.1578856 0.1569446 0.1562325 0.1558402
 0.1558413 0.1561306 0.1564691 0.1566069 0.1564371 0.1559727 0.1550813 0.1532551 0.1496139 0.1432241
 0.1337924 0.122303 0.1107959 0.1012767 0.09473475 0.0909593 0.08897875 0.08772533 0.08664323 0.0858876
 0.08596598 0.08721328 0.08960046 0.09289783 0.09684314 0.101113 0.1052613 0.1088537 0.1116961 0.1138489
 0.1154183 0.116435 0.1169269 0.1169816 0.1167007 0.1161573 0.1153976 0.1144314 0.1132346 0.1118091
 0.1102544 0.1087788 0.1076135 0.1068717 0.1064842 0.1062983 0.1062154 0.1062074 0.1062602 0.1063602
 0.1065052 0.1066936 0.1069262 0.1072141 0.1075495 0.1078822 0.1081549 0.1083444 0.108453 0.1084786
 0.1083967 0.1081732 0.107825 0.1074402 0.1070584 0.1065383 0.105662 0.1044165 0.1031134 0.1021947
 0.1019225 0.1022203 0.1027641 0.1032288 0.1034827 0.103581 0.1036123 0.1035687 0.1033507 0.1028792
</values></Ydata></ScRf><Data_Parameters_AB><parameter name="DPF">1</parameter><parameter name="NPT">3497</parameter><parameter name="FXV">3996</parameter><parameter name="LXV">500</parameter><parameter name="CSF">1</parameter><parameter name="MXY">0.452630609273911</parameter><parameter name="MNY">-0.0512649603188038</parameter><parameter name="DAT">13/02/2024</parameter><parameter name="TIM">13:12:13.173 (GMT+1)</parameter><parameter name="DXU">WN</parameter></Data_Parameters_AB><AB__Qtest><MainReport name="Quality Test Report"><Header><Line><Legend>Test result ok/not ok [1/0]: </Legend><Value>0</Value></Line><Line><Legend>Method file: </Legend><Value>C:\Users\Public\Documents\Bruker\OPUS_8.2.28\QT\IRBT_v3_default.QT</Value></Line></Header><Matrix><Line><Legend></Legend><Legend>min</Legend><Legend>max</Legend><Legend>measured</Legend></Line><Line><Value>Absorption (X-Range 1):</Value><Value>0.400000</Value><Value>2.000000</Value><Value>0.348280</Value></Line><Line><Value>Noise (X-Range 4):</Value><Value></Value><Value>0.000300</Value><Value>0.000034</Value></Line><Line><Value>Signal/Noise (X-Range 2):</Value><Value>200.000000</Value><Value></Value><Value>171.985016</Value></Line><Line><Value>Signal/Noise (X-Range 3):</Value><Value>40.000000</Value><Value></Value><Value>158.687697</Value></Line><Line><Value>Water vapour (X-Range 5):</Value><Value></Value><Value>0.000300</Value><Value>0.000025</Value></Line><Line><Value>Signal/Water (X-Range 2):</Value><Value>100.000000</Value><Value></Value><Value>227.484866</Value></Line><Line><Value>Signal/Water (X-Range 3):</Value><Value>20.000000</Value><Value></Value><Value>209.896481</Value></Line><Line><Value>Fringes (X-Range 6):</Value><Value></Value><Value>0.000100</Value><Value>0.000034</Value></Line></Matrix></MainReport></AB__Qtest><Data_Parameters_ScSm><parameter name="DPF">1</parameter><parameter name="NPT">1814</parameter><parameter name="FXV">3996.63438082617</parameter><parameter name="LXV">499.579297603271</parameter><parameter name="CSF">1</parameter><parameter name="MXY">0.322808474302292</parameter><parameter name="MNY">0.0524606630206108</parameter><parameter name="DAT">13/02/2024</parameter><parameter name="TIM">13:12:13.173 (GMT+1)</parameter><parameter name="DXU">WN</parameter></Data_Parameters_ScSm><Data_Parameters_ScRf><parameter name="DPF">1</parameter><parameter name="NPT">1820</parameter><parameter name="FXV">4004.34989121387</parameter><parameter name="LXV">495.721542409425</parameter><parameter name="CSF">1</parameter><parameter name="MXY">0.318452715873718</parameter><parameter name="MNY">0.0686154067516327</parameter><parameter name="DAT">13/02/2024</parameter><parameter name="TIM">13:11:47.319 (GMT+1)</parameter><parameter name="DXU">WN</parameter></Data_Parameters_ScRf><Optic_Parameters_Rf><parameter name="APR">0</parameter><parameter name="APT">Open</parameter><parameter name="BMS">KBr</parameter><parameter name="DTC">RT-DLaTGS_IR-Biotyper [Microplate reader]</parameter><parameter name="HPF">0</parameter><parameter name="LPF">10.0</parameter><parameter name="LPV">4000</parameter><parameter name="PGR">0</parameter><parameter name="RCH">Module port</parameter><parameter name="RDX">0</parameter><parameter name="SRC">MIR</parameter><parameter name="VEL">10.0</parameter><parameter name="SON">Off</parameter></Optic_Parameters_Rf><Acquisition_Parameters_Rf><parameter name="ADT">1</parameter><parameter name="AQM">DD</parameter><parameter name="CFE">0</parameter><parameter name="COR">0</parameter><parameter name="DEL">0</parameter><parameter name="DLY">0</parameter><parameter name="HFW">8000</parameter><parameter name="LFW">0</parameter><parameter name="NSR">32</parameter><parameter name="PLF">AB</parameter><parameter name="RES">6</parameter><parameter name="RGN">-1</parameter><parameter name="STR">0</parameter><parameter name="TCL">MakeCompatibleScalar (0, {WSV=1.000000, ARV=0});</parameter><parameter name="TDL">37</parameter><parameter name="RPO">0</parameter></Acquisition_Parameters_Rf><FT_-_Parameters_Rf><parameter name="APF">B3</parameter><parameter name="HFQ">500</parameter><parameter name="LFQ">4000</parameter><parameter name="NLI">0</parameter><parameter name="PHR">24</parameter><parameter name="PHZ">ML</parameter><parameter name="SPZ">NO</parameter><parameter name="ZFF">1</parameter></FT_-_Parameters_Rf><Optic_Parameters_><parameter name="APR">0</parameter><parameter name="APT">Open</parameter><parameter name="BMS">KBr</parameter><parameter name="CHN">Module port</parameter><parameter name="DTC">RT-DLaTGS_IR-Biotyper [Microplate reader]</parameter><parameter name="HPF">0</parameter><parameter name="LPF">10.0</parameter><parameter name="LPV">4000</parameter><parameter name="PGN">0</parameter><parameter name="RDX">0</parameter><parameter name="SRC">MIR</parameter><parameter name="VEL">10.0</parameter><parameter name="SON">Off</parameter></Optic_Parameters_><FT_-_Parameters_><parameter name="APF">B3</parameter><parameter name="HFQ">500</parameter><parameter name="LFQ">4000</parameter><parameter name="NLI">0</parameter><parameter name="PHR">24</parameter><parameter name="PHZ">ML</parameter><parameter name="SPZ">NO</parameter><parameter name="ZFF">1</parameter></FT_-_Parameters_><Acquisition_Parameters_><parameter name="ADT">1</parameter><parameter name="AQM">DD</parameter><parameter name="CFE">0</parameter><parameter name="COR">0</parameter><parameter name="DEL">0</parameter><parameter name="DLY">0</parameter><parameter name="HFW">8000</parameter><parameter name="LFW">0</parameter><parameter name="NSS">32</parameter><parameter name="PLF">AB</parameter><parameter name="RES">6</parameter><parameter name="SOT">0</parameter><parameter name="TCL">MakeCompatibleScalar (0, {WSV=1.000000, ARV=0});</parameter><parameter name="TDL">37</parameter><parameter name="SPO">0</parameter><parameter name="SGN">-1</parameter></Acquisition_Parameters_><Instrument_Parameters_Rf><parameter name="HFL">15801.365274</parameter><parameter name="LFL">0</parameter><parameter name="LWN">15801.365274</parameter><parameter name="ABP">32157</parameter><parameter name="SSP">1</parameter><parameter name="ARG">2</parameter><parameter name="ASG">2</parameter><parameter name="ASS">32</parameter><parameter name="GFW">16</parameter><parameter name="GBW">16</parameter><parameter name="BFW">0</parameter><parameter name="BBW">0</parameter><parameter name="PKA">9177</parameter><parameter name="PKL">5009</parameter><parameter name="PRA">9170</parameter><parameter name="PRL">4988</parameter><parameter name="P2A">1</parameter><parameter name="P2L">1</parameter><parameter name="P2R">1</parameter><parameter name="P2K">1</parameter><parameter name="DAQ">0</parameter><parameter name="AG2">1</parameter><parameter name="SSM">1</parameter><parameter name="RSN">48111</parameter><parameter name="CRR">0</parameter><parameter name="SRT">1707829907.319</parameter><parameter name="DUR">19.6389923095703</parameter><parameter name="TSC">30</parameter><parameter name="MVD">0.293308347463608</parameter><parameter name="AN1">0.225960155725444</parameter><parameter name="AN2">0</parameter><parameter name="VSN">2.485 Apr  4 2017</parameter><parameter name="SRN">0085</parameter><parameter name="CAM">0</parameter><parameter name="INS">IR-Biotyper</parameter><parameter name="FOC">69</parameter><parameter name="RDY">1</parameter><parameter name="ARS">32</parameter></Instrument_Parameters_Rf><Sample_Parameters_><parameter name="BLD"></parameter><parameter name="CNM">Admin</parameter><parameter name="CPY"></parameter><parameter name="DPM"></parameter><parameter name="EXP">IRBT_v3_32Scans.XPM</parameter><parameter name="LCT"></parameter><parameter name="SFM">Microplate, HTS-XT</parameter><parameter name="SNM">240213-1206-Cdiff_SCFA_3_GDA_C39_242149579_D3_f94dba56-fbe0-4ba4-ab9b-1fe738f7586c.0</parameter><parameter name="XPP">C:\Users\Public\Documents\Bruker\OPUS_8.2.28\XPM</parameter><parameter name="IST">OK</parameter><parameter name="CPG">1252</parameter><parameter name="UID">c1c94f28-fa67-4fce-941c-ae4fcdff560a</parameter></Sample_Parameters_><Instrument_Parameters_><parameter name="HFL">15801.365274</parameter><parameter name="LFL">0</parameter><parameter name="LWN">15801.365274</parameter><parameter name="ABP">32157</parameter><parameter name="SSP">1</parameter><parameter name="ASG">2</parameter><parameter name="ARG">2</parameter><parameter name="ASS">32</parameter><parameter name="GFW">16</parameter><parameter name="GBW">16</parameter><parameter name="BFW">0</parameter><parameter name="BBW">0</parameter><parameter name="PKA">8333</parameter><parameter name="PKL">5001</parameter><parameter name="PRA">8404</parameter><parameter name="PRL">4980</parameter><parameter name="P2A">1</parameter><parameter name="P2L">1</parameter><parameter name="P2R">1</parameter><parameter name="P2K">1</parameter><parameter name="DAQ">0</parameter><parameter name="AG2">1</parameter><parameter name="SSM">1</parameter><parameter name="RSN">24753</parameter><parameter name="CRR">0</parameter><parameter name="SRT">1707829933.173</parameter><parameter name="DUR">19.6389923095703</parameter><parameter name="TSC">29.9</parameter><parameter name="MVD">0.261288523674011</parameter><parameter name="AN1">0.225936288415322</parameter><parameter name="AN2">0</parameter><parameter name="VSN">2.485 Apr  4 2017</parameter><parameter name="SRN">0085</parameter><parameter name="CAM">0</parameter><parameter name="INS">IR-Biotyper</parameter><parameter name="FOC">69</parameter><parameter name="RDY">1</parameter></Instrument_Parameters_><History/></OPUSDataFile>
