<?xml version="1.0" encoding="UTF-8" ?>
<OPUSDataFile><AB><Ydata ylabel="Absorbance Units"><values byteorder="INTEL" format="FLOAT32" numvalues="3497"> -0.06760082 -0.0675943 -0.06758961 -0.06758662 -0.0675849 -0.06758439 -0.06758492 -0.06758612 -0.0675873 -0.06758854
 -0.06758924 -0.06759086 -0.06759395 -0.06760058 -0.06761234 -0.06762863 -0.0676505 -0.06767272 -0.06769492 -0.06770971
 -0.06771588 -0.06770992 -0.06769117 -0.06766289 -0.06762534 -0.06758735 -0.06754953 -0.06752142 -0.06750265 -0.06749709
 -0.06750237 -0.0675135 -0.06752715 -0.0675331 -0.06753109 -0.0675149 -0.06748967 -0.06745768 -0.06742578 -0.06739984
 -0.06738336 -0.06738024 -0.06738896 -0.06741049 -0.06743994 -0.06747705 -0.0675143 -0.06755088 -0.06757881 -0.06759719
 -0.06760311 -0.06759649 -0.06758326 -0.0675642 -0.0675501 -0.06754107 -0.06754393 -0.06755693 -0.06757823 -0.06760554
 -0.06763238 -0.06765869 -0.06768128 -0.06770161 -0.06772071 -0.06773771 -0.06775278 -0.06776328 -0.06776688 -0.06776588
 -0.0677596 -0.06775512 -0.06775476 -0.06775872 -0.06776853 -0.06777279 -0.06777062 -0.06775296 -0.06771941 -0.06767751
 -0.06762851 -0.06759 -0.06756215 -0.0675557 -0.06756812 -0.0675972 -0.06763893 -0.06768382 -0.06772773 -0.06776027
 -0.06777877 -0.06777519 -0.06775244 -0.0677077 -0.06765262 -0.06759077 -0.06753729 -0.06749923 -0.06748138 -0.06748819
 -0.06750862 -0.06754255 -0.0675728 -0.06759752 -0.06760917 -0.06760731 -0.0675962 -0.06757615 -0.06755243 -0.06752481
 -0.06749379 -0.06746027 -0.06742668 -0.06739604 -0.06737671 -0.06737027 -0.06738445 -0.06741514 -0.06746317 -0.06751693
 -0.06756937 -0.06760706 -0.06761941 -0.06760524 -0.06755812 -0.06749665 -0.06742335 -0.06735741 -0.06730397 -0.06725992
 -0.06722566 -0.06719267 -0.06716046 -0.06714709 -0.06715408 -0.06721049 -0.06731114 -0.06744505 -0.06759576 -0.067697
 -0.06774064 -0.06766105 -0.06749263 -0.06725482 -0.0670003 -0.06680649 -0.06667667 -0.06664766 -0.06667966 -0.06676174
 -0.06685882 -0.0669541 -0.06703375 -0.06709146 -0.06712115 -0.06712093 -0.06708737 -0.06701858 -0.06693219 -0.06682903
 -0.06674156 -0.06667013 -0.06662647 -0.06660749 -0.06659912 -0.0666005 -0.06660044 -0.06660178 -0.06660719 -0.06661616
 -0.06663074 -0.06664503 -0.06665295 -0.06665017 -0.06663058 -0.06659432 -0.06653909 -0.06646857 -0.06638119 -0.06629072
 -0.06619819 -0.066126 -0.0660789 -0.06606514 -0.06608772 -0.0661278 -0.06618457 -0.06622922 -0.06626108 -0.06626544
 -0.06624379 -0.06619798 -0.06612993 -0.06604691 -0.06595177 -0.0658544 -0.06575846 -0.06567556 -0.06560502 -0.06555172
 -0.0655105 -0.06547825 -0.06545254 -0.06543069 -0.06541338 -0.06540113 -0.06539103 -0.06538317 -0.06537105 -0.06535344
 -0.06532709 -0.06529132 -0.06524747 -0.06519558 -0.06513882 -0.06507764 -0.06501987 -0.06496648 -0.06492889 -0.06490608
 -0.06490164 -0.06491102 -0.06492478 -0.06493876 -0.06494018 -0.06493022 -0.06490359 -0.0648675 -0.06482576 -0.06478563
 -0.0647538 -0.06472894 -0.0647136 -0.06469845 -0.06468049 -0.06465816 -0.06462881 -0.06460719 -0.06459485 -0.06460085
 -0.06462622 -0.06465385 -0.06468247 -0.06468761 -0.06467056 -0.06462919 -0.06456508 -0.06448491 -0.0643855 -0.06425805
 -0.06410871 -0.06393833 -0.06376957 -0.06363387 -0.0635386 -0.06351022 -0.06351775 -0.06355457 -0.06357968 -0.06357036
 -0.06352104 -0.06342018 -0.06330058 -0.06316622 -0.06304353 -0.06293754 -0.06284484 -0.06276575 -0.06268506 -0.06260232
 -0.06250926 -0.06240708 -0.0622996 -0.06218941 -0.06208901 -0.06200017 -0.06193523 -0.06189131 -0.0618719 -0.0618654
 -0.06186139 -0.06184218 -0.06178682 -0.0616906 -0.06153762 -0.06135482 -0.06114666 -0.06094728 -0.06077121 -0.06061821
 -0.06049391 -0.06036908 -0.06024072 -0.06008968 -0.05991387 -0.05972415 -0.05952165 -0.05933109 -0.0591522 -0.05899661
 -0.05885845 -0.05872131 -0.05857543 -0.05838392 -0.05814546 -0.05783357 -0.05746947 -0.05706581 -0.0566529 -0.05626569
 -0.05591228 -0.05561253 -0.0553485 -0.05512081 -0.05489897 -0.05467657 -0.05442165 -0.05412634 -0.0537761 -0.05336603
 -0.05291412 -0.05242093 -0.05191356 -0.05139262 -0.0508635 -0.05032555 -0.04977494 -0.04921371 -0.04864927 -0.04808334
 -0.04752586 -0.04697441 -0.04642938 -0.04588718 -0.04534321 -0.04479474 -0.04423713 -0.04367082 -0.04309409 -0.04251054
 -0.04192435 -0.04132554 -0.04071713 -0.04006454 -0.03936087 -0.03858476 -0.03772767 -0.03683222 -0.03589977 -0.03499895
 -0.0341314 -0.0333099 -0.03252951 -0.03175351 -0.03098057 -0.03018348 -0.02936908 -0.0285427 -0.02771142 -0.02689514
 -0.02608811 -0.02529775 -0.02449666 -0.02366423 -0.0227721 -0.02178481 -0.02072685 -0.0195875 -0.01844516 -0.01732482
 -0.01626351 -0.0152824 -0.01433334 -0.01341504 -0.01246414 -0.0114745 -0.01043866 -0.009357469 -0.008269174 -0.007174496
 -0.00609757 -0.005032683 -0.003965971 -0.002892169 -0.001785842 -0.0006519148 0.0005147982 0.001700387 0.002886589 0.004066572
 0.005223639 0.006367119 0.007496757 0.008626571 0.009763564 0.01091401 0.01208229 0.01326603 0.01446699 0.01567238
 0.01688128 0.01807829 0.01926127 0.02043979 0.02161503 0.02282575 0.02407206 0.0253748 0.02672502 0.02809111
 0.02946438 0.03079818 0.032099 0.03335503 0.0345824 0.0357997 0.03701707 0.03825376 0.03950609 0.04077936
 0.04206106 0.04334496 0.04462891 0.04590675 0.04719968 0.04851049 0.04986013 0.0512549 0.05267787 0.05412944
 0.05556653 0.05698744 0.05837297 0.05972549 0.06106067 0.06238087 0.06370614 0.06503581 0.06637821 0.06773152
 0.06909624 0.07047005 0.07184973 0.07323395 0.07461953 0.07600815 0.07740051 0.07879642 0.0801978 0.08159692
 0.08299214 0.08437531 0.08574315 0.08709854 0.08844035 0.089782 0.09112444 0.09247927 0.09384684 0.09522349
 0.09660767 0.09798185 0.09934581 0.1006875 0.1020117 0.1033269 0.1046377 0.1059597 0.1072906 0.1086345
 0.1099857 0.1113394 0.112693 0.114044 0.11539 0.1167306 0.1180596 0.1193753 0.1206722 0.121948
 0.123205 0.1244422 0.1256711 0.1268923 0.1281223 0.1293616 0.1306184 0.1318914 0.1331711 0.1344556
 0.1357288 0.1369913 0.1382361 0.1394644 0.1406758 0.1418705 0.1430476 0.1442092 0.1453566 0.1464933
 0.1476232 0.1487451 0.1498597 0.1509648 0.1520584 0.1531449 0.1542245 0.1553031 0.1563821 0.1574619
 0.158543 0.1596237 0.1607039 0.161781 0.1628544 0.1639156 0.1649644 0.1659948 0.1670098 0.1680166
 0.1690178 0.1700244 0.1710331 0.1720444 0.1730527 0.1740515 0.1750404 0.1760164 0.1769826 0.1779398
 0.1788905 0.1798358 0.1807775 0.1817163 0.1826509 0.1835815 0.1845036 0.1854166 0.1863184 0.1872087
 0.1880882 0.1889566 0.1898111 0.1906514 0.1914737 0.1922796 0.1930711 0.1938508 0.1946258 0.1953985
 0.1961758 0.1969585 0.1977514 0.1985508 0.1993567 0.2001607 0.2009578 0.2017445 0.2025171 0.2032809
 0.2040369 0.2047875 0.2055345 0.2062693 0.2069914 0.2076915 0.2083691 0.2090241 0.2096575 0.2102771
 0.2108843 0.2114911 0.2120981 0.2127151 0.2133391 0.2139689 0.2145982 0.2152162 0.2158203 0.2164021
 0.2169641 0.2175059 0.2180285 0.2185326 0.2190184 0.2194846 0.2199383 0.2203802 0.2208204 0.2212614
 0.2217039 0.2221487 0.2225844 0.2230103 0.2234157 0.2238006 0.2241652 0.2245107 0.224845 0.225168
 0.2254844 0.2257921 0.2260879 0.2263705 0.2266349 0.2268828 0.2271138 0.2273312 0.227537 0.2277353
 0.2279282 0.2281218 0.228319 0.2285234 0.228738 0.228956 0.2291776 0.2293905 0.2295931 0.2297817
 0.2299561 0.2301213 0.2302775 0.2304261 0.2305662 0.2306919 0.2308031 0.2308966 0.2309743 0.2310404
 0.2310956 0.2311443 0.2311835 0.2312111 0.2312253 0.2312214 0.2312077 0.2311854 0.2311699 0.2311687
 0.2311854 0.2312256 0.2312721 0.2313235 0.2313605 0.2313799 0.2313832 0.2313702 0.2313587 0.2313493
 0.2313541 0.2313716 0.2313975 0.2314292 0.231454 0.2314722 0.2314758 0.2314698 0.2314574 0.2314463
 0.2314467 0.2314647 0.2315094 0.2315808 0.2316831 0.2318079 0.2319554 0.2321088 0.232265 0.2324067
 0.2325295 0.2326311 0.2327093 0.2327832 0.2328536 0.2329452 0.2330587 0.2332044 0.233381 0.2335839
 0.2338128 0.2340634 0.2343365 0.2346343 0.2349523 0.235288 0.2356256 0.2359468 0.2362335 0.2364599
 0.2366308 0.2367335 0.2368072 0.236861 0.2369392 0.2370593 0.2372281 0.2374542 0.2377034 0.2379739
 0.238225 0.2384536 0.2386404 0.2387856 0.2388918 0.238961 0.239007 0.239032 0.2390514 0.2390657
 0.2390846 0.2391058 0.23913 0.2391542 0.2391739 0.2391892 0.2391971 0.2392026 0.2392087 0.2392163
 0.2392305 0.2392341 0.2392267 0.2391777 0.2390805 0.2389215 0.2386957 0.2384276 0.238118 0.2378077
 0.2374982 0.2372113 0.2369455 0.2366987 0.2364691 0.236249 0.236037 0.2358264 0.2356146 0.2353933
 0.2351634 0.2349211 0.2346742 0.2344284 0.2341881 0.2339606 0.2337362 0.2335139 0.23328 0.2330288
 0.23276 0.2324706 0.2321763 0.2318778 0.2315954 0.2313307 0.231097 0.2308942 0.230716 0.2305587
 0.2303924 0.2302135 0.229988 0.2297205 0.2294031 0.2290492 0.2286806 0.2283075 0.2279553 0.2276212
 0.2273135 0.2270207 0.226738 0.226457 0.226172 0.2258832 0.2255888 0.2252931 0.2249967 0.2247015
 0.2244083 0.224114 0.2238184 0.2235169 0.2232094 0.2228963 0.2225785 0.2222624 0.2219478 0.2216382
 0.2213311 0.2210212 0.2207065 0.2203792 0.2200415 0.2196923 0.2193376 0.2189829 0.218631 0.2182871
 0.217946 0.217608 0.2172641 0.2169116 0.2165461 0.2161657 0.2157723 0.2153655 0.2149505 0.2145275
 0.2141027 0.2136763 0.2132548 0.212838 0.2124292 0.212027 0.2116267 0.2112265 0.2108172 0.2103994
 0.2099682 0.2095282 0.2090829 0.2086379 0.2082002 0.207771 0.2073544 0.2069462 0.2065462 0.2061482
 0.2057505 0.2053483 0.2049398 0.204526 0.2041057 0.2036897 0.2032784 0.2028864 0.2025137 0.2021589
 0.201819 0.2014676 0.2011019 0.2006927 0.2002448 0.1997545 0.1992345 0.1987078 0.198185 0.1976924
 0.1972306 0.1968122 0.1964259 0.196071 0.1957263 0.1953825 0.1950219 0.1946341 0.1942227 0.1937837
 0.1933423 0.1929012 0.1924804 0.1920826 0.191703 0.1913414 0.1909856 0.1906369 0.1903015 0.1899828
 0.1897016 0.1894556 0.1892522 0.189078 0.1889121 0.1887368 0.1885163 0.1882457 0.1879012 0.1875023
 0.1870501 0.1865794 0.1861071 0.1856553 0.1852382 0.1848483 0.1844883 0.1841358 0.1837877 0.1834314
 0.1830654 0.1826915 0.1823096 0.1819222 0.1815287 0.1811255 0.180713 0.1802907 0.1798614 0.1794337
 0.1790093 0.1785977 0.1781952 0.1778014 0.1774082 0.177007 0.1765921 0.1761559 0.1757001 0.1752234
 0.1747295 0.1742206 0.1736931 0.1731477 0.1725732 0.1719679 0.171326 0.1706458 0.1699412 0.1692131
 0.1684914 0.1677774 0.1670962 0.1664455 0.1658269 0.1652348 0.1646521 0.1640751 0.1634868 0.1628888
 0.162275 0.1616503 0.1610168 0.1603795 0.1597423 0.15911 0.158486 0.1578731 0.1572735 0.1566852
 0.1561085 0.1555389 0.1549753 0.1544183 0.1538672 0.1533331 0.1528166 0.1523314 0.1518767 0.1514523
 0.1510543 0.1506635 0.1502773 0.1498756 0.1494628 0.1490384 0.1486107 0.1481942 0.1477897 0.1474064
 0.1470331 0.1466652 0.1462911 0.1459021 0.1454971 0.1450727 0.1446356 0.1441869 0.1437301 0.1432663
 0.1427941 0.1423133 0.1418267 0.1413347 0.1408516 0.1403787 0.1399346 0.1395177 0.1391315 0.1387689
 0.138408 0.1380417 0.1376402 0.1372069 0.1367299 0.1362264 0.1357084 0.1351956 0.1347074 0.134252
 0.1338403 0.1334675 0.1331345 0.1328355 0.1325681 0.1323346 0.1321343 0.1319748 0.1318568 0.1317854
 0.1317609 0.1317836 0.1318541 0.1319745 0.1321467 0.1323809 0.1326793 0.1330564 0.1335111 0.1340504
 0.1346679 0.1353574 0.1361095 0.1369116 0.137757 0.1386371 0.1395484 0.1404886 0.1414503 0.1424323
 0.143421 0.1444135 0.1453972 0.1463696 0.1473234 0.1482579 0.1491649 0.1500438 0.1508767 0.1516619
 0.1523731 0.153008 0.1535392 0.1539649 0.1542633 0.1544338 0.1544634 0.1543551 0.1541055 0.1537256
 0.1532205 0.1526179 0.1519318 0.1512122 0.1504823 0.1498009 0.149194 0.1486994 0.148335 0.1480994
 0.1479981 0.1479993 0.1481019 0.1482626 0.1484789 0.1487061 0.1489417 0.1491449 0.1493146 0.1494229
 0.1494707 0.149447 0.1493528 0.1491854 0.1489439 0.148625 0.1482303 0.1477578 0.1472179 0.1466151
 0.1459695 0.1452932 0.1446006 0.1439062 0.1431887 0.1424554 0.1416327 0.1407142 0.1396095 0.138306
 0.1367758 0.1350157 0.1331067 0.1310576 0.1290156 0.1269875 0.1250934 0.1233257 0.1217236 0.1202687
 0.1189364 0.1177099 0.1165493 0.1154473 0.1143786 0.1133445 0.1123368 0.1113612 0.1104178 0.1095144
 0.1086531 0.1078434 0.1070873 0.1063946 0.1057674 0.1052108 0.104726 0.1043112 0.1039663 0.103686
 0.1034701 0.1033145 0.1032189 0.1031793 0.1031926 0.1032473 0.1033337 0.1034262 0.1035063 0.1035344
 0.1034866 0.1033195 0.1030144 0.1025386 0.1018931 0.1010634 0.1000789 0.09894089 0.09770169 0.09637079
 0.09500784 0.0936227 0.09226661 0.09094584 0.08969563 0.0885186 0.08743549 0.08644607 0.08555069 0.08474267
 0.08398274 0.08325322 0.08246676 0.08160375 0.08056384 0.07935155 0.07791579 0.07630469 0.07454534 0.07271417
 0.07088229 0.06911012 0.06745837 0.06593549 0.06456573 0.06331285 0.06217384 0.06110715 0.06010382 0.05914536
 0.05822797 0.05735183 0.05651675 0.05572345 0.05497163 0.05425544 0.0535742 0.05292039 0.05229331 0.05168662
 0.05109894 0.05052363 0.04995906 0.04939883 0.04884318 0.04828899 0.04773961 0.04719644 0.04666375 0.04614504
 0.04564077 0.0451532 0.04467645 0.04421008 0.04374555 0.04328109 0.04281209 0.04233731 0.04185988 0.04137979
 0.0409046 0.0404346 0.03997506 0.03952548 0.03908464 0.03865147 0.03822044 0.03779191 0.03736347 0.03693727
 0.03651664 0.03610214 0.03569742 0.03529762 0.03490071 0.03449946 0.03408771 0.03366525 0.03322839 0.0327873
 0.03234327 0.03190882 0.03148696 0.03108263 0.03069731 0.0303276 0.02997351 0.02962745 0.029289 0.02895011
 0.02861049 0.02826381 0.02791085 0.02755106 0.02718658 0.026823 0.026462 0.02610993 0.02576597 0.02543206
 0.02510581 0.02478538 0.02447003 0.0241581 0.02385177 0.0235514 0.02325963 0.02297748 0.02270588 0.0224453
 0.02219517 0.02195561 0.02172467 0.02150234 0.02128414 0.02106978 0.02085327 0.02063458 0.02041042 0.02018174
 0.01995086 0.01971896 0.01949106 0.01926664 0.01904785 0.01883164 0.01861489 0.01839484 0.01816685 0.01793263
 0.01769073 0.01744734 0.01720483 0.0169677 0.01673882 0.01651532 0.01629801 0.016078 0.01585432 0.01562014
 0.01537469 0.01511877 0.0148526 0.01458318 0.01431088 0.01404215 0.01377643 0.01351458 0.01325582 0.01299795
 0.01274153 0.01248656 0.01223404 0.0119863 0.01174125 0.01149863 0.01125367 0.01100259 0.01074421 0.01047541
 0.01020302 0.009927767 0.009658599 0.00939812 0.009147815 0.008909017 0.008673745 0.008441654 0.008202608 0.007956241
 0.007698616 0.007430415 0.007155798 0.006876051 0.006599573 0.00632672 0.006063344 0.005808106 0.0055615 0.00532104
 0.005083437 0.004846906 0.004608153 0.004367516 0.004123662 0.003879363 0.003635242 0.003394751 0.003159302 0.002930057
 0.002707805 0.002490922 0.002279347 0.002071207 0.001866329 0.001664079 0.001464385 0.00126543 0.001066927 0.0008651734
 0.0006603366 0.0004507976 0.0002379381 2.510214E-05 -0.0001864464 -0.000391928 -0.0005922385 -0.0007864225 -0.0009762321 -0.001163608
 -0.001348111 -0.001530219 -0.001708643 -0.001882059 -0.002052944 -0.002220999 -0.002392301 -0.002568409 -0.002751645 -0.002943211
 -0.00313772 -0.003334977 -0.003527554 -0.003715171 -0.003896634 -0.004072452 -0.004247484 -0.004421892 -0.004599324 -0.004778838
 -0.004959334 -0.005139972 -0.005317922 -0.005494136 -0.005668519 -0.005842911 -0.006019422 -0.006198493 -0.006381745 -0.006566801
 -0.006753282 -0.006937854 -0.007119145 -0.007295953 -0.007467336 -0.007635617 -0.007800839 -0.007966382 -0.008132621 -0.00830029
 -0.00846939 -0.00863705 -0.008803155 -0.008965072 -0.009123536 -0.009280976 -0.009438303 -0.009600268 -0.009766053 -0.009936679
 -0.01010985 -0.01028213 -0.010453 -0.01061982 -0.01078507 -0.01094972 -0.01111573 -0.0112849 -0.01145596 -0.011629
 -0.01180215 -0.01197468 -0.01214731 -0.01232004 -0.01249378 -0.01266872 -0.01284335 -0.01301759 -0.01318898 -0.01335759
 -0.01352327 -0.01368628 -0.01384818 -0.01400869 -0.01416786 -0.01432509 -0.01447883 -0.01462929 -0.01477578 -0.01491972
 -0.01506232 -0.01520476 -0.01534853 -0.01549339 -0.01563974 -0.01578655 -0.01593344 -0.01608014 -0.0162266 -0.01637243
 -0.0165178 -0.01666062 -0.01680078 -0.01693577 -0.01706547 -0.01719009 -0.01730995 -0.01742906 -0.01754767 -0.01766947
 -0.01779384 -0.01792081 -0.01804897 -0.018175 -0.01829823 -0.01841549 -0.01852847 -0.01863735 -0.01874515 -0.01885443
 -0.01896657 -0.01908381 -0.0192033 -0.0193248 -0.0194445 -0.01956098 -0.01967473 -0.01978521 -0.01989699 -0.02001052
 -0.02012826 -0.02025036 -0.02037418 -0.02049942 -0.02062155 -0.02074071 -0.0208553 -0.02096593 -0.02107377 -0.02117962
 -0.02128581 -0.02139317 -0.0215039 -0.0216188 -0.02173951 -0.02186664 -0.02200116 -0.02214326 -0.0222937 -0.02245094
 -0.02261539 -0.02278222 -0.02295075 -0.02311524 -0.02327433 -0.02342708 -0.02357294 -0.02371684 -0.02385905 -0.02400453
 -0.02415321 -0.02430519 -0.02445997 -0.02461456 -0.02476892 -0.02492119 -0.02507186 -0.02522117 -0.02536969 -0.02551851
 -0.02566796 -0.02581894 -0.02597116 -0.02612498 -0.026279 -0.02643268 -0.02658456 -0.02673387 -0.02688031 -0.02702346
 -0.02716462 -0.02730376 -0.02744342 -0.02758376 -0.02772743 -0.02787459 -0.02802594 -0.02818129 -0.02833801 -0.02849576
 -0.02865086 -0.02880374 -0.02895369 -0.02910199 -0.02925162 -0.02940302 -0.02955899 -0.02971756 -0.02987801 -0.03003715
 -0.03019189 -0.030341 -0.03048229 -0.03061798 -0.0307482 -0.03087581 -0.03100171 -0.03112686 -0.03125164 -0.03137563
 -0.03149878 -0.03162141 -0.03174352 -0.03186589 -0.03198854 -0.03211176 -0.03223556 -0.03235994 -0.03248506 -0.03261157
 -0.03273941 -0.0328689 -0.03299944 -0.03313033 -0.03326057 -0.03338873 -0.03351405 -0.03363518 -0.03375257 -0.03386581
 -0.03397648 -0.03408498 -0.03419294 -0.03430093 -0.03440956 -0.03451889 -0.03462996 -0.0347428 -0.03485924 -0.0349794
 -0.03510345 -0.03523118 -0.0353592 -0.03548711 -0.0356103 -0.03572919 -0.03584262 -0.03595207 -0.03606074 -0.03616981
 -0.03628334 -0.03640027 -0.0365216 -0.03664409 -0.03676529 -0.03688291 -0.03699419 -0.03710083 -0.03720237 -0.03730275
 -0.03740319 -0.03750518 -0.03760954 -0.03771399 -0.03781838 -0.03792082 -0.03802117 -0.03812026 -0.03821816 -0.03831595
 -0.03841339 -0.03850915 -0.03860292 -0.0386923 -0.03877791 -0.03885946 -0.03893934 -0.0390211 -0.03910822 -0.03920649
 -0.03931786 -0.03944682 -0.0395913 -0.03975207 -0.03992425 -0.04010614 -0.04029397 -0.04048605 -0.04068211 -0.04088189
 -0.04108561 -0.04129368 -0.04150186 -0.04171005 -0.04190897 -0.04209813 -0.04226853 -0.04242043 -0.04255122 -0.04266179
 -0.04275475 -0.04282979 -0.04288803 -0.04292716 -0.04294349 -0.04293507 -0.04289748 -0.04283093 -0.0427312 -0.04260854
 -0.04246227 -0.04232101 -0.04219403 -0.04211111 -0.04208486 -0.04212025 -0.0422235 -0.04237135 -0.0425639 -0.04276018
 -0.04295764 -0.04311808 -0.04324086 -0.04331922 -0.04335677 -0.04337865 -0.04338621 -0.04339948 -0.04341469 -0.04343134
 -0.04344659 -0.04345391 -0.04345461 -0.04344722 -0.04343507 -0.04342094 -0.04340637 -0.04339396 -0.04338107 -0.04336751
 -0.04334958 -0.04332549 -0.04329623 -0.04326087 -0.04322631 -0.04319314 -0.04316777 -0.04315082 -0.04314297 -0.04314406
 -0.04314993 -0.04316022 -0.04317011 -0.04317971 -0.04318675 -0.04319171 -0.04319485 -0.04319616 -0.04319572 -0.04319362
 -0.04318969 -0.04318502 -0.04318019 -0.0431772 -0.04317769 -0.04318216 -0.04319153 -0.04320453 -0.04322111 -0.04323966
 -0.04325995 -0.04328028 -0.04330046 -0.04331868 -0.04333473 -0.04334847 -0.04336001 -0.04337237 -0.04338589 -0.04340483
 -0.04342885 -0.04345904 -0.04349419 -0.04353152 -0.04356982 -0.0436051 -0.0436376 -0.04366555 -0.0436908 -0.04371446
 -0.04373801 -0.04376321 -0.04378921 -0.04381629 -0.04384256 -0.04386738 -0.04389 -0.04391001 -0.0439281 -0.04394426
 -0.04395969 -0.04397446 -0.04399014 -0.04400677 -0.04402535 -0.04404571 -0.04406692 -0.04408858 -0.04410839 -0.04412613
 -0.04413994 -0.04414987 -0.04415497 -0.04415579 -0.04415209 -0.04414612 -0.04413956 -0.04413539 -0.04413669 -0.04414307
 -0.04415623 -0.04417067 -0.04418531 -0.04419462 -0.04419666 -0.04419207 -0.04418018 -0.04416709 -0.04415314 -0.04414427
 -0.04414066 -0.04414305 -0.04415091 -0.04415997 -0.04416968 -0.04417486 -0.04417625 -0.04417301 -0.04416712 -0.04416239
 -0.04416005 -0.04416412 -0.0441732 -0.04418783 -0.04420483 -0.04422221 -0.04423766 -0.04424931 -0.04425734 -0.04426109
 -0.04426265 -0.04426218 -0.04426223 -0.04426318 -0.04426644 -0.04427219 -0.04428034 -0.04429086 -0.04430274 -0.04431586
 -0.04432901 -0.04434209 -0.04435406 -0.04436471 -0.04437295 -0.04437858 -0.0443805 -0.04437915 -0.04437437 -0.04436747
 -0.04435957 -0.04435217 -0.04434676 -0.04434393 -0.04434451 -0.04434806 -0.04435477 -0.04436333 -0.04437358 -0.044384
 -0.04439444 -0.04440312 -0.04440987 -0.0444136 -0.04441426 -0.04441178 -0.04440629 -0.04439877 -0.04438965 -0.04438146
 -0.04437465 -0.04437215 -0.04437361 -0.04438008 -0.04439002 -0.04440176 -0.04441375 -0.04442347 -0.04443096 -0.0444351
 -0.04443759 -0.04443882 -0.04444076 -0.04444423 -0.04445012 -0.04445895 -0.04447008 -0.04448364 -0.04449767 -0.04451208
 -0.04452466 -0.04453531 -0.04454314 -0.04454837 -0.04455284 -0.0445569 -0.04456354 -0.04457268 -0.04458599 -0.04460249
 -0.04462092 -0.04464025 -0.04465812 -0.04467462 -0.04468883 -0.04470152 -0.04471303 -0.04472389 -0.04473447 -0.04474489
 -0.04475526 -0.04476568 -0.04477615 -0.04478705 -0.04479848 -0.04481035 -0.04482269 -0.04483501 -0.04484728 -0.04485901
 -0.04487025 -0.04488125 -0.04489233 -0.04490514 -0.04492022 -0.04494046 -0.04496562 -0.04499704 -0.04503302 -0.04507179
 -0.04511127 -0.04514833 -0.04518243 -0.04521179 -0.04523777 -0.0452603 -0.0452817 -0.04530272 -0.04532522 -0.04534993
 -0.04537711 -0.04540716 -0.04543775 -0.04546881 -0.04549713 -0.04552257 -0.04554502 -0.04556483 -0.0455864 -0.04561009
 -0.04564036 -0.04567655 -0.04571893 -0.04576626 -0.04581575 -0.04586664 -0.04591668 -0.04596502 -0.04601016 -0.0460509
 -0.04608533 -0.04611459 -0.04613769 -0.04616002 -0.04618301 -0.04621182 -0.0462486 -0.04629257 -0.04634432 -0.04639893
 -0.04645593 -0.04651262 -0.04656881 -0.04662514 -0.04668152 -0.04673728 -0.04679202 -0.04684279 -0.04688968 -0.04693107
 -0.04696825 -0.04700332 -0.04703775 -0.04707506 -0.04711546 -0.04716092 -0.04720999 -0.04726232 -0.04731613 -0.04737032
 -0.04742396 -0.04747638 -0.04752756 -0.04757728 -0.04762619 -0.04767416 -0.04772315 -0.04777326 -0.04782683 -0.04788402
 -0.04794491 -0.04800927 -0.04807349 -0.04813729 -0.04819672 -0.04825244 -0.04830453 -0.04835422 -0.04840459 -0.04845616
 -0.04851139 -0.04856978 -0.04863186 -0.04869648 -0.04876325 -0.04883007 -0.04889594 -0.04895857 -0.04901657 -0.04906991
 -0.04911771 -0.0491638 -0.04920855 -0.04925593 -0.04930661 -0.04936006 -0.0494163 -0.04947144 -0.04952535 -0.0495753
 -0.04962165 -0.04966533 -0.0497068 -0.04974842 -0.04979011 -0.04983287 -0.04987637 -0.04992065 -0.04996513 -0.05000924
 -0.05005231 -0.05009359 -0.0501328 -0.0501692 -0.05020408 -0.05023758 -0.05027156 -0.05030688 -0.05034284 -0.05037981
 -0.05041425 -0.0504458 -0.05047233 -0.05049365 -0.05051273 -0.05052991 -0.05055086 -0.05057551 -0.05060641 -0.0506426
 -0.05068183 -0.05072295 -0.05076177 -0.05079802 -0.05082895 -0.05085585 -0.05087892 -0.05090014 -0.05092142 -0.05094351
 -0.0509678 -0.05099279 -0.05101839 -0.05104254 -0.05106458 -0.05108386 -0.05110008 -0.05111362 -0.05112442 -0.05113384
 -0.05114193 -0.05115112 -0.05116149 -0.05117494 -0.05119118 -0.05120938 -0.05122904 -0.05124774 -0.0512655 -0.05128114
 -0.05129487 -0.05130663 -0.05131642 -0.05132392 -0.05133004 -0.05133493 -0.05134104 -0.05134987 -0.05136295 -0.0513817
 -0.05140474 -0.05143236 -0.05146131 -0.05149103 -0.05151936 -0.0515459 -0.05157041 -0.05159283 -0.05161373 -0.05163315
 -0.05165138 -0.05166843 -0.0516841 -0.05169872 -0.05171338 -0.05172869 -0.05174692 -0.05176805 -0.05179344 -0.05182181
 -0.05185238 -0.05188319 -0.05191239 -0.05193834 -0.05195954 -0.05197509 -0.05198389 -0.05198722 -0.05198473 -0.05198012
 -0.05197394 -0.0519693 -0.05196687 -0.05196574 -0.05196593 -0.05196485 -0.05196241 -0.05195745 -0.05195021 -0.05194191
 -0.05193291 -0.05192554 -0.05191973 -0.05191683 -0.05191588 -0.05191594 -0.0519157 -0.05191269 -0.05190736 -0.05189885
 -0.0518891 -0.0518793 -0.05186992 -0.0518619 -0.05185323 -0.05184344 -0.05183142 -0.05181655 -0.05180058 -0.05178358
 -0.05176757 -0.05175272 -0.05173902 -0.05172643 -0.05171337 -0.05169993 -0.05168578 -0.05167143 -0.05165911 -0.051649
 -0.05164335 -0.0516407 -0.05163983 -0.05163812 -0.05163108 -0.05161849 -0.05159765 -0.05157216 -0.05154324 -0.0515146
 -0.05148861 -0.05146532 -0.05144563 -0.05142689 -0.05140886 -0.0513886 -0.05136576 -0.05133821 -0.05130573 -0.05126826
 -0.05122594 -0.05118219 -0.05113743 -0.05109674 -0.05105998 -0.05103005 -0.05100501 -0.0509815 -0.05095642 -0.05092161
 -0.05087695 -0.05081724 -0.05074839 -0.05067348 -0.05059914 -0.05053141 -0.05047096 -0.05042005 -0.05037579 -0.0503378
 -0.05030355 -0.05027284 -0.05024187 -0.05021047 -0.0501727 -0.05012803 -0.05007401 -0.05001071 -0.04994174 -0.04986746
 -0.04979253 -0.04971692 -0.04964288 -0.04957026 -0.04949998 -0.0494315 -0.04936435 -0.04929766 -0.04922997 -0.04916098
 -0.04908996 -0.04901667 -0.04894122 -0.04886166 -0.04877674 -0.04868669 -0.04859048 -0.04849292 -0.04839499 -0.04829935
 -0.04820709 -0.04811305 -0.04801693 -0.04791403 -0.04780432 -0.04769208 -0.04757763 -0.04746659 -0.04735722 -0.04724459
 -0.04712598 -0.04698952 -0.04683679 -0.04666333 -0.04647672 -0.0462857 -0.04609609 -0.04591898 -0.04574991 -0.04559086
 -0.04543108 -0.04526516 -0.04508951 -0.04489996 -0.04470518 -0.04450601 -0.04431145 -0.04412383 -0.04393908 -0.04375761
 -0.0435637 -0.04335663 -0.04312254 -0.04286246 -0.04257951 -0.0422771 -0.04197427 -0.04167159 -0.04138297 -0.04110209
 -0.04082345 -0.04053903 -0.04023373 -0.03990617 -0.03954803 -0.03916488 -0.03875818 -0.03833236 -0.03789118 -0.03743202
 -0.03695659 -0.03645355 -0.0359216 -0.03534684 -0.03472605 -0.03406061 -0.03334942 -0.03261558 -0.0318602 -0.03110217
 -0.03034045 -0.02957086 -0.02879302 -0.02800157 -0.02720007 -0.02639962 -0.02559735 -0.02479734 -0.02398336 -0.0231317
 -0.02223478 -0.02126673 -0.02025557 -0.01920883 -0.01816433 -0.01714801 -0.01615957 -0.0152086 -0.01426824 -0.01333336
 -0.01238981 -0.01143446 -0.01046558 -0.009483955 -0.008466873 -0.007412818 -0.006275791 -0.005056752 -0.003744106 -0.002349969
 -0.0009329884 0.0004995497 0.001886908 0.003244356 0.004573667 0.005895401 0.007243438 0.008624653 0.0100568 0.0115471
 0.01309656 0.01474195 0.01649314 0.01840899 0.02051445 0.02283257 0.02538396 0.02811022 0.03101266 0.03398384
 0.03701526 0.04001956 0.04299242 0.04590159 0.0487523 0.0515836 0.05441423 0.05736243 0.06044674 0.06380897
 0.06741349 0.07127505 0.07529249 0.07930436 0.08327471 0.08707208 0.09079505 0.09446601 0.09820062 0.1020764
 0.1061112 0.1103372 0.1147039 0.1192045 0.1238043 0.1284997 0.1332512 0.1380568 0.1428567 0.1476481
 0.1524277 0.157196 0.1619712 0.1667334 0.1713805 0.1758897 0.1801049 0.1840723 0.1878019 0.1913883
 0.1950097 0.1986585 0.2024372 0.2061798 0.2097802 0.2131603 0.2162126 0.2190636 0.22174 0.2243236
 0.2268625 0.2292582 0.2315049 0.2334962 0.2352148 0.2367028 0.237962 0.2390955 0.2401018 0.2409915
 0.2417495 0.2422877 0.2426062 0.2426505 0.2424495 0.242039 0.241455 0.2407679 0.2400075 0.2392308
 0.2384602 0.2377272 0.2370543 0.2364541 0.2359668 0.2356044 0.2354179 0.2354266 0.2356353 0.236056
 0.2366136 0.2373032 0.238049 0.2388464 0.2397024 0.2406205 0.2416529 0.2427984 0.2440775 0.245482
 0.2469923 0.2486049 0.2502998 0.252083 0.2539539 0.2559226 0.2579991 0.2601953 0.2625227 0.264993
 0.2676148 0.2703967 0.2733435 0.2764611 0.2797516 0.2832199 0.2868671 0.2906967 0.2947101 0.2988932
 0.3032454 0.3077122 0.3122917 0.3169346 0.321655 0.3265113 0.331526 0.3368391 0.3424073 0.3482311
 0.3541758 0.3600154 0.3656549 0.3708902 0.3756969 0.3800284 0.3837572 0.3868392 0.3890463 0.390278
 0.3904136 0.3894004 0.3872043 0.3838167 0.3791791 0.3732666 0.3662621 0.3581704 0.3496222 0.340648
 0.3318138 0.3230977 0.3146331 0.3063896 0.2983189 0.2904248 0.2826954 0.275138 0.2677691 0.2605672
 0.2535187 0.2465895 0.2397318 0.2329749 0.2262968 0.219823 0.2136008 0.2077025 0.2021775 0.1969414
 0.191993 0.1872158 0.182594 0.1780983 0.1737255 0.1695064 0.1654417 0.161547 0.157822 0.1542682
 0.1508913 0.1477158 0.1447436 0.1420038 0.1394663 0.1371075 0.1348579 0.1326316 0.1303562 0.1279375
 0.125352 0.1225487 0.11957 0.116413 0.1131502 0.1097937 0.1064253 0.1030517 0.09979504 0.09666654
 0.09378553 0.09116193 0.08878208 0.08663846 0.0845928 0.08263382 0.08061513 0.0785386 0.07632703 0.07400256
 0.07157733 0.06908564 0.06658988 0.06412455 0.06175218 0.05950787 0.05743956 0.05557559 0.05394647 0.05256209
 0.05143299 0.05056196 0.04994928 0.04960809 0.0495395 0.0497617 0.05027704 0.05109562 0.0522186 0.05364055
 0.055358 0.05731273 0.05948651 0.06172368 0.06400108 0.0661343 0.06812696 0.06989064 0.07144958 0.07280787
 0.07398523 0.07500095 0.07589014 0.0766714 0.07742993 0.07821126 0.07911173 0.08019685 0.08145741 0.08292571
 0.0844607 0.08604234 0.08755957 0.08899058 0.09034593 0.09162391 0.09287965 0.09411537 0.09536794 0.09663873
 0.0979525 0.09931475 0.1007571 0.1022947 0.103978 0.105835 0.1079387 0.1103147 0.1130303 0.116085
 0.1194998 0.123273 0.1273969 0.1319149 0.1368418 0.142218 0.1480762 0.154346 0.1610354 0.1679751
 0.1751462 0.1824298 0.1898148 0.1972922 0.2048589 0.2124709 0.2200997 0.2275117 0.2346594 0.241209
 0.24714 0.252227 0.2564662 0.2597595 0.2620749 0.2633339 0.2635035 0.2625067 0.2603925 0.2571394
 0.2529021 0.247718 0.2417964 0.2351901 0.2281105 0.2205978 0.2128389 0.2048563 0.1968157 0.1887287
 0.1807561 0.1729059 0.1653102 0.1579693 0.1509442 0.1442303 0.1378355 0.1317647 0.1260336 0.1206557
 0.1156692 0.1110722 0.1068868 0.1030812 0.09964137 0.09651492 0.09367219 0.09104979 0.08862051 0.08631424
 0.08410783 0.08194296 0.07980218 0.07766598 0.07552698 0.0734055 0.07130146 0.06925706 0.06727532 0.06541836
 0.06369282 0.06218317 0.06089355 0.05989543 0.05917326 0.05872969 0.05852246 0.05847723 0.05854048 0.05861031
 0.05864499 0.05856625 0.05836203 0.05799632 0.05748987 0.05683969 0.05608075 0.05522234 0.05429237 0.05329809
 0.05225533 0.05116693 0.05004238 0.0488826 0.04769388 0.04647653 0.04523484 0.043969 0.04268242 0.04137512
 0.04004877 0.03870352 0.03733926 0.03595952 0.03456788 0.0331768 0.03180031 0.03046272 0.02918837 0.02800799
 0.02694794 0.02603158 0.02527806 0.02469087 0.02427827 0.0240228 0.02392539 0.02395232 0.02410184 0.02432663
 0.02462387 0.02493774 0.02526537 0.0255595 0.02581991 0.0260247 0.0261773 0.0262822 0.02634365 0.02637793
 0.02638516 0.02637627 0.02634238 0.02627906 0.02616764 0.02599015 0.02572611 0.02535542 0.02486846 0.0242526
 0.02351737 0.02265892 0.02170697 0.02066318 0.01957326 0.01844128 0.01731928 0.01621129 0.01516307 0.01417697
 0.01328461 0.01248623 0.01179692 0.01121458 0.01073805 0.01036261 0.01007431 0.009866476 0.009719483 0.009626022
 0.009567422 0.009538344 0.009525539 0.009530007 0.009546626 0.009584119 0.009644617 0.009738058 0.009868695 0.01004015
 0.0102547 0.01050917 0.01080419 0.0111306 0.01148823 0.01186055 0.01224659 0.01262487 0.01299445 0.01333765
 0.01365446 0.01393554 0.01418136 0.01438823 0.01455703 0.01468715 0.01478123 0.0148419 0.01487437 0.01488441
 0.01487778 0.01486055 0.01483553 0.01480629 0.01477119 0.01473055 0.01468203 0.01462468 0.01455987 0.01448725
 0.01441173 0.0143336 0.01425818 0.01418582 0.01412391 0.01407303 0.01404297 0.01403244 0.01404261 0.01406556
 0.0140786 0.01406806 0.0139916 0.01384259 0.01358692 0.01323927 0.01279657 0.0122921 0.01174696 0.01119308
 0.01065276 0.01014093 0.00966847 0.009236276 0.008846712 0.008496479 0.008185772 0.00790887 0.007665602 0.007446743
 0.007251779 0.007070384 0.006901901 0.006736054 0.006571618 0.006396888 0.006210021 0.005998568 0.005761401 0.005489348
 0.005183491 0.004840015 0.004464688 0.004059019 0.003638263 0.003209637 0.002800029 0.002421005 0.002105997 0.00186687
 0.001734906 0.001718132 0.001843204 0.002114423 0.00255505 0.003167727 0.003967272 0.004954576 0.006121939 0.007466061
 0.008945851 0.01055321 0.01222181 0.01394297 0.01565072 0.01734244 0.01897723 0.02056234 0.02208941 0.0235721
 0.02502308 0.02645089 0.02787052 0.02927129 0.03065743 0.03199622 0.03327948 0.03447159 0.03556012 0.03653565
 0.03739074 0.0381557 0.03883037 0.03947167 0.04008273 0.04072172 0.04139084 0.04213217 0.04294628 0.04385788
 0.04486722 0.04598888 0.04722203 0.04857387 0.05003872 0.05161382 0.05328495 0.05503849 0.05685272 0.05870868
 0.06058399 0.06246169 0.06432901 0.06617533 0.06800503 0.06981489 0.07162365 0.07343306 0.07526345 0.07711754
 0.079002 0.08091749 0.08284995 0.08479731 0.0867282 0.08863867 0.09048926 0.09227582 0.09396194 0.09554612
 0.09700481 0.09834303 0.09955536 0.1006565 0.1016569 0.1025818 0.1034501 0.1042952 0.1051368 0.1060091
 0.1069286 0.1079172 0.1089863 0.1101316 0.1113578 0.1126296 0.1139463 0.1152519 0.1165433 0.1177658
 0.1189177 0.1199681 0.12092 0.1217762 0.1225443 0.1232522 0.1239075 0.1245435 0.1251639 0.1257913
 0.1264235 0.1270694 0.1277163 0.1283622 0.1289788 0.1295553 0.1300501 0.1304479 0.1307082 0.130817
 0.1307523 0.1305055 0.1300833 0.1294831 0.1287413 0.1278593 0.1268953 0.1258529 0.124795 0.1237248
 0.1226935 0.1217023 0.1207841 0.1199383 0.1191817 0.1185109 0.1179302 0.1174277 0.1169961 0.1166087
 0.1162478 0.1158702 0.1154526 0.1149429 0.1143177 0.1135346 0.1125751 0.1114307 0.1100917 0.1085956
 0.1069421 0.1052 0.1033733 0.1015291 0.09966952 0.09783563 0.09602688 0.09425949 0.09253228 0.09084972
 0.08921033 0.08761316 0.08605596 0.08453435 0.08304673 0.08158957 0.08016153 0.07876357 0.07738407 0.07602451
 0.07464666 0.07324503 0.07175167 0.07015277 0.06837219 0.0663941 0.06416965 0.06168851 0.05895608 0.05597065
 0.05279691 0.04944064 0.04600965 0.04251358 0.03907202 0.03569335 0.0324757 0.02942238 0.02659266 0.0239846
 0.02162251 0.0195008 0.01762381 0.0159808 0.01456771 0.01336361 0.01236069 0.0115231 0.01084088 0.01026253
 0.009776575 0.009324876 0.00889662 0.008443351 0.007957763 0.007414998 0.006812472 0.006149744 0.005427341 0.004658369
 0.003843867 0.002997647 0.002119908 0.001218531 0.0002937567 -0.0006507145 -0.001612361 -0.002586094 -0.003566287 -0.004544068
 -0.005513996 -0.006466753 -0.007403901 -0.008320951 -0.00923063 -0.01013542 -0.01105278 -0.01198911 -0.01295145 -0.01394497
 -0.01495389 -0.0159791 -0.01698512 -0.01796988 -0.01889575 -0.01976131 -0.02054533 -0.02124906 -0.02187232 -0.02241778
 -0.02289671 -0.02331076 -0.02367003 -0.02397568 -0.02423339 -0.02444685 -0.02462166 -0.0247652 -0.02488551 -0.02498966
 -0.0250851 -0.02517322 -0.02525802 -0.02533244 -0.02539716 -0.02543661 -0.02544943 -0.02541454 -0.02532964 -0.02517553
 -0.02495034 -0.02464858 -0.02427085 -0.0238363 -0.02334986 -0.02285843 -0.0223709 -0.02195112 -0.02160693 -0.02139586
 -0.02131605 -0.02139559 -0.0216171 -0.02197378 -0.02243483 -0.02297254 -0.02355336 -0.02414897 -0.02473471 -0.02529311
 -0.02581129 -0.02628231 -0.02669885 -0.02705848 -0.02735656 -0.02759175 -0.02776597 -0.02787902 -0.0279395 -0.02794782
 -0.02791116 -0.0278294 -0.02770392 -0.02753494 -0.02732318 -0.0270713 -0.02678642 -0.02647358 -0.02614572 -0.02580765
 -0.02547225 -0.02513977 -0.02481687 -0.02449637 -0.02417667 -0.0238477 -0.02350341 -0.02314169 -0.02275861 -0.02236435
 -0.02195968 -0.02155689 -0.02115806 -0.02076698 -0.02038399 -0.02001248 -0.01965307 -0.01932497 -0.01903041 -0.01879972
 -0.01863147 -0.01853839 -0.01851029 -0.0185251 -0.01856906 -0.01860293 -0.01861969 -0.0185916 -0.01852041 -0.01839815
 -0.01822787 -0.01801049 -0.01774464 -0.01743031 -0.01706459 -0.01664565 -0.0161757 -0.01565345 -0.01508968 -0.01448452
 -0.01385588 -0.01320463 -0.0125546 -0.01190731 -0.01129469 -0.01071885 -0.01021336 -0.009777701 -0.00942955 -0.009162048
 -0.008965333 -0.008828319 -0.008723776 -0.008642536 -0.008559323 -0.00847079 -0.008363064 -0.008240402 -0.008099549 -0.007952382
 -0.007803124 -0.007662932 -0.007538227 -0.007426401 -0.007330375 -0.007231839 -0.00712965 -0.007001111 -0.006844112 -0.006645026
 -0.006403418 -0.006125679 -0.005814826 -0.005502682 -0.005194614 -0.004935704 -0.004727274 -0.004600218 -0.004545956 -0.004564428
 -0.004638514 -0.004745446 -0.004864928 -0.004969166 -0.00504088 -0.005058036 -0.005016616 -0.004904995 -0.004740588 -0.004522759
 -0.004284787 -0.004033039 -0.003796061 -0.003580419 -0.003389335 -0.003224963 -0.003063574 -0.002903878 -0.002714653 -0.002495209
 -0.002227156 -0.001912012 -0.001547418 -0.00113646 -0.0006862201 -0.0002026295 0.0002995488 0.0008119403 0.001315173 0.001804934
 0.002268175 0.002707853 0.003122356 0.003514379 0.003886236 0.004234404 0.004558491 0.004854043 0.00511927 0.005355557
 0.005562411 0.005745208 0.005904259 0.006045358 0.006168834 0.006280727 0.006381226 0.006474618 0.006560491 0.00663881
 0.006709067 0.006768808 0.006819473 0.006861276 0.00690032 0.006943682 0.007003206 0.007092813 0.007225337 0.007415883
 0.007667457 0.007988869 0.008366372 0.008800114 0.009264894 0.009756257 0.01024915 0.01073973 0.01120834 0.01165319
 0.01205618 0.01241624 0.01271271 0.01294501 0.01309853 0.0131759 0.01318241 0.01312517 0.01302992 0.01290524
 0.01278219 0.01266872 0.01259023 0.01255301 0.01257449 0.01265431 0.01279989 0.01300143 0.01325589 0.01355502
 0.01389366 0.01427437 0.01469718 0.0151636 0.01567583 0.01621874 0.01679179 0.01737303 0.01796121 0.0185494
 0.01913842 0.01973848 0.02034993 0.02098134 0.02162935 0.0222879 0.02295049 0.02359999 0.02422916 0.02482057
 0.02536473 0.02584681 0.02625323 0.02656925 0.02678505 0.02688733 0.02688779 0.02678111 0.02660805 0.02637294
 0.02613125 0.02589118 0.02569903 0.0255606 0.02549831 0.0255138 0.02560589 0.02577377 0.02600546 0.02630039
 0.02664945 0.02705245 0.0275049 0.0280047 0.02854609 0.02912356 0.0297282 0.03034833 0.03096893 0.03157629
 0.03214891 0.03269836 0.03321128 0.03375262 0.03433456 0.03504677 0.03592652 0.03696272 0.03817559 0.03941176
 0.04065593 0.04182169 0.04290247 0.04393345 0.04491514 0.0458653 0.04677439 0.04759047 0.04830231 0.04883878
 0.04919885 0.04934258 0.0492786 0.04899877 0.04852536 0.04787459 0.04708483 0.04618802 0.04522477 0.04422378
 0.04321735 0.04222092 0.04126539 0.04035837 0.03953496 0.03880138 0.03818625 0.03769468 0.03732687 0.03708365
 0.03692476 0.03684645 0.03678406 0.03673385 0.03663841 0.03649906 0.03628799 0.0360135 0.03567906 0.03530025
 0.03490337 0.03450561 0.03414065 0.03381053 0.03353357 0.03328882 0.03307036 0.0328573 0.03263666 0.03241099
 0.03217657 0.031949 0.0317312 0.03152891 0.03134374 0.03116912 0.03100462 0.03085018 0.03070704 0.03059625
 0.03052078 0.03051175 0.03056963 0.03071421 0.03094114 0.0312508 0.03163495 0.03208147 0.0325781 0.03310815
 0.03365378 0.03419739 0.0347175 0.03519864 0.03562164 0.03597542 0.03624925 0.03643589 0.0365421 0.03656431
 0.03653536 0.03645644 0.03637601 0.03629732 0.03625356 0.03624481 0.03626977 0.03632571 0.03639177 0.03646792
 0.03654158 0.03661754 0.03670149 0.03679914 0.03692389 0.03707804 0.03727014 0.0374997 0.03776861 0.03807761
 0.03842726 0.03881941 0.03925583 0.03973386 0.0402545 0.04080828 0.0413946 0.04200044 0.04262501 0.04325135
 0.04387851 0.04448511 0.04507022 0.04561665 0.04612526 0.04659389 0.04702511 0.04742823 0.04780524 0.04816676
 0.04851229 0.04884817 0.04916688 0.04946562 0.04972511 0.04993049 0.05005746 0.05008677 0.05000471 0.04979957
 0.04947196 0.04901966 0.04844642 0.04775287 0.04693972 0.0460067 0.04495765 0.04379239 0.04252727 0.04116397
 0.03973649 0.03824847 0.03674383 0.03522506 0.03372652 0.03224783 0.03080398 0.02939734 0.02803579 0.02673072
 0.02549877 0.02435288 0.02331462 0.02237811 0.02155252 0.02080612 0.02013047 0.01948972 0.01887043 0.01825746
 0.01764411 0.01703504 0.01642944 0.01583792 0.01526093 0.01471365 0.01419633</values></Ydata></AB><ScSm><Ydata ylabel="Single channel"><values byteorder="INTEL" format="FLOAT32" numvalues="1814"> 0.08199985 0.08211023 0.08223337 0.08237651 0.08253472 0.08269379 0.08283971 0.08296846 0.08308491 0.08319165
 0.08328734 0.08338038 0.08349182 0.08363491 0.08379836 0.08395414 0.08407964 0.08417714 0.08427533 0.08440165
 0.08454414 0.08464953 0.08467229 0.08462588 0.08457746 0.08458783 0.08466905 0.0848166 0.08505133 0.08536468
 0.08563446 0.08570081 0.08556667 0.08543079 0.0854681 0.08565266 0.08583684 0.08591619 0.08587249 0.08575733
 0.08571111 0.08592269 0.08646182 0.08713447 0.08753648 0.08728488 0.08627369 0.0848176 0.08358027 0.08322824
 0.08395099 0.08525404 0.08632839 0.08670337 0.08650556 0.08612062 0.08578832 0.08559172 0.08563291 0.08601534
 0.08667679 0.08732376 0.0875445 0.0870745 0.08609085 0.08519092 0.08490973 0.08529979 0.08609934 0.08705622
 0.08771485 0.08717166 0.08485401 0.08175464 0.0801587 0.08154736 0.08505111 0.08835597 0.08981889 0.08935827
 0.08780545 0.08615246 0.08528574 0.08568498 0.08710963 0.08884056 0.09025842 0.09102419 0.09092835 0.08997719
 0.08859159 0.08743455 0.08704232 0.08766922 0.08918907 0.09093581 0.09195922 0.09177157 0.09071842 0.08952131
 0.08873685 0.088723 0.08967011 0.09138083 0.09328133 0.09484749 0.09588395 0.09640925 0.09652106 0.09637702
 0.09612052 0.09585831 0.09576835 0.09601343 0.09642926 0.09655014 0.09612574 0.09546001 0.09510525 0.09529153
 0.09572716 0.09595241 0.09579683 0.09530243 0.09425831 0.09229524 0.08963695 0.08723145 0.08582764 0.08543842
 0.08593877 0.08740485 0.08939475 0.09069218 0.09051698 0.08957124 0.08928511 0.09026927 0.09191738 0.09331042
 0.09411913 0.09467444 0.09544066 0.09648821 0.0973438 0.09732985 0.0962445 0.0948061 0.0941835 0.09486988
 0.09620643 0.09720703 0.09760658 0.09785723 0.09831988 0.09873814 0.09845597 0.09711264 0.09524474 0.09411737
 0.09468727 0.09665613 0.09861343 0.09910934 0.09769056 0.09514403 0.0928299 0.09170273 0.09193125 0.09327497
 0.09542777 0.09788518 0.09986289 0.10069 0.1002732 0.09908015 0.09763239 0.09602346 0.09408857 0.09214142
 0.09119191 0.09200989 0.09413937 0.0962519 0.09737834 0.09746295 0.09683547 0.09555865 0.09349167 0.09093243
 0.08892458 0.08850242 0.08952779 0.09069299 0.09090903 0.09033008 0.08978775 0.08963761 0.08954526 0.08917463
 0.0886829 0.08848929 0.08874127 0.08913507 0.08924647 0.08893101 0.08836173 0.08777888 0.08726446 0.08669829
 0.08594181 0.08513285 0.0846928 0.08488531 0.08546264 0.08591368 0.0859719 0.08572948 0.08533589 0.0847488
 0.08381658 0.08257932 0.08142641 0.08082817 0.08087856 0.08121935 0.08142655 0.08133281 0.08098561 0.08048464
 0.079916 0.07933214 0.07875933 0.07825358 0.07789525 0.07768361 0.07750247 0.07723388 0.07685439 0.07640052
 0.07589588 0.07534228 0.07475875 0.07420377 0.07374374 0.07339636 0.07312185 0.0728683 0.07259801 0.07227641
 0.07188107 0.07142945 0.07096659 0.07052323 0.07010686 0.0697247 0.06938981 0.06910226 0.06883796 0.06856346
 0.06826179 0.06793921 0.06760682 0.06726716 0.06692322 0.06658789 0.0662775 0.0660013 0.06575467 0.06552023
 0.06528639 0.06506316 0.06486064 0.06465684 0.06441468 0.06413001 0.06383774 0.06357246 0.06334248 0.06313691
 0.06293893 0.06273121 0.06249972 0.06224216 0.06197927 0.06175087 0.06158624 0.06148122 0.06141146 0.0613539
 0.0612855 0.06118438 0.06105003 0.06090643 0.0607734 0.06064807 0.06051941 0.06038838 0.06027131 0.06018822
 0.06014303 0.06011551 0.06007988 0.06002685 0.05996185 0.05989541 0.05984274 0.05981332 0.05979153 0.05974743
 0.0596766 0.05961117 0.05958208 0.05958359 0.05958359 0.05956107 0.05952604 0.05950317 0.05950243 0.05951209
 0.05951817 0.05952152 0.05953408 0.05956301 0.05959808 0.05961456 0.05959549 0.0595527 0.05951717 0.05950865
 0.05952371 0.05955121 0.05958621 0.05962602 0.05966257 0.05968465 0.05968782 0.0596803 0.059675 0.05967518
 0.05967172 0.05965554 0.05962727 0.05959379 0.05955996 0.05952538 0.05948608 0.05943904 0.05938514 0.05932622
 0.05926061 0.05918423 0.05909481 0.05899481 0.05889325 0.05880344 0.05873127 0.05866454 0.05858041 0.05846614
 0.05832953 0.05819011 0.05806334 0.0579516 0.05784675 0.05774055 0.05763303 0.05753084 0.05743914 0.05735753
 0.05728269 0.0572133 0.0571532 0.05710996 0.05708902 0.05708735 0.05709361 0.0570967 0.05709442 0.05709358
 0.05710167 0.05711981 0.05714386 0.05717137 0.05720608 0.0572538 0.05731397 0.05737755 0.05743626 0.05749215
 0.05755503 0.05763201 0.05772347 0.0578263 0.05793566 0.0580445 0.05814839 0.05825127 0.0583619 0.05848381
 0.05861293 0.05874613 0.0588871 0.05904134 0.05920834 0.05938278 0.05956236 0.05975084 0.05995239 0.06016544
 0.06038371 0.06060215 0.06082123 0.06104669 0.06128483 0.06153739 0.06180057 0.06206865 0.06233886 0.06261288
 0.06289352 0.06317981 0.06346719 0.06375442 0.06404851 0.06435814 0.06468272 0.06501181 0.06533568 0.06565309
 0.06596866 0.06628662 0.06660886 0.06693634 0.06726995 0.06760976 0.06795345 0.06829618 0.0686332 0.06896409
 0.06929273 0.06962302 0.06995513 0.07028557 0.07061008 0.07092609 0.07123551 0.0715445 0.0718581 0.07217406
 0.07248425 0.07278416 0.07307862 0.07337612 0.07367893 0.07398169 0.07427905 0.07457186 0.07486397 0.07515489
 0.07543848 0.07571049 0.07597588 0.07624596 0.07652834 0.07682231 0.07712471 0.07743582 0.07775535 0.078077
 0.07839304 0.07870357 0.07901569 0.07933393 0.07965606 0.07997727 0.08029493 0.08061001 0.08092605 0.08124509
 0.08156417 0.08187909 0.08219337 0.08251816 0.08286069 0.08321799 0.08358448 0.08396031 0.08434623 0.08473466
 0.08511461 0.08548523 0.08585569 0.08622792 0.08658767 0.08691901 0.08722217 0.08751064 0.08779719 0.08809186
 0.0884079 0.08875768 0.08914102 0.08954422 0.08994959 0.09034391 0.09072311 0.09109475 0.09147172 0.0918579
 0.09224185 0.09260824 0.09295246 0.09328218 0.09360804 0.0939337 0.09425089 0.09454222 0.09479001 0.09498128
 0.0951042 0.09514618 0.0951008 0.0949728 0.09476979 0.0944898 0.09412243 0.09366049 0.09310608 0.09246527
 0.09174187 0.09094226 0.09009009 0.08923749 0.08846138 0.08784547 0.08745973 0.08734669 0.08751643 0.08794498
 0.08857232 0.08930217 0.09001203 0.09057842 0.09090873 0.09096232 0.09075332 0.0903378 0.0897925 0.08919211
 0.08859363 0.08803311 0.08753529 0.08713198 0.08687786 0.08684807 0.0871152 0.08773006 0.08872392 0.09011038
 0.09185679 0.093846 0.09588885 0.09780052 0.09947909 0.1009218 0.1021842 0.1033316 0.1044107 0.1054407
 0.1064176 0.107329 0.1081659 0.1089221 0.1095877 0.1101492 0.1105937 0.1109131 0.1111095 0.1112041
 0.1112426 0.1112904 0.1114209 0.1116959 0.1121372 0.1127041 0.1132999 0.1138148 0.1141739 0.1143582
 0.1144056 0.1144174 0.1145752 0.1151196 0.1162523 0.1180062 0.1201953 0.1225065 0.1246607 0.1265149
 0.1280555 0.1293346 0.1304183 0.1313627 0.1322089 0.132984 0.1337067 0.1343915 0.1350519 0.1356996
 0.1363405 0.1369728 0.1375928 0.1382017 0.1388038 0.1394006 0.1399916 0.1405793 0.14117 0.1417678
 0.1423702 0.1429704 0.1435636 0.1441503 0.1447328 0.1453113 0.1458855 0.1464566 0.1470254 0.147591
 0.1481532 0.1487131 0.1492685 0.1498118 0.1503371 0.1508469 0.1513493 0.151849 0.1523448 0.1528327
 0.15331 0.1537761 0.1542315 0.1546777 0.1551166 0.1555483 0.1559705 0.1563809 0.1567816 0.1571786
 0.1575766 0.1579761 0.1583759 0.1587767 0.1591805 0.159589 0.1600039 0.1604267 0.1608569 0.1612906
 0.1617234 0.1621535 0.1625819 0.1630094 0.1634353 0.1638589 0.1642831 0.1647144 0.1651572 0.1656078
 0.166055 0.1664895 0.1669112 0.1673294 0.1677557 0.1681949 0.1686423 0.1690878 0.1695242 0.1699522
 0.1703792 0.1708107 0.1712432 0.1716668 0.1720757 0.1724737 0.1728679 0.1732619 0.1736559 0.1740499
 0.1744457 0.1748444 0.1752433 0.1756383 0.1760286 0.1764173 0.1768052 0.1771906 0.1775746 0.1779627
 0.1783572 0.1787525 0.1791411 0.1795215 0.1798981 0.1802763 0.1806583 0.1810436 0.1814321 0.1818236
 0.1822158 0.1826043 0.1829866 0.1833639 0.1837391 0.1841153 0.1844937 0.1848722 0.1852477 0.1856218
 0.1859989 0.1863793 0.1867585 0.1871343 0.1875093 0.1878877 0.1882717 0.1886614 0.1890543 0.1894458
 0.1898326 0.1902141 0.1905928 0.1909732 0.1913563 0.1917382 0.1921156 0.1924887 0.1928588 0.193227
 0.193596 0.1939682 0.1943419 0.1947127 0.1950781 0.1954384 0.1957959 0.1961537 0.1965128 0.1968711
 0.1972288 0.1975892 0.1979535 0.1983183 0.1986814 0.1990433 0.1994062 0.1997733 0.2001463 0.2005226
 0.2008971 0.2012684 0.2016376 0.2020048 0.2023711 0.2027393 0.2031102 0.2034825 0.2038561 0.2042298
 0.2046008 0.2049715 0.2053495 0.205736 0.2061252 0.2065145 0.2069057 0.2072991 0.2076947 0.2080945
 0.2084985 0.2089042 0.2093115 0.2097208 0.2101301 0.2105392 0.2109518 0.2113688 0.2117889 0.2122125
 0.2126378 0.2130603 0.213479 0.2138958 0.2143087 0.2147166 0.2151265 0.2155434 0.2159605 0.216371
 0.2167763 0.2171797 0.2175837 0.2179926 0.2184082 0.2188264 0.2192456 0.2196658 0.2200808 0.2204858
 0.220886 0.2212873 0.2216883 0.2220922 0.2225061 0.2229277 0.2233467 0.223759 0.2241663 0.224572
 0.2249839 0.225405 0.2258234 0.2262281 0.2266254 0.2270218 0.2274132 0.2277985 0.2281819 0.2285548
 0.2288904 0.2291284 0.2291141 0.2285268 0.2268363 0.2233109 0.2171612 0.2078602 0.1954712 0.1807373
 0.1648668 0.1491461 0.1345902 0.1218166 0.111144 0.1027341 0.09668053 0.09308885 0.0921454 0.09421359
 0.09996289 0.1099832 0.1233261 0.1362105 0.1434065 0.1421886 0.1348109 0.1264622 0.1210231 0.1191339
 0.1194907 0.1207976 0.1225392 0.1248385 0.1280106 0.1321021 0.1368412 0.1420907 0.1481169 0.155194
 0.1630816 0.1711061 0.1787278 0.1858986 0.1928699 0.1997617 0.2063852 0.2124251 0.2176876 0.2221688
 0.2259875 0.2293054 0.2322655 0.2349603 0.2374468 0.2397551 0.2418463 0.2435902 0.2448388 0.2455454
 0.2458208 0.2458804 0.2459249 0.246056 0.2462902 0.2466205 0.2470404 0.2475355 0.2480892 0.2486908
 0.2493266 0.2499763 0.2506239 0.2512571 0.2518623 0.252432 0.2529725 0.2534916 0.2539883 0.2544592
 0.2549035 0.2553244 0.2557324 0.2561396 0.2565477 0.2569496 0.2573419 0.2577245 0.2580935 0.2584453
 0.2587801 0.2590982 0.2594013 0.2596968 0.2599922 0.2602875 0.2605804 0.2608712 0.2611586 0.2614414
 0.2617221 0.2620023 0.2622774 0.2625441 0.2628061 0.2630674 0.2633287 0.2635922 0.2638603 0.2641315
 0.2644039 0.2646784 0.2649533 0.2652227 0.2654841 0.2657427 0.2660092 0.2662946 0.2666001 0.2669134
 0.2672214 0.2675242 0.2678298 0.2681398 0.2684503 0.2687597 0.2690686 0.2693791 0.2696956 0.2700188
 0.2703387 0.2706414 0.2709208 0.2711824 0.2714393 0.2717057 0.2719865 0.2722749 0.2725621 0.2728482
 0.2731385 0.2734361 0.2737404 0.2740471 0.2743526 0.274662 0.2749859 0.2753272 0.2756768 0.2760279
 0.2763808 0.2767353 0.2770883 0.2774408 0.2777974 0.2781579 0.2785169 0.2788737 0.2792404 0.2796351
 0.2800594 0.2804881 0.2808931 0.2812756 0.2816604 0.2820667 0.2824953 0.2829323 0.283348 0.2837104
 0.2840259 0.2843523 0.2847493 0.2852212 0.2857217 0.2862037 0.2866535 0.2870833 0.2875064 0.2879224
 0.2883205 0.2886922 0.2890464 0.289416 0.2898387 0.2903171 0.2908103 0.2912766 0.2917095 0.2921228
 0.2925232 0.2929116 0.2932788 0.2935914 0.2938243 0.2940292 0.2943285 0.2948017 0.2953951 0.2959762
 0.2964653 0.2968863 0.2972922 0.2976955 0.2980819 0.2984285 0.2986662 0.2987082 0.2986053 0.29861
 0.298974 0.2996922 0.3005229 0.3012351 0.3017647 0.3021685 0.3025209 0.3028622 0.3031743 0.3033829
 0.3034364 0.3034196 0.3035432 0.3039537 0.3045696 0.3051693 0.3056245 0.3059754 0.3063099 0.3066601
 0.3069866 0.3071641 0.307037 0.3066348 0.3063197 0.3065536 0.3074502 0.3086403 0.3096372 0.3102695
 0.3106836 0.3110056 0.3111581 0.3110061 0.3105196 0.3097866 0.3090695 0.3088529 0.3095263 0.3108925
 0.3122442 0.3130744 0.3135155 0.3139862 0.3146417 0.3153063 0.3157654 0.3159595 0.3159447 0.3157665
 0.3154388 0.3150885 0.3150408 0.3155921 0.3166669 0.3178324 0.3187057 0.3192559 0.3196337 0.3197296
 0.3190542 0.3173132 0.3151735 0.3141076 0.3150903 0.3175731 0.320078 0.3216607 0.3224338 0.3228841
 0.3232343 0.3233774 0.3228552 0.3210038 0.317849 0.3149059 0.3142716 0.3165639 0.3202305 0.3230538
 0.3238553 0.3227541 0.320603 0.3185829 0.3177856 0.3186238 0.3206565 0.3230428 0.3250491 0.3262425
 0.3265209 0.326081 0.3253357 0.3247959 0.3247546 0.3248565 0.3243112 0.3229135 0.3214293 0.3204116
 0.319178 0.3169225 0.3145138 0.3139705 0.3159736 0.31889 0.3206632 0.3209187 0.3206278 0.320138
 0.3183409 0.3141315 0.3084535 0.3042895 0.3041056 0.3073907 0.3111658 0.3129064 0.3125346 0.3115851
 0.3110281 0.3102367 0.3079255 0.303964 0.3000785 0.2983114 0.2987457 0.2993962 0.2984133 0.2954133
 0.2905346 0.283919 0.2771745 0.2737314 0.2758337 0.2817388 0.2872454 0.2893425 0.2871894 0.2808447
 0.2714841 0.2626582 0.2587381 0.2609072 0.2657974 0.2687562 0.2675351 0.2624205 0.2543174 0.2442795
 0.2344649 0.2279187 0.2266242 0.2299143 0.2346467 0.2366336 0.2327774 0.2234739 0.2131706 0.2070312
 0.2061641 0.2069283 0.2052619 0.2005129 0.1946862 0.1896098 0.1858616 0.1832116 0.1809633 0.1784628
 0.1756317 0.1721929 0.1667039 0.158161 0.1486873 0.1425295 0.141665 0.1441018 0.1470534 0.1497752
 0.1522794 0.1533364 0.1517656 0.148847 0.1476012 0.149574 0.153336 0.1563035 0.1573392 0.1572434
 0.157115 0.1569213 0.1560499 0.1548604 0.1547662 0.1564911 0.1589743 0.1605268 0.1605543 0.1596348
 0.1584027 0.1569961 0.1553414 0.1534088 0.1512012 0.148771 0.1462185 0.1435703 0.1407592 0.1377648
 0.1345916 0.131001 0.1265085 0.1210273 0.1154799 0.111254 0.1088405 0.1075168 0.1065763 0.1060438
 0.1056824 0.1043838 0.1017446 0.09968368 0.1011697 0.1072366 0.1159677 0.1243809 0.1306275 0.1342917
 0.1355102 0.1349275 0.1345977 0.1376792 0.1460231 0.1582541 0.1710039 0.1817967 0.1900468 0.1957771
 0.1987157 0.1990532 0.1983402 0.1989411 0.2024728 0.2087813 0.2161256 0.2219351 0.2238858 0.2218271
 0.2192881 0.2213657 0.2295067 0.2394617 0.2459946 0.2485335 0.2504025 0.2536815 0.2573495 0.2601867
 0.2629477 0.2668205 0.2712525 0.2742843 0.2742416 0.2704598 0.2633331 0.2547989 0.2480514 0.2451725
 0.2450969 0.2450743 0.2436472 0.2407531 0.2359113 0.228957 0.222382 0.2200579 0.2228058 0.2272285
 0.2296557 0.2296248 0.2287945 0.2278584 0.2256768 0.2210937 0.2148254 0.2091047 0.2054079 0.2029866
 0.1999895 0.1954739 0.1896628 0.1828148 0.1749932 0.1669782 0.1604207 0.1565659 0.1551414 0.1548309
 0.1546801 0.1547934 0.1558279 0.1582162 0.161923 0.1666003 0.1718718 0.177714 0.1845259 0.1924745
 0.2008379 0.2084762 0.2149951 0.2210054 0.2271346 0.2331583 0.2382686 0.241978 0.2446291 0.2471259
 0.250218 0.2539279 0.2575663 0.2603355 0.2620332 0.2632133 0.2646052 0.266394 0.2681787 0.2695849
 0.2706981 0.2718727 0.2733454 0.2750977 0.2768996 0.2784587 0.2797382 0.281163 0.2832955 0.2862346
 0.2894834 0.2924397 0.2948715 0.2968716 0.2985131 0.2996914 0.3002702 0.3002791 0.2999235 0.2994354
 0.2989556 0.2985394 0.298211 0.2979807 0.2978433 0.2977971 0.2978653 0.2980958 0.298552 0.2993017
 0.3003831 0.3017596 0.303322 0.3049432 0.3065168 0.3079372 0.3090799 0.3098354 0.310155 0.3100438
 0.309525 0.308625 0.307366 0.3057315 0.3036673 0.3012043 0.2986462 0.2966039 0.2957362 0.2963452
 0.2981637 0.300521 0.3027364 0.3044237 0.3055316 0.3061943 0.3065692 0.306763 0.306831 0.3067998
 0.3066872 0.3065132 0.3062986 0.306053 0.3057713 0.3054482 0.3051118 0.3048461 0.304762 0.3049152
 0.3052437 0.3056026 0.3058607 0.3059604 0.3058972 0.3056746 0.3052854 0.3047243 0.304014 0.3032244
 0.3024613 0.301818 0.3013297 0.300965 0.300651 0.3002862 0.2997274 0.2988017 0.2973965 0.2955566
 0.2934482 0.2911902 0.288753 0.2860516 0.2830979 0.2800185 0.2769458 0.2739339 0.2709717 0.2680424
 0.2651695 0.2624187 0.2598508 0.2574642 0.2551824 0.2528915 0.2504859 0.2478916 0.2450722 0.2420187
 0.2387225 0.2351488 0.2312391 0.2269355 0.2221987 0.2170052 0.2113487 0.205266 0.1988685 0.1923412
 0.1859045 0.1797699 0.1741158 0.169082 0.16477 0.1612392 0.1585017 0.156522 0.1552324 0.1545573
 0.1544355 0.1548285 0.155713 0.1570628 0.1588254 0.1609025 0.1631434 0.1653676 0.1674218 0.1692389
 0.1708461 0.1723171 0.1737218 0.1751159 0.1765531 0.1780781 0.1796972 0.1813612 0.1829851 0.184489
 0.1858248 0.1869744 0.1879351 0.1887141 0.1893371 0.1898667 0.1904113 0.1911066 0.1920702 0.1933527
 0.1949173 0.1966651 0.1984918 0.2003341 0.2021758 0.2040261 0.2058991 0.2078003 0.2097161 0.2116266
 0.2135503 0.2155884 0.2179216 0.2207525 0.2242295 0.228388 0.2331256 0.2382181 0.2433675 0.2482674
 0.2526601 0.2563697 0.2593104 0.2614815 0.2629535 0.2638513 0.2643388 0.2645963 0.2647791 0.2649741
 0.2651975 0.2654346 0.2656751 0.2659151 0.2661422 0.2663333 0.2664684 0.2665499 0.2666071 0.266685
 0.2668232 0.2670361 0.2672931 0.2675202 0.2676349 0.2675915 0.2673946 0.2670768 0.2666743 0.2662151
 0.2657137 0.2651688 0.2645602 0.2638456 0.2629685 0.261872 0.2605066 0.2588339 0.2568493 0.2546128
 0.2522509 0.2499202 0.2477531 0.2458078 0.2440483 0.2423662 0.2406285 0.2387273 0.2366266 0.2343816
 0.2321009 0.2298729 0.2277274 0.2256523 0.2236281 0.221647 0.2197149 0.2178395 0.2160209 0.2142553
 0.2125417 0.210878 0.2092646 0.2077162 0.2062567 0.2049082 0.2037011 0.2026845 0.2018958 0.20132
 0.2008891 0.2005215 0.2001681 0.1998356 0.1995588 0.1993349 0.1990923 0.198737 0.1982237 0.1975863
 0.1969224 0.1963459 0.1959311 0.1956879 0.1955702 0.1954845 0.1952987 0.1948783 0.1941256 0.1929843
 0.1914329 0.1894954 0.1872492 0.1848164 0.1823523 0.1800255 0.1779875 0.1763485 0.1751551 0.1743596
 0.173826 0.1734074 0.1730356 0.1727481 0.1726449 0.1727861 0.1730863 0.1733396 0.1734077 0.1733652
 0.1734203 0.173722 0.1742647 0.1749312 0.1755846 0.1761372 0.176559 0.1768454 0.1770066 0.1770753
 0.1770838 0.1770313 0.1768971 0.1766671 0.1763358 0.1759115 0.1754173 0.1748563 0.1741891 0.1733753
 0.1724049 0.1712774 0.1699964 0.1685823 0.1670449 0.1653804 0.1636687 0.1621485 0.1611308 0.1608272
 0.1612352 0.162139 0.16324 0.164335 0.1653399 0.1661614 0.1666878 0.1669817 0.1673775 0.1682682
 0.1697691 0.171599 0.1732869 0.174491 0.1751145 0.1751941 0.1748033 0.1740474 0.1730079 0.1716824
 0.1700583 0.1681887 0.1661376 0.1639567 0.161754 0.1596646 0.1577616 0.1560793 0.1546359 0.1534416
 0.1525786 0.1518121 0.1496515 0.1438666 0.1346304 0.1265622 0.1252216 0.1311018 0.1389557 0.1434691
 0.1438126 0.1423238 0.1409344 0.140082 0.1396997 0.1398201 0.1404287 0.1413488 0.1422974 0.1429886
 0.1432768 0.1431484 0.1424904 0.1408816 0.1375817 0.1317923 0.1232608 0.11286 0.1024188 0.09376155
 0.08781333 0.08440468 0.0826505 0.08156497 0.08063561 0.08000536 0.08013476 0.08132371 0.08354364 0.08658081
 0.09017926 0.0940197 0.0976817 0.1007794 0.1031669 0.1049383 0.1062267 0.1070869 0.1075483 0.1076588
 0.1074565 0.1069714 0.1062522 0.105337 0.104216 0.1028738 0.1013767 0.0999064 0.09868433 0.09782758
 0.09727639 0.09688503 0.09655882 0.09627847 0.09604803 0.09587451 0.09576869 0.0957334 0.09577002 0.09588818
 0.09607759 0.09629115 0.09648764 0.09667044 0.09686773 0.09709339 0.09732848 0.09753675 0.09772158 0.09794637
 0.09822436 0.09839852 0.09823998 0.09770959 0.09706875 0.09670421 0.09685281 0.09746134 0.09825914 0.09896404
 0.0994556 0.09978692 0.1000536 0.1002539</values></Ydata></ScSm><ScRf><Ydata ylabel="Single channel"><values byteorder="INTEL" format="FLOAT32" numvalues="1820"> 0.06972634 0.06985372 0.06997231 0.07008044 0.070179 0.0702756 0.07038206 0.07050485 0.07063996 0.07077572
 0.07090027 0.07100904 0.07110453 0.07118902 0.07126449 0.07134273 0.07144402 0.07157789 0.07172947 0.07186919
 0.07197584 0.07205527 0.07213901 0.07225396 0.07238626 0.07248363 0.07250285 0.07245558 0.07240237 0.07240011
 0.07246404 0.07259208 0.07279855 0.07306976 0.07329723 0.07334578 0.07322237 0.07309917 0.07312521 0.07327882
 0.07343571 0.07350541 0.07346787 0.07336675 0.07332857 0.07352006 0.07399657 0.0745817 0.07492314 0.07469529
 0.07381545 0.07256164 0.0715072 0.07122156 0.0718588 0.07298465 0.07390149 0.07421203 0.07403521 0.07370614
 0.07342783 0.0732683 0.07331422 0.07365186 0.0742219 0.07476808 0.07494007 0.07452238 0.07367948 0.07292563
 0.0727077 0.07305866 0.07375491 0.07458431 0.0751457 0.0746496 0.07261875 0.06994815 0.06862427 0.06989018
 0.07294577 0.0757812 0.07700613 0.07658055 0.07523266 0.07381802 0.07309732 0.07347146 0.07471659 0.07620928
 0.07742604 0.07808262 0.07799773 0.07717685 0.07598746 0.07500392 0.07468756 0.07525478 0.07658891 0.0781033
 0.07897477 0.0787954 0.07788055 0.07685898 0.07620674 0.07622575 0.07707241 0.07856924 0.08022007 0.08157757
 0.08247644 0.08293261 0.08303218 0.08291535 0.082708 0.08250117 0.08244564 0.08267603 0.08304356 0.08314575
 0.08277521 0.08220383 0.08190982 0.08208527 0.08247127 0.08267102 0.08254392 0.08212774 0.08123153 0.07953174
 0.07723236 0.07516462 0.07397445 0.07366983 0.07414792 0.07546976 0.0772275 0.07835259 0.07818998 0.07738039
 0.07716864 0.07806437 0.07952674 0.08076119 0.08149145 0.08200889 0.08271255 0.08365436 0.08441527 0.08440754
 0.08347049 0.08224979 0.08176918 0.08244 0.08366483 0.08458258 0.08498029 0.08526458 0.08574326 0.08617658
 0.08598483 0.08486635 0.08331653 0.08245592 0.08310616 0.08497463 0.0868057 0.08733015 0.08616872 0.08403656
 0.08214277 0.08132198 0.08171287 0.08310522 0.08523454 0.08764917 0.08964013 0.0906009 0.09044504 0.0895921
 0.08851045 0.08728047 0.0857579 0.08425117 0.08370057 0.08479773 0.08709498 0.08936192 0.09071969 0.0911257
 0.09087314 0.08999838 0.08836327 0.08627297 0.08474898 0.08477429 0.08617802 0.08768007 0.08825217 0.08807753
 0.08796747 0.08824708 0.08857532 0.08863012 0.08858297 0.08885336 0.08957584 0.09043435 0.09100283 0.09114204
 0.09103122 0.09091431 0.09086696 0.09075357 0.09043474 0.09008009 0.09014915 0.0909052 0.09205792 0.09305418
 0.09362191 0.09387514 0.0939755 0.09386273 0.09336059 0.09252301 0.09179869 0.09171093 0.09234805 0.09329797
 0.09408782 0.09453594 0.09469845 0.09468718 0.09459715 0.0944863 0.09438654 0.09436558 0.0945159 0.09483261
 0.09517761 0.09541588 0.09552511 0.09554543 0.09549137 0.09535594 0.09517057 0.09502271 0.09500069 0.0951234
 0.09533709 0.0955722 0.09577353 0.09588965 0.09589072 0.09580766 0.09571265 0.09565289 0.09563124 0.09564562
 0.09570903 0.09582218 0.09595236 0.09605581 0.09611288 0.09613203 0.09612677 0.09610361 0.09607162 0.09605019
 0.09606203 0.09611856 0.09620713 0.09629895 0.09638374 0.09648517 0.09661718 0.09673975 0.09679437 0.0967762
 0.09674008 0.0967402 0.09678879 0.09686626 0.09694518 0.09699889 0.09700312 0.09695141 0.09687844 0.09685363
 0.09693075 0.09710822 0.09734555 0.09759765 0.09782296 0.09798959 0.09809825 0.09818079 0.09826167 0.09833646
 0.09839419 0.09844643 0.09852736 0.09866698 0.09886047 0.09906662 0.09924287 0.09937468 0.09947142 0.09955651
 0.09966411 0.0998112 0.09996299 0.1000609 0.1000973 0.1001323 0.1002214 0.1003519 0.1004656 0.1005277
 0.100559 0.1006066 0.1006945 0.100807 0.1009155 0.1010113 0.1011112 0.1012309 0.1013539 0.1014333
 0.101438 0.1013917 0.1013508 0.1013457 0.1013676 0.1014056 0.101467 0.1015531 0.1016368 0.1016827
 0.1016834 0.101667 0.1016649 0.1016786 0.1016816 0.1016529 0.1015994 0.1015464 0.1015142 0.101505
 0.1015049 0.1014931 0.1014549 0.1013904 0.1013118 0.1012323 0.1011566 0.1010857 0.1010313 0.1010166
 0.1010438 0.1010655 0.1010112 0.1008555 0.1006477 0.1004658 0.1003479 0.1002722 0.1001908 0.1000725
 0.09991963 0.0997559 0.09960404 0.09947157 0.09935248 0.09923981 0.09913854 0.09906644 0.0990347 0.09902356
 0.09898686 0.09889268 0.09875561 0.09861989 0.09851633 0.09844548 0.09839313 0.09834807 0.09830888 0.09828393
 0.09828091 0.09829104 0.09829283 0.09827697 0.09825835 0.09826115 0.09830261 0.09838795 0.09850265 0.09860927
 0.09867315 0.09869797 0.09872244 0.09877813 0.09886405 0.09896466 0.09907613 0.09920579 0.09935567 0.09951851
 0.09968816 0.09986727 0.1000633 0.1002787 0.1005049 0.1007282 0.1009427 0.1011585 0.1013938 0.1016568
 0.1019374 0.1022179 0.1024886 0.1027532 0.1030205 0.1032941 0.103572 0.1038543 0.1041479 0.1044586
 0.104782 0.105107 0.1054273 0.1057452 0.1060651 0.1063876 0.1067106 0.1070361 0.1073745 0.1077379
 0.10812 0.1084891 0.1088124 0.1090896 0.1093545 0.1096436 0.1099694 0.1103168 0.1106542 0.1109554
 0.1112231 0.1114891 0.1117802 0.1120905 0.112398 0.1127027 0.1130309 0.1133984 0.1137796 0.1141218
 0.1143922 0.1146088 0.1148203 0.1150566 0.1153061 0.1155419 0.1157584 0.1159733 0.1161997 0.1164334
 0.1166702 0.1169198 0.1171908 0.1174702 0.1177324 0.1179659 0.1181802 0.1183857 0.1185755 0.1187314
 0.118844 0.1189279 0.1190173 0.1191391 0.1192891 0.119442 0.1195843 0.1197268 0.119885 0.1200627
 0.1202597 0.1204807 0.1207255 0.1209787 0.1212254 0.1214752 0.121754 0.1220627 0.1223607 0.1226057
 0.1228005 0.1229826 0.1231781 0.1233885 0.1236144 0.123868 0.1241546 0.1244589 0.1247557 0.1250305
 0.1252925 0.1255708 0.1258838 0.1262102 0.1265006 0.1267257 0.1269056 0.1270875 0.127306 0.1275653
 0.1278481 0.1281327 0.1284032 0.1286481 0.1288529 0.1290044 0.1291061 0.12918 0.1292414 0.1292751
 0.1292444 0.1291213 0.1288983 0.1285714 0.1281275 0.1275586 0.1268871 0.1261762 0.1255158 0.1249987
 0.1246973 0.1246509 0.1248608 0.125292 0.1258756 0.1265184 0.1271214 0.1275957 0.1278693 0.1278935
 0.1276566 0.1271897 0.1265508 0.1258004 0.1249896 0.1241579 0.123338 0.1225724 0.1219404 0.1215626
 0.1215676 0.1220445 0.1230125 0.1244066 0.1260746 0.1278095 0.1294255 0.1308281 0.132019 0.1330459
 0.1339559 0.1347838 0.135557 0.1362913 0.1369878 0.1376429 0.1382601 0.1388461 0.1393974 0.1398968
 0.1403237 0.1406637 0.1409135 0.1410815 0.1411828 0.1412339 0.1412512 0.1412545 0.1412557 0.1412364
 0.1411443 0.1409223 0.1405467 0.1400424 0.1394824 0.1389871 0.1387207 0.1388569 0.1395066 0.1406468
 0.1421162 0.1436912 0.1451798 0.1464677 0.1475123 0.1483267 0.1489634 0.1494871 0.1499463 0.1503662
 0.150759 0.1511324 0.1514922 0.1518423 0.1521861 0.1525266 0.1528681 0.1532145 0.1535635 0.1539052
 0.1542322 0.1545506 0.1548767 0.1552214 0.1555801 0.1559383 0.1562887 0.1566371 0.1569895 0.1573381
 0.1576684 0.1579781 0.1582813 0.1585951 0.1589277 0.159277 0.1596306 0.1599697 0.16028 0.1605645
 0.1608405 0.1611229 0.1614124 0.1617007 0.1619827 0.1622605 0.1625391 0.162822 0.1631109 0.163403
 0.1636898 0.1639611 0.1642151 0.1644617 0.1647131 0.1649715 0.1652287 0.1654771 0.1657193 0.1659671
 0.1662303 0.1665079 0.1667872 0.1670545 0.1673059 0.167549 0.1677931 0.1680404 0.1682873 0.1685337
 0.1687853 0.1690454 0.1693089 0.1695674 0.1698191 0.170068 0.1703176 0.1705672 0.1708144 0.171059
 0.1713022 0.1715463 0.1717922 0.1720403 0.1722911 0.1725438 0.1727933 0.1730339 0.1732661 0.1734961
 0.1737294 0.1739671 0.1742077 0.1744488 0.1746868 0.1749214 0.1751556 0.1753927 0.1756329 0.1758753
 0.1761207 0.1763693 0.1766187 0.1768652 0.1771067 0.1773448 0.1775824 0.1778196 0.1780544 0.1782869
 0.1785215 0.1787618 0.1790067 0.1792515 0.1794914 0.1797257 0.179958 0.1801922 0.1804281 0.1806639
 0.1808997 0.1811373 0.1813768 0.1816159 0.181852 0.1820845 0.182316 0.1825482 0.1827799 0.1830106
 0.1832438 0.1834824 0.1837234 0.183961 0.1841944 0.1844262 0.1846592 0.1848956 0.1851367 0.1853813
 0.1856266 0.1858694 0.1861076 0.1863416 0.1865757 0.186813 0.1870526 0.1872934 0.1875367 0.1877823
 0.1880264 0.1882664 0.1885041 0.1887437 0.1889901 0.1892445 0.1895004 0.1897502 0.1899955 0.1902436
 0.1904965 0.1907505 0.1910035 0.1912567 0.1915122 0.1917712 0.1920321 0.1922905 0.1925424 0.1927867
 0.1930213 0.1932439 0.1934569 0.1936677 0.1938832 0.1941083 0.1943428 0.1945802 0.1948149 0.1950491
 0.1952875 0.1955295 0.1957729 0.1960177 0.196264 0.1965123 0.1967657 0.1970255 0.1972877 0.1975482
 0.1978058 0.1980607 0.1983158 0.1985772 0.1988437 0.1991054 0.1993571 0.1996046 0.1998546 0.2001111
 0.2003779 0.200654 0.200931 0.2012028 0.2014703 0.2017353 0.2019995 0.2022668 0.2025377 0.2028083
 0.203079 0.2033537 0.2036298 0.2039028 0.2041746 0.2044472 0.204718 0.2049877 0.2052601 0.2055331
 0.2058028 0.2060731 0.2063468 0.2066202 0.206893 0.207168 0.2074422 0.2077129 0.207984 0.2082545
 0.208517 0.2087738 0.2090319 0.2092823 0.2094991 0.2096293 0.2095356 0.2089238 0.2073002 0.2039833
 0.1982462 0.1896163 0.1781694 0.1645986 0.1500116 0.1355824 0.1222381 0.1105443 0.1007903 0.09311639
 0.08759848 0.08432713 0.08347183 0.08536527 0.09061891 0.09976649 0.111926 0.1236256 0.1300941 0.1288818
 0.1220911 0.1144672 0.1095221 0.1078068 0.1081226 0.1092975 0.1108717 0.112957 0.1158346 0.1195437
 0.1238405 0.1286056 0.1340805 0.1405067 0.1476588 0.1549244 0.1618186 0.1683039 0.1746112 0.180849
 0.1868465 0.1923184 0.1970863 0.2011416 0.2045894 0.2075775 0.2102383 0.2126588 0.214894 0.2169715
 0.2188505 0.2204059 0.2215025 0.2221043 0.2223202 0.222348 0.222365 0.2224583 0.2226435 0.2229181
 0.2232781 0.2237095 0.2241949 0.2247219 0.2252764 0.2258419 0.2264087 0.2269695 0.2275136 0.2280333
 0.2285272 0.2289928 0.2294278 0.2298398 0.2302402 0.230632 0.2310137 0.2313854 0.2317471 0.2321007
 0.2324526 0.2328033 0.2331401 0.2334508 0.2337368 0.2340069 0.2342697 0.2345332 0.2348001 0.2350653
 0.2353238 0.2355756 0.2358217 0.2360634 0.2363054 0.2365517 0.2368001 0.2370472 0.2372919 0.2375324
 0.2377667 0.2379971 0.2382284 0.2384627 0.2387018 0.2389488 0.2392024 0.2394548 0.2396982 0.2399314
 0.2401628 0.2404078 0.2406743 0.2409534 0.2412298 0.2414988 0.2417647 0.2420301 0.2422954 0.2425632
 0.2428358 0.2431114 0.2433877 0.2436625 0.2439307 0.2441852 0.2444227 0.2446465 0.2448668 0.2450958
 0.2453376 0.2455851 0.2458308 0.2460756 0.2463249 0.2465811 0.2468393 0.2470898 0.2473277 0.2475634
 0.2478162 0.2480929 0.2483835 0.2486761 0.2489661 0.2492524 0.2495365 0.2498257 0.2501239 0.2504221
 0.2507065 0.2509766 0.2512504 0.2515506 0.2518842 0.2522336 0.2525721 0.2528882 0.2531913 0.2534983
 0.2538196 0.2541488 0.2544586 0.2547223 0.2549515 0.2552009 0.2555178 0.2558969 0.2562922 0.2566641
 0.2570058 0.2573317 0.2576542 0.2579716 0.2582702 0.2585375 0.2587816 0.2590394 0.2593526 0.2597225
 0.2601046 0.2604556 0.2607694 0.2610613 0.261344 0.2616252 0.2618977 0.2621238 0.2622726 0.2623907
 0.2625952 0.2629625 0.2634426 0.2639119 0.2642973 0.2646204 0.2649309 0.2652426 0.2655446 0.2658136
 0.2659835 0.2659781 0.2658499 0.2658284 0.2661311 0.2667415 0.2674394 0.268025 0.268452 0.2687771
 0.2690642 0.2693419 0.26959 0.2697454 0.2697674 0.2697335 0.2698303 0.2701851 0.2707198 0.2712339
 0.2716153 0.2719055 0.2721854 0.2724837 0.2727655 0.2729167 0.2727912 0.2724097 0.2720962 0.2722686
 0.273033 0.2740625 0.2749239 0.2754643 0.2758136 0.2760808 0.2761914 0.2760232 0.2755538 0.2748694
 0.2742099 0.274009 0.2746098 0.2758288 0.277031 0.2777679 0.2781623 0.2785884 0.2791807 0.2797781
 0.2801875 0.2803599 0.2803519 0.2802051 0.2799264 0.2796257 0.2795963 0.2801042 0.2810789 0.282132
 0.2829233 0.2834286 0.2837818 0.2838804 0.2832853 0.2817412 0.2798537 0.2789357 0.2798442 0.2820808
 0.2843305 0.2857601 0.2864769 0.2869185 0.2872828 0.2874662 0.2870496 0.285437 0.2826628 0.2800962
 0.2796123 0.2817454 0.285091 0.2876669 0.2884282 0.2874873 0.2856127 0.2838702 0.2832383 0.2840777
 0.2859856 0.2882072 0.2900861 0.2912377 0.2915747 0.2912751 0.2907088 0.290338 0.2904253 0.2906421
 0.2902741 0.2891476 0.2879578 0.287191 0.2862252 0.2843512 0.2823751 0.2821147 0.2841548 0.2869984
 0.2887985 0.2892458 0.2892282 0.2890401 0.2876574 0.284086 0.2792097 0.2757551 0.2759529 0.2793083
 0.2830946 0.2850351 0.2850979 0.2846991 0.2847137 0.2845538 0.2830406 0.2800713 0.2772606 0.2764972
 0.277826 0.2793744 0.2794195 0.2775933 0.2739827 0.2687073 0.2633468 0.2612202 0.2644524 0.2713247
 0.2777965 0.2809924 0.2800903 0.2751055 0.2671911 0.2599005 0.2575907 0.2614001 0.2679206 0.2725015
 0.272914 0.2694378 0.2629666 0.2546233 0.2467519 0.2426279 0.2443765 0.2512692 0.2598442 0.2653959
 0.2643868 0.2572935 0.2493108 0.2464258 0.2497816 0.2549294 0.2570617 0.2555361 0.2528521 0.2512497
 0.2514756 0.2532285 0.2554995 0.2573637 0.2586866 0.2587788 0.2550675 0.24594 0.2349727 0.229039
 0.2312268 0.2383423 0.2461074 0.2534658 0.2602379 0.2640414 0.2628227 0.2589365 0.2576498 0.2615167
 0.2679422 0.2724973 0.273416 0.2723109 0.2712344 0.2702269 0.2683547 0.2663684 0.2667179 0.2705104
 0.2757782 0.2796109 0.2810666 0.2811702 0.2809675 0.2806469 0.2800748 0.2792261 0.2781423 0.2769471
 0.2758408 0.2748786 0.2739289 0.2729349 0.2718415 0.2700096 0.2662681 0.2604381 0.2546396 0.2518347
 0.2527196 0.255278 0.2576656 0.2595481 0.2597135 0.2550766 0.2447148 0.2334905 0.2287104 0.2330622
 0.2424692 0.2506574 0.254119 0.2525559 0.2467475 0.2381789 0.2305141 0.2289767 0.2363352 0.2499875
 0.2642734 0.2752508 0.2822142 0.2855124 0.2850146 0.281205 0.2764549 0.2740986 0.2761364 0.2819104
 0.2886165 0.2926245 0.2910491 0.2841101 0.2767183 0.275528 0.2823521 0.2917652 0.2970931 0.2974114
 0.2966114 0.2972196 0.298216 0.2984289 0.2989568 0.3012944 0.304872 0.3075279 0.3074511 0.3039432
 0.2974178 0.289949 0.2849522 0.2844808 0.2869637 0.2890198 0.2889384 0.2867124 0.2819082 0.2746036
 0.2680691 0.2670125 0.2722282 0.2793938 0.2839954 0.2855285 0.2861077 0.286658 0.2858303 0.2822732
 0.2770432 0.2731518 0.2726187 0.2745675 0.276669 0.2776654 0.2775686 0.2761999 0.2731962 0.2695765
 0.2678808 0.269905 0.27477 0.2797774 0.282889 0.2839618 0.2839545 0.2836953 0.2834505 0.2830782
 0.2824218 0.2818701 0.2823858 0.2844759 0.2872879 0.2893807 0.2903846 0.2913082 0.2931344 0.2956317
 0.2977225 0.2986775 0.2987586 0.2988739 0.2997484 0.3013219 0.3028083 0.303392 0.3030331 0.3026134
 0.3031458 0.3048089 0.3068793 0.3085606 0.3096476 0.3104105 0.3111448 0.3119252 0.312575 0.3128155
 0.3126383 0.3125387 0.3131477 0.3145702 0.3162521 0.3175371 0.3182052 0.3184396 0.3184542 0.3182898
 0.3179155 0.317398 0.3169129 0.3166111 0.3165101 0.3165188 0.3165373 0.3165202 0.3164766 0.31645
 0.3164886 0.3166083 0.3167863 0.316994 0.3172151 0.3174242 0.3175852 0.3176918 0.3177774 0.31786
 0.3179001 0.3178285 0.317591 0.3171483 0.3164573 0.3154781 0.3141848 0.3125488 0.3105375 0.3082125
 0.3058962 0.3042063 0.3037961 0.304939 0.3073122 0.3101826 0.3128217 0.3148174 0.3161143 0.3168632
 0.3172538 0.3174255 0.3174518 0.3173592 0.31716 0.3168781 0.3165477 0.316194 0.3158317 0.3154787
 0.3151572 0.3148762 0.3146186 0.3143477 0.3140255 0.3136288 0.3131552 0.3126161 0.3120219 0.3113699
 0.3106377 0.3097956 0.3088388 0.3078099 0.3067831 0.3058183 0.3049259 0.3040683 0.3031937 0.3022603
 0.3012208 0.3000131 0.2986212 0.2971648 0.2958668 0.2948763 0.2941333 0.2934354 0.2926131 0.2916171
 0.2904778 0.2892416 0.2879485 0.2866271 0.2852845 0.2839049 0.2824588 0.2809179 0.2792707 0.2775283
 0.2757109 0.2738341 0.2719116 0.2699601 0.267973 0.2658793 0.263539 0.2607851 0.2574758 0.2535231
 0.2489085 0.2437008 0.2380609 0.2322118 0.226385 0.2207789 0.215549 0.2108216 0.206709 0.2033138
 0.2007175 0.1989672 0.1980767 0.1980407 0.1988409 0.2004381 0.202758 0.2056832 0.2090586 0.212703
 0.2164219 0.2200276 0.2233813 0.2264386 0.2292464 0.2318718 0.23433 0.2365843 0.2385988 0.2403686
 0.2419016 0.2431971 0.2442563 0.2451041 0.2457883 0.2463605 0.2468572 0.2472921 0.2476589 0.2479467
 0.2481594 0.2483215 0.2484656 0.2486187 0.2487983 0.249013 0.2492665 0.2495658 0.249927 0.2503714
 0.2509131 0.2515466 0.252245 0.2529768 0.2537314 0.2545295 0.2554106 0.2564155 0.2575754 0.2589052
 0.2603955 0.2620092 0.2636811 0.2653186 0.2668152 0.2680762 0.2690456 0.2697133 0.2701008 0.2702391
 0.2701599 0.2698987 0.269493 0.2689688 0.268339 0.2676174 0.2668257 0.2659796 0.2650792 0.2641201
 0.2631136 0.2620909 0.2610848 0.2601086 0.259156 0.2582194 0.2573009 0.2564042 0.2555304 0.2546812
 0.2538607 0.2530736 0.2523294 0.2516364 0.2509862 0.2503461 0.2496688 0.2489046 0.2480136 0.2469765
 0.2457915 0.244461 0.2429872 0.24138 0.2396542 0.2378203 0.2358858 0.2338618 0.2317622 0.2295947
 0.2273501 0.2250083 0.2225761 0.2201236 0.21776 0.2155619 0.2135392 0.2116654 0.2099168 0.2082804
 0.2067433 0.205283 0.2038714 0.2024942 0.2011633 0.199899 0.1987095 0.1975929 0.1965512 0.1955974
 0.1947536 0.1940353 0.1934334 0.1929205 0.1924786 0.1921065 0.1918117 0.1916162 0.1915521 0.1916188
 0.191753 0.1918611 0.191881 0.1918147 0.1917163 0.1916441 0.1916185 0.1916252 0.1916431 0.1916359
 0.1915268 0.191212 0.1905948 0.1895972 0.1881746 0.1863511 0.1842304 0.1819668 0.1797317 0.1776778
 0.1759044 0.1744539 0.1733323 0.1725045 0.1718891 0.1714072 0.1710446 0.1708584 0.1709245 0.1712518
 0.1717111 0.1720904 0.172284 0.1724094 0.1727001 0.173308 0.1742149 0.1752766 0.1763193 0.1772296
 0.177974 0.178551 0.1789649 0.1792409 0.1794123 0.1794857 0.1794491 0.179297 0.17903 0.1786563
 0.1781967 0.1776584 0.1770215 0.1762806 0.175462 0.1745783 0.1736124 0.1725431 0.1713386 0.1699628
 0.1684707 0.1670808 0.1660982 0.1657548 0.1660906 0.166935 0.1680272 0.1691919 0.1703544 0.1714062
 0.1722169 0.1728517 0.1736581 0.1750252 0.1770474 0.1794253 0.1816822 0.1834685 0.1846653 0.1852721
 0.1853233 0.184887 0.1840063 0.1826506 0.1808233 0.1786508 0.1762932 0.1738785 0.1715543 0.1694593
 0.1676514 0.1661519 0.1649711 0.1641077 0.1636302 0.1632531 0.1613325 0.1554573 0.1458794 0.1376937
 0.1369648 0.14418 0.1535554 0.1592394 0.160267 0.1591222 0.1578548 0.1569066 0.1562064 0.1558407
 0.1558763 0.1562006 0.1565636 0.1567062 0.1565253 0.1560505 0.1551612 0.1533463 0.1497159 0.1433316
 0.1339003 0.1224042 0.110884 0.1013546 0.09481403 0.09104604 0.08906594 0.08780561 0.08672233 0.08597387
 0.08605016 0.08727226 0.08962396 0.09290105 0.09685007 0.1011354 0.1052969 0.1088963 0.1117407 0.1138914
 0.1154587 0.1164809 0.1169918 0.1170741 0.1168163 0.1162834 0.1155273 0.1145694 0.1133882 0.1119742
 0.1104144 0.1089152 0.10772 0.1069583 0.1065679 0.1063883 0.1063074 0.1062922 0.1063317 0.1064152
 0.1065402 0.1067089 0.1069321 0.1072311 0.1075985 0.1079713 0.1082736 0.1084726 0.1085767 0.1085976
 0.1085162 0.1082938 0.1079392 0.1075391 0.1071398 0.1066108 0.1057403 0.1045088 0.1032128 0.1022844
 0.1019912 0.1022701 0.1028029 0.1032562 0.1034872 0.1035543 0.1035667 0.1035353 0.1033539 0.1029163
</values></Ydata></ScRf><Data_Parameters_AB><parameter name="DPF">1</parameter><parameter name="NPT">3497</parameter><parameter name="FXV">3996</parameter><parameter name="LXV">500</parameter><parameter name="CSF">1</parameter><parameter name="MXY">0.390413641929626</parameter><parameter name="MNY">-0.0677787736058235</parameter><parameter name="DAT">13/02/2024</parameter><parameter name="TIM">13:23:07.990 (GMT+1)</parameter><parameter name="DXU">WN</parameter></Data_Parameters_AB><AB__Qtest><MainReport name="Quality Test Report"><Header><Line><Legend>Test result ok/not ok [1/0]: </Legend><Value>0</Value></Line><Line><Legend>Method file: </Legend><Value>C:\Users\Public\Documents\Bruker\OPUS_8.2.28\QT\IRBT_v3_default.QT</Value></Line></Header><Matrix><Line><Legend></Legend><Legend>min</Legend><Legend>max</Legend><Legend>measured</Legend></Line><Line><Value>Absorption (X-Range 1):</Value><Value>0.400000</Value><Value>2.000000</Value><Value>0.309986</Value></Line><Line><Value>Noise (X-Range 4):</Value><Value></Value><Value>0.000300</Value><Value>0.000040</Value></Line><Line><Value>Signal/Noise (X-Range 2):</Value><Value>200.000000</Value><Value></Value><Value>137.902866</Value></Line><Line><Value>Signal/Noise (X-Range 3):</Value><Value>40.000000</Value><Value></Value><Value>132.168411</Value></Line><Line><Value>Water vapour (X-Range 5):</Value><Value></Value><Value>0.000300</Value><Value>0.000027</Value></Line><Line><Value>Signal/Water (X-Range 2):</Value><Value>100.000000</Value><Value></Value><Value>205.371172</Value></Line><Line><Value>Signal/Water (X-Range 3):</Value><Value>20.000000</Value><Value></Value><Value>196.831162</Value></Line><Line><Value>Fringes (X-Range 6):</Value><Value></Value><Value>0.000100</Value><Value>0.000028</Value></Line></Matrix></MainReport></AB__Qtest><Data_Parameters_ScSm><parameter name="DPF">1</parameter><parameter name="NPT">1814</parameter><parameter name="FXV">3996.63438082617</parameter><parameter name="LXV">499.579297603271</parameter><parameter name="CSF">1</parameter><parameter name="MXY">0.32652086019516</parameter><parameter name="MNY">0.057087354362011</parameter><parameter name="DAT">13/02/2024</parameter><parameter name="TIM">13:23:07.990 (GMT+1)</parameter><parameter name="DXU">WN</parameter></Data_Parameters_ScSm><Data_Parameters_ScRf><parameter name="DPF">1</parameter><parameter name="NPT">1820</parameter><parameter name="FXV">4004.34989121387</parameter><parameter name="LXV">495.721542409425</parameter><parameter name="CSF">1</parameter><parameter name="MXY">0.318454176187515</parameter><parameter name="MNY">0.0686242654919624</parameter><parameter name="DAT">13/02/2024</parameter><parameter name="TIM">13:22:42.137 (GMT+1)</parameter><parameter name="DXU">WN</parameter></Data_Parameters_ScRf><Optic_Parameters_Rf><parameter name="APR">0</parameter><parameter name="APT">Open</parameter><parameter name="BMS">KBr</parameter><parameter name="DTC">RT-DLaTGS_IR-Biotyper [Microplate reader]</parameter><parameter name="HPF">0</parameter><parameter name="LPF">10.0</parameter><parameter name="LPV">4000</parameter><parameter name="PGR">0</parameter><parameter name="RCH">Module port</parameter><parameter name="RDX">0</parameter><parameter name="SRC">MIR</parameter><parameter name="VEL">10.0</parameter><parameter name="SON">Off</parameter></Optic_Parameters_Rf><Acquisition_Parameters_Rf><parameter name="ADT">1</parameter><parameter name="AQM">DD</parameter><parameter name="CFE">0</parameter><parameter name="COR">0</parameter><parameter name="DEL">0</parameter><parameter name="DLY">0</parameter><parameter name="HFW">8000</parameter><parameter name="LFW">0</parameter><parameter name="NSR">32</parameter><parameter name="PLF">AB</parameter><parameter name="RES">6</parameter><parameter name="RGN">-1</parameter><parameter name="STR">0</parameter><parameter name="TCL">MakeCompatibleScalar (0, {WSV=1.000000, ARV=0});</parameter><parameter name="TDL">37</parameter><parameter name="RPO">0</parameter></Acquisition_Parameters_Rf><FT_-_Parameters_Rf><parameter name="APF">B3</parameter><parameter name="HFQ">500</parameter><parameter name="LFQ">4000</parameter><parameter name="NLI">0</parameter><parameter name="PHR">24</parameter><parameter name="PHZ">ML</parameter><parameter name="SPZ">NO</parameter><parameter name="ZFF">1</parameter></FT_-_Parameters_Rf><Optic_Parameters_><parameter name="APR">0</parameter><parameter name="APT">Open</parameter><parameter name="BMS">KBr</parameter><parameter name="CHN">Module port</parameter><parameter name="DTC">RT-DLaTGS_IR-Biotyper [Microplate reader]</parameter><parameter name="HPF">0</parameter><parameter name="LPF">10.0</parameter><parameter name="LPV">4000</parameter><parameter name="PGN">0</parameter><parameter name="RDX">0</parameter><parameter name="SRC">MIR</parameter><parameter name="VEL">10.0</parameter><parameter name="SON">Off</parameter></Optic_Parameters_><FT_-_Parameters_><parameter name="APF">B3</parameter><parameter name="HFQ">500</parameter><parameter name="LFQ">4000</parameter><parameter name="NLI">0</parameter><parameter name="PHR">24</parameter><parameter name="PHZ">ML</parameter><parameter name="SPZ">NO</parameter><parameter name="ZFF">1</parameter></FT_-_Parameters_><Acquisition_Parameters_><parameter name="ADT">1</parameter><parameter name="AQM">DD</parameter><parameter name="CFE">0</parameter><parameter name="COR">0</parameter><parameter name="DEL">0</parameter><parameter name="DLY">0</parameter><parameter name="HFW">8000</parameter><parameter name="LFW">0</parameter><parameter name="NSS">32</parameter><parameter name="PLF">AB</parameter><parameter name="RES">6</parameter><parameter name="SOT">0</parameter><parameter name="TCL">MakeCompatibleScalar (0, {WSV=1.000000, ARV=0});</parameter><parameter name="TDL">37</parameter><parameter name="SPO">0</parameter><parameter name="SGN">-1</parameter></Acquisition_Parameters_><Instrument_Parameters_Rf><parameter name="HFL">15801.365274</parameter><parameter name="LFL">0</parameter><parameter name="LWN">15801.365274</parameter><parameter name="ABP">32157</parameter><parameter name="SSP">1</parameter><parameter name="ARG">2</parameter><parameter name="ASG">2</parameter><parameter name="ASS">32</parameter><parameter name="GFW">16</parameter><parameter name="GBW">16</parameter><parameter name="BFW">0</parameter><parameter name="BBW">0</parameter><parameter name="PKA">9174</parameter><parameter name="PKL">5009</parameter><parameter name="PRA">9173</parameter><parameter name="PRL">4988</parameter><parameter name="P2A">1</parameter><parameter name="P2L">1</parameter><parameter name="P2R">1</parameter><parameter name="P2K">1</parameter><parameter name="DAQ">0</parameter><parameter name="AG2">1</parameter><parameter name="SSM">1</parameter><parameter name="RSN">48135</parameter><parameter name="CRR">0</parameter><parameter name="SRT">1707830562.137</parameter><parameter name="DUR">19.6389923095703</parameter><parameter name="TSC">30</parameter><parameter name="MVD">0.284155815839767</parameter><parameter name="AN1">0.225927471729112</parameter><parameter name="AN2">0</parameter><parameter name="VSN">2.485 Apr  4 2017</parameter><parameter name="SRN">0085</parameter><parameter name="CAM">0</parameter><parameter name="INS">IR-Biotyper</parameter><parameter name="FOC">69</parameter><parameter name="RDY">1</parameter><parameter name="ARS">32</parameter></Instrument_Parameters_Rf><Sample_Parameters_><parameter name="BLD"></parameter><parameter name="CNM">Admin</parameter><parameter name="CPY"></parameter><parameter name="DPM"></parameter><parameter name="EXP">IRBT_v3_32Scans.XPM</parameter><parameter name="LCT"></parameter><parameter name="SFM">Microplate, HTS-XT</parameter><parameter name="SNM">240213-1206-Cdiff_SCFA_3_GDA_C39_242149579_D5_0aa9c529-e903-4e99-b75d-f30efc2232f9.0</parameter><parameter name="XPP">C:\Users\Public\Documents\Bruker\OPUS_8.2.28\XPM</parameter><parameter name="IST">OK</parameter><parameter name="CPG">1252</parameter><parameter name="UID">bee9e006-c0b7-4e06-bacc-deab032ce0cd</parameter></Sample_Parameters_><Instrument_Parameters_><parameter name="HFL">15801.365274</parameter><parameter name="LFL">0</parameter><parameter name="LWN">15801.365274</parameter><parameter name="ABP">32157</parameter><parameter name="SSP">1</parameter><parameter name="ASG">2</parameter><parameter name="ARG">2</parameter><parameter name="ASS">32</parameter><parameter name="GFW">16</parameter><parameter name="GBW">16</parameter><parameter name="BFW">0</parameter><parameter name="BBW">0</parameter><parameter name="PKA">8650</parameter><parameter name="PKL">5001</parameter><parameter name="PRA">8737</parameter><parameter name="PRL">4980</parameter><parameter name="P2A">1</parameter><parameter name="P2L">1</parameter><parameter name="P2R">1</parameter><parameter name="P2K">1</parameter><parameter name="DAQ">0</parameter><parameter name="AG2">1</parameter><parameter name="SSM">1</parameter><parameter name="RSN">24765</parameter><parameter name="CRR">0</parameter><parameter name="SRT">1707830587.991</parameter><parameter name="DUR">19.6379852294922</parameter><parameter name="TSC">30</parameter><parameter name="MVD">0.286817729473114</parameter><parameter name="AN1">0.225949137878697</parameter><parameter name="AN2">0</parameter><parameter name="VSN">2.485 Apr  4 2017</parameter><parameter name="SRN">0085</parameter><parameter name="CAM">0</parameter><parameter name="INS">IR-Biotyper</parameter><parameter name="FOC">69</parameter><parameter name="RDY">1</parameter></Instrument_Parameters_><History/></OPUSDataFile>
