<?xml version="1.0" encoding="UTF-8" ?>
<OPUSDataFile><AB><Ydata ylabel="Absorbance Units"><values byteorder="INTEL" format="FLOAT32" numvalues="3497"> -0.1355976 -0.1356064 -0.1356045 -0.1355932 -0.1355752 -0.1355528 -0.1355326 -0.1355149 -0.1355031 -0.1354963
 -0.1354945 -0.1354969 -0.1355027 -0.1355116 -0.1355234 -0.1355369 -0.1355521 -0.1355664 -0.1355793 -0.1355895
 -0.1355962 -0.1356008 -0.1356032 -0.1356067 -0.1356114 -0.1356183 -0.1356271 -0.1356342 -0.1356394 -0.1356376
 -0.1356297 -0.1356151 -0.1355962 -0.1355777 -0.1355608 -0.1355499 -0.1355433 -0.1355412 -0.1355411 -0.1355407
 -0.1355408 -0.1355409 -0.1355433 -0.1355492 -0.1355577 -0.1355695 -0.1355812 -0.1355927 -0.1356015 -0.1356073
 -0.1356079 -0.1356032 -0.1355903 -0.1355692 -0.1355416 -0.1355087 -0.1354791 -0.1354536 -0.1354399 -0.1354367
 -0.1354448 -0.135462 -0.1354855 -0.1355134 -0.1355436 -0.1355716 -0.135594 -0.1356064 -0.1356041 -0.1355913
 -0.1355666 -0.1355429 -0.1355235 -0.1355148 -0.1355198 -0.1355283 -0.1355399 -0.1355408 -0.1355301 -0.1355081
 -0.135476 -0.1354482 -0.1354259 -0.1354234 -0.1354394 -0.1354777 -0.135534 -0.1356014 -0.1356733 -0.1357371
 -0.135787 -0.1358109 -0.1358102 -0.1357793 -0.135731 -0.1356686 -0.1356094 -0.1355609 -0.1355301 -0.135522
 -0.1355278 -0.1355476 -0.1355665 -0.1355827 -0.1355897 -0.1355872 -0.1355782 -0.1355631 -0.1355456 -0.1355254
 -0.1355022 -0.1354767 -0.135451 -0.1354269 -0.1354105 -0.1354014 -0.1354028 -0.1354111 -0.135424 -0.1354368
 -0.135445 -0.1354463 -0.1354373 -0.1354211 -0.135397 -0.1353735 -0.1353526 -0.1353394 -0.1353362 -0.1353372
 -0.1353423 -0.1353448 -0.1353443 -0.1353489 -0.1353597 -0.1353931 -0.1354472 -0.1355216 -0.1356081 -0.1356774
 -0.1357232 -0.1357093 -0.1356489 -0.1355425 -0.1354169 -0.1353066 -0.1352192 -0.1351764 -0.1351637 -0.1351797
 -0.1352089 -0.1352447 -0.1352796 -0.1353111 -0.1353345 -0.1353491 -0.1353497 -0.1353352 -0.1353072 -0.1352655
 -0.1352201 -0.1351712 -0.1351256 -0.1350831 -0.1350455 -0.1350135 -0.1349912 -0.1349788 -0.1349808 -0.1349937
 -0.1350149 -0.1350392 -0.1350589 -0.135072 -0.1350738 -0.1350644 -0.1350426 -0.1350093 -0.1349629 -0.1349116
 -0.1348555 -0.1348091 -0.1347753 -0.1347591 -0.1347622 -0.1347734 -0.1347923 -0.1348062 -0.1348152 -0.1348191
 -0.1348186 -0.1348189 -0.1348188 -0.1348157 -0.1348078 -0.1347884 -0.1347597 -0.1347214 -0.1346784 -0.1346359
 -0.1345976 -0.1345682 -0.1345484 -0.1345408 -0.1345414 -0.1345506 -0.1345597 -0.1345667 -0.1345642 -0.1345499
 -0.1345232 -0.1344834 -0.1344348 -0.1343777 -0.1343178 -0.1342557 -0.1342003 -0.1341523 -0.1341215 -0.1341066
 -0.1341085 -0.134123 -0.13414 -0.1341569 -0.134163 -0.1341612 -0.13415 -0.1341357 -0.1341238 -0.1341165
 -0.134118 -0.1341227 -0.1341299 -0.1341323 -0.1341266 -0.134116 -0.1340991 -0.1340907 -0.1340926 -0.1341128
 -0.1341523 -0.1341971 -0.1342459 -0.1342753 -0.1342863 -0.1342734 -0.1342396 -0.1341953 -0.1341397 -0.134075
 -0.1340007 -0.1339134 -0.1338232 -0.1337407 -0.1336756 -0.1336441 -0.1336365 -0.1336559 -0.133677 -0.1336897
 -0.1336795 -0.1336368 -0.1335746 -0.1334924 -0.1334127 -0.1333385 -0.1332777 -0.1332315 -0.1331938 -0.1331645
 -0.133136 -0.1331084 -0.1330782 -0.1330462 -0.1330138 -0.1329822 -0.1329556 -0.132934 -0.1329205 -0.1329111
 -0.1329029 -0.1328887 -0.1328601 -0.1328162 -0.1327507 -0.1326768 -0.1325973 -0.132527 -0.1324727 -0.1324321
 -0.1324077 -0.1323838 -0.1323586 -0.1323212 -0.1322704 -0.1322089 -0.1321374 -0.1320681 -0.1320017 -0.1319485
 -0.1319063 -0.1318729 -0.1318426 -0.1317981 -0.1317359 -0.1316379 -0.1315132 -0.1313628 -0.131205 -0.1310574
 -0.130929 -0.1308331 -0.1307635 -0.1307224 -0.1306955 -0.1306802 -0.1306598 -0.1306309 -0.1305806 -0.1305064
 -0.1304083 -0.1302858 -0.1301484 -0.1299965 -0.1298371 -0.1296702 -0.1294984 -0.1293225 -0.1291477 -0.1289755
 -0.128813 -0.1286603 -0.1285218 -0.1283949 -0.1282794 -0.1281699 -0.1280616 -0.1279507 -0.1278322 -0.127709
 -0.1275812 -0.1274509 -0.1273213 -0.1271807 -0.1270286 -0.1268479 -0.1266346 -0.1263945 -0.1261268 -0.1258599
 -0.1255949 -0.12535 -0.1251239 -0.1249122 -0.1247134 -0.1245175 -0.1243254 -0.1241341 -0.1239457 -0.1237636
 -0.1235873 -0.1234193 -0.1232513 -0.1230778 -0.1228862 -0.122664 -0.1224135 -0.1221275 -0.1218316 -0.1215316
 -0.1212468 -0.120985 -0.1207368 -0.1205032 -0.1202643 -0.1200185 -0.1197613 -0.1194929 -0.1192235 -0.1189533
 -0.1186878 -0.118425 -0.1181589 -0.1178887 -0.1176077 -0.1173192 -0.1170264 -0.1167342 -0.116452 -0.116179
 -0.11592 -0.1156663 -0.1154141 -0.1151547 -0.1148819 -0.114595 -0.1142909 -0.1139768 -0.1136527 -0.1133294
 -0.1130083 -0.1126987 -0.1124016 -0.1121146 -0.111837 -0.111552 -0.111259 -0.110945 -0.1106132 -0.1102722
 -0.1099266 -0.1095959 -0.1092783 -0.1089808 -0.1086953 -0.1084136 -0.108129 -0.1078311 -0.1075202 -0.1071918
 -0.1068533 -0.1065065 -0.10616 -0.1058177 -0.1054815 -0.1051534 -0.1048265 -0.1045003 -0.1041684 -0.1038301
 -0.1034889 -0.1031453 -0.1028072 -0.1024745 -0.1021495 -0.1018312 -0.1015153 -0.1012011 -0.1008839 -0.1005641
 -0.1002398 -0.09991199 -0.09958138 -0.0992483 -0.09891348 -0.09857654 -0.0982371 -0.09789588 -0.0975526 -0.09720978
 -0.09686793 -0.09652974 -0.09619606 -0.0958672 -0.09554336 -0.09522396 -0.09490893 -0.09459837 -0.09429225 -0.09399088
 -0.09369401 -0.0933996 -0.09310675 -0.09281 -0.09250843 -0.0921955 -0.09187258 -0.09153809 -0.09119709 -0.0908559
 -0.09051958 -0.09019685 -0.08988676 -0.08959311 -0.08930775 -0.08902829 -0.08874628 -0.08845755 -0.08816122 -0.08785547
 -0.08754627 -0.08723417 -0.08692427 -0.08661723 -0.08631292 -0.08601134 -0.08571058 -0.08541073 -0.08511234 -0.08481552
 -0.08452126 -0.08422936 -0.08393949 -0.08365223 -0.08336845 -0.0830893 -0.0828176 -0.08255195 -0.08229279 -0.08203603
 -0.08177871 -0.08151842 -0.08125246 -0.08098283 -0.08070932 -0.08043516 -0.08016124 -0.07988869 -0.07961786 -0.07934906
 -0.07908236 -0.07881797 -0.07855589 -0.07829658 -0.07804013 -0.07778779 -0.07753954 -0.07729639 -0.07705738 -0.0768202
 -0.07658321 -0.07634095 -0.07609409 -0.07583967 -0.07558327 -0.07532896 -0.07508367 -0.07485526 -0.07464277 -0.0744503
 -0.07426566 -0.07408629 -0.07389952 -0.07370062 -0.07348981 -0.07326546 -0.07303799 -0.07280827 -0.07258292 -0.07236229
 -0.07214418 -0.07192842 -0.07171167 -0.07149472 -0.07128019 -0.0710692 -0.07086745 -0.07067452 -0.07049321 -0.07032018
 -0.07015211 -0.06998417 -0.06980927 -0.06962594 -0.06942932 -0.06922439 -0.06901148 -0.06879856 -0.06858846 -0.06838671
 -0.06819539 -0.0680161 -0.06784967 -0.06769439 -0.06755049 -0.06741209 -0.06727888 -0.06714267 -0.06700332 -0.06685687
 -0.06670421 -0.0665483 -0.06639014 -0.06623506 -0.06608285 -0.06593604 -0.06579322 -0.06565338 -0.06551512 -0.06537605
 -0.06523684 -0.0650966 -0.06495845 -0.06482375 -0.06469509 -0.06457467 -0.06445965 -0.06435057 -0.06423997 -0.06412657
 -0.06400649 -0.06387869 -0.06374948 -0.06361917 -0.06349746 -0.0633843 -0.06328109 -0.0631866 -0.06309327 -0.0630016
 -0.06290819 -0.06281696 -0.06273585 -0.06266713 -0.06262009 -0.06258965 -0.062575 -0.06256703 -0.06255757 -0.06254292
 -0.06251724 -0.06248582 -0.06244862 -0.06241357 -0.06238331 -0.06235948 -0.06234379 -0.06232827 -0.06231266 -0.06228577
 -0.0622469 -0.06219416 -0.06212843 -0.06206228 -0.06199715 -0.06194917 -0.06191726 -0.0619069 -0.0619142 -0.06193232
 -0.06195835 -0.06198362 -0.0620088 -0.06203129 -0.06205264 -0.06207411 -0.06209406 -0.06211258 -0.06212575 -0.06213117
 -0.06213021 -0.06212125 -0.06211445 -0.06211083 -0.06212125 -0.06214756 -0.06218847 -0.06224414 -0.06230052 -0.06235686
 -0.06239872 -0.06242702 -0.0624397 -0.06244002 -0.0624391 -0.06243952 -0.06245446 -0.06248197 -0.06252585 -0.06258009
 -0.06263878 -0.06269807 -0.06275146 -0.06280163 -0.06284776 -0.06289484 -0.06294538 -0.06299939 -0.06305803 -0.06311683
 -0.06317509 -0.06322996 -0.0632809 -0.0633285 -0.06337279 -0.06341416 -0.06345247 -0.06348541 -0.06351253 -0.06352963
 -0.06353647 -0.06352942 -0.06350946 -0.06347581 -0.06343264 -0.06338539 -0.06334157 -0.06331229 -0.06330333 -0.06332531
 -0.06337401 -0.06345289 -0.06354623 -0.0636498 -0.06374703 -0.06383181 -0.06389859 -0.06394421 -0.06397606 -0.06399398
 -0.06401146 -0.06402929 -0.0640603 -0.06410481 -0.06416924 -0.06425238 -0.06434949 -0.06445822 -0.06456607 -0.06467263
 -0.06476939 -0.06485959 -0.06494515 -0.06502906 -0.06511737 -0.06520712 -0.065299 -0.06538622 -0.06546383 -0.06553145
 -0.06558498 -0.06563729 -0.0656898 -0.06575945 -0.06585058 -0.06596691 -0.06611069 -0.06626724 -0.06643587 -0.06659773
 -0.06675243 -0.06689412 -0.06702421 -0.06715049 -0.06727394 -0.06740344 -0.06753726 -0.06767581 -0.0678161 -0.06795226
 -0.06808364 -0.06820549 -0.06832278 -0.0684372 -0.06855647 -0.06868638 -0.06882969 -0.06899063 -0.06916242 -0.06934464
 -0.06952801 -0.06971042 -0.0698882 -0.07006055 -0.07022739 -0.07038869 -0.07054279 -0.07068972 -0.07082974 -0.07096387
 -0.07110017 -0.07123971 -0.07139263 -0.07155687 -0.07173294 -0.07191609 -0.07209701 -0.07227422 -0.07244023 -0.07260035
 -0.07275607 -0.07291427 -0.07308116 -0.07325548 -0.07343992 -0.07362502 -0.07380848 -0.07398382 -0.07414819 -0.07430667
 -0.07445905 -0.07461563 -0.07477732 -0.07494548 -0.07511981 -0.07529137 -0.07545996 -0.07561914 -0.0757708 -0.07591963
 -0.0760679 -0.07622527 -0.07639079 -0.07656808 -0.07675321 -0.07694228 -0.07713246 -0.07731908 -0.07750282 -0.07768233
 -0.07786028 -0.07803775 -0.07821576 -0.07839538 -0.07857426 -0.07875254 -0.07892539 -0.07909224 -0.07924936 -0.07939626
 -0.07953534 -0.07966693 -0.07979974 -0.07993419 -0.08007811 -0.08023061 -0.0803921 -0.08056094 -0.08073235 -0.08090572
 -0.08107732 -0.0812478 -0.08141649 -0.08158408 -0.08175065 -0.08191791 -0.08208653 -0.08225945 -0.08243854 -0.08262413
 -0.08281774 -0.08301401 -0.08321285 -0.08340538 -0.08359061 -0.08376124 -0.08391653 -0.08405408 -0.08417407 -0.08428352
 -0.08438399 -0.08449191 -0.0846085 -0.08474953 -0.08491243 -0.08509926 -0.08530358 -0.08551354 -0.08572403 -0.08592186
 -0.0861078 -0.08627672 -0.08643435 -0.08658248 -0.08672731 -0.08687247 -0.0870202 -0.08717279 -0.08732667 -0.08748199
 -0.08763235 -0.0877768 -0.08791219 -0.08803804 -0.08815715 -0.08826969 -0.08838002 -0.08848801 -0.08859423 -0.08869792
 -0.08879564 -0.08888711 -0.08896877 -0.08904289 -0.08911148 -0.08917923 -0.08925366 -0.08933808 -0.08943988 -0.08955599
 -0.08968817 -0.08982722 -0.08996944 -0.09010763 -0.0902378 -0.09036061 -0.09047496 -0.09058619 -0.09069508 -0.09080404
 -0.0909135 -0.09102136 -0.0911275 -0.09122925 -0.09132677 -0.09142037 -0.0915106 -0.09160046 -0.09168999 -0.09178127
 -0.09187347 -0.09196584 -0.09205753 -0.09214649 -0.09223378 -0.09231918 -0.09240551 -0.09249473 -0.09258854 -0.09268874
 -0.09279412 -0.09290447 -0.09301935 -0.09313791 -0.09326448 -0.09339947 -0.09354727 -0.09370872 -0.09387851 -0.09405622
 -0.09422737 -0.09439165 -0.0945397 -0.09467383 -0.09480059 -0.09492313 -0.09505586 -0.09519807 -0.09535652 -0.09552591
 -0.09570155 -0.09587824 -0.09604833 -0.09621043 -0.09636076 -0.09650088 -0.09663032 -0.09675176 -0.09686543 -0.09697597
 -0.09708403 -0.09719544 -0.09731142 -0.09743313 -0.09756117 -0.09768852 -0.09781479 -0.09793048 -0.09803592 -0.09813052
 -0.0982163 -0.09830387 -0.09839433 -0.0984981 -0.09861236 -0.09873676 -0.09886657 -0.09899379 -0.09911697 -0.09923087
 -0.09933786 -0.09943818 -0.0995336 -0.09962556 -0.09971317 -0.09979613 -0.099875 -0.09994934 -0.1000228 -0.1000958
 -0.1001708 -0.1002481 -0.1003239 -0.1003981 -0.1004623 -0.1005162 -0.1005529 -0.1005735 -0.1005786 -0.1005712
 -0.1005616 -0.1005531 -0.1005589 -0.1005779 -0.1006159 -0.100665 -0.10072 -0.1007711 -0.1008086 -0.1008287
 -0.1008255 -0.1008032 -0.1007617 -0.100707 -0.100641 -0.1005657 -0.1004821 -0.1003887 -0.1002855 -0.1001723
 -0.100049 -0.09991724 -0.09977686 -0.09962809 -0.09947031 -0.09930001 -0.09911636 -0.09891415 -0.09869385 -0.09845306
 -0.09819476 -0.09792192 -0.09763888 -0.09735148 -0.0970628 -0.09677733 -0.09649558 -0.09621894 -0.09594718 -0.09568027
 -0.09541907 -0.09516384 -0.09491503 -0.09467307 -0.09443571 -0.09420292 -0.0939708 -0.09373913 -0.09350561 -0.09327032
 -0.09303401 -0.09279726 -0.09256381 -0.09233472 -0.09211578 -0.09190767 -0.09171522 -0.09153776 -0.09137679 -0.09123009
 -0.09109639 -0.09097189 -0.09085438 -0.09073763 -0.0906186 -0.09049007 -0.0903484 -0.0901907 -0.09001466 -0.08982453
 -0.08962025 -0.08940872 -0.08919062 -0.08897004 -0.08874726 -0.08852343 -0.08829873 -0.08807524 -0.08785387 -0.08764028
 -0.08743682 -0.08725407 -0.08709566 -0.0869756 -0.08689599 -0.0868674 -0.08688787 -0.08695953 -0.08707905 -0.08724362
 -0.08745376 -0.08770864 -0.08801044 -0.08836129 -0.08875593 -0.08919549 -0.08966441 -0.09016117 -0.09066838 -0.0911841
 -0.09169751 -0.09220789 -0.09270925 -0.09320114 -0.09367607 -0.09413313 -0.09456251 -0.09496395 -0.09533064 -0.09566435
 -0.09596527 -0.09623698 -0.09648518 -0.09671348 -0.0969282 -0.09713206 -0.09732933 -0.09752131 -0.09771 -0.09789514
 -0.09807744 -0.09825476 -0.09842687 -0.09859096 -0.09874646 -0.09889178 -0.09902656 -0.09915142 -0.09926636 -0.09937286
 -0.09947089 -0.09956036 -0.09964077 -0.09970891 -0.09976433 -0.0998031 -0.09982629 -0.09983338 -0.09982852 -0.09981719
 -0.09980666 -0.09980716 -0.09982557 -0.09987194 -0.09994683 -0.1000553 -0.1001887 -0.1003464 -0.1005147 -0.1006903
 -0.1008608 -0.1010237 -0.1011705 -0.1013001 -0.1014095 -0.1014983 -0.1015723 -0.1016323 -0.1016952 -0.1017628
 -0.1018578 -0.1019822 -0.1021572 -0.1023831 -0.1026735 -0.1030241 -0.1034367 -0.1038982 -0.1043965 -0.1049115
 -0.1054231 -0.1059151 -0.1063709 -0.1067891 -0.1071636 -0.1075056 -0.1078166 -0.1081068 -0.1083789 -0.1086344
 -0.108874 -0.1090954 -0.1092984 -0.1094838 -0.1096519 -0.1098068 -0.1099489 -0.1100829 -0.1102092 -0.1103319
 -0.1104514 -0.1105711 -0.1106904 -0.1108106 -0.1109293 -0.1110446 -0.1111543 -0.1112557 -0.1113489 -0.1114329
 -0.11151 -0.1115805 -0.1116471 -0.1117103 -0.1117725 -0.1118341 -0.1118964 -0.1119598 -0.1120227 -0.1120852
 -0.112142 -0.112193 -0.1122342 -0.1122664 -0.1122928 -0.1123153 -0.1123433 -0.1123768 -0.1124218 -0.1124747
 -0.1125316 -0.1125882 -0.1126361 -0.1126761 -0.1127044 -0.1127275 -0.1127482 -0.1127711 -0.1128001 -0.1128325
 -0.1128689 -0.1129028 -0.1129327 -0.1129558 -0.1129712 -0.1129816 -0.1129872 -0.1129937 -0.1130015 -0.1130152
 -0.1130346 -0.113061 -0.1130933 -0.1131277 -0.1131629 -0.1131935 -0.1132196 -0.1132388 -0.1132535 -0.1132659
 -0.1132779 -0.1132928 -0.1133098 -0.1133299 -0.11335 -0.1133691 -0.1133848 -0.1133959 -0.1134028 -0.113405
 -0.1134049 -0.1134026 -0.1134001 -0.1133976 -0.1133957 -0.1133943 -0.1133938 -0.113394 -0.1133954 -0.1133977
 -0.1134007 -0.1134041 -0.113407 -0.1134095 -0.1134112 -0.1134129 -0.1134155 -0.1134194 -0.1134256 -0.1134329
 -0.1134411 -0.1134484 -0.1134538 -0.1134569 -0.1134566 -0.1134554 -0.1134532 -0.1134534 -0.1134566 -0.1134647
 -0.113478 -0.1134942 -0.1135131 -0.1135298 -0.1135442 -0.1135531 -0.1135573 -0.1135581 -0.1135564 -0.1135563
 -0.1135583 -0.1135656 -0.113578 -0.1135964 -0.1136194 -0.1136462 -0.1136739 -0.1137004 -0.1137227 -0.1137387
 -0.1137484 -0.1137509 -0.1137501 -0.1137462 -0.1137444 -0.1137453 -0.1137513 -0.1137626 -0.1137782 -0.1137979
 -0.1138192 -0.1138418 -0.1138634 -0.113884 -0.1139028 -0.11392 -0.1139357 -0.1139499 -0.1139626 -0.1139739
 -0.1139831 -0.1139909 -0.1139975 -0.1140039 -0.1140111 -0.1140198 -0.1140305 -0.114043 -0.1140573 -0.1140725
 -0.1140885 -0.1141047 -0.114121 -0.114137 -0.1141524 -0.1141672 -0.1141813 -0.1141945 -0.114207 -0.1142184
 -0.1142287 -0.1142373 -0.1142442 -0.1142492 -0.1142524 -0.1142543 -0.1142554 -0.1142565 -0.1142578 -0.1142599
 -0.1142626 -0.1142658 -0.1142693 -0.1142728 -0.1142766 -0.1142807 -0.114286 -0.1142926 -0.1143004 -0.1143093
 -0.1143171 -0.1143235 -0.1143267 -0.1143266 -0.1143234 -0.1143172 -0.11431 -0.1143022 -0.1142955 -0.1142903
 -0.1142887 -0.1142906 -0.1142975 -0.1143084 -0.114323 -0.114339 -0.1143544 -0.1143674 -0.114376 -0.1143801
 -0.1143788 -0.1143739 -0.1143653 -0.1143566 -0.1143483 -0.114344 -0.1143445 -0.1143511 -0.1143642 -0.114381
 -0.1144015 -0.1144212 -0.11444 -0.1144547 -0.1144654 -0.1144718 -0.1144745 -0.114475 -0.1144738 -0.114473
 -0.1144722 -0.114472 -0.1144717 -0.1144705 -0.1144687 -0.1144658 -0.1144633 -0.114462 -0.1144617 -0.1144628
 -0.1144623 -0.1144596 -0.1144523 -0.1144393 -0.1144229 -0.114403 -0.1143843 -0.1143671 -0.1143542 -0.1143454
 -0.1143401 -0.1143381 -0.1143383 -0.1143409 -0.1143453 -0.114351 -0.1143566 -0.1143611 -0.1143622 -0.1143598
 -0.1143529 -0.114343 -0.1143311 -0.1143187 -0.1143071 -0.1142962 -0.1142861 -0.1142758 -0.114265 -0.1142534
 -0.1142407 -0.1142273 -0.114213 -0.114198 -0.1141824 -0.114166 -0.1141487 -0.1141305 -0.1141113 -0.1140908
 -0.1140692 -0.1140466 -0.1140233 -0.1140002 -0.1139775 -0.1139559 -0.1139354 -0.1139164 -0.1138986 -0.113882
 -0.1138661 -0.1138511 -0.1138363 -0.1138217 -0.1138067 -0.1137909 -0.1137744 -0.113757 -0.1137392 -0.1137212
 -0.1137025 -0.1136833 -0.113662 -0.1136385 -0.113612 -0.1135832 -0.1135543 -0.113526 -0.1135021 -0.1134819
 -0.1134666 -0.1134549 -0.1134447 -0.1134355 -0.1134257 -0.1134165 -0.1134084 -0.1134022 -0.113399 -0.1133981
 -0.1133996 -0.1134024 -0.1134059 -0.1134094 -0.1134127 -0.1134144 -0.1134143 -0.1134115 -0.1134059 -0.1133982
 -0.1133884 -0.1133783 -0.1133681 -0.1133585 -0.1133494 -0.1133407 -0.1133323 -0.1133234 -0.1133139 -0.113303
 -0.113291 -0.1132778 -0.113264 -0.1132502 -0.1132371 -0.1132252 -0.1132142 -0.113204 -0.1131944 -0.1131854
 -0.1131778 -0.1131717 -0.1131669 -0.1131635 -0.1131588 -0.1131527 -0.1131435 -0.1131314 -0.1131187 -0.1131055
 -0.113095 -0.1130865 -0.1130801 -0.1130745 -0.1130667 -0.1130563 -0.1130407 -0.1130208 -0.1129962 -0.1129686
 -0.1129387 -0.1129086 -0.1128794 -0.1128526 -0.1128291 -0.112809 -0.1127927 -0.1127786 -0.1127664 -0.1127541
 -0.1127411 -0.1127268 -0.112711 -0.1126948 -0.1126783 -0.1126625 -0.1126472 -0.1126321 -0.1126166 -0.1125987
 -0.1125781 -0.1125533 -0.1125249 -0.1124929 -0.1124589 -0.1124244 -0.1123907 -0.1123595 -0.112331 -0.1123058
 -0.112284 -0.1122654 -0.11225 -0.1122378 -0.112228 -0.1122206 -0.112213 -0.1122049 -0.1121931 -0.1121772
 -0.112156 -0.1121296 -0.1120998 -0.1120672 -0.1120352 -0.112004 -0.1119762 -0.1119512 -0.111929 -0.1119087
 -0.1118884 -0.1118673 -0.1118435 -0.1118175 -0.1117889 -0.1117591 -0.111729 -0.1116999 -0.1116728 -0.111647
 -0.1116227 -0.1115976 -0.1115711 -0.1115424 -0.1115113 -0.1114794 -0.1114467 -0.1114152 -0.1113849 -0.1113556
 -0.1113273 -0.1112986 -0.1112698 -0.1112404 -0.1112111 -0.1111825 -0.1111555 -0.1111315 -0.1111117 -0.1110981
 -0.1110921 -0.1110957 -0.1111088 -0.1111323 -0.1111644 -0.1112047 -0.1112503 -0.1113002 -0.111352 -0.1114049
 -0.1114573 -0.1115091 -0.1115602 -0.1116107 -0.1116614 -0.1117125 -0.111763 -0.1118125 -0.1118579 -0.1118987
 -0.111931 -0.1119532 -0.11196 -0.111948 -0.111909 -0.1118392 -0.1117289 -0.1115799 -0.1113857 -0.1111644
 -0.1109198 -0.1106861 -0.1104784 -0.1103203 -0.1102249 -0.1101859 -0.1102073 -0.1102608 -0.1103449 -0.1104242
 -0.1104962 -0.1105334 -0.1105357 -0.1105018 -0.110435 -0.1103573 -0.1102706 -0.1101952 -0.110129 -0.1100775
 -0.1100365 -0.1100007 -0.1099661 -0.1099241 -0.1098745 -0.1098127 -0.1097433 -0.1096676 -0.1095893 -0.1095113
 -0.1094308 -0.1093477 -0.1092583 -0.109161 -0.1090581 -0.108949 -0.108842 -0.1087379 -0.1086432 -0.1085582
 -0.1084827 -0.1084163 -0.1083535 -0.1082939 -0.1082324 -0.1081692 -0.1081029 -0.1080344 -0.1079652 -0.1078964
 -0.10783 -0.1077663 -0.107707 -0.1076511 -0.1075989 -0.1075482 -0.1074981 -0.1074466 -0.1073926 -0.1073369
 -0.107279 -0.1072216 -0.1071651 -0.1071107 -0.1070585 -0.1070067 -0.1069551 -0.1069013 -0.1068457 -0.1067884
 -0.1067299 -0.1066728 -0.1066171 -0.1065651 -0.1065162 -0.1064707 -0.1064279 -0.1063873 -0.106348 -0.1063092
 -0.1062695 -0.1062283 -0.106184 -0.1061356 -0.1060825 -0.1060243 -0.105962 -0.1058955 -0.1058275 -0.1057581
 -0.1056907 -0.1056257 -0.1055657 -0.1055106 -0.10546 -0.1054132 -0.1053658 -0.1053174 -0.1052638 -0.1052059
 -0.1051442 -0.1050806 -0.1050191 -0.1049605 -0.104908 -0.1048596 -0.1048151 -0.1047716 -0.1047269 -0.1046799
 -0.1046293 -0.1045763 -0.1045207 -0.104464 -0.1044067 -0.1043488 -0.1042903 -0.1042312 -0.1041712 -0.1041108
 -0.10405 -0.1039894 -0.1039289 -0.1038678 -0.1038058 -0.1037413 -0.1036746 -0.1036053 -0.1035342 -0.1034633
 -0.1033937 -0.1033281 -0.1032668 -0.1032115 -0.1031609 -0.1031152 -0.1030716 -0.1030291 -0.1029843 -0.102936
 -0.1028826 -0.1028231 -0.1027597 -0.1026922 -0.1026255 -0.1025601 -0.1024996 -0.1024441 -0.1023928 -0.1023454
 -0.1022974 -0.1022487 -0.1021956 -0.1021387 -0.1020783 -0.1020157 -0.1019539 -0.1018932 -0.1018358 -0.1017805
 -0.1017269 -0.1016734 -0.1016184 -0.101562 -0.1015037 -0.101445 -0.1013864 -0.1013285 -0.1012717 -0.1012154
 -0.1011596 -0.1011038 -0.101048 -0.1009922 -0.1009364 -0.1008805 -0.1008247 -0.1007693 -0.1007145 -0.1006617
 -0.1006105 -0.1005612 -0.1005126 -0.1004625 -0.1004103 -0.1003537 -0.1002939 -0.1002312 -0.1001676 -0.1001052
 -0.1000441 -0.09998526 -0.09992689 -0.09986853 -0.09980879 -0.09974699 -0.09968422 -0.0996203 -0.09955826 -0.09949838
 -0.09944268 -0.09939127 -0.09934314 -0.09929799 -0.09925209 -0.09920523 -0.09915423 -0.09909954 -0.0990409 -0.09897907
 -0.09891579 -0.09885115 -0.09878615 -0.09872042 -0.09865372 -0.09858649 -0.09851856 -0.09845173 -0.09838691 -0.09832523
 -0.0982677 -0.09821286 -0.09816082 -0.09810869 -0.09805598 -0.09800139 -0.09794466 -0.09788676 -0.09782773 -0.09776892
 -0.0977103 -0.09765185 -0.0975934 -0.09753376 -0.09747302 -0.09741075 -0.09734741 -0.09728382 -0.09722053 -0.09715892
 -0.09709893 -0.09704117 -0.09698488 -0.09692966 -0.09687492 -0.09682024 -0.09676528 -0.09670991 -0.09665372 -0.09659664
 -0.09653815 -0.09647806 -0.09641686 -0.09635452 -0.09629248 -0.09623083 -0.09617043 -0.09611125 -0.09605289 -0.09599517
 -0.09593692 -0.0958781 -0.09581794 -0.09575684 -0.09569524 -0.09563382 -0.09557403 -0.09551566 -0.09545951 -0.09540383
 -0.09534766 -0.09528919 -0.09522679 -0.09516117 -0.09509174 -0.09502152 -0.09495118 -0.09488254 -0.0948161 -0.09475166
 -0.09468929 -0.09462826 -0.09456851 -0.09451006 -0.09445287 -0.09439664 -0.09434114 -0.09428471 -0.09422711 -0.09416649
 -0.09410334 -0.0940377 -0.09397085 -0.0939051 -0.0938409 -0.09378017 -0.09372142 -0.09366437 -0.09360684 -0.09354722
 -0.09348556 -0.09342103 -0.09335635 -0.0932921 -0.09323002 -0.0931708 -0.09311265 -0.09305554 -0.09299642 -0.09293509
 -0.09287114 -0.09280475 -0.09273832 -0.09267209 -0.09260873 -0.09254792 -0.09249 -0.09243434 -0.09237944 -0.09232508
 -0.09227009 -0.09221467 -0.09215865 -0.0921019 -0.09204453 -0.09198545 -0.09192385 -0.09185985 -0.09179291 -0.09172525
 -0.09165715 -0.09159113 -0.09152798 -0.09146664 -0.09140728 -0.09134612 -0.09128296 -0.09121626 -0.09114619 -0.09107531
 -0.09100392 -0.09093549 -0.09086961 -0.09080677 -0.09074613 -0.09068582 -0.09062546 -0.09056334 -0.09049994 -0.0904351
 -0.09036951 -0.09030355 -0.09023816 -0.09017406 -0.09011158 -0.09005138 -0.08999183 -0.089933 -0.08987139 -0.08980639
 -0.08973595 -0.08965951 -0.08957983 -0.08949699 -0.08941681 -0.08933943 -0.08926774 -0.08920117 -0.08913734 -0.08907551
 -0.08901146 -0.08894534 -0.08887522 -0.08880213 -0.08872694 -0.08865066 -0.08857497 -0.08850019 -0.08842736 -0.08835578
 -0.08828537 -0.08821536 -0.0881452 -0.0880753 -0.08800551 -0.08793706 -0.08787029 -0.08780492 -0.08774116 -0.08767606
 -0.08760947 -0.08753896 -0.08746462 -0.08738812 -0.08730993 -0.08723424 -0.08716101 -0.08709276 -0.08702842 -0.08696675
 -0.08690645 -0.08684457 -0.08678059 -0.08671233 -0.08664069 -0.0865655 -0.08648834 -0.08641018 -0.08633179 -0.08625384
 -0.08617599 -0.0860982 -0.08602043 -0.08594245 -0.08586587 -0.08579081 -0.08571919 -0.08565122 -0.08558526 -0.08552107
 -0.08545393 -0.08538381 -0.08530802 -0.08522755 -0.08514487 -0.08506106 -0.08498071 -0.08490295 -0.08482859 -0.08475576
 -0.08468194 -0.08460726 -0.08453047 -0.08445378 -0.08437853 -0.08430517 -0.08423492 -0.08416475 -0.08409413 -0.08402013
 -0.08394182 -0.08385967 -0.08377337 -0.0836862 -0.08359832 -0.08351298 -0.0834303 -0.08335208 -0.08327808 -0.08320767
 -0.08314022 -0.08307276 -0.08300471 -0.08293276 -0.08285729 -0.08277713 -0.08269379 -0.08260877 -0.08252325 -0.08243905
 -0.082356 -0.08227467 -0.082194 -0.08211356 -0.08203307 -0.0819523 -0.08187132 -0.08179023 -0.08170816 -0.08162501
 -0.08153968 -0.08145203 -0.0813627 -0.08127175 -0.08118082 -0.08108985 -0.08099917 -0.08090878 -0.08081858 -0.08072902
 -0.08064153 -0.08055586 -0.08047284 -0.08039043 -0.08030623 -0.0802188 -0.08012498 -0.0800274 -0.07992618 -0.07982589
 -0.07972917 -0.07963624 -0.0795483 -0.07946164 -0.07937557 -0.07928856 -0.07920015 -0.07911202 -0.07902426 -0.07893764
 -0.07885212 -0.07876549 -0.07867774 -0.07858764 -0.07849552 -0.07840253 -0.07830852 -0.07821399 -0.07811795 -0.07801852
 -0.07791556 -0.07780752 -0.07769619 -0.0775824 -0.07746847 -0.07735608 -0.07724683 -0.07714184 -0.07704189 -0.07694782
 -0.07685788 -0.07677253 -0.07668582 -0.07659722 -0.07650049 -0.07639498 -0.07628079 -0.07615811 -0.07603299 -0.0759058
 -0.07578242 -0.07566254 -0.07554797 -0.07543807 -0.07533199 -0.07522915 -0.0751283 -0.07502855 -0.07492843 -0.07482656
 -0.07472133 -0.07461135 -0.07449507 -0.0743724 -0.07424232 -0.07410748 -0.07396802 -0.07382827 -0.07368921 -0.0735533
 -0.07342124 -0.07329139 -0.07316374 -0.07303532 -0.07290605 -0.07277506 -0.07264244 -0.07250874 -0.07237367 -0.07223633
 -0.07209605 -0.07195004 -0.07179864 -0.07164066 -0.07147796 -0.07131263 -0.07114616 -0.0709814 -0.07081719 -0.07065388
 -0.07048942 -0.0703224 -0.07015373 -0.06998288 -0.06981345 -0.0696464 -0.06948249 -0.06932246 -0.06916127 -0.06899875
 -0.06882714 -0.06864612 -0.06845117 -0.06824282 -0.06802409 -0.06779609 -0.06756609 -0.06733388 -0.06710315 -0.0668719
 -0.06663767 -0.06639889 -0.06615192 -0.06589679 -0.06563242 -0.06535859 -0.06507535 -0.0647807 -0.06447397 -0.06415275
 -0.0638162 -0.06346244 -0.06309076 -0.06270091 -0.06229209 -0.06187061 -0.0614365 -0.06100341 -0.06057196 -0.06015112
 -0.05974024 -0.05933594 -0.05893758 -0.05853961 -0.05814343 -0.05775104 -0.05736265 -0.05698119 -0.05660221 -0.05622016
 -0.05583235 -0.05543086 -0.05502469 -0.05461603 -0.05421823 -0.05383991 -0.0534828 -0.05315081 -0.05283571 -0.05253642
 -0.05224637 -0.05196449 -0.05168713 -0.05141416 -0.05113785 -0.05085774 -0.05056389 -0.0502569 -0.04993861 -0.0496119
 -0.04929353 -0.04898398 -0.04869509 -0.04842211 -0.04816079 -0.04790618 -0.04764859 -0.04738637 -0.04711469 -0.04683189
 -0.04653684 -0.04622353 -0.04588959 -0.04552776 -0.04513437 -0.0447085 -0.044248 -0.0437612 -0.04324835 -0.04272134
 -0.04218103 -0.04163877 -0.04109519 -0.04056002 -0.04003285 -0.039514 -0.03900007 -0.03847378 -0.03793083 -0.03734472
 -0.03672053 -0.03605212 -0.03535702 -0.03466146 -0.0339727 -0.03331358 -0.03266918 -0.03203651 -0.03139943 -0.03074622
 -0.03007818 -0.02939171 -0.02869755 -0.027998 -0.02729814 -0.02659887 -0.02590412 -0.0252141 -0.02453514 -0.0238675
 -0.02320862 -0.02255822 -0.02191065 -0.02126863 -0.02064437 -0.02004118 -0.01947993 -0.01895487 -0.01846569 -0.01799997
 -0.01753526 -0.01707126 -0.01659359 -0.0161224 -0.0156692 -0.01524625 -0.01486732 -0.01452059 -0.01420478 -0.01390953
 -0.01362991 -0.01337313 -0.01313918 -0.01293811 -0.01277138 -0.01263722 -0.01253558 -0.0124583 -0.01240518 -0.01237179
 -0.01235848 -0.01236541 -0.01239226 -0.01243843 -0.01250261 -0.01258194 -0.01267436 -0.01277612 -0.01288367 -0.01299237
 -0.01309776 -0.01319515 -0.01328126 -0.01335341 -0.01340917 -0.0134477 -0.01346501 -0.01346016 -0.01342958 -0.0133721
 -0.01328972 -0.01318233 -0.01305447 -0.01290639 -0.01273889 -0.01255192 -0.01234443 -0.01211691 -0.01187147 -0.01160914
 -0.01133478 -0.01104889 -0.01075505 -0.01045321 -0.01014511 -0.009829803 -0.009507138 -0.009175471 -0.008833478 -0.008479984
 -0.008113454 -0.007735448 -0.007345594 -0.00694802 -0.006543417 -0.006136141 -0.005726999 -0.005318532 -0.004911003 -0.004506506
 -0.004105146 -0.003713473 -0.00333203 -0.002970134 -0.002627667 -0.002308537 -0.002012193 -0.001737177 -0.001486444 -0.001264862
 -0.001079114 -0.0009425991 -0.0008597002 -0.0008408897 -0.0008874107 -0.001003453 -0.001189416 -0.001447753 -0.001773747 -0.002166164
 -0.002621058 -0.003134304 -0.003719911 -0.004377947 -0.005133415 -0.005990813 -0.006942309 -0.007988123 -0.009071593 -0.01019057
 -0.01130227 -0.01241042 -0.01351867 -0.01463013 -0.01575986 -0.01690459 -0.0180646 -0.01923378 -0.02040114 -0.02156431
 -0.0227156 -0.02385641 -0.02498867 -0.02610293 -0.02719981 -0.02825173 -0.02924755 -0.03017135 -0.03101234 -0.03178832
 -0.03249921 -0.03317175 -0.03380931 -0.03442246 -0.03501217 -0.03557425 -0.0361085 -0.03661074 -0.03708154 -0.03752252
 -0.03793466 -0.03832218 -0.03868622 -0.0390312 -0.03935941 -0.03967603 -0.03998482 -0.04029199 -0.04060106 -0.04091764
 -0.04124153 -0.04157532 -0.04191363 -0.0422559 -0.0425937 -0.04292543 -0.04324152 -0.04354051 -0.04381277 -0.04405679
 -0.04427024 -0.04445272 -0.04461189 -0.04474816 -0.04486907 -0.04497431 -0.04506497 -0.04514089 -0.0452019 -0.0452484
 -0.04528217 -0.04530156 -0.04530548 -0.04528948 -0.0452476 -0.04517662 -0.04507082 -0.04493181 -0.04475834 -0.04455466
 -0.04432252 -0.04406355 -0.04377893 -0.04346727 -0.04312849 -0.04276142 -0.04236605 -0.04194009 -0.04148346 -0.04099033
 -0.04046084 -0.03989613 -0.0392997 -0.03869665 -0.03809231 -0.03752379 -0.0369899 -0.03650792 -0.03607057 -0.03567217
 -0.03530745 -0.03496768 -0.03464916 -0.03434809 -0.03405489 -0.033764 -0.03346456 -0.03314804 -0.03282015 -0.03247784
 -0.0321432 -0.03182079 -0.03151974 -0.03124329 -0.03097672 -0.03071945 -0.03045216 -0.03017433 -0.02987811 -0.02956444
 -0.02923721 -0.02889649 -0.02854575 -0.0281818 -0.02779868 -0.02739132 -0.02694653 -0.0264638 -0.02593483 -0.02536765
 -0.024766 -0.02413845 -0.02349287 -0.02282865 -0.02214733 -0.02144697 -0.02072495 -0.01999193 -0.01924766 -0.01851293
 -0.0177899 -0.0170956 -0.01643144 -0.01580622 -0.0152205 -0.01468305 -0.01419491 -0.01376861 -0.01340434 -0.01311057
 -0.01288479 -0.01272482 -0.01262726 -0.01258438 -0.01259477 -0.01265319 -0.01276008 -0.0129145 -0.01311573 -0.01336396
 -0.01365555 -0.01398962 -0.01436106 -0.01476809 -0.01520808 -0.01567985 -0.01618494 -0.01672357 -0.0172961 -0.01790291
 -0.01853528 -0.01919251 -0.01985928 -0.02053494 -0.02120784 -0.02187767 -0.02253783 -0.02318624 -0.023814 -0.02441828
 -0.02498827 -0.0255254 -0.02602514 -0.02649548 -0.0269409 -0.02737228 -0.0277975 -0.02822491 -0.0286609 -0.0291064
 -0.02956453 -0.03002677 -0.03049304 -0.03094955 -0.03139467 -0.03181805 -0.03221864 -0.03259372 -0.0329432 -0.03326763
 -0.0335668 -0.03383898 -0.03408385 -0.03429852 -0.03448384 -0.03464012 -0.03476981 -0.03487777 -0.0349663 -0.03504082
 -0.03510187 -0.03515205 -0.03519075 -0.03521822 -0.03523422 -0.0352385 -0.0352318 -0.0352144 -0.03518626 -0.03514761
 -0.03509713 -0.03503465 -0.03495897 -0.03486984 -0.03476925 -0.03465742 -0.03454069 -0.03441965 -0.03430234 -0.03418878
 -0.03408367 -0.03398583 -0.0338943 -0.03380768 -0.03372235 -0.03363845 -0.03355422 -0.03347145 -0.03339124 -0.03331512
 -0.03324473 -0.03317981 -0.03312065 -0.03306674 -0.03301758 -0.0329748 -0.03293856 -0.03291093 -0.03289257 -0.03288155
 -0.03287804 -0.03287505 -0.03287226 -0.0328634 -0.0328486 -0.03282671 -0.03279805 -0.03276416 -0.03272419 -0.03267644
 -0.03261969 -0.03254968 -0.03246824 -0.03237462 -0.03227542 -0.03217593 -0.03208446 -0.0320084 -0.03195254 -0.03192164
 -0.03191492 -0.03193376 -0.03197357 -0.03203414 -0.03210879 -0.03219707 -0.0322901 -0.03238735 -0.03247818 -0.032562
 -0.03262842 -0.03267719 -0.03270153 -0.03270223 -0.03267915 -0.03263433 -0.03257373 -0.03249962 -0.03242004 -0.03233521
 -0.0322495 -0.0321606 -0.03206786 -0.03196893 -0.03186141 -0.0317458 -0.03162133 -0.03149038 -0.0313536 -0.03121259
 -0.03106775 -0.03092017 -0.03076972 -0.03062001 -0.03047118 -0.0303288 -0.03019315 -0.03006836 -0.02995436 -0.02985205
 -0.02976105 -0.02967995 -0.02960833 -0.02954395 -0.02948677 -0.02943518 -0.02939028 -0.02935295 -0.02932427 -0.02930639
 -0.02929774 -0.02929883 -0.02930491 -0.02931398 -0.02932191 -0.02932634 -0.02932751 -0.02932462 -0.02932111 -0.02931739
 -0.0293157 -0.02931641 -0.02931845 -0.02932177 -0.02932264 -0.02932086 -0.0293126 -0.02929819 -0.0292769 -0.02925023
 -0.02922248 -0.02919556 -0.02917621 -0.02916449 -0.02916408 -0.02917246 -0.02918857 -0.02920948 -0.02923217 -0.02925663
 -0.02928163 -0.02930953 -0.02934102 -0.02937724 -0.02941887 -0.02946458 -0.02951436 -0.0295663 -0.02962026 -0.02967492
 -0.02973017 -0.02978398 -0.029836 -0.02988213 -0.02992157 -0.02994796 -0.02996015 -0.02995084 -0.02991939 -0.02986045
 -0.02977481 -0.02966128 -0.02952111 -0.02935578 -0.02916456 -0.0289477 -0.02870337 -0.02843 -0.02812903 -0.02779959
 -0.02744782 -0.02707467 -0.02668668 -0.02628504 -0.02587321 -0.02545161 -0.02502258 -0.02458627 -0.02414707 -0.02370547
 -0.02326835 -0.02283636 -0.02241683 -0.02201017 -0.02162204 -0.02125185 -0.02090126 -0.02056885 -0.02025297 -0.01995266
 -0.01966602 -0.01939315 -0.01913387 -0.01888728 -0.01865356 -0.01842937 -0.01821367 -0.01800343 -0.01779716 -0.01759617
 -0.01739994 -0.01721404 -0.01703894 -0.01687914 -0.01673494 -0.01660367 -0.01648462 -0.0163675 -0.01625102 -0.01612229
 -0.0159805 -0.01581596 -0.01562832 -0.01541174 -0.01516688 -0.01489137 -0.01458837 -0.01425941 -0.01391076 -0.0135474
 -0.01317522 -0.01279918 -0.01242061 -0.0120414 -0.01165999 -0.011276 -0.01088984 -0.01050112 -0.01011332 -0.009726536
 -0.009345956 -0.008971858 -0.00861178 -0.008266282 -0.007945092 -0.007648236 -0.007381781 -0.007143457 -0.006928888 -0.006734225
 -0.006547682 -0.006367359 -0.006183899 -0.005999408 -0.005812686 -0.005626207 -0.005442938 -0.00526004 -0.005078204 -0.0048894
 -0.004691053 -0.004476257 -0.004242444 -0.003987487 -0.003710513 -0.00341197 -0.003091875 -0.002749905 -0.002386042 -0.001999849
 -0.001591409 -0.001161797 -0.0007114563 -0.0002435163 0.0002411293 0.0007379985 0.001245259 0.001756933 0.002269688 0.002776708
 0.003271335 0.003745415 0.004186885 0.004585706 0.004925478 0.005194925 0.005381585 0.005476175 0.00548075 0.005390972
 0.005227387 0.004990513 0.004712813 0.004396977 0.004075065 0.003749201 0.003441636 0.003152882 0.002892411 0.00265969
 0.002455692 0.002280321 0.002133348 0.002016002 0.001931251 0.001880348 0.001867671 0.001891576 0.001953115 0.002046535
 0.002168601 0.002310904 0.002469006 0.002632809 0.002799385 0.002953738 0.003093528 0.003197253 0.003261616 0.003266418
 0.003208674 0.003080621 0.002881402 0.002616148 0.002285219 0.001895645 0.001447268 0.0009418267 0.0003795925 -0.0002386767
 -0.0009098188 -0.001626962 -0.002383033 -0.003163819 -0.003959934 -0.004754766 -0.00554021 -0.006303233 -0.007041406 -0.007748514
 -0.00842914 -0.00908298 -0.009717429 -0.01033448 -0.01093907 -0.01153276 -0.01211565 -0.01268821 -0.01324679 -0.01379122
 -0.01431664 -0.01482289 -0.01530693 -0.01576867 -0.01620623 -0.01661911 -0.01700408 -0.01736107 -0.01768696 -0.01798494
 -0.01825787 -0.01851282 -0.01875944 -0.01900424 -0.01925697 -0.0195186 -0.01979326 -0.02007712 -0.02036987 -0.02066683
 -0.02096691 -0.02126556 -0.02156211 -0.02185138 -0.02213282 -0.0224016 -0.02265733 -0.02289785 -0.02312316 -0.02333358
 -0.02352943 -0.02371298 -0.02388465 -0.02404773 -0.02420196 -0.02434899 -0.02448688 -0.02461306 -0.02472523 -0.02481865
 -0.02489408 -0.02494921 -0.02498965 -0.02501751 -0.0250396 -0.02505917 -0.02508098 -0.02510671 -0.02514049 -0.02518294
 -0.02523942 -0.0253109 -0.02539855 -0.02550284 -0.02561464 -0.02573321 -0.02584216 -0.02594108 -0.02601864 -0.0260764
 -0.02611464 -0.02613611 -0.0261487 -0.02615405 -0.02615951 -0.02616405 -0.02616965 -0.02617388 -0.02617477 -0.02617183
 -0.02616343 -0.02615216 -0.02613885 -0.02612532 -0.02611321 -0.02609878 -0.02608232 -0.02605569 -0.02601805 -0.02596267
 -0.02588892 -0.02579519 -0.02568156 -0.02555092 -0.025404 -0.02524759 -0.025083 -0.02491949 -0.02475831 -0.02460809
 -0.02446868 -0.02434447 -0.02423302 -0.02413328 -0.02404167 -0.02395432 -0.02386926 -0.02378378 -0.02369823 -0.02361241
 -0.02352591 -0.0234392 -0.0233488 -0.02325425 -0.023152 -0.02304147 -0.02292114 -0.02279087 -0.02264906 -0.02249565
 -0.02232915 -0.0221503 -0.02196408 -0.02177297 -0.0215911 -0.02142065 -0.02127666 -0.02115702 -0.0210665 -0.02099742
 -0.02094222 -0.02089161 -0.02083353 -0.0207634 -0.02067308 -0.0205666 -0.02044236 -0.02031044 -0.0201731 -0.02004013
 -0.01991419 -0.01979953 -0.01969759 -0.01960512 -0.01952221 -0.01944038 -0.01935926 -0.01927324 -0.01918289 -0.01909154
 -0.01900004 -0.01891495 -0.01883514 -0.0187609 -0.01869017 -0.01861796 -0.01854516 -0.0184705 -0.01839644 -0.01832628
 -0.01825752 -0.01819105 -0.01811877 -0.01803702 -0.01794063 -0.01782577 -0.01769679 -0.01755292 -0.01740468 -0.01725315
 -0.01710773 -0.01696937 -0.01684214 -0.01672618 -0.01661993 -0.016523 -0.01643098 -0.01634357 -0.0162569 -0.01617104
 -0.01608438 -0.01599659 -0.01590643 -0.01581314 -0.01571464 -0.01561169 -0.01550326 -0.01539334 -0.01528418 -0.01517929
 -0.01508199 -0.01498978 -0.0149038 -0.01481559 -0.01472383 -0.01462044 -0.01450387 -0.01437127 -0.01422205 -0.01405908
 -0.01388259 -0.01370167 -0.01351731 -0.01334299 -0.01317907 -0.0130351 -0.01290928 -0.01280119 -0.01270817 -0.01262419
 -0.01254794 -0.01247513 -0.01240469 -0.01233479 -0.01226239 -0.01218494 -0.01209994 -0.01200455 -0.01190147 -0.01178998
 -0.01167743 -0.0115653 -0.01145906 -0.01136027 -0.01126727 -0.01118034 -0.01109199 -0.01100185 -0.01090461 -0.01080054
 -0.01069099 -0.01057631 -0.01045951 -0.01033951 -0.01021422 -0.01008265 -0.009940369 -0.00978999 -0.009632388 -0.009473448
 -0.009319657 -0.009175343 -0.009046923 -0.008932139 -0.008832836 -0.008741064 -0.008654604 -0.008567199 -0.008475987 -0.008383619
 -0.008289338 -0.008202532 -0.008124015 -0.008059956 -0.008010641 -0.007972484 -0.007944814 -0.007918695 -0.007893774 -0.007863375
 -0.007828017 -0.007785824 -0.007737636 -0.007684288 -0.007626696 -0.007566636 -0.007504722 -0.007442621 -0.007379515 -0.00731597
 -0.007248923 -0.007177207 -0.007097645 -0.007008271 -0.006910014 -0.006801972 -0.006689915 -0.006574516 -0.006460611 -0.006348851
 -0.00623984 -0.006133635 -0.006030167 -0.005929388 -0.005831331 -0.005735082 -0.005635638 -0.005531669 -0.005414566 -0.005286685
 -0.005147892 -0.00500409 -0.004865435 -0.004733815 -0.004617229 -0.004509377 -0.004408599 -0.004307475 -0.00420073 -0.004087504
 -0.003965738 -0.003838781 -0.003707227 -0.003572851 -0.003436165 -0.003296876 -0.003155012 -0.003010161 -0.002862304 -0.002711026
 -0.002556311 -0.002397693 -0.002235379 -0.002069922 -0.001902341 -0.001736078 -0.001572981 -0.001419212 -0.001275674 -0.00114723
 -0.00103213 -0.0009307844 -0.0008398183 -0.0007566704 -0.0006792113 -0.0006058509 -0.0005347313 -0.0004654699 -0.000394156 -0.0003200225
 -0.0002388677 -0.000149427 -5.281625E-05 5.14109E-05 0.0001556934 0.0002596255 0.0003563638 0.0004462592 0.0005322615 0.0006162559
 0.0007117667 0.0008193686 0.0009501658 0.001099487 0.001262967 0.001432857 0.001593633 0.001742134 0.001866643 0.001972923
 0.00205981 0.002139364 0.002216371 0.002304932 0.002411866 0.002543998 0.002708866 0.002883683 0.003068493 0.003223229
 0.003342139 0.003421334 0.00346005 0.003485948 0.003500224 0.003525667 0.003560977 0.003610037 0.003669285 0.003727673
 0.003782414 0.00382013 0.003842313 0.003843639 0.003831507 0.003811246 0.003792856 0.003787003 0.003797374 0.003831096
 0.003880629 0.003945879 0.004015079 0.004084983 0.004148836 0.00420455 0.004252178 0.004291407 0.004324397 0.004351291
 0.004371442 0.004384627 0.004386688 0.004377846 0.004356824 0.004325437 0.004290409 0.004252416 0.004218649 0.004183707
 0.004142284 0.004087422 0.004003995 0.003901951 0.003777992 0.003663241 0.003574533 0.003533723 0.003558569 0.003636647
 0.003772309 0.00392966 0.00410475 0.004260177 0.004391197 0.004476378 0.004513677 0.004513441 0.004477735 0.004444286
 0.004415172 0.004424553 0.0044691 0.004555005 0.00467544 0.004815953 0.004971801 0.005127961 0.005282512 0.005427594
 0.005561627 0.005680414 0.005784373 0.005871972 0.005946463 0.006009075 0.006061051 0.006103405 0.006133994 0.006151744
 0.006160909 0.006161106 0.006165071 0.006173718 0.006191404 0.006217584 0.006240129 0.006258927 0.006265698 0.006264601
 0.006268944 0.006281243 0.00631845 0.006372303 0.006437656 0.006501145 0.006541115 0.006556848 0.006535983 0.006495281
 0.006439877 0.006388327 0.006351238 0.0063321 0.00633518 0.00635348 0.006385859 0.006430175 0.006485526 0.006557613
 0.006646908 0.006752667 0.006874147 0.006995368 0.007114916 0.007213917 0.007293489 0.007347787 0.007379803 0.007394534
 0.007394448 0.007385522 0.007371475 0.007358656 0.00735196 0.007358993 0.007378994 0.007416339 0.007459449 0.007506389
 0.007540503 0.007557281 0.007542829 0.007493504 0.007403032 0.007269055 0.007100766 0.006897975 0.006690599 0.006480413
 0.006302741 0.006156831 0.006054841 0.00599086 0.00594628 0.005915378 0.005871102 0.005815042 0.005735992 0.005641702
 0.005538088 0.005430735 0.00532776 0.005229088 0.005136297 0.00505073 0.00497171 0.004906925 0.004858603 0.004831741
 0.004829481 0.004842345 0.004870882 0.004893274 0.004908058 0.004897418 0.004861047</values></Ydata></AB><ScSm><Ydata ylabel="Single channel"><values byteorder="INTEL" format="FLOAT32" numvalues="1814"> 0.09583545 0.09596457 0.09610915 0.09627798 0.09646437 0.09664995 0.09681836 0.0969668 0.09710285 0.09723008
 0.09734734 0.09746467 0.09760442 0.09777765 0.09796785 0.09814258 0.0982785 0.09838253 0.09849288 0.09864423
 0.09882084 0.09895619 0.09899394 0.09894717 0.09889112 0.09889601 0.09898074 0.09914671 0.09941986 0.09978561
 0.1000961 0.1001649 0.1000004 0.09983934 0.09988484 0.1001016 0.1003146 0.1004035 0.1003493 0.100215
 0.1001676 0.100429 0.1010762 0.1018736 0.1023434 0.1020393 0.1008433 0.09913051 0.09768249 0.09728022
 0.09814105 0.09967822 0.1009388 0.1013726 0.1011333 0.1006779 0.1002897 0.1000661 0.1001246 0.1005817
 0.101359 0.1021091 0.1023512 0.1017838 0.1006254 0.0995786 0.0992617 0.09972793 0.1006724 0.1018021
 0.1025746 0.1019216 0.09918582 0.09556134 0.09373796 0.09542371 0.09955865 0.1034179 0.1050966 0.1045261
 0.1026938 0.1007643 0.09977226 0.1002672 0.1019525 0.1039823 0.1056396 0.1065346 0.1064222 0.1053092
 0.1036908 0.1023442 0.1018971 0.1026459 0.1044376 0.1064836 0.1076706 0.1074378 0.1062008 0.1048067
 0.1039049 0.1039123 0.1050482 0.1070761 0.1093203 0.1111672 0.112388 0.1130048 0.1131346 0.1129647
 0.112664 0.1123591 0.1122615 0.112561 0.1130591 0.1132075 0.1127173 0.1119495 0.111549 0.111779
 0.1122948 0.1125609 0.1123828 0.1118098 0.1105897 0.1082882 0.1051735 0.1023622 0.1007308 0.1002948
 0.1009121 0.1026659 0.1050198 0.1065408 0.1063331 0.105241 0.1049383 0.106122 0.1080717 0.1097175
 0.1106867 0.1113736 0.1123165 0.1135831 0.1146051 0.1145876 0.1133099 0.1116377 0.1109533 0.1118243
 0.1134569 0.114686 0.1152086 0.1155636 0.1161721 0.1167234 0.1164408 0.1149081 0.1127779 0.1115558
 0.1123622 0.1148239 0.1172607 0.1179572 0.1163832 0.1134813 0.110874 0.1096969 0.1101514 0.1119561
 0.1147467 0.1179113 0.1205022 0.1217149 0.1214397 0.1202358 0.1187233 0.1170074 0.1148942 0.1127877
 0.1119364 0.1132719 0.1162145 0.1191292 0.120835 0.1212689 0.1208284 0.1195735 0.1173216 0.1144605
 0.112322 0.1122049 0.1139047 0.1157512 0.1163853 0.1160339 0.1157592 0.1159932 0.1162911 0.1162263
 0.1160192 0.1162203 0.1170122 0.117986 0.1185823 0.1186135 0.1183105 0.117993 0.1177661 0.1174612
 0.1168973 0.1162819 0.1161984 0.1169921 0.1183051 0.1194329 0.1200173 0.1201906 0.1201539 0.1198353
 0.1190174 0.1177707 0.1166647 0.116368 0.1170003 0.1180404 0.1188806 0.1192806 0.1193099 0.1191168
 0.1188277 0.1185144 0.1182132 0.1180104 0.1180279 0.1182606 0.1185286 0.1186558 0.1186142 0.1184613
 0.1182228 0.1178924 0.1175054 0.1171652 0.1169802 0.1169757 0.1170854 0.1172207 0.1173111 0.117294
 0.1171352 0.1168739 0.116598 0.1163653 0.1161816 0.1160463 0.1159751 0.1159694 0.1159916 0.1159883
 0.1159317 0.1158271 0.1156878 0.1155215 0.1153416 0.1151758 0.1150541 0.1149908 0.1149704 0.1149562
 0.1149299 0.1149145 0.1149309 0.1149439 0.1148931 0.1147703 0.1146297 0.1145275 0.1144774 0.1144595
 0.1144425 0.1143946 0.1142893 0.114124 0.1139435 0.1138281 0.1138326 0.1139457 0.1141168 0.1143
 0.1144566 0.1145554 0.1145981 0.1146197 0.1146439 0.1146606 0.1146558 0.114644 0.1146645 0.1147505
 0.1148975 0.1150607 0.1151938 0.1152817 0.1153353 0.1153783 0.1154446 0.1155527 0.1156702 0.1157384
 0.1157477 0.1157566 0.1158209 0.115931 0.1160312 0.1160849 0.116109 0.1161477 0.1162245 0.1163258
 0.1164266 0.1165203 0.116621 0.1167384 0.1168541 0.1169243 0.1169231 0.1168777 0.1168454 0.1168562
 0.1168973 0.1169521 0.1170244 0.1171181 0.1172139 0.1172813 0.1173098 0.1173187 0.1173333 0.1173556
 0.1173653 0.1173485 0.1173149 0.1172853 0.1172734 0.1172791 0.1172907 0.1172906 0.1172663 0.1172184
 0.1171576 0.1170934 0.1170271 0.1169571 0.1168942 0.1168633 0.1168737 0.1168891 0.1168463 0.1167156
 0.1165325 0.1163627 0.1162424 0.1161572 0.1160691 0.1159551 0.115821 0.1156879 0.1155705 0.1154703
 0.1153807 0.1152956 0.1152175 0.1151613 0.1151422 0.1151518 0.1151543 0.1151175 0.1150448 0.1149686
 0.1149184 0.1149019 0.1149116 0.1149344 0.1149624 0.115 0.1150582 0.1151351 0.1152149 0.1152876
 0.1153627 0.1154578 0.1155849 0.1157475 0.1159358 0.1161218 0.1162781 0.1164071 0.1165405 0.1167053
 0.1169018 0.1171165 0.1173426 0.117581 0.1178319 0.1180953 0.1183767 0.1186832 0.1190153 0.1193646
 0.1197189 0.1200682 0.1204122 0.1207627 0.1211367 0.1215421 0.1219707 0.1224051 0.1228312 0.1232467
 0.1236589 0.1240747 0.1244953 0.1249225 0.1253652 0.1258324 0.1263194 0.1268099 0.1272929 0.1277724
 0.1282583 0.1287521 0.1292459 0.1297337 0.1302233 0.1307298 0.1312553 0.1317769 0.1322663 0.1327195
 0.1331619 0.1336237 0.1341166 0.1346279 0.1351289 0.1355936 0.1360221 0.1364433 0.1368832 0.1373364
 0.1377803 0.1382145 0.1386677 0.1391602 0.1396694 0.1401437 0.1405511 0.1409098 0.1412656 0.1416431
 0.142025 0.1423821 0.1427129 0.1430417 0.1433845 0.1437356 0.1440899 0.1444594 0.1448529 0.1452527
 0.1456285 0.1459698 0.1462903 0.1466021 0.1469018 0.1471782 0.1474264 0.1476544 0.147883 0.1481318
 0.1484018 0.148678 0.1489532 0.149238 0.1495431 0.1498655 0.1502017 0.15056 0.1509463 0.1513453
 0.1517359 0.1521235 0.1525362 0.1529801 0.1534177 0.1538053 0.1541412 0.1544579 0.1547798 0.1551114
 0.1554604 0.1558431 0.1562642 0.1567047 0.1571343 0.1575319 0.1578992 0.1582615 0.1586439 0.1590402
 0.1594132 0.1597316 0.160001 0.1602551 0.1605246 0.1608181 0.1611214 0.1614122 0.1616737 0.1618942
 0.1620551 0.1621342 0.1621273 0.1620565 0.1619442 0.1617818 0.1615375 0.1611871 0.160723 0.1601359
 0.1594049 0.1585189 0.1575071 0.1564498 0.1554621 0.154663 0.1541456 0.1539595 0.154107 0.1545427
 0.1551758 0.1558828 0.1565322 0.1570067 0.1572149 0.1571013 0.1566587 0.15593 0.1549883 0.1539134
 0.15278 0.1516554 0.1505977 0.1496681 0.1489602 0.1486146 0.1487909 0.1496077 0.1510917 0.1531499
 0.155572 0.1580814 0.1604316 0.1624896 0.1642454 0.1657558 0.1670878 0.1682969 0.1694272 0.1705057
 0.1715374 0.1725144 0.1734313 0.174288 0.1750808 0.1757955 0.1764098 0.1768999 0.177251 0.1774688
 0.1775819 0.1776326 0.1776666 0.1777219 0.1778103 0.1778966 0.177903 0.1777467 0.1773832 0.176831
 0.1761824 0.1756119 0.1753652 0.1757021 0.176788 0.1785908 0.1808705 0.1832876 0.1855525 0.187504
 0.189098 0.1903659 0.1913803 0.1922245 0.192963 0.1936325 0.1942533 0.1948414 0.1954097 0.1959647
 0.1965056 0.1970306 0.1975431 0.19805 0.1985532 0.1990472 0.1995283 0.2000019 0.2004787 0.2009655
 0.2014592 0.2019507 0.2024343 0.2029131 0.2033925 0.2038697 0.2043353 0.2047853 0.2052252 0.2056647
 0.2061113 0.2065664 0.2070234 0.2074696 0.2078966 0.2083042 0.208697 0.2090789 0.2094545 0.2098292
 0.2102056 0.2105813 0.2109524 0.2113192 0.2116859 0.2120548 0.2124207 0.2127739 0.2131096 0.2134342
 0.2137599 0.2140935 0.2144331 0.2147725 0.2151083 0.2154442 0.2157867 0.2161385 0.2164947 0.2168469
 0.2171897 0.2175234 0.2178524 0.2181825 0.2185173 0.2188561 0.2191963 0.2195361 0.2198739 0.2202097
 0.2205456 0.2208845 0.2212259 0.2215675 0.2219077 0.2222464 0.2225824 0.2229155 0.2232483 0.223583
 0.22392 0.2242582 0.2245949 0.2249255 0.2252456 0.2255558 0.2258621 0.2261725 0.2264909 0.226815
 0.2271392 0.2274603 0.2277796 0.2280999 0.2284223 0.2287463 0.2290694 0.2293889 0.2297044 0.2300183
 0.2303329 0.2306487 0.230966 0.231285 0.2316053 0.2319247 0.2322417 0.232555 0.2328652 0.2331738
 0.2334821 0.2337899 0.2340983 0.23441 0.2347268 0.2350476 0.2353688 0.2356852 0.2359943 0.2362988
 0.2366035 0.2369094 0.2372146 0.2375179 0.2378197 0.2381204 0.2384196 0.2387164 0.2390098 0.2393021
 0.2395983 0.2399011 0.240208 0.2405162 0.2408243 0.2411301 0.2414323 0.2417323 0.2420322 0.2423327
 0.2426332 0.2429323 0.2432278 0.2435191 0.2438093 0.2441018 0.2443986 0.2447006 0.2450053 0.2453074
 0.2456056 0.2459037 0.2462043 0.2465075 0.246815 0.2471275 0.2474414 0.247754 0.2480662 0.2483785
 0.2486894 0.2489995 0.2493098 0.2496169 0.2499173 0.250211 0.2504994 0.2507845 0.2510706 0.2513601
 0.2516506 0.2519398 0.2522292 0.2525195 0.2528109 0.2531072 0.2534115 0.2537205 0.2540309 0.2543429
 0.2546556 0.2549672 0.2552796 0.255595 0.2559112 0.2562263 0.2565414 0.2568563 0.2571727 0.2574962
 0.2578277 0.2581597 0.2584878 0.2588145 0.2591386 0.2594568 0.2597731 0.2600943 0.2604195 0.260746
 0.2610731 0.2613983 0.2617206 0.2620448 0.2623721 0.2626964 0.2630163 0.2633374 0.2636618 0.2639884
 0.2643193 0.2646526 0.2649805 0.2653028 0.2656271 0.2659541 0.2662816 0.2666126 0.2669464 0.2672755
 0.2675999 0.2679243 0.2682434 0.2685522 0.2688613 0.2691776 0.2694931 0.269802 0.270104 0.2703879
 0.2706277 0.2707605 0.2706074 0.2697855 0.2676587 0.263356 0.2559485 0.2448298 0.2300932 0.2126239
 0.1938408 0.1752487 0.1580394 0.1429447 0.1303436 0.1204222 0.113281 0.1090342 0.1078918 0.1102748
 0.1169693 0.1286719 0.1442682 0.1593131 0.1676699 0.1661568 0.157437 0.1475967 0.1411703 0.138897
 0.1392547 0.1407366 0.1427376 0.1453868 0.149043 0.1537644 0.159243 0.16532 0.1722967 0.1804832
 0.1895983 0.1988641 0.2076592 0.2159286 0.2239598 0.2318888 0.2394987 0.2464292 0.2524586 0.2575807
 0.2619299 0.2656911 0.2690299 0.2720572 0.2748446 0.2774286 0.2797605 0.281686 0.2830344 0.2837547
 0.2839782 0.2839555 0.2839176 0.283979 0.2841566 0.284442 0.284829 0.2853028 0.2858465 0.2864488
 0.2870915 0.2877473 0.288398 0.2890374 0.2896589 0.2902548 0.2908191 0.2913441 0.2918251 0.2922709
 0.2926948 0.2931025 0.293498 0.2938884 0.2942758 0.2946562 0.2950276 0.2953882 0.2957309 0.2960518
 0.2963531 0.2966362 0.2969016 0.2971557 0.2974052 0.2976504 0.297892 0.298135 0.29838 0.2986225
 0.2988617 0.2991004 0.299338 0.2995733 0.2998065 0.3000357 0.3002598 0.300484 0.3007126 0.3009428
 0.301171 0.3013977 0.3016235 0.3018478 0.302072 0.3022979 0.3025265 0.302763 0.3030134 0.3032743
 0.3035364 0.3037955 0.3040522 0.3043056 0.3045595 0.3048227 0.3050977 0.3053768 0.3056528 0.3059228
 0.3061799 0.3064124 0.3066163 0.3068021 0.3069902 0.3071969 0.3074224 0.3076533 0.3078796 0.3081026
 0.3083276 0.308557 0.3087891 0.3090191 0.3092453 0.3094777 0.3097318 0.3100079 0.3102897 0.3105663
 0.3108414 0.3111207 0.3114034 0.3116878 0.3119724 0.312251 0.3125161 0.3127707 0.3130342 0.313331
 0.313666 0.3140127 0.3143375 0.314632 0.3149156 0.3152111 0.3155297 0.3158624 0.316174 0.3164254
 0.3166252 0.3168405 0.3171365 0.3175152 0.3179229 0.3183066 0.3186491 0.3189623 0.3192625 0.3195529
 0.3198223 0.3200591 0.3202741 0.3205095 0.3208119 0.3211821 0.3215687 0.3219224 0.3222371 0.3225291
 0.3228077 0.3230763 0.3233241 0.3235078 0.3235927 0.323637 0.3237861 0.3241392 0.3246418 0.3251424
 0.3255424 0.3258579 0.3261465 0.3264289 0.3266971 0.3269249 0.3270311 0.3269206 0.3266554 0.3265159
 0.326773 0.3274139 0.3281723 0.3288005 0.3292353 0.3295421 0.3297999 0.3300456 0.3302525 0.3303374
 0.3302493 0.3300892 0.3300918 0.3304141 0.3309593 0.3314834 0.3318515 0.3321141 0.3323668 0.33264
 0.3328854 0.3329608 0.3326903 0.3321047 0.3316058 0.3317068 0.3325359 0.3336887 0.3346311 0.3351725
 0.3354719 0.3356678 0.3356792 0.3353623 0.3346877 0.3337557 0.3328548 0.3325074 0.3331239 0.33448
 0.3358104 0.3365761 0.3369271 0.3373172 0.3379158 0.3385332 0.338932 0.3390413 0.3389213 0.3386245
 0.338166 0.3376805 0.3375194 0.3380037 0.3390507 0.3401919 0.3410155 0.341491 0.3417818 0.341768
 0.3409232 0.338937 0.3365321 0.3352875 0.336239 0.3387912 0.3413617 0.3429465 0.3436736 0.3440666
 0.3443591 0.3444284 0.3437809 0.3417099 0.3382521 0.3350343 0.3342935 0.3366728 0.3405012 0.3434169
 0.3441789 0.342921 0.3405476 0.3383142 0.3373877 0.3382118 0.3403159 0.342797 0.3448657 0.3460617
 0.346285 0.3457513 0.3448988 0.3442702 0.3441749 0.3442306 0.3435973 0.342066 0.3404569 0.33935
 0.3380131 0.3355973 0.3330394 0.3324828 0.3346302 0.33773 0.3396072 0.339889 0.3396147 0.3391377
 0.337268 0.3328405 0.326874 0.3225421 0.3224521 0.3260377 0.3301197 0.3320304 0.3317209 0.33084
 0.3304097 0.3297471 0.3274853 0.3235094 0.31969 0.3182133 0.319144 0.3203384 0.3198198 0.3171747
 0.3125246 0.306012 0.2994079 0.2964544 0.2995682 0.3068297 0.3136783 0.3168555 0.3154298 0.309428
 0.3001503 0.2915786 0.2885936 0.2924712 0.2993928 0.3041461 0.3042363 0.2999829 0.2923881 0.2826926
 0.2734821 0.2683719 0.2696999 0.2766497 0.2854071 0.2908187 0.2890323 0.280577 0.271109 0.2671452
 0.2699516 0.2747284 0.276266 0.2738468 0.2701566 0.2676091 0.2670072 0.2680371 0.2696397 0.2708306
 0.2714583 0.2708306 0.2663117 0.2562365 0.2443016 0.2376315 0.2394376 0.2464066 0.2540812 0.2613519
 0.2680576 0.2717776 0.270402 0.2663347 0.2649813 0.2689722 0.2756458 0.2804438 0.281531 0.2805375
 0.2795485 0.2785916 0.2766984 0.2746336 0.2749144 0.2786866 0.2839313 0.2876509 0.2888733 0.28866
 0.2881016 0.2874016 0.2864237 0.285136 0.2835766 0.2818758 0.2802492 0.2787634 0.2772904 0.2757768
 0.2741765 0.271866 0.2676923 0.261489 0.2553854 0.2523619 0.2531423 0.2557324 0.2583003 0.2605176
 0.2611576 0.257095 0.2473879 0.236948 0.2331685 0.2387741 0.2496253 0.2593203 0.264228 0.2639573
 0.2592144 0.2514835 0.2446117 0.244159 0.2531119 0.2687343 0.2849983 0.2976795 0.3059967 0.3102925
 0.3104007 0.3068341 0.3021688 0.3000527 0.3027049 0.3094518 0.3172553 0.3221325 0.3208762 0.3136768
 0.3059126 0.3049238 0.3127314 0.3233551 0.3294126 0.329873 0.329048 0.3297477 0.3308401 0.331005
 0.3314364 0.3337795 0.3374 0.3399031 0.3392915 0.3348159 0.3269588 0.3180071 0.3117103 0.3103557
 0.3122985 0.3138971 0.3132809 0.3104149 0.304809 0.2965209 0.2890545 0.2874866 0.2926942 0.3000315
 0.3046212 0.305891 0.306098 0.3062401 0.3048779 0.3005538 0.29437 0.2895198 0.2881569 0.2893634
 0.2906772 0.2907789 0.2897164 0.2873617 0.283392 0.2789011 0.2765394 0.2781744 0.2829019 0.287927
 0.2911259 0.2923366 0.29255 0.2926243 0.2928251 0.2929868 0.2929331 0.2930644 0.2943849 0.2974197
 0.3012589 0.3043596 0.3062956 0.308096 0.3107806 0.3141079 0.316958 0.3185865 0.3192968 0.3200643
 0.3216488 0.3239588 0.3261276 0.3272665 0.3273255 0.3272453 0.3281107 0.3301188 0.332506 0.3344302
 0.335681 0.3365558 0.3373757 0.338217 0.3388762 0.3390406 0.3387021 0.3384111 0.3388725 0.3402213
 0.3418723 0.3431172 0.3437096 0.3438401 0.3437403 0.3434574 0.3429593 0.34232 0.3417355 0.3413748
 0.3412544 0.3412635 0.3412808 0.3412455 0.3411543 0.3410405 0.3409517 0.3409224 0.340963 0.3410808
 0.341284 0.3415525 0.3418353 0.3420986 0.3423439 0.3425578 0.3426718 0.3425958 0.3422714 0.3416747
 0.3407879 0.339587 0.3380446 0.3361212 0.3337807 0.3310956 0.3284154 0.3264006 0.3257537 0.3267785
 0.3291439 0.3320737 0.3347881 0.3368405 0.3381646 0.3389175 0.3393004 0.3394612 0.3394769 0.3393756
 0.3391681 0.3388741 0.3385229 0.3381406 0.3377451 0.3373535 0.3369856 0.3366543 0.3363541 0.3360584
 0.3357303 0.3353414 0.3348856 0.334372 0.333808 0.333185 0.3324772 0.3316548 0.3307112 0.3296771
 0.3286045 0.327533 0.3264637 0.3253593 0.3241681 0.3228419 0.3213268 0.3195625 0.3175492 0.3154311
 0.3134539 0.3117818 0.3103674 0.3090246 0.3076016 0.3060578 0.3044184 0.3027174 0.3009859 0.2992497
 0.2975184 0.2957809 0.2940129 0.2921876 0.2902872 0.2883103 0.2862643 0.2841528 0.2819745 0.2797251
 0.2773771 0.2748518 0.272019 0.2687331 0.264873 0.2603631 0.2551886 0.2494213 0.2432328 0.2368667
 0.2305764 0.2245726 0.2190102 0.214005 0.2096554 0.2060499 0.2032587 0.2013208 0.2002434 0.2000133
 0.2006028 0.2019644 0.2040184 0.2066438 0.2096773 0.2129257 0.2161874 0.2192821 0.2220941 0.2246143
 0.2269319 0.229162 0.2313662 0.2335375 0.2356371 0.2376229 0.2394481 0.2410606 0.2424231 0.2435355
 0.2444319 0.2451555 0.2457329 0.2461681 0.2464566 0.2466049 0.2466431 0.2466254 0.2466221 0.2467083
 0.2469476 0.2473741 0.2479917 0.2487932 0.2497796 0.2509553 0.2523081 0.2537966 0.2553565 0.2569278
 0.258486 0.2600531 0.2616779 0.2634102 0.2652839 0.2673098 0.2694699 0.2717141 0.2739596 0.2760977
 0.2780178 0.2796436 0.2809538 0.2819704 0.2827289 0.2832549 0.2835633 0.2836689 0.2835913 0.2833501
 0.2829631 0.2824524 0.2818434 0.2811536 0.2803841 0.2795264 0.27858 0.277568 0.2765314 0.2755071
 0.2745161 0.2735734 0.2726921 0.2718693 0.2710801 0.2702957 0.2695028 0.2687075 0.2679297 0.2671901
 0.26649 0.2658021 0.2650794 0.2642688 0.2633205 0.2621993 0.2608881 0.2593824 0.2576863 0.2558151
 0.2537947 0.2516572 0.2494374 0.2471621 0.2448376 0.2424495 0.239976 0.2374031 0.2347463 0.2320694
 0.2294666 0.22701 0.2247232 0.222597 0.2206128 0.2187525 0.2170035 0.2153561 0.213791 0.2122832
 0.2108181 0.2093977 0.2080337 0.2067438 0.205548 0.2044605 0.2034915 0.2026508 0.2019403 0.2013457
 0.2008427 0.2004089 0.2000401 0.1997658 0.1996285 0.1996234 0.1996705 0.1996665 0.1995572 0.1993628
 0.1991488 0.1989752 0.1988603 0.1987877 0.1987305 0.1986427 0.1984383 0.1980098 0.1972652 0.196136
 0.1945827 0.1926214 0.1903393 0.1878816 0.1854281 0.1831576 0.1812005 0.1796169 0.1784058 0.1775106
 0.1768327 0.1762873 0.1758583 0.1755983 0.1755791 0.1758119 0.1761776 0.1764724 0.1765892 0.1766377
 0.176848 0.1773729 0.1781931 0.1791614 0.180109 0.1809324 0.1816037 0.1821181 0.1824729 0.1826866
 0.1827909 0.1827987 0.1827079 0.1825181 0.1822238 0.1818226 0.1813287 0.1807489 0.1800638 0.1792622
 0.1783589 0.1773629 0.1762702 0.1750821 0.1737793 0.1723201 0.1707484 0.1692811 0.1682276 0.1678157
 0.1680728 0.1688249 0.1698228 0.1709015 0.1719822 0.1729462 0.173659 0.1741857 0.1748761 0.1761277
 0.1780463 0.1803335 0.1824999 0.1841851 0.1852718 0.1857682 0.1857139 0.1851786 0.1842075 0.1827727
 0.180877 0.1786416 0.1762186 0.173731 0.1713276 0.1691512 0.1672589 0.1656662 0.1643821 0.1634159
 0.1628478 0.1623984 0.1604284 0.1545319 0.1449469 0.1367283 0.1359094 0.1429943 0.1522484 0.1578515
 0.1588334 0.1576628 0.1563878 0.1554538 0.1547814 0.1544319 0.154448 0.1547176 0.1550198 0.1551233
 0.154926 0.1544391 0.1535349 0.1517173 0.1481187 0.1418123 0.1325003 0.1211482 0.1097741 0.1003692
 0.09391192 0.09018101 0.08820321 0.08692561 0.08581337 0.08503087 0.0850811 0.08629355 0.08864141 0.09189843
 0.09579626 0.09999783 0.104051 0.1075327 0.1102677 0.112328 0.1138243 0.1147953 0.1152756 0.1153395
 0.1150583 0.1144926 0.1137111 0.1127519 0.1115879 0.1101945 0.1086565 0.1071876 0.1060275 0.1052903
 0.1049044 0.1047139 0.1046154 0.1045787 0.1045937 0.1046545 0.1047667 0.1049359 0.1051668 0.1054669
 0.1058186 0.106159 0.1064216 0.1065848 0.1066659 0.1066809 0.1066151 0.1064343 0.1061479 0.1058306
 0.1055066 0.1050303 0.1041943 0.102997 0.1017464 0.1008705 0.1006268 0.1009494 0.1015241 0.1020181
 0.1022834 0.1023764 0.1024133 0.1024146</values></Ydata></ScSm><ScRf><Ydata ylabel="Single channel"><values byteorder="INTEL" format="FLOAT32" numvalues="1820"> 0.06970248 0.06983303 0.06994839 0.07004739 0.07013573 0.07022696 0.07033553 0.07046562 0.07060789 0.07074657
 0.07086977 0.07097621 0.07107189 0.07116033 0.07124226 0.07132603 0.07142739 0.07155262 0.0716892 0.07181545
 0.07191698 0.07199869 0.07208505 0.07219854 0.07232815 0.07242728 0.07245462 0.07241829 0.07237356 0.07237366
 0.072434 0.07255706 0.07276344 0.07304128 0.07327705 0.07332945 0.07320455 0.07307819 0.073102 0.07325466
 0.07341246 0.07348527 0.07345115 0.07335138 0.07331365 0.07350842 0.07399179 0.07458282 0.07492277 0.07468327
 0.07378492 0.07251362 0.07145059 0.07116842 0.07181768 0.07295661 0.0738812 0.07419268 0.07401271 0.07368012
 0.07340063 0.07324339 0.07329427 0.07363684 0.07420984 0.07475725 0.07493011 0.07451297 0.07366867 0.07290998
 0.07268408 0.07302649 0.07371669 0.07454368 0.07510523 0.07461031 0.07258116 0.06991288 0.06859221 0.06986229
 0.07292178 0.07575855 0.07698126 0.07655144 0.07519972 0.07378282 0.07306134 0.07343686 0.07468702 0.07618839
 0.07741402 0.07807513 0.07798959 0.07716611 0.07597458 0.0749889 0.0746699 0.07523453 0.07656575 0.07807642
 0.07894593 0.07876934 0.07785922 0.07683704 0.07617597 0.07618368 0.07702519 0.07852639 0.08018672 0.08155054
 0.0824478 0.08289704 0.08299062 0.08287196 0.08266598 0.08246283 0.08241345 0.08265091 0.08302338 0.08312841
 0.0827623 0.08219798 0.08190863 0.08208117 0.08245894 0.08265226 0.0825239 0.08210841 0.08121088 0.07950754
 0.07720512 0.07513717 0.07394916 0.0736462 0.07412282 0.07544094 0.07719593 0.07832125 0.07816168 0.07735702
 0.07715045 0.07804839 0.07950769 0.08073532 0.08145966 0.0819754 0.082681 0.08362515 0.08438636 0.08437763
 0.08344088 0.08222234 0.08174323 0.08241284 0.08363503 0.08455072 0.08494639 0.08522728 0.08570242 0.08613431
 0.08594276 0.0848235 0.08327197 0.08241129 0.08306405 0.08493637 0.08677206 0.08730186 0.08614357 0.08400828
 0.082106 0.08127815 0.08166935 0.0830685 0.08520514 0.08762209 0.08960943 0.09056413 0.09040439 0.08955167
 0.08847243 0.0872436 0.08571851 0.08420609 0.08365043 0.08474758 0.08705059 0.08932441 0.09068474 0.09108856
 0.09083401 0.08996198 0.08833358 0.08624885 0.08472513 0.08474535 0.08614209 0.08763965 0.08821233 0.08804251
 0.08793814 0.08822146 0.08855163 0.08860831 0.0885628 0.08883163 0.08954716 0.09039526 0.09095508 0.09109113
 0.09098206 0.09086823 0.090822 0.09070647 0.0903835 0.09002497 0.09009148 0.09084538 0.09199618 0.09299292
 0.09356552 0.09382716 0.09393708 0.09383233 0.09333305 0.09249017 0.09175492 0.09165902 0.09229734 0.09325571
 0.09405294 0.09450144 0.0946587 0.09464267 0.09455222 0.09444371 0.09434609 0.09432787 0.09448475 0.09481104
 0.09516251 0.09539787 0.09549429 0.09549733 0.09542938 0.09528992 0.0951121 0.09497942 0.09497222 0.09510226
 0.09531426 0.09554337 0.0957406 0.09585679 0.09585946 0.09577609 0.09567821 0.09561452 0.09558958 0.09560233
 0.09566598 0.09578073 0.09591331 0.09602053 0.09608393 0.09611115 0.09611229 0.09609082 0.09605654 0.09603202
 0.09604228 0.09609886 0.09618808 0.09627885 0.09635822 0.0964503 0.09657362 0.09669191 0.09674452 0.09672266
 0.09668227 0.09668241 0.09673627 0.09681937 0.09690002 0.09695253 0.09695655 0.09690731 0.09683812 0.09681566
 0.09689178 0.09706512 0.09729733 0.09754567 0.09776942 0.09793584 0.09804426 0.09812564 0.09820504 0.09828025
 0.09834227 0.09840088 0.09848532 0.09862241 0.09880964 0.09901118 0.09918711 0.09932125 0.09941997 0.09950558
 0.09961347 0.0997631 0.09992169 0.100031 0.1000819 0.1001306 0.100227 0.1003549 0.1004583 0.1005098
 0.1005358 0.1005817 0.1006644 0.1007651 0.1008597 0.1009489 0.1010536 0.1011838 0.1013127 0.1013894
 0.1013874 0.1013376 0.1012983 0.1012977 0.101324 0.101364 0.101425 0.1015098 0.1015931 0.1016392
 0.1016398 0.1016229 0.1016221 0.1016397 0.1016479 0.1016229 0.1015712 0.101519 0.1014852 0.1014692
 0.101456 0.1014296 0.1013827 0.1013185 0.101246 0.1011733 0.1011037 0.1010394 0.1009924 0.1009836
 0.1010129 0.1010348 0.1009826 0.100832 0.1006286 0.1004461 0.1003226 0.1002404 0.1001554 0.1000372
 0.09988597 0.0997244 0.09957605 0.09944887 0.09933443 0.09922191 0.09911509 0.09903421 0.0989942 0.09897721
 0.09893745 0.09884298 0.09870791 0.09857502 0.09847406 0.0984055 0.09835574 0.09831427 0.09828 0.09826009
 0.09825891 0.09826576 0.09826221 0.09824474 0.09822964 0.09823565 0.09827351 0.09834738 0.098448 0.09854482
 0.09860681 0.09863704 0.09867166 0.09873974 0.09883719 0.09894416 0.09905402 0.09917542 0.09931475 0.09946875
 0.09963406 0.09981535 0.1000198 0.1002451 0.1004762 0.1006965 0.1009033 0.1011118 0.1013415 0.1015998
 0.1018778 0.1021592 0.1024343 0.1027053 0.1029815 0.1032666 0.1035546 0.1038402 0.1041311 0.104439
 0.1047637 0.105092 0.1054141 0.1057312 0.1060479 0.1063646 0.1066792 0.1069949 0.107325 0.1076842
 0.1080674 0.1084409 0.1087675 0.1090441 0.1093054 0.1095912 0.1099155 0.1102627 0.1106013 0.1109063
 0.1111808 0.1114542 0.111751 0.1120645 0.1123727 0.1126748 0.1129977 0.1133604 0.1137409 0.1140867
 0.1143632 0.1145864 0.1148039 0.1150451 0.1152968 0.1155307 0.1157431 0.1159552 0.1161825 0.1164199
 0.1166604 0.1169118 0.1171824 0.1174599 0.1177189 0.1179472 0.1181526 0.1183458 0.1185243 0.1186752
 0.1187903 0.1188814 0.1189788 0.1191065 0.1192578 0.1194057 0.119539 0.1196738 0.1198298 0.1200102
 0.1202117 0.120438 0.1206885 0.1209447 0.1211885 0.1214307 0.1217026 0.1220091 0.122309 0.1225575
 0.1227555 0.1229394 0.1231351 0.1233451 0.1235729 0.1238321 0.1241257 0.1244349 0.1247336 0.1250087
 0.1252702 0.1255446 0.1258502 0.1261693 0.1264572 0.1266849 0.1268685 0.1270528 0.127272 0.1275301
 0.127809 0.1280881 0.1283548 0.1286 0.1288077 0.1289603 0.1290585 0.1291254 0.1291803 0.1292106
 0.1291808 0.1290632 0.1288488 0.1285295 0.1280871 0.1275119 0.1268294 0.1261079 0.1254427 0.1249289
 0.124638 0.1246044 0.1248251 0.125263 0.1258482 0.1264874 0.1270834 0.1275515 0.1278221 0.1278459
 0.127609 0.127141 0.1264991 0.1257451 0.1249328 0.124104 0.1232899 0.1225293 0.1218979 0.1215157
 0.1215132 0.1219833 0.1229502 0.1243505 0.1260291 0.1277727 0.1293896 0.1307828 0.1319572 0.132968
 0.1338687 0.1346957 0.1354745 0.1362188 0.1369291 0.1375985 0.1382253 0.1388132 0.1393616 0.139859
 0.1402862 0.1406252 0.1408681 0.141024 0.1411142 0.1411615 0.1411826 0.1411897 0.1411862 0.1411542
 0.1410505 0.1408267 0.1404591 0.1399661 0.1394135 0.1389191 0.13865 0.1387854 0.1394386 0.1405848
 0.1420587 0.1436357 0.1451255 0.1464142 0.1474579 0.1482688 0.1489015 0.1494236 0.1498847 0.1503084
 0.1507045 0.1510799 0.1514402 0.1517898 0.1521327 0.1524729 0.1528143 0.1531592 0.1535053 0.153845
 0.1541736 0.1544972 0.1548306 0.1551834 0.1555481 0.1559052 0.1562437 0.1565738 0.1569132 0.1572632
 0.1576073 0.1579334 0.1582477 0.1585665 0.1589001 0.1592464 0.1595927 0.1599233 0.1602304 0.1605198
 0.1608028 0.1610853 0.161366 0.1616433 0.1619188 0.1621952 0.1624738 0.1627548 0.1630387 0.1633246
 0.1636074 0.1638792 0.1641362 0.1643839 0.1646328 0.1648885 0.1651477 0.1654041 0.165657 0.1659122
 0.1661762 0.1664483 0.1667197 0.1669813 0.1672318 0.1674781 0.1677275 0.1679823 0.168239 0.1684921
 0.1687384 0.1689794 0.1692208 0.1694687 0.1697258 0.1699889 0.1702503 0.1705046 0.1707519 0.1709957
 0.1712384 0.1714813 0.1717261 0.1719745 0.1722273 0.1724824 0.1727355 0.172981 0.1732161 0.1734423
 0.1736653 0.1738921 0.174126 0.1743655 0.1746066 0.1748478 0.1750903 0.1753354 0.1755823 0.1758295
 0.1760752 0.176318 0.176557 0.1767929 0.177028 0.177266 0.1775098 0.1777595 0.1780116 0.1782614
 0.1785044 0.1787377 0.1789638 0.1791897 0.1794212 0.1796597 0.1799034 0.1801488 0.1803911 0.1806274
 0.1808583 0.1810866 0.181315 0.181546 0.1817806 0.1820162 0.1822509 0.1824851 0.1827193 0.1829511
 0.1831805 0.1834116 0.1836478 0.183888 0.1841294 0.1843696 0.1846076 0.1848429 0.1850753 0.1853063
 0.1855392 0.1857767 0.1860172 0.1862575 0.1864969 0.1867359 0.1869736 0.1872095 0.1874456 0.1876847
 0.1879289 0.188179 0.1884326 0.1886841 0.188931 0.1891758 0.1894208 0.1896667 0.1899157 0.1901696
 0.1904259 0.1906818 0.1909386 0.1911989 0.1914622 0.191725 0.1919819 0.1922296 0.1924691 0.1927035
 0.1929319 0.1931535 0.1933723 0.1935923 0.1938135 0.1940365 0.1942641 0.1944958 0.1947291 0.1949653
 0.1952071 0.1954532 0.1957023 0.1959544 0.1962071 0.1964573 0.1967068 0.1969574 0.1972062 0.1974525
 0.1977008 0.1979537 0.1982089 0.198466 0.1987268 0.1989911 0.19926 0.199535 0.1998115 0.200082
 0.200346 0.2006079 0.2008698 0.2011333 0.2013996 0.2016652 0.2019276 0.2021917 0.2024621 0.2027369
 0.2030136 0.2032923 0.2035699 0.2038437 0.2041152 0.2043833 0.2046435 0.2049004 0.2051655 0.2054417
 0.2057238 0.2060081 0.2062896 0.2065631 0.2068329 0.2071066 0.2073801 0.2076463 0.2079099 0.2081773
 0.2084462 0.2087138 0.2089775 0.2092254 0.2094376 0.2095671 0.2094759 0.2088652 0.2072385 0.2039159
 0.1981735 0.1895421 0.1781003 0.1645417 0.1499711 0.1355556 0.1222166 0.1105184 0.1007538 0.09306757
 0.08753901 0.08425936 0.08339776 0.08528911 0.09054983 0.0997156 0.1118974 0.1236119 0.1300821 0.1288629
 0.1220639 0.1144326 0.1094797 0.1077566 0.1080668 0.1092385 0.1108089 0.1128885 0.115761 0.1194687
 0.1237688 0.1285403 0.1340233 0.1404586 0.1476197 0.1548927 0.1617921 0.1682802 0.1745879 0.1808233
 0.1868146 0.1922761 0.1970311 0.2010747 0.2045158 0.2075026 0.2101639 0.2125818 0.2148099 0.2168795
 0.2187563 0.2203188 0.2214284 0.2220411 0.2222593 0.2222809 0.2222899 0.2223799 0.2225682 0.2228504
 0.2232195 0.2236591 0.2241495 0.224677 0.2252288 0.225792 0.2263597 0.226925 0.2274732 0.2279921
 0.22848 0.2289388 0.2293691 0.2297764 0.2301683 0.2305489 0.2309214 0.2312909 0.2316582 0.2320215
 0.2323822 0.232739 0.2330817 0.2334002 0.2336928 0.2339626 0.234217 0.2344692 0.2347287 0.234992
 0.2352503 0.2355005 0.2357446 0.2359874 0.2362352 0.2364888 0.2367409 0.2369862 0.2372271 0.237467
 0.2377061 0.2379452 0.2381862 0.2384278 0.2386677 0.2389066 0.2391448 0.2393809 0.2396136 0.2398448
 0.2400809 0.240331 0.2405972 0.2408706 0.2411416 0.2414105 0.2416809 0.2419504 0.2422161 0.2424811
 0.2427493 0.2430221 0.2432999 0.2435806 0.2438547 0.2441108 0.2443459 0.2445673 0.2447865 0.2450133
 0.24525 0.2454921 0.2457345 0.2459767 0.2462205 0.2464677 0.2467194 0.2469724 0.2472227 0.2474752
 0.2477412 0.2480226 0.2483084 0.2485912 0.2488748 0.249165 0.2494603 0.2497563 0.2500503 0.250338
 0.2506158 0.2508878 0.2511677 0.2514718 0.251803 0.2521453 0.2524773 0.252792 0.2530983 0.2534102
 0.2537367 0.2540717 0.2543871 0.2546525 0.2548783 0.2551223 0.255436 0.2558147 0.2562112 0.2565856
 0.2569305 0.2572567 0.2575717 0.2578738 0.2581572 0.2584188 0.2586681 0.2589341 0.2592491 0.2596132
 0.2599887 0.2603385 0.2606583 0.2609618 0.2612597 0.261555 0.261834 0.2620561 0.2621947 0.2623045
 0.2625063 0.2628755 0.2633607 0.2638386 0.2642341 0.264564 0.2648751 0.2651818 0.2654746 0.2657306
 0.2658873 0.2658754 0.2657498 0.2657329 0.2660334 0.2666351 0.2673269 0.2679167 0.2683569 0.2686974
 0.2689975 0.2692844 0.2695372 0.2696905 0.2697017 0.2696506 0.2697297 0.2700734 0.2706079 0.2711297
 0.2715195 0.2718134 0.2720937 0.2723936 0.2726794 0.2728333 0.2727064 0.2723206 0.2720055 0.2721822
 0.2729528 0.2739821 0.2748351 0.2753654 0.2757085 0.2759717 0.2760774 0.2759067 0.2754425 0.2747692
 0.2741183 0.2739177 0.2745128 0.2757269 0.2769293 0.2776684 0.2780599 0.2784742 0.2790529 0.2796472
 0.2800691 0.2802615 0.2802685 0.2801272 0.2798486 0.2795467 0.2795137 0.2800159 0.2809874 0.2820429
 0.2828396 0.2833484 0.2837035 0.2838051 0.2832121 0.2816654 0.2797736 0.2788572 0.2797739 0.2820171
 0.2842677 0.285697 0.286415 0.286854 0.2872074 0.2873772 0.2869537 0.2853439 0.2825764 0.2800145
 0.2795317 0.2816637 0.2850072 0.2875798 0.2883371 0.2873932 0.2855184 0.2837792 0.2831548 0.2840056
 0.2859253 0.288152 0.2900248 0.2911601 0.2914788 0.2911683 0.2906037 0.2902435 0.2903428 0.2905682
 0.2902036 0.2890748 0.2878803 0.2871132 0.2861534 0.2842846 0.2823054 0.2820351 0.284066 0.2869069
 0.2887115 0.2891662 0.2891515 0.2889589 0.2875711 0.2840028 0.2791366 0.2756902 0.2758898 0.2792446
 0.2830311 0.2849691 0.2850214 0.2846042 0.2845975 0.28442 0.2828974 0.2799287 0.2771273 0.2763772
 0.2777156 0.2792657 0.279309 0.2774873 0.2738926 0.2686379 0.2632903 0.2611611 0.2643786 0.271234
 0.2776922 0.2808765 0.279963 0.2749708 0.2670599 0.2597854 0.2574961 0.2613166 0.2678312 0.2723944
 0.2727901 0.2693074 0.2628421 0.2545142 0.2466618 0.2425531 0.2443097 0.2512056 0.2597821 0.2653294
 0.2643049 0.2571897 0.2491882 0.2462931 0.2496467 0.2548007 0.2569497 0.2554454 0.2527745 0.2511696
 0.251383 0.2531257 0.2553958 0.2572672 0.2585996 0.258698 0.2549877 0.2458585 0.2348907 0.22896
 0.2311523 0.2382692 0.2460294 0.2533785 0.2601437 0.2639471 0.2627316 0.2588437 0.2575471 0.2614001
 0.267816 0.2723718 0.2733001 0.2722059 0.2711346 0.2701268 0.2682526 0.2662631 0.2666072 0.2703952
 0.2756648 0.2795064 0.2809739 0.2810888 0.2808971 0.2805869 0.2800201 0.2791665 0.2780678 0.2768553
 0.2757371 0.2747689 0.2738136 0.2728116 0.2717111 0.2698777 0.2661417 0.2603224 0.254537 0.2517453
 0.2526427 0.2552121 0.2576076 0.2594932 0.259657 0.2550169 0.2446547 0.2334336 0.2286548 0.2329995
 0.2423919 0.2505657 0.2540177 0.2524469 0.2466314 0.238061 0.2304023 0.2288751 0.2362429 0.2499038
 0.2641965 0.2751722 0.2821216 0.2854026 0.2849001 0.2811037 0.2763741 0.2740317 0.2760711 0.2818385
 0.2885357 0.2925352 0.2909538 0.2840123 0.2766209 0.2754316 0.282254 0.2916628 0.2969847 0.2972956
 0.2964855 0.2970839 0.2980781 0.2983018 0.2988505 0.3012101 0.3048023 0.3074605 0.3073757 0.3038582
 0.2973318 0.2898689 0.2848743 0.284395 0.2868655 0.288914 0.2888319 0.2866076 0.2818037 0.2744993
 0.2679677 0.2669163 0.2721355 0.2793012 0.283902 0.2854382 0.2860266 0.2865892 0.2857718 0.2822189
 0.2769866 0.273088 0.2725441 0.2744796 0.2765687 0.2775565 0.2774537 0.2760778 0.2730652 0.2694385
 0.267742 0.2697744 0.2746561 0.2796817 0.282803 0.2838732 0.2838588 0.2835971 0.2833564 0.2829909
 0.2823396 0.2817871 0.2822959 0.2843789 0.2871898 0.2892839 0.2902836 0.2911976 0.293018 0.2955193
 0.2976202 0.2985838 0.2986667 0.2987753 0.299637 0.3011976 0.3026769 0.3032615 0.3029099 0.3025001
 0.3030405 0.3047079 0.3067803 0.3084634 0.3095554 0.3103305 0.3110854 0.311889 0.3125536 0.3127942
 0.3126057 0.3124904 0.3130828 0.3144879 0.3161539 0.3174296 0.3180969 0.3183357 0.318354 0.3181884
 0.3178081 0.3172825 0.3167893 0.31648 0.3163747 0.3163884 0.3164247 0.3164304 0.3164002 0.3163704
 0.3163964 0.3165052 0.3166778 0.3168828 0.317104 0.3173196 0.317494 0.3176147 0.3177079 0.3177902
 0.3178259 0.3177488 0.3175033 0.317048 0.3163414 0.3153491 0.3140501 0.3124169 0.310416 0.3081073
 0.3058104 0.3041368 0.3037332 0.3048716 0.3072352 0.3100979 0.3127354 0.3147358 0.3160395 0.316789
 0.3171658 0.3173116 0.3173142 0.3172144 0.3170245 0.3167542 0.316425 0.3160639 0.315697 0.3153499
 0.3150412 0.3147691 0.3145088 0.314226 0.3138933 0.3134971 0.3130348 0.3125092 0.3119234 0.3112723
 0.3105368 0.3096932 0.3087414 0.3077215 0.3067 0.3057339 0.3048384 0.3039806 0.3031072 0.3021734
 0.3011335 0.2999264 0.2985346 0.297074 0.2957652 0.2947571 0.2939945 0.2932848 0.2924652 0.2914829
 0.2903584 0.2891301 0.2878338 0.2864964 0.2851305 0.2837352 0.2822962 0.2807858 0.2791746 0.2774518
 0.2756314 0.2737415 0.2718116 0.2698604 0.2678743 0.265779 0.263436 0.2606786 0.2573647 0.2534098
 0.2487979 0.2435947 0.2379579 0.2321138 0.2262965 0.2206978 0.2154653 0.2107289 0.2066134 0.2032263
 0.2006397 0.1988883 0.1979861 0.1979372 0.1987312 0.2003291 0.2026559 0.2055959 0.2089913 0.212651
 0.21637 0.2199592 0.2232873 0.226323 0.2291239 0.2317595 0.2342375 0.2365075 0.2385228 0.2402769
 0.2417872 0.2430678 0.2441286 0.2449916 0.2456956 0.2462858 0.2467972 0.2472438 0.2476193 0.2479125
 0.2481273 0.2482885 0.2484288 0.2485743 0.2487439 0.248953 0.2492132 0.24953 0.2499074 0.2503527
 0.2508736 0.2514699 0.2521289 0.2528343 0.2535812 0.2543851 0.2552769 0.256292 0.2574614 0.2588024
 0.2603072 0.2619343 0.2636098 0.2652375 0.2667176 0.267965 0.2689272 0.2695929 0.2699843 0.2701338
 0.2700685 0.2698155 0.2694069 0.268873 0.2682363 0.267517 0.2667337 0.2658958 0.2650023 0.2640533
 0.2630612 0.2620491 0.2610407 0.2600502 0.2590827 0.2581411 0.257226 0.2563325 0.2554569 0.2546059
 0.2537897 0.2530115 0.2522703 0.2515683 0.2509037 0.2502569 0.2495871 0.2488386 0.2479599 0.2469248
 0.2457339 0.2443967 0.2429197 0.2413104 0.2395772 0.2377297 0.2357822 0.2337524 0.231652 0.2294804
 0.2272255 0.2248753 0.2224454 0.2200028 0.2176433 0.2154385 0.2134133 0.2115602 0.2098506 0.2082405
 0.2066925 0.2051938 0.2037501 0.2023702 0.2010598 0.1998174 0.1986355 0.1975122 0.1964581 0.1954917
 0.194636 0.193909 0.1933073 0.1928075 0.1923873 0.1920337 0.1917437 0.1915399 0.1914667 0.1915354
 0.1916813 0.1917999 0.1918224 0.1917524 0.1916457 0.1915624 0.1915271 0.1915304 0.1915497 0.1915435
 0.1914321 0.1911115 0.1904837 0.1894738 0.1880459 0.1862286 0.1841194 0.1818627 0.1796271 0.1775714
 0.1758027 0.174367 0.1732665 0.1724578 0.1718537 0.1713777 0.1710217 0.1708432 0.1709091 0.1712198
 0.1716508 0.1720053 0.1721886 0.172315 0.1726072 0.1732114 0.1741126 0.1751734 0.1762238 0.177147
 0.1779012 0.178482 0.1788987 0.1791809 0.1793568 0.1794256 0.1793765 0.1792137 0.1789452 0.1785785
 0.1781301 0.1776046 0.1769795 0.1762406 0.1754032 0.1744814 0.1734772 0.1723909 0.1711953 0.1698418
 0.1683721 0.1670002 0.1660325 0.165702 0.1660478 0.166896 0.1679831 0.1691344 0.1702801 0.1713175
 0.1721176 0.1727409 0.1735312 0.1748835 0.1769047 0.1793002 0.1815845 0.1833972 0.1846135 0.1852292
 0.1852745 0.1848193 0.183916 0.1825423 0.1807053 0.1785321 0.1761812 0.1737739 0.1714482 0.1693386
 0.1675078 0.1659905 0.1648093 0.1639624 0.1635042 0.1631365 0.1612174 0.1553479 0.1457863 0.1376212
 0.1369045 0.1441151 0.153471 0.1591319 0.1601462 0.1590059 0.1577587 0.1568357 0.1561528 0.1557866
 0.1558036 0.1561029 0.1564536 0.1566054 0.156444 0.1559794 0.1550846 0.1532576 0.1496175 0.143229
 0.133802 0.1223196 0.1108113 0.1012757 0.09470947 0.09091814 0.08894001 0.08770558 0.08664817 0.08590557
 0.08597106 0.08718517 0.08954689 0.09285283 0.09683864 0.1011534 0.1053261 0.1089178 0.1117438 0.1138736
 0.1154209 0.116426 0.1169219 0.1169877 0.1167074 0.1161461 0.1153628 0.1143904 0.1132149 0.1118251
 0.1102959 0.1088181 0.1076261 0.1068522 0.1064457 0.1062554 0.1061716 0.1061613 0.1062187 0.1063364
 0.106506 0.1067174 0.1069703 0.1072779 0.1076299 0.1079714 0.1082447 0.1084297 0.1085326 0.1085521
 0.1084578 0.1082085 0.1078224 0.1074023 0.1070029 0.1064855 0.1056212 0.1043832 0.1030753 0.10214
 0.1018476 0.1021333 0.1026807 0.1031606 0.1034286 0.1035344 0.103577 0.103562 0.1033842 0.1029416
</values></Ydata></ScRf><Data_Parameters_AB><parameter name="DPF">1</parameter><parameter name="NPT">3497</parameter><parameter name="FXV">3996</parameter><parameter name="LXV">500</parameter><parameter name="CSF">1</parameter><parameter name="MXY">0.00755728082731366</parameter><parameter name="MNY">-0.135810881853104</parameter><parameter name="DAT">13/02/2024</parameter><parameter name="TIM">13:19:30.614 (GMT+1)</parameter><parameter name="DXU">WN</parameter></Data_Parameters_AB><AB__Qtest><MainReport name="Quality Test Report"><Header><Line><Legend>Test result ok/not ok [1/0]: </Legend><Value>0</Value></Line><Line><Legend>Method file: </Legend><Value>C:\Users\Public\Documents\Bruker\OPUS_8.2.28\QT\IRBT_v3_default.QT</Value></Line></Header><Matrix><Line><Legend></Legend><Legend>min</Legend><Legend>max</Legend><Legend>measured</Legend></Line><Line><Value>Absorption (X-Range 1):</Value><Value>0.400000</Value><Value>2.000000</Value><Value>0.086663</Value></Line><Line><Value>Noise (X-Range 4):</Value><Value></Value><Value>0.000300</Value><Value>0.000013</Value></Line><Line><Value>Signal/Noise (X-Range 2):</Value><Value>200.000000</Value><Value></Value><Value>61.601576</Value></Line><Line><Value>Signal/Noise (X-Range 3):</Value><Value>40.000000</Value><Value></Value><Value>98.918094</Value></Line><Line><Value>Water vapour (X-Range 5):</Value><Value></Value><Value>0.000300</Value><Value>0.000017</Value></Line><Line><Value>Signal/Water (X-Range 2):</Value><Value>100.000000</Value><Value></Value><Value>47.593304</Value></Line><Line><Value>Signal/Water (X-Range 3):</Value><Value>20.000000</Value><Value></Value><Value>76.424001</Value></Line><Line><Value>Fringes (X-Range 6):</Value><Value></Value><Value>0.000100</Value><Value>0.000024</Value></Line></Matrix></MainReport></AB__Qtest><Data_Parameters_ScSm><parameter name="DPF">1</parameter><parameter name="NPT">1814</parameter><parameter name="FXV">3996.63438082617</parameter><parameter name="LXV">499.579297603271</parameter><parameter name="CSF">1</parameter><parameter name="MXY">0.346285045146942</parameter><parameter name="MNY">0.0850308686494827</parameter><parameter name="DAT">13/02/2024</parameter><parameter name="TIM">13:19:30.614 (GMT+1)</parameter><parameter name="DXU">WN</parameter></Data_Parameters_ScSm><Data_Parameters_ScRf><parameter name="DPF">1</parameter><parameter name="NPT">1820</parameter><parameter name="FXV">4004.34989121387</parameter><parameter name="LXV">495.721542409425</parameter><parameter name="CSF">1</parameter><parameter name="MXY">0.318354040384293</parameter><parameter name="MNY">0.0685922056436539</parameter><parameter name="DAT">13/02/2024</parameter><parameter name="TIM">13:19:04.760 (GMT+1)</parameter><parameter name="DXU">WN</parameter></Data_Parameters_ScRf><Optic_Parameters_Rf><parameter name="APR">0</parameter><parameter name="APT">Open</parameter><parameter name="BMS">KBr</parameter><parameter name="DTC">RT-DLaTGS_IR-Biotyper [Microplate reader]</parameter><parameter name="HPF">0</parameter><parameter name="LPF">10.0</parameter><parameter name="LPV">4000</parameter><parameter name="PGR">0</parameter><parameter name="RCH">Module port</parameter><parameter name="RDX">0</parameter><parameter name="SRC">MIR</parameter><parameter name="VEL">10.0</parameter><parameter name="SON">Off</parameter></Optic_Parameters_Rf><Acquisition_Parameters_Rf><parameter name="ADT">1</parameter><parameter name="AQM">DD</parameter><parameter name="CFE">0</parameter><parameter name="COR">0</parameter><parameter name="DEL">0</parameter><parameter name="DLY">0</parameter><parameter name="HFW">8000</parameter><parameter name="LFW">0</parameter><parameter name="NSR">32</parameter><parameter name="PLF">AB</parameter><parameter name="RES">6</parameter><parameter name="RGN">-1</parameter><parameter name="STR">0</parameter><parameter name="TCL">MakeCompatibleScalar (0, {WSV=1.000000, ARV=0});</parameter><parameter name="TDL">37</parameter><parameter name="RPO">0</parameter></Acquisition_Parameters_Rf><FT_-_Parameters_Rf><parameter name="APF">B3</parameter><parameter name="HFQ">500</parameter><parameter name="LFQ">4000</parameter><parameter name="NLI">0</parameter><parameter name="PHR">24</parameter><parameter name="PHZ">ML</parameter><parameter name="SPZ">NO</parameter><parameter name="ZFF">1</parameter></FT_-_Parameters_Rf><Optic_Parameters_><parameter name="APR">0</parameter><parameter name="APT">Open</parameter><parameter name="BMS">KBr</parameter><parameter name="CHN">Module port</parameter><parameter name="DTC">RT-DLaTGS_IR-Biotyper [Microplate reader]</parameter><parameter name="HPF">0</parameter><parameter name="LPF">10.0</parameter><parameter name="LPV">4000</parameter><parameter name="PGN">0</parameter><parameter name="RDX">0</parameter><parameter name="SRC">MIR</parameter><parameter name="VEL">10.0</parameter><parameter name="SON">Off</parameter></Optic_Parameters_><FT_-_Parameters_><parameter name="APF">B3</parameter><parameter name="HFQ">500</parameter><parameter name="LFQ">4000</parameter><parameter name="NLI">0</parameter><parameter name="PHR">24</parameter><parameter name="PHZ">ML</parameter><parameter name="SPZ">NO</parameter><parameter name="ZFF">1</parameter></FT_-_Parameters_><Acquisition_Parameters_><parameter name="ADT">1</parameter><parameter name="AQM">DD</parameter><parameter name="CFE">0</parameter><parameter name="COR">0</parameter><parameter name="DEL">0</parameter><parameter name="DLY">0</parameter><parameter name="HFW">8000</parameter><parameter name="LFW">0</parameter><parameter name="NSS">32</parameter><parameter name="PLF">AB</parameter><parameter name="RES">6</parameter><parameter name="SOT">0</parameter><parameter name="TCL">MakeCompatibleScalar (0, {WSV=1.000000, ARV=0});</parameter><parameter name="TDL">37</parameter><parameter name="SPO">0</parameter><parameter name="SGN">-1</parameter></Acquisition_Parameters_><Instrument_Parameters_Rf><parameter name="HFL">15801.365274</parameter><parameter name="LFL">0</parameter><parameter name="LWN">15801.365274</parameter><parameter name="ABP">32157</parameter><parameter name="SSP">1</parameter><parameter name="ARG">2</parameter><parameter name="ASG">2</parameter><parameter name="ASS">32</parameter><parameter name="GFW">16</parameter><parameter name="GBW">16</parameter><parameter name="BFW">0</parameter><parameter name="BBW">0</parameter><parameter name="PKA">9171</parameter><parameter name="PKL">5009</parameter><parameter name="PRA">9170</parameter><parameter name="PRL">4988</parameter><parameter name="P2A">1</parameter><parameter name="P2L">1</parameter><parameter name="P2R">1</parameter><parameter name="P2K">1</parameter><parameter name="DAQ">0</parameter><parameter name="AG2">1</parameter><parameter name="SSM">1</parameter><parameter name="RSN">48127</parameter><parameter name="CRR">0</parameter><parameter name="SRT">1707830344.761</parameter><parameter name="DUR">19.6389923095703</parameter><parameter name="TSC">30</parameter><parameter name="MVD">0.284181416034698</parameter><parameter name="AN1">0.22595087687301</parameter><parameter name="AN2">0</parameter><parameter name="VSN">2.485 Apr  4 2017</parameter><parameter name="SRN">0085</parameter><parameter name="CAM">0</parameter><parameter name="INS">IR-Biotyper</parameter><parameter name="FOC">69</parameter><parameter name="RDY">1</parameter><parameter name="ARS">32</parameter></Instrument_Parameters_Rf><Sample_Parameters_><parameter name="BLD"></parameter><parameter name="CNM">Admin</parameter><parameter name="CPY"></parameter><parameter name="DPM"></parameter><parameter name="EXP">IRBT_v3_32Scans.XPM</parameter><parameter name="LCT"></parameter><parameter name="SFM">Microplate, HTS-XT</parameter><parameter name="SNM">240213-1206-Cdiff_SCFA_3_GDA_C41_242154963_F4_f14db718-9d31-4c33-8315-09d55b42abf9.0</parameter><parameter name="XPP">C:\Users\Public\Documents\Bruker\OPUS_8.2.28\XPM</parameter><parameter name="IST">OK</parameter><parameter name="CPG">1252</parameter><parameter name="UID">8e90d7f0-38bf-4b64-b7d9-f175ef241d67</parameter></Sample_Parameters_><Instrument_Parameters_><parameter name="HFL">15801.365274</parameter><parameter name="LFL">0</parameter><parameter name="LWN">15801.365274</parameter><parameter name="ABP">32157</parameter><parameter name="SSP">1</parameter><parameter name="ASG">2</parameter><parameter name="ARG">2</parameter><parameter name="ASS">32</parameter><parameter name="GFW">16</parameter><parameter name="GBW">16</parameter><parameter name="BFW">0</parameter><parameter name="BBW">0</parameter><parameter name="PKA">10808</parameter><parameter name="PKL">5009</parameter><parameter name="PRA">10941</parameter><parameter name="PRL">4988</parameter><parameter name="P2A">1</parameter><parameter name="P2L">1</parameter><parameter name="P2R">1</parameter><parameter name="P2K">1</parameter><parameter name="DAQ">0</parameter><parameter name="AG2">1</parameter><parameter name="SSM">1</parameter><parameter name="RSN">24761</parameter><parameter name="CRR">0</parameter><parameter name="SRT">1707830370.614</parameter><parameter name="DUR">19.6389923095703</parameter><parameter name="TSC">30</parameter><parameter name="MVD">0.277402848005295</parameter><parameter name="AN1">0.225923899687485</parameter><parameter name="AN2">0</parameter><parameter name="VSN">2.485 Apr  4 2017</parameter><parameter name="SRN">0085</parameter><parameter name="CAM">0</parameter><parameter name="INS">IR-Biotyper</parameter><parameter name="FOC">69</parameter><parameter name="RDY">1</parameter></Instrument_Parameters_><History/></OPUSDataFile>
