<?xml version="1.0" encoding="UTF-8" ?>
<OPUSDataFile><AB><Ydata ylabel="Absorbance Units"><values byteorder="INTEL" format="FLOAT32" numvalues="3497"> -0.06858211 -0.06855484 -0.06853407 -0.06851985 -0.06851252 -0.0685117 -0.06851711 -0.06852738 -0.06854122 -0.0685552
 -0.06856518 -0.06856927 -0.06856365 -0.0685519 -0.0685337 -0.06851664 -0.06850354 -0.0684977 -0.06850135 -0.06850945
 -0.06852207 -0.06853075 -0.06853466 -0.06852984 -0.06851614 -0.06849694 -0.06847274 -0.06845027 -0.0684296 -0.06841508
 -0.06840566 -0.06840034 -0.06839792 -0.06839488 -0.06839159 -0.0683865 -0.06838186 -0.06837964 -0.06838091 -0.06838783
 -0.06839801 -0.0684112 -0.06842384 -0.06843456 -0.06844172 -0.06844475 -0.06844284 -0.06843605 -0.06842171 -0.06839961
 -0.06836787 -0.06832645 -0.06827901 -0.06822616 -0.06817576 -0.06812815 -0.06808936 -0.06805898 -0.06803901 -0.06802856
 -0.06802685 -0.06803244 -0.06804316 -0.068057 -0.06807109 -0.06808376 -0.06809282 -0.0680978 -0.06809775 -0.06809349
 -0.06808493 -0.06807365 -0.06805987 -0.06804547 -0.06803085 -0.06801626 -0.06800178 -0.06798684 -0.06797141 -0.06795662
 -0.06794263 -0.06793181 -0.06792387 -0.06791871 -0.06791553 -0.06791145 -0.06790637 -0.06789818 -0.06788822 -0.06787772
 -0.06786755 -0.06785984 -0.06785282 -0.06784622 -0.06783726 -0.06782385 -0.0678065 -0.06778385 -0.06776186 -0.06774146
 -0.06772839 -0.06772435 -0.06772708 -0.06773704 -0.06774368 -0.06774646 -0.06773842 -0.06772022 -0.06769805 -0.06767305
 -0.06765608 -0.06764536 -0.06764128 -0.06763985 -0.06763092 -0.06761465 -0.06758494 -0.06754839 -0.06750964 -0.0674753
 -0.0674535 -0.06744266 -0.06744609 -0.06745345 -0.06746195 -0.06746296 -0.06745256 -0.06743352 -0.06740485 -0.06737687
 -0.06735057 -0.06733204 -0.06732167 -0.06731647 -0.06731616 -0.06731607 -0.06731658 -0.06731792 -0.0673203 -0.0673255
 -0.06733152 -0.06733495 -0.06733271 -0.06731692 -0.06728939 -0.06724773 -0.06719874 -0.06714649 -0.06709751 -0.06705665
 -0.06702672 -0.06701071 -0.06700566 -0.06701239 -0.06702248 -0.06703486 -0.06704196 -0.06704258 -0.06703655 -0.06702378
 -0.06700868 -0.06699132 -0.06697322 -0.06695414 -0.0669328 -0.06691018 -0.06688868 -0.0668704 -0.06686229 -0.06686408
 -0.06688005 -0.06690458 -0.06693412 -0.06695999 -0.06697339 -0.06697118 -0.0669468 -0.06690911 -0.06685835 -0.06680921
 -0.06676584 -0.06673596 -0.06672259 -0.06672098 -0.06673143 -0.06674281 -0.06675447 -0.06675785 -0.06675301 -0.0667397
 -0.06671879 -0.06669579 -0.06667111 -0.06664953 -0.06663001 -0.0666124 -0.06659576 -0.06657808 -0.06655998 -0.06654121
 -0.06652305 -0.06650678 -0.06649214 -0.06647966 -0.06646758 -0.06645527 -0.06644183 -0.06642662 -0.06641082 -0.0663945
 -0.0663791 -0.06636498 -0.06635076 -0.06633642 -0.06631723 -0.06629308 -0.06626114 -0.06622221 -0.06617981 -0.06613525
 -0.06609575 -0.06606124 -0.06603555 -0.0660172 -0.06600522 -0.06599843 -0.06599501 -0.06599421 -0.0659956 -0.06599614
 -0.06599459 -0.0659866 -0.0659696 -0.0659434 -0.06590611 -0.06586559 -0.06582225 -0.06578703 -0.06576128 -0.06575082
 -0.06575622 -0.06577379 -0.0658029 -0.06583282 -0.06586286 -0.06588281 -0.06589319 -0.06589028 -0.06587564 -0.06585126
 -0.06581878 -0.06578156 -0.06574175 -0.06570308 -0.06566752 -0.06563862 -0.0656153 -0.06559868 -0.06558464 -0.065572
 -0.06555673 -0.06553672 -0.06551366 -0.06548703 -0.06546237 -0.06544054 -0.06542223 -0.06540767 -0.06539044 -0.06537027
 -0.06534175 -0.06530582 -0.06526655 -0.06522559 -0.06519278 -0.06516701 -0.06515105 -0.06514133 -0.06513204 -0.06512193
 -0.06510607 -0.06508704 -0.06506577 -0.06504346 -0.06502239 -0.06499846 -0.06497057 -0.06493527 -0.06489028 -0.06483932
 -0.06478206 -0.0647263 -0.06467283 -0.06462798 -0.06459229 -0.06456766 -0.06455398 -0.06454834 -0.06455014 -0.0645536
 -0.06455788 -0.06455659 -0.06454909 -0.06453009 -0.06450009 -0.06445689 -0.06440312 -0.0643406 -0.06427345 -0.06420594
 -0.06414103 -0.06408186 -0.06402937 -0.06398488 -0.06394774 -0.06391846 -0.06389409 -0.06387476 -0.0638544 -0.06383259
 -0.06380214 -0.0637625 -0.06370943 -0.06364293 -0.06356412 -0.06347379 -0.06337833 -0.06327868 -0.06318264 -0.06309012
 -0.06300541 -0.06292677 -0.06285294 -0.06278231 -0.06271169 -0.06264172 -0.0625713 -0.06250319 -0.06243902 -0.06237996
 -0.06232783 -0.0622791 -0.06223398 -0.06218497 -0.06213077 -0.06206521 -0.06198687 -0.06189719 -0.06179596 -0.06169085
 -0.06158219 -0.06147571 -0.06137114 -0.06126881 -0.06116843 -0.06106863 -0.06096993 -0.06087293 -0.06077869 -0.06068982
 -0.06060633 -0.0605303 -0.06045855 -0.06039011 -0.06031834 -0.06023885 -0.0601465 -0.06003644 -0.05991228 -0.05977273
 -0.05962838 -0.05948092 -0.0593393 -0.05920522 -0.05908067 -0.05896616 -0.05885597 -0.05874974 -0.0586396 -0.05852559
 -0.0584044 -0.05827682 -0.05814478 -0.05800909 -0.05787294 -0.05773707 -0.05760467 -0.05747561 -0.05735177 -0.05723066
 -0.057111 -0.05698948 -0.05686247 -0.05673187 -0.05659657 -0.05646316 -0.05633388 -0.05621125 -0.05609744 -0.05598491
 -0.05587322 -0.05575352 -0.05562484 -0.05548728 -0.05534099 -0.0551923 -0.05504137 -0.05489236 -0.05474465 -0.05459737
 -0.05445013 -0.05430099 -0.05415057 -0.05399927 -0.05384751 -0.05369639 -0.05354513 -0.05339351 -0.05324046 -0.0530845
 -0.05292732 -0.05276839 -0.05261293 -0.05246261 -0.05232047 -0.05218836 -0.05206177 -0.05194093 -0.05181622 -0.05168683
 -0.05154686 -0.05139615 -0.05123692 -0.05106977 -0.05090116 -0.05073161 -0.05056704 -0.0504073 -0.05025557 -0.05011003
 -0.04996939 -0.04982964 -0.04968452 -0.04953096 -0.04936216 -0.04918126 -0.04898652 -0.0487875 -0.04858792 -0.04839606
 -0.04821639 -0.04804851 -0.04789394 -0.04774585 -0.04760357 -0.04746123 -0.04731815 -0.0471732 -0.04702635 -0.04687997
 -0.04673409 -0.04658994 -0.04644689 -0.04630249 -0.0461559 -0.04600274 -0.04584363 -0.04567727 -0.04550578 -0.04533163
 -0.04515666 -0.04498373 -0.04481357 -0.04464732 -0.044486 -0.04433065 -0.04418071 -0.04403684 -0.04389534 -0.04375575
 -0.04361397 -0.0434691 -0.04332104 -0.04316963 -0.04301671 -0.04286235 -0.04270593 -0.04254736 -0.04238483 -0.0422189
 -0.04205148 -0.04188346 -0.04171903 -0.04155794 -0.04140206 -0.04124974 -0.04109928 -0.04094933 -0.04079752 -0.040644
 -0.04048803 -0.0403304 -0.04017119 -0.04001153 -0.03985154 -0.03969342 -0.03953774 -0.03938582 -0.03923837 -0.0390921
 -0.03894693 -0.0387969 -0.03864174 -0.03848133 -0.03831642 -0.03815596 -0.03800027 -0.03785677 -0.03772282 -0.03759387
 -0.03746661 -0.03733023 -0.03718596 -0.03702954 -0.03686719 -0.03670392 -0.03654477 -0.03639637 -0.03625689 -0.0361283
 -0.03600368 -0.03588133 -0.0357548 -0.03562188 -0.03548094 -0.0353309 -0.03517576 -0.03501561 -0.03485669 -0.03469934
 -0.03454791 -0.03440225 -0.0342616 -0.03412539 -0.03398965 -0.03385454 -0.03371831 -0.0335821 -0.03344806 -0.03331607
 -0.03318777 -0.03306005 -0.03293022 -0.03279558 -0.03265189 -0.0325024 -0.03234627 -0.03219193 -0.03204226 -0.03190269
 -0.03177594 -0.03165945 -0.03155362 -0.03145219 -0.03135454 -0.03125758 -0.03116114 -0.03106617 -0.03097263 -0.03088016
 -0.03078819 -0.030693 -0.03059445 -0.03048968 -0.03037994 -0.03026665 -0.03015134 -0.03003734 -0.02992494 -0.02981573
 -0.02970964 -0.02960681 -0.02950815 -0.02941449 -0.02932528 -0.02924151 -0.02915789 -0.02907362 -0.02898296 -0.0288841
 -0.0287796 -0.0286689 -0.02856412 -0.02846592 -0.02838429 -0.02831865 -0.0282635 -0.02821665 -0.0281614 -0.02809766
 -0.02801482 -0.02791718 -0.02780918 -0.02769578 -0.02758781 -0.02748624 -0.02739697 -0.02731762 -0.02724831 -0.02718641
 -0.02713094 -0.0270785 -0.02702798 -0.02697549 -0.02691969 -0.02685922 -0.02679329 -0.02672452 -0.02665308 -0.02658133
 -0.02650942 -0.02643736 -0.02636523 -0.0262938 -0.0262236 -0.02615865 -0.02609883 -0.02604651 -0.02599984 -0.02595547
 -0.02591198 -0.02586444 -0.02581514 -0.02576422 -0.02571585 -0.02567462 -0.02563929 -0.02561221 -0.02558485 -0.02555449
 -0.02551489 -0.02546253 -0.02540196 -0.02533258 -0.02526543 -0.02520178 -0.02514681 -0.025101 -0.02505998 -0.02502332
 -0.02498337 -0.02494031 -0.02489111 -0.02483727 -0.02478286 -0.02472922 -0.02468231 -0.02464117 -0.02460761 -0.02457822
 -0.02454958 -0.0245191 -0.02448294 -0.02444164 -0.02439401 -0.02434283 -0.02428853 -0.02423482 -0.02418241 -0.02413565
 -0.02409545 -0.02406446 -0.02404333 -0.02403037 -0.02402559 -0.02402432 -0.02402634 -0.02402755 -0.0240278 -0.02402414
 -0.02401623 -0.02400097 -0.02397846 -0.0239467 -0.02390776 -0.02386349 -0.02381811 -0.02377725 -0.02374473 -0.0237264
 -0.02372176 -0.02373354 -0.02375508 -0.02378516 -0.02381529 -0.02384261 -0.0238635 -0.02387628 -0.02388372 -0.02388559
 -0.02388852 -0.02389284 -0.02390647 -0.02392971 -0.02396849 -0.02402207 -0.02408885 -0.02416643 -0.02424441 -0.02432098
 -0.02438512 -0.02443895 -0.02448008 -0.02451402 -0.02454671 -0.02458227 -0.02462727 -0.02468042 -0.0247438 -0.02481174
 -0.02488228 -0.02495169 -0.02501781 -0.02508265 -0.02514574 -0.02521276 -0.02528428 -0.02536456 -0.02545403 -0.02555194
 -0.02565805 -0.02576705 -0.02587835 -0.02598492 -0.02608697 -0.02618119 -0.02626914 -0.02635347 -0.02643492 -0.02651698
 -0.02659736 -0.02667472 -0.0267465 -0.02680859 -0.02686417 -0.02691268 -0.02696182 -0.02701484 -0.02707624 -0.0271489
 -0.0272299 -0.02731982 -0.02741112 -0.02750331 -0.02758746 -0.02766293 -0.02772342 -0.02776902 -0.02780254 -0.02782544
 -0.02785033 -0.0278782 -0.02792087 -0.0279762 -0.02804517 -0.02812344 -0.02820299 -0.02828166 -0.02835255 -0.02841752
 -0.02847562 -0.02852987 -0.02858236 -0.02863345 -0.02868415 -0.0287329 -0.02877904 -0.02882344 -0.02886567 -0.02891006
 -0.0289571 -0.02900988 -0.0290688 -0.02913142 -0.02919751 -0.02926153 -0.02932336 -0.02937959 -0.02943064 -0.02947652
 -0.02951773 -0.02955542 -0.02959053 -0.02962513 -0.02966063 -0.02969997 -0.02974342 -0.02979304 -0.02984615 -0.02990216
 -0.02995716 -0.03000924 -0.03005615 -0.03009658 -0.03013088 -0.03015873 -0.03018175 -0.03019993 -0.03021603 -0.03023017
 -0.03024679 -0.0302661 -0.03029146 -0.03032239 -0.03035674 -0.03039313 -0.03042387 -0.03044831 -0.03045977 -0.03046017
 -0.03044966 -0.03043123 -0.03040935 -0.0303851 -0.03036122 -0.03033747 -0.03031394 -0.03029214 -0.03027232 -0.0302575
 -0.03024908 -0.03024679 -0.0302515 -0.03025811 -0.03026622 -0.03027042 -0.03027016 -0.03026419 -0.03025256 -0.03023843
 -0.03022231 -0.03021017 -0.03020227 -0.03020337 -0.03021231 -0.03022859 -0.03024991 -0.03027116 -0.03029147 -0.03030669
 -0.03031918 -0.03032942 -0.03034056 -0.03035509 -0.03037419 -0.03039915 -0.03042966 -0.03046586 -0.03050734 -0.03055408
 -0.03060545 -0.03066152 -0.03072041 -0.03078204 -0.03084403 -0.03090624 -0.03096571 -0.03102222 -0.03107241 -0.03111644
 -0.03115258 -0.03118252 -0.03120996 -0.03123771 -0.03127328 -0.03131846 -0.03137999 -0.03145542 -0.03154605 -0.03164516
 -0.03174921 -0.03185111 -0.03194611 -0.03203224 -0.032107 -0.03217458 -0.03223528 -0.03229375 -0.03235094 -0.03240691
 -0.03246178 -0.03251439 -0.03256476 -0.03261573 -0.03266768 -0.03272596 -0.03279001 -0.03286032 -0.03293524 -0.03300958
 -0.03308279 -0.03315055 -0.0332148 -0.03327635 -0.03333743 -0.03340107 -0.03346707 -0.0335366 -0.03360769 -0.03367962
 -0.03375115 -0.03382135 -0.03389135 -0.03396109 -0.03403252 -0.03410599 -0.03418202 -0.03426088 -0.03433942 -0.03441744
 -0.03448837 -0.03455206 -0.0346036 -0.0346442 -0.03467688 -0.0347041 -0.0347355 -0.03477222 -0.03482234 -0.03488341
 -0.03495608 -0.03503566 -0.03511751 -0.03519839 -0.035274 -0.03534485 -0.03540919 -0.03547188 -0.03553357 -0.03560086
 -0.03567546 -0.03576097 -0.03585876 -0.03596542 -0.03608116 -0.03619629 -0.03631033 -0.03641542 -0.03651182 -0.03659954
 -0.03667941 -0.03675621 -0.03682956 -0.03690123 -0.03696939 -0.03703058 -0.03708419 -0.03712662 -0.03716119 -0.03718926
 -0.03721623 -0.03724675 -0.03728326 -0.03732906 -0.03738134 -0.03744027 -0.03750123 -0.037563 -0.03762364 -0.03768272
 -0.03773929 -0.03779339 -0.03784185 -0.0378845 -0.03791818 -0.03794318 -0.03796144 -0.03797414 -0.03798894 -0.03800643
 -0.03803321 -0.03806793 -0.03811113 -0.03816051 -0.0382128 -0.0382663 -0.03831793 -0.03836679 -0.0384115 -0.03845099
 -0.03848442 -0.03851104 -0.03853046 -0.03854205 -0.03854581 -0.03854018 -0.03852496 -0.03849874 -0.03846121 -0.0384142
 -0.03835781 -0.03829724 -0.03823257 -0.03816673 -0.03809876 -0.03802493 -0.03794365 -0.03784715 -0.03773509 -0.03760235
 -0.03745062 -0.03727989 -0.03709299 -0.03689274 -0.03668214 -0.03646415 -0.03624129 -0.03601588 -0.03578822 -0.03555958
 -0.03532656 -0.03508893 -0.03484183 -0.03458427 -0.03431444 -0.03403173 -0.03374025 -0.03344019 -0.03313994 -0.03284006
 -0.03254983 -0.03226961 -0.03200607 -0.03175946 -0.03153393 -0.03133011 -0.03115156 -0.03099863 -0.03087432 -0.03077633
 -0.03070489 -0.03065294 -0.03061668 -0.03058564 -0.03055392 -0.03051242 -0.03045654 -0.03038114 -0.03028383 -0.03016386
 -0.0300203 -0.02985696 -0.02967376 -0.02947855 -0.02927178 -0.02906368 -0.02885471 -0.02865304 -0.02845873 -0.02827615
 -0.02810518 -0.02794772 -0.0278038 -0.02767473 -0.02755974 -0.02745867 -0.02736943 -0.02728968 -0.02721746 -0.02714918
 -0.02708808 -0.02703196 -0.02699494 -0.02697794 -0.02700815 -0.02708998 -0.0272564 -0.02751371 -0.02788185 -0.02836549
 -0.02895047 -0.02963656 -0.03037171 -0.03115201 -0.03191056 -0.03264526 -0.03330765 -0.03390183 -0.0344157 -0.0348575
 -0.03524097 -0.03557307 -0.0358721 -0.03614084 -0.03638951 -0.03661904 -0.03683295 -0.03703284 -0.03722032 -0.03739697
 -0.03756398 -0.03772116 -0.03786878 -0.03800587 -0.03813206 -0.0382485 -0.03835506 -0.03845538 -0.03854968 -0.0386401
 -0.03872643 -0.038806 -0.03887792 -0.03893501 -0.03897661 -0.03899567 -0.03899351 -0.03896839 -0.03892557 -0.03887191
 -0.03881553 -0.03876887 -0.03873734 -0.03873101 -0.03874734 -0.0387894 -0.03884735 -0.03891888 -0.03899333 -0.03906788
 -0.03913368 -0.03918922 -0.0392261 -0.03924352 -0.03923301 -0.03919401 -0.03911976 -0.03901025 -0.03886366 -0.03868231
 -0.03847763 -0.03825846 -0.03806191 -0.03790348 -0.03784214 -0.03788728 -0.03808918 -0.03843146 -0.03892332 -0.03951911
 -0.04018874 -0.04088009 -0.04155371 -0.04218153 -0.04273973 -0.04323235 -0.04365431 -0.04402272 -0.04434001 -0.04461756
 -0.04485703 -0.04506323 -0.04523648 -0.04538447 -0.04550783 -0.04561851 -0.04571697 -0.04581257 -0.04590475 -0.04599631
 -0.04608638 -0.04617397 -0.04625896 -0.04634049 -0.04641909 -0.04649528 -0.04656888 -0.04664041 -0.04670798 -0.04677081
 -0.04682674 -0.04687425 -0.04691387 -0.04694469 -0.04697164 -0.04699518 -0.04702107 -0.04705021 -0.04708418 -0.04712326
 -0.0471638 -0.04720555 -0.04724326 -0.04727699 -0.04730444 -0.04732624 -0.04734384 -0.04735776 -0.04737026 -0.0473813
 -0.04739177 -0.04740166 -0.04741103 -0.04742071 -0.04743155 -0.04744383 -0.04745829 -0.04747358 -0.0474893 -0.04750435
 -0.0475179 -0.04753165 -0.04754565 -0.04756223 -0.04758189 -0.04760403 -0.04762869 -0.04765294 -0.04767669 -0.0476984
 -0.0477182 -0.04773632 -0.04775291 -0.04776864 -0.04778355 -0.04779806 -0.04781204 -0.04782558 -0.04783838 -0.04784999
 -0.04786065 -0.04787024 -0.0478796 -0.04788931 -0.04789967 -0.04791119 -0.04792289 -0.04793443 -0.04794582 -0.04795672
 -0.04796916 -0.04798339 -0.04800053 -0.04802077 -0.04804251 -0.04806568 -0.04808798 -0.04810943 -0.04812912 -0.04814713
 -0.04816327 -0.04817779 -0.04819126 -0.04820403 -0.04821726 -0.04823073 -0.04824497 -0.04825871 -0.04827077 -0.04828084
 -0.04828764 -0.04829386 -0.04830008 -0.0483096 -0.04832403 -0.04834281 -0.04836655 -0.04839127 -0.04841651 -0.04843968
 -0.04846046 -0.04847978 -0.04849771 -0.04851582 -0.04853401 -0.04855211 -0.04856995 -0.04858662 -0.04860228 -0.048617
 -0.04863102 -0.0486449 -0.04865852 -0.04867175 -0.04868494 -0.04869803 -0.04871239 -0.04872895 -0.04874841 -0.048772
 -0.04879714 -0.04882381 -0.04884734 -0.04886661 -0.04887938 -0.04888481 -0.04888605 -0.04888315 -0.04888123 -0.04888044
 -0.04888213 -0.04888591 -0.04888862 -0.04889016 -0.0488879 -0.04888295 -0.04887722 -0.04887197 -0.04887124 -0.04887409
 -0.04888142 -0.04889052 -0.04889886 -0.0489051 -0.04890704 -0.04890607 -0.04890203 -0.04889729 -0.04889264 -0.04888923
 -0.04888751 -0.04888763 -0.04888971 -0.04889328 -0.04889839 -0.04890321 -0.04890765 -0.04890947 -0.04890877 -0.04890521
 -0.04889923 -0.04889294 -0.04888653 -0.04888197 -0.04887864 -0.04887622 -0.04887394 -0.04887008 -0.04886559 -0.04886036
 -0.04885677 -0.0488567 -0.04886074 -0.0488704 -0.04888267 -0.04889711 -0.04891026 -0.04892094 -0.04892927 -0.04893487
 -0.04894048 -0.04894633 -0.04895383 -0.048963 -0.04897235 -0.04898173 -0.04898903 -0.04899438 -0.04899719 -0.04899806
 -0.04899853 -0.04899921 -0.04900244 -0.04900776 -0.049016 -0.04902518 -0.04903371 -0.04903977 -0.04904104 -0.04903843
 -0.04903134 -0.04902272 -0.0490135 -0.0490055 -0.04899955 -0.04899492 -0.04899165 -0.04898878 -0.04898617 -0.04898455
 -0.04898397 -0.04898553 -0.04898911 -0.04899384 -0.04899944 -0.04900374 -0.04900687 -0.04900787 -0.04900749 -0.04900702
 -0.04900688 -0.04900861 -0.04901131 -0.04901479 -0.04901759 -0.0490183 -0.04901694 -0.04901262 -0.04900783 -0.04900304
 -0.04900099 -0.04900271 -0.04900791 -0.04901704 -0.04902652 -0.04903614 -0.04904203 -0.04904402 -0.0490418 -0.04903569
 -0.0490291 -0.04902229 -0.04901851 -0.04901715 -0.04901807 -0.04902012 -0.04902042 -0.04901884 -0.04901339 -0.04900581
 -0.04899692 -0.04898899 -0.04898438 -0.04898296 -0.04898598 -0.04899007 -0.04899459 -0.04899572 -0.04899216 -0.04898315
 -0.04896799 -0.04895004 -0.04892944 -0.04891019 -0.04889251 -0.04887795 -0.04886639 -0.04885709 -0.04884981 -0.04884286
 -0.04883613 -0.04882837 -0.0488197 -0.04880961 -0.04879863 -0.04878739 -0.04877611 -0.04876553 -0.04875497 -0.04874423
 -0.04873246 -0.04871886 -0.04870423 -0.04868833 -0.04867356 -0.04866051 -0.04865056 -0.04864426 -0.04864012 -0.04863819
 -0.04863507 -0.04863058 -0.04862286 -0.04861202 -0.04859908 -0.04858441 -0.0485708 -0.04855831 -0.04854867 -0.04854152
 -0.04853676 -0.04853421 -0.0485334 -0.04853467 -0.04853852 -0.04854428 -0.04855219 -0.04855973 -0.04856588 -0.04856795
 -0.04856422 -0.0485555 -0.04854113 -0.04852518 -0.04850809 -0.04849352 -0.04848193 -0.04847419 -0.04847036 -0.04846965
 -0.04847202 -0.04847683 -0.04848403 -0.04849308 -0.04850352 -0.04851355 -0.04852247 -0.04852764 -0.04852881 -0.04852402
 -0.04851434 -0.04849971 -0.04848266 -0.04846503 -0.04844904 -0.04843676 -0.04842794 -0.04842341 -0.04842046 -0.04841867
 -0.04841527 -0.04840956 -0.04840141 -0.04839059 -0.04837934 -0.04836776 -0.04835838 -0.04835121 -0.04834691 -0.0483451
 -0.04834389 -0.04834272 -0.04833833 -0.04833071 -0.04831787 -0.04830084 -0.04828009 -0.04825752 -0.04823545 -0.04821555
 -0.04820023 -0.04818946 -0.04818434 -0.04818266 -0.04818414 -0.04818568 -0.04818628 -0.04818464 -0.04818027 -0.04817354
 -0.0481645 -0.04815316 -0.04813954 -0.04812232 -0.04810159 -0.04807796 -0.04805207 -0.04802842 -0.04800745 -0.04799373
 -0.04798612 -0.04798447 -0.04798653 -0.04798818 -0.04798838 -0.04798381 -0.04797555 -0.04796327 -0.0479486 -0.04793236
 -0.04791566 -0.04789888 -0.04788362 -0.04787021 -0.04786055 -0.0478553 -0.04785357 -0.04785567 -0.04785665 -0.04785625
 -0.04785013 -0.04783839 -0.04782208 -0.0478018 -0.04778221 -0.04776334 -0.04774799 -0.04773507 -0.04772315 -0.04771133
 -0.04769704 -0.0476807 -0.04766156 -0.04764086 -0.04761932 -0.04759802 -0.04757765 -0.04755926 -0.04754335 -0.04753074
 -0.04752198 -0.04751628 -0.04751392 -0.04751157 -0.04750901 -0.0475023 -0.04749114 -0.04747483 -0.04745353 -0.04743028
 -0.0474054 -0.04738266 -0.04736193 -0.04734473 -0.04733063 -0.0473193 -0.04731033 -0.04730289 -0.04729655 -0.04729051
 -0.04728424 -0.0472767 -0.04726864 -0.0472598 -0.04725237 -0.04724726 -0.04724563 -0.04724844 -0.04725372 -0.0472614
 -0.04726878 -0.04727535 -0.0472818 -0.04728812 -0.04729633 -0.04730628 -0.04731514 -0.04732236 -0.04732215 -0.04731536
 -0.04730192 -0.04728408 -0.04726866 -0.04725531 -0.04724784 -0.04724174 -0.04723312 -0.04721739 -0.04718816 -0.04714615
 -0.04708838 -0.04702235 -0.04694952 -0.04687958 -0.04681559 -0.04676351 -0.04672542 -0.04670112 -0.04669122 -0.0466906
 -0.04669906 -0.04670865 -0.04671907 -0.04672493 -0.04672656 -0.04672396 -0.0467176 -0.04670949 -0.04669968 -0.04668936
 -0.04667834 -0.04666727 -0.04665468 -0.04663925 -0.04661885 -0.04659045 -0.04655475 -0.04651005 -0.04646193 -0.04641207
 -0.04636578 -0.04632547 -0.04629131 -0.04626413 -0.04624044 -0.04621998 -0.04619981 -0.04617969 -0.0461583 -0.04613555
 -0.04611029 -0.04608256 -0.04605197 -0.04601892 -0.045985 -0.04595054 -0.0459174 -0.04588534 -0.04585465 -0.04582515
 -0.04579652 -0.04576911 -0.04574316 -0.04571888 -0.04569681 -0.04567579 -0.04565554 -0.04563476 -0.04561275 -0.04559011
 -0.04556667 -0.04554422 -0.045523 -0.04550377 -0.04548664 -0.04547102 -0.04545689 -0.04544349 -0.04543079 -0.04541823
 -0.0454056 -0.0453917 -0.0453763 -0.0453579 -0.04533692 -0.04531319 -0.04528785 -0.04526242 -0.04523766 -0.04521513
 -0.04519414 -0.045175 -0.04515581 -0.04513568 -0.0451137 -0.04508911 -0.04506306 -0.04503547 -0.04500838 -0.04498209
 -0.04495731 -0.04493415 -0.04491208 -0.04489111 -0.04487118 -0.04485225 -0.04483407 -0.04481616 -0.04479621 -0.04477363
 -0.04474486 -0.0447109 -0.04467127 -0.04462907 -0.04458836 -0.04455141 -0.04452278 -0.04450049 -0.04448538 -0.04447249
 -0.04445953 -0.04444391 -0.04442364 -0.04440101 -0.04437597 -0.04435178 -0.04432901 -0.04430825 -0.04428963 -0.04427183
 -0.04425479 -0.04423763 -0.04422043 -0.04420381 -0.04418785 -0.04417325 -0.04415985 -0.04414779 -0.04413626 -0.04412391
 -0.04410942 -0.04409017 -0.04406574 -0.04403415 -0.04399748 -0.04395589 -0.04391339 -0.0438719 -0.04383393 -0.04380099
 -0.04377276 -0.0437496 -0.04372954 -0.04371241 -0.04369629 -0.04368097 -0.04366562 -0.0436502 -0.0436345 -0.04361852
 -0.04360224 -0.04358546 -0.04356723 -0.04354733 -0.04352416 -0.0434984 -0.04347035 -0.04344153 -0.04341441 -0.04338965
 -0.04336948 -0.04335183 -0.04333629 -0.04331996 -0.04330096 -0.04327901 -0.04325312 -0.04322612 -0.04319852 -0.04317214
 -0.04314755 -0.0431235 -0.04309997 -0.04307507 -0.04304876 -0.04302127 -0.04299274 -0.0429648 -0.04293738 -0.0429111
 -0.04288568 -0.04286046 -0.04283544 -0.04281033 -0.04278504 -0.04275946 -0.04273304 -0.04270506 -0.0426755 -0.04264354
 -0.04261127 -0.04257927 -0.04255008 -0.04252503 -0.04250402 -0.04248773 -0.04247291 -0.04245921 -0.04244412 -0.0424273
 -0.04240879 -0.04238861 -0.04236795 -0.04234681 -0.04232541 -0.04230369 -0.0422815 -0.04225884 -0.04223578 -0.04221224
 -0.04218805 -0.04216309 -0.04213688 -0.04210984 -0.04208206 -0.04205445 -0.04202781 -0.04200239 -0.04197877 -0.04195595
 -0.04193377 -0.04191119 -0.0418878 -0.04186373 -0.04183885 -0.04181426 -0.04179007 -0.04176673 -0.04174427 -0.04172175
 -0.04169908 -0.04167466 -0.04164855 -0.04162012 -0.04158974 -0.04155836 -0.04152638 -0.04149525 -0.04146512 -0.04143683
 -0.04141037 -0.04138606 -0.04136372 -0.04134363 -0.04132447 -0.04130593 -0.04128581 -0.04126306 -0.04123721 -0.04120752
 -0.04117671 -0.041145 -0.04111538 -0.0410883 -0.04106319 -0.04104003 -0.0410159 -0.04099083 -0.04096406 -0.04093608
 -0.04090928 -0.04088376 -0.04086144 -0.04084143 -0.04082272 -0.04080437 -0.04078416 -0.04076242 -0.04073829 -0.04071341
 -0.0406888 -0.04066558 -0.0406451 -0.04062602 -0.0406085 -0.04058964 -0.04056858 -0.04054448 -0.04051672 -0.0404882
 -0.04045907 -0.040433 -0.0404102 -0.04039108 -0.04037547 -0.04036137 -0.04034867 -0.04033587 -0.04032302 -0.04030972
 -0.0402956 -0.04027957 -0.04026115 -0.04023875 -0.04021301 -0.04018369 -0.04015254 -0.04012072 -0.04009002 -0.0400617
 -0.04003669 -0.04001571 -0.03999868 -0.03998586 -0.03997619 -0.03996973 -0.03996427 -0.03995971 -0.03995303 -0.03994405
 -0.03993059 -0.0399127 -0.03989081 -0.03986528 -0.03983849 -0.0398106 -0.03978352 -0.03975695 -0.03973106 -0.03970574
 -0.03968072 -0.03965655 -0.03963386 -0.03961287 -0.0395944 -0.03957704 -0.03956045 -0.03954279 -0.03952292 -0.03950148
 -0.03947807 -0.0394556 -0.03943458 -0.03941631 -0.03940117 -0.03938687 -0.0393733 -0.03935676 -0.03933722 -0.0393134
 -0.03928579 -0.0392568 -0.03922697 -0.03919984 -0.03917505 -0.03915386 -0.03913474 -0.0391155 -0.03909525 -0.03907147
 -0.03904565 -0.03901774 -0.03899053 -0.03896615 -0.03894432 -0.03892608 -0.03890781 -0.03888876 -0.03886628 -0.03883934
 -0.03881022 -0.0387788 -0.03875016 -0.03872461 -0.03870444 -0.03868942 -0.03867627 -0.03866443 -0.03864821 -0.03862787
 -0.03860097 -0.03856909 -0.03853489 -0.03849981 -0.03846797 -0.03843889 -0.03841401 -0.03839131 -0.03836957 -0.03834736
 -0.03832333 -0.0382974 -0.03826912 -0.03823915 -0.03820753 -0.03817514 -0.03814206 -0.03810958 -0.03807788 -0.0380476
 -0.03801879 -0.03799155 -0.03796587 -0.03794175 -0.03791921 -0.03789838 -0.03787906 -0.03786081 -0.03784279 -0.03782266
 -0.03779973 -0.03777125 -0.03773821 -0.03770011 -0.03765975 -0.0376191 -0.03758096 -0.03754791 -0.03752007 -0.03749858
 -0.03748083 -0.03746667 -0.03745219 -0.03743677 -0.0374172 -0.03739295 -0.03736309 -0.03732745 -0.03728914 -0.03724845
 -0.03721104 -0.03717696 -0.03714969 -0.03712841 -0.03711195 -0.03709906 -0.03708585 -0.03707156 -0.03705282 -0.03702999
 -0.03700187 -0.03697003 -0.03693503 -0.03689934 -0.03686465 -0.03683228 -0.03680355 -0.03677732 -0.03675397 -0.03672999
 -0.03670486 -0.03667542 -0.03664104 -0.03660173 -0.03655735 -0.03651179 -0.03646529 -0.03642273 -0.03638395 -0.03635041
 -0.03632125 -0.03629349 -0.03626661 -0.03623721 -0.03620614 -0.03617316 -0.03613974 -0.03610788 -0.03607796 -0.03605143
 -0.03602685 -0.03600409 -0.0359807 -0.03595548 -0.03592741 -0.03589565 -0.03586153 -0.03582505 -0.0357883 -0.0357516
 -0.03571555 -0.03568023 -0.03564468 -0.03560886 -0.03557207 -0.03553442 -0.03549625 -0.03545775 -0.03541989 -0.0353828
 -0.03534738 -0.03531331 -0.03528047 -0.03524833 -0.03521596 -0.03518363 -0.03515103 -0.0351193 -0.03508932 -0.03506092
 -0.03503481 -0.03500818 -0.03498051 -0.03494892 -0.03491239 -0.03487165 -0.03482636 -0.03478054 -0.03473444 -0.03469114
 -0.03465068 -0.03461223 -0.03457553 -0.03453768 -0.03449881 -0.03445768 -0.03441498 -0.034372 -0.03432934 -0.03428896
 -0.03425056 -0.03421465 -0.03418052 -0.03414792 -0.03411559 -0.03408287 -0.03404811 -0.03401026 -0.03396904 -0.03392375
 -0.03387655 -0.03382771 -0.03377918 -0.03373146 -0.03368351 -0.03363536 -0.03358471 -0.03353153 -0.03347637 -0.03341956
 -0.03336423 -0.03331047 -0.03326057 -0.03321409 -0.03317114 -0.03313072 -0.03309098 -0.03305097 -0.03300859 -0.03296345
 -0.03291399 -0.03286153 -0.03280617 -0.03275014 -0.03269443 -0.03264081 -0.03259036 -0.03254231 -0.03249709 -0.0324512
 -0.03240438 -0.03235308 -0.03229694 -0.03223542 -0.03216859 -0.03209932 -0.03202774 -0.03195623 -0.03188463 -0.03181348
 -0.03174269 -0.03167215 -0.03160214 -0.03153334 -0.03146549 -0.03139876 -0.03133225 -0.03126513 -0.03119676 -0.0311264
 -0.03105389 -0.03097884 -0.03090166 -0.03082227 -0.03074156 -0.03065964 -0.03057761 -0.03049568 -0.03041402 -0.03033269
 -0.03025038 -0.030167 -0.0300802 -0.02998994 -0.02989471 -0.02979497 -0.02969199 -0.02958645 -0.02948128 -0.02937653
 -0.02927387 -0.02917282 -0.0290733 -0.02897504 -0.02887779 -0.02878118 -0.02868519 -0.02858855 -0.028491 -0.02839038
 -0.02828609 -0.028176 -0.0280596 -0.02793508 -0.02780196 -0.02766057 -0.02751077 -0.02735581 -0.02719584 -0.02703327
 -0.02686792 -0.02669846 -0.0265248 -0.02634545 -0.02616115 -0.02597386 -0.02578339 -0.02559131 -0.0253945 -0.02518926
 -0.02497252 -0.02473864 -0.02448951 -0.02422397 -0.02394682 -0.02366078 -0.0233664 -0.02306502 -0.02275349 -0.02243133
 -0.02209631 -0.02174832 -0.02138416 -0.02100398 -0.0205975 -0.02016408 -0.01968687 -0.01916572 -0.01859191 -0.01796771
 -0.01730216 -0.0165939 -0.01584773 -0.01505105 -0.01418198 -0.01322266 -0.0121356 -0.01091371 -0.009530729 -0.008001786
 -0.006320965 -0.004532252 -0.002639002 -0.0007377932 0.001160309 0.00288612 0.004408238 0.005561553 0.006308028 0.006632429
 0.006521974 0.006125711 0.00545161 0.004684156 0.003828908 0.003007448 0.002217479 0.001510395 0.0008825825 0.000349601
 -9.066987E-05 -0.00043338 -0.0006845441 -0.0008490439 -0.0009379548 -0.0009648763 -0.0009372086 -0.0008651098 -0.0007500456 -0.0005947569
 -0.0004008893 -0.0001684563 9.663887E-05 0.0003938689 0.0007144638 0.001057726 0.001412417 0.001777848 0.002140204 0.002498716
 0.00284099 0.003166484 0.003465281 0.003736996 0.003973716 0.004176415 0.00434326 0.004477441 0.004584842 0.004668964
 0.004738011 0.004793499 0.004840408 0.004878212 0.004907681 0.004929258 0.004942833 0.004950743 0.004953935 0.004953341
 0.004949954 0.004940633 0.004925513 0.004898338 0.004858783 0.00479886 0.004718115 0.004607398 0.004466685 0.004292124
 0.00408574 0.003856784 0.003608014 0.003354356 0.003096082 0.002840953 0.002588654 0.002340877 0.002100515 0.001870361
 0.001655841 0.001462323 0.001292079 0.001148839 0.001028815 0.0009323384 0.000852099 0.0007867353 0.0007293436 0.0006787106
 0.0006302368 0.0005834259 0.0005349088 0.0004844801 0.0004263389 0.0003600156 0.0002776702 0.0001793276 6.052777E-05 -7.717623E-05
 -0.0002311549 -0.0003988194 -0.0005734655 -0.0007516351 -0.0009256765 -0.001090799 -0.001239535 -0.001366225 -0.001464514 -0.001529732
 -0.001557789 -0.001546128 -0.001492332 -0.001398019 -0.001261991 -0.001092371 -0.0008892746 -0.0006664464 -0.0004248681 -0.0001791271
 6.990921E-05 0.0003096055 0.0005393185 0.0007480604 0.000934931 0.001089192 0.001209469 0.001284702 0.001314746 0.001292155
 0.001221411 0.001105023 0.0009515107 0.0007707054 0.0005717258 0.0003637146 0.0001564407 -4.300395E-05 -0.0002266312 -0.0003887589
 -0.0005303436 -0.0006491731 -0.0007552382 -0.0008495547 -0.0009420888 -0.001034378 -0.001127267 -0.001220957 -0.001307913 -0.001387755
 -0.00145387 -0.001505971 -0.001539671 -0.001553557 -0.001540379 -0.001498 -0.001416896 -0.001297332 -0.001132788 -0.0009318094
 -0.0006948262 -0.0004510742 -0.0002136313 -4.031153E-05 3.612897E-05 -3.40635E-05 -0.0002865903 -0.0007072642 -0.001307132 -0.002023682
 -0.002851122 -0.003721478 -0.004628322 -0.00551052 -0.006363963 -0.007148419 -0.007863666 -0.008503376 -0.009070035 -0.009576966
 -0.01002542 -0.0104266 -0.01078138 -0.01109593 -0.01137467 -0.01162652 -0.01185907 -0.01208477 -0.01230923 -0.01254225
 -0.01278302 -0.01303467 -0.0132916 -0.01355225 -0.01381275 -0.01407159 -0.01432798 -0.01458262 -0.01482791 -0.01506384
 -0.01527527 -0.01546115 -0.01561625 -0.01574102 -0.01584418 -0.01592624 -0.01599527 -0.01605009 -0.01609051 -0.01611459
 -0.01611751 -0.01609721 -0.01604785 -0.01596807 -0.0158525 -0.01570491 -0.01552351 -0.0153225 -0.01510732 -0.01489684
 -0.01470016 -0.01452774 -0.01438574 -0.01427085 -0.01418505 -0.01411293 -0.01405399 -0.01398541 -0.01390578 -0.01379362
 -0.0136486 -0.01346472 -0.013245 -0.01300769 -0.01275735 -0.01252318 -0.01230581 -0.01212246 -0.01196993 -0.01185074
 -0.01176048 -0.01169562 -0.01164976 -0.01161723 -0.01159022 -0.01156233 -0.01152959 -0.01148724 -0.01144083 -0.01138999
 -0.01134505 -0.01130838 -0.01128349 -0.01127161 -0.01126801 -0.01127253 -0.01127832 -0.01128507 -0.01128737 -0.01128509
 -0.01127482 -0.01125673 -0.01122969 -0.01119397 -0.01114966 -0.0110969 -0.01103586 -0.010967 -0.01089096 -0.01080818
 -0.01071984 -0.01062423 -0.01052173 -0.01040696 -0.0102783 -0.01012955 -0.009958147 -0.009762738 -0.009541719 -0.009301362
 -0.009041736 -0.008772878 -0.008495444 -0.008217699 -0.007940084 -0.007669799 -0.007407709 -0.007163798 -0.006939095 -0.00674395
 -0.006577678 -0.006444433 -0.006341334 -0.006265086 -0.006212706 -0.006178667 -0.006161881 -0.006158979 -0.006171299 -0.006198099
 -0.006243012 -0.006306906 -0.006394573 -0.006507658 -0.006648897 -0.006819681 -0.007017558 -0.007243128 -0.007486844 -0.007748353
 -0.008012539 -0.008278478 -0.008528532 -0.008761822 -0.008963142 -0.009132477 -0.009260756 -0.009350234 -0.009400961 -0.009419068
 -0.009414736 -0.009397229 -0.009382348 -0.009378802 -0.00940012 -0.009451392 -0.009540498 -0.009666601 -0.009832655 -0.0100308
 -0.01026101 -0.01050864 -0.01077162 -0.01103443 -0.01129478 -0.01154375 -0.01178034 -0.01200408 -0.01221494 -0.01241395
 -0.01260057 -0.01277069 -0.01292326 -0.01305075 -0.01315351 -0.01322805 -0.01327679 -0.01330257 -0.01330826 -0.01329894
 -0.01327652 -0.01324409 -0.01320433 -0.01315854 -0.01311303 -0.01306949 -0.01303804 -0.01302162 -0.0130293 -0.01306397
 -0.01312746 -0.01322115 -0.01333768 -0.01347691 -0.01362607 -0.01378449 -0.01393965 -0.01409124 -0.01423127 -0.01436011
 -0.0144753 -0.0145772 -0.01466594 -0.01474083 -0.01480094 -0.0148444 -0.0148681 -0.01487088 -0.01484984 -0.01480648
 -0.01473986 -0.01465524 -0.01455371 -0.01444355 -0.01432663 -0.01421306 -0.01410452 -0.01401219 -0.01393756 -0.01388985
 -0.01387009 -0.01388097 -0.01392243 -0.01398735 -0.01407466 -0.01417141 -0.01427682 -0.01437998 -0.01448136 -0.01457669
 -0.01466673 -0.01475134 -0.0148304 -0.01490387 -0.01497102 -0.01503093 -0.01508365 -0.01512882 -0.01516684 -0.01519793
 -0.01522184 -0.01523859 -0.0152478 -0.01524904 -0.01524429 -0.01523354 -0.01522062 -0.01520593 -0.01519101 -0.01517591
 -0.01515827 -0.01513798 -0.01511272 -0.01508311 -0.01505109 -0.01501739 -0.0149858 -0.01495568 -0.01492779 -0.01490058
 -0.01487188 -0.01484112 -0.01480659 -0.01476931 -0.01472942 -0.01468811 -0.01464593 -0.01460403 -0.01456291 -0.01452342
 -0.01448624 -0.01444955 -0.0144136 -0.01437297 -0.01432726 -0.01427135 -0.01420502 -0.01412839 -0.01404182 -0.01394945
 -0.01385144 -0.01375088 -0.01364746 -0.01354171 -0.01343343 -0.01332234 -0.01320865 -0.01309247 -0.01297418 -0.01285412
 -0.01273287 -0.01261091 -0.01248877 -0.01236702 -0.01224524 -0.0121235 -0.01200091 -0.01187696 -0.0117528 -0.01162797
 -0.01150816 -0.01139359 -0.01129284 -0.01120638 -0.01114105 -0.01109696 -0.0110773 -0.01108187 -0.01111138 -0.01116533
 -0.01124295 -0.01134258 -0.01146097 -0.0115946 -0.01173721 -0.01188463 -0.01203005 -0.01217105 -0.01230343 -0.01242747
 -0.01254211 -0.01264858 -0.01274739 -0.01283807 -0.0129209 -0.01299359 -0.01305587 -0.0131058 -0.01314311 -0.01316761
 -0.01317931 -0.01317987 -0.0131695 -0.01315095 -0.01312422 -0.01309113 -0.01305075 -0.01300135 -0.01294093 -0.0128642
 -0.01276947 -0.01265108 -0.01251023 -0.01234444 -0.01216037 -0.01195964 -0.01175624 -0.01155529 -0.01137596 -0.01122538
 -0.01111902 -0.01106314 -0.01105889 -0.01110911 -0.011198 -0.01132518 -0.01146601 -0.01161914 -0.01176155 -0.01189252
 -0.0119969 -0.01207506 -0.01212081 -0.01213573 -0.01212163 -0.01208071 -0.01201883 -0.0119377 -0.01184253 -0.01173437
 -0.01161603 -0.01148894 -0.01135464 -0.0112154 -0.01107245 -0.01092849 -0.0107846 -0.01064308 -0.01050476 -0.01037056
 -0.01024102 -0.01011437 -0.009990679 -0.009865945 -0.009739952 -0.009608199 -0.009470553 -0.009324309 -0.009169511 -0.009005054
 -0.008830991 -0.008646955 -0.008452869 -0.008248507 -0.008033427 -0.007806866 -0.007568313 -0.007316836 -0.007052318 -0.006774326
 -0.006483047 -0.006178662 -0.005860619 -0.005529022 -0.005182219 -0.004819803 -0.00444068 -0.004044382 -0.003632004 -0.003203393
 -0.002762261 -0.002308789 -0.001849304 -0.001384408 -0.0009234208 -0.0004675939 -2.899297E-05 0.0003906918 0.0007789997 0.001134576
 0.001447911 0.001718526 0.001941267 0.002116596 0.002242472 0.002321436 0.002353235 0.002345431 0.002299918 0.00223038
 0.002141356 0.002046534 0.00195073 0.00185941 0.001774919 0.001693733 0.001615653 0.001538225 0.0014612 0.001391189
 0.001328874 0.001286137 0.001263164 0.001267574 0.001297889 0.001352818 0.001430335 0.001524533 0.001634727 0.001756568
 0.001891509 0.002039381 0.002202249 0.002382415 0.002579122 0.002794317 0.003020538 0.003257608 0.003490085 0.003715387
 0.003914951 0.004085361 0.004213624 0.004297557 0.004334967 0.004325494 0.004274665 0.004182917 0.004057578 0.003899466
 0.00371671 0.003511539 0.003295951 0.003073883 0.002860821 0.002660807 0.002487905 0.002344293 0.002238933 0.002169959
 0.002140637 0.002142467 0.002174039 0.002219275 0.002273207 0.002317692 0.002347086 0.002349452 0.002321289 0.002260159
 0.002165095 0.002039366 0.001883073 0.001701285 0.001494382 0.001268788 0.001025321 0.0007725816 0.0005116325 0.0002513496
 -7.755367E-06 -0.0002596522 -0.0005048384 -0.0007414286 -0.000970168 -0.001191513 -0.001405245 -0.001611406 -0.001809511 -0.001998706
 -0.002180808 -0.002355429 -0.002527992 -0.002699511 -0.002875931 -0.003058737 -0.003249876 -0.003450034 -0.003656494 -0.003869148
 -0.004084537 -0.004302624 -0.004522979 -0.004745959 -0.004974026 -0.005207384 -0.005448395 -0.005696527 -0.005951812 -0.006213047
 -0.006478124 -0.006745948 -0.007014371 -0.007282484 -0.007549167 -0.007812613 -0.00807221 -0.008323927 -0.008566556 -0.008794802
 -0.009006646 -0.009200287 -0.009374359 -0.009533255 -0.009677012 -0.009812788 -0.009941124 -0.01006526 -0.01018517 -0.0102988
 -0.01040606 -0.01050491 -0.01059611 -0.01068182 -0.01076282 -0.01084276 -0.01092083 -0.01099758 -0.01107108 -0.01113891
 -0.01120013 -0.01125262 -0.01129737 -0.01133435 -0.01136466 -0.01138873 -0.01140739 -0.01142056 -0.01143083 -0.01143816
 -0.01144811 -0.01146123 -0.01148278 -0.01151335 -0.01155188 -0.01159806 -0.01164373 -0.0116883 -0.01172303 -0.0117484
 -0.0117616 -0.01176417 -0.01175895 -0.01174729 -0.0117333 -0.01171711 -0.01170093 -0.01168349 -0.01166452 -0.01164232
 -0.01161532 -0.01158381 -0.01154654 -0.01150819 -0.01146931 -0.01143644 -0.01141141 -0.01139552 -0.01138988 -0.01138723
 -0.01138733 -0.01137899 -0.01136186 -0.01133154 -0.01128908 -0.01124135 -0.01118992 -0.01114624 -0.01110968 -0.01108525
 -0.01106936 -0.01105758 -0.01104628 -0.01102808 -0.01100262 -0.01096619 -0.01092171 -0.01086948 -0.01081386 -0.0107568
 -0.01070136 -0.01064935 -0.01059999 -0.01055409 -0.01050629 -0.01045623 -0.01039757 -0.01032973 -0.01025011 -0.01015868
 -0.01005657 -0.009944098 -0.009823967 -0.009697014 -0.009567964 -0.009438664 -0.009316813 -0.009204181 -0.009108509 -0.00902916
 -0.008969261 -0.008925372 -0.008895537 -0.008876167 -0.008863959 -0.008858006 -0.008856944 -0.008861417 -0.008872023 -0.008886187
 -0.008904265 -0.008919179 -0.008930143 -0.008931168 -0.008921551 -0.008901593 -0.008871371 -0.008834453 -0.008790815 -0.008741383
 -0.008686217 -0.00862552 -0.00856056 -0.008495086 -0.008430677 -0.008373138 -0.008321308 -0.00827689 -0.008235793 -0.008194602
 -0.008150171 -0.00809836 -0.008040995 -0.007976965 -0.007912112 -0.007848152 -0.007788849 -0.00773598 -0.007687226 -0.007642932
 -0.00759686 -0.007548539 -0.007493492 -0.007431515 -0.007360658 -0.007280873 -0.007190655 -0.007090318 -0.006979972 -0.00686121
 -0.006738686 -0.006614518 -0.006495699 -0.006382619 -0.006279206 -0.006184018 -0.006097123 -0.006016812 -0.005942189 -0.005871131
 -0.00580271 -0.005734377 -0.005664825 -0.005593877 -0.005520744 -0.00544907 -0.005379337 -0.005313735 -0.005252767 -0.005192184
 -0.00513174 -0.005064781 -0.004991444 -0.004910601 -0.004823113 -0.004733032 -0.004640562 -0.004548399 -0.004456435 -0.004364779
 -0.004275755 -0.00419198 -0.004117884 -0.004059474 -0.004018179 -0.003998457 -0.003994821 -0.004006519 -0.004025869 -0.004049807
 -0.004075059 -0.004100009 -0.004125578 -0.004151852 -0.004178463 -0.004205544 -0.004229836 -0.004251162 -0.004266127 -0.004274502
 -0.004273564 -0.004261869 -0.004232397 -0.004179739 -0.004083759 -0.003937322 -0.003710878 -0.003411085 -0.003024386 -0.002590248
 -0.002135459 -0.001721774 -0.00140444 -0.001215632 -0.001199172 -0.001312974 -0.001563814 -0.001858301 -0.002178375 -0.00244706
 -0.002647584 -0.002759534 -0.002777711 -0.002725551 -0.00260422 -0.002449265 -0.002262247 -0.002071691 -0.0018781 -0.001698979
 -0.001534318 -0.001393551 -0.00127605 -0.001185992 -0.001120192 -0.001076568 -0.001049468 -0.001031726 -0.001020357 -0.001009709
 -0.001002789 -0.0009997458 -0.00100329 -0.001015848 -0.001032302 -0.001052428 -0.001068697 -0.001079189 -0.001085166 -0.001086071
 -0.001091715 -0.001102596 -0.001125533 -0.001160128 -0.001203668 -0.001254769 -0.001304382 -0.001351246 -0.001386294 -0.001409007
 -0.001413458 -0.001400451 -0.001368028 -0.001318981 -0.001255185 -0.001180303 -0.001097805 -0.001009685 -0.0009179995 -0.0008230371
 -0.0007246743 -0.0006257413 -0.0005259042 -0.0004330132 -0.0003482524 -0.0002773574 -0.000221654 -0.0001746998 -0.0001362018 -9.021742E-05
 -3.64144E-05 3.444538E-05 0.0001201899 0.0002131276 0.0003100973 0.0003947915 0.0004679275 0.000520999 0.0005613049 0.0005953923
 0.0006336885 0.0006910373 0.0007725315 0.0008898817 0.001034541 0.001208939 0.001390314 0.001573112 0.001731321 0.001856985
 0.001936864 0.001965581 0.001953091 0.001898438 0.00183034 0.001750351 0.001687337 0.001641503 0.001622275 0.001626808
 0.001642562 0.001666891 0.001682195 0.00169077 0.001688022 0.001680501 0.001677201 0.001682624 0.001707403 0.001747676
 0.001806124 0.00187087 0.001936935 0.001992767 0.002031056 0.00205336 0.002055304 0.002059439 0.002068656 0.002101554
 0.002161908 0.002238679 0.002331479 0.002422961 0.002512982 0.002597372 0.002676611 0.002752304 0.002823303 0.002885782
 0.002939052 0.00297797 0.003006249 0.003026922 0.003045954 0.003072483 0.003107659 0.003157186 0.003214738 0.00327965
 0.003341694 0.003396884 0.003438 0.003460754 0.003470333 0.003464949 0.003464955 0.003471975 0.00350549 0.003567002
 0.003652822 0.003761246 0.003863928 0.003958433 0.004013963 0.004031537 0.003997006 0.00391636 0.003795104 0.003644327
 0.003483576 0.003326529 0.003197956 0.003104283 0.003062899 0.003062514 0.003104874 0.003166581 0.003238884 0.003305669
 0.003358931 0.003401553 0.003431909 0.003461664 0.003492721 0.003523348 0.003553767 0.003567463 0.003564383 0.003541416
 0.003502159 0.003470927 0.003449606 0.00346144 0.003499609 0.003558911 0.003630839 0.003695256 0.003754323 0.00380069
 0.003844246 0.003892828 0.003947827 0.004015847 0.004082879 0.004145432 0.004189991 0.004209387 0.004210652 0.004191728
 0.00417597 0.004165978 0.004176144 0.004207978 0.004250775 0.004303375 0.004342497 0.004368215 0.004368789 0.004348008
 0.004314377 0.004272715 0.004240633 0.004219403 0.004220689 0.004240447 0.004279226 0.004330114 0.004387205 0.004445878
 0.004501026 0.004553024 0.004601098 0.004645411 0.004687 0.004720027 0.004744098 0.004750971 0.004739056 0.00470944
 0.004661778 0.004610162 0.004555305 0.004511412 0.004477361 0.004452005 0.004432356 0.004404334 0.004367973 0.004314242
 0.004249253 0.004179797 0.004112045 0.004058842 0.004017374 0.003991756 0.003971131 0.003949588 0.003920745 0.003878187
 0.003828881 0.003772313 0.003721342 0.003679047 0.003649156 0.003633378 0.003623043 0.003617796 0.003606367 0.00358842
 0.003559278 0.003519387 0.003469976 0.003411657 0.003347279 0.003277915 0.003207621 0.003137982 0.003074109 0.003016335
 0.002967713 0.00292643 0.002891581 0.002862593 0.002838155 0.002820617 0.002811269 0.002809502 0.002817014 0.002824713
 0.002831932 0.002826247 0.002805534 0.002767032 0.002710011 0.002646159 0.002575651</values></Ydata></AB><ScSm><Ydata ylabel="Single channel"><values byteorder="INTEL" format="FLOAT32" numvalues="1814"> 0.08210003 0.08219649 0.08231104 0.08245333 0.08261468 0.08277532 0.08291817 0.08303949 0.08314627 0.08324434
 0.08333638 0.0834329 0.0835517 0.08369937 0.08386029 0.0840074 0.08412202 0.08421005 0.08430282 0.08442827
 0.08457209 0.08467732 0.08469608 0.08464155 0.08458176 0.08457839 0.0846446 0.08477904 0.0850074 0.08532093
 0.08558731 0.08563666 0.08547603 0.08531891 0.08534756 0.08553022 0.08571139 0.08578309 0.08572464 0.0855896
 0.08553223 0.08575906 0.08634026 0.08705664 0.08746886 0.08717227 0.08606654 0.08449975 0.08318378 0.08282162
 0.08359975 0.08497907 0.08610019 0.08647712 0.08625761 0.08585049 0.08549969 0.08528512 0.0853145 0.08570021
 0.08637837 0.08703937 0.08725078 0.08674124 0.08570646 0.08477278 0.08448589 0.08488913 0.08571634 0.08671448
 0.08739643 0.08680212 0.08435226 0.0811296 0.07953301 0.08105832 0.08473332 0.08812985 0.08957419 0.08902837
 0.087382 0.08567041 0.08480388 0.08525667 0.08675602 0.08855185 0.09001231 0.09079156 0.09067085 0.08966132
 0.08821176 0.08701846 0.08663838 0.08732904 0.08894323 0.09076893 0.09181352 0.09158605 0.09046557 0.08921036
 0.08839971 0.0884043 0.08941431 0.09121335 0.09320119 0.09483682 0.09591689 0.09645595 0.09655705 0.0963919
 0.09611429 0.09583621 0.09574429 0.09600596 0.09644138 0.09655961 0.09610594 0.09540825 0.09504572 0.09525093
 0.09570841 0.09593388 0.09575503 0.09522353 0.09412248 0.09207121 0.08931222 0.08683475 0.08540705 0.08503811
 0.08561119 0.08720812 0.08934068 0.09071885 0.09055075 0.08961065 0.08940083 0.09052745 0.09232073 0.09380865
 0.09465936 0.09523626 0.0960297 0.09710287 0.09794922 0.09786782 0.09668347 0.09519272 0.09463212 0.09548
 0.09699137 0.09811322 0.09858903 0.09891661 0.0994717 0.09996309 0.09968831 0.09828591 0.09636138 0.09527128
 0.09600341 0.09819984 0.100348 0.1009248 0.09947845 0.0968704 0.09455527 0.09353627 0.09397678 0.09561846
 0.09813955 0.1009967 0.10334 0.1044447 0.1042122 0.1031496 0.1018162 0.1003014 0.09842788 0.0965701
 0.09586659 0.09715367 0.09989096 0.1025929 0.1041995 0.1046632 0.104344 0.1032892 0.1013282 0.09881789
 0.09697584 0.09697506 0.09860446 0.1003258 0.100911 0.1005906 0.1003471 0.1005765 0.1008773 0.1008728
 0.1007732 0.1010751 0.1019244 0.1029276 0.1035668 0.1036777 0.1034812 0.103273 0.1031423 0.1029244
 0.1024531 0.1019339 0.1019197 0.1027285 0.1040163 0.1051225 0.1057186 0.1059369 0.1059696 0.1057464
 0.105059 0.1039732 0.1030265 0.1028446 0.103532 0.1045938 0.105462 0.1059179 0.1060299 0.1059344
 0.105745 0.1055285 0.1053234 0.1052174 0.1053267 0.1056418 0.1059876 0.1061956 0.1062404 0.1061765
 0.106027 0.1057862 0.1054909 0.1052435 0.1051484 0.1052263 0.1054102 0.105615 0.1057771 0.1058402
 0.1057716 0.1056045 0.1054178 0.1052635 0.105148 0.1050776 0.105075 0.1051413 0.1052318 0.1052885
 0.1052866 0.1052385 0.1051625 0.1050657 0.1049567 0.1048563 0.1047913 0.1047787 0.1048099 0.1048526
 0.1048869 0.10493 0.1049969 0.1050508 0.1050344 0.1049442 0.1048385 0.1047743 0.1047624 0.1047803
 0.1047989 0.1047907 0.1047296 0.1046087 0.104468 0.1043853 0.1044156 0.10455 0.104741 0.1049447
 0.1051225 0.1052419 0.1053027 0.1053393 0.1053781 0.1054131 0.10543 0.1054384 0.1054726 0.1055658
 0.105718 0.1058898 0.1060358 0.106138 0.1062034 0.1062543 0.1063252 0.1064361 0.1065561 0.1066279
 0.1066417 0.1066522 0.1067102 0.106803 0.1068766 0.1069012 0.1068996 0.1069178 0.1069761 0.1070572
 0.107135 0.1072055 0.1072854 0.1073849 0.1074827 0.1075328 0.1075086 0.1074368 0.1073741 0.1073508
 0.1073568 0.1073778 0.1074175 0.1074773 0.107535 0.1075598 0.1075447 0.1075145 0.1074979 0.107495
 0.1074794 0.1074312 0.1073583 0.1072847 0.1072289 0.1071922 0.107162 0.107122 0.1070641 0.1069919
 0.1069143 0.1068362 0.1067549 0.106669 0.1065944 0.1065606 0.106575 0.1065924 0.1065418 0.1063949
 0.1061952 0.1060154 0.1058932 0.1058104 0.1057242 0.105609 0.1054714 0.1053346 0.1052138 0.1051081
 0.1050095 0.1049156 0.104835 0.1047856 0.1047771 0.1047903 0.1047815 0.1047205 0.1046228 0.1045311
 0.1044726 0.1044436 0.1044292 0.1044212 0.1044207 0.1044351 0.1044705 0.1045179 0.1045558 0.1045743
 0.1045885 0.1046235 0.1046938 0.1048001 0.1049286 0.10505 0.1051383 0.1051977 0.1052616 0.1053579
 0.1054858 0.1056296 0.1057814 0.1059439 0.106119 0.1063052 0.1065049 0.1067241 0.1069659 0.1072249
 0.1074885 0.1077451 0.107993 0.1082435 0.1085142 0.1088138 0.1091337 0.1094543 0.109761 0.110055
 0.1103483 0.1106496 0.110957 0.111266 0.1115799 0.111907 0.1122475 0.1125914 0.1129293 0.113261
 0.1135924 0.1139291 0.1142718 0.1146204 0.1149808 0.1153635 0.1157653 0.1161593 0.116514 0.1168257
 0.1171239 0.1174452 0.1178051 0.1181885 0.1185613 0.1188967 0.1192017 0.1195128 0.1198568 0.1202217
 0.1205784 0.1209245 0.1212906 0.1216988 0.1221274 0.1225248 0.1228585 0.1231447 0.1234276 0.1237308
 0.1240385 0.124323 0.1245821 0.1248386 0.1251102 0.1253951 0.1256894 0.1260009 0.1263328 0.1266666
 0.1269764 0.1272555 0.1275167 0.127769 0.1280053 0.128211 0.1283785 0.1285177 0.1286555 0.1288164
 0.1290005 0.1291884 0.1293702 0.1295585 0.129769 0.1300035 0.1302594 0.1305437 0.1308612 0.1311975
 0.1315322 0.1318674 0.1322247 0.1326043 0.1329656 0.1332665 0.1335102 0.1337349 0.1339692 0.1342191
 0.1344914 0.1348003 0.1351482 0.135515 0.1358715 0.1362004 0.1365086 0.1368234 0.1371677 0.1375276
 0.1378586 0.1381305 0.1383587 0.1385859 0.138844 0.1391354 0.1394414 0.1397385 0.1400104 0.1402481
 0.1404381 0.1405618 0.1406146 0.1406169 0.1405886 0.1405179 0.1403653 0.1400986 0.1397101 0.1391998
 0.1385584 0.1377782 0.1368819 0.1359386 0.1350525 0.1343332 0.1338656 0.1336951 0.1338267 0.1342241
 0.1348081 0.1354676 0.1360833 0.1365484 0.1367766 0.1367115 0.1363441 0.1357177 0.134907 0.1339887
 0.1330272 0.1320707 0.131153 0.1303104 0.1296168 0.1291966 0.1291941 0.1297253 0.1308434 0.1325139
 0.134592 0.1368381 0.1389984 0.1409049 0.1425161 0.1438783 0.1450608 0.1461219 0.1471047 0.1480354
 0.1489212 0.149757 0.1505384 0.1512657 0.1519362 0.1525395 0.1530578 0.1534709 0.1537639 0.1539398
 0.1540224 0.1540458 0.1540439 0.1540453 0.1540616 0.1540689 0.1540073 0.1538077 0.1534276 0.1528736
 0.1522119 0.1515769 0.1511725 0.1512414 0.1519789 0.1534176 0.155377 0.1575396 0.1596022 0.161379
 0.1628096 0.1639179 0.1647752 0.1654674 0.1660657 0.1666121 0.1671248 0.1676112 0.168075 0.1685205
 0.1689523 0.1693747 0.1697899 0.1701993 0.1706027 0.1709994 0.1713905 0.1717803 0.1721753 0.1725796
 0.1729902 0.1733966 0.1737921 0.1741821 0.174577 0.1749758 0.1753643 0.1757326 0.1760872 0.1764445
 0.1768172 0.1772069 0.177603 0.1779879 0.1783482 0.178685 0.1790105 0.1793353 0.1796618 0.1799893
 0.1803191 0.1806514 0.1809828 0.1813108 0.1816379 0.1819669 0.1822937 0.1826079 0.1829039 0.1831874
 0.1834713 0.1837642 0.1840635 0.1843607 0.1846528 0.1849477 0.1852553 0.1855756 0.1858965 0.1862063
 0.1865022 0.1867893 0.187073 0.1873568 0.1876432 0.1879336 0.1882266 0.1885197 0.1888119 0.1891039
 0.1893955 0.1896847 0.1899709 0.1902559 0.1905417 0.1908266 0.1911064 0.1913799 0.1916511 0.1919266
 0.1922086 0.1924931 0.1927726 0.1930434 0.193307 0.1935662 0.1938221 0.1940763 0.1943323 0.1945927
 0.1948576 0.1951263 0.1953981 0.1956714 0.1959445 0.1962177 0.1964922 0.1967669 0.1970402 0.1973123
 0.1975844 0.197857 0.1981294 0.1984005 0.1986704 0.1989408 0.1992122 0.1994833 0.1997527 0.2000199
 0.2002843 0.200546 0.2008067 0.2010681 0.2013291 0.201589 0.2018492 0.2021117 0.202376 0.2026406
 0.2029041 0.2031653 0.2034248 0.203685 0.2039466 0.2042081 0.2044699 0.2047345 0.2050019 0.2052686
 0.2055306 0.2057872 0.2060419 0.2063003 0.2065648 0.2068316 0.2070962 0.2073582 0.2076192 0.2078793
 0.2081372 0.2083924 0.208647 0.208905 0.2091687 0.2094345 0.2096975 0.2099586 0.2102211 0.210485
 0.2107489 0.2110136 0.211279 0.2115439 0.2118103 0.2120818 0.2123589 0.2126395 0.2129228 0.2132074
 0.2134909 0.2137713 0.2140467 0.2143154 0.2145798 0.214844 0.2151066 0.2153615 0.2156066 0.2158459
 0.2160845 0.2163263 0.216574 0.2168266 0.217083 0.2173446 0.2176118 0.21788 0.2181461 0.2184129
 0.2186827 0.2189553 0.2192305 0.2195067 0.2197813 0.2200556 0.2203337 0.2206155 0.2208986 0.2211829
 0.2214671 0.2217467 0.2220213 0.2222964 0.2225754 0.2228599 0.2231521 0.2234493 0.2237433 0.2240315
 0.2243167 0.2245981 0.2248752 0.2251559 0.2254462 0.2257413 0.2260351 0.2263272 0.2266168 0.2269026
 0.2271886 0.2274775 0.227767 0.228058 0.2283541 0.2286526 0.2289504 0.2292501 0.2295508 0.229845
 0.2301332 0.2304221 0.2307096 0.2309902 0.231268 0.2315482 0.2318285 0.2321084 0.2323857 0.2326456
 0.2328656 0.2330016 0.2329197 0.2323197 0.2306944 0.2273448 0.2215171 0.2126972 0.2009127 0.1868253
 0.1715543 0.1563313 0.1421629 0.1296853 0.1192359 0.1109881 0.1050481 0.1015373 0.1006535 0.1027601
 0.1085121 0.1184645 0.1316318 0.144252 0.1512019 0.1498773 0.1425517 0.1343145 0.1289338 0.1270172
 0.1272969 0.1285193 0.1301854 0.132408 0.1354809 0.1394387 0.1440173 0.1490859 0.1548928 0.1616845
 0.1692235 0.1768766 0.1841418 0.1909675 0.1975695 0.2040447 0.2102224 0.21583 0.2207043 0.2248442
 0.228354 0.2313812 0.2340623 0.2364909 0.2387279 0.2408058 0.2426897 0.2442593 0.2453786 0.2460031
 0.246233 0.2462669 0.2462904 0.2463948 0.2465894 0.2468635 0.2472122 0.2476289 0.2481056 0.2486349
 0.2492008 0.2497808 0.2503579 0.2509206 0.2514585 0.2519698 0.252461 0.2529328 0.2533794 0.253801
 0.2542035 0.2545899 0.2549641 0.2553344 0.2557041 0.2560702 0.2564314 0.2567861 0.2571259 0.2574416
 0.2577317 0.2580008 0.2582572 0.2585129 0.2587762 0.2590449 0.2593118 0.2595736 0.2598293 0.2600793
 0.2603261 0.2605705 0.2608107 0.2610476 0.2612839 0.2615185 0.2617499 0.2619826 0.2622216 0.2624637
 0.2627035 0.262939 0.2631701 0.2633969 0.2636219 0.2638487 0.2640812 0.2643254 0.2645839 0.2648496
 0.2651134 0.2653765 0.265646 0.2659216 0.2661981 0.2664729 0.266747 0.2670211 0.2672964 0.2675712
 0.2678368 0.2680836 0.2683094 0.2685219 0.2687347 0.2689596 0.2691977 0.2694401 0.2696801 0.2699191
 0.2701601 0.2704021 0.2706419 0.2708763 0.271105 0.2713383 0.2715921 0.2718706 0.2721614 0.2724514
 0.2727395 0.2730295 0.2733229 0.2736188 0.2739131 0.2741982 0.2744702 0.2747369 0.2750163 0.2753251
 0.2756652 0.2760184 0.2763606 0.2766807 0.2769842 0.2772847 0.2775964 0.2779213 0.2782336 0.2785001
 0.2787293 0.2789814 0.2793102 0.2797084 0.2801228 0.2805088 0.2808587 0.2811878 0.2815101 0.2818247
 0.2821188 0.2823797 0.2826157 0.2828667 0.2831796 0.2835587 0.2839564 0.2843234 0.2846515 0.2849577
 0.2852537 0.2855431 0.2858144 0.2860267 0.2861489 0.2862359 0.2864211 0.2867928 0.2872975 0.2877963
 0.2882029 0.288536 0.2888486 0.2891581 0.2894549 0.2897118 0.2898497 0.2897799 0.2895664 0.2894801
 0.2897773 0.2904392 0.2912071 0.2918452 0.2922977 0.2926297 0.2929154 0.2931885 0.293425 0.2935495
 0.293514 0.2934113 0.2934615 0.2938127 0.2943738 0.2949138 0.2953035 0.295589 0.2958613 0.2961537
 0.2964253 0.2965412 0.2963306 0.2958214 0.2953967 0.295544 0.2963809 0.2975203 0.2984594 0.299026
 0.2993723 0.2996212 0.299685 0.2994261 0.2988259 0.2979892 0.2971923 0.2969251 0.2975706 0.2989115
 0.3002197 0.3009854 0.3013578 0.3017758 0.302401 0.3030454 0.3034747 0.3036209 0.3035474 0.3033105
 0.3029261 0.302521 0.3024274 0.3029488 0.3040061 0.305154 0.3059996 0.3065127 0.306847 0.3068871
 0.3061319 0.3042892 0.302056 0.300943 0.3019349 0.3044519 0.3069729 0.3085379 0.3092781 0.3097056
 0.3100489 0.3101848 0.3096328 0.307719 0.3044906 0.3015074 0.3008939 0.3032475 0.3069695 0.3098131
 0.3105988 0.3094571 0.3072567 0.3052006 0.3044001 0.305275 0.3073764 0.309842 0.3119137 0.3131476
 0.3134468 0.3130178 0.312286 0.3117806 0.3118009 0.3119687 0.3114659 0.3100934 0.3086482 0.3076949
 0.3065333 0.3043496 0.3020391 0.3016501 0.3038492 0.3069547 0.3088854 0.3092886 0.3091618 0.3088436
 0.3071983 0.3031169 0.2975761 0.2936063 0.2936952 0.2973036 0.3014004 0.3034418 0.303381 0.3027958
 0.3026703 0.3023537 0.3005273 0.2970685 0.293773 0.2927478 0.29405 0.2956002 0.295482 0.2932914
 0.2891397 0.2831604 0.2770673 0.2744799 0.2777261 0.2849337 0.2916799 0.2948062 0.2934061 0.2875044
 0.2783653 0.2698418 0.2666364 0.26995 0.2760471 0.2798284 0.2788203 0.2733322 0.2644472 0.253573
 0.2434449 0.2377663 0.2389341 0.2461808 0.2557208 0.2624032 0.2623124 0.2557648 0.2480587 0.2454073
 0.2490541 0.25444 0.2566009 0.2548724 0.2518535 0.2498888 0.2497848 0.2512584 0.2532831 0.2549108
 0.2560123 0.2558959 0.2519335 0.2424712 0.2311598 0.2250089 0.2271472 0.2343041 0.2421407 0.2496146
 0.2565368 0.2604365 0.2592044 0.2552897 0.2541316 0.2583482 0.265233 0.2701887 0.2713754 0.2704501
 0.2695294 0.2686546 0.2668561 0.2648998 0.2653129 0.269252 0.2747112 0.2787161 0.2803215 0.2805993
 0.2806203 0.2805492 0.2802069 0.2795267 0.2785228 0.2773137 0.2761082 0.2749679 0.2737681 0.2724774
 0.2710772 0.2689419 0.2648885 0.258753 0.2527339 0.2498794 0.2508864 0.2536587 0.2562888 0.258421
 0.2587708 0.2541117 0.2434809 0.2319357 0.2270735 0.2316959 0.241578 0.2501994 0.2538835 0.2522598
 0.2460864 0.2369185 0.2286595 0.2268786 0.2345746 0.2491097 0.2645983 0.2768559 0.2849896 0.2891983
 0.2892606 0.2856925 0.2810289 0.2788199 0.2812192 0.2875885 0.2949985 0.2995824 0.2982212 0.2911242
 0.2835542 0.282633 0.2902558 0.3005581 0.3063874 0.3067963 0.3059779 0.30661 0.3075563 0.3075675
 0.307886 0.3101835 0.3138753 0.3166286 0.3164726 0.3126289 0.3055156 0.2973471 0.2918028 0.2911173
 0.2936334 0.2957379 0.2955976 0.2931996 0.2880659 0.2802594 0.2732671 0.2721308 0.2777136 0.2853993
 0.2903586 0.2920491 0.2927291 0.2933766 0.2925288 0.2887256 0.2831002 0.2788888 0.2782577 0.2802565
 0.2823708 0.2832362 0.2828603 0.2810663 0.2774959 0.2732673 0.2711151 0.2729758 0.2779297 0.2831025
 0.286306 0.287375 0.2873349 0.2870765 0.2868801 0.2865846 0.2860218 0.285614 0.2863923 0.2888798
 0.2921233 0.2945349 0.2956965 0.2966971 0.2986166 0.30124 0.3034506 0.3045075 0.3047197 0.3050624
 0.3062857 0.3082823 0.3101689 0.3110464 0.3108648 0.3105711 0.3112558 0.3131135 0.3153675 0.3171618
 0.3182812 0.3190335 0.3197635 0.3205793 0.3213041 0.3216311 0.3215377 0.3215523 0.3223541 0.3240447
 0.3260044 0.3275051 0.3282971 0.3285671 0.3285323 0.3282299 0.3276412 0.3268784 0.3261834 0.3257645
 0.3256614 0.325768 0.3259455 0.3261052 0.3262256 0.3263389 0.3264962 0.3267187 0.326985 0.3272656
 0.3275437 0.3277921 0.3279707 0.3280736 0.3281434 0.3282092 0.3282324 0.3281341 0.3278522 0.3273489
 0.3265851 0.3255203 0.3241266 0.3223788 0.3202507 0.3178089 0.3153793 0.3135857 0.3130912 0.3141747
 0.3165078 0.3193391 0.3219198 0.3238253 0.3249985 0.3255946 0.3258086 0.3257873 0.3256157 0.3253313
 0.3249515 0.3245017 0.3240219 0.3235533 0.3231291 0.322778 0.3225238 0.322369 0.3222822 0.3222051
 0.3220771 0.3218598 0.3215436 0.3211348 0.3206391 0.3200488 0.3193398 0.3184867 0.3174934 0.316409
 0.3153054 0.3142318 0.3131851 0.3121182 0.3109822 0.3097595 0.308451 0.3070496 0.3055766 0.3041533
 0.3029713 0.3021312 0.3015237 0.3009096 0.3001016 0.299052 0.2978026 0.2964116 0.2949296 0.2933967
 0.2918343 0.2902399 0.2885921 0.2868623 0.2850291 0.2830894 0.2810541 0.2789402 0.2767675 0.2745522
 0.2722794 0.2698709 0.267186 0.2640618 0.2603602 0.2559956 0.2509485 0.2452837 0.2391613 0.2328156
 0.2264993 0.220434 0.214797 0.2097369 0.205382 0.2018326 0.1991505 0.1973612 0.1964663 0.1964518
 0.1972893 0.1989305 0.201298 0.2042742 0.2076955 0.2113619 0.2150587 0.2185899 0.2218222 0.2247235
 0.2273489 0.2297685 0.232002 0.2340254 0.2358263 0.2374295 0.2388703 0.2401633 0.2413061 0.2423069
 0.2431932 0.2439927 0.2447087 0.2453157 0.2457772 0.246077 0.2462424 0.2463426 0.2464593 0.2466529
 0.2469473 0.2473398 0.2478194 0.2483826 0.2490337 0.2497731 0.2505892 0.2514624 0.2523742 0.2533115
 0.2542727 0.2552766 0.2563637 0.2575828 0.2589718 0.2605454 0.2622933 0.2641799 0.2661403 0.2680805
 0.2698911 0.2714749 0.2727726 0.2737697 0.2744796 0.2749194 0.2751026 0.2750528 0.2748113 0.2744215
 0.2739137 0.2733083 0.2726252 0.271881 0.2710794 0.2702124 0.2692769 0.2682922 0.267296 0.2663168
 0.2653585 0.2644171 0.2634995 0.2626182 0.2617742 0.2609575 0.2601596 0.2593799 0.2586259 0.2579048
 0.2572113 0.2565197 0.2557888 0.2549732 0.2540357 0.2529554 0.2517241 0.2503358 0.2487882 0.2470949
 0.2452832 0.2433769 0.2413859 0.2393092 0.2371447 0.2348937 0.2325535 0.2301148 0.2275879 0.2250338
 0.2225496 0.2202117 0.2180438 0.2160319 0.2141504 0.2123777 0.2107031 0.2091239 0.2076338 0.2062251
 0.2048944 0.203637 0.2024422 0.2013044 0.2002303 0.1992344 0.1983347 0.1975462 0.1968671 0.1962806
 0.1957727 0.19534 0.1949867 0.1947341 0.1946148 0.1946295 0.1947161 0.1947808 0.1947594 0.1946495
 0.1945005 0.1943699 0.1942788 0.1942124 0.1941477 0.1940498 0.1938467 0.1934406 0.192741 0.1916737
 0.1901924 0.1883117 0.1861241 0.1837766 0.1814391 0.1792728 0.1773947 0.1758636 0.1746869 0.1738181
 0.1731676 0.1726581 0.1722815 0.1720943 0.1721653 0.1724964 0.1729576 0.1733385 0.1735318 0.1736508
 0.1739243 0.1744885 0.1752864 0.1761289 0.1768479 0.1774277 0.1779821 0.1785952 0.1792212 0.1797411
 0.1800624 0.1801509 0.1800237 0.1797259 0.1793024 0.1787928 0.1782393 0.1776596 0.1770271 0.1763089
 0.1754995 0.1746009 0.1736105 0.1725265 0.1713262 0.1699745 0.1685236 0.1671847 0.1662495 0.1659363
 0.1662793 0.167111 0.1681751 0.1692971 0.1704061 0.1714086 0.1721908 0.1728131 0.1735951 0.1749019
 0.1768335 0.1791212 0.1813149 0.1830717 0.1842636 0.1848758 0.1849227 0.1844532 0.1835106 0.1820942
 0.1802517 0.1781399 0.1759191 0.1736863 0.1715444 0.1696002 0.1679061 0.1664939 0.1653809 0.1645539
 0.164055 0.1636107 0.1616887 0.1560217 0.146831 0.1389257 0.1380785 0.1448049 0.1536437 0.1590174
 0.1599708 0.1588473 0.1576019 0.1566587 0.1559365 0.1554945 0.1553857 0.1555205 0.1556978 0.1556964
 0.1554089 0.1548313 0.1538265 0.1519067 0.1482288 0.1418893 0.1325909 0.1212691 0.1099041 0.1004754
 0.09398173 0.09022542 0.08823965 0.08696528 0.0858593 0.08508012 0.0851291 0.08633809 0.08868213 0.09193549
 0.09583586 0.1000582 0.1041539 0.1076844 0.1104531 0.1125294 0.1140437 0.1150475 0.1155625 0.1156436
 0.1153625 0.1147955 0.1140225 0.1130848 0.1119544 0.1105953 0.1090701 0.1075824 0.1063871 0.1056217
 0.1052225 0.105028 0.1049333 0.1049168 0.1049725 0.1050812 0.1052272 0.1054115 0.105656 0.1059877
 0.1063893 0.1067835 0.1070891 0.1072802 0.1073787 0.107404 0.1073314 0.1071116 0.1067586 0.1063765
 0.1060172 0.1055354 0.1047036 0.1035051 0.102249 0.1013683 0.1011149 0.1014099 0.1019353 0.1023733
 0.1026006 0.1026881 0.1027452 0.1027698</values></Ydata></ScSm><ScRf><Ydata ylabel="Single channel"><values byteorder="INTEL" format="FLOAT32" numvalues="1820"> 0.06964433 0.06977738 0.06989975 0.0700084 0.07010363 0.07019484 0.0702976 0.07042001 0.07055518 0.07068798
 0.07080768 0.07091384 0.0710106 0.07109785 0.07117516 0.07125403 0.07135457 0.0714848 0.07162953 0.07176174
 0.07186306 0.07193935 0.07201962 0.07212836 0.07225142 0.07233867 0.07235053 0.07230084 0.07224914 0.07224883
 0.07231271 0.07244064 0.07265235 0.07293569 0.07317387 0.0732204 0.07308213 0.07294375 0.07296388 0.07311764
 0.07327299 0.07333729 0.07329179 0.07318108 0.07313675 0.07333568 0.07383721 0.07445262 0.07480641 0.07455437
 0.07361174 0.07227499 0.07115173 0.07084434 0.07151461 0.07270171 0.07366694 0.07399055 0.07379998 0.07345109
 0.07315636 0.07298044 0.07300949 0.07334038 0.07392521 0.07450206 0.07469523 0.07426469 0.07337722 0.07257589
 0.07233413 0.07268829 0.07340474 0.0742631 0.07484753 0.07433844 0.07223964 0.06947798 0.06811076 0.06942394
 0.07258612 0.07551281 0.07676298 0.07629965 0.07488638 0.07341599 0.07267338 0.07306533 0.07435589 0.07590143
 0.07716085 0.0778354 0.07773251 0.07685988 0.07560789 0.07458284 0.07426664 0.07487524 0.07627276 0.07784256
 0.07873521 0.07853658 0.07757725 0.07650743 0.0758203 0.075831 0.07670315 0.07825267 0.07996462 0.08137359
 0.08230484 0.08277205 0.08286443 0.08272861 0.0824956 0.08226244 0.08219236 0.08243077 0.08282067 0.08293536
 0.08255337 0.08195732 0.08164665 0.08182254 0.08221696 0.08241785 0.0822779 0.08183615 0.08089843 0.07913361
 0.07675313 0.07461445 0.07338376 0.07307044 0.07357256 0.07495783 0.0768035 0.07799743 0.07785833 0.07705463
 0.07688124 0.07785904 0.07940894 0.08069435 0.08143361 0.08194248 0.08263984 0.08357359 0.08430648 0.08424006
 0.08322711 0.08195177 0.08147717 0.0822182 0.08353677 0.08452415 0.08495364 0.08524922 0.08573319 0.08615663
 0.08591843 0.08471203 0.08306301 0.08214141 0.08279656 0.08471583 0.08659077 0.0871049 0.08586736 0.08362361
 0.08163359 0.08076842 0.08117248 0.08262286 0.08483832 0.08734438 0.08940291 0.09038748 0.09021446 0.08932209
 0.08819185 0.08689952 0.0852939 0.08370508 0.08312456 0.08427808 0.08669405 0.08908044 0.09051594 0.09095868
 0.0907196 0.08983669 0.08815998 0.08600255 0.08443105 0.08447328 0.08594613 0.08750311 0.08806542 0.08783075
 0.08766003 0.08790492 0.08821724 0.08826606 0.08823218 0.08854769 0.08934027 0.09026787 0.09088033 0.09103201
 0.09091093 0.09077403 0.09070486 0.09056515 0.09020855 0.08981131 0.08985779 0.09063017 0.09182751 0.09286656
 0.09345588 0.09371223 0.09380631 0.09367433 0.09312661 0.09221803 0.09142801 0.09131955 0.0919912 0.09300305
 0.09384541 0.0943184 0.09447998 0.0944536 0.09434745 0.09422727 0.0941263 0.09411378 0.09428544 0.09463219
 0.09500223 0.09524933 0.09535155 0.09535587 0.09528229 0.09512772 0.09492843 0.0947772 0.09476498 0.09490755
 0.09514279 0.09539272 0.09559998 0.09571666 0.09571631 0.09562933 0.09552583 0.09545317 0.09541839 0.09542555
 0.09549192 0.09561739 0.09576354 0.09588009 0.09594509 0.09596917 0.09596773 0.09594539 0.09590872 0.09587919
 0.09588575 0.09594394 0.09603895 0.09613624 0.09622242 0.09632245 0.09645224 0.09657103 0.09661807 0.09658967
 0.09654547 0.09654403 0.09659753 0.09668237 0.09676683 0.0968221 0.09682468 0.09677108 0.09669942 0.09667979
 0.09676287 0.09694421 0.09718441 0.09744063 0.09766932 0.09783442 0.097937 0.09801373 0.09809184 0.09816521
 0.09822129 0.09827186 0.09835098 0.09848801 0.09867959 0.0988872 0.09906804 0.09920406 0.0993022 0.09938771
 0.09949796 0.09964988 0.099805 0.09990226 0.09993723 0.09997486 0.1000707 0.1002072 0.1003228 0.1003834
 0.1004114 0.1004528 0.1005304 0.1006321 0.1007348 0.1008329 0.1009403 0.1010662 0.1011897 0.1012643
 0.1012632 0.1012152 0.101178 0.1011784 0.1012015 0.1012335 0.1012859 0.1013665 0.1014516 0.1015031
 0.1015098 0.1014984 0.1015021 0.101523 0.1015325 0.1015065 0.1014515 0.1013953 0.1013598 0.1013471
 0.1013428 0.101328 0.1012905 0.1012315 0.1011606 0.1010861 0.1010091 0.1009312 0.1008698 0.1008541
 0.1008879 0.1009208 0.1008785 0.1007325 0.1005301 0.1003485 0.1002274 0.1001478 0.1000636 0.09994416
 0.09979115 0.09962867 0.09948063 0.09935538 0.09924598 0.09914218 0.09904473 0.09896944 0.09893055 0.09891409
 0.09887753 0.09878808 0.09865668 0.0985243 0.0984209 0.09834869 0.09829596 0.09825249 0.09821662 0.09819769
 0.09820515 0.09822842 0.09823973 0.0982246 0.09819897 0.09819236 0.09822597 0.09830531 0.09841464 0.09851627
 0.09857626 0.09859908 0.0986243 0.0986848 0.0987799 0.09889171 0.09901187 0.09914383 0.09928866 0.09944177
 0.09960258 0.0997787 0.09997742 0.1001963 0.1004236 0.1006474 0.1008631 0.1010785 0.1013082 0.1015629
 0.1018386 0.1021201 0.1023939 0.1026598 0.1029266 0.1031986 0.1034715 0.1037433 0.1040242 0.1043273
 0.1046518 0.1049832 0.1053095 0.1056295 0.1059472 0.1062644 0.1065819 0.1069036 0.1072402 0.1076023
 0.1079843 0.1083558 0.1086834 0.1089646 0.1092327 0.1095258 0.1098562 0.1102057 0.1105402 0.1108345
 0.1110953 0.1113575 0.1116476 0.1119569 0.1122609 0.1125607 0.1128855 0.1132514 0.1136293 0.1139641
 0.1142264 0.1144401 0.114656 0.1149004 0.1151551 0.11539 0.1156023 0.1158142 0.1160392 0.1162708
 0.1165056 0.1167563 0.1170298 0.1173071 0.1175601 0.1177819 0.117986 0.1181825 0.1183642 0.1185156
 0.1186291 0.1187172 0.1188108 0.1189368 0.1190914 0.1192462 0.1193838 0.1195169 0.1196678 0.1198447
 0.1200466 0.1202747 0.120526 0.1207829 0.1210295 0.1212772 0.1215534 0.1218582 0.1221499 0.1223887
 0.1225818 0.1227674 0.1229675 0.1231789 0.1234024 0.1236533 0.1239387 0.1242427 0.12454 0.1248181
 0.1250861 0.1253666 0.1256724 0.125984 0.1262608 0.1264801 0.1266607 0.1268448 0.1270634 0.1273203
 0.1275994 0.1278808 0.1281511 0.1284003 0.1286109 0.128763 0.1288572 0.1289209 0.1289779 0.1290161
 0.1289935 0.1288744 0.1286462 0.1283073 0.1278523 0.1272789 0.1266098 0.1259041 0.1252494 0.1247379
 0.1244418 0.1243993 0.1246115 0.1250422 0.1256206 0.1262542 0.126848 0.1273164 0.127587 0.1276089
 0.1273694 0.1268997 0.1262581 0.1255073 0.1247026 0.1238873 0.123092 0.1223524 0.1217423 0.1213827
 0.1214068 0.1219073 0.1229022 0.1243193 0.125995 0.1277129 0.1292874 0.1306346 0.1317724 0.1327588
 0.1336417 0.1344511 0.1352118 0.1359417 0.1366437 0.1373104 0.1379379 0.1385275 0.1390757 0.1395693
 0.1399899 0.1403227 0.1405629 0.1407214 0.1408198 0.1408758 0.1408986 0.1408977 0.1408827 0.1408443
 0.140743 0.1405282 0.1401723 0.1396912 0.139153 0.1386803 0.1384414 0.1386069 0.1392772 0.1404185
 0.1418672 0.1434079 0.1448623 0.1461251 0.1471518 0.1479483 0.1485652 0.1490739 0.149529 0.1499537
 0.1503529 0.1507299 0.1510894 0.1514361 0.1517738 0.152106 0.1524381 0.152775 0.1531166 0.153456
 0.1537866 0.15411 0.1544363 0.1547756 0.1551279 0.1554821 0.1558287 0.1561713 0.1565188 0.1568683
 0.1572063 0.1575256 0.1578339 0.1581439 0.158464 0.1587961 0.1591344 0.1594651 0.1597759 0.1600669
 0.1603484 0.16063 0.1609145 0.1612011 0.1614893 0.1617786 0.162067 0.1623526 0.1626349 0.1629151
 0.1631911 0.1634568 0.1637084 0.1639513 0.1641959 0.1644482 0.1647059 0.1649636 0.1652202 0.1654786
 0.1657425 0.1660116 0.1662805 0.1665421 0.1667933 0.1670366 0.167277 0.1675189 0.1677644 0.1680138
 0.1682659 0.1685177 0.1687656 0.1690086 0.1692499 0.1694949 0.1697465 0.1700028 0.1702587 0.1705108
 0.1707597 0.1710072 0.1712536 0.1714986 0.1717443 0.1719928 0.172242 0.1724872 0.1727259 0.1729586
 0.1731855 0.173409 0.1736345 0.1738676 0.1741085 0.1743534 0.1745992 0.1748452 0.1750925 0.1753402
 0.1755842 0.1758215 0.1760548 0.1762899 0.1765284 0.1767672 0.1770035 0.1772385 0.1774752 0.1777156
 0.1779575 0.1781961 0.1784298 0.1786626 0.178899 0.1791388 0.1793787 0.1796167 0.1798526 0.1800867
 0.1803195 0.1805513 0.1807832 0.1810169 0.1812522 0.1814857 0.1817157 0.1819456 0.1821794 0.1824166
 0.1826536 0.1828881 0.1831198 0.1833507 0.1835831 0.1838168 0.1840496 0.184282 0.1845168 0.184756
 0.1849978 0.1852388 0.1854747 0.1857043 0.1859318 0.1861637 0.1864036 0.1866507 0.1869009 0.1871482
 0.1873897 0.1876287 0.1878703 0.1881151 0.1883603 0.1886058 0.1888523 0.1891008 0.189352 0.1896051
 0.189858 0.190111 0.1903683 0.1906316 0.1908971 0.1911585 0.1914115 0.1916547 0.1918908 0.192123
 0.1923512 0.1925751 0.1927986 0.1930249 0.1932523 0.1934782 0.1937031 0.1939274 0.1941508 0.1943762
 0.1946072 0.1948448 0.1950894 0.1953417 0.1955977 0.1958512 0.196101 0.1963501 0.196601 0.1968556
 0.1971141 0.1973726 0.1976279 0.1978835 0.1981438 0.1984076 0.1986726 0.1989373 0.1991988 0.1994569
 0.1997172 0.1999832 0.2002505 0.2005167 0.2007843 0.2010543 0.2013248 0.2015951 0.2018634 0.202127
 0.2023893 0.2026567 0.202928 0.2031987 0.2034695 0.2037395 0.2040032 0.2042627 0.2045288 0.2048064
 0.2050907 0.2053764 0.2056583 0.2059327 0.2062051 0.2064822 0.2067596 0.2070291 0.2072919 0.2075504
 0.2078041 0.2080582 0.2083173 0.2085694 0.2087891 0.2089305 0.2088709 0.208342 0.2068906 0.2038922
 0.1986725 0.1907693 0.1802029 0.1675652 0.1538634 0.1402061 0.1274954 0.1163003 0.1069262 0.09953228
 0.0942122 0.09106925 0.09027916 0.09217363 0.09734815 0.1063053 0.1181588 0.1295222 0.1357841 0.1346003
 0.1280174 0.1206149 0.1157819 0.1140636 0.1143194 0.1154228 0.1169253 0.118931 0.1217082 0.1252893
 0.1294312 0.1340096 0.1392459 0.1453649 0.1521567 0.1590542 0.1656075 0.171771 0.1777363 0.1835879
 0.1891714 0.1942417 0.1986507 0.2023964 0.2055745 0.2083201 0.2107557 0.2129623 0.2149931 0.2168782
 0.2185873 0.2200135 0.2210365 0.2216188 0.2218503 0.2219056 0.2219483 0.2220612 0.2222571 0.2225288
 0.2228701 0.2232716 0.2237245 0.2242227 0.2247521 0.2252934 0.225836 0.2263761 0.226903 0.2274035
 0.2278727 0.228313 0.2287303 0.229132 0.2295205 0.2298922 0.2302493 0.2306014 0.2309528 0.2313
 0.2316403 0.2319728 0.2322938 0.2326018 0.2328991 0.2331857 0.2334592 0.2337233 0.2339851 0.2342459
 0.2345034 0.2347562 0.2350041 0.2352478 0.2354915 0.2357387 0.2359859 0.2362274 0.2364611 0.2366901
 0.2369205 0.2371586 0.2374037 0.2376489 0.2378912 0.2381322 0.2383714 0.2386059 0.238837 0.2390691
 0.2393066 0.2395555 0.2398204 0.2400954 0.2403677 0.2406319 0.2408936 0.2411587 0.2414276 0.2416983
 0.2419695 0.2422414 0.2425155 0.24279 0.2430577 0.2433105 0.2435454 0.2437666 0.2439851 0.2442135
 0.2444552 0.2447022 0.2449464 0.2451881 0.245432 0.2456801 0.2459306 0.2461782 0.2464195 0.2466614
 0.2469178 0.2471926 0.247478 0.2477677 0.2480624 0.2483605 0.2486573 0.2489526 0.2492481 0.2495381
 0.2498142 0.25008 0.2503548 0.2506594 0.2509964 0.2513448 0.2516788 0.2519904 0.2522912 0.2525958
 0.2529118 0.2532333 0.253536 0.2537936 0.254017 0.2542625 0.254582 0.2549725 0.2553845 0.2557721
 0.256122 0.2564448 0.2567526 0.2570471 0.2573212 0.2575699 0.2578052 0.2580625 0.2583795 0.2587562
 0.2591484 0.2595116 0.2598363 0.2601366 0.2604265 0.2607142 0.2609886 0.2612063 0.2613357 0.2614316
 0.2616234 0.2619942 0.2624896 0.2629749 0.2633697 0.2636972 0.2640121 0.2643274 0.2646264 0.2648828
 0.2650324 0.2650003 0.2648411 0.2647918 0.2650822 0.2657025 0.2664282 0.2670481 0.2675034 0.2678432
 0.268133 0.2684091 0.2686551 0.2688035 0.2688088 0.2687539 0.2688376 0.2691936 0.2697387 0.2702608
 0.2706416 0.270925 0.2712012 0.2715067 0.2718032 0.2719572 0.2718018 0.2713594 0.2709872 0.271142
 0.2719398 0.2730279 0.2739381 0.2744997 0.2748452 0.2750908 0.2751665 0.2749546 0.2744401 0.2737147
 0.2730237 0.2728121 0.273434 0.274698 0.2759429 0.2767005 0.2770991 0.2775317 0.278144 0.2787704
 0.2792032 0.279379 0.2793497 0.2791634 0.2788381 0.2784976 0.2784512 0.2789763 0.2799954 0.2810969
 0.2819209 0.2824405 0.2827968 0.2828806 0.2822277 0.2805693 0.2785501 0.2775635 0.2785147 0.2808694
 0.2832313 0.2847222 0.2854622 0.2859146 0.2862833 0.2864561 0.2859955 0.2842812 0.2813521 0.2786441
 0.2781203 0.2803361 0.2838192 0.2864978 0.2872826 0.2862884 0.2843132 0.2824715 0.281797 0.2826775
 0.2846915 0.2870355 0.2890077 0.2902024 0.2905362 0.2902041 0.2895972 0.2891991 0.2892821 0.2894964
 0.2890911 0.2878893 0.2866319 0.2858368 0.2848482 0.282908 0.2808478 0.2805711 0.2827001 0.2856753
 0.2875631 0.2880353 0.2880191 0.2878273 0.2863981 0.2826954 0.2776311 0.274037 0.2742404 0.2777389
 0.2816972 0.2837333 0.283801 0.2833756 0.2833792 0.2832068 0.2816285 0.2785332 0.2756073 0.274828
 0.2762461 0.2779063 0.2780087 0.2761721 0.2724919 0.2670881 0.2615863 0.2594211 0.2628046 0.269971
 0.2767364 0.2801064 0.2792103 0.27406 0.2658619 0.2583148 0.2559448 0.2599303 0.2667256 0.2714924
 0.2719128 0.2682864 0.2615616 0.2529244 0.2448194 0.2406409 0.242568 0.2498088 0.2587536 0.2645369
 0.2635199 0.2562072 0.2479716 0.2450103 0.2485161 0.2538901 0.2561485 0.2546135 0.2518669 0.2502366
 0.2505143 0.2523991 0.2548361 0.2568449 0.2582702 0.2583941 0.2545559 0.2450962 0.233726 0.2275497
 0.2297389 0.2369897 0.2449184 0.2524726 0.2594541 0.263349 0.2620078 0.2578918 0.2564932 0.2604672
 0.2671039 0.2717887 0.2726871 0.2714888 0.2703438 0.2693046 0.2673921 0.2653563 0.26571 0.2695981
 0.2750015 0.278928 0.2804146 0.2805262 0.2803437 0.2800526 0.2795009 0.2786516 0.2775469 0.2763248
 0.2752032 0.2742403 0.2732916 0.2722929 0.2711908 0.2693282 0.2654915 0.2594882 0.2535001 0.2505773
 0.2514333 0.253997 0.2563937 0.2583045 0.2584746 0.2536893 0.2429737 0.2313575 0.2264144 0.230942
 0.2407347 0.2493066 0.2530164 0.2515166 0.2455638 0.2366687 0.2286321 0.2268747 0.2342572 0.2480868
 0.2625458 0.2736167 0.2805988 0.2838354 0.283169 0.2791034 0.2740991 0.2715929 0.2736374 0.2795557
 0.2864579 0.2905817 0.288927 0.281728 0.2740948 0.2729229 0.280054 0.2898297 0.2953386 0.295657
 0.2948312 0.2954566 0.2964568 0.2966415 0.2971998 0.2997013 0.3035232 0.3063707 0.3063356 0.3026992
 0.2959217 0.2881939 0.2830882 0.2827315 0.2854552 0.2877092 0.2877032 0.2854387 0.2804781 0.2729132
 0.2661555 0.2651064 0.2705865 0.2780893 0.2829173 0.284557 0.2852222 0.2858743 0.2850906 0.2814465
 0.2760434 0.2720331 0.2715279 0.2736086 0.2758381 0.2769013 0.2768087 0.2753699 0.2722054 0.2683868
 0.2665829 0.2686839 0.2737709 0.2790064 0.2822412 0.2833264 0.2832818 0.2829846 0.2827012 0.2822596
 0.2814862 0.2808027 0.281244 0.2833554 0.2862399 0.2883794 0.2893889 0.2903308 0.2922251 0.2948043
 0.2969217 0.297819 0.2977937 0.2978193 0.2986665 0.3002691 0.3017901 0.3023599 0.3019319 0.3014388
 0.3019574 0.3036825 0.3058502 0.3076127 0.3087477 0.3095402 0.3103028 0.3111082 0.3117562 0.3119414
 0.3116602 0.3114583 0.3120257 0.3134803 0.3152288 0.3165684 0.3172636 0.317507 0.3175178 0.3173294
 0.3169068 0.3163312 0.3158053 0.3154985 0.3154241 0.3154721 0.3155269 0.3155373 0.3155115 0.3154926
 0.3155307 0.3156477 0.3158256 0.3160372 0.3162654 0.3164845 0.3166566 0.3167708 0.3168585 0.3169438
 0.3169948 0.3169402 0.3167145 0.3162712 0.3155718 0.3145845 0.3132876 0.3116542 0.3096547 0.3073493
 0.3050501 0.3033652 0.3029499 0.3040876 0.3064617 0.3093361 0.3119782 0.3139747 0.3152701 0.316013
 0.3163901 0.3165411 0.3165455 0.3164403 0.3162449 0.3159805 0.3156711 0.3153344 0.3149846 0.3146414
 0.3143262 0.3140457 0.3137829 0.3135052 0.3131812 0.3127908 0.3123282 0.3117974 0.3112047 0.3105483
 0.30981 0.3089657 0.3080146 0.3069971 0.3059791 0.3050149 0.3041179 0.3032583 0.3023893 0.3014706
 0.3004549 0.2992728 0.297897 0.2964386 0.2951234 0.2941101 0.2933497 0.2926463 0.2918321 0.2908539
 0.2897341 0.2885122 0.2872261 0.2859064 0.2845649 0.2831902 0.2817543 0.2802264 0.2785894 0.2768493
 0.2750269 0.2731447 0.2712243 0.2692819 0.2673034 0.2652137 0.2628761 0.2601298 0.2568359 0.2529075
 0.2483247 0.243149 0.237532 0.2316945 0.2258729 0.2202692 0.2150399 0.2103143 0.2062089 0.2028213
 0.2002169 0.198431 0.1974839 0.1973902 0.1981486 0.1997222 0.2020289 0.2049469 0.2083228 0.2119767
 0.2157081 0.2193191 0.2226655 0.2257075 0.2285021 0.2311262 0.2336 0.2358836 0.2379295 0.2397202
 0.2412605 0.2425567 0.2436156 0.2444601 0.2451368 0.2457029 0.2462005 0.2466403 0.2470091 0.2472933
 0.2474996 0.2476558 0.2477979 0.2479555 0.2481443 0.2483669 0.2486226 0.2489218 0.2492878 0.2497405
 0.2502812 0.2508947 0.2515614 0.2522686 0.2530161 0.2538186 0.2547037 0.2557055 0.2568556 0.258173
 0.2596536 0.2612624 0.2629296 0.2645569 0.2660372 0.2672816 0.2682394 0.268903 0.2692932 0.2694396
 0.2693708 0.2691165 0.2687083 0.2681738 0.267535 0.2668159 0.2660394 0.2652161 0.2643417 0.2634087
 0.2624216 0.2614051 0.2603947 0.2594149 0.2584669 0.2575405 0.2566302 0.2557371 0.2548647 0.2540202
 0.2532132 0.2524483 0.251725 0.2510403 0.2503839 0.2497333 0.2490535 0.2483007 0.2474285 0.2464019
 0.2452092 0.2438588 0.2423699 0.2407635 0.2390511 0.2372334 0.2353123 0.2332997 0.2312122 0.2290583
 0.2268302 0.2245079 0.2220933 0.2196464 0.2172715 0.2150546 0.2130234 0.2111619 0.2094394 0.2078245
 0.2062916 0.2048233 0.2034102 0.2020525 0.2007574 0.1995247 0.1983441 0.1972145 0.1961542 0.1951872
 0.1943311 0.1935953 0.1929763 0.1924558 0.1920129 0.1916344 0.191324 0.1911123 0.191041 0.19111
 0.1912481 0.1913562 0.1913735 0.1913074 0.1912137 0.1911524 0.1911465 0.19118 0.1912212 0.1912226
 0.1911064 0.190777 0.1901488 0.1891534 0.1877498 0.1859533 0.1838494 0.1815802 0.1793195 0.1772359
 0.1754462 0.1740029 0.1729092 0.1721181 0.1715337 0.1710673 0.1707042 0.170508 0.17056 0.170869
 0.1713059 0.171663 0.1718385 0.1719499 0.172229 0.1728248 0.1737169 0.1747631 0.1757994 0.1767181
 0.1774791 0.1780692 0.1784882 0.1787644 0.1789355 0.1790098 0.1789744 0.1788216 0.1785518 0.1781767
 0.1777232 0.1772041 0.1766001 0.175895 0.1750945 0.1741986 0.1732001 0.1721043 0.1708993 0.1695491
 0.1680929 0.1667328 0.165764 0.1654173 0.16574 0.1665739 0.1676657 0.1688363 0.1700063 0.171077
 0.1719328 0.1726292 0.1734738 0.1748232 0.1767862 0.1791165 0.1813769 0.1832116 0.1844668 0.1851166
 0.1851934 0.1847799 0.1839409 0.1826644 0.1809566 0.178928 0.1767161 0.1744332 0.1722246 0.170238
 0.1685375 0.1671359 0.1660262 0.1651918 0.1646921 0.1642698 0.1623842 0.1567362 0.1475257 0.1395853
 0.1387428 0.1455406 0.1544861 0.1599528 0.1609689 0.1598893 0.1586751 0.157748 0.1570344 0.1566107
 0.156538 0.1567181 0.1569323 0.156945 0.1566533 0.1560791 0.1551082 0.1532426 0.1495938 0.1432114
 0.1337862 0.1222862 0.1107476 0.1011966 0.09464645 0.09088348 0.08891092 0.08764669 0.08654402 0.08577035
 0.08583034 0.0870484 0.08939792 0.09266856 0.09661327 0.1009 0.1050588 0.1086415 0.1114602 0.1135896
 0.1151472 0.1161688 0.1166804 0.1167588 0.1164907 0.1159434 0.1151761 0.1142207 0.1130596 0.1116748
 0.1101407 0.1086601 0.1074805 0.1067328 0.1063516 0.1061735 0.1060875 0.1060645 0.1060994 0.1061843
 0.1063152 0.1064911 0.1067218 0.1070277 0.1074006 0.107776 0.1080733 0.1082544 0.1083325 0.1083318
 0.1082393 0.1080099 0.1076505 0.1072564 0.1068759 0.1063636 0.1054935 0.1042536 0.1029609 0.1020537
 0.1017841 0.1020712 0.1025967 0.1030409 0.1032715 0.1033491 0.103381 0.1033735 0.1032105 0.1027762
</values></Ydata></ScRf><Data_Parameters_AB><parameter name="DPF">1</parameter><parameter name="NPT">3497</parameter><parameter name="FXV">3996</parameter><parameter name="LXV">500</parameter><parameter name="CSF">1</parameter><parameter name="MXY">0.00663242861628532</parameter><parameter name="MNY">-0.068582110106945</parameter><parameter name="DAT">17/01/2024</parameter><parameter name="TIM">13:01:58.686 (GMT+1)</parameter><parameter name="DXU">WN</parameter></Data_Parameters_AB><AB__Qtest><MainReport name="Quality Test Report"><Header><Line><Legend>Test result ok/not ok [1/0]: </Legend><Value>0</Value></Line><Line><Legend>Method file: </Legend><Value>C:\Users\Public\Documents\Bruker\OPUS_8.2.28\QT\IRBT_v3_default.QT</Value></Line></Header><Matrix><Line><Legend></Legend><Legend>min</Legend><Legend>max</Legend><Legend>measured</Legend></Line><Line><Value>Absorption (X-Range 1):</Value><Value>0.400000</Value><Value>2.000000</Value><Value>0.047648</Value></Line><Line><Value>Noise (X-Range 4):</Value><Value></Value><Value>0.000300</Value><Value>0.000021</Value></Line><Line><Value>Signal/Noise (X-Range 2):</Value><Value>200.000000</Value><Value></Value><Value>90.745262</Value></Line><Line><Value>Signal/Noise (X-Range 3):</Value><Value>40.000000</Value><Value></Value><Value>33.635671</Value></Line><Line><Value>Water vapour (X-Range 5):</Value><Value></Value><Value>0.000300</Value><Value>0.000010</Value></Line><Line><Value>Signal/Water (X-Range 2):</Value><Value>100.000000</Value><Value></Value><Value>188.076293</Value></Line><Line><Value>Signal/Water (X-Range 3):</Value><Value>20.000000</Value><Value></Value><Value>69.712425</Value></Line><Line><Value>Fringes (X-Range 6):</Value><Value></Value><Value>0.000100</Value><Value>0.000024</Value></Line></Matrix></MainReport></AB__Qtest><Data_Parameters_ScSm><parameter name="DPF">1</parameter><parameter name="NPT">1814</parameter><parameter name="FXV">3996.63438082617</parameter><parameter name="LXV">499.579297603271</parameter><parameter name="CSF">1</parameter><parameter name="MXY">0.328567147254944</parameter><parameter name="MNY">0.0795330107212067</parameter><parameter name="DAT">17/01/2024</parameter><parameter name="TIM">13:01:58.686 (GMT+1)</parameter><parameter name="DXU">WN</parameter></Data_Parameters_ScSm><Data_Parameters_ScRf><parameter name="DPF">1</parameter><parameter name="NPT">1820</parameter><parameter name="FXV">4004.34989121387</parameter><parameter name="LXV">495.721542409425</parameter><parameter name="CSF">1</parameter><parameter name="MXY">0.317517757415771</parameter><parameter name="MNY">0.0681107640266418</parameter><parameter name="DAT">17/01/2024</parameter><parameter name="TIM">13:01:32.825 (GMT+1)</parameter><parameter name="DXU">WN</parameter></Data_Parameters_ScRf><Optic_Parameters_Rf><parameter name="APR">0</parameter><parameter name="APT">Open</parameter><parameter name="BMS">KBr</parameter><parameter name="DTC">RT-DLaTGS_IR-Biotyper [Microplate reader]</parameter><parameter name="HPF">0</parameter><parameter name="LPF">10.0</parameter><parameter name="LPV">4000</parameter><parameter name="PGR">0</parameter><parameter name="RCH">Module port</parameter><parameter name="RDX">0</parameter><parameter name="SRC">MIR</parameter><parameter name="VEL">10.0</parameter><parameter name="SON">Off</parameter></Optic_Parameters_Rf><Acquisition_Parameters_Rf><parameter name="ADT">1</parameter><parameter name="AQM">DD</parameter><parameter name="CFE">0</parameter><parameter name="COR">0</parameter><parameter name="DEL">0</parameter><parameter name="DLY">0</parameter><parameter name="HFW">8000</parameter><parameter name="LFW">0</parameter><parameter name="NSR">32</parameter><parameter name="PLF">AB</parameter><parameter name="RES">6</parameter><parameter name="RGN">-1</parameter><parameter name="STR">0</parameter><parameter name="TCL">MakeCompatibleScalar (0, {WSV=1.000000, ARV=0});</parameter><parameter name="TDL">37</parameter><parameter name="RPO">0</parameter></Acquisition_Parameters_Rf><FT_-_Parameters_Rf><parameter name="APF">B3</parameter><parameter name="HFQ">500</parameter><parameter name="LFQ">4000</parameter><parameter name="NLI">0</parameter><parameter name="PHR">24</parameter><parameter name="PHZ">ML</parameter><parameter name="SPZ">NO</parameter><parameter name="ZFF">1</parameter></FT_-_Parameters_Rf><Optic_Parameters_><parameter name="APR">0</parameter><parameter name="APT">Open</parameter><parameter name="BMS">KBr</parameter><parameter name="CHN">Module port</parameter><parameter name="DTC">RT-DLaTGS_IR-Biotyper [Microplate reader]</parameter><parameter name="HPF">0</parameter><parameter name="LPF">10.0</parameter><parameter name="LPV">4000</parameter><parameter name="PGN">0</parameter><parameter name="RDX">0</parameter><parameter name="SRC">MIR</parameter><parameter name="VEL">10.0</parameter><parameter name="SON">Off</parameter></Optic_Parameters_><FT_-_Parameters_><parameter name="APF">B3</parameter><parameter name="HFQ">500</parameter><parameter name="LFQ">4000</parameter><parameter name="NLI">0</parameter><parameter name="PHR">24</parameter><parameter name="PHZ">ML</parameter><parameter name="SPZ">NO</parameter><parameter name="ZFF">1</parameter></FT_-_Parameters_><Acquisition_Parameters_><parameter name="ADT">1</parameter><parameter name="AQM">DD</parameter><parameter name="CFE">0</parameter><parameter name="COR">0</parameter><parameter name="DEL">0</parameter><parameter name="DLY">0</parameter><parameter name="HFW">8000</parameter><parameter name="LFW">0</parameter><parameter name="NSS">32</parameter><parameter name="PLF">AB</parameter><parameter name="RES">6</parameter><parameter name="SOT">0</parameter><parameter name="TCL">MakeCompatibleScalar (0, {WSV=1.000000, ARV=0});</parameter><parameter name="TDL">37</parameter><parameter name="SPO">0</parameter><parameter name="SGN">-1</parameter></Acquisition_Parameters_><Instrument_Parameters_Rf><parameter name="HFL">15801.365274</parameter><parameter name="LFL">0</parameter><parameter name="LWN">15801.365274</parameter><parameter name="ABP">32157</parameter><parameter name="SSP">1</parameter><parameter name="ARG">2</parameter><parameter name="ASG">2</parameter><parameter name="ASS">32</parameter><parameter name="GFW">16</parameter><parameter name="GBW">16</parameter><parameter name="BFW">0</parameter><parameter name="BBW">0</parameter><parameter name="PKA">9108</parameter><parameter name="PKL">4987</parameter><parameter name="PRA">9129</parameter><parameter name="PRL">5010</parameter><parameter name="P2A">1</parameter><parameter name="P2L">1</parameter><parameter name="P2R">1</parameter><parameter name="P2K">1</parameter><parameter name="DAQ">0</parameter><parameter name="AG2">1</parameter><parameter name="SSM">1</parameter><parameter name="RSN">46298</parameter><parameter name="CRR">0</parameter><parameter name="SRT">1705496492.825</parameter><parameter name="DUR">19.6449890136719</parameter><parameter name="TSC">30.8</parameter><parameter name="MVD">0.394488334655762</parameter><parameter name="AN1">0.226009649767752</parameter><parameter name="AN2">0</parameter><parameter name="VSN">2.485 Apr  4 2017</parameter><parameter name="SRN">0085</parameter><parameter name="CAM">0</parameter><parameter name="INS">IR-Biotyper</parameter><parameter name="FOC">69</parameter><parameter name="RDY">1</parameter><parameter name="ARS">32</parameter></Instrument_Parameters_Rf><Sample_Parameters_><parameter name="BLD"></parameter><parameter name="CNM">Admin</parameter><parameter name="CPY"></parameter><parameter name="DPM"></parameter><parameter name="EXP">IRBT_v3_32Scans.XPM</parameter><parameter name="LCT"></parameter><parameter name="SFM">Microplate, HTS-XT</parameter><parameter name="SNM">240117-1222-Cdiff_SCFA_1_C4_232114867_D5_e6d02e8f-f844-4cdf-abf3-bab2e28fb8cc.0</parameter><parameter name="XPP">C:\Users\Public\Documents\Bruker\OPUS_8.2.28\XPM</parameter><parameter name="IST">OK</parameter><parameter name="CPG">1252</parameter><parameter name="UID">8fd6d286-6161-492e-abad-921e53a3393e</parameter></Sample_Parameters_><Instrument_Parameters_><parameter name="HFL">15801.365274</parameter><parameter name="LFL">0</parameter><parameter name="LWN">15801.365274</parameter><parameter name="ABP">32157</parameter><parameter name="SSP">1</parameter><parameter name="ASG">2</parameter><parameter name="ARG">2</parameter><parameter name="ASS">32</parameter><parameter name="GFW">16</parameter><parameter name="GBW">16</parameter><parameter name="BFW">0</parameter><parameter name="BBW">0</parameter><parameter name="PKA">9740</parameter><parameter name="PKL">4987</parameter><parameter name="PRA">9852</parameter><parameter name="PRL">5010</parameter><parameter name="P2A">1</parameter><parameter name="P2L">1</parameter><parameter name="P2R">1</parameter><parameter name="P2K">1</parameter><parameter name="DAQ">0</parameter><parameter name="AG2">1</parameter><parameter name="SSM">1</parameter><parameter name="RSN">23842</parameter><parameter name="CRR">0</parameter><parameter name="SRT">1705496518.686</parameter><parameter name="DUR">19.6449890136719</parameter><parameter name="TSC">30.8</parameter><parameter name="MVD">0.367981284856796</parameter><parameter name="AN1">0.226006382693025</parameter><parameter name="AN2">0</parameter><parameter name="VSN">2.485 Apr  4 2017</parameter><parameter name="SRN">0085</parameter><parameter name="CAM">0</parameter><parameter name="INS">IR-Biotyper</parameter><parameter name="FOC">69</parameter><parameter name="RDY">1</parameter></Instrument_Parameters_><History/></OPUSDataFile>
