<?xml version="1.0" encoding="UTF-8" ?>
<OPUSDataFile><AB><Ydata ylabel="Absorbance Units"><values byteorder="INTEL" format="FLOAT32" numvalues="3497"> -0.06342182 -0.06340909 -0.06338822 -0.06335987 -0.06332549 -0.06328668 -0.06324726 -0.0632091 -0.06317665 -0.06315081
 -0.06313465 -0.06312665 -0.06312732 -0.0631329 -0.06314193 -0.06315093 -0.06315815 -0.06316295 -0.06316472 -0.06316448
 -0.06316239 -0.06315845 -0.06315275 -0.06314372 -0.06313131 -0.06311502 -0.06309517 -0.06307483 -0.06305467 -0.06304019
 -0.06303114 -0.06303037 -0.0630354 -0.06304266 -0.06304909 -0.06304798 -0.06303915 -0.06301898 -0.06299116 -0.0629568
 -0.06292036 -0.06288438 -0.06285153 -0.06282342 -0.06280048 -0.06278324 -0.06277071 -0.06276298 -0.06275783 -0.06275519
 -0.0627522 -0.06274874 -0.06274346 -0.06273647 -0.06272854 -0.06271983 -0.06271185 -0.06270392 -0.06269496 -0.06268339
 -0.06266493 -0.06263931 -0.06260329 -0.06255991 -0.06251045 -0.06245986 -0.06241211 -0.06237043 -0.06233739 -0.0623147
 -0.06230358 -0.06230443 -0.06231838 -0.06234067 -0.06237178 -0.06239908 -0.06242162 -0.06242773 -0.06241687 -0.06239133
 -0.06235241 -0.06231594 -0.06228289 -0.06226755 -0.06226799 -0.06228619 -0.06231739 -0.06235257 -0.06238619 -0.06240578
 -0.06240774 -0.06238178 -0.06233199 -0.06225492 -0.06216615 -0.06207098 -0.0619875 -0.06192445 -0.06188717 -0.06188066
 -0.06189341 -0.0619253 -0.06195928 -0.06199368 -0.0620184 -0.06203285 -0.06203603 -0.06202815 -0.06201122 -0.06198553
 -0.06195327 -0.06191519 -0.06187469 -0.06183307 -0.06179479 -0.06176116 -0.06173623 -0.0617207 -0.06171801 -0.06172479
 -0.06174146 -0.06175864 -0.06177186 -0.06177342 -0.06175752 -0.06172951 -0.06168844 -0.06164653 -0.06160628 -0.06156976
 -0.0615375 -0.06150735 -0.06147918 -0.06146535 -0.06146684 -0.06150244 -0.0615687 -0.06165822 -0.06175976 -0.06182825
 -0.06185763 -0.06180187 -0.06168413 -0.06151608 -0.06133515 -0.06119515 -0.06109991 -0.06107656 -0.06109747 -0.06115609
 -0.0612254 -0.06129319 -0.06134689 -0.06138067 -0.06139198 -0.06137906 -0.0613454 -0.06129033 -0.06122867 -0.06116121
 -0.06110709 -0.06106639 -0.06104402 -0.06103828 -0.0610406 -0.0610507 -0.06106317 -0.06107872 -0.06109772 -0.06111749
 -0.06113456 -0.06114423 -0.0611387 -0.061118 -0.06107812 -0.06102511 -0.06096053 -0.06089155 -0.06081992 -0.06075585
 -0.06070127 -0.0606684 -0.06066068 -0.06067742 -0.06072028 -0.06076873 -0.06082174 -0.06085528 -0.06086909 -0.06085549
 -0.06081621 -0.06075834 -0.06068365 -0.06060144 -0.06051455 -0.06043383 -0.06036302 -0.06031499 -0.06028727 -0.06028412
 -0.0602957 -0.06031553 -0.06033577 -0.06034909 -0.0603558 -0.06035406 -0.06034689 -0.06033497 -0.06031942 -0.0603006
 -0.06027875 -0.06025403 -0.0602256 -0.06019345 -0.06015579 -0.06011295 -0.06006929 -0.06002614 -0.05999532 -0.05997629
 -0.05997499 -0.05998655 -0.0600021 -0.06001639 -0.06001469 -0.05999846 -0.05996116 -0.05991311 -0.05985995 -0.05981247
 -0.05978047 -0.05976249 -0.05976255 -0.05976724 -0.05977326 -0.05977312 -0.05976319 -0.05975346 -0.05974457 -0.05974592
 -0.05975842 -0.05977034 -0.05978082 -0.05977246 -0.05974699 -0.05970869 -0.05965967 -0.05961302 -0.05956434 -0.05950728
 -0.05944115 -0.05935695 -0.0592689 -0.05919156 -0.05913475 -0.05911846 -0.05912515 -0.0591539 -0.05917526 -0.05917361
 -0.05914497 -0.05907996 -0.0590087 -0.05893485 -0.05888391 -0.05886101 -0.05885967 -0.05888013 -0.05889978 -0.05891781
 -0.05891973 -0.05890668 -0.0588796 -0.05884108 -0.05880186 -0.05876403 -0.05873925 -0.05872665 -0.05873213 -0.05874835
 -0.05877046 -0.05878616 -0.05878152 -0.05875366 -0.05869189 -0.05861538 -0.05852789 -0.05845157 -0.05839633 -0.05835992
 -0.05834547 -0.05833403 -0.05832348 -0.05830318 -0.05827199 -0.05823573 -0.05819485 -0.05815893 -0.05812767 -0.05810398
 -0.05808561 -0.05806569 -0.05804019 -0.05799376 -0.05792599 -0.05782494 -0.05770263 -0.05756702 -0.05743643 -0.0573321
 -0.05725905 -0.05723017 -0.05723182 -0.05726369 -0.05730417 -0.05734802 -0.05737553 -0.05738165 -0.05735758 -0.05730058
 -0.05721836 -0.05711099 -0.05699429 -0.05686893 -0.05674607 -0.05662613 -0.0565175 -0.05642059 -0.05634239 -0.0562814
 -0.05623795 -0.05620807 -0.05618456 -0.05616398 -0.05613854 -0.05610724 -0.05606568 -0.05601658 -0.05595946 -0.05590027
 -0.05584233 -0.0557861 -0.05573502 -0.05567476 -0.05560352 -0.05550679 -0.0553803 -0.05523913 -0.05508332 -0.05494908
 -0.0548375 -0.05476255 -0.05472122 -0.05469445 -0.05467913 -0.05465003 -0.05460938 -0.05454924 -0.05447627 -0.05440038
 -0.05432491 -0.05426181 -0.0542023 -0.0541447 -0.05407362 -0.05397511 -0.05385182 -0.05369537 -0.05353661 -0.05338339
 -0.05325717 -0.05316767 -0.05309885 -0.05305139 -0.05299516 -0.05292746 -0.05284059 -0.05273483 -0.05262738 -0.05251886
 -0.05242263 -0.0523363 -0.05225563 -0.05217834 -0.05209444 -0.05200553 -0.05190914 -0.05180964 -0.05171245 -0.05161941
 -0.05153547 -0.05145703 -0.05138397 -0.05131019 -0.05123261 -0.05114831 -0.05105491 -0.05095534 -0.05084899 -0.05074358
 -0.0506398 -0.05054542 -0.05046141 -0.05038592 -0.05031851 -0.05024327 -0.05015944 -0.05005179 -0.04992325 -0.04977867
 -0.04962347 -0.04947775 -0.04934194 -0.04922828 -0.04913057 -0.04904544 -0.04896679 -0.04888623 -0.04880391 -0.04871646
 -0.04862868 -0.04854235 -0.04845969 -0.04838333 -0.04830656 -0.0482293 -0.04814037 -0.04803766 -0.04791917 -0.04778394
 -0.04764496 -0.04750289 -0.04737193 -0.04725176 -0.0471453 -0.04705112 -0.04696387 -0.04688242 -0.04680065 -0.04671808
 -0.04663062 -0.04653862 -0.04644049 -0.04633763 -0.04623098 -0.04612126 -0.04600947 -0.04589528 -0.0457781 -0.0456604
 -0.04554227 -0.04542843 -0.04532037 -0.04521843 -0.04512333 -0.04503028 -0.04493892 -0.0448468 -0.04475388 -0.04466261
 -0.04457292 -0.04448521 -0.04439876 -0.04430966 -0.04421795 -0.04412123 -0.04402103 -0.04391941 -0.04381778 -0.04371918
 -0.04362416 -0.04353455 -0.04345009 -0.04337195 -0.04329688 -0.04322475 -0.0431486 -0.04306619 -0.04297233 -0.04286449
 -0.04274579 -0.04261547 -0.04248432 -0.04235306 -0.04223216 -0.04212207 -0.04202532 -0.04194113 -0.04186254 -0.04178859
 -0.04171009 -0.04162803 -0.0415403 -0.04144929 -0.04135979 -0.04127188 -0.04118866 -0.04110706 -0.04102454 -0.0409401
 -0.04085097 -0.04076131 -0.04067223 -0.04058791 -0.04051084 -0.04043952 -0.04037451 -0.04031121 -0.04024886 -0.04018567
 -0.04012126 -0.04005728 -0.0399938 -0.03993127 -0.03986948 -0.03980618 -0.03974095 -0.03967014 -0.0395938 -0.03950977
 -0.03941933 -0.03932365 -0.03922519 -0.03912807 -0.0390345 -0.03894885 -0.03887093 -0.03880288 -0.03874073 -0.0386836
 -0.03862609 -0.03856582 -0.03850092 -0.03842972 -0.03835655 -0.03828144 -0.0382112 -0.0381466 -0.03809024 -0.03804227
 -0.03799912 -0.03796043 -0.03792049 -0.03787913 -0.03783214 -0.03777993 -0.03772141 -0.03765777 -0.03759094 -0.03752241
 -0.03745547 -0.03739071 -0.0373303 -0.03727334 -0.03722004 -0.03716873 -0.03711843 -0.03706857 -0.0370183 -0.03696942
 -0.0369219 -0.03687887 -0.03684091 -0.03680917 -0.03678407 -0.03676202 -0.03674284 -0.03672071 -0.03669557 -0.03666512
 -0.03662982 -0.03659144 -0.03655018 -0.03650792 -0.03646408 -0.0364178 -0.03636958 -0.03631905 -0.03626906 -0.03622232
 -0.03618203 -0.03615245 -0.03613221 -0.03612319 -0.03611803 -0.03611505 -0.03610621 -0.03608861 -0.03606103 -0.03602196
 -0.03597884 -0.03593199 -0.03589081 -0.03585586 -0.03583026 -0.03581363 -0.03580155 -0.03579355 -0.03578444 -0.03577485
 -0.03576444 -0.03575397 -0.03574567 -0.03573847 -0.03573177 -0.03572392 -0.03571202 -0.03569743 -0.03567968 -0.03566233
 -0.03564756 -0.03563651 -0.03563077 -0.03562744 -0.03562604 -0.03562442 -0.03562198 -0.03561904 -0.03561562 -0.03561132
 -0.03560612 -0.03559728 -0.03558484 -0.03556836 -0.0355487 -0.0355312 -0.03551665 -0.03551132 -0.03551401 -0.03552558
 -0.03554296 -0.03556128 -0.03557857 -0.03558993 -0.03559658 -0.0355978 -0.03559532 -0.03559015 -0.0355825 -0.03557267
 -0.03556065 -0.03554597 -0.03553148 -0.0355173 -0.03550789 -0.03550376 -0.03550715 -0.03551823 -0.0355358 -0.0355596
 -0.03558574 -0.03561384 -0.03563942 -0.03566256 -0.03568101 -0.03569551 -0.03570686 -0.03571567 -0.03572341 -0.03573022
 -0.03573659 -0.03574321 -0.03575042 -0.03575987 -0.03577282 -0.03578934 -0.03581038 -0.0358329 -0.03585633 -0.03587814
 -0.03589737 -0.0359158 -0.03593329 -0.03595429 -0.0359791 -0.03600845 -0.03604201 -0.03607415 -0.03610419 -0.03612463
 -0.03613576 -0.0361343 -0.03612179 -0.03610032 -0.03607167 -0.03603959 -0.03600604 -0.03597455 -0.03594721 -0.03592709
 -0.03591482 -0.03591245 -0.03591672 -0.03592723 -0.03593948 -0.03595189 -0.03596315 -0.03597253 -0.0359818 -0.0359911
 -0.03600156 -0.03601329 -0.03602587 -0.03603927 -0.03605273 -0.03606621 -0.0360788 -0.03609068 -0.03610173 -0.03611279
 -0.036126 -0.03614191 -0.03616295 -0.03618792 -0.03621647 -0.03624689 -0.03627722 -0.03630755 -0.03633714 -0.03636729
 -0.03639854 -0.03643106 -0.03646496 -0.03650012 -0.03653632 -0.03657487 -0.03661585 -0.03666067 -0.03670948 -0.0367615
 -0.03681663 -0.03687264 -0.03692937 -0.03698476 -0.03703877 -0.03709012 -0.03713892 -0.03718479 -0.03722791 -0.03726853
 -0.03730648 -0.03734167 -0.03737391 -0.03740254 -0.03742903 -0.03745361 -0.03747915 -0.03750708 -0.03753847 -0.0375745
 -0.03761228 -0.03765173 -0.03768851 -0.037722 -0.03775049 -0.03777372 -0.03779458 -0.03781331 -0.03783473 -0.03785889
 -0.03788847 -0.03792302 -0.03796201 -0.03800504 -0.03805054 -0.03809881 -0.03814999 -0.03820369 -0.03826017 -0.03831675
 -0.0383715 -0.03842106 -0.03846231 -0.03849505 -0.03851745 -0.03853443 -0.0385466 -0.03856002 -0.03857617 -0.03859737
 -0.03862435 -0.03865518 -0.03868983 -0.03872579 -0.03876299 -0.03880062 -0.03883864 -0.03887637 -0.03891356 -0.03894865
 -0.03898167 -0.03901159 -0.03903938 -0.0390663 -0.03909352 -0.0391235 -0.03915574 -0.03919106 -0.03922743 -0.03926375
 -0.03929876 -0.03933124 -0.03936225 -0.03939171 -0.03942141 -0.03945169 -0.03948372 -0.03951774 -0.03955407 -0.03959278
 -0.03963279 -0.03967396 -0.03971311 -0.03974998 -0.03978063 -0.03980565 -0.03982519 -0.039841 -0.03985818 -0.039878
 -0.03990599 -0.03994084 -0.03998341 -0.04003116 -0.04008172 -0.04013418 -0.04018711 -0.04024073 -0.04029524 -0.04034919
 -0.04040259 -0.04045231 -0.04049762 -0.04053691 -0.04056975 -0.04059673 -0.04061786 -0.04063428 -0.04064608 -0.04065467
 -0.04066034 -0.04066612 -0.0406725 -0.04068355 -0.04069907 -0.04072084 -0.04074768 -0.04077815 -0.04081123 -0.04084468
 -0.04087865 -0.04091232 -0.04094652 -0.04098173 -0.04101804 -0.04105604 -0.04109402 -0.0411319 -0.04116693 -0.04119863
 -0.04122448 -0.04124397 -0.04125677 -0.04126272 -0.04126407 -0.04126098 -0.04125686 -0.0412517 -0.04124681 -0.04124196
 -0.04123651 -0.04123072 -0.04122468 -0.04121945 -0.04121725 -0.04121868 -0.04122614 -0.041238 -0.04125411 -0.04127103
 -0.04128639 -0.04129774 -0.04130256 -0.04130293 -0.04129822 -0.04129428 -0.04129231 -0.04129601 -0.04130666 -0.04132043
 -0.04133733 -0.04134947 -0.04135659 -0.04135684 -0.04135098 -0.04134608 -0.04134252 -0.04134662 -0.04135646 -0.04136945
 -0.04138349 -0.04139216 -0.04139614 -0.04139315 -0.0413858 -0.04137599 -0.04136558 -0.04135642 -0.04134954 -0.04134577
 -0.04134598 -0.04135077 -0.04135983 -0.04137345 -0.04138949 -0.04140761 -0.04142681 -0.04144686 -0.04146975 -0.04149557
 -0.04152648 -0.04156229 -0.04160183 -0.04164459 -0.04168737 -0.04172976 -0.04176875 -0.04180441 -0.04183539 -0.0418621
 -0.04188429 -0.04190323 -0.04191981 -0.04193608 -0.04195385 -0.04197417 -0.04199851 -0.04202513 -0.04205415 -0.04208212
 -0.04210806 -0.04213106 -0.04215046 -0.0421696 -0.04218866 -0.04221131 -0.04223767 -0.04226685 -0.04229851 -0.04232842
 -0.04235655 -0.04238041 -0.04240073 -0.04241848 -0.04243433 -0.0424502 -0.04246625 -0.04248334 -0.04250186 -0.04252245
 -0.04254549 -0.04257195 -0.04260015 -0.04263019 -0.042658 -0.04268214 -0.04270023 -0.04271067 -0.04271713 -0.04271947
 -0.04272482 -0.04273396 -0.04274949 -0.04277153 -0.04279431 -0.04281742 -0.04283364 -0.04284356 -0.0428464 -0.04284365
 -0.04284 -0.0428361 -0.04283603 -0.04283906 -0.04284586 -0.04285548 -0.04286712 -0.04287997 -0.0428934 -0.0429062
 -0.04291777 -0.04292657 -0.04293175 -0.0429332 -0.04293057 -0.0429251 -0.042917 -0.04290667 -0.04289429 -0.0428781
 -0.04285799 -0.04283214 -0.04280064 -0.04276435 -0.04272356 -0.04268051 -0.0426349 -0.04258702 -0.04253621 -0.04248068
 -0.04242114 -0.04235768 -0.04229179 -0.04222563 -0.04215882 -0.04209228 -0.04202367 -0.04195138 -0.0418761 -0.04179668
 -0.04171886 -0.04164379 -0.04157577 -0.04151634 -0.0414622 -0.04141342 -0.04136316 -0.04131107 -0.04125635 -0.04119958
 -0.04114832 -0.04110323 -0.04107244 -0.04105491 -0.04105168 -0.04106048 -0.04107644 -0.04109826 -0.04112156 -0.04114642
 -0.04117164 -0.04119651 -0.04122072 -0.04124176 -0.04125807 -0.04126847 -0.04127142 -0.04126988 -0.04126376 -0.04125858
 -0.04125534 -0.04125674 -0.04126338 -0.04127336 -0.04128662 -0.04129966 -0.0413125 -0.04132484 -0.04133733 -0.04135396
 -0.04137554 -0.0414076 -0.04144974 -0.04150432 -0.04156915 -0.04164213 -0.04172018 -0.04179908 -0.0418764 -0.04194858
 -0.04201524 -0.04207477 -0.04212911 -0.04217781 -0.04222605 -0.04227415 -0.04233071 -0.04239678 -0.04248141 -0.04258584
 -0.04271319 -0.04286378 -0.04302985 -0.04321045 -0.04339018 -0.04356821 -0.04373099 -0.04387938 -0.04400887 -0.04412188
 -0.04422202 -0.04431138 -0.04439544 -0.0444743 -0.04455042 -0.04462265 -0.04469072 -0.04475418 -0.0448125 -0.04486633
 -0.04491591 -0.04496147 -0.04500335 -0.0450402 -0.0450718 -0.04509739 -0.04511671 -0.04513134 -0.04514135 -0.04514936
 -0.04515542 -0.04516094 -0.04516579 -0.04516974 -0.04517271 -0.04517414 -0.04517434 -0.04517341 -0.04517247 -0.045173
 -0.04517724 -0.04518835 -0.04520826 -0.04524033 -0.04528321 -0.04533812 -0.04539943 -0.04546555 -0.045531 -0.04559362
 -0.04565242 -0.0457067 -0.04575825 -0.04580733 -0.04585368 -0.04589734 -0.04593563 -0.04596853 -0.04599496 -0.04601539
 -0.04603218 -0.04604635 -0.04606271 -0.04608308 -0.04611441 -0.04615838 -0.04622208 -0.04630362 -0.04640538 -0.04651958
 -0.04664132 -0.04676175 -0.04687342 -0.0469746 -0.04706183 -0.04713997 -0.04720972 -0.04727486 -0.04733657 -0.04739394
 -0.04744705 -0.04749405 -0.04753482 -0.04756985 -0.04759924 -0.04762485 -0.04764684 -0.04766703 -0.04768564 -0.04770452
 -0.04772375 -0.04774464 -0.04776674 -0.04778989 -0.04781343 -0.04783642 -0.04785858 -0.04787926 -0.04789869 -0.04791683
 -0.04793402 -0.04795032 -0.04796625 -0.04798204 -0.04799766 -0.04801331 -0.04802778 -0.04804096 -0.04805175 -0.04806006
 -0.0480658 -0.048069 -0.04807005 -0.04806906 -0.04806672 -0.04806336 -0.04806047 -0.04805877 -0.04806113 -0.0480676
 -0.04808007 -0.04809693 -0.04811717 -0.04813845 -0.04815811 -0.04817539 -0.04818872 -0.04819944 -0.04820764 -0.04821497
 -0.04822206 -0.04822914 -0.04823642 -0.04824346 -0.04825022 -0.04825632 -0.04826174 -0.0482661 -0.04826942 -0.04827162
 -0.04827276 -0.04827336 -0.04827344 -0.04827344 -0.04827333 -0.04827311 -0.04827316 -0.04827428 -0.04827663 -0.04828115
 -0.04828671 -0.04829276 -0.0482979 -0.04830066 -0.04830171 -0.04830074 -0.04829954 -0.04829882 -0.04829845 -0.04829878
 -0.04829752 -0.04829427 -0.04828929 -0.0482825 -0.0482768 -0.04827231 -0.04827094 -0.04827247 -0.04827591 -0.04828099
 -0.04828583 -0.04829052 -0.04829433 -0.04829748 -0.04829998 -0.04830212 -0.04830441 -0.04830678 -0.04830982 -0.04831187
 -0.04831229 -0.048309 -0.0483004 -0.04828742 -0.04826922 -0.04825081 -0.0482328 -0.04822043 -0.04821468 -0.04821607
 -0.04822486 -0.04823693 -0.04825207 -0.04826546 -0.04827714 -0.0482853 -0.04829047 -0.04829407 -0.04829654 -0.04830018
 -0.04830442 -0.04830967 -0.04831424 -0.04831598 -0.0483137 -0.04830501 -0.04829086 -0.04827056 -0.04824739 -0.04822228
 -0.04819923 -0.04817968 -0.04816601 -0.04815931 -0.04815839 -0.04816352 -0.0481708 -0.04817997 -0.04818757 -0.04819348
 -0.04819744 -0.04819964 -0.048202 -0.0482043 -0.04820671 -0.04820833 -0.04820628 -0.04820026 -0.04818773 -0.04817012
 -0.04814794 -0.04812381 -0.04810053 -0.04807967 -0.04806352 -0.04805129 -0.04804334 -0.04803811 -0.04803507 -0.04803356
 -0.04803332 -0.0480343 -0.04803663 -0.04803907 -0.0480416 -0.04804192 -0.04803992 -0.04803452 -0.04802588 -0.04801498
 -0.04800216 -0.04798965 -0.04797752 -0.04796725 -0.04795852 -0.04795157 -0.04794572 -0.04794019 -0.04793426 -0.04792666
 -0.04791775 -0.04790703 -0.0478962 -0.04788605 -0.0478773 -0.04787088 -0.04786443 -0.04785782 -0.04784779 -0.04783362
 -0.04781571 -0.04779382 -0.04777297 -0.04775339 -0.04773994 -0.04773235 -0.04773004 -0.04773208 -0.04773337 -0.04773363
 -0.04772879 -0.04772012 -0.04770813 -0.04769473 -0.04768325 -0.04767417 -0.04766964 -0.04766829 -0.0476699 -0.04767284
 -0.04767612 -0.04767926 -0.04768179 -0.04768409 -0.04768623 -0.04768812 -0.04768995 -0.04768988 -0.04768784 -0.04768093
 -0.04766904 -0.04765155 -0.04762893 -0.04760581 -0.04758295 -0.04756722 -0.04755813 -0.04755833 -0.04756538 -0.04757529
 -0.04758588 -0.04759152 -0.04759298 -0.04758836 -0.0475807 -0.04757166 -0.04756314 -0.04755684 -0.04755225 -0.04754975
 -0.04754786 -0.04754638 -0.04754401 -0.04754052 -0.04753506 -0.0475275 -0.04751819 -0.04750714 -0.04749585 -0.04748429
 -0.04747277 -0.047461 -0.04744732 -0.04743183 -0.04741365 -0.0473937 -0.04737352 -0.04735404 -0.04733765 -0.04732399
 -0.04731365 -0.0473058 -0.04729998 -0.04729565 -0.04729254 -0.04728992 -0.04728761 -0.04728455 -0.04728037 -0.047275
 -0.04726831 -0.04726076 -0.0472524 -0.04724299 -0.04723251 -0.04722019 -0.04720613 -0.04719103 -0.04717516 -0.04716047
 -0.04714694 -0.04713582 -0.04712643 -0.04711787 -0.0471095 -0.04709984 -0.04708888 -0.04707592 -0.04706145 -0.0470456
 -0.0470289 -0.04701157 -0.0469943 -0.04697715 -0.04696158 -0.04694775 -0.04693776 -0.04693213 -0.04693073 -0.04693385
 -0.04693742 -0.04694122 -0.04694069 -0.04693593 -0.04692674 -0.0469137 -0.04690028 -0.04688643 -0.04687399 -0.04686229
 -0.0468504 -0.04683835 -0.04682544 -0.04681277 -0.04680147 -0.04679181 -0.0467848 -0.04677884 -0.0467734 -0.04676715
 -0.04675922 -0.04675009 -0.04673957 -0.04672904 -0.04671867 -0.04670965 -0.04670206 -0.04669718 -0.04669507 -0.04669638
 -0.04670092 -0.04670654 -0.0467127 -0.0467149 -0.04671322 -0.04670506 -0.04669188 -0.04667564 -0.04665821 -0.04664383
 -0.04663273 -0.04662737 -0.04662585 -0.04662767 -0.04663052 -0.04663293 -0.04663387 -0.04663247 -0.04662904 -0.04662355
 -0.04661598 -0.04660628 -0.04659475 -0.04658132 -0.04656782 -0.04655436 -0.04654313 -0.04653412 -0.04652723 -0.0465221
 -0.04651634 -0.04650989 -0.04650096 -0.04649037 -0.04647933 -0.04646838 -0.04645931 -0.04645136 -0.04644451 -0.0464374
 -0.04642886 -0.04641833 -0.04640503 -0.04638945 -0.04637149 -0.04635203 -0.04633112 -0.04631016 -0.0462893 -0.04627022
 -0.04625312 -0.04623901 -0.04622797 -0.0462194 -0.04621321 -0.04620811 -0.04620408 -0.04620029 -0.04619685 -0.04619379
 -0.046191 -0.04618837 -0.04618545 -0.04618139 -0.04617604 -0.04616873 -0.04615995 -0.0461499 -0.04613901 -0.04612788
 -0.04611552 -0.04610194 -0.04608513 -0.04606433 -0.04603949 -0.04601003 -0.04597958 -0.04594829 -0.0459213 -0.04589894
 -0.04588379 -0.0458757 -0.04587293 -0.04587496 -0.04587749 -0.04588016 -0.04587927 -0.04587489 -0.04586514 -0.04585072
 -0.04583175 -0.04580951 -0.04578552 -0.0457609 -0.04573725 -0.04571456 -0.0456935 -0.04567302 -0.04565264 -0.0456325
 -0.04561228 -0.04559378 -0.0455774 -0.04556367 -0.04555295 -0.04554201 -0.04553067 -0.04551456 -0.04549367 -0.04546778
 -0.04543766 -0.0454086 -0.04538129 -0.04536163 -0.04534894 -0.04534482 -0.04534749 -0.0453544 -0.04536447 -0.04537494
 -0.04538648 -0.04539843 -0.04541255 -0.04542977 -0.04545109 -0.04547766 -0.04550781 -0.04554192 -0.0455754 -0.0456079
 -0.04563317 -0.04565039 -0.04565632 -0.04565061 -0.04563526 -0.04561047 -0.04558007 -0.04554392 -0.04550267 -0.04545591
 -0.04540194 -0.04534142 -0.04527506 -0.04520417 -0.04513248 -0.04505827 -0.04498169 -0.04489842 -0.04480207 -0.0446983
 -0.04458383 -0.04448178 -0.04440029 -0.04435846 -0.04436679 -0.04441744 -0.0445139 -0.04462506 -0.04474899 -0.04484892
 -0.04492202 -0.04494936 -0.04493139 -0.0448831 -0.04480726 -0.04473282 -0.04465897 -0.0445977 -0.04454626 -0.04450277
 -0.04446631 -0.04443468 -0.04440667 -0.04438004 -0.04435335 -0.04432398 -0.04429317 -0.04426076 -0.0442287 -0.04419863
 -0.0441681 -0.04413702 -0.04410163 -0.04406058 -0.04401552 -0.04396605 -0.04391855 -0.04387345 -0.04383435 -0.04380123
 -0.0437723 -0.04374729 -0.0437231 -0.0437002 -0.04367904 -0.04366028 -0.04364638 -0.04363656 -0.043631 -0.04362725
 -0.04362205 -0.0436139 -0.04359946 -0.04358089 -0.04355795 -0.04353487 -0.04351359 -0.04349631 -0.04348465 -0.04347671
 -0.04347273 -0.04346862 -0.04346395 -0.04345534 -0.04344242 -0.04342507 -0.04340336 -0.04338044 -0.04335649 -0.04333469
 -0.04331475 -0.04329726 -0.04328131 -0.0432645 -0.04324631 -0.04322439 -0.0431993 -0.04317055 -0.04313964 -0.04310771
 -0.04307632 -0.0430468 -0.04302008 -0.04299699 -0.0429775 -0.04296203 -0.04294899 -0.04293828 -0.04292765 -0.04291682
 -0.04290385 -0.04288853 -0.04287026 -0.04284908 -0.04282582 -0.04280074 -0.0427762 -0.04275245 -0.04273213 -0.04271465
 -0.04270017 -0.04268691 -0.04267127 -0.04265221 -0.04262587 -0.04259458 -0.04255848 -0.04252209 -0.04248895 -0.04246032
 -0.04243864 -0.04241991 -0.04240358 -0.04238528 -0.04236355 -0.04233864 -0.04231016 -0.04228132 -0.04225239 -0.04222481
 -0.04219861 -0.04217276 -0.0421472 -0.04212099 -0.04209416 -0.04206654 -0.04203803 -0.04200813 -0.04197705 -0.04194466
 -0.04191217 -0.04188122 -0.0418529 -0.04182944 -0.04180957 -0.04179366 -0.04177862 -0.04176286 -0.04174522 -0.04172445
 -0.04170299 -0.04168107 -0.04166115 -0.04164392 -0.04162775 -0.04161268 -0.04159479 -0.04157393 -0.04154824 -0.04151805
 -0.04148557 -0.04145124 -0.04141868 -0.04138772 -0.04136 -0.04133461 -0.04131046 -0.04128669 -0.04126139 -0.04123467
 -0.04120562 -0.04117548 -0.04114477 -0.04111462 -0.04108582 -0.04105858 -0.04103313 -0.04100939 -0.04098735 -0.04096707
 -0.0409486 -0.04093149 -0.04091574 -0.04089986 -0.04088378 -0.04086583 -0.04084598 -0.04082309 -0.04079722 -0.04076796
 -0.04073554 -0.04070019 -0.04066267 -0.04062444 -0.04058668 -0.04055177 -0.04052048 -0.04049485 -0.04047399 -0.04045822
 -0.04044541 -0.04043458 -0.04042433 -0.04041386 -0.04040318 -0.04039218 -0.04038088 -0.04036944 -0.04035622 -0.04034116
 -0.0403217 -0.04029773 -0.04026871 -0.0402349 -0.04019884 -0.04016101 -0.04012541 -0.04009204 -0.0400633 -0.04003837
 -0.04001691 -0.03999764 -0.03997844 -0.03995859 -0.03993635 -0.03991192 -0.03988469 -0.03985575 -0.03982537 -0.03979482
 -0.03976455 -0.03973557 -0.03970824 -0.03968278 -0.0396594 -0.03963711 -0.0396159 -0.03959429 -0.03957223 -0.03954925
 -0.03952546 -0.03950181 -0.03947831 -0.03945551 -0.03943319 -0.03941079 -0.03938839 -0.03936563 -0.03934328 -0.03932232
 -0.03930355 -0.03928857 -0.03927671 -0.03926838 -0.03926167 -0.03925587 -0.03924903 -0.0392403 -0.03922853 -0.03921318
 -0.03919428 -0.03917165 -0.03914649 -0.03911885 -0.03909048 -0.03906146 -0.03903272 -0.03900424 -0.03897605 -0.03894814
 -0.03892051 -0.03889328 -0.03886694 -0.03884153 -0.0388174 -0.03879451 -0.038773 -0.03875282 -0.03873407 -0.03871633
 -0.03869941 -0.03868272 -0.03866581 -0.03864881 -0.03863161 -0.03861476 -0.03859863 -0.03858219 -0.03856555 -0.038546
 -0.03852326 -0.03849599 -0.03846411 -0.03843006 -0.03839416 -0.03836112 -0.03833101 -0.03830698 -0.03828842 -0.03827517
 -0.03826588 -0.03825737 -0.03824861 -0.03823617 -0.03822069 -0.03820108 -0.03817962 -0.03815776 -0.03813709 -0.03811933
 -0.03810332 -0.03808929 -0.03807498 -0.03805973 -0.03804275 -0.03802362 -0.03800377 -0.03798329 -0.03796361 -0.03794481
 -0.03792709 -0.03791039 -0.03789392 -0.0378776 -0.03786059 -0.03784279 -0.03782338 -0.03780231 -0.03777887 -0.03775339
 -0.03772587 -0.0376971 -0.03766784 -0.03763897 -0.03761154 -0.03758572 -0.03756203 -0.0375399 -0.0375193 -0.03749931
 -0.03747971 -0.03745968 -0.03743901 -0.03741742 -0.03739484 -0.03737168 -0.03734796 -0.03732377 -0.03729904 -0.03727277
 -0.03724506 -0.03721558 -0.03718504 -0.0371559 -0.03712867 -0.03710644 -0.03708798 -0.03707311 -0.03705933 -0.0370434
 -0.0370243 -0.03699938 -0.03697095 -0.0369391 -0.03690766 -0.03687825 -0.03685294 -0.03683297 -0.03681707 -0.0368055
 -0.03679473 -0.03678445 -0.03677136 -0.03675525 -0.03673504 -0.03671082 -0.03668373 -0.03665405 -0.03662414 -0.03659426
 -0.03656678 -0.03654131 -0.03651846 -0.03649693 -0.03647475 -0.03645085 -0.03642266 -0.03639124 -0.03635608 -0.03632
 -0.03628448 -0.03625137 -0.03622211 -0.03619587 -0.03617297 -0.03615116 -0.03613009 -0.03610812 -0.03608496 -0.03606061
 -0.03603503 -0.0360089 -0.03598223 -0.03595487 -0.03592677 -0.03589731 -0.03586675 -0.03583554 -0.03580435 -0.03577517
 -0.03574839 -0.03572585 -0.03570698 -0.03569228 -0.03567974 -0.03566835 -0.03565485 -0.03563727 -0.03561279 -0.0355792
 -0.03553765 -0.03548713 -0.03543392 -0.03537869 -0.03532829 -0.03528379 -0.03524688 -0.03521785 -0.03519308 -0.03517232
 -0.03515087 -0.03512875 -0.03510375 -0.03507638 -0.03504734 -0.03501732 -0.03498855 -0.03496123 -0.03493707 -0.03491524
 -0.0348959 -0.03487672 -0.03485603 -0.03483116 -0.03479968 -0.0347615 -0.03471502 -0.03466493 -0.03461171 -0.03456153
 -0.03451591 -0.03447637 -0.03444358 -0.03441412 -0.03438781 -0.03436116 -0.0343341 -0.03430621 -0.03427759 -0.03424876
 -0.03421959 -0.03418973 -0.03415913 -0.03412739 -0.03409479 -0.03406175 -0.03402835 -0.03399486 -0.03396125 -0.03392762
 -0.03389381 -0.03385992 -0.03382525 -0.03378967 -0.03375213 -0.03371207 -0.03367003 -0.03362567 -0.03358208 -0.03353951
 -0.03350087 -0.03346642 -0.03343567 -0.0334085 -0.03338169 -0.03335513 -0.03332639 -0.0332959 -0.0332642 -0.03323185
 -0.03320099 -0.0331712 -0.03314313 -0.03311497 -0.03308466 -0.03305062 -0.03300999 -0.03296434 -0.03291296 -0.03286066
 -0.03280921 -0.03276246 -0.03272246 -0.03268824 -0.03266035 -0.03263464 -0.03261065 -0.0325854 -0.03255861 -0.0325298
 -0.032499 -0.03246717 -0.0324344 -0.03240196 -0.03236973 -0.03233818 -0.03230632 -0.03227183 -0.03223323 -0.03218592
 -0.03213086 -0.0320663 -0.03199694 -0.03192633 -0.03185876 -0.03179872 -0.03174602 -0.03170212 -0.03166409 -0.03163154
 -0.03160125 -0.03157272 -0.03154264 -0.03151057 -0.03147388 -0.03143226 -0.03138594 -0.03133498 -0.03128153 -0.03122572
 -0.03116933 -0.03111256 -0.03105707 -0.03100349 -0.03095466 -0.03091068 -0.03087363 -0.03084181 -0.03081433 -0.0307879
 -0.03075926 -0.03072559 -0.03068362 -0.03063367 -0.03057407 -0.03050982 -0.03044162 -0.03037578 -0.03031418 -0.03025777
 -0.0302074 -0.03015809 -0.03010953 -0.03005847 -0.03000491 -0.02995144 -0.02989818 -0.02984774 -0.02979917 -0.02974921
 -0.02969715 -0.02963845 -0.02957488 -0.02950748 -0.02943915 -0.0293752 -0.02931518 -0.02926154 -0.02921021 -0.02915911
 -0.02910553 -0.02904666 -0.02898542 -0.02892157 -0.02886062 -0.02880417 -0.028753 -0.02870806 -0.02866302 -0.02861758
 -0.02856378 -0.02850133 -0.02842778 -0.02834383 -0.02825502 -0.02816219 -0.02807275 -0.02798611 -0.02790459 -0.02782661
 -0.02774968 -0.0276733 -0.02759542 -0.02751671 -0.02743725 -0.02735718 -0.02727701 -0.02719549 -0.02711231 -0.02702599
 -0.02693617 -0.02684109 -0.0267404 -0.02663252 -0.02651691 -0.02639524 -0.02626737 -0.02613937 -0.02601153 -0.02588817
 -0.02576905 -0.02565314 -0.02554032 -0.02542932 -0.02532065 -0.02521613 -0.02511425 -0.02501388 -0.02491041 -0.02479592
 -0.02466908 -0.02452288 -0.02436616 -0.02420179 -0.02404102 -0.02389176 -0.02375363 -0.02362962 -0.02351062 -0.02339507
 -0.02327679 -0.02315455 -0.02302637 -0.02289215 -0.02274778 -0.02259301 -0.0224216 -0.02223422 -0.0220347 -0.0218258
 -0.02162466 -0.02143176 -0.02125941 -0.02110265 -0.02095709 -0.02081743 -0.02067321 -0.02052308 -0.0203616 -0.02018943
 -0.02000667 -0.01980977 -0.0195983 -0.01936459 -0.01910532 -0.01881839 -0.01850064 -0.01816433 -0.01780966 -0.01745598
 -0.01710504 -0.01676929 -0.01644934 -0.01614613 -0.01585878 -0.0155787 -0.01530372 -0.01501758 -0.01471894 -0.01439242
 -0.01404326 -0.01367292 -0.0132931 -0.01292408 -0.01256901 -0.01224217 -0.01193276 -0.0116381 -0.01134625 -0.01104918
 -0.01074491 -0.01042988 -0.01010993 -0.009785638 -0.009462438 -0.009141115 -0.008825876 -0.008517092 -0.008218814 -0.007931248
 -0.007654789 -0.007389375 -0.007133871 -0.006889055 -0.006658884 -0.006443957 -0.006249612 -0.006073196 -0.005911919 -0.005761778
 -0.0056139 -0.005469722 -0.005325409 -0.005189531 -0.005068387 -0.004964538 -0.00488306 -0.004816088 -0.004762054 -0.004714197
 -0.00466979 -0.004629896 -0.004594061 -0.004565919 -0.004545894 -0.004534402 -0.004531483 -0.004536619 -0.004549913 -0.004572701
 -0.004604935 -0.004647383 -0.004699204 -0.004758091 -0.00482284 -0.004889778 -0.004957591 -0.005022875 -0.005084041 -0.005137937
 -0.005183994 -0.005220491 -0.005248414 -0.005268088 -0.005279464 -0.005283168 -0.005276395 -0.005258503 -0.005227822 -0.005183527
 -0.005128626 -0.005063239 -0.004991242 -0.004912861 -0.004827227 -0.004734085 -0.004629628 -0.004513901 -0.004384909 -0.004243627
 -0.004092096 -0.003931989 -0.00376821 -0.003601979 -0.0034379 -0.003275207 -0.0031152 -0.002955597 -0.002795179 -0.002631699
 -0.00246348 -0.0022898 -0.002109919 -0.001924123 -0.001732026 -0.001535824 -0.001335565 -0.001134848 -0.000933995 -0.0007359948
 -0.0005410388 -0.0003502926 -0.0001637763 1.805449E-05 0.0001951577 0.0003674561 0.0005341295 0.0006930455 0.0008414442 0.0009719594
 0.001081607 0.001161425 0.001211783 0.001229071 0.001216206 0.001174183 0.001105976 0.001013069 0.0008989488 0.0007658092
 0.0006134186 0.0004442391 0.0002457285 1.743899E-05 -0.0002604187 -0.0005908483 -0.0009753455 -0.001414421 -0.001878847 -0.00236737
 -0.00285529 -0.003344882 -0.003839057 -0.004340097 -0.004859099 -0.005394314 -0.005947681 -0.006514964 -0.007089525 -0.007669069
 -0.008247547 -0.008826279 -0.00940533 -0.009983038 -0.01056115 -0.01112826 -0.01168087 -0.0122087 -0.01270692 -0.01317802
 -0.01362132 -0.01404317 -0.01444447 -0.01482564 -0.01518679 -0.0155253 -0.01584115 -0.01613409 -0.016404 -0.01665023
 -0.01687218 -0.01706642 -0.01723438 -0.01737594 -0.01749771 -0.01760968 -0.01772105 -0.01784745 -0.01799301 -0.01816822
 -0.01836789 -0.01859369 -0.01883375 -0.01908462 -0.01933433 -0.01957912 -0.0198114 -0.02002913 -0.02022937 -0.02041137
 -0.02057648 -0.02072471 -0.02085959 -0.02098121 -0.02109104 -0.02118908 -0.02127557 -0.02135135 -0.02141962 -0.02148199
 -0.02154498 -0.02160781 -0.02167309 -0.02173683 -0.02179565 -0.02184482 -0.02187897 -0.02189588 -0.02189257 -0.02186916
 -0.02182525 -0.02176041 -0.02167465 -0.02156652 -0.02143557 -0.02128206 -0.02110579 -0.02090908 -0.02069202 -0.02045727
 -0.02020511 -0.01994015 -0.01966372 -0.01938765 -0.01911307 -0.01885208 -0.01860257 -0.01836538 -0.01813741 -0.01791224
 -0.01769099 -0.01747219 -0.01725846 -0.01705372 -0.01685296 -0.01665564 -0.01645252 -0.01623746 -0.01601391 -0.01577886
 -0.01555136 -0.0153349 -0.01514006 -0.01496966 -0.01481544 -0.01467717 -0.01454201 -0.01440958 -0.01427374 -0.01413507
 -0.01399515 -0.01385468 -0.01371774 -0.01358373 -0.01345362 -0.01332518 -0.01319509 -0.01306073 -0.0129171 -0.01276352
 -0.01259742 -0.0124196 -0.01222967 -0.01202902 -0.01181748 -0.01159892 -0.01137333 -0.01114909 -0.01092746 -0.01071642
 -0.01051737 -0.01033208 -0.01016085 -0.01000167 -0.009854598 -0.009720653 -0.009600694 -0.009501738 -0.009424977 -0.009379297
 -0.009365289 -0.009388973 -0.009450775 -0.009554056 -0.009699563 -0.009889798 -0.01012468 -0.01040601 -0.01073015 -0.01109683
 -0.01149793 -0.01193121 -0.01238582 -0.01285882 -0.01334007 -0.01382741 -0.01431328 -0.01479665 -0.01527161 -0.0157377
 -0.01618968 -0.01662727 -0.01704617 -0.01744622 -0.01782437 -0.01818047 -0.01851207 -0.01881925 -0.01910069 -0.0193574
 -0.01959041 -0.01980151 -0.01999329 -0.02016787 -0.02032767 -0.02047553 -0.02061361 -0.02074477 -0.02087105 -0.02099279
 -0.02111108 -0.02122265 -0.02132734 -0.02142056 -0.02150165 -0.0215681 -0.02161958 -0.02165664 -0.02167937 -0.0216901
 -0.02168895 -0.02167787 -0.02165674 -0.02162604 -0.02158582 -0.02153606 -0.02147783 -0.02141278 -0.02134307 -0.02127207
 -0.02120209 -0.0211365 -0.02107667 -0.02102437 -0.02098044 -0.02094552 -0.02092066 -0.02090642 -0.02090284 -0.02091038
 -0.02092656 -0.0209513 -0.02098088 -0.021015 -0.0210511 -0.02108909 -0.02112789 -0.02116735 -0.02120566 -0.02124263
 -0.02127631 -0.02130665 -0.02133262 -0.02135411 -0.02137067 -0.02138156 -0.02138555 -0.02138215 -0.0213701 -0.02135023
 -0.02132242 -0.02128845 -0.02124886 -0.02120594 -0.02116012 -0.02111474 -0.0210704 -0.02103037 -0.02099532 -0.02096576
 -0.02094188 -0.02092136 -0.02090411 -0.02088897 -0.02087625 -0.02086853 -0.02086603 -0.02087159 -0.0208842 -0.02090256
 -0.02092472 -0.02094579 -0.0209648 -0.0209777 -0.02098589 -0.02098889 -0.02098951 -0.02098953 -0.02099095 -0.0209955
 -0.02100288 -0.02101364 -0.02102586 -0.02103938 -0.0210518 -0.02106278 -0.02107069 -0.02107535 -0.02107637 -0.02107371
 -0.02106773 -0.02105834 -0.02104504 -0.02102757 -0.02100417 -0.02097508 -0.02093973 -0.02089934 -0.02085624 -0.0208113
 -0.02076749 -0.02072327 -0.02067888 -0.02063053 -0.02057566 -0.0205115 -0.02043515 -0.02034871 -0.02025125 -0.0201498
 -0.02004533 -0.01994541 -0.01985131 -0.0197671 -0.01969335 -0.01963012 -0.0195774 -0.01953339 -0.0194979 -0.01946818
 -0.01944385 -0.01942146 -0.01940069 -0.01937854 -0.01935536 -0.01933017 -0.01930413 -0.01927858 -0.01925439 -0.01923331
 -0.01921468 -0.01919903 -0.01918406 -0.01916881 -0.01915148 -0.01913081 -0.01910802 -0.01908298 -0.019058 -0.01903365
 -0.01900927 -0.01898502 -0.01895705 -0.0189252 -0.01888829 -0.01884668 -0.01880428 -0.01876153 -0.0187231 -0.01868854
 -0.01865878 -0.01863319 -0.01861056 -0.01859106 -0.01857441 -0.01856088 -0.01855108 -0.0185439 -0.01853894 -0.01853461
 -0.01852991 -0.01852424 -0.0185172 -0.01850853 -0.01849821 -0.01848546 -0.01847011 -0.01845204 -0.01843105 -0.01840976
 -0.0183883 -0.01837073 -0.01835697 -0.01834776 -0.01834236 -0.01833692 -0.01833097 -0.01832034 -0.01830603 -0.01828819
 -0.01826823 -0.0182489 -0.01822995 -0.01821261 -0.01819486 -0.01817558 -0.01815323 -0.01812631 -0.01809563 -0.01806106
 -0.01802387 -0.01798445 -0.01794289 -0.01789951 -0.01785226 -0.01780099 -0.01774401 -0.01768123 -0.01761406 -0.01754283
 -0.01747178 -0.01740121 -0.01733505 -0.01727307 -0.01721667 -0.01716536 -0.01711877 -0.01707639 -0.01703733 -0.01700096
 -0.01696629 -0.01693284 -0.01689991 -0.01686744 -0.01683544 -0.01680315 -0.01677067 -0.01673582 -0.01669819 -0.0166557
 -0.01660763 -0.01655541 -0.01649888 -0.01644282 -0.01638747 -0.01633725 -0.01629211 -0.01625252 -0.01621776 -0.01618373
 -0.01614961 -0.01611 -0.0160651 -0.01601243 -0.01595314 -0.01588822 -0.01581799 -0.01574379 -0.01566393 -0.01557778
 -0.01548312 -0.01537829 -0.01526313 -0.01513677 -0.01500147 -0.01485738 -0.0147075 -0.01455224 -0.0143943 -0.01423396
 -0.01407342 -0.01391282 -0.01375405 -0.01359721 -0.01344416 -0.01329517 -0.01315261 -0.01301699 -0.01289149 -0.01277643
 -0.01267464 -0.01258504 -0.01250793 -0.01243989 -0.01237731 -0.01231678 -0.0122535 -0.01218855 -0.01211997 -0.01205417
 -0.01199301 -0.01194173 -0.01190279 -0.01187479 -0.01185842 -0.01184774 -0.01184226 -0.01183723 -0.01183232 -0.01182557
 -0.01181691 -0.01180494 -0.01178956 -0.01176908 -0.0117438 -0.01171367 -0.01167965 -0.01164402 -0.0116078 -0.0115739
 -0.01154242 -0.0115145 -0.01149016 -0.0114693 -0.01145341 -0.0114428 -0.0114404 -0.01144779 -0.01146525 -0.01149408
 -0.01152901 -0.01157003 -0.01160813 -0.01164236 -0.01166658 -0.0116803 -0.0116842 -0.01167857 -0.01166883 -0.01165512
 -0.01164136 -0.01162654 -0.01160877 -0.01158692 -0.01155651 -0.01151839 -0.01147128 -0.01141843 -0.01136331 -0.01130847
 -0.01125786 -0.01121074 -0.01116804 -0.01112764 -0.01108843 -0.01105086 -0.01101431 -0.01098235 -0.0109554 -0.01093694
 -0.01092747 -0.01092833 -0.01093964 -0.01096167 -0.01099446 -0.01103851 -0.01109371 -0.01115971 -0.0112358 -0.01131916
 -0.01140867 -0.01150006 -0.0115924 -0.01168229 -0.01176888 -0.01185006 -0.01192454 -0.01199019 -0.0120475 -0.01209494
 -0.01213789 -0.01217693 -0.01222137 -0.01227385 -0.01234057 -0.01242378 -0.0125217 -0.01263478 -0.01275639 -0.01288614
 -0.01301838 -0.01315291 -0.01328662 -0.01341935 -0.01354828 -0.01367311 -0.01379081 -0.01390166 -0.0140047 -0.01410085
 -0.01419161 -0.01427706 -0.01435841 -0.01443394 -0.01450254 -0.01456287 -0.01461317 -0.01465502 -0.01468822 -0.0147162
 -0.01474021 -0.01476093 -0.01477909 -0.01479181 -0.01479885 -0.01479776 -0.01478827 -0.01477226 -0.01474994 -0.01472579
 -0.01469993 -0.01467556 -0.01465234 -0.01463053 -0.01460958 -0.01458803 -0.01456578 -0.01454163 -0.01451669 -0.01449172
 -0.01446832 -0.01444882 -0.01443221 -0.01441965 -0.01440602 -0.01438984 -0.01436561 -0.01433057 -0.0142858 -0.01423015
 -0.01417133 -0.01410997 -0.01405368 -0.01400315 -0.01396025 -0.01392488 -0.01389312 -0.01386446 -0.01383316 -0.01379907
 -0.01375816 -0.01371139 -0.01365912 -0.01360302 -0.0135467 -0.01349068 -0.01343778 -0.01338615 -0.01333505 -0.01328297
 -0.013228 -0.01317195 -0.01311476 -0.01305968 -0.013008 -0.01296008 -0.0129165 -0.01287497 -0.01283507 -0.01279715
 -0.01276106 -0.01273097 -0.01270696 -0.01268995 -0.01267908 -0.01266766 -0.01265467 -0.01263105 -0.01259822 -0.01255467
 -0.01250456 -0.01245555 -0.0124102 -0.01237641 -0.01235147 -0.01233639 -0.0123259 -0.01231649 -0.01230587 -0.01229162
 -0.01227529 -0.01225711 -0.01223748 -0.01221706 -0.01219237 -0.01216314 -0.01212562 -0.01207938 -0.01202476 -0.01196193
 -0.01189585 -0.0118269 -0.0117606 -0.01169674 -0.01163738 -0.01158173 -0.01152844 -0.01147712 -0.01142618 -0.01137591
 -0.01132621 -0.01127682 -0.01122766 -0.01117793 -0.01112674 -0.01107471 -0.01102141 -0.01096955 -0.01091984 -0.01087439
 -0.01083424 -0.01079753 -0.0107645 -0.01073008 -0.01069393 -0.0106516 -0.01060297 -0.01054847 -0.01048868 -0.01042914
 -0.01037043 -0.01031864 -0.01027311 -0.01023568 -0.01020407 -0.01017483 -0.01014528 -0.01010996 -0.01006784 -0.01001504
 -0.009954317 -0.009885234 -0.009814311 -0.009744337 -0.009680401 -0.009625759 -0.009577983 -0.009537954 -0.009497656 -0.009456033
 -0.00940808 -0.009353036 -0.009293696 -0.009230232 -0.00916825 -0.009107547 -0.0090486 -0.008990245 -0.008926708 -0.008857526
 -0.008777281 -0.008688402 -0.008592362 -0.00849411 -0.008401686 -0.008317957 -0.008250442 -0.008194835 -0.008152098 -0.00811227
 -0.008070846 -0.008020929 -0.007957951 -0.007885055 -0.007801292 -0.007715448 -0.007628873 -0.007545458 -0.007465865 -0.007387472
 -0.007310205 -0.007233643 -0.007158338 -0.007090186 -0.007029394 -0.006980876 -0.006942803 -0.0069123 -0.00688672 -0.006858767
 -0.006827405 -0.006787791 -0.006740315 -0.006683288 -0.006618443 -0.006545738 -0.006469242 -0.006390208 -0.006314315 -0.006243979
 -0.006181523 -0.006128547 -0.006081926 -0.006041819 -0.00600208 -0.005962172 -0.005918012 -0.005869435 -0.00581812 -0.005764635
 -0.005715862 -0.005672142 -0.005639574 -0.005616635 -0.005601937 -0.005592992 -0.005583299 -0.005572202 -0.005555284 -0.005534458
 -0.005510356 -0.005483977 -0.00545673 -0.00542747 -0.005395859 -0.00536138 -0.005323208 -0.005283817 -0.005243365 -0.005205364
 -0.005170523 -0.005139629 -0.005112906 -0.005089199 -0.005068445 -0.005048613 -0.005029512 -0.005008505 -0.004985209 -0.004955803
 -0.004920641 -0.004878077 -0.004830512 -0.004782043 -0.004735884 -0.00469973 -0.004672918 -0.004659519 -0.004652179 -0.004647748
 -0.004636968 -0.004613099 -0.004575192 -0.004519558 -0.004455967 -0.004385521 -0.004318989 -0.004258799 -0.004206391 -0.004162481
 -0.004121147 -0.004082108 -0.004041955 -0.004000976 -0.003962092 -0.003925459 -0.003893995 -0.003866431 -0.003840122 -0.003813335
 -0.003780229 -0.003741215 -0.003693154 -0.003640407 -0.003585765 -0.003535366 -0.003495424 -0.003467577 -0.003456488 -0.003453685
 -0.003458754 -0.003457571 -0.003446294 -0.003417564 -0.003368343 -0.003305865 -0.003229925 -0.003155838 -0.003084437 -0.003026022
 -0.002980242 -0.002945293 -0.00291958 -0.002892679 -0.002863802 -0.002823848 -0.002774819 -0.002716179 -0.00265191 -0.002588526
 -0.002528063 -0.002476163 -0.002430916 -0.002393056 -0.002359152 -0.002327149 -0.002296246 -0.002265008 -0.002236491 -0.002210885
 -0.002192391 -0.002182011 -0.002180225 -0.002187571 -0.002198492 -0.002212719 -0.002221761 -0.002225271 -0.0022168 -0.002196325
 -0.002160473 -0.002109273 -0.002040719 -0.001955477 -0.001853122 -0.001736835 -0.001610132 -0.001479942 -0.00135486 -0.00124205
 -0.00115131 -0.00108215 -0.0010398 -0.001011304 -0.0009952397 -0.0009714159 -0.0009332039 -0.0008741775 -0.000789352 -0.0007001808
 -0.0006081581 -0.0005322777 -0.0004738557 -0.0004308779 -0.000402989 -0.0003839471 -0.0003742506 -0.00037444 -0.0003848258 -0.0004075364
 -0.0004409946 -0.000482694 -0.0005303482 -0.0005791322 -0.0006270861 -0.0006699006 -0.0007069485 -0.0007351429 -0.0007584927 -0.0007769233
 -0.0007993612 -0.0008297925 -0.0008717213 -0.0009288575 -0.0009910712 -0.001058147 -0.001114722 -0.001158814 -0.001184775 -0.00119207
 -0.001184274 -0.001161587 -0.001127359 -0.001081916 -0.001028085 -0.0009678158 -0.0009098626 -0.0008565051 -0.0008195766 -0.0007960508
 -0.0007888859 -0.0007868139 -0.0007775768 -0.0007521287 -0.0006948648 -0.0006145138 -0.0005083942 -0.000397785 -0.0002905627 -0.0002006916
 -0.0001341804 -9.380237E-05 -8.100039E-05 -9.585104E-05 -0.0001389492 -0.0002051109 -0.0002942419 -0.0003907148 -0.0004937367 -0.0005884268
 -0.0006753034 -0.000751375 -0.0008166946 -0.0008705369 -0.0009109508 -0.000931267 -0.0009328785 -0.0009133193 -0.0008795984 -0.0008397958
 -0.0007980034 -0.0007620458 -0.0007282982 -0.0006962533 -0.0006643375 -0.0006301016 -0.0006002827 -0.0005767529 -0.0005620371 -0.0005583409
 -0.000555782 -0.0005535726 -0.000543004 -0.0005232347 -0.0004996703 -0.0004727524 -0.0004518802 -0.0004362248 -0.0004243484 -0.0004145506
 -0.0003983693 -0.0003764843 -0.0003455216 -0.0003089781 -0.0002715472 -0.000236276 -0.0002096699 -0.000191047 -0.0001832162 -0.0001809386
 -0.000181936 -0.0001819395 -0.0001770934 -0.0001718654 -0.0001659299 -0.0001679076 -0.0001806532 -0.000200878 -0.0002298321 -0.0002487559
 -0.0002564403 -0.0002394478 -0.0001981842 -0.0001436474 -7.820284E-05 -2.610774E-05 1.388069E-05 3.253195E-05 3.601212E-05 3.705386E-05
 3.878183E-05 5.55627E-05 8.08268E-05 0.0001129491 0.0001425956 0.0001585686 0.0001622968 0.0001486604 0.0001308474 0.0001136757
 0.000104979 0.0001108534 0.0001199505 0.0001323368 0.00012941 0.000107814 6.736562E-05 7.187477E-06 -4.902934E-05 -0.0001001804
 -0.0001248273 -0.0001246344 -0.000102887 -6.244547E-05 -1.900797E-05 2.955059E-05 8.061398E-05 0.0001385509 0.0002133275 0.0003001338
 0.0004002927 0.0004981678 0.0005801182 0.000634421 0.0006474139 0.0006220196 0.0005543039 0.0004568482 0.0003308983 0.0001939058
 4.769564E-05 -8.445307E-05 -0.0001997765 -0.0002793016 -0.0003209517 -0.0003297675 -0.0003057936</values></Ydata></AB><ScSm><Ydata ylabel="Single channel"><values byteorder="INTEL" format="FLOAT32" numvalues="1814"> 0.08111656 0.08121673 0.08132847 0.08146027 0.08160757 0.08175704 0.08189602 0.08202023 0.08213205 0.082232
 0.08232069 0.08241089 0.08252466 0.08267121 0.08283442 0.08298483 0.08310133 0.08318843 0.08327732 0.08339714
 0.08353478 0.08363399 0.08364698 0.08358681 0.08352093 0.08351098 0.08357175 0.08370379 0.08393344 0.08425169
 0.08452588 0.0845829 0.0844236 0.08425799 0.08427224 0.08444185 0.08461504 0.08468381 0.08462711 0.0844972
 0.08444306 0.08466495 0.08523265 0.08593506 0.08634375 0.08605945 0.08497687 0.08343048 0.0821175 0.08173593
 0.082483 0.08383903 0.08495562 0.08534098 0.08513036 0.08472813 0.08438139 0.08417048 0.08419812 0.08457394
 0.08523843 0.08589059 0.0861052 0.08561058 0.08459212 0.0836641 0.08337066 0.0837621 0.08457495 0.08555637
 0.08623371 0.08567011 0.08328131 0.08010161 0.07848321 0.0799329 0.08353762 0.08691306 0.08837885 0.0878664
 0.08624588 0.08454583 0.08367126 0.08409753 0.0855653 0.08733904 0.08879097 0.08957331 0.08946581 0.08847509
 0.08704071 0.08585113 0.08545947 0.0861216 0.08769728 0.08949487 0.09054013 0.09033799 0.08924572 0.08800459
 0.08718954 0.08717197 0.08814745 0.08991232 0.09187697 0.09349936 0.09457089 0.09510638 0.09521055 0.09505221
 0.09478124 0.0945074 0.09441508 0.09467225 0.09510618 0.09523179 0.09478855 0.09409145 0.09371451 0.09389996
 0.09434862 0.09458263 0.09442079 0.09390575 0.09282599 0.09080729 0.08807999 0.08561562 0.0841842 0.08380555
 0.08435711 0.08591191 0.08800088 0.08936598 0.08921507 0.08828802 0.08806342 0.0891591 0.09092978 0.09241173
 0.09326285 0.09383295 0.09460707 0.09565589 0.09649116 0.09642752 0.09528226 0.09382008 0.09325227 0.09406792
 0.09555423 0.09667166 0.09714818 0.09746378 0.09799645 0.09847289 0.09820636 0.09683256 0.09493188 0.0938326
 0.09452064 0.0966676 0.09879582 0.09939463 0.0979958 0.09543071 0.09313169 0.09209986 0.09250911 0.0941101
 0.09658812 0.0994111 0.1017408 0.1028544 0.1026439 0.1016037 0.1002894 0.09879817 0.09695749 0.09512487
 0.09441203 0.09565413 0.09834346 0.1010268 0.1026459 0.103134 0.1028383 0.1018105 0.09988701 0.09741484
 0.09558718 0.09556856 0.09717376 0.09889694 0.09950904 0.09921271 0.09897581 0.09920773 0.0995234 0.09954324
 0.09946139 0.09976558 0.1006106 0.1016194 0.1022808 0.1024206 0.1022457 0.1020487 0.1019289 0.1017326
 0.1012927 0.1008001 0.100794 0.1015963 0.1028802 0.1039971 0.1046169 0.1048642 0.1049285 0.1047409
 0.1040915 0.1030389 0.1021121 0.1019377 0.1026317 0.103709 0.1046013 0.105083 0.1052182 0.1051446
 0.1049807 0.1047966 0.1046272 0.1045507 0.1046786 0.1050069 0.1053696 0.1056025 0.1056788 0.1056495
 0.1055341 0.1053259 0.1050635 0.1048501 0.1047869 0.1048923 0.1051029 0.1053377 0.1055314 0.1056207
 0.1055699 0.1054184 0.1052551 0.1051363 0.105063 0.1050323 0.1050625 0.1051566 0.1052745 0.1053611
 0.1053928 0.1053823 0.1053461 0.1052884 0.1052161 0.1051517 0.1051255 0.1051545 0.1052244 0.1052979
 0.105357 0.1054271 0.1055292 0.105625 0.1056506 0.1055977 0.1055247 0.1054919 0.1055146 0.1055731
 0.1056373 0.1056746 0.1056542 0.1055686 0.1054605 0.1054106 0.1054771 0.1056527 0.1058886 0.1061354
 0.1063497 0.1064995 0.1065905 0.106662 0.1067396 0.1068115 0.1068598 0.1068969 0.1069635 0.1070957
 0.1072901 0.107502 0.1076836 0.107817 0.1079113 0.1079912 0.1080941 0.1082405 0.1083956 0.1084961
 0.1085314 0.1085638 0.1086523 0.1087831 0.1088936 0.1089488 0.1089751 0.1090246 0.1091197 0.1092391
 0.1093512 0.10945 0.1095555 0.1096828 0.1098109 0.1098897 0.1098895 0.1098395 0.1097997 0.1098003
 0.1098295 0.109874 0.1099407 0.1100328 0.1101251 0.1101818 0.1101932 0.1101868 0.1101956 0.1102211
 0.1102338 0.1102097 0.1101563 0.1101016 0.1100686 0.1100597 0.1100592 0.1100468 0.110012 0.1099577
 0.1098921 0.1098199 0.1097413 0.1096609 0.109599 0.1095837 0.1096157 0.109642 0.1095877 0.1094259
 0.1092075 0.1090134 0.1088849 0.1088009 0.1087114 0.1085843 0.1084248 0.1082605 0.1081146 0.1079919
 0.1078829 0.1077782 0.1076818 0.1076137 0.1075886 0.107588 0.1075634 0.1074805 0.1073551 0.1072341
 0.1071482 0.1070948 0.1070576 0.1070263 0.1070028 0.106998 0.1070195 0.1070549 0.1070781 0.1070793
 0.1070768 0.1070976 0.1071576 0.1072604 0.1073925 0.1075185 0.1076036 0.1076512 0.1077022 0.1077908
 0.1079152 0.1080553 0.1082009 0.1083546 0.1085187 0.1086932 0.1088824 0.1090952 0.1093361 0.1095981
 0.1098651 0.1101222 0.1103677 0.1106164 0.110889 0.1111941 0.1115207 0.1118487 0.1121648 0.1124705
 0.1127758 0.1130874 0.1134042 0.1137242 0.1140549 0.1144065 0.1147785 0.1151573 0.1155311 0.1158999
 0.1162694 0.1166414 0.1170126 0.1173832 0.1177646 0.1181703 0.1185949 0.1190063 0.1193714 0.1196911
 0.1200007 0.1203383 0.1207163 0.1211162 0.1215014 0.121842 0.1221416 0.1224354 0.1227534 0.1230906
 0.1234254 0.1237587 0.1241181 0.1245206 0.1249399 0.1253206 0.125627 0.125876 0.1261177 0.1263845
 0.1266641 0.126926 0.1271616 0.1273897 0.1276286 0.1278801 0.1281427 0.1284242 0.1287282 0.1290372
 0.1293233 0.1295747 0.1298032 0.1300232 0.1302319 0.1304122 0.1305523 0.1306647 0.1307831 0.1309342
 0.131113 0.1312922 0.1314579 0.1316229 0.131806 0.1320135 0.1322454 0.1325056 0.1327924 0.1330888
 0.1333794 0.133675 0.1340006 0.1343531 0.1346872 0.1349621 0.1351872 0.1354034 0.1356341 0.1358771
 0.1361348 0.1364231 0.1367481 0.1370932 0.1374332 0.1377541 0.1380617 0.1383786 0.1387207 0.1390699
 0.1393816 0.1396288 0.1398308 0.1400342 0.1402745 0.1405565 0.1408623 0.1411674 0.1414537 0.1417068
 0.1419093 0.1420465 0.1421243 0.1421701 0.1422019 0.1422028 0.1421313 0.1419549 0.1416625 0.1412505
 0.14071 0.1400381 0.1392615 0.1384487 0.1376996 0.137119 0.1367873 0.1367441 0.1369864 0.1374714
 0.1381209 0.1388325 0.1394989 0.1400236 0.1403268 0.1403541 0.1400929 0.1395793 0.1388796 0.138064
 0.137193 0.1363139 0.135463 0.1346831 0.1340546 0.1337047 0.1337724 0.134357 0.1354831 0.1370822
 0.1389877 0.1409702 0.1428205 0.1444282 0.1457911 0.1469635 0.1480028 0.1489529 0.1498471 0.1507049
 0.1515264 0.1523011 0.1530225 0.1536919 0.1543091 0.154865 0.1553425 0.1557224 0.1559936 0.1561646
 0.1562617 0.156315 0.1563476 0.1563773 0.1564098 0.1564205 0.1563525 0.1561465 0.1557772 0.1552683
 0.1546962 0.1541939 0.1539457 0.1541439 0.1549099 0.15622 0.1578985 0.1596961 0.1613954 0.1628671
 0.1640647 0.1650018 0.1657342 0.166334 0.1668592 0.1673416 0.1677954 0.1682277 0.1686424 0.1690431
 0.1694348 0.1698222 0.17021 0.1706013 0.1709943 0.1713813 0.1717573 0.1721275 0.1725047 0.1728976
 0.1733013 0.1737028 0.1740961 0.1744883 0.1748857 0.1752795 0.1756546 0.1760097 0.1763599 0.1767196
 0.1770933 0.1774778 0.1778644 0.1782382 0.178587 0.1789127 0.179228 0.1795447 0.1798652 0.1801865
 0.1805053 0.1808205 0.1811316 0.1814389 0.1817454 0.1820548 0.1823649 0.1826677 0.1829566 0.183235
 0.1835128 0.1837965 0.1840844 0.1843697 0.1846465 0.1849172 0.185193 0.1854845 0.1857906 0.1860987
 0.1863954 0.1866769 0.1869497 0.1872232 0.1875022 0.1877841 0.1880626 0.1883345 0.1886017 0.1888697
 0.1891428 0.1894225 0.1897053 0.1899856 0.1902599 0.1905298 0.1907997 0.1910715 0.1913428 0.1916118
 0.1918806 0.1921526 0.1924265 0.1926961 0.1929558 0.1932052 0.1934477 0.1936886 0.1939339 0.1941881
 0.1944512 0.194719 0.1949861 0.1952492 0.1955089 0.1957679 0.1960284 0.1962902 0.1965522 0.1968132
 0.1970735 0.1973349 0.1975985 0.1978624 0.1981235 0.1983811 0.1986372 0.1988948 0.1991559 0.1994208
 0.1996862 0.1999482 0.2002072 0.2004669 0.2007289 0.2009901 0.2012465 0.2014974 0.2017466 0.2019998
 0.202259 0.2025196 0.2027763 0.203028 0.2032765 0.203524 0.2037732 0.2040269 0.2042853 0.2045459
 0.2048067 0.2050661 0.2053223 0.2055746 0.205824 0.206072 0.2063207 0.2065722 0.206827 0.2070838
 0.2073426 0.2076039 0.2078675 0.2081323 0.2083955 0.2086541 0.2089084 0.2091637 0.2094225 0.2096821
 0.2099411 0.2102028 0.2104685 0.2107356 0.2110027 0.2112716 0.2115434 0.2118188 0.2120972 0.2123768
 0.2126566 0.2129374 0.2132159 0.213485 0.2137422 0.2139929 0.2142413 0.2144869 0.2147305 0.2149741
 0.2152183 0.2154644 0.2157149 0.2159694 0.2162244 0.2164789 0.2167349 0.2169945 0.2172607 0.2175342
 0.2178093 0.2180805 0.2183502 0.2186222 0.2188948 0.2191655 0.219436 0.2197068 0.2199771 0.2202492
 0.2205263 0.2208085 0.2210953 0.221386 0.2216758 0.2219604 0.2222418 0.2225222 0.2227999 0.2230781
 0.2233637 0.223655 0.2239436 0.2242268 0.2245062 0.2247841 0.2250663 0.2253577 0.2256534 0.2259457
 0.2262343 0.2265197 0.2267983 0.2270731 0.2273542 0.2276457 0.2279449 0.2282492 0.2285508 0.2288389
 0.2291164 0.2293964 0.229682 0.2299677 0.230253 0.2305382 0.2308193 0.2310973 0.2313726 0.2316316
 0.2318507 0.2319836 0.2318971 0.2312958 0.2296807 0.2263597 0.2205794 0.2118196 0.2000997 0.1860752
 0.1708615 0.1556855 0.1415501 0.1290921 0.1186539 0.1104133 0.1044756 0.1009568 0.1000492 0.1021132
 0.1078 0.1176684 0.1307607 0.1433593 0.1503609 0.149127 0.1418713 0.1336547 0.1282618 0.1263271
 0.1265926 0.1278031 0.1294574 0.1316669 0.1347238 0.138662 0.1432163 0.1482517 0.1540136 0.1607544
 0.1682479 0.1758673 0.1831075 0.1899108 0.1964924 0.2029536 0.2091248 0.2147266 0.219588 0.2237089
 0.2272033 0.2302277 0.2329172 0.2353556 0.2375949 0.2396661 0.2415385 0.2430972 0.2442087 0.2448286
 0.2450546 0.2450818 0.2450954 0.2451921 0.2453884 0.245675 0.2460402 0.2464678 0.2469446 0.2474648
 0.2480176 0.2485863 0.2491595 0.2497279 0.2502749 0.250789 0.2512742 0.2517391 0.2521856 0.2526124
 0.253019 0.2534049 0.2537754 0.2541399 0.2545019 0.2548594 0.2552119 0.2555567 0.2558852 0.2561921
 0.2564807 0.2567562 0.2570217 0.2572838 0.2575484 0.2578135 0.2580735 0.2583268 0.2585738 0.2588162
 0.2590568 0.259297 0.2595346 0.2597697 0.2600051 0.2602406 0.2604731 0.2607032 0.2609336 0.2611646
 0.2613961 0.2616297 0.2618642 0.2620959 0.2623231 0.2625476 0.2627756 0.2630174 0.2632791 0.2635524
 0.2638239 0.2640908 0.26436 0.2646338 0.2649083 0.2651792 0.2654453 0.2657095 0.2659788 0.2662558
 0.26653 0.2667844 0.2670109 0.2672178 0.2674238 0.2676452 0.267884 0.268129 0.2683701 0.2686064
 0.2688426 0.269083 0.2693282 0.2695747 0.2698203 0.2700721 0.2703417 0.2706295 0.2709241 0.2712176
 0.2715103 0.2718024 0.2720919 0.2723803 0.2726687 0.2729518 0.2732241 0.2734916 0.2737735 0.2740884
 0.2744344 0.2747859 0.2751158 0.2754229 0.2757262 0.2760418 0.2763719 0.2767048 0.2770126 0.2772686
 0.2774865 0.2777275 0.2780459 0.278438 0.2788534 0.2792459 0.2796017 0.2799314 0.2802484 0.2805558
 0.2808446 0.2811056 0.2813484 0.2816101 0.2819308 0.2823091 0.2826984 0.2830546 0.2833726 0.2836685
 0.2839545 0.284238 0.2845082 0.2847205 0.28484 0.2849236 0.2851079 0.2854804 0.2859849 0.2864823
 0.2868884 0.2872215 0.2875313 0.287833 0.2881204 0.2883729 0.288516 0.2884579 0.2882532 0.2881646
 0.2884483 0.2890946 0.2898555 0.290499 0.2909621 0.2912983 0.2915763 0.291835 0.2920606 0.2921835
 0.2921542 0.2920601 0.2921159 0.2924678 0.2930266 0.2935636 0.2939507 0.2942336 0.2945048 0.2948
 0.2950788 0.2952029 0.2949949 0.2944767 0.2940307 0.294152 0.2949699 0.296104 0.2970473 0.2976182
 0.2979636 0.2982079 0.2982674 0.2980082 0.2974132 0.2965846 0.29579 0.2955126 0.2961372 0.2974566
 0.2987533 0.2995212 0.2999043 0.3003302 0.3009515 0.301582 0.3019983 0.30214 0.302068 0.3018319
 0.301446 0.3010396 0.3009459 0.3014674 0.3025247 0.3036717 0.3045125 0.3050148 0.3053376 0.3053756
 0.3046324 0.302809 0.3005861 0.2994604 0.3004177 0.3028974 0.3053993 0.3069668 0.3077179 0.3081514
 0.3084942 0.3086308 0.3080912 0.3062042 0.3030033 0.3000247 0.299383 0.3016904 0.3053756 0.3082094
 0.3090104 0.3078936 0.3057119 0.3036627 0.3028621 0.3037336 0.3058264 0.3082783 0.3103384 0.3115723
 0.3118848 0.3114749 0.3107554 0.3102485 0.3102579 0.3104197 0.3099263 0.3085744 0.3071509 0.3062196
 0.3050883 0.3029406 0.3006555 0.3002709 0.3024639 0.3055716 0.3075184 0.3079441 0.3078423 0.3075584
 0.3059628 0.3019378 0.2964394 0.2924851 0.2925724 0.2961841 0.300301 0.3023738 0.3023439 0.3017846
 0.301683 0.3013949 0.2996058 0.2961885 0.2929296 0.2919347 0.2932729 0.2948785 0.2948394 0.2927482
 0.2887093 0.2828445 0.2768559 0.2743701 0.2777472 0.2851464 0.2921454 0.2955607 0.2944614 0.2888632
 0.2800378 0.2718739 0.2691411 0.2731019 0.2800431 0.284867 0.2851149 0.2810943 0.2738096 0.2645056
 0.2557279 0.2510119 0.2526331 0.2597746 0.2686896 0.274332 0.2729294 0.2649953 0.2560796 0.2525967
 0.255804 0.2609717 0.2629525 0.2610283 0.2578487 0.2558111 0.2557318 0.2573046 0.2594538 0.2611784
 0.2623242 0.2621828 0.2580759 0.2483186 0.2366511 0.2302599 0.2323658 0.2396299 0.2476029 0.2552026
 0.2622263 0.2661405 0.2647767 0.260625 0.2592424 0.2633173 0.2701041 0.2749233 0.2759063 0.2747534
 0.273635 0.2726014 0.2706583 0.2685614 0.2688574 0.2727146 0.2780938 0.2819617 0.2833343 0.2832846
 0.2829093 0.2824069 0.2816357 0.2805654 0.2792395 0.2777951 0.2764503 0.2752619 0.2740841 0.2728536
 0.2715167 0.2694182 0.2653558 0.2591541 0.2530062 0.2499644 0.2507457 0.2532893 0.2557292 0.2577473
 0.258082 0.2535107 0.2430604 0.2317759 0.2272501 0.2322903 0.2426796 0.2518985 0.2562621 0.2553791
 0.2499646 0.2415166 0.2339052 0.2326964 0.2408554 0.2556428 0.2710826 0.2830238 0.2907157 0.2944834
 0.2941424 0.290201 0.2852091 0.2827573 0.2850264 0.2913667 0.298803 0.3034082 0.3020079 0.2947924
 0.2870755 0.2860783 0.2937502 0.3041712 0.3100892 0.3105336 0.3097655 0.3105264 0.3116814 0.3119557
 0.3125763 0.3151852 0.3191251 0.3219791 0.3217405 0.3176664 0.3102588 0.3018298 0.2961324 0.2954084
 0.2979279 0.2999794 0.2996825 0.2970414 0.2916118 0.2834824 0.2761811 0.2748019 0.2802216 0.2877795
 0.2925914 0.2941048 0.2946063 0.2950995 0.2941216 0.2901984 0.2844566 0.2801383 0.2794154 0.2813319
 0.2833707 0.2841862 0.2838161 0.2820927 0.2786353 0.2745367 0.2725305 0.2745698 0.2797435 0.2851702
 0.2886557 0.2900417 0.290369 0.2905347 0.2908024 0.290967 0.2908085 0.2907265 0.2917771 0.29453
 0.2980586 0.3007747 0.3022591 0.3036079 0.3058897 0.3088384 0.3112689 0.3123969 0.3125373 0.3127107
 0.3137254 0.3155104 0.3171824 0.3178234 0.3173827 0.3168405 0.3173292 0.3190605 0.3212454 0.3230072
 0.3241211 0.32489 0.3256448 0.3264651 0.3271438 0.3273607 0.3271074 0.3269497 0.3276067 0.3291993
 0.3310983 0.332554 0.3333076 0.3335594 0.3335496 0.3333241 0.3328469 0.3321959 0.3315804 0.3311857
 0.3310409 0.3310441 0.3310803 0.3310944 0.3310893 0.3311015 0.3311746 0.3313238 0.3315265 0.3317541
 0.3319911 0.3322141 0.3323894 0.3325117 0.3326141 0.332711 0.3327539 0.3326621 0.3323744 0.3318543
 0.3310675 0.3299769 0.3285496 0.3267465 0.3245315 0.3219779 0.3194354 0.317559 0.317037 0.3181572
 0.3205818 0.3235383 0.3262553 0.3282945 0.3295971 0.3303259 0.3306845 0.3308218 0.3308163 0.3306966
 0.3304741 0.3301663 0.3297976 0.329389 0.328961 0.3285421 0.3281603 0.3278252 0.3275208 0.3272139
 0.3268659 0.3264468 0.3259466 0.325374 0.3247398 0.3240389 0.323248 0.3223448 0.3213348 0.3202601
 0.319182 0.3181514 0.317185 0.3162589 0.3153263 0.3143377 0.3132336 0.3119428 0.3104462 0.3088673
 0.3074372 0.3063132 0.3054395 0.3046155 0.3036745 0.302571 0.3013348 0.3000073 0.2986227 0.2972076
 0.2957702 0.2942934 0.2927437 0.2910902 0.2893234 0.2874591 0.285521 0.2835257 0.2814853 0.2794105
 0.2772848 0.27503 0.2725049 0.2695442 0.2660059 0.2617998 0.256905 0.251389 0.2454169 0.239224
 0.2330583 0.2271307 0.2216052 0.2166176 0.2122875 0.2087128 0.2059591 0.2040634 0.2030473 0.2029233
 0.2036837 0.2052861 0.2076456 0.2106353 0.2140901 0.2178164 0.2216085 0.2252733 0.2286726 0.2317678
 0.2346146 0.2372909 0.2398203 0.2421663 0.2442823 0.2461456 0.2477503 0.2490951 0.2501889 0.2510621
 0.251763 0.2523409 0.2528284 0.2532348 0.2535552 0.2537879 0.2539472 0.254063 0.2541714 0.2543049
 0.2544848 0.2547203 0.2550147 0.2553762 0.2558201 0.2563614 0.2570032 0.257731 0.2585154 0.2593273
 0.2601612 0.2610462 0.2620323 0.2631666 0.2644808 0.2659868 0.267672 0.2694916 0.2713656 0.2731867
 0.2748408 0.2762342 0.2773139 0.2780715 0.2785308 0.2787253 0.2786847 0.2784374 0.2780171 0.2774579
 0.2767865 0.2760234 0.2751882 0.2742969 0.2733541 0.2723566 0.2713089 0.270235 0.2691666 0.2681186
 0.2670847 0.2660614 0.2650612 0.2640986 0.2631739 0.2622783 0.2614056 0.2605557 0.2597355 0.2589535
 0.2582057 0.2574686 0.2567043 0.2558683 0.2549162 0.2538163 0.2525583 0.2511484 0.2496003 0.2479266
 0.2461334 0.2442214 0.2421982 0.2400843 0.237901 0.2356545 0.2333317 0.2309135 0.2284083 0.2258806
 0.2234293 0.2211302 0.2190039 0.2170344 0.2151943 0.2134588 0.2118112 0.2102424 0.2087425 0.2073022
 0.2059205 0.2046031 0.2033547 0.2021802 0.2010844 0.2000712 0.1991507 0.1983419 0.1976549 0.1970773
 0.1965865 0.1961671 0.1958207 0.1955731 0.1954609 0.1954839 0.1955765 0.1956417 0.1956153 0.1954992
 0.1953472 0.1952188 0.1951371 0.1950871 0.1950392 0.1949506 0.1947512 0.1943516 0.1936626 0.1926035
 0.1911235 0.1892405 0.1870505 0.1847012 0.1823642 0.1802043 0.1783401 0.1768278 0.175672 0.1748235
 0.1741843 0.1736656 0.1732534 0.1730116 0.1730223 0.1732969 0.1737084 0.1740459 0.1741986 0.174279
 0.1745259 0.1751018 0.1759915 0.1770461 0.178089 0.179002 0.1797383 0.1802887 0.1806691 0.1809235
 0.1810865 0.1811496 0.1810906 0.1809079 0.1806098 0.1802059 0.179719 0.1791645 0.1785287 0.1777942
 0.1769595 0.1760199 0.1749708 0.1738216 0.1725584 0.1711402 0.1696097 0.1681841 0.1671744 0.1668141
 0.1671391 0.1679748 0.1690591 0.1702151 0.1713702 0.1724281 0.1732678 0.1739396 0.1747547 0.1760799
 0.1780274 0.1803399 0.1825667 0.1843541 0.185565 0.1861858 0.186247 0.1858213 0.1849647 0.1836588
 0.1819067 0.1798251 0.177567 0.1752582 0.1730414 0.1710466 0.169321 0.1678755 0.166712 0.1658204
 0.1652613 0.164778 0.1628296 0.1571125 0.1478255 0.1398118 0.1389142 0.1456779 0.1545994 0.1600428
 0.1610394 0.1599545 0.1587543 0.1578575 0.1571839 0.156802 0.1567636 0.1569647 0.1571941 0.1572312
 0.1569743 0.1564253 0.1554506 0.1535543 0.1498645 0.1434441 0.1339897 0.1224719 0.1109224 0.101354
 0.09477057 0.09096654 0.0889643 0.08769235 0.08659652 0.0858302 0.08589439 0.08712268 0.08949685 0.09280159
 0.09677488 0.101075 0.1052352 0.1088164 0.1116337 0.11376 0.1153127 0.1163285 0.1168301 0.1168901
 0.1166003 0.1160403 0.1152738 0.1143227 0.1131551 0.111747 0.1101804 0.1086733 0.1074823 0.1067318
 0.1063429 0.1061507 0.1060577 0.1060435 0.1060929 0.1061815 0.1063033 0.1064707 0.1067008 0.1070048
 0.1073625 0.1077161 0.1080065 0.1082058 0.1083103 0.1083206 0.1082194 0.1079766 0.1076079 0.1072003
 0.1067941 0.1062542 0.1053721 0.104137 0.1028474 0.1019263 0.1016338 0.1019129 0.1024589 0.1029447
 0.1032222 0.1033419 0.1034054 0.1034102</values></Ydata></ScSm><ScRf><Ydata ylabel="Single channel"><values byteorder="INTEL" format="FLOAT32" numvalues="1820"> 0.06965517 0.06978698 0.0699037 0.0700047 0.07009445 0.07018457 0.07028938 0.07041498 0.0705544 0.0706927
 0.07081673 0.0709233 0.07101716 0.07110152 0.07117775 0.07125647 0.07135677 0.07148741 0.07163463 0.071771
 0.071875 0.07194933 0.07202405 0.07212938 0.07225609 0.07235323 0.07237568 0.0723322 0.07228046 0.0722743
 0.07232788 0.07244334 0.07264427 0.07292247 0.07316239 0.07321529 0.07308485 0.07295449 0.07298307 0.07314467
 0.07330429 0.07336644 0.07331239 0.07319032 0.0731369 0.07333241 0.07383588 0.07445505 0.07481015 0.07455488
 0.07360585 0.07226323 0.07113786 0.07083312 0.07150941 0.07270303 0.07367241 0.0739966 0.07380338 0.07345
 0.0731516 0.07297658 0.07301239 0.07335168 0.07393959 0.07451181 0.07469732 0.07426263 0.07337621 0.07257738
 0.07233582 0.07268819 0.07340406 0.07426447 0.07485162 0.07434235 0.07223856 0.06946833 0.06809363 0.06940569
 0.0725738 0.07550769 0.07675993 0.07629342 0.07487679 0.07340586 0.07266379 0.07305487 0.07434343 0.07588752
 0.07714632 0.07782102 0.0777209 0.07685582 0.0756142 0.07459588 0.07427736 0.0748758 0.07626238 0.07782708
 0.07872187 0.07852902 0.07757469 0.07650778 0.07582292 0.0758363 0.07671019 0.07825869 0.0799671 0.0813719
 0.08230045 0.08276765 0.08286296 0.08273223 0.08250558 0.08227904 0.08221395 0.0824533 0.08283899 0.08294557
 0.08255418 0.08195074 0.08163802 0.08181806 0.08221883 0.08242236 0.08227977 0.08183427 0.08089586 0.07913283
 0.0767533 0.07461344 0.07338099 0.07306658 0.07356808 0.07495286 0.07679827 0.07799167 0.077851 0.07704537
 0.0768715 0.07785146 0.07940522 0.08069324 0.08143063 0.08193244 0.0826214 0.08355133 0.08428714 0.08422709
 0.08321966 0.08194799 0.08147635 0.0822195 0.08353749 0.08452021 0.08494163 0.08522912 0.08570991 0.0861387
 0.08591315 0.08472061 0.0830801 0.08215957 0.08281112 0.08472615 0.08659815 0.08710992 0.08586917 0.08362139
 0.08162808 0.08076142 0.08116468 0.08261309 0.08482552 0.0873301 0.08939035 0.09037748 0.09020391 0.08930766
 0.08817507 0.08688618 0.08528789 0.08370431 0.08312361 0.08427329 0.08668521 0.08906907 0.0905043 0.09095005
 0.09071698 0.08984046 0.08816707 0.08600919 0.08443601 0.08447827 0.08595276 0.08751079 0.08807262 0.08783746
 0.08766772 0.0879149 0.08822925 0.08827765 0.0882393 0.08854783 0.08933556 0.09026386 0.090881 0.09103747
 0.09092025 0.09078766 0.0907221 0.09058124 0.09021761 0.08981253 0.08985676 0.09063303 0.09183492 0.09287477
 0.09346201 0.09371682 0.0938108 0.09367847 0.09312946 0.09222051 0.09143348 0.09133154 0.09201041 0.09302615
 0.09386687 0.09433402 0.09448993 0.09446168 0.09435669 0.09423647 0.09413126 0.09411146 0.09427547 0.09461609
 0.09498309 0.09523179 0.09533983 0.09535137 0.09528403 0.09513459 0.09493934 0.09478933 0.0947728 0.09490494
 0.0951279 0.09537166 0.09558332 0.09571087 0.09571974 0.09563725 0.09553574 0.09546439 0.09542987 0.09543651
 0.09550202 0.09562513 0.09576732 0.09588162 0.0959486 0.09597625 0.09597547 0.09595066 0.09591143 0.09588003
 0.09588319 0.09593613 0.09602775 0.09612684 0.09621865 0.09632432 0.09645834 0.09658104 0.09663261 0.0966088
 0.09656844 0.096569 0.09662143 0.09670238 0.09678213 0.09683343 0.09683261 0.0967761 0.09670363 0.09668706
 0.0967763 0.09696268 0.09720186 0.09745012 0.09766842 0.09782617 0.09792587 0.09800258 0.09808265 0.09815973
 0.0982192 0.09827095 0.09835113 0.09849349 0.09869432 0.09890839 0.0990867 0.09921291 0.09930183 0.0993841
 0.09949597 0.09965077 0.09980881 0.09990931 0.09994584 0.09997991 0.100066 0.1001898 0.1002949 0.1003516
 0.1003837 0.1004353 0.1005252 0.1006359 0.1007404 0.1008329 0.1009326 0.1010554 0.1011818 0.101261
 0.1012607 0.1012078 0.1011631 0.1011596 0.1011867 0.1012304 0.1012966 0.1013879 0.1014789 0.1015325
 0.1015382 0.101522 0.1015178 0.1015306 0.1015352 0.1015087 0.1014562 0.101403 0.1013689 0.1013543
 0.1013442 0.1013225 0.1012818 0.1012236 0.101152 0.1010709 0.1009853 0.1009056 0.1008528 0.1008504
 0.1008947 0.1009321 0.1008895 0.1007406 0.1005347 0.1003506 0.1002281 0.1001465 0.1000589 0.09993605
 0.09978338 0.09962687 0.09948765 0.09936807 0.09925755 0.09914815 0.09904614 0.09897035 0.09893338 0.09891784
 0.09887909 0.09878466 0.09864804 0.09851293 0.09840936 0.0983367 0.09828093 0.09823301 0.09819435 0.09817526
 0.09818297 0.09820457 0.09821323 0.09819844 0.09817932 0.09818406 0.09822877 0.09831448 0.09842507 0.09852582
 0.09858541 0.09860829 0.09863197 0.09868828 0.09877915 0.09889066 0.09901474 0.09914976 0.09929238 0.09944002
 0.0995979 0.09977619 0.09997974 0.1002028 0.1004319 0.1006542 0.1008665 0.1010797 0.1013127 0.1015753
 0.1018592 0.1021452 0.10242 0.1026835 0.1029446 0.1032104 0.1034826 0.1037627 0.1040565 0.1043685
 0.1046928 0.1050172 0.1053341 0.1056453 0.1059566 0.1062709 0.1065881 0.1069104 0.1072477 0.1076113
 0.107995 0.1083664 0.1086919 0.1089708 0.1092371 0.109528 0.1098555 0.110202 0.1105339 0.1108255
 0.1110829 0.1113409 0.111627 0.1119349 0.1122418 0.1125473 0.1128771 0.1132459 0.1136271 0.1139684
 0.1142387 0.1144581 0.1146761 0.1149208 0.1151754 0.1154081 0.1156143 0.1158182 0.1160377 0.116268
 0.1165025 0.1167513 0.1170246 0.1173084 0.1175738 0.1178067 0.1180157 0.1182126 0.1183951 0.1185494
 0.118666 0.1187544 0.1188434 0.1189586 0.1190986 0.119242 0.1193775 0.1195165 0.1196741 0.1198524
 0.1200496 0.1202706 0.1205174 0.1207758 0.1210289 0.121283 0.1215618 0.1218662 0.1221578 0.1223982
 0.1225936 0.1227799 0.1229773 0.1231827 0.1234003 0.1236493 0.1239384 0.1242493 0.124552 0.1248312
 0.1250976 0.1253787 0.1256893 0.1260077 0.1262891 0.1265084 0.1266845 0.1268613 0.127073 0.1273262
 0.1276049 0.1278861 0.1281527 0.1283937 0.1285948 0.1287419 0.1288382 0.1289083 0.1289705 0.1290084
 0.1289817 0.1288601 0.1286366 0.1283073 0.127858 0.1272808 0.1266029 0.1258931 0.125243 0.12474
 0.1244495 0.1244074 0.1246169 0.1250446 0.1256215 0.1262559 0.1268539 0.12733 0.1276088 0.127635
 0.1273937 0.1269195 0.1262761 0.1255273 0.1247238 0.123903 0.1230961 0.1223461 0.1217329 0.1213775
 0.1214079 0.121912 0.1229062 0.1243184 0.1259869 0.1276993 0.1292734 0.1306259 0.1317702 0.1327604
 0.1336439 0.1344533 0.1352159 0.13595 0.1366568 0.1373259 0.1379514 0.138536 0.1390805 0.1395751
 0.1400015 0.1403408 0.1405833 0.140737 0.1408251 0.1408714 0.1408912 0.1408949 0.1408883 0.1408569
 0.140757 0.1405379 0.1401751 0.1396904 0.1391552 0.1386902 0.1384577 0.1386239 0.1392881 0.1404199
 0.1418604 0.1433981 0.1448546 0.1461205 0.14715 0.1479504 0.1485725 0.1490832 0.149534 0.1499512
 0.1503452 0.1507197 0.1510766 0.1514199 0.1517555 0.1520889 0.1524242 0.1527636 0.1531047 0.1534408
 0.1537687 0.1540945 0.1544299 0.154782 0.1551455 0.1555063 0.1558549 0.1561955 0.1565367 0.1568762
 0.1572033 0.1575155 0.1578239 0.1581408 0.1584705 0.1588108 0.1591544 0.1594879 0.1597999 0.1600913
 0.1603735 0.1606555 0.1609387 0.1612221 0.1615058 0.1617886 0.1620674 0.1623425 0.1626192 0.1629005
 0.1631812 0.1634513 0.1637065 0.1639522 0.1641982 0.1644504 0.1647063 0.1649596 0.165208 0.1654575
 0.1657176 0.1659906 0.1662683 0.1665379 0.1667928 0.167036 0.1672758 0.1675184 0.167765 0.1680136
 0.168263 0.1685147 0.1687699 0.1690279 0.1692859 0.1695405 0.16979 0.1700343 0.1702753 0.1705149
 0.1707548 0.1709967 0.1712432 0.1714959 0.1717542 0.1720146 0.172271 0.1725177 0.1727524 0.1729757
 0.1731911 0.1734051 0.1736264 0.1738603 0.1741053 0.1743545 0.1746008 0.1748413 0.1750783 0.1753167
 0.1755583 0.1758003 0.1760401 0.1762797 0.1765243 0.176775 0.177026 0.1772689 0.1775021 0.1777326
 0.1779681 0.178209 0.178451 0.1786908 0.1789269 0.1791591 0.1793891 0.1796202 0.1798539 0.18009
 0.1803292 0.1805714 0.1808126 0.181048 0.1812764 0.1815017 0.181729 0.1819595 0.1821894 0.1824159
 0.1826411 0.18287 0.1831047 0.1833445 0.1835871 0.1838289 0.1840683 0.1843069 0.1845464 0.1847849
 0.1850202 0.1852532 0.1854859 0.1857187 0.185953 0.1861909 0.186433 0.1866774 0.1869223 0.1871657
 0.1874068 0.1876472 0.1878878 0.1881277 0.1883688 0.188615 0.1888671 0.1891213 0.189375 0.1896271
 0.1898755 0.1901204 0.1903677 0.1906224 0.1908839 0.1911475 0.1914077 0.1916595 0.1919013 0.1921353
 0.1923639 0.1925894 0.1928151 0.1930428 0.1932708 0.193498 0.1937247 0.1939498 0.1941739 0.1944034
 0.1946433 0.1948911 0.195141 0.1953897 0.1956348 0.1958768 0.1961207 0.1963702 0.1966237 0.1968784
 0.1971329 0.1973842 0.1976319 0.197882 0.1981399 0.1984031 0.1986682 0.1989356 0.1992043 0.1994725
 0.1997418 0.2000122 0.20028 0.200545 0.2008117 0.2010793 0.2013427 0.2016004 0.2018542 0.2021067
 0.2023647 0.2026339 0.2029092 0.2031825 0.2034552 0.2037315 0.2040085 0.2042832 0.204556 0.2048262
 0.2050946 0.2053663 0.2056408 0.2059117 0.2061805 0.2064548 0.2067332 0.2070095 0.207285 0.20756
 0.2078278 0.2080884 0.2083475 0.2085998 0.208824 0.208969 0.2089045 0.2083626 0.2068996 0.203898
 0.1986799 0.1907739 0.1801963 0.1675418 0.1538224 0.1401499 0.1274282 0.1162254 0.1068444 0.09944411
 0.09412088 0.09097883 0.09019026 0.09208349 0.0972548 0.1062097 0.1180631 0.1294281 0.1356914 0.1345079
 0.1279241 0.1205226 0.1156953 0.113987 0.114254 0.1153665 0.116875 0.1188839 0.1216602 0.1252345
 0.1293652 0.1339328 0.1391638 0.145286 0.1520885 0.1589998 0.1655645 0.1717337 0.1777005 0.1835529
 0.1891379 0.1942101 0.1986215 0.2023695 0.2055489 0.208295 0.2107324 0.2129437 0.2149823 0.2168766
 0.2185938 0.2200242 0.2210464 0.2216249 0.221853 0.2219071 0.2219508 0.2220663 0.2222658 0.2225402
 0.2228817 0.2232803 0.2237276 0.2242198 0.2247452 0.2252842 0.225822 0.226351 0.2268646 0.2273599
 0.2278365 0.22829 0.228716 0.2291204 0.2295119 0.2298907 0.2302562 0.2306138 0.2309687 0.2313207
 0.2316697 0.2320143 0.2323461 0.2326553 0.2329399 0.2332062 0.2334643 0.233724 0.2339866 0.2342455
 0.2344981 0.2347502 0.2350055 0.2352609 0.2355124 0.2357581 0.2359992 0.2362403 0.2364855 0.2367318
 0.236973 0.2372087 0.2374412 0.2376708 0.2378984 0.2381282 0.2383627 0.2386005 0.2388409 0.2390844
 0.2393323 0.2395876 0.2398508 0.2401154 0.2403741 0.2406286 0.2408857 0.2411479 0.2414148 0.2416873
 0.2419654 0.2422462 0.2425281 0.2428088 0.2430806 0.2433337 0.2435655 0.2437844 0.2440053 0.2442398
 0.2444869 0.2447359 0.2449793 0.2452191 0.2454604 0.2457056 0.245954 0.2462036 0.2464526 0.2467042
 0.2469652 0.2472365 0.2475125 0.2477912 0.2480763 0.2483684 0.2486632 0.2489587 0.2492538 0.2495436
 0.2498228 0.2500959 0.2503797 0.2506908 0.2510276 0.2513678 0.2516886 0.2519887 0.2522844 0.2525926
 0.2529207 0.2532607 0.253582 0.2538504 0.2540722 0.2543048 0.2546062 0.2549813 0.255385 0.2557687
 0.2561142 0.2564324 0.2567407 0.257044 0.2573318 0.2575924 0.2578342 0.2580929 0.2584071 0.2587775
 0.2591628 0.259522 0.2598471 0.2601493 0.2604384 0.260722 0.2609929 0.2612117 0.2613476 0.2614518
 0.2616497 0.2620236 0.2625219 0.2630108 0.2634068 0.2637292 0.2640341 0.2643423 0.2646434 0.2649085
 0.2650625 0.265023 0.2648478 0.2647856 0.2650743 0.2657025 0.2664371 0.2670594 0.2675112 0.2678479
 0.268139 0.2684193 0.2686682 0.2688152 0.2688154 0.2687543 0.2688334 0.2691878 0.2697341 0.2702621
 0.2706549 0.2709528 0.2712357 0.2715321 0.2718053 0.2719344 0.2717671 0.271333 0.2709831 0.2711598
 0.2719665 0.2730479 0.2739441 0.2744977 0.2748491 0.2751107 0.2751995 0.2749882 0.2744626 0.2737252
 0.273033 0.2728345 0.2734745 0.2747473 0.2759852 0.2767276 0.2771149 0.2775436 0.2781537 0.2787742
 0.279199 0.2793713 0.2793463 0.2791697 0.2788551 0.278524 0.2784874 0.2790245 0.2800551 0.2811599
 0.2819732 0.282472 0.2828088 0.2828843 0.2822336 0.2805793 0.2785594 0.2775691 0.2785204 0.2808816
 0.2832503 0.2847393 0.285467 0.2859035 0.2862603 0.2864285 0.2859687 0.2842575 0.2813326 0.2786314
 0.2781184 0.2803482 0.2838448 0.2865324 0.2873182 0.2863168 0.2843294 0.2824759 0.2817944 0.2826746
 0.2846939 0.2870451 0.2890217 0.2902144 0.2905402 0.2901981 0.2895858 0.2891917 0.2892869 0.2895157
 0.2891207 0.2879223 0.2866618 0.28586 0.284866 0.2829257 0.2808689 0.2805943 0.2827213 0.2856928
 0.2875794 0.2880537 0.2880388 0.2878441 0.2864088 0.2827 0.277629 0.2740257 0.274219 0.2777116
 0.2816707 0.2837114 0.2837821 0.2833575 0.2833636 0.283199 0.281632 0.2785461 0.2756233 0.2748422
 0.2762581 0.2779181 0.2780213 0.2761833 0.2724973 0.267083 0.2615688 0.2593947 0.2627776 0.2699524
 0.2767298 0.2801098 0.2792208 0.2740771 0.2658868 0.258348 0.2559853 0.2599766 0.2667755 0.271542
 0.2719563 0.2683197 0.2615849 0.2529424 0.2448381 0.2406652 0.2425991 0.2498431 0.258785 0.2645598
 0.2635315 0.2562078 0.2479644 0.245001 0.2485105 0.2538894 0.25615 0.2546141 0.2518661 0.2502352
 0.2505134 0.2523988 0.2548323 0.2568299 0.2582388 0.2583498 0.2545084 0.2450538 0.233691 0.2275216
 0.2297187 0.2369807 0.2449227 0.2524889 0.2594777 0.2633736 0.2620275 0.2579043 0.256501 0.2604754
 0.2671143 0.2717988 0.2726943 0.2714944 0.2703497 0.2693086 0.2673881 0.2653408 0.265687 0.2695768
 0.27499 0.2789299 0.28043 0.2805533 0.2803776 0.2800852 0.279523 0.2786584 0.2775407 0.2763139
 0.2751981 0.2742498 0.273319 0.272334 0.2712342 0.2693611 0.265509 0.259497 0.2535111 0.2505934
 0.2514471 0.2540001 0.2563862 0.2582942 0.2584702 0.2536932 0.2429793 0.2313547 0.2263998 0.2309245
 0.2407288 0.2493191 0.2530408 0.2515399 0.2455762 0.2366675 0.2286208 0.2268602 0.2342468 0.2480853
 0.2625544 0.2736336 0.2806205 0.283857 0.2831849 0.2791091 0.2740945 0.2715828 0.2736268 0.2795447
 0.2864426 0.2905592 0.288897 0.2816926 0.274057 0.2728859 0.2800192 0.2897951 0.2953027 0.2956232
 0.2948078 0.2954494 0.2964634 0.2966532 0.2972082 0.2997032 0.3035173 0.3063554 0.3063112 0.3026713
 0.2958983 0.2881798 0.2830839 0.2827357 0.2854671 0.2877281 0.287728 0.2854662 0.2805009 0.272923
 0.2661505 0.2650947 0.2705778 0.2780852 0.2829111 0.2845431 0.2852033 0.2858586 0.2850819 0.2814405
 0.2760344 0.2720237 0.2715284 0.2736264 0.2758709 0.2769411 0.2768498 0.2754102 0.2722416 0.2684127
 0.2665943 0.2686849 0.2737744 0.2790242 0.2822735 0.2833598 0.2833007 0.2829846 0.2826928 0.2822575
 0.281495 0.2808142 0.2812477 0.2833502 0.2862335 0.2883804 0.2894006 0.2903503 0.292247 0.294825
 0.2969418 0.2978387 0.2978073 0.2978185 0.2986491 0.3002426 0.3017652 0.3023434 0.3019236 0.3014336
 0.3019492 0.3036714 0.3058431 0.3076168 0.308764 0.3095638 0.3103266 0.3111244 0.3117589 0.3119312
 0.3116431 0.3114406 0.3120122 0.3134774 0.3152422 0.3165959 0.3172949 0.3175346 0.3175474 0.3173754
 0.3169782 0.3164223 0.3158967 0.3155688 0.3154646 0.3154921 0.3155443 0.3155623 0.3155422 0.3155246
 0.3155665 0.3156943 0.3158849 0.316101 0.316319 0.316516 0.3166646 0.3167664 0.3168578 0.3169536
 0.3170073 0.3169436 0.3167086 0.3162675 0.3155796 0.3146015 0.313305 0.3116666 0.3096634 0.3073608
 0.3050732 0.3034058 0.3030055 0.304148 0.3065158 0.3093776 0.3120052 0.3139873 0.3152692 0.3160011
 0.3163721 0.3165251 0.3165422 0.3164575 0.3162795 0.3160193 0.3157014 0.3153549 0.3150021 0.3146601
 0.3143439 0.3140603 0.3137975 0.3135242 0.3132027 0.3128076 0.3123353 0.311797 0.3112042 0.3105542
 0.3098246 0.3089875 0.3080385 0.3070169 0.3059916 0.3050215 0.3041209 0.3032587 0.302388 0.3014674
 0.3004461 0.2992549 0.2978719 0.296415 0.2951105 0.2941132 0.2933659 0.2926658 0.2918432 0.2908508
 0.289719 0.2884907 0.2872027 0.2858833 0.2845412 0.2831623 0.2817197 0.2801888 0.2785573 0.2768295
 0.2750187 0.2731403 0.2712161 0.269269 0.267288 0.2651945 0.2628495 0.2600974 0.2568069 0.2528909
 0.2483226 0.2431586 0.2375508 0.2317213 0.2259061 0.2203064 0.2150777 0.2103471 0.2062284 0.2028204
 0.200199 0.1984127 0.197484 0.1974144 0.1981864 0.1997598 0.2020613 0.2049754 0.2083455 0.211986
 0.2156998 0.2192988 0.2226436 0.2256897 0.2284884 0.2311141 0.2335855 0.2358597 0.2378891 0.2396613
 0.2411888 0.2424832 0.2435527 0.2444166 0.245115 0.2457003 0.2462138 0.2466649 0.2470374 0.2473181
 0.2475193 0.2476747 0.2478193 0.2479772 0.2481619 0.2483789 0.2486304 0.2489235 0.2492744 0.2497047
 0.2502275 0.2508381 0.2515146 0.2522351 0.2529947 0.2538092 0.2547045 0.2557101 0.256858 0.2581728
 0.259654 0.2612653 0.2629357 0.2645678 0.2660533 0.2672981 0.2682495 0.2689047 0.2692925 0.2694426
 0.2693756 0.2691162 0.2687027 0.2681734 0.2675499 0.2668422 0.2660625 0.2652257 0.26434 0.2634042
 0.2624191 0.2614015 0.2603831 0.259391 0.2584335 0.2575068 0.2566071 0.255732 0.2548777 0.2540438
 0.2532366 0.252464 0.2517305 0.2510351 0.2503683 0.2497107 0.2490307 0.2482819 0.2474138 0.2463937
 0.2452156 0.243885 0.2424077 0.2407954 0.239068 0.2372431 0.2353277 0.2333222 0.2312303 0.2290598
 0.226812 0.2244762 0.2220591 0.2196226 0.2172687 0.2150773 0.2130678 0.2112154 0.2094843 0.2078471
 0.2062905 0.2048085 0.2033921 0.202033 0.2007324 0.199495 0.1983205 0.1972098 0.1961704 0.1952141
 0.1943576 0.1936186 0.192998 0.1924742 0.1920235 0.1916389 0.1913335 0.1911396 0.1910891 0.1911694
 0.1913049 0.1914032 0.1914138 0.1913469 0.1912512 0.1911772 0.1911472 0.191156 0.1911821 0.191178
 0.1910569 0.1907173 0.1900763 0.189074 0.1876757 0.1858956 0.1838143 0.18157 0.1793341 0.177269
 0.1754832 0.1740265 0.17291 0.1720978 0.1715021 0.1710376 0.1706879 0.1705086 0.1705708 0.1708809
 0.1713177 0.1716815 0.171869 0.1719884 0.1722657 0.1728535 0.1737402 0.1747896 0.1758341 0.1767553
 0.1775045 0.1780738 0.17848 0.1787628 0.1789511 0.1790347 0.1789932 0.1788282 0.1785519 0.1781794
 0.1777343 0.1772229 0.1766183 0.1758997 0.1750793 0.1741719 0.1731779 0.1720931 0.1708873 0.1695163
 0.1680299 0.1666476 0.1656741 0.1653381 0.1656799 0.1665356 0.1676484 0.1688343 0.1700065 0.1710622
 0.1718932 0.1725714 0.1734188 0.1747911 0.1767792 0.1791128 0.1813471 0.1831461 0.1843871 0.1850551
 0.1851667 0.1847834 0.1839611 0.1826879 0.1809694 0.1789175 0.176678 0.1743755 0.1721601 0.1701731
 0.1684707 0.1670681 0.1659694 0.1651634 0.1647007 0.1643061 0.162422 0.1567454 0.1474925 0.1395235
 0.1386793 0.1454886 0.1544386 0.1598975 0.1609011 0.1598111 0.1585907 0.1576629 0.1569565 0.1565473
 0.1564908 0.1566777 0.1568832 0.1568801 0.1565792 0.1560025 0.1550251 0.1531484 0.1494973 0.1431297
 0.1337282 0.1222482 0.1107217 0.1011783 0.09463464 0.0908795 0.0889193 0.0876715 0.08657923 0.08579623
 0.08582734 0.08701579 0.08935235 0.09262404 0.09657091 0.1008583 0.1050227 0.1086165 0.1114459 0.1135847
 0.1151517 0.1161772 0.1166804 0.1167423 0.1164628 0.1159166 0.1151593 0.1142146 0.1130584 0.1116687
 0.1101209 0.1086254 0.1074374 0.106687 0.1063005 0.1061102 0.1060108 0.1059844 0.1060313 0.106138
 0.1062889 0.1064759 0.1067099 0.1070147 0.1073829 0.1077514 0.108047 0.108239 0.1083366 0.1083498
 0.1082526 0.1079985 0.1076027 0.1071721 0.1067646 0.1062418 0.1053818 0.1041724 0.1029198 0.1020431
 0.1017818 0.1020605 0.1025724 0.1030004 0.103213 0.1032825 0.1033271 0.1033422 0.1031899 0.102754
</values></Ydata></ScRf><Data_Parameters_AB><parameter name="DPF">1</parameter><parameter name="NPT">3497</parameter><parameter name="FXV">3996</parameter><parameter name="LXV">500</parameter><parameter name="CSF">1</parameter><parameter name="MXY">0.00122907129116356</parameter><parameter name="MNY">-0.0634218230843544</parameter><parameter name="DAT">17/01/2024</parameter><parameter name="TIM">13:10:05.857 (GMT+1)</parameter><parameter name="DXU">WN</parameter></Data_Parameters_AB><AB__Qtest><MainReport name="Quality Test Report"><Header><Line><Legend>Test result ok/not ok [1/0]: </Legend><Value>0</Value></Line><Line><Legend>Method file: </Legend><Value>C:\Users\Public\Documents\Bruker\OPUS_8.2.28\QT\IRBT_v3_default.QT</Value></Line></Header><Matrix><Line><Legend></Legend><Legend>min</Legend><Legend>max</Legend><Legend>measured</Legend></Line><Line><Value>Absorption (X-Range 1):</Value><Value>0.400000</Value><Value>2.000000</Value><Value>0.035918</Value></Line><Line><Value>Noise (X-Range 4):</Value><Value></Value><Value>0.000300</Value><Value>0.000019</Value></Line><Line><Value>Signal/Noise (X-Range 2):</Value><Value>200.000000</Value><Value></Value><Value>21.794231</Value></Line><Line><Value>Signal/Noise (X-Range 3):</Value><Value>40.000000</Value><Value></Value><Value>15.109977</Value></Line><Line><Value>Water vapour (X-Range 5):</Value><Value></Value><Value>0.000300</Value><Value>0.000029</Value></Line><Line><Value>Signal/Water (X-Range 2):</Value><Value>100.000000</Value><Value></Value><Value>14.661592</Value></Line><Line><Value>Signal/Water (X-Range 3):</Value><Value>20.000000</Value><Value></Value><Value>10.164907</Value></Line><Line><Value>Fringes (X-Range 6):</Value><Value></Value><Value>0.000100</Value><Value>0.000024</Value></Line></Matrix></MainReport></AB__Qtest><Data_Parameters_ScSm><parameter name="DPF">1</parameter><parameter name="NPT">1814</parameter><parameter name="FXV">3996.63438082617</parameter><parameter name="LXV">499.579297603271</parameter><parameter name="CSF">1</parameter><parameter name="MXY">0.333559423685074</parameter><parameter name="MNY">0.0784832090139389</parameter><parameter name="DAT">17/01/2024</parameter><parameter name="TIM">13:10:05.857 (GMT+1)</parameter><parameter name="DXU">WN</parameter></Data_Parameters_ScSm><Data_Parameters_ScRf><parameter name="DPF">1</parameter><parameter name="NPT">1820</parameter><parameter name="FXV">4004.34989121387</parameter><parameter name="LXV">495.721542409425</parameter><parameter name="CSF">1</parameter><parameter name="MXY">0.31754744052887</parameter><parameter name="MNY">0.0680936276912689</parameter><parameter name="DAT">17/01/2024</parameter><parameter name="TIM">13:09:38.763 (GMT+1)</parameter><parameter name="DXU">WN</parameter></Data_Parameters_ScRf><Optic_Parameters_Rf><parameter name="APR">0</parameter><parameter name="APT">Open</parameter><parameter name="BMS">KBr</parameter><parameter name="DTC">RT-DLaTGS_IR-Biotyper [Microplate reader]</parameter><parameter name="HPF">0</parameter><parameter name="LPF">10.0</parameter><parameter name="LPV">4000</parameter><parameter name="PGR">0</parameter><parameter name="RCH">Module port</parameter><parameter name="RDX">0</parameter><parameter name="SRC">MIR</parameter><parameter name="VEL">10.0</parameter><parameter name="SON">Off</parameter></Optic_Parameters_Rf><Acquisition_Parameters_Rf><parameter name="ADT">1</parameter><parameter name="AQM">DD</parameter><parameter name="CFE">0</parameter><parameter name="COR">0</parameter><parameter name="DEL">0</parameter><parameter name="DLY">0</parameter><parameter name="HFW">8000</parameter><parameter name="LFW">0</parameter><parameter name="NSR">32</parameter><parameter name="PLF">AB</parameter><parameter name="RES">6</parameter><parameter name="RGN">-1</parameter><parameter name="STR">0</parameter><parameter name="TCL">MakeCompatibleScalar (0, {WSV=1.000000, ARV=0});</parameter><parameter name="TDL">37</parameter><parameter name="RPO">0</parameter></Acquisition_Parameters_Rf><FT_-_Parameters_Rf><parameter name="APF">B3</parameter><parameter name="HFQ">500</parameter><parameter name="LFQ">4000</parameter><parameter name="NLI">0</parameter><parameter name="PHR">24</parameter><parameter name="PHZ">ML</parameter><parameter name="SPZ">NO</parameter><parameter name="ZFF">1</parameter></FT_-_Parameters_Rf><Optic_Parameters_><parameter name="APR">0</parameter><parameter name="APT">Open</parameter><parameter name="BMS">KBr</parameter><parameter name="CHN">Module port</parameter><parameter name="DTC">RT-DLaTGS_IR-Biotyper [Microplate reader]</parameter><parameter name="HPF">0</parameter><parameter name="LPF">10.0</parameter><parameter name="LPV">4000</parameter><parameter name="PGN">0</parameter><parameter name="RDX">0</parameter><parameter name="SRC">MIR</parameter><parameter name="VEL">10.0</parameter><parameter name="SON">Off</parameter></Optic_Parameters_><FT_-_Parameters_><parameter name="APF">B3</parameter><parameter name="HFQ">500</parameter><parameter name="LFQ">4000</parameter><parameter name="NLI">0</parameter><parameter name="PHR">24</parameter><parameter name="PHZ">ML</parameter><parameter name="SPZ">NO</parameter><parameter name="ZFF">1</parameter></FT_-_Parameters_><Acquisition_Parameters_><parameter name="ADT">1</parameter><parameter name="AQM">DD</parameter><parameter name="CFE">0</parameter><parameter name="COR">0</parameter><parameter name="DEL">0</parameter><parameter name="DLY">0</parameter><parameter name="HFW">8000</parameter><parameter name="LFW">0</parameter><parameter name="NSS">32</parameter><parameter name="PLF">AB</parameter><parameter name="RES">6</parameter><parameter name="SOT">0</parameter><parameter name="TCL">MakeCompatibleScalar (0, {WSV=1.000000, ARV=0});</parameter><parameter name="TDL">37</parameter><parameter name="SPO">0</parameter><parameter name="SGN">-1</parameter></Acquisition_Parameters_><Instrument_Parameters_Rf><parameter name="HFL">15801.365274</parameter><parameter name="LFL">0</parameter><parameter name="LWN">15801.365274</parameter><parameter name="ABP">32157</parameter><parameter name="SSP">1</parameter><parameter name="ARG">2</parameter><parameter name="ASG">2</parameter><parameter name="ASS">32</parameter><parameter name="GFW">16</parameter><parameter name="GBW">16</parameter><parameter name="BFW">0</parameter><parameter name="BBW">0</parameter><parameter name="PKA">9113</parameter><parameter name="PKL">4987</parameter><parameter name="PRA">9127</parameter><parameter name="PRL">5010</parameter><parameter name="P2A">1</parameter><parameter name="P2L">1</parameter><parameter name="P2R">1</parameter><parameter name="P2K">1</parameter><parameter name="DAQ">0</parameter><parameter name="AG2">1</parameter><parameter name="SSM">1</parameter><parameter name="RSN">46316</parameter><parameter name="CRR">0</parameter><parameter name="SRT">1705496978.764</parameter><parameter name="DUR">19.6439971923828</parameter><parameter name="TSC">30.8</parameter><parameter name="MVD">0.556193292140961</parameter><parameter name="AN1">0.226017337038707</parameter><parameter name="AN2">0</parameter><parameter name="VSN">2.485 Apr  4 2017</parameter><parameter name="SRN">0085</parameter><parameter name="CAM">0</parameter><parameter name="INS">IR-Biotyper</parameter><parameter name="FOC">69</parameter><parameter name="RDY">1</parameter><parameter name="ARS">32</parameter></Instrument_Parameters_Rf><Sample_Parameters_><parameter name="BLD"></parameter><parameter name="CNM">Admin</parameter><parameter name="CPY"></parameter><parameter name="DPM"></parameter><parameter name="EXP">IRBT_v3_32Scans.XPM</parameter><parameter name="LCT"></parameter><parameter name="SFM">Microplate, HTS-XT</parameter><parameter name="SNM">240117-1222-Cdiff_SCFA_1_C5_232101287_E6_5ab80a88-0e2f-4fad-9508-fa01192d8548.0</parameter><parameter name="XPP">C:\Users\Public\Documents\Bruker\OPUS_8.2.28\XPM</parameter><parameter name="IST">OK</parameter><parameter name="CPG">1252</parameter><parameter name="UID">9773c91e-4458-49f4-abf1-586410a22079</parameter></Sample_Parameters_><Instrument_Parameters_><parameter name="HFL">15801.365274</parameter><parameter name="LFL">0</parameter><parameter name="LWN">15801.365274</parameter><parameter name="ABP">32157</parameter><parameter name="SSP">1</parameter><parameter name="ASG">2</parameter><parameter name="ARG">2</parameter><parameter name="ASS">32</parameter><parameter name="GFW">16</parameter><parameter name="GBW">16</parameter><parameter name="BFW">0</parameter><parameter name="BBW">0</parameter><parameter name="PKA">9787</parameter><parameter name="PKL">4987</parameter><parameter name="PRA">9885</parameter><parameter name="PRL">5010</parameter><parameter name="P2A">1</parameter><parameter name="P2L">1</parameter><parameter name="P2R">1</parameter><parameter name="P2K">1</parameter><parameter name="DAQ">0</parameter><parameter name="AG2">1</parameter><parameter name="SSM">1</parameter><parameter name="RSN">23851</parameter><parameter name="CRR">0</parameter><parameter name="SRT">1705497005.857</parameter><parameter name="DUR">19.6439971923828</parameter><parameter name="TSC">30.8</parameter><parameter name="MVD">0.714559614658356</parameter><parameter name="AN1">0.226000035739966</parameter><parameter name="AN2">0</parameter><parameter name="VSN">2.485 Apr  4 2017</parameter><parameter name="SRN">0085</parameter><parameter name="CAM">0</parameter><parameter name="INS">IR-Biotyper</parameter><parameter name="FOC">69</parameter><parameter name="RDY">1</parameter></Instrument_Parameters_><History/></OPUSDataFile>
