<?xml version="1.0" encoding="UTF-8" ?>
<OPUSDataFile><AB><Ydata ylabel="Absorbance Units"><values byteorder="INTEL" format="FLOAT32" numvalues="3497"> -0.1094203 -0.1094123 -0.1093938 -0.1093664 -0.1093342 -0.1093008 -0.1092767 -0.1092621 -0.1092633 -0.1092747
 -0.1092934 -0.1093123 -0.1093246 -0.1093281 -0.1093191 -0.1092995 -0.109269 -0.1092298 -0.109182 -0.1091295
 -0.1090723 -0.1090188 -0.1089695 -0.1089328 -0.108909 -0.1088984 -0.1089002 -0.1089071 -0.1089184 -0.108927
 -0.1089333 -0.1089349 -0.1089323 -0.1089256 -0.1089148 -0.1088993 -0.1088804 -0.1088582 -0.1088365 -0.108818
 -0.1088055 -0.1088022 -0.1088051 -0.1088148 -0.1088232 -0.1088287 -0.108825 -0.1088104 -0.1087856 -0.1087504
 -0.1087109 -0.1086673 -0.1086266 -0.1085893 -0.108561 -0.1085418 -0.1085347 -0.1085386 -0.1085517 -0.1085715
 -0.1085913 -0.1086087 -0.1086165 -0.1086148 -0.1086002 -0.108576 -0.1085428 -0.1085053 -0.1084657 -0.1084288
 -0.1083967 -0.1083721 -0.1083567 -0.1083478 -0.108346 -0.1083434 -0.1083396 -0.1083277 -0.1083072 -0.1082779
 -0.1082401 -0.1081998 -0.1081579 -0.1081217 -0.1080913 -0.1080709 -0.1080592 -0.1080557 -0.1080571 -0.1080586
 -0.1080571 -0.1080467 -0.1080274 -0.1079959 -0.1079569 -0.1079112 -0.1078653 -0.1078221 -0.1077844 -0.1077543
 -0.1077284 -0.1077065 -0.1076831 -0.1076574 -0.1076296 -0.1075997 -0.1075749 -0.1075553 -0.1075449 -0.1075422
 -0.1075412 -0.1075402 -0.1075286 -0.1075074 -0.1074726 -0.1074287 -0.1073804 -0.1073324 -0.1072923 -0.1072609
 -0.1072424 -0.1072319 -0.1072288 -0.1072266 -0.1072225 -0.1072149 -0.1072024 -0.1071877 -0.1071712 -0.1071523
 -0.1071308 -0.1071042 -0.1070724 -0.1070404 -0.1070088 -0.1069893 -0.1069809 -0.1069856 -0.106998 -0.1070004
 -0.1069882 -0.1069372 -0.1068564 -0.106746 -0.1066248 -0.1065168 -0.1064277 -0.1063727 -0.1063421 -0.1063353
 -0.1063413 -0.1063559 -0.1063721 -0.1063884 -0.1063964 -0.1063951 -0.1063751 -0.1063349 -0.1062773 -0.1062024
 -0.1061272 -0.1060521 -0.1059895 -0.105938 -0.1058949 -0.1058596 -0.1058272 -0.1057989 -0.1057758 -0.1057573
 -0.1057438 -0.1057301 -0.1057104 -0.1056807 -0.1056342 -0.1055745 -0.1055005 -0.105421 -0.1053388 -0.1052609
 -0.1051898 -0.1051284 -0.1050778 -0.1050373 -0.1050071 -0.1049841 -0.1049682 -0.104956 -0.1049472 -0.1049386
 -0.1049298 -0.1049154 -0.1048945 -0.1048596 -0.1048114 -0.1047464 -0.1046684 -0.1045817 -0.1044903 -0.1044008
 -0.1043145 -0.1042346 -0.1041607 -0.1040934 -0.1040331 -0.1039801 -0.1039337 -0.1038944 -0.1038588 -0.1038268
 -0.1037939 -0.1037597 -0.1037199 -0.1036742 -0.1036206 -0.1035594 -0.103495 -0.1034285 -0.1033693 -0.1033174
 -0.1032775 -0.1032465 -0.1032188 -0.1031914 -0.1031549 -0.1031109 -0.1030559 -0.1029954 -0.1029328 -0.1028715
 -0.1028156 -0.1027632 -0.102715 -0.1026668 -0.1026169 -0.102566 -0.1025128 -0.1024654 -0.1024244 -0.1023947
 -0.1023768 -0.1023608 -0.1023457 -0.1023144 -0.1022675 -0.1022006 -0.1021166 -0.1020252 -0.1019263 -0.101824
 -0.1017176 -0.1016056 -0.101494 -0.1013891 -0.101296 -0.1012243 -0.1011653 -0.1011193 -0.1010695 -0.1010079
 -0.1009292 -0.1008276 -0.1007155 -0.1005936 -0.1004755 -0.1003631 -0.1002589 -0.1001634 -0.1000724 -0.09998583
 -0.09989844 -0.09981002 -0.0997162 -0.09961765 -0.09951421 -0.09940785 -0.09930383 -0.09920338 -0.09911258 -0.0990281
 -0.09894986 -0.09886949 -0.09877939 -0.09867438 -0.09854622 -0.09840386 -0.09824706 -0.09809217 -0.09794498 -0.09780971
 -0.09768966 -0.09757421 -0.09746281 -0.09734353 -0.09721538 -0.09707655 -0.09692734 -0.09677499 -0.09661976 -0.09646806
 -0.09631778 -0.09616437 -0.09600356 -0.09582026 -0.09561446 -0.09537586 -0.09511503 -0.09484032 -0.09456405 -0.09430268
 -0.09405539 -0.09382858 -0.09361094 -0.09340005 -0.09318367 -0.09295811 -0.09271402 -0.09244843 -0.09216003 -0.09184742
 -0.09152098 -0.09118132 -0.09083763 -0.09048984 -0.09013303 -0.08976665 -0.08938327 -0.08898487 -0.08857606 -0.08815932
 -0.0877444 -0.08733136 -0.08692525 -0.08652413 -0.08612794 -0.08573375 -0.0853388 -0.08494113 -0.08453792 -0.08413108
 -0.08372156 -0.08330791 -0.08289262 -0.08246025 -0.08200876 -0.08152235 -0.08099654 -0.08044547 -0.07986906 -0.07930273
 -0.07874755 -0.07821779 -0.07771088 -0.07721169 -0.07671776 -0.0762092 -0.07568766 -0.07514654 -0.07459078 -0.07402736
 -0.0734589 -0.07289451 -0.07232711 -0.07175524 -0.07116642 -0.07054859 -0.0699067 -0.0692349 -0.06856055 -0.06789155
 -0.06724335 -0.06662392 -0.06601675 -0.0654218 -0.0648139 -0.06419076 -0.06354577 -0.06287915 -0.06220443 -0.06152244
 -0.06084697 -0.0601762 -0.05950958 -0.05884357 -0.05816678 -0.05747875 -0.05677141 -0.05605041 -0.0553198 -0.05458561
 -0.05385628 -0.05313142 -0.05241404 -0.05169979 -0.05098761 -0.05027336 -0.04955573 -0.04883122 -0.04809853 -0.04735805
 -0.04660929 -0.04585732 -0.04510264 -0.04434565 -0.04358613 -0.04281476 -0.0420316 -0.04123209 -0.04041895 -0.03960289
 -0.0387861 -0.03798215 -0.03718809 -0.03640544 -0.0356281 -0.03484828 -0.03406101 -0.03325734 -0.03243875 -0.03160142
 -0.03075531 -0.02990369 -0.02905568 -0.02821684 -0.02738258 -0.02655409 -0.02571849 -0.0248736 -0.02401612 -0.02314519
 -0.0222691 -0.02138823 -0.02050924 -0.01963196 -0.01875723 -0.0178849 -0.01701503 -0.01614706 -0.01527959 -0.01441177
 -0.01354088 -0.01266733 -0.01179054 -0.01091116 -0.01003006 -0.009146385 -0.008259549 -0.007369742 -0.006476218 -0.005582059
 -0.004688098 -0.003796603 -0.002908526 -0.002023081 -0.001140366 -0.0002588036 0.0006217319 0.001502241 0.002382778 0.003264138
 0.00414625 0.005028532 0.005911116 0.006794161 0.007678314 0.008565944 0.009456995 0.01035304 0.01125235 0.01215307
 0.01305381 0.01395263 0.01484816 0.01573973 0.01662347 0.01749737 0.01835871 0.0192049 0.02004056 0.02086563
 0.02168794 0.0225087 0.02333216 0.02415886 0.02499003 0.02582572 0.02666602 0.02751054 0.02835541 0.02919993
 0.0300379 0.03086995 0.03169471 0.03251342 0.03332845 0.03413969 0.03494838 0.0357529 0.03655216 0.03734437
 0.03812755 0.0389019 0.0396657 0.04042468 0.04117964 0.04193859 0.04270439 0.04347667 0.04425686 0.0450342
 0.04580797 0.04656881 0.04731629 0.04805002 0.04877045 0.04948214 0.0501859 0.05088837 0.05159013 0.05229762
 0.05300846 0.05372149 0.05443196 0.05513094 0.0558183 0.05648872 0.05714904 0.05780259 0.05845493 0.05911122
 0.05976873 0.06042844 0.0610836 0.06173276 0.0623714 0.06299813 0.06361456 0.06422044 0.06482205 0.06541971
 0.0660184 0.0666178 0.06721554 0.06781095 0.06839875 0.06897921 0.06955048 0.07011317 0.07066806 0.071215
 0.07175375 0.07228516 0.07280945 0.07332917 0.07384606 0.07436275 0.07488103 0.07540272 0.0759293 0.07645966
 0.07699481 0.07752781 0.07805824 0.07857665 0.07908187 0.07957105 0.08004399 0.08050615 0.08095799 0.08140683
 0.08185282 0.08230081 0.08275001 0.08320092 0.08365098 0.0840948 0.08452976 0.08494838 0.08535178 0.08573763
 0.08610976 0.0864706 0.08682232 0.08716667 0.08750499 0.08783724 0.08816817 0.08849854 0.08883395 0.0891761
 0.08952308 0.08987552 0.09022184 0.09056144 0.09088053 0.09117907 0.09145273 0.09170336 0.09193984 0.09216402
 0.09238803 0.09261047 0.09283444 0.09305688 0.09327312 0.09348379 0.0936868 0.09388645 0.09408563 0.09428708
 0.094494 0.09470406 0.09491798 0.09512964 0.09533774 0.09553741 0.09572676 0.09590964 0.09608551 0.09626826
 0.09645867 0.09666681 0.09689192 0.09712515 0.0973635 0.09758317 0.09778314 0.09794536 0.09807432 0.09817046
 0.09824187 0.09830253 0.09835754 0.09841976 0.0984869 0.098562 0.09863945 0.09871609 0.09879113 0.09886359
 0.09893378 0.09900325 0.09906305 0.0991128 0.09913853 0.09913795 0.09911173 0.09905955 0.09900353 0.09894496
 0.09890807 0.09889152 0.09889993 0.09892848 0.0989615 0.09899488 0.09900931 0.09900611 0.09897693 0.0989297
 0.09886935 0.09880622 0.09875067 0.09870869 0.09868781 0.09868559 0.09870409 0.09873457 0.09877528 0.09881886
 0.0988633 0.09890766 0.09895136 0.09899794 0.09904759 0.09910252 0.09916282 0.09922938 0.09930307 0.09938929
 0.09949067 0.0996206 0.09978059 0.09998418 0.1002241 0.1004988 0.1007875 0.101067 0.1013142 0.101498
 0.101619 0.1016606 0.1016589 0.1016202 0.1015905 0.1015858 0.1016225 0.1017098 0.1018249 0.1019681
 0.1021015 0.102223 0.1023063 0.1023513 0.1023532 0.1023143 0.1022477 0.1021563 0.1020596 0.101958
 0.1018638 0.1017739 0.1016886 0.101604 0.1015145 0.1014204 0.1013189 0.1012139 0.1011078 0.1009998
 0.1008935 0.1007733 0.100638 0.1004634 0.1002438 0.09997051 0.09963984 0.09927257 0.09886942 0.09846431
 0.09805842 0.09767246 0.09730532 0.09695889 0.09663115 0.09631554 0.09600971 0.09570418 0.09539754 0.0950815
 0.09475944 0.09443099 0.09410351 0.0937847 0.09347528 0.09318072 0.09288974 0.09259973 0.09229847 0.09198035
 0.09164638 0.09129407 0.09093817 0.09057933 0.09023749 0.08991408 0.08962273 0.08936329 0.0891301 0.08891995
 0.08870567 0.08848448 0.08822788 0.08794012 0.08761587 0.08726606 0.0869087 0.0865518 0.08621529 0.08589661
 0.08560216 0.08532188 0.08505166 0.0847826 0.08450911 0.08422943 0.08394101 0.08364888 0.08335317 0.08306111
 0.08277371 0.08249467 0.08222449 0.08196012 0.08170125 0.0814406 0.0811779 0.08090755 0.08063004 0.08034442
 0.08005167 0.07975405 0.07945213 0.07914782 0.07884195 0.07853581 0.0782317 0.07793192 0.07763875 0.07735519
 0.07707922 0.07681219 0.07654574 0.0762782 0.07600079 0.07571101 0.0754068 0.07508711 0.07475669 0.07441578
 0.07406966 0.07371853 0.0733644 0.07300754 0.07265076 0.07229496 0.07194621 0.07160436 0.07127316 0.07094945
 0.0706292 0.07030856 0.06997953 0.069643 0.06929555 0.06894343 0.06858939 0.06823934 0.06789754 0.06756343
 0.06723862 0.0669171 0.06659754 0.06627768 0.06595601 0.06564181 0.06533539 0.0650517 0.06479104 0.06455338
 0.06433584 0.06411322 0.0638823 0.06361219 0.06330705 0.06295991 0.06258366 0.06220004 0.06182072 0.06147353
 0.06115735 0.06088453 0.06063977 0.06041851 0.06020165 0.05997831 0.05974082 0.05948196 0.05921207 0.05893055
 0.05865648 0.05839248 0.05814973 0.05792974 0.0577285 0.05754578 0.05737377 0.05721329 0.05706818 0.05694082
 0.0568461 0.05678289 0.05675901 0.05676413 0.05678345 0.05680146 0.05678819 0.05673861 0.05663149 0.05648422
 0.05629835 0.05610275 0.05591265 0.05574144 0.05560016 0.05547599 0.055369 0.05526144 0.05514958 0.05503413
 0.05491428 0.0548044 0.05470502 0.05462175 0.05455352 0.05449137 0.05443469 0.05437507 0.05431452 0.05425526
 0.05419867 0.05414991 0.05410635 0.05406713 0.05402736 0.0539816 0.05392709 0.05385955 0.05378039 0.05368878
 0.05358827 0.05348059 0.05336479 0.0532425 0.05310301 0.0529456 0.05275671 0.05253451 0.05228147 0.05199806
 0.05170939 0.05141723 0.0511503 0.05090658 0.05069246 0.05050132 0.05031549 0.05012983 0.04992322 0.04969779
 0.04944598 0.04917606 0.04889338 0.04860575 0.04832098 0.0480415 0.04777127 0.04750751 0.04725071 0.04699547
 0.04674083 0.04648203 0.04621771 0.04594943 0.0456767 0.04541058 0.04515162 0.04491165 0.04468984 0.04448256
 0.04428633 0.04407996 0.04386259 0.04361771 0.04335248 0.0430734 0.04279009 0.04252224 0.0422693 0.042041
 0.04182514 0.04161584 0.04140355 0.04117966 0.04094813 0.04070741 0.04046712 0.04022995 0.03999804 0.03977255
 0.03954923 0.03932747 0.03910929 0.03889487 0.03869671 0.03851536 0.03836209 0.03823495 0.03813022 0.03804308
 0.03795524 0.03786346 0.03774987 0.03761772 0.03746203 0.03729304 0.03711868 0.03695068 0.03680024 0.03667451
 0.03658081 0.03651887 0.0364908 0.03649195 0.03652152 0.03657631 0.03665537 0.03675999 0.03689012 0.03704877
 0.0372361 0.0374529 0.0376992 0.03797511 0.0382812 0.03862061 0.03899436 0.03940775 0.03986111 0.04035813
 0.04089796 0.04148154 0.04210613 0.04277039 0.0434681 0.04419542 0.04494353 0.04570713 0.04647954 0.04725688
 0.04803747 0.04882065 0.04960401 0.05038807 0.05116364 0.05193043 0.05267386 0.05339311 0.054073 0.05471253
 0.05529578 0.05582092 0.05626899 0.05663843 0.0569125 0.05709319 0.05717494 0.05716497 0.05707045 0.05690312
 0.05667634 0.0564064 0.05610685 0.05579915 0.05549619 0.05521872 0.05497761 0.05478215 0.05463801 0.05454048
 0.05449031 0.05447736 0.05450092 0.05455158 0.05462879 0.05471764 0.0548164 0.05489869 0.0549619 0.05497658
 0.05494151 0.0548367 0.05466233 0.05440929 0.05407742 0.05366209 0.05316439 0.05258227 0.05192173 0.0511852
 0.05038286 0.04952006 0.0486064 0.04764644 0.04664647 0.0456086 0.0445375 0.04343374 0.04230349 0.04114684
 0.03997532 0.03878949 0.0376098 0.03643791 0.03530129 0.03420144 0.03316256 0.03218313 0.03127186 0.03042321
 0.02962863 0.02888194 0.02816826 0.02748546 0.02682463 0.02618743 0.02557284 0.02498106 0.02441256 0.02386507
 0.0233371 0.02283015 0.02234258 0.02188552 0.02145955 0.02108093 0.02075147 0.02048141 0.02027157 0.02012021
 0.02002669 0.0199803 0.01998001 0.02001425 0.0200818 0.02017345 0.02028484 0.02040369 0.0205184 0.02060662
 0.02065109 0.02062293 0.02050921 0.02028671 0.01995944 0.01951842 0.01898848 0.0183733 0.01770892 0.01700388
 0.01629059 0.01557604 0.01487884 0.01420215 0.01355106 0.01292617 0.01232472 0.0117462 0.01118292 0.01063281
 0.01007955 0.009518667 0.008924292 0.008292314 0.007596798 0.006841658 0.006017213 0.005141629 0.004228979 0.003307215
 0.00240389 0.001540207 0.0007393507 -4.567997E-07 -0.0006711127 -0.001293587 -0.001871578 -0.002423463 -0.002954354 -0.003465997
 -0.003959623 -0.004428611 -0.004872491 -0.005291702 -0.005686635 -0.006065339 -0.006428019 -0.006780074 -0.007120824 -0.007450029
 -0.007767688 -0.008073132 -0.008367987 -0.008654917 -0.008935171 -0.009211684 -0.009484204 -0.009753554 -0.01001907 -0.01028028
 -0.01053772 -0.01079103 -0.01104262 -0.01129281 -0.01154486 -0.01179956 -0.01205808 -0.01232113 -0.01258395 -0.0128464
 -0.01309972 -0.01334364 -0.01357294 -0.01378846 -0.01399378 -0.01419014 -0.01438517 -0.01457838 -0.01477281 -0.01496636
 -0.01515599 -0.01534149 -0.01552016 -0.01569601 -0.01587137 -0.01605037 -0.01623751 -0.01643045 -0.01663068 -0.01682966
 -0.01702533 -0.017211 -0.01738438 -0.01754643 -0.01769657 -0.01784072 -0.0179792 -0.01811785 -0.01825688 -0.01839973
 -0.01854625 -0.01869724 -0.01885189 -0.01900738 -0.01916249 -0.01931222 -0.0194563 -0.0195913 -0.01971894 -0.01983976
 -0.01995633 -0.02007137 -0.02018601 -0.02030201 -0.02041871 -0.02053618 -0.02065388 -0.02077141 -0.02088972 -0.02100893
 -0.02112979 -0.02125254 -0.02137583 -0.02149957 -0.02162277 -0.02174551 -0.02186979 -0.0219957 -0.02212514 -0.02225726
 -0.02238955 -0.02252078 -0.02264568 -0.0227649 -0.02287658 -0.0229833 -0.02308778 -0.023192 -0.0232992 -0.02340892
 -0.02352203 -0.0236368 -0.02375264 -0.02386845 -0.02398355 -0.02409862 -0.02421333 -0.02433068 -0.0244508 -0.02457821
 -0.02471328 -0.02485828 -0.02501312 -0.02517439 -0.02534134 -0.02550628 -0.02566873 -0.02582206 -0.02596714 -0.02610278
 -0.02623076 -0.02635424 -0.0264739 -0.02659249 -0.02670872 -0.02682233 -0.02693203 -0.02703646 -0.02713632 -0.02723123
 -0.02732348 -0.02741355 -0.02750376 -0.02759449 -0.02768818 -0.02778524 -0.02788681 -0.02799316 -0.02810106 -0.02821026
 -0.02831432 -0.02841319 -0.02850335 -0.02858567 -0.02866246 -0.02873449 -0.02880553 -0.0288751 -0.02894408 -0.02901168
 -0.02907683 -0.02913987 -0.0292005 -0.02925988 -0.02931859 -0.02937788 -0.02943818 -0.02950147 -0.02956823 -0.02964087
 -0.02972027 -0.02980617 -0.02989914 -0.02999404 -0.03009066 -0.0301813 -0.03026563 -0.03033906 -0.03040192 -0.03045542
 -0.03050047 -0.03054214 -0.03058117 -0.03062262 -0.0306663 -0.03071449 -0.03076604 -0.03082023 -0.03087615 -0.0309322
 -0.03098914 -0.03104655 -0.03110676 -0.03117082 -0.03124014 -0.03131594 -0.03139629 -0.03148142 -0.03156679 -0.03165181
 -0.03173321 -0.0318105 -0.03188493 -0.0319566 -0.03202997 -0.03210509 -0.03218438 -0.03226738 -0.03235289 -0.03244057
 -0.03252847 -0.03261708 -0.03270651 -0.03279717 -0.03288997 -0.03298437 -0.03308031 -0.0331767 -0.0332728 -0.03336762
 -0.03346051 -0.03355097 -0.03363849 -0.0337239 -0.03380695 -0.03389058 -0.0339751 -0.03406363 -0.03415662 -0.03425325
 -0.03435345 -0.03445295 -0.03455164 -0.03464657 -0.03473822 -0.03482768 -0.0349154 -0.03500355 -0.03509178 -0.03518023
 -0.03526862 -0.0353561 -0.03544381 -0.03553239 -0.03562362 -0.0357194 -0.03581937 -0.03592459 -0.03603146 -0.03613935
 -0.03624392 -0.03634385 -0.0364378 -0.03652515 -0.03660775 -0.03668562 -0.03676174 -0.03683625 -0.03691084 -0.03698551
 -0.03706063 -0.03713606 -0.03721122 -0.03728604 -0.03736004 -0.03743318 -0.03750513 -0.03757581 -0.03764506 -0.03771253
 -0.03777774 -0.03784052 -0.03790022 -0.03795809 -0.03801426 -0.03807098 -0.03812922 -0.03818966 -0.03825296 -0.0383173
 -0.03838256 -0.03844647 -0.0385087 -0.03856936 -0.03862845 -0.03868795 -0.03874789 -0.0388093 -0.03887197 -0.03893515
 -0.03899862 -0.03906119 -0.03912286 -0.03918303 -0.03924187 -0.03929933 -0.03935581 -0.0394114 -0.03946747 -0.03952479
 -0.03958534 -0.03965043 -0.03972084 -0.03979764 -0.03987861 -0.03996369 -0.04004934 -0.04013493 -0.04021872 -0.0403004
 -0.04038082 -0.04046004 -0.04053907 -0.0406179 -0.04069614 -0.04077385 -0.04085096 -0.04092805 -0.04100711 -0.04108877
 -0.04117569 -0.04126772 -0.04136614 -0.04146956 -0.041577 -0.04168697 -0.04179786 -0.04190937 -0.0420208 -0.04213277
 -0.0422454 -0.04235908 -0.04247416 -0.0425897 -0.04270568 -0.04282077 -0.04293479 -0.04304761 -0.04315921 -0.04327089
 -0.04338264 -0.04349508 -0.04360796 -0.04372003 -0.04383124 -0.04394045 -0.04404847 -0.04415663 -0.04426571 -0.044378
 -0.04449262 -0.04460991 -0.0447275 -0.04484343 -0.0449568 -0.04506605 -0.04517303 -0.04527778 -0.04538319 -0.04549022
 -0.04559951 -0.04571166 -0.04582399 -0.04593642 -0.04604507 -0.04614971 -0.04624878 -0.04634249 -0.04643349 -0.04652219
 -0.04661265 -0.04670455 -0.04679908 -0.04689521 -0.04699086 -0.04708575 -0.04717817 -0.04726917 -0.0473593 -0.04744964
 -0.04754143 -0.04763473 -0.04772999 -0.04782672 -0.04792491 -0.04802379 -0.04812327 -0.04822219 -0.04832036 -0.04841688
 -0.04851157 -0.04860479 -0.04869651 -0.04878824 -0.04887996 -0.04897195 -0.04906392 -0.04915414 -0.04924233 -0.04932625
 -0.0494066 -0.04948375 -0.04955908 -0.04963515 -0.04971265 -0.04979365 -0.04987751 -0.04996449 -0.05005361 -0.05014446
 -0.05023614 -0.05032846 -0.05041976 -0.0505097 -0.05059627 -0.05067888 -0.05075753 -0.05083198 -0.050905 -0.05097672
 -0.05105035 -0.05112595 -0.05120501 -0.05128725 -0.05137188 -0.05145828 -0.05154368 -0.05162757 -0.05170679 -0.05178217
 -0.05185312 -0.05192206 -0.05199167 -0.05206373 -0.05214131 -0.05222307 -0.05230961 -0.0523977 -0.05248621 -0.05257279
 -0.05265637 -0.05273686 -0.05281399 -0.05288873 -0.05296113 -0.05303233 -0.0531024 -0.05317211 -0.05324144 -0.05331009
 -0.05337799 -0.05344444 -0.05350961 -0.05357365 -0.05363714 -0.05370167 -0.05376765 -0.05383663 -0.0539086 -0.0539843
 -0.05406338 -0.05414557 -0.0542312 -0.05432016 -0.05441363 -0.05451204 -0.05461633 -0.0547272 -0.05484339 -0.05496513
 -0.05508889 -0.0552144 -0.0553382 -0.05546003 -0.05557942 -0.05569637 -0.05581119 -0.05592355 -0.05603145 -0.05613411
 -0.05622716 -0.05631029 -0.05638031 -0.05643768 -0.05648172 -0.05651315 -0.05653286 -0.05654079 -0.05653702 -0.0565219
 -0.05649406 -0.05645971 -0.05641923 -0.05638513 -0.05636058 -0.05635611 -0.05637476 -0.05641858 -0.05648891 -0.05657787
 -0.05668524 -0.05679571 -0.05690849 -0.0570092 -0.0570982 -0.05717139 -0.05723016 -0.05727818 -0.05731661 -0.05735034
 -0.05738006 -0.05740952 -0.05743835 -0.05746787 -0.05749654 -0.05752328 -0.05754746 -0.05756782 -0.05758623 -0.05760283
 -0.05762067 -0.05764059 -0.05766494 -0.05769455 -0.05772916 -0.05776911 -0.05781102 -0.05785472 -0.05789624 -0.05793545
 -0.0579708 -0.05800257 -0.05803231 -0.0580603 -0.0580887 -0.05811743 -0.05814729 -0.0581782 -0.05821026 -0.05824354
 -0.05827815 -0.05831426 -0.05835225 -0.05839161 -0.05843231 -0.05847321 -0.05851381 -0.05855343 -0.05859157 -0.05862887
 -0.05866523 -0.05870205 -0.05873948 -0.05877857 -0.05881941 -0.05886231 -0.05890726 -0.05895374 -0.05900172 -0.05905044
 -0.05909998 -0.0591502 -0.05920146 -0.05925485 -0.05931037 -0.05936888 -0.05942938 -0.05949114 -0.05955265 -0.05961214
 -0.05966911 -0.05972242 -0.05977321 -0.05982151 -0.05986913 -0.05991659 -0.05996532 -0.06001593 -0.06006788 -0.06012134
 -0.06017414 -0.06022613 -0.06027534 -0.06032175 -0.060366 -0.06040832 -0.0604511 -0.06049433 -0.06053953 -0.06058617
 -0.06063351 -0.06068112 -0.06072756 -0.06077337 -0.06081861 -0.06086406 -0.06091077 -0.06095832 -0.06100708 -0.06105538
 -0.06110248 -0.06114746 -0.0611896 -0.06122976 -0.06126789 -0.06130553 -0.06134294 -0.06138079 -0.06141916 -0.06145806
 -0.06149751 -0.06153759 -0.06157831 -0.06161959 -0.0616615 -0.06170436 -0.06174821 -0.06179344 -0.06183968 -0.06188652
 -0.06193311 -0.06197796 -0.06202082 -0.06206055 -0.0620982 -0.06213414 -0.06216928 -0.06220435 -0.06223909 -0.06227352
 -0.0623075 -0.06234074 -0.06237485 -0.0624099 -0.06244823 -0.06249013 -0.06253554 -0.06258439 -0.06263337 -0.06268222
 -0.06272692 -0.06276765 -0.06280283 -0.06283344 -0.0628616 -0.0628884 -0.06291725 -0.06294829 -0.06298365 -0.06302178
 -0.06306213 -0.06310265 -0.06314155 -0.06317826 -0.06321149 -0.06324355 -0.06327468 -0.06330799 -0.06334437 -0.06338447
 -0.06342869 -0.06347496 -0.06352317 -0.06357143 -0.06361967 -0.06366738 -0.06371449 -0.06376016 -0.06380423 -0.06384522
 -0.06388329 -0.0639179 -0.06394991 -0.06398077 -0.06401146 -0.06404407 -0.06407905 -0.06411783 -0.06416003 -0.06420594
 -0.06425451 -0.06430548 -0.0643573 -0.06440961 -0.06446051 -0.06450962 -0.06455521 -0.06459685 -0.06463479 -0.06466889
 -0.06470167 -0.06473327 -0.06476671 -0.06480206 -0.06484083 -0.06488288 -0.0649284 -0.06497705 -0.06502807 -0.0650808
 -0.06513341 -0.06518546 -0.06523515 -0.06528339 -0.06533018 -0.06537728 -0.06542609 -0.0654774 -0.0655323 -0.06558975
 -0.06564989 -0.06571039 -0.06577082 -0.06582903 -0.06588449 -0.06593733 -0.06598734 -0.0660375 -0.06608794 -0.06614157
 -0.06619827 -0.0662578 -0.06631979 -0.06638208 -0.06644481 -0.06650729 -0.06656997 -0.0666337 -0.0666986 -0.06676524
 -0.06683355 -0.06690355 -0.06697534 -0.06704907 -0.06712461 -0.06720205 -0.06728064 -0.06736021 -0.06743988 -0.06751939
 -0.06759824 -0.06767631 -0.06775344 -0.06782958 -0.06790504 -0.06797983 -0.0680547 -0.06812964 -0.06820513 -0.06828121
 -0.06835842 -0.06843682 -0.06851706 -0.0685988 -0.06868172 -0.06876524 -0.06884793 -0.06893042 -0.06901249 -0.06909589
 -0.06918215 -0.06927148 -0.06936497 -0.0694601 -0.0695563 -0.06965118 -0.06974368 -0.06983477 -0.06992433 -0.07001446
 -0.07010545 -0.07019742 -0.07029039 -0.07038265 -0.07047422 -0.07056504 -0.07065552 -0.07074817 -0.07084318 -0.07094279
 -0.07104613 -0.07115253 -0.07126052 -0.07136719 -0.0714723 -0.07157408 -0.071674 -0.0717724 -0.07187125 -0.0719718
 -0.07207502 -0.07218167 -0.07229158 -0.07240497 -0.07252084 -0.0726392 -0.07275803 -0.07287718 -0.07299493 -0.07311121
 -0.07322554 -0.07333799 -0.07344916 -0.07355917 -0.07366878 -0.07377802 -0.07388735 -0.07399685 -0.07410696 -0.07421777
 -0.07432967 -0.07444255 -0.07455647 -0.07467113 -0.07478634 -0.07490175 -0.07501711 -0.07513221 -0.07524692 -0.07536124
 -0.07547507 -0.07558892 -0.07570288 -0.07581718 -0.07593192 -0.07604662 -0.07616128 -0.07627495 -0.07638761 -0.07649853
 -0.07660791 -0.07671639 -0.07682431 -0.07693333 -0.07704345 -0.07715583 -0.07726936 -0.07738286 -0.07749496 -0.07760336
 -0.07770798 -0.07780752 -0.07790398 -0.07799789 -0.07809174 -0.07818663 -0.078284 -0.07838462 -0.07848822 -0.07859514
 -0.0787031 -0.078812 -0.07891863 -0.07902277 -0.07912247 -0.07921784 -0.07931059 -0.07940114 -0.07949352 -0.07958773
 -0.07968637 -0.07978845 -0.07989298 -0.07999858 -0.0801022 -0.08020358 -0.08030067 -0.08039522 -0.08048768 -0.08058048
 -0.08067539 -0.08077295 -0.08087426 -0.08097712 -0.08108142 -0.08118398 -0.0812842 -0.08138018 -0.08147152 -0.08155885
 -0.08164216 -0.08172424 -0.08180524 -0.08188795 -0.08197228 -0.08205897 -0.08214756 -0.08223661 -0.08232577 -0.08241327
 -0.08249948 -0.08258414 -0.08266792 -0.08275146 -0.08283548 -0.0829208 -0.08300772 -0.08309684 -0.08318741 -0.08327944
 -0.08337165 -0.08346371 -0.0835547 -0.08364431 -0.08373252 -0.08381927 -0.08390498 -0.08398967 -0.08407334 -0.08415604
 -0.08423815 -0.08431987 -0.08440263 -0.08448666 -0.08457386 -0.08466393 -0.08475739 -0.08485307 -0.08494935 -0.08504467
 -0.08513622 -0.08522373 -0.0853056 -0.08538336 -0.08545724 -0.08552933 -0.08560054 -0.08567233 -0.08574528 -0.08582005
 -0.08589706 -0.08597517 -0.0860545 -0.08613181 -0.08620689 -0.0862767 -0.08634126 -0.08640114 -0.08645689 -0.08651301
 -0.08656985 -0.08663169 -0.08669772 -0.08676822 -0.08684164 -0.08691502 -0.08698799 -0.08705859 -0.08712795 -0.08719656
 -0.08726493 -0.08733401 -0.08740218 -0.08746909 -0.08753289 -0.08759251 -0.08764932 -0.0877031 -0.08775734 -0.08781241
 -0.08787086 -0.08793294 -0.08799857 -0.08806765 -0.08813785 -0.08820888 -0.08827733 -0.08834329 -0.08840522 -0.088464
 -0.08852116 -0.08857759 -0.08863591 -0.08869603 -0.08875922 -0.08882441 -0.08889128 -0.08895827 -0.08902444 -0.08908831
 -0.08914887 -0.08920597 -0.08925919 -0.08930962 -0.08935736 -0.08940358 -0.08944841 -0.08949264 -0.0895363 -0.08958054
 -0.08962543 -0.08967216 -0.08972069 -0.08977107 -0.08982318 -0.0898766 -0.0899311 -0.08998623 -0.090041 -0.09009358
 -0.09014247 -0.09018461 -0.0902202 -0.09024766 -0.0902697 -0.09028734 -0.09030346 -0.09031951 -0.09033751 -0.0903585
 -0.09038278 -0.09041095 -0.09044042 -0.09047106 -0.09049962 -0.09052578 -0.09054973 -0.09057157 -0.09059449 -0.09061833
 -0.09064312 -0.09066823 -0.09069062 -0.09071037 -0.09072594 -0.09073824 -0.09074839 -0.09075713 -0.09076592 -0.09077518
 -0.09078584 -0.09079795 -0.09081219 -0.09082712 -0.09084267 -0.09085615 -0.0908666 -0.09087289 -0.09087436 -0.09087229
 -0.09086664 -0.09085984 -0.09085211 -0.09084418 -0.09083601 -0.09082503 -0.090811 -0.09079045 -0.09076389 -0.09073173
 -0.09069499 -0.09065734 -0.09061845 -0.09057979 -0.09053987 -0.0904968 -0.0904506 -0.09040026 -0.09034715 -0.09029219
 -0.09023525 -0.09017675 -0.09011533 -0.09005069 -0.08998175 -0.08990826 -0.08982947 -0.08974521 -0.08965543 -0.08956007
 -0.0894605 -0.08935677 -0.0892487 -0.08913594 -0.0890146 -0.08888469 -0.08874387 -0.08859304 -0.08843417 -0.08826692
 -0.08809226 -0.08790767 -0.08771011 -0.0874972 -0.08726551 -0.08701365 -0.08673967 -0.0864429 -0.08612245 -0.0857785
 -0.08541124 -0.08501969 -0.08460429 -0.08416026 -0.08368667 -0.08318303 -0.08264863 -0.08209581 -0.08152524 -0.08095171
 -0.08037501 -0.07979843 -0.0792215 -0.07864314 -0.0780644 -0.077489 -0.07691602 -0.07634733 -0.07577662 -0.07519544
 -0.07459914 -0.0739776 -0.07333595 -0.07267386 -0.07199917 -0.0713173 -0.0706265 -0.06992829 -0.0692157 -0.06848707
 -0.06774006 -0.06697406 -0.06618937 -0.06538653 -0.06455568 -0.06369618 -0.06278783 -0.06183107 -0.06082107 -0.05976328
 -0.05868506 -0.05758834 -0.0564979 -0.05540284 -0.05429303 -0.05315472 -0.05196182 -0.05070894 -0.04938269 -0.04797615
 -0.04648774 -0.04488812 -0.04316899 -0.04128446 -0.03921492 -0.03694247 -0.03445094 -0.03178648 -0.0289479 -0.02602139
 -0.02301359 -0.01999718 -0.01697581 -0.01398177 -0.01101171 -0.008045438 -0.005069575 -0.002003662 0.001165426 0.004537141
 0.008084563 0.01181464 0.01565257 0.01947727 0.02326236 0.02691196 0.03049348 0.03402293 0.03757115 0.04118934
 0.04487538 0.04864522 0.05245891 0.0563078 0.06017653 0.06406315 0.06794819 0.07183157 0.07566714 0.07945261
 0.0831715 0.08682389 0.09041378 0.09393 0.09731323 0.1005487 0.1035445 0.1063174 0.108854 0.1111921
 0.1133933 0.1154616 0.1174339 0.1192763 0.1209652 0.1225067 0.123886 0.1251597 0.1263471 0.1274778
 0.1285689 0.129596 0.1305594 0.1314231 0.1321835 0.1328236 0.1333424 0.1337289 0.1339828 0.1340943
 0.1340659 0.133907 0.1336229 0.1332384 0.1327546 0.1321861 0.1315322 0.130794 0.129982 0.1291014
 0.1281835 0.1272482 0.1263371 0.1254753 0.1246934 0.1240076 0.1234351 0.1229819 0.1226608 0.1224747
 0.122429 0.122525 0.1227619 0.1231397 0.1236624 0.1243306 0.1251535 0.1261306 0.1272638 0.1285496
 0.129977 0.131541 0.1332251 0.1350252 0.1369276 0.1389291 0.1410215 0.1432022 0.1454671 0.1478128
 0.1502368 0.1527368 0.1553116 0.1579594 0.1606807 0.1634679 0.1663208 0.1692266 0.1721841 0.1751807
 0.1782159 0.1812675 0.1843337 0.1873818 0.1904119 0.1934098 0.1963764 0.1993162 0.2022103 0.2050236
 0.2077177 0.2102087 0.2124822 0.2144847 0.2162277 0.2177088 0.2189224 0.2198673 0.2205301 0.2209049
 0.2209875 0.220785 0.2202467 0.2193745 0.2180552 0.2162731 0.2140042 0.2112445 0.2081702 0.2047897
 0.2012676 0.1975906 0.1937507 0.189735 0.1854834 0.1810102 0.1763178 0.1714308 0.1664005 0.1612186
 0.1559049 0.1504165 0.1447021 0.138806 0.132689 0.1265828 0.1205602 0.114819 0.1094546 0.1044099
 0.09970057 0.09517134 0.09080312 0.08654396 0.08238873 0.07837852 0.07451472 0.07082484 0.06730613 0.06395048
 0.06075992 0.05773857 0.0548897 0.05223328 0.04974741 0.04741756 0.04518401 0.04297485 0.04072833 0.03836054
 0.03586489 0.0332028 0.03042757 0.0275496 0.02461926 0.02165215 0.01867493 0.01568449 0.01276757 0.009926581
 0.007311295 0.004932708 0.002822093 0.0009719821 -0.0007557059 -0.002374545 -0.004049007 -0.005773722 -0.007621116 -0.009564452
 -0.01157272 -0.01362023 -0.01564743 -0.01763907 -0.0195589 -0.02138169 -0.02308107 -0.02461818 -0.02596423 -0.02709184
 -0.02798157 -0.02862864 -0.02902786 -0.0291813 -0.02908867 -0.02875127 -0.02816859 -0.027348 -0.0262896 -0.02501131
 -0.02351582 -0.02184851 -0.02002048 -0.01813085 -0.01619433 -0.01432846 -0.01253091 -0.01085972 -0.00929528 -0.007829311
 -0.006442666 -0.005110695 -0.003812082 -0.002528459 -0.001218559 0.0001442302 0.001598292 0.003179059 0.004849485 0.006620433
 0.008380867 0.01010941 0.0117465 0.01327702 0.01473629 0.01612517 0.01749441 0.01884506 0.02019055 0.02152861
 0.02284704 0.02414687 0.02542252 0.02668401 0.02795111 0.02924341 0.03060434 0.03205308 0.03363441 0.03535122
 0.03722291 0.03924177 0.0414064 0.04371712 0.04617535 0.04877524 0.0515229 0.0543752 0.05733039 0.06031966
 0.06333467 0.0663292 0.06929903 0.07223232 0.07512765 0.07796214 0.08072645 0.08334064 0.08578788 0.0879539
 0.089826 0.09131387 0.09240518 0.09304074 0.09319832 0.09282522 0.09190615 0.09039936 0.08833083 0.08569029
 0.08255478 0.07894266 0.07495949 0.07063212 0.066066 0.06128132 0.05637072 0.051344 0.04629656 0.04123437
 0.03626828 0.03140348 0.02672874 0.02224166 0.01796303 0.01388489 0.00998053 0.006249972 0.002677025 -0.0007284078
 -0.003952434 -0.006992628 -0.009834406 -0.01249456 -0.01497969 -0.01731654 -0.01952273 -0.02162088 -0.02362482 -0.02554815
 -0.02739819 -0.02917865 -0.03089251 -0.03253348 -0.03410149 -0.03558775 -0.03699156 -0.03830896 -0.03953955 -0.04067601
 -0.04171612 -0.04263742 -0.04343783 -0.0440923 -0.04460769 -0.04498614 -0.04524663 -0.04542529 -0.04554302 -0.04564445
 -0.04573954 -0.04585587 -0.04598844 -0.04614316 -0.04630882 -0.04647992 -0.04665571 -0.04683133 -0.04702504 -0.0472375
 -0.04749711 -0.04780738 -0.04819008 -0.04864764 -0.04918344 -0.04979704 -0.0504682 -0.05119389 -0.05193867 -0.05270033
 -0.05344868 -0.05418557 -0.05490066 -0.0555971 -0.05627828 -0.0569413 -0.05758721 -0.05820219 -0.05877629 -0.05928908
 -0.05972412 -0.06006764 -0.06030601 -0.06044596 -0.06048252 -0.06044426 -0.06033312 -0.06018971 -0.06001786 -0.05986131
 -0.05972326 -0.05964544 -0.05962991 -0.05970686 -0.05987555 -0.06014267 -0.06050344 -0.06093978 -0.06144446 -0.06198666
 -0.06256023 -0.0631371 -0.06371619 -0.06428263 -0.06484207 -0.06539397 -0.06594645 -0.06650569 -0.06707455 -0.06765731
 -0.06824911 -0.06885 -0.06945242 -0.070055 -0.07065132 -0.07124047 -0.07181735 -0.07238159 -0.07292777 -0.07345555
 -0.07395824 -0.07443531 -0.07487901 -0.07528882 -0.07565789 -0.0759863 -0.07627048 -0.07651132 -0.07670861 -0.07686408
 -0.07697984 -0.07705814 -0.07710209 -0.07711296 -0.07709271 -0.07704127 -0.07695855 -0.0768462 -0.0767035 -0.07653745
 -0.07634849 -0.07614732 -0.0759352 -0.07572192 -0.07550847 -0.07530046 -0.07509816 -0.07490227 -0.07471249 -0.07452602
 -0.07434266 -0.07415955 -0.07397742 -0.07379645 -0.07361902 -0.07344929 -0.07329183 -0.07315419 -0.07304274 -0.07296692
 -0.07293066 -0.0729415 -0.07299463 -0.07309221 -0.07321931 -0.07337302 -0.07353494 -0.07370055 -0.07385752 -0.07400294
 -0.07413451 -0.07425152 -0.07435779 -0.07445352 -0.07454174 -0.07462239 -0.07469527 -0.07476082 -0.07482071 -0.07487677
 -0.07493556 -0.0749995 -0.07507716 -0.0751701 -0.07528461 -0.07542051 -0.07558023 -0.07576223 -0.07596681 -0.07619009
 -0.07643171 -0.07668299 -0.07694262 -0.07719668 -0.07744237 -0.07766668 -0.07786629 -0.07804132 -0.07819043 -0.07833194
 -0.0784668 -0.07861938 -0.07878987 -0.07898901 -0.0792142 -0.07945693 -0.07971399 -0.07996952 -0.08022284 -0.08046457
 -0.08069539 -0.08091357 -0.0811163 -0.08130181 -0.08146188 -0.08159034 -0.0816797 -0.08172294 -0.08172222 -0.08167516
 -0.0815924 -0.08147646 -0.08133284 -0.08116423 -0.08096121 -0.08072364 -0.08043592 -0.08009721 -0.07970709 -0.07926783
 -0.07880699 -0.07832985 -0.07788138 -0.07746454 -0.077116 -0.07683 -0.07661446 -0.07645486 -0.07633296 -0.07623314
 -0.07613097 -0.07601714 -0.07587634 -0.07570618 -0.07550095 -0.07526291 -0.0749903 -0.07469169 -0.07436678 -0.07403346
 -0.07369324 -0.07336863 -0.07306185 -0.07278976 -0.07255342 -0.07235792 -0.07220262 -0.07208078 -0.07199001 -0.07191384
 -0.07184795 -0.07176916 -0.07167238 -0.07153407 -0.07135139 -0.07110862 -0.07080688 -0.07044004 -0.07001437 -0.06953075
 -0.06900142 -0.06843068 -0.06783658 -0.06722496 -0.06661525 -0.0660128 -0.0654323 -0.06487688 -0.06435471 -0.06386691
 -0.06341798 -0.06300826 -0.06263895 -0.0623097 -0.06201591 -0.06175625 -0.06152032 -0.06130686 -0.06110539 -0.06091623
 -0.0607344 -0.06056197 -0.0604001 -0.06025092 -0.06011804 -0.06000077 -0.0599011 -0.05981357 -0.05973751 -0.05966199
 -0.05958448 -0.05948999 -0.05937555 -0.05922428 -0.05903342 -0.05878881 -0.05848858 -0.05812569 -0.05769958 -0.05720884
 -0.05665327 -0.05602977 -0.05533767 -0.0545701 -0.05372846 -0.05281162 -0.05182737 -0.05079088 -0.04971765 -0.04863764
 -0.04757113 -0.04655143 -0.04559912 -0.04474042 -0.04399199 -0.04337052 -0.04288296 -0.04253821 -0.0423273 -0.0422533
 -0.04228803 -0.04243039 -0.04263673 -0.04290373 -0.04318436 -0.04347561 -0.04374066 -0.04397828 -0.04416664 -0.04430554
 -0.044383 -0.04439877 -0.04434476 -0.04422221 -0.04402832 -0.04376901 -0.04345083 -0.04308569 -0.04268819 -0.04227437
 -0.04186045 -0.04146335 -0.04109639 -0.04077219 -0.04049972 -0.04028097 -0.04011957 -0.04000694 -0.03994163 -0.03991986
 -0.03993919 -0.04001955 -0.04016157 -0.04040545 -0.04075265 -0.04123202 -0.04183981 -0.04256589 -0.04340077 -0.04430208
 -0.04526094 -0.0462328 -0.04721358 -0.0481759 -0.04911875 -0.05003005 -0.05091077 -0.05175564 -0.05257333 -0.05336351
 -0.05414774 -0.05493101 -0.05574384 -0.05659422 -0.05750879 -0.05849428 -0.05956167 -0.06071405 -0.06194406 -0.06325179
 -0.0646155 -0.06603361 -0.06747735 -0.06894437 -0.07040483 -0.07185604 -0.07327165 -0.07464918 -0.07596856 -0.07722892
 -0.07841891 -0.07954038 -0.08059093 -0.08157331 -0.08249015 -0.08334012 -0.0841248 -0.08483656 -0.08547268 -0.08602718
 -0.0864957 -0.08688594 -0.08719597 -0.08745086 -0.08765209 -0.08783109 -0.08799005 -0.08815301 -0.08832072 -0.08850344
 -0.08870032 -0.08891014 -0.08913109 -0.0893553 -0.08958066 -0.0897974 -0.09000412 -0.09019353 -0.09036564 -0.09051759
 -0.09064969 -0.09076131 -0.09085277 -0.09092366 -0.09097593 -0.0910095 -0.09102922 -0.09103627 -0.09103516 -0.0910275
 -0.09101242 -0.09099065 -0.09095414 -0.09090248 -0.09082593 -0.09072427 -0.09059557 -0.09044093 -0.09026846 -0.09007875
 -0.08987992 -0.08966898 -0.08944251 -0.08919559 -0.08891612 -0.08860397 -0.08825149 -0.08786733 -0.08745464 -0.08702733
 -0.08659387 -0.08616793 -0.08575687 -0.0853708 -0.08501426 -0.08469204 -0.08440643 -0.08415546 -0.08393987 -0.08375058
 -0.08358723 -0.08343709 -0.08329953 -0.08316398 -0.08303089 -0.08289902 -0.0827705 -0.08265417 -0.08255198 -0.08247478
 -0.08242153 -0.08239615 -0.08239485 -0.08241456 -0.08245081 -0.08249881 -0.08255409 -0.08261346 -0.08267037 -0.08272242
 -0.08276036 -0.08278161 -0.08277685 -0.08274357 -0.08267756 -0.08257759 -0.08244571 -0.0822819 -0.08209037 -0.08187132
 -0.08162749 -0.08135913 -0.08106929 -0.0807587 -0.08043228 -0.0800909 -0.07973922 -0.07937875 -0.07901368 -0.07864784
 -0.07828769 -0.0779377 -0.07760561 -0.07729021 -0.07699507 -0.07671094 -0.07643544 -0.07615778 -0.07587358 -0.07557881
 -0.07527092 -0.07495465 -0.07462977 -0.07430533 -0.07398199 -0.07366712 -0.07336099 -0.07306633 -0.07278285 -0.07250952
 -0.07224559 -0.07198752 -0.07173377 -0.07147836 -0.07121897 -0.07094806 -0.07066407 -0.07036119 -0.07004027 -0.06969938
 -0.06934191 -0.06896915 -0.0685854 -0.06819332 -0.06779406 -0.06738945 -0.06697512 -0.06655076 -0.06611101 -0.06565479
 -0.06518172 -0.0646915 -0.06418825 -0.06367216 -0.06314588 -0.06260909 -0.06205972 -0.06149696 -0.06091576 -0.06031586
 -0.05969326 -0.05904932 -0.05838399 -0.05770106 -0.05700465 -0.05630156 -0.055598 -0.0549055 -0.05423152 -0.05359176
 -0.05299501 -0.05245284 -0.05197274 -0.05155141 -0.05119173 -0.05087522 -0.05060082 -0.05034485 -0.05010546 -0.04986269
 -0.04961555 -0.0493534 -0.04907681 -0.04878727 -0.04848656 -0.04818469 -0.04788261 -0.04758886 -0.04730288 -0.04702748
 -0.04676213 -0.04650735 -0.04626233 -0.04602757 -0.04579866 -0.04557413 -0.04534556 -0.04510919 -0.04485667 -0.04458382
 -0.04428856 -0.04396837 -0.04363109 -0.04327672 -0.04291854 -0.04255779 -0.04220259 -0.04185329 -0.04150677 -0.04116222
 -0.04080991 -0.04044908 -0.04007063 -0.03967457 -0.03925547 -0.03881533 -0.03835447 -0.03787834 -0.03739438 -0.03690949
 -0.0364339 -0.03597115 -0.03552779 -0.03510197 -0.03469462 -0.03430255 -0.03392424 -0.03356043 -0.03321034 -0.03287906
 -0.03256728 -0.03227846 -0.03201326 -0.03176869 -0.03154457 -0.0313339 -0.03113624 -0.0309445 -0.03075788 -0.03056851
 -0.03037544 -0.03017081 -0.0299555 -0.02972712 -0.0294881 -0.02924207 -0.02898837 -0.02872891 -0.02845868 -0.02817471
 -0.02787272 -0.02754933 -0.02720394 -0.02683527 -0.02644519 -0.02603278 -0.025606 -0.02516451 -0.02472552 -0.02429015
 -0.02387736 -0.02348818 -0.02313145 -0.02280671 -0.02251134 -0.02224386 -0.02199525 -0.02176351 -0.02153739 -0.02131517
 -0.02108714 -0.02085326 -0.02060906 -0.02035558 -0.02009239 -0.01982014 -0.01953946 -0.01924981 -0.01895158 -0.01864227
 -0.01832182 -0.01798497 -0.0176307 -0.01725389 -0.01685325 -0.01642846 -0.015979 -0.0155105 -0.01502324 -0.0145253
 -0.0140172 -0.01350749 -0.01299666 -0.01249186 -0.0119934 -0.0115059 -0.01103011 -0.01056912 -0.01012591 -0.009705016
 -0.009313331 -0.008959281 -0.008650926 -0.008398492 -0.008202283 -0.0080687 -0.007982607 -0.007942987 -0.007924226 -0.00792089
 -0.007910196 -0.007887773 -0.007839785 -0.007764516 -0.007652864 -0.007504226 -0.007313229 -0.007080093 -0.006806611 -0.006493779
 -0.006148504 -0.005771581 -0.005369455 -0.004942496 -0.004494919 -0.004026394 -0.003537667 -0.003029934 -0.002503124 -0.001963588
 -0.001416762 -0.0008657976 -0.0003187719 0.0002420046 0.0008178988 0.001439062 0.002120007 0.002843964 0.003618327 0.004362355
 0.005067679 0.005689702 0.006225009 0.006689832 0.007084821 0.007423777 0.007703879 0.0079136 0.008049844 0.008093969
 0.008047066 0.007901067 0.007661815 0.007332893 0.006926721 0.00645635 0.005939895 0.005394311 0.004837768 0.00428352
 0.003746794 0.003234657 0.002762505 0.002334561 0.001965673 0.001659628 0.001420881 0.001251714 0.001136024 0.001073225
 0.001030836 0.001006983 0.0009685275 0.0009145053 0.0008217557 0.0006912785 0.0005126856 0.0002912901 3.189029E-05 -0.0002528175
 -0.0005399853 -0.0008168376 -0.001054078 -0.001259741 -0.001423603 -0.001579171 -0.001742571 -0.001939009 -0.002188335 -0.002476312
 -0.002808037 -0.003141136 -0.003470167 -0.003756474 -0.003994228 -0.004172105 -0.004288675 -0.004360833 -0.004389776 -0.004398626
 -0.004386326 -0.004357709 -0.004308618 -0.004224203 -0.004103479 -0.003933128 -0.003722147 -0.003477532 -0.003215195 -0.002957752
 -0.002715466 -0.002507362 -0.002328921 -0.002184373 -0.00206171 -0.001956104 -0.001863144 -0.00177968 -0.001709851 -0.001654763
 -0.001612285 -0.001583497 -0.001551887 -0.001516508 -0.001461559 -0.001387211 -0.001297556 -0.001194843 -0.001098311 -0.001007464
 -0.0009321705 -0.0008668161 -0.0008012645 -0.0007314817 -0.0006434182 -0.0005410651 -0.0004235501 -0.0002959826 -0.0001650719 -2.584705E-05
 0.0001214965 0.0002863029 0.0004749673 0.0006825413 0.0009121432 0.001141471 0.001367604 0.001569574 0.001743734 0.001887134
 0.001998955 0.002093878 0.002172831 0.002254044 0.002337427 0.002431414 0.002533915 0.002640646 0.002749882 0.002854401
 0.002954491 0.003047672 0.003133873 0.003212535 0.003282069 0.003339727 0.003388217 0.003426663 0.003463913 0.003504298
 0.003550586 0.003607607 0.003659497 0.003705965 0.003721254 0.00370197 0.003633942 0.003515506 0.003353304 0.003148158
 0.002918487 0.002665396 0.002405581 0.002139465 0.001877157 0.001619737 0.00137443 0.001144308 0.0009379185 0.0007590498
 0.0006167665 0.0005114003 0.0004486694 0.000420303 0.0004254544 0.0004477861 0.0004814087 0.0005098674 0.0005266974 0.000524772
 0.0005006766 0.0004582675 0.0003971734 0.0003256875 0.0002443529 0.0001600441 7.287974E-05</values></Ydata></AB><ScSm><Ydata ylabel="Single channel"><values byteorder="INTEL" format="FLOAT32" numvalues="1814"> 0.09015617 0.09027129 0.09040152 0.09055112 0.09071541 0.09088311 0.09104046 0.09117965 0.09130089 0.09140459
 0.09149209 0.09157953 0.09169561 0.09185424 0.09203698 0.09220706 0.09233782 0.09243447 0.09253377 0.09266964
 0.09282771 0.09294464 0.09296519 0.09290063 0.09282402 0.09280555 0.09286651 0.09301171 0.09327029 0.09362846
 0.09393594 0.09400228 0.09383217 0.09365863 0.09368296 0.09387289 0.09406053 0.09413096 0.09406477 0.09391938
 0.09385729 0.09409922 0.09472311 0.0954951 0.09593955 0.09561403 0.0944055 0.09269054 0.09124516 0.09083879
 0.0916796 0.09318308 0.09440928 0.09481998 0.09457062 0.09411155 0.09371912 0.09348536 0.09352258 0.093945
 0.09467918 0.09538944 0.09560846 0.09504314 0.09390716 0.09288339 0.09256747 0.09300578 0.09390447 0.09498629
 0.09572409 0.0950737 0.09239651 0.08886251 0.08708906 0.08872463 0.09272565 0.09644332 0.09803648 0.09744899
 0.09564687 0.09376268 0.09279504 0.09326841 0.09489141 0.09684667 0.09843992 0.0992882 0.0991495 0.09803458
 0.09643392 0.09511088 0.09467702 0.09541406 0.09716012 0.09913807 0.1002657 0.1000077 0.09877788 0.0974022
 0.09650864 0.09649759 0.09757787 0.09951899 0.1016686 0.1034336 0.104591 0.1051605 0.1052579 0.1050679
 0.1047546 0.10444 0.1043291 0.1046043 0.1050689 0.1051867 0.1046779 0.1038974 0.1034766 0.1036729
 0.1041492 0.1043818 0.104181 0.103598 0.1023938 0.1001518 0.09713018 0.09440235 0.09281129 0.09237662
 0.09297048 0.09467517 0.09696196 0.09843642 0.09823668 0.09719368 0.09693398 0.09812048 0.1000321 0.1016155
 0.1025088 0.1031025 0.103925 0.1050451 0.1059205 0.1058 0.1044937 0.1028526 0.1022053 0.103074
 0.1046642 0.1058379 0.1063074 0.1066036 0.1071357 0.1075974 0.1072358 0.1056593 0.1035129 0.1022516
 0.1029415 0.1052048 0.1074196 0.1079496 0.106306 0.1034061 0.1008043 0.09957896 0.09991089 0.1015219
 0.1040618 0.1069497 0.109284 0.1102983 0.1098912 0.1086023 0.1070272 0.1052674 0.1031376 0.1010187
 0.1000873 0.1012179 0.1038591 0.1064697 0.1079411 0.1082163 0.1076695 0.1063607 0.1041254 0.1013299
 0.09921158 0.09896557 0.1003851 0.1019102 0.102285 0.1017317 0.1012434 0.101227 0.1012834 0.1010319
 0.100677 0.1007111 0.1012839 0.102011 0.1023825 0.1022326 0.1017729 0.1012909 0.10088 0.1003889
 0.09965496 0.09886701 0.09855594 0.09903709 0.09998663 0.1007666 0.1010538 0.1009687 0.1006955 0.1001763
 0.09922235 0.09789635 0.09669903 0.0962169 0.09655023 0.09723537 0.09773788 0.09785102 0.09763911 0.09723388
 0.09674755 0.09624387 0.09575318 0.09534916 0.09513602 0.09510681 0.09510584 0.0949844 0.09472076 0.09436187
 0.0939284 0.09341818 0.09286523 0.09235661 0.0919785 0.09174646 0.09160513 0.09148812 0.09134424 0.09112051
 0.09078237 0.09035884 0.08992276 0.08952183 0.08916104 0.08884242 0.08858082 0.08837523 0.08819024 0.08798126
 0.08773104 0.08745159 0.08715564 0.08684365 0.08652002 0.08620515 0.08592533 0.08569512 0.08550502 0.0853257
 0.08513998 0.08496524 0.08481844 0.08466895 0.08446382 0.0841967 0.08391799 0.08367886 0.08349127 0.08333591
 0.08318406 0.08300845 0.08278905 0.08252545 0.08225304 0.08203377 0.08191116 0.08187699 0.08189071 0.0819131
 0.08191067 0.08185823 0.08176021 0.08164883 0.08154608 0.08144432 0.08132969 0.08120944 0.08111262 0.08106843
 0.08107865 0.08111086 0.08112609 0.08110821 0.08106355 0.08101101 0.0809781 0.08097939 0.08098946 0.08096412
 0.08089815 0.08083709 0.08082244 0.08084457 0.0808585 0.08083476 0.0807867 0.08075073 0.08074662 0.08076315
 0.08077938 0.080789 0.08080064 0.08082088 0.0808388 0.0808295 0.08078008 0.08071049 0.08065622 0.08063211
 0.08062751 0.08063327 0.08065467 0.0806955 0.08074369 0.08077994 0.08079638 0.08080261 0.08081169 0.08082192
 0.08081894 0.080796 0.08076404 0.08073913 0.0807267 0.08071987 0.0807071 0.08067986 0.08063555 0.0805763
 0.08050604 0.08042825 0.08034348 0.0802505 0.08015367 0.08006595 0.07999499 0.07992737 0.07983682 0.0797103
 0.07956018 0.07941039 0.07927617 0.07915682 0.07904382 0.07893324 0.07882951 0.07873902 0.07866296 0.07859786
 0.07853937 0.07848531 0.07843918 0.07841286 0.0784191 0.07845673 0.07850663 0.07854828 0.07857907 0.0786129
 0.07866215 0.07872674 0.07879968 0.07887723 0.07896183 0.07905876 0.07916895 0.07928397 0.07939214 0.07949227
 0.0795968 0.07971914 0.07986273 0.08002279 0.08019051 0.08035378 0.0805039 0.0806464 0.08079812 0.08096953
 0.08115578 0.08134789 0.08154559 0.08175433 0.08197509 0.08220369 0.08243823 0.0826833 0.08294602 0.08322857
 0.08352412 0.08382064 0.08411151 0.08440229 0.08470553 0.08502857 0.08536784 0.085714 0.08606023 0.0864066
 0.08675794 0.08711721 0.08748211 0.08785 0.08822474 0.08861397 0.08901976 0.08943522 0.08985107 0.09026276
 0.09067085 0.09107772 0.09148481 0.09189244 0.09230199 0.0927161 0.0931343 0.09354979 0.09395468 0.09434845
 0.09473784 0.09512934 0.09552456 0.09591973 0.09630586 0.0966731 0.09702139 0.09736347 0.09771053 0.09805807
 0.09839276 0.09871143 0.09902595 0.09934843 0.09967618 0.09999378 0.1002891 0.1005658 0.1008386 0.1011148
 0.1013849 0.101635 0.1018653 0.1020901 0.1023207 0.1025566 0.1027956 0.1030437 0.1033057 0.1035711
 0.1038212 0.1040506 0.104271 0.1044941 0.1047196 0.1049415 0.105158 0.105372 0.1055878 0.1058063
 0.106024 0.1062392 0.1064616 0.1067084 0.1069857 0.1072843 0.1075947 0.1079205 0.1082664 0.1086231
 0.1089753 0.1093244 0.1096866 0.1100662 0.1104408 0.1107836 0.1110912 0.111381 0.1116677 0.1119594
 0.1122687 0.1126102 0.1129847 0.1133763 0.1137635 0.1141312 0.1144754 0.1148057 0.1151361 0.1154681
 0.1157846 0.1160683 0.1163204 0.1165581 0.1167975 0.1170414 0.1172794 0.1174953 0.1176735 0.1178004
 0.1178602 0.117838 0.1177331 0.1175621 0.1173389 0.1170533 0.1166774 0.1161935 0.115604 0.1149147
 0.1141209 0.1132205 0.1122416 0.111254 0.110356 0.1096471 0.109204 0.1090678 0.109239 0.1096764
 0.1103003 0.1110042 0.1116739 0.1122055 0.1125181 0.1125643 0.1123398 0.1118845 0.11127 0.1105788
 0.1098842 0.1092397 0.1086801 0.108243 0.1079956 0.1080399 0.1084846 0.1094044 0.1108103 0.1126353
 0.1147324 0.1169039 0.1189652 0.1208054 0.1224037 0.1237986 0.1250469 0.1261988 0.1272874 0.1283261
 0.1293142 0.130246 0.1311159 0.1319137 0.1326213 0.1332168 0.1336826 0.1340107 0.1342053 0.1342892
 0.1343058 0.134314 0.1343748 0.1345358 0.1348093 0.1351539 0.1354823 0.1357016 0.1357596 0.135665
 0.1354876 0.1353576 0.13546 0.1359964 0.1370989 0.1387452 0.140747 0.1428371 0.14479 0.1464861
 0.1479003 0.14906 0.1500158 0.1508255 0.1515414 0.1522014 0.1528257 0.1534226 0.1539959 0.1545513
 0.1550943 0.155628 0.156154 0.1566753 0.1571948 0.1577128 0.158229 0.1587438 0.1592586 0.1597742
 0.1602888 0.1607967 0.1612931 0.1617807 0.1622667 0.1627546 0.1632401 0.1637179 0.164186 0.1646456
 0.1650999 0.1655532 0.1660058 0.1664502 0.166878 0.1672887 0.167689 0.1680846 0.1684762 0.1688636
 0.1692486 0.169633 0.1700172 0.1704011 0.170786 0.1711723 0.1715573 0.1719353 0.1723022 0.1726596
 0.1730135 0.1733696 0.173729 0.1740894 0.1744491 0.17481 0.1751762 0.1755494 0.1759274 0.1763068
 0.1766857 0.1770629 0.1774372 0.1778083 0.1781774 0.1785453 0.1789104 0.1792701 0.1796228 0.17997
 0.1803154 0.1806621 0.1810108 0.1813594 0.181704 0.182041 0.1823691 0.1826905 0.1830091 0.1833272
 0.1836463 0.1839661 0.184284 0.1845966 0.1849049 0.1852138 0.1855253 0.1858363 0.1861441 0.1864488
 0.1867526 0.1870567 0.1873612 0.1876657 0.1879709 0.1882786 0.1885903 0.1889067 0.1892281 0.1895544
 0.1898831 0.1902109 0.1905372 0.1908629 0.1911877 0.191512 0.1918378 0.1921673 0.1924994 0.1928322
 0.1931649 0.193498 0.1938315 0.1941643 0.1944951 0.1948257 0.1951595 0.1954964 0.1958319 0.1961636
 0.1964934 0.196824 0.1971558 0.197488 0.1978213 0.1981565 0.1984936 0.1988295 0.1991605 0.1994867
 0.199812 0.2001384 0.2004647 0.2007896 0.201113 0.2014351 0.201757 0.2020797 0.2024012 0.2027188
 0.2030334 0.2033475 0.2036612 0.2039749 0.204291 0.2046106 0.2049313 0.2052511 0.2055704 0.2058896
 0.2062093 0.2065315 0.2068575 0.2071884 0.2075267 0.2078726 0.2082218 0.2085719 0.2089245 0.2092808
 0.209639 0.2099992 0.2103622 0.2107258 0.2110874 0.2114461 0.2118009 0.2121513 0.2125001 0.2128506
 0.2132025 0.2135558 0.2139128 0.2142742 0.2146386 0.2150069 0.2153807 0.2157592 0.2161416 0.2165269
 0.2169102 0.2172876 0.2176627 0.2180414 0.2184244 0.2188095 0.2191949 0.2195779 0.2199584 0.2203415
 0.2207279 0.2211116 0.2214917 0.2218749 0.2222628 0.2226514 0.22304 0.2234299 0.2238189 0.2242065
 0.2245954 0.2249855 0.2253747 0.2257635 0.226151 0.2265339 0.2269153 0.2273022 0.2276942 0.2280871
 0.2284808 0.2288733 0.2292586 0.2296393 0.2300251 0.2304172 0.2308117 0.2312091 0.2316075 0.2319984
 0.2323818 0.2327664 0.2331537 0.23354 0.2339262 0.2343108 0.2346863 0.2350537 0.2354194 0.2357764
 0.2360993 0.2363309 0.2363261 0.2357844 0.2342049 0.2308865 0.2250586 0.2161879 0.2042956 0.1900538
 0.1746003 0.1591828 0.1448214 0.1321667 0.121571 0.1132159 0.1072067 0.1036625 0.1027863 0.1049565
 0.1108479 0.1210305 0.1345029 0.1474296 0.1545789 0.153282 0.1458495 0.1374763 0.1320158 0.1300933
 0.1304142 0.1316975 0.1334343 0.1357427 0.1389263 0.1430222 0.1477584 0.1529987 0.158997 0.1660088
 0.1737926 0.1816996 0.1892145 0.1962839 0.2031279 0.2098453 0.2162614 0.2220949 0.2271755 0.2315005
 0.2351807 0.2383718 0.2412136 0.2437965 0.2461792 0.2483959 0.2504115 0.2521003 0.2533221 0.2540369
 0.254354 0.254477 0.2545908 0.2547862 0.2550748 0.2554485 0.2559029 0.2564282 0.2570107 0.2576384
 0.2582961 0.2589672 0.2596412 0.2603076 0.2609502 0.2615614 0.2621468 0.2627093 0.2632439 0.2637519
 0.2642425 0.2647213 0.2651902 0.2656531 0.2661119 0.2665645 0.2670122 0.2674549 0.2678862 0.2682984
 0.2686895 0.26906 0.2694118 0.269753 0.2700933 0.2704361 0.2707804 0.2711237 0.2714612 0.2717894
 0.2721121 0.2724347 0.2727578 0.2730809 0.2734054 0.273729 0.2740468 0.2743595 0.2746734 0.2749939
 0.2753233 0.2756607 0.2759995 0.2763306 0.2766506 0.2769639 0.2772804 0.2776128 0.2779669 0.2783349
 0.2787033 0.2790689 0.2794347 0.2798008 0.2801664 0.2805351 0.2809095 0.2812881 0.281671 0.2820567
 0.2824341 0.2827873 0.2831125 0.2834225 0.2837375 0.284072 0.2844251 0.2847835 0.2851369 0.2854873
 0.2858409 0.2861994 0.2865614 0.2869269 0.2872979 0.2876813 0.2880848 0.2885068 0.2889364 0.2893665
 0.2897982 0.2902323 0.2906684 0.2911089 0.291554 0.2919946 0.2924226 0.2928456 0.2932857 0.2937619
 0.2942729 0.294795 0.2953016 0.2957864 0.296263 0.2967473 0.2972465 0.2977519 0.2982321 0.2986561
 0.2990406 0.2994567 0.2999649 0.3005561 0.3011691 0.3017518 0.3022947 0.3028172 0.3033383 0.3038579
 0.3043575 0.3048186 0.3052493 0.3056961 0.306213 0.3068075 0.3074294 0.3080245 0.3085782 0.3091007
 0.3096012 0.3100894 0.3105602 0.3109713 0.3112857 0.3115612 0.3119439 0.3125315 0.3132665 0.3139976
 0.3146294 0.3151778 0.3156968 0.3162051 0.3166967 0.3171485 0.3174784 0.3175886 0.317542 0.3176259
 0.3181171 0.3190025 0.3200119 0.3208931 0.3215776 0.3221244 0.3226112 0.3230809 0.3235134 0.3238257
 0.323963 0.3240268 0.3242573 0.3248146 0.3255979 0.3263552 0.3269477 0.3274274 0.3278969 0.3283939
 0.3288705 0.3291734 0.3291122 0.328719 0.3284185 0.3287505 0.3298477 0.3312837 0.3324994 0.3332998
 0.333854 0.3343016 0.3345456 0.3344294 0.333928 0.333156 0.3324205 0.3322703 0.3331383 0.3347891
 0.3364137 0.3374394 0.3380221 0.338641 0.3394756 0.3403274 0.3409477 0.3412621 0.3413347 0.3412227
 0.3409424 0.3406345 0.3406725 0.341403 0.3427429 0.3441903 0.3452972 0.3460255 0.3465484 0.3467382
 0.3460318 0.3441008 0.3417303 0.3406215 0.3418809 0.3448541 0.3478328 0.3497422 0.350727 0.351352
 0.3518682 0.3521418 0.3516367 0.349593 0.3460637 0.3428146 0.3422497 0.3450412 0.3493754 0.3527086
 0.3537087 0.3525253 0.3501406 0.3479194 0.347128 0.3482431 0.3507452 0.3536482 0.3560959 0.3575935
 0.3580338 0.3576495 0.3569202 0.3564422 0.3565511 0.3568186 0.3563193 0.3548321 0.3532668 0.3522608
 0.3510057 0.3485695 0.3459807 0.3455821 0.3481323 0.3517089 0.3539373 0.3544172 0.3542888 0.3539366
 0.3520556 0.3473721 0.3410056 0.3364269 0.3364784 0.3405346 0.3451219 0.3473239 0.3470784 0.3461834
 0.3457598 0.3450622 0.342587 0.338197 0.3339337 0.3321937 0.3330606 0.3342036 0.3334697 0.3304138
 0.3251769 0.3179166 0.310546 0.3071062 0.3101895 0.3176866 0.3246427 0.3275345 0.3253761 0.3182353
 0.3075424 0.2975602 0.2934703 0.2966047 0.3028877 0.3067669 0.3055801 0.2996829 0.2901775 0.2783748
 0.2669085 0.2594211 0.2582179 0.2624116 0.2681959 0.2705945 0.2660074 0.2550269 0.2430195 0.2360938
 0.23546 0.2367288 0.2351263 0.2299772 0.223707 0.2184781 0.214967 0.2128805 0.2113487 0.2095748
 0.2074572 0.2045636 0.1990011 0.1895705 0.1790828 0.1728825 0.1732936 0.1777083 0.1827116 0.1874605
 0.1918442 0.1940797 0.1926474 0.1893983 0.188376 0.1915094 0.1967795 0.2007759 0.20213 0.2020438
 0.2020225 0.2019985 0.2011542 0.2000033 0.2004158 0.2032492 0.2069758 0.2093268 0.2095654 0.208497
 0.2069577 0.2051274 0.202938 0.2004 0.1975718 0.1945721 0.191566 0.1885989 0.1855837 0.1824977
 0.1793277 0.1756836 0.1708555 0.1647967 0.1589314 0.1552069 0.1541122 0.1543943 0.1549058 0.1554735
 0.1553742 0.152688 0.1468572 0.1409714 0.1396411 0.1445562 0.1531476 0.161428 0.1670694 0.1696712
 0.1694675 0.1673007 0.165836 0.169084 0.179236 0.1943255 0.2099875 0.2231407 0.2331043 0.2398881
 0.2431205 0.2430824 0.2418092 0.2423192 0.2466226 0.2544659 0.2635727 0.2705899 0.2725117 0.2692298
 0.2654052 0.2675857 0.2774933 0.2896006 0.2972811 0.2998908 0.3016192 0.3050095 0.308785 0.3115543
 0.3144042 0.318835 0.3240706 0.3276038 0.3273705 0.3226175 0.3139142 0.3037218 0.2959801 0.2931151
 0.2935801 0.2938085 0.2919542 0.287964 0.2813298 0.2720431 0.2634178 0.2603315 0.2636983 0.2691681
 0.2721431 0.272084 0.2711148 0.2701724 0.2679152 0.2629721 0.2562968 0.2507215 0.2481143 0.2475711
 0.2468398 0.2447681 0.2415003 0.2370596 0.2312683 0.2251115 0.2208683 0.2201782 0.2224194 0.2254526
 0.2277183 0.2292632 0.2310163 0.2336773 0.237331 0.2416209 0.2461591 0.2510939 0.2571686 0.26473
 0.2728252 0.2799484 0.2857006 0.2910877 0.2970738 0.3033691 0.3088391 0.3127607 0.3154912 0.3180908
 0.3214054 0.32537 0.3290612 0.3315013 0.3325885 0.3332686 0.3346655 0.3370245 0.3396386 0.3417393
 0.3431881 0.3443138 0.3454263 0.3465959 0.347654 0.3483513 0.3487536 0.349481 0.3512483 0.3540867
 0.3572379 0.359873 0.3617311 0.3630198 0.3639208 0.3643666 0.3642378 0.3636258 0.3628401 0.3621999
 0.3618701 0.3618748 0.362185 0.3627527 0.3635129 0.3644063 0.3653978 0.366463 0.3675819 0.3687516
 0.3699735 0.371211 0.3723964 0.3734937 0.3745233 0.3754961 0.3763467 0.3769593 0.3772365 0.3771217
 0.3765756 0.3755675 0.3740796 0.3720863 0.369556 0.3665725 0.3635385 0.3612129 0.3603961 0.3614291
 0.3639327 0.3670287 0.3698465 0.3719064 0.3731675 0.3738429 0.374195 0.3744191 0.3746066 0.3747558
 0.3748178 0.3747542 0.3745673 0.3742924 0.3739756 0.373661 0.3733873 0.3731778 0.3730305 0.3729191
 0.3728103 0.3726825 0.372525 0.3723169 0.3720131 0.3715596 0.3709299 0.3701509 0.369296 0.3684457
 0.3676487 0.366911 0.3662084 0.3654974 0.364718 0.3637925 0.3626221 0.3611135 0.3592636 0.3572309
 0.3552644 0.3535099 0.35191 0.3503187 0.3486743 0.3470188 0.3453892 0.3437553 0.3420596 0.340265
 0.3383539 0.3363115 0.3341301 0.3318276 0.329452 0.3270609 0.3246895 0.3223339 0.3199619 0.3175246
 0.3149438 0.3120921 0.3088009 0.3049031 0.300281 0.2948923 0.2887757 0.2820564 0.2749463 0.2677138
 0.2606187 0.2538625 0.247592 0.2419348 0.2370193 0.2329623 0.2298477 0.2277163 0.2265728 0.2263962
 0.2271426 0.2287382 0.2310689 0.2339732 0.2372458 0.2406539 0.243962 0.2469684 0.2495625 0.2517797
 0.2537857 0.2557707 0.2578396 0.2599917 0.2621715 0.2643074 0.2663114 0.2680839 0.2695459 0.2706678
 0.271466 0.2719787 0.2722479 0.2723158 0.272231 0.2720549 0.2718643 0.2717371 0.2717244 0.2718389
 0.2720858 0.2725096 0.2731981 0.2742268 0.2755998 0.2772459 0.2790616 0.2809511 0.2828419 0.2846969
 0.2865379 0.2884533 0.2905719 0.2930159 0.2958595 0.2991114 0.3027161 0.3065636 0.3104987 0.3143353
 0.3178873 0.3210078 0.3236164 0.325695 0.3272575 0.3283207 0.3289037 0.3290547 0.3288659 0.3284525
 0.3279153 0.3273182 0.3266838 0.325998 0.325225 0.3243333 0.3233209 0.3222182 0.3210678 0.3199003
 0.3187304 0.3175675 0.3164145 0.315257 0.3140721 0.3128538 0.3116178 0.3103774 0.3091256 0.3078431
 0.3065158 0.3051426 0.303727 0.3022655 0.3007441 0.2991452 0.2974495 0.2956308 0.2936632 0.2915388
 0.289276 0.2869132 0.2844926 0.282041 0.2795562 0.2770113 0.2743669 0.2715868 0.2686693 0.2656765
 0.2627158 0.2598773 0.2571939 0.254653 0.2522277 0.2498968 0.2476528 0.2454954 0.2434238 0.2414388
 0.2395438 0.2377344 0.2359977 0.2343321 0.2327562 0.2312972 0.2299821 0.2288308 0.2278411 0.2269837
 0.2262183 0.2255111 0.2248496 0.2242612 0.2237999 0.2234801 0.2232294 0.2229282 0.2224956 0.2219349
 0.2213122 0.2206963 0.2201121 0.2195425 0.2189546 0.2182984 0.2174952 0.2164591 0.2151276 0.2134607
 0.2114377 0.2090796 0.2064635 0.2037113 0.2009742 0.1984103 0.1961487 0.1942681 0.1927912 0.1916709
 0.1907983 0.190071 0.1894655 0.1890384 0.1888645 0.1889465 0.1891489 0.1892557 0.1891618 0.1889933
 0.1889965 0.1893254 0.1899483 0.1907087 0.1914402 0.1920437 0.1924883 0.1927681 0.1928918 0.1928966
 0.1928211 0.1926676 0.19242 0.1920735 0.1916264 0.1910749 0.1904262 0.1896826 0.1888245 0.1878355
 0.1867192 0.1854759 0.1841021 0.1826067 0.180986 0.1792207 0.1773763 0.1756805 0.1744445 0.1738977
 0.1740673 0.1747666 0.1757197 0.176738 0.1777391 0.1786173 0.1792459 0.1796763 0.1802289 0.1812791
 0.1829397 0.1849475 0.1868498 0.1882994 0.189172 0.1894706 0.1892415 0.188572 0.1875326 0.1861155
 0.184316 0.1822158 0.1799218 0.1775281 0.1751696 0.1729833 0.1710273 0.1693242 0.1678892 0.1667216
 0.1658761 0.1650787 0.1627871 0.1567272 0.1471193 0.1387727 0.1374698 0.1437564 0.1522167 0.1573138
 0.158112 0.1569552 0.1557913 0.1550396 0.1546122 0.1545451 0.154849 0.1553859 0.1559181 0.1562006
 0.1561146 0.1556654 0.1547454 0.1528974 0.1492839 0.142986 0.1336956 0.1223556 0.110962 0.10151
 0.09501736 0.09130795 0.08942099 0.08827594 0.08729497 0.08661285 0.08672736 0.08798014 0.09036109 0.09365665
 0.0976027 0.101855 0.1059455 0.1094385 0.1121619 0.1142054 0.115696 0.116672 0.117155 0.1172111
 0.1169137 0.1163245 0.11551 0.1145134 0.1133157 0.1118859 0.1102904 0.1087382 0.1074863 0.1066645
 0.1061994 0.1059259 0.1057438 0.1056379 0.1056082 0.1056402 0.1057221 0.1058559 0.1060583 0.1063433
 0.1066838 0.1070096 0.1072613 0.1074248 0.1075099 0.1075175 0.1074261 0.1072092 0.1068945 0.1065767
 0.1062902 0.1058822 0.1051251 0.1039975 0.1027974 0.1019484 0.1017035 0.1019961 0.1025245 0.1029794
 0.1032318 0.1033408 0.103409 0.1034343</values></Ydata></ScSm><ScRf><Ydata ylabel="Single channel"><values byteorder="INTEL" format="FLOAT32" numvalues="1820"> 0.06965549 0.06978292 0.06989512 0.06999072 0.07007693 0.07016839 0.07027741 0.07040396 0.07053741 0.07066564
 0.07078204 0.07088748 0.07098567 0.0710766 0.07115991 0.07124558 0.07135095 0.071482 0.07162428 0.07175347
 0.07185311 0.07192874 0.07200897 0.07212028 0.07225037 0.07234655 0.07236296 0.07230982 0.07224913 0.07223983
 0.07229838 0.07242505 0.0726383 0.07292385 0.07316296 0.07320891 0.0730705 0.07293452 0.07295972 0.073119
 0.07327772 0.07334236 0.07329545 0.07318304 0.07313636 0.07333152 0.07382962 0.07444489 0.07480182 0.07455276
 0.07361057 0.0722734 0.07115104 0.07084506 0.07151532 0.07270154 0.07366787 0.07399576 0.07380962 0.07346071
 0.07316078 0.07297972 0.0730093 0.0733451 0.0739316 0.07450218 0.07468516 0.07424854 0.07336204 0.07256392
 0.07232122 0.0726691 0.07337847 0.07423402 0.07482068 0.07431561 0.07221986 0.06946027 0.06809524 0.06941012
 0.07257205 0.07549664 0.07674459 0.07627971 0.07486448 0.07339124 0.07264706 0.07304105 0.07433632 0.07588598
 0.07714717 0.07782216 0.0777204 0.07685106 0.07560452 0.07458453 0.07426934 0.07487433 0.07626781 0.07783746
 0.07873328 0.07853647 0.07757398 0.07649679 0.07580176 0.07580809 0.07668174 0.07823827 0.07995941 0.08137548
 0.08230972 0.08277676 0.08286765 0.08273003 0.08249626 0.08226535 0.08219989 0.08244066 0.08282634 0.08293161
 0.0825406 0.08194004 0.08162911 0.08180657 0.08220232 0.08240356 0.08226333 0.08182173 0.08088488 0.07912068
 0.07673949 0.07459935 0.0733681 0.07305586 0.07355978 0.07494579 0.0767898 0.07798037 0.07783855 0.07703498
 0.07686441 0.07784677 0.07940267 0.08069396 0.08143494 0.0819389 0.0826284 0.08355807 0.0842924 0.0842291
 0.08321836 0.08194649 0.08147907 0.08222851 0.08355057 0.08453257 0.08495037 0.08523577 0.08571748 0.08614589
 0.08591394 0.0847109 0.08306316 0.08214289 0.08279851 0.08471495 0.08658424 0.08709376 0.08585556 0.08361354
 0.08162306 0.08075213 0.08114669 0.08258928 0.08480426 0.08731817 0.08938804 0.09037936 0.0902039 0.08930288
 0.08816604 0.08687472 0.08527611 0.08369441 0.08311695 0.08426921 0.08668102 0.08906177 0.09049188 0.09093177
 0.09069399 0.0898172 0.08815081 0.08600524 0.08444214 0.08448454 0.08594914 0.08749495 0.08805068 0.0878178
 0.08765435 0.08790517 0.08821689 0.08825882 0.08821654 0.08852741 0.08932108 0.09025335 0.09087062 0.09102535
 0.09090607 0.09077099 0.0907039 0.09056542 0.09020754 0.0898058 0.08984584 0.09061225 0.09180547 0.09284248
 0.09343171 0.09368966 0.0937858 0.0936552 0.09310924 0.0922045 0.09141992 0.0913163 0.09199136 0.09300584
 0.09384957 0.09432135 0.09448051 0.09445371 0.09434858 0.09422591 0.09411597 0.09409159 0.09425443 0.0945977
 0.09496835 0.09521881 0.09532664 0.0953382 0.09527296 0.0951282 0.09493968 0.09479706 0.09478742 0.09492585
 0.09515434 0.09540059 0.09560812 0.09572411 0.09571752 0.0956216 0.09551392 0.09544503 0.0954174 0.09542897
 0.09549539 0.09561825 0.09576046 0.09587187 0.09593078 0.09594952 0.09594657 0.09592935 0.09590298 0.09588207
 0.09588869 0.09593902 0.09602667 0.09612465 0.09621827 0.09632467 0.09645447 0.09656945 0.09661528 0.09659103
 0.09655313 0.09655494 0.09660652 0.09668684 0.09676754 0.09682053 0.09682028 0.0967618 0.09668481 0.09666285
 0.09674783 0.09693193 0.09717095 0.09742203 0.09764767 0.09781696 0.09792916 0.09801483 0.09809776 0.09817293
 0.09822953 0.09828006 0.09835935 0.09849723 0.09868921 0.09889476 0.09907027 0.09919912 0.09929082 0.09937279
 0.09948367 0.09964024 0.09980206 0.09990366 0.09993529 0.09996086 0.1000418 0.1001683 0.1002805 0.1003407
 0.1003702 0.1004182 0.1005082 0.1006208 0.1007254 0.1008172 0.1009177 0.1010429 0.1011709 0.1012505
 0.1012509 0.1011997 0.1011574 0.1011562 0.1011847 0.1012261 0.1012852 0.1013665 0.1014473 0.1014919
 0.1014906 0.1014735 0.1014764 0.1014998 0.1015107 0.1014832 0.1014251 0.1013659 0.1013279 0.101313
 0.1013067 0.1012909 0.1012552 0.1012007 0.101135 0.1010643 0.1009907 0.1009182 0.1008646 0.100856
 0.1008935 0.1009263 0.100882 0.1007338 0.1005286 0.1003419 0.1002122 0.1001225 0.1000313 0.09991202
 0.09976643 0.09961428 0.09947401 0.09935138 0.09924005 0.0991313 0.09902768 0.09894747 0.09890657 0.09889001
 0.09885238 0.09875938 0.09862366 0.09848977 0.09839003 0.09832577 0.09828195 0.09824488 0.09821073 0.09818809
 0.09818761 0.09820227 0.09820804 0.09819149 0.0981672 0.09816327 0.09820013 0.09828253 0.09839414 0.09849733
 0.09855877 0.09858379 0.0986127 0.09867838 0.09877898 0.09889424 0.09901337 0.09913947 0.09927724 0.09942764
 0.09959161 0.09977232 0.09997246 0.10019 0.100416 0.1006381 0.1008505 0.1010621 0.1012916 0.1015512
 0.1018355 0.1021257 0.1024052 0.1026712 0.102933 0.1031984 0.1034669 0.1037381 0.1040218 0.1043294
 0.1046581 0.1049912 0.1053157 0.1056327 0.1059505 0.1062727 0.1065963 0.1069193 0.1072511 0.1076071
 0.1079857 0.1083558 0.1086814 0.1089594 0.1092241 0.1095145 0.1098428 0.1101898 0.1105213 0.1108142
 0.1110758 0.1113387 0.1116266 0.1119319 0.1122336 0.1125324 0.1128555 0.1132208 0.1136037 0.1139492
 0.1142216 0.1144402 0.1146571 0.114901 0.1151525 0.1153791 0.1155801 0.1157843 0.1160095 0.1162469
 0.1164866 0.116738 0.1170112 0.1172912 0.1175485 0.1177704 0.1179703 0.118165 0.1183536 0.1185189
 0.1186457 0.1187401 0.1188309 0.1189462 0.1190864 0.1192294 0.1193633 0.1195008 0.1196597 0.1198431
 0.1200468 0.1202732 0.1205217 0.1207767 0.1210227 0.1212716 0.1215524 0.1218649 0.1221626 0.1224009
 0.1225874 0.1227654 0.1229601 0.1231662 0.1233823 0.1236255 0.1239069 0.1242117 0.1245136 0.1247982
 0.1250737 0.1253612 0.1256705 0.1259819 0.1262569 0.1264745 0.1266526 0.1268324 0.1270462 0.1273
 0.1275784 0.1278601 0.1281293 0.1283741 0.1285785 0.1287267 0.1288216 0.128887 0.1289422 0.1289754
 0.1289506 0.1288363 0.1286198 0.1282955 0.1278531 0.1272856 0.1266135 0.1258996 0.1252392 0.124729
 0.1244379 0.1243974 0.1246056 0.1250289 0.1256013 0.1262327 0.1268288 0.1273036 0.127582 0.1276083
 0.1273673 0.126893 0.1262491 0.1254998 0.1246973 0.1238807 0.1230799 0.1223335 0.1217175 0.1213545
 0.1213782 0.1218804 0.1228753 0.1242865 0.1259522 0.127664 0.1292424 0.1306005 0.131747 0.1327364
 0.1336209 0.1344357 0.135205 0.1359427 0.1366486 0.1373147 0.1379373 0.1385196 0.1390627 0.139557
 0.1399837 0.1403222 0.1405634 0.140717 0.1408069 0.140855 0.1408743 0.1408752 0.1408651 0.1408316
 0.1407326 0.1405167 0.1401567 0.1396707 0.1391286 0.1386536 0.1384131 0.1385773 0.1392456 0.1403839
 0.1418297 0.1433704 0.1448291 0.1460989 0.1471343 0.1479405 0.1485649 0.1490727 0.1495163 0.1499239
 0.1503097 0.1506819 0.1510446 0.151399 0.1517459 0.1520871 0.1524251 0.1527624 0.1530982 0.1534287
 0.1537515 0.1540731 0.1544055 0.1547558 0.1551173 0.1554749 0.1558207 0.1561618 0.1565078 0.156855
 0.1571908 0.1575112 0.1578262 0.1581474 0.158478 0.1588148 0.1591503 0.1594728 0.1597735 0.1600565
 0.1603356 0.1606207 0.1609101 0.1611979 0.161482 0.1617643 0.1620459 0.1623256 0.1626036 0.1628821
 0.1631593 0.1634273 0.1636805 0.1639244 0.1641722 0.1644306 0.1646952 0.1649575 0.1652148 0.1654715
 0.1657333 0.1660013 0.1662691 0.1665273 0.1667711 0.1670043 0.1672367 0.167477 0.1677275 0.1679834
 0.1682392 0.1684937 0.1687483 0.1690038 0.1692602 0.1695168 0.1697703 0.1700173 0.1702586 0.1704994
 0.170743 0.1709882 0.171233 0.1714788 0.1717284 0.1719816 0.1722337 0.1724788 0.1727145 0.1729412
 0.1731608 0.1733778 0.1736002 0.173835 0.1740819 0.1743344 0.1745848 0.1748295 0.175071 0.1753136
 0.1755582 0.1758013 0.1760403 0.1762775 0.176517 0.176761 0.1770074 0.1772507 0.1774874 0.1777197
 0.1779523 0.1781865 0.1784202 0.1786523 0.1788846 0.1791198 0.1793592 0.1796006 0.1798384 0.1800697
 0.1802985 0.1805308 0.1807666 0.1810018 0.1812351 0.1814688 0.181704 0.1819376 0.1821657 0.1823888
 0.1826124 0.1828412 0.1830749 0.1833111 0.183549 0.1837879 0.1840259 0.1842629 0.1844995 0.1847366
 0.1849758 0.1852189 0.1854651 0.1857095 0.1859491 0.1861843 0.1864179 0.1866535 0.1868935 0.1871359
 0.1873772 0.1876169 0.1878571 0.1880992 0.1883437 0.1885912 0.1888397 0.1890856 0.1893289 0.1895728
 0.1898196 0.1900697 0.190324 0.1905818 0.190842 0.1911044 0.1913658 0.1916198 0.1918623 0.1920956
 0.192323 0.1925457 0.1927655 0.1929848 0.1932045 0.1934267 0.1936539 0.1938848 0.1941173 0.1943543
 0.1945985 0.1948463 0.1950932 0.1953389 0.1955849 0.1958309 0.1960775 0.1963248 0.1965719 0.1968209
 0.1970761 0.1973377 0.1976012 0.1978648 0.1981276 0.1983881 0.1986484 0.1989123 0.1991783 0.1994417
 0.1997025 0.1999634 0.2002245 0.200487 0.2007528 0.2010195 0.2012851 0.2015532 0.2018262 0.2020997
 0.2023708 0.2026417 0.2029119 0.2031798 0.2034474 0.2037162 0.2039848 0.2042558 0.2045333 0.2048131
 0.2050893 0.2053641 0.2056411 0.205918 0.2061944 0.2064707 0.2067414 0.2070038 0.2072653 0.2075296
 0.2077913 0.2080496 0.2083083 0.20856 0.2087826 0.2089267 0.2088633 0.208324 0.2068635 0.2038622
 0.1986426 0.1907363 0.1801639 0.1675211 0.1538165 0.1401565 0.1274427 0.1162461 0.1068734 0.09948272
 0.09416658 0.09102855 0.09024453 0.09214433 0.09732035 0.1062746 0.1181245 0.1294881 0.1357536 0.1345722
 0.1279872 0.1205802 0.1157446 0.1140278 0.1142881 0.1153968 0.1169035 0.1189105 0.1216855 0.1252622
 0.1294005 0.1339771 0.1392109 0.1453245 0.1521093 0.1590022 0.1655546 0.1717183 0.1776831 0.1835342
 0.1891182 0.194189 0.1985971 0.2023415 0.2055213 0.2082749 0.2107236 0.2129444 0.2149864 0.2168791
 0.2185926 0.2200186 0.2210348 0.2216045 0.2218223 0.2218687 0.2219105 0.2220292 0.2222331 0.2225114
 0.222857 0.2232617 0.2237176 0.2242176 0.2247473 0.2252879 0.2258278 0.2263596 0.2268721 0.2273577
 0.2278188 0.2282584 0.2286758 0.2290747 0.2294619 0.2298393 0.2302071 0.2305686 0.2309251 0.231275
 0.2316185 0.2319552 0.232281 0.2325932 0.2328922 0.2331765 0.2334451 0.2337051 0.2339651 0.2342249
 0.2344793 0.2347263 0.234968 0.235209 0.2354549 0.2357055 0.2359534 0.2361942 0.2364323 0.2366722
 0.2369124 0.2371491 0.2373813 0.2376116 0.2378456 0.2380862 0.238329 0.238568 0.2388032 0.2390388
 0.2392793 0.23953 0.2397926 0.2400598 0.2403229 0.2405827 0.2408465 0.2411178 0.241396 0.2416793
 0.2419637 0.2422452 0.2425234 0.2427993 0.2430677 0.2433188 0.2435479 0.2437606 0.2439711 0.2441935
 0.2444321 0.2446802 0.244929 0.2451745 0.2454167 0.2456575 0.2458998 0.2461449 0.2463927 0.2466475
 0.2469157 0.2471956 0.2474781 0.247759 0.2480411 0.2483267 0.2486157 0.2489097 0.2492073 0.2494996
 0.2497785 0.2500496 0.2503327 0.2506472 0.2509911 0.2513387 0.2516654 0.2519714 0.252274 0.2525856
 0.2529082 0.2532339 0.2535391 0.2537972 0.2540173 0.2542552 0.2545652 0.2549472 0.2553527 0.2557348
 0.2560794 0.2563996 0.2567109 0.2570157 0.2573025 0.2575594 0.2577943 0.2580452 0.258356 0.2587317
 0.2591289 0.2595009 0.2598355 0.2601421 0.26043 0.2607079 0.2609717 0.2611849 0.2613158 0.2614141
 0.2616043 0.2619695 0.2624595 0.2629437 0.2633404 0.2636674 0.2639767 0.2642864 0.2645869 0.2648518
 0.2650082 0.2649743 0.264808 0.2647559 0.2650525 0.2656825 0.2664118 0.2670256 0.2674702 0.2678033
 0.2680939 0.2683738 0.2686187 0.2687566 0.2687468 0.268681 0.2687634 0.2691252 0.2696766 0.2702028
 0.2705874 0.2708773 0.2711613 0.2714709 0.2717637 0.2719101 0.2717513 0.2713158 0.2709573 0.2711235
 0.2719237 0.2730048 0.2739059 0.2744653 0.2748192 0.2750785 0.2751633 0.2749509 0.2744295 0.2736977
 0.2730047 0.2727948 0.2734183 0.2746791 0.2759155 0.2766651 0.277063 0.2775004 0.2781139 0.2787313
 0.2791496 0.2793162 0.2792888 0.2791123 0.2787979 0.2784646 0.2784226 0.2789525 0.2799781 0.2810828
 0.2819009 0.282407 0.2827504 0.2828303 0.2821831 0.2805343 0.2785222 0.2775359 0.2784813 0.280829
 0.2831885 0.2846828 0.2854275 0.2858804 0.2862433 0.2864043 0.2859278 0.2841976 0.28126 0.2785569
 0.2780501 0.2802869 0.2837862 0.2864724 0.2872569 0.28626 0.2842855 0.2824494 0.2817789 0.2826543
 0.2846538 0.2869838 0.2889529 0.2901562 0.2905018 0.2901754 0.2895651 0.2891582 0.2892345 0.2894503
 0.2890524 0.2878557 0.2865967 0.2857985 0.2848123 0.2828801 0.2808271 0.2805527 0.2826792 0.2856489
 0.2875299 0.2879958 0.2879756 0.2877845 0.286363 0.2826732 0.2776202 0.2740297 0.2742282 0.2777169
 0.2816638 0.2836885 0.2837473 0.2833188 0.2833281 0.2831689 0.2816046 0.2785163 0.2755886 0.2748029
 0.2762157 0.2778735 0.2779745 0.2761357 0.2724525 0.2670445 0.2615369 0.259366 0.2627475 0.2699177
 0.2766895 0.2800636 0.2791691 0.2740212 0.2658295 0.2582917 0.2559296 0.2599196 0.2667181 0.2714902
 0.271916 0.2682895 0.2615553 0.2529033 0.2447844 0.2405972 0.2425212 0.2497633 0.2587112 0.2644969
 0.2634794 0.2561626 0.2479196 0.244951 0.2484558 0.2538384 0.2561114 0.2545868 0.2518387 0.2501956
 0.250458 0.2523321 0.2547613 0.25676 0.258173 0.2582895 0.2544543 0.2450061 0.233648 0.2274795
 0.2296749 0.2369355 0.2448787 0.2524477 0.2594397 0.263339 0.2619977 0.2578808 0.2564819 0.2604535
 0.2670818 0.2717535 0.2726402 0.271437 0.2702949 0.2692643 0.2673618 0.2653311 0.265682 0.269564
 0.2749673 0.2789046 0.2804084 0.2805339 0.2803537 0.2800525 0.2794841 0.2786199 0.2775073 0.2762851
 0.2751702 0.2742186 0.2732827 0.2722927 0.2711893 0.2693149 0.2654635 0.259453 0.2534688 0.2505552
 0.2514175 0.2539814 0.256374 0.2582797 0.2584477 0.253665 0.2429542 0.2313397 0.2263923 0.2309117
 0.2406969 0.2492634 0.2529698 0.2514703 0.245524 0.2366398 0.2286097 0.2268456 0.2342102 0.2480244
 0.2624825 0.2735661 0.2805635 0.2838087 0.2831431 0.2790735 0.2740635 0.271554 0.2736006 0.2795245
 0.2864289 0.2905453 0.2888748 0.2816601 0.2740202 0.2728516 0.2799901 0.2897714 0.2952844 0.2956095
 0.2947935 0.2954272 0.2964302 0.2966137 0.2971699 0.2996694 0.3034875 0.3063293 0.3062893 0.3026507
 0.2958735 0.2881498 0.2830546 0.2827135 0.2854513 0.2877114 0.2877031 0.2854319 0.2804639 0.2728937
 0.2661337 0.2650826 0.270556 0.2780481 0.2828698 0.284514 0.2851903 0.2858487 0.2850593 0.2814008
 0.2759839 0.2719681 0.2714666 0.2735564 0.2757954 0.2768658 0.276778 0.2753416 0.2721772 0.268357
 0.2665499 0.2686477 0.2737353 0.2789775 0.28222 0.2833035 0.283244 0.2829276 0.2826365 0.2822036
 0.2814435 0.2807605 0.2811854 0.2832773 0.2861556 0.2883067 0.2893375 0.2902974 0.2921987 0.2947748
 0.2968863 0.29778 0.2977514 0.2977705 0.2986093 0.3002075 0.3017309 0.3023089 0.3018917 0.3014087
 0.3019328 0.303657 0.3058199 0.3075781 0.3087124 0.3095063 0.3102682 0.3110684 0.3117088 0.3118896
 0.3116112 0.3114194 0.3120008 0.3134676 0.315221 0.3165572 0.3172459 0.3174871 0.3175043 0.3173307
 0.3169276 0.3163683 0.315844 0.3155176 0.315411 0.3154329 0.3154787 0.3154921 0.3154712 0.3154568
 0.3155039 0.315634 0.3158225 0.3160362 0.3162597 0.3164718 0.3166363 0.3167423 0.3168229 0.316903
 0.3169465 0.316878 0.3166355 0.3161818 0.3154837 0.3145061 0.313221 0.3115975 0.3096058 0.3073089
 0.3050233 0.3033563 0.3029559 0.3040974 0.3064632 0.3093231 0.3119504 0.3139365 0.3152278 0.3159715
 0.3163491 0.316499 0.3165066 0.3164147 0.3162382 0.3159832 0.3156617 0.3152951 0.3149143 0.3145559
 0.3142455 0.3139818 0.3137361 0.3134665 0.3131377 0.3127353 0.3122635 0.3117324 0.3111455 0.3104951
 0.3097608 0.3089197 0.3079731 0.3069634 0.3059555 0.3049979 0.3040965 0.3032237 0.3023444 0.3014269
 0.3004197 0.2992451 0.2978725 0.2964163 0.2951024 0.2940863 0.2933171 0.2926014 0.2917736 0.2907806
 0.2896466 0.2884161 0.2871304 0.2858182 0.2844867 0.2831206 0.2816909 0.2801673 0.278535 0.2768029
 0.2749904 0.273113 0.2711872 0.2692321 0.2672418 0.2651472 0.2628132 0.2600765 0.2567933 0.2528694
 0.2482816 0.2430973 0.2374797 0.2316537 0.2258478 0.2202527 0.2150213 0.2102884 0.2061768 0.202787
 0.2001869 0.1984138 0.1974841 0.1974029 0.1981625 0.199732 0.2020416 0.2049692 0.208346 0.2119812
 0.2156851 0.2192805 0.2226294 0.2256799 0.2284767 0.2310947 0.2335573 0.235827 0.2378589 0.2396396
 0.2411761 0.2424745 0.2435414 0.2443986 0.2450891 0.2456652 0.2461667 0.2466065 0.246975 0.2472617
 0.2474742 0.2476402 0.2477945 0.2479635 0.2481589 0.2483802 0.2486265 0.2489095 0.2492575 0.2497002
 0.250247 0.2508796 0.2515653 0.2522805 0.2530246 0.2538202 0.254702 0.2557065 0.2568631 0.2581854
 0.2596647 0.2612647 0.2629185 0.264533 0.2660055 0.2672489 0.2682087 0.2688702 0.2692531 0.2693957
 0.2693344 0.2690952 0.2686983 0.2681664 0.2675268 0.2668084 0.2660333 0.2652102 0.2643348 0.2634004
 0.2624131 0.2613991 0.2603921 0.2594113 0.2584565 0.2575238 0.2566164 0.2557387 0.2548915 0.2540729
 0.2532782 0.2525031 0.2517534 0.2510421 0.2503701 0.2497134 0.2490307 0.2482763 0.2474086 0.2463994
 0.2452357 0.2439148 0.2424417 0.2408306 0.2390978 0.2372557 0.2353178 0.2333011 0.2312163 0.2290591
 0.2268136 0.2244682 0.2220428 0.2196078 0.21726 0.2150694 0.2130544 0.2111983 0.2094717 0.2078471
 0.206308 0.2048432 0.203435 0.202067 0.2007401 0.1994685 0.198264 0.1971351 0.1960911 0.1951408
 0.1942951 0.1935671 0.1929576 0.1924495 0.1920207 0.1916578 0.191361 0.1911561 0.1910828 0.1911443
 0.1912755 0.1913805 0.1913983 0.1913321 0.1912324 0.1911548 0.1911243 0.1911346 0.1911631 0.1911635
 0.1910534 0.1907341 0.1901176 0.1891297 0.1877246 0.1859222 0.1838202 0.1815653 0.1793238 0.1772525
 0.1754642 0.1740148 0.1729131 0.1721139 0.1715202 0.1710426 0.170669 0.1704673 0.1705215 0.1708404
 0.1712921 0.1716625 0.1718442 0.1719551 0.1722334 0.172834 0.173737 0.1747973 0.1758459 0.1767685
 0.1775213 0.1780971 0.178508 0.178787 0.1789621 0.1790298 0.1789789 0.1788152 0.1785481 0.1781868
 0.1777492 0.1772401 0.1766346 0.175916 0.175097 0.174187 0.1731845 0.1720945 0.1709002 0.1695578
 0.1681022 0.1667375 0.1657651 0.165419 0.1657449 0.1665822 0.1676763 0.1688486 0.1700196 0.1710892
 0.1719394 0.1726275 0.1734694 0.1748292 0.1768118 0.1791546 0.1814077 0.1832211 0.1844622 0.1851227
 0.1852313 0.1848481 0.184016 0.1827205 0.1809817 0.1789247 0.1766938 0.1744044 0.1722016 0.170226
 0.1685304 0.1671264 0.1660191 0.1652024 0.1647297 0.1643267 0.1624408 0.1567779 0.1475528 0.139608
 0.1387665 0.1455599 0.1544945 0.1599527 0.1609696 0.1598988 0.1586979 0.1577876 0.1570917 0.1566794
 0.1566039 0.1567651 0.1569532 0.1569487 0.1566564 0.1560896 0.1551203 0.1532475 0.1495895 0.1432002
 0.1337716 0.1222754 0.1107506 0.1012172 0.09467606 0.09090909 0.08892753 0.08766045 0.08656365 0.08579905
 0.08586722 0.08709419 0.08945474 0.09273612 0.09669113 0.100992 0.105167 0.1087551 0.1115581 0.1136595
 0.115195 0.1162082 0.116717 0.116789 0.1165124 0.1159627 0.1152015 0.1142538 0.1130931 0.1117002
 0.1101546 0.1086636 0.1074767 0.1067279 0.1063541 0.1061879 0.1061091 0.1060834 0.1061071 0.1061781
 0.1063001 0.1064822 0.1067371 0.1070722 0.1074576 0.1078212 0.1081004 0.1082835 0.1083896 0.1084237
 0.1083503 0.1081192 0.1077451 0.1073292 0.1069227 0.1063874 0.1055056 0.1042651 0.1029749 0.1020687
 0.1018023 0.1021005 0.1026438 0.1031046 0.103345 0.103426 0.1034574 0.1034427 0.1032645 0.1028156
</values></Ydata></ScRf><Data_Parameters_AB><parameter name="DPF">1</parameter><parameter name="NPT">3497</parameter><parameter name="FXV">3996</parameter><parameter name="LXV">500</parameter><parameter name="CSF">1</parameter><parameter name="MXY">0.220987543463707</parameter><parameter name="MNY">-0.109420329332352</parameter><parameter name="DAT">17/01/2024</parameter><parameter name="TIM">13:02:52.415 (GMT+1)</parameter><parameter name="DXU">WN</parameter></Data_Parameters_AB><AB__Qtest><MainReport name="Quality Test Report"><Header><Line><Legend>Test result ok/not ok [1/0]: </Legend><Value>0</Value></Line><Line><Legend>Method file: </Legend><Value>C:\Users\Public\Documents\Bruker\OPUS_8.2.28\QT\IRBT_v3_default.QT</Value></Line></Header><Matrix><Line><Legend></Legend><Legend>min</Legend><Legend>max</Legend><Legend>measured</Legend></Line><Line><Value>Absorption (X-Range 1):</Value><Value>0.400000</Value><Value>2.000000</Value><Value>0.231896</Value></Line><Line><Value>Noise (X-Range 4):</Value><Value></Value><Value>0.000300</Value><Value>0.000042</Value></Line><Line><Value>Signal/Noise (X-Range 2):</Value><Value>200.000000</Value><Value></Value><Value>112.934304</Value></Line><Line><Value>Signal/Noise (X-Range 3):</Value><Value>40.000000</Value><Value></Value><Value>58.863987</Value></Line><Line><Value>Water vapour (X-Range 5):</Value><Value></Value><Value>0.000300</Value><Value>0.000028</Value></Line><Line><Value>Signal/Water (X-Range 2):</Value><Value>100.000000</Value><Value></Value><Value>167.224212</Value></Line><Line><Value>Signal/Water (X-Range 3):</Value><Value>20.000000</Value><Value></Value><Value>87.161150</Value></Line><Line><Value>Fringes (X-Range 6):</Value><Value></Value><Value>0.000100</Value><Value>0.000020</Value></Line></Matrix></MainReport></AB__Qtest><Data_Parameters_ScSm><parameter name="DPF">1</parameter><parameter name="NPT">1814</parameter><parameter name="FXV">3996.63438082617</parameter><parameter name="LXV">499.579297603271</parameter><parameter name="CSF">1</parameter><parameter name="MXY">0.377236545085907</parameter><parameter name="MNY">0.0784128606319427</parameter><parameter name="DAT">17/01/2024</parameter><parameter name="TIM">13:02:52.415 (GMT+1)</parameter><parameter name="DXU">WN</parameter></Data_Parameters_ScSm><Data_Parameters_ScRf><parameter name="DPF">1</parameter><parameter name="NPT">1820</parameter><parameter name="FXV">4004.34989121387</parameter><parameter name="LXV">495.721542409425</parameter><parameter name="CSF">1</parameter><parameter name="MXY">0.317504346370697</parameter><parameter name="MNY">0.0680952370166779</parameter><parameter name="DAT">17/01/2024</parameter><parameter name="TIM">13:02:26.186 (GMT+1)</parameter><parameter name="DXU">WN</parameter></Data_Parameters_ScRf><Optic_Parameters_Rf><parameter name="APR">0</parameter><parameter name="APT">Open</parameter><parameter name="BMS">KBr</parameter><parameter name="DTC">RT-DLaTGS_IR-Biotyper [Microplate reader]</parameter><parameter name="HPF">0</parameter><parameter name="LPF">10.0</parameter><parameter name="LPV">4000</parameter><parameter name="PGR">0</parameter><parameter name="RCH">Module port</parameter><parameter name="RDX">0</parameter><parameter name="SRC">MIR</parameter><parameter name="VEL">10.0</parameter><parameter name="SON">Off</parameter></Optic_Parameters_Rf><Acquisition_Parameters_Rf><parameter name="ADT">1</parameter><parameter name="AQM">DD</parameter><parameter name="CFE">0</parameter><parameter name="COR">0</parameter><parameter name="DEL">0</parameter><parameter name="DLY">0</parameter><parameter name="HFW">8000</parameter><parameter name="LFW">0</parameter><parameter name="NSR">32</parameter><parameter name="PLF">AB</parameter><parameter name="RES">6</parameter><parameter name="RGN">-1</parameter><parameter name="STR">0</parameter><parameter name="TCL">MakeCompatibleScalar (0, {WSV=1.000000, ARV=0});</parameter><parameter name="TDL">37</parameter><parameter name="RPO">0</parameter></Acquisition_Parameters_Rf><FT_-_Parameters_Rf><parameter name="APF">B3</parameter><parameter name="HFQ">500</parameter><parameter name="LFQ">4000</parameter><parameter name="NLI">0</parameter><parameter name="PHR">24</parameter><parameter name="PHZ">ML</parameter><parameter name="SPZ">NO</parameter><parameter name="ZFF">1</parameter></FT_-_Parameters_Rf><Optic_Parameters_><parameter name="APR">0</parameter><parameter name="APT">Open</parameter><parameter name="BMS">KBr</parameter><parameter name="CHN">Module port</parameter><parameter name="DTC">RT-DLaTGS_IR-Biotyper [Microplate reader]</parameter><parameter name="HPF">0</parameter><parameter name="LPF">10.0</parameter><parameter name="LPV">4000</parameter><parameter name="PGN">0</parameter><parameter name="RDX">0</parameter><parameter name="SRC">MIR</parameter><parameter name="VEL">10.0</parameter><parameter name="SON">Off</parameter></Optic_Parameters_><FT_-_Parameters_><parameter name="APF">B3</parameter><parameter name="HFQ">500</parameter><parameter name="LFQ">4000</parameter><parameter name="NLI">0</parameter><parameter name="PHR">24</parameter><parameter name="PHZ">ML</parameter><parameter name="SPZ">NO</parameter><parameter name="ZFF">1</parameter></FT_-_Parameters_><Acquisition_Parameters_><parameter name="ADT">1</parameter><parameter name="AQM">DD</parameter><parameter name="CFE">0</parameter><parameter name="COR">0</parameter><parameter name="DEL">0</parameter><parameter name="DLY">0</parameter><parameter name="HFW">8000</parameter><parameter name="LFW">0</parameter><parameter name="NSS">32</parameter><parameter name="PLF">AB</parameter><parameter name="RES">6</parameter><parameter name="SOT">0</parameter><parameter name="TCL">MakeCompatibleScalar (0, {WSV=1.000000, ARV=0});</parameter><parameter name="TDL">37</parameter><parameter name="SPO">0</parameter><parameter name="SGN">-1</parameter></Acquisition_Parameters_><Instrument_Parameters_Rf><parameter name="HFL">15801.365274</parameter><parameter name="LFL">0</parameter><parameter name="LWN">15801.365274</parameter><parameter name="ABP">32157</parameter><parameter name="SSP">1</parameter><parameter name="ARG">2</parameter><parameter name="ASG">2</parameter><parameter name="ASS">32</parameter><parameter name="GFW">16</parameter><parameter name="GBW">16</parameter><parameter name="BFW">0</parameter><parameter name="BBW">0</parameter><parameter name="PKA">9115</parameter><parameter name="PKL">4987</parameter><parameter name="PRA">9124</parameter><parameter name="PRL">5010</parameter><parameter name="P2A">1</parameter><parameter name="P2L">1</parameter><parameter name="P2R">1</parameter><parameter name="P2K">1</parameter><parameter name="DAQ">0</parameter><parameter name="AG2">1</parameter><parameter name="SSM">1</parameter><parameter name="RSN">46300</parameter><parameter name="CRR">0</parameter><parameter name="SRT">1705496546.186</parameter><parameter name="DUR">19.6449890136719</parameter><parameter name="TSC">30.8</parameter><parameter name="MVD">0.448981881141663</parameter><parameter name="AN1">0.226009016422822</parameter><parameter name="AN2">0</parameter><parameter name="VSN">2.485 Apr  4 2017</parameter><parameter name="SRN">0085</parameter><parameter name="CAM">0</parameter><parameter name="INS">IR-Biotyper</parameter><parameter name="FOC">69</parameter><parameter name="RDY">1</parameter><parameter name="ARS">32</parameter></Instrument_Parameters_Rf><Sample_Parameters_><parameter name="BLD"></parameter><parameter name="CNM">Admin</parameter><parameter name="CPY"></parameter><parameter name="DPM"></parameter><parameter name="EXP">IRBT_v3_32Scans.XPM</parameter><parameter name="LCT"></parameter><parameter name="SFM">Microplate, HTS-XT</parameter><parameter name="SNM">240117-1222-Cdiff_SCFA_1_C5_232101287_E5_05443aaf-e68b-453a-910d-a620860c2bca.0</parameter><parameter name="XPP">C:\Users\Public\Documents\Bruker\OPUS_8.2.28\XPM</parameter><parameter name="IST">OK</parameter><parameter name="CPG">1252</parameter><parameter name="UID">fc076753-50c4-4057-972d-01f07f6e774e</parameter></Sample_Parameters_><Instrument_Parameters_><parameter name="HFL">15801.365274</parameter><parameter name="LFL">0</parameter><parameter name="LWN">15801.365274</parameter><parameter name="ABP">32157</parameter><parameter name="SSP">1</parameter><parameter name="ASG">2</parameter><parameter name="ARG">2</parameter><parameter name="ASS">32</parameter><parameter name="GFW">16</parameter><parameter name="GBW">16</parameter><parameter name="BFW">0</parameter><parameter name="BBW">0</parameter><parameter name="PKA">9825</parameter><parameter name="PKL">4979</parameter><parameter name="PRA">9928</parameter><parameter name="PRL">5011</parameter><parameter name="P2A">1</parameter><parameter name="P2L">1</parameter><parameter name="P2R">1</parameter><parameter name="P2K">1</parameter><parameter name="DAQ">0</parameter><parameter name="AG2">1</parameter><parameter name="SSM">1</parameter><parameter name="RSN">23843</parameter><parameter name="CRR">0</parameter><parameter name="SRT">1705496572.416</parameter><parameter name="DUR">19.6439971923828</parameter><parameter name="TSC">30.8</parameter><parameter name="MVD">0.282987087965012</parameter><parameter name="AN1">0.225999907306503</parameter><parameter name="AN2">0</parameter><parameter name="VSN">2.485 Apr  4 2017</parameter><parameter name="SRN">0085</parameter><parameter name="CAM">0</parameter><parameter name="INS">IR-Biotyper</parameter><parameter name="FOC">69</parameter><parameter name="RDY">1</parameter></Instrument_Parameters_><History/></OPUSDataFile>
