<?xml version="1.0" encoding="UTF-8" ?>
<OPUSDataFile><AB><Ydata ylabel="Absorbance Units"><values byteorder="INTEL" format="FLOAT32" numvalues="3497"> -0.1264233 -0.1264512 -0.1264768 -0.126497 -0.1265009 -0.1264907 -0.1264645 -0.1264275 -0.1263868 -0.126346
 -0.1263121 -0.1262843 -0.1262645 -0.1262494 -0.1262378 -0.1262275 -0.1262177 -0.126208 -0.1261982 -0.1261877
 -0.1261764 -0.1261638 -0.1261497 -0.1261352 -0.1261204 -0.1261055 -0.1260906 -0.126074 -0.1260562 -0.126037
 -0.1260177 -0.1260018 -0.1259903 -0.1259874 -0.1259908 -0.1259996 -0.126009 -0.1260136 -0.126011 -0.1259966
 -0.1259748 -0.1259458 -0.1259176 -0.1258936 -0.1258764 -0.1258682 -0.1258626 -0.125859 -0.1258509 -0.1258373
 -0.1258204 -0.1258002 -0.1257843 -0.1257725 -0.1257671 -0.125767 -0.1257675 -0.1257679 -0.1257631 -0.1257535
 -0.1257374 -0.1257159 -0.1256895 -0.1256602 -0.1256301 -0.1256018 -0.1255776 -0.1255591 -0.1255483 -0.1255439
 -0.1255467 -0.1255528 -0.125562 -0.1255686 -0.1255718 -0.1255665 -0.1255518 -0.1255294 -0.1254994 -0.1254713
 -0.1254458 -0.1254326 -0.1254312 -0.1254433 -0.1254669 -0.125496 -0.1255284 -0.125556 -0.1255774 -0.1255865
 -0.1255828 -0.1255625 -0.1255284 -0.1254797 -0.1254249 -0.1253671 -0.1253164 -0.1252779 -0.1252536 -0.1252462
 -0.1252477 -0.1252578 -0.125266 -0.1252712 -0.1252694 -0.1252602 -0.1252452 -0.1252245 -0.1251989 -0.1251683
 -0.1251321 -0.1250912 -0.1250472 -0.1250023 -0.1249617 -0.124927 -0.1249036 -0.1248913 -0.1248931 -0.1249042
 -0.1249238 -0.1249426 -0.1249556 -0.1249562 -0.1249389 -0.1249085 -0.1248636 -0.1248168 -0.1247701 -0.1247302
 -0.1246981 -0.124674 -0.1246579 -0.1246533 -0.1246606 -0.1246869 -0.1247309 -0.1247908 -0.1248612 -0.1249227
 -0.1249689 -0.1249721 -0.124938 -0.1248591 -0.1247548 -0.1246451 -0.1245414 -0.1244615 -0.1244019 -0.1243662
 -0.124347 -0.1243426 -0.1243468 -0.1243587 -0.1243695 -0.1243782 -0.1243747 -0.1243573 -0.1243257 -0.1242795
 -0.1242315 -0.124182 -0.124142 -0.1241109 -0.1240901 -0.124079 -0.124076 -0.1240807 -0.1240926 -0.1241091
 -0.1241266 -0.1241411 -0.1241458 -0.1241398 -0.124119 -0.1240876 -0.1240468 -0.1240012 -0.1239525 -0.1239038
 -0.1238556 -0.1238116 -0.1237724 -0.1237407 -0.1237172 -0.1237003 -0.12369 -0.1236818 -0.1236754 -0.1236659
 -0.1236529 -0.1236308 -0.1235997 -0.1235561 -0.1235024 -0.1234428 -0.1233813 -0.1233278 -0.1232825 -0.1232508
 -0.1232274 -0.1232095 -0.123193 -0.1231739 -0.1231532 -0.12313 -0.1231086 -0.1230901 -0.1230767 -0.1230692
 -0.1230654 -0.1230656 -0.1230633 -0.123058 -0.1230422 -0.1230156 -0.1229773 -0.1229287 -0.1228797 -0.1228318
 -0.1227974 -0.1227744 -0.1227653 -0.1227647 -0.1227644 -0.12276 -0.1227415 -0.1227114 -0.1226667 -0.1226169
 -0.1225664 -0.1225235 -0.1224937 -0.1224762 -0.1224729 -0.1224759 -0.1224842 -0.122493 -0.1225016 -0.1225094
 -0.1225166 -0.1225189 -0.1225161 -0.1225012 -0.122475 -0.122439 -0.1223946 -0.1223491 -0.122301 -0.1222495
 -0.1221928 -0.1221248 -0.1220517 -0.1219774 -0.1219103 -0.1218615 -0.1218278 -0.1218135 -0.1218036 -0.1217931
 -0.1217712 -0.1217318 -0.1216817 -0.12162 -0.1215625 -0.121511 -0.1214712 -0.1214438 -0.1214211 -0.1214026
 -0.1213768 -0.1213439 -0.1212985 -0.1212424 -0.1211793 -0.1211118 -0.1210482 -0.1209903 -0.1209457 -0.1209124
 -0.1208928 -0.12088 -0.1208694 -0.1208543 -0.1208277 -0.1207913 -0.1207432 -0.1206908 -0.1206367 -0.1205811
 -0.120525 -0.1204631 -0.1203942 -0.12032 -0.1202404 -0.1201651 -0.1200943 -0.120033 -0.11998 -0.1199294
 -0.1198797 -0.1198212 -0.1197537 -0.1196712 -0.1195765 -0.1194707 -0.1193594 -0.1192503 -0.1191472 -0.1190575
 -0.1189794 -0.1189147 -0.1188591 -0.1188115 -0.1187679 -0.1187278 -0.1186844 -0.1186369 -0.1185761 -0.1185004
 -0.1184055 -0.1182907 -0.1181603 -0.1180148 -0.1178617 -0.1177013 -0.1175401 -0.1173786 -0.1172219 -0.1170703
 -0.1169266 -0.1167907 -0.1166633 -0.1165441 -0.1164332 -0.1163294 -0.116232 -0.1161387 -0.1160478 -0.1159577
 -0.1158677 -0.1157753 -0.1156812 -0.115576 -0.1154589 -0.1153178 -0.11515 -0.1149596 -0.1147463 -0.1145325
 -0.1143194 -0.1141242 -0.1139461 -0.113784 -0.1136359 -0.1134916 -0.1133506 -0.1132059 -0.1130597 -0.112913
 -0.1127675 -0.1126278 -0.1124897 -0.1123528 -0.112207 -0.1120447 -0.1118628 -0.1116549 -0.1114338 -0.1112012
 -0.1109705 -0.110746 -0.1105269 -0.1103139 -0.1101018 -0.1098899 -0.1096813 -0.1094762 -0.1092819 -0.1090979
 -0.1089232 -0.1087558 -0.1085864 -0.1084136 -0.1082284 -0.108032 -0.1078219 -0.1076016 -0.1073744 -0.1071437
 -0.1069139 -0.1066874 -0.1064673 -0.1062541 -0.1060491 -0.1058497 -0.1056559 -0.1054625 -0.1052683 -0.1050715
 -0.1048713 -0.1046705 -0.1044693 -0.1042667 -0.1040623 -0.1038459 -0.1036173 -0.1033701 -0.1031072 -0.1028385
 -0.1025675 -0.1023117 -0.1020693 -0.1018462 -0.1016355 -0.1014295 -0.1012229 -0.1010061 -0.1007816 -0.1005464
 -0.1003093 -0.100074 -0.09984598 -0.09962954 -0.09941839 -0.09921312 -0.09900025 -0.09877758 -0.09853972 -0.09828544
 -0.09802534 -0.09776004 -0.09750383 -0.09725638 -0.0970206 -0.0967944 -0.09656899 -0.09634297 -0.09610654 -0.09586173
 -0.09560741 -0.09534743 -0.09508745 -0.09482876 -0.09457582 -0.09432526 -0.09407604 -0.09382537 -0.09357052 -0.09331449
 -0.09305708 -0.09280399 -0.0925568 -0.09231699 -0.0920855 -0.09185779 -0.09163371 -0.09140638 -0.09117553 -0.0909377
 -0.09069322 -0.09044374 -0.09018985 -0.08993559 -0.08968081 -0.08942726 -0.0891742 -0.08892048 -0.0886667 -0.08841253
 -0.0881607 -0.08791388 -0.08767407 -0.08744437 -0.08722269 -0.08700969 -0.08679992 -0.0865918 -0.08638114 -0.08616637
 -0.08594749 -0.08572425 -0.0854977 -0.08526802 -0.08503404 -0.08479572 -0.0845523 -0.08430419 -0.08405536 -0.08380662
 -0.08356461 -0.08332917 -0.08310366 -0.08288655 -0.0826764 -0.08247142 -0.08226842 -0.08206578 -0.08186073 -0.08165213
 -0.0814381 -0.08121889 -0.08099367 -0.0807647 -0.080532 -0.0802999 -0.08006909 -0.07984428 -0.07962652 -0.07941664
 -0.07921507 -0.07901718 -0.07882272 -0.07862689 -0.07843002 -0.07823422 -0.07804011 -0.07785292 -0.07767125 -0.07749383
 -0.07731754 -0.07713399 -0.07694324 -0.07673993 -0.07653026 -0.07631794 -0.07611092 -0.07591712 -0.0757383 -0.07557905
 -0.07543253 -0.0752982 -0.07516655 -0.07503509 -0.07489866 -0.07475583 -0.07460665 -0.07445089 -0.07429122 -0.0741278
 -0.07396476 -0.07380228 -0.0736443 -0.07349043 -0.07334067 -0.07319425 -0.07304813 -0.07290275 -0.07275717 -0.07261328
 -0.07247438 -0.07233985 -0.07221171 -0.07208467 -0.07195538 -0.07181982 -0.07167331 -0.07152036 -0.07136029 -0.07120296
 -0.07105105 -0.07090884 -0.07077822 -0.07065394 -0.07053582 -0.07041712 -0.07029748 -0.07017689 -0.07005561 -0.06993718
 -0.06982141 -0.0697089 -0.06959915 -0.06949043 -0.06938297 -0.06927665 -0.06917153 -0.06906809 -0.06896488 -0.06886032
 -0.0687537 -0.06864286 -0.06853136 -0.06842011 -0.06831344 -0.06821403 -0.06812029 -0.06803321 -0.06794557 -0.06785611
 -0.06776146 -0.06766052 -0.06756096 -0.06746313 -0.06737971 -0.06731059 -0.06725799 -0.06721966 -0.06718288 -0.06714631
 -0.06709663 -0.06703774 -0.06697154 -0.06690396 -0.06684732 -0.0668006 -0.06676963 -0.06674539 -0.0667226 -0.06669444
 -0.0666538 -0.0666047 -0.06654572 -0.06648708 -0.06643163 -0.06638332 -0.06634432 -0.06630764 -0.06627318 -0.06623004
 -0.06617753 -0.06611264 -0.06603604 -0.06595713 -0.06587725 -0.06581005 -0.06575505 -0.06571826 -0.06569705 -0.06568808
 -0.06568896 -0.06569383 -0.06570236 -0.0657123 -0.06572288 -0.06573378 -0.06574127 -0.06574354 -0.06573676 -0.0657179
 -0.06568994 -0.0656515 -0.06561426 -0.06557967 -0.06555855 -0.06555272 -0.06556177 -0.06558587 -0.06561376 -0.06564482
 -0.06566805 -0.06568405 -0.06569078 -0.06569034 -0.06568951 -0.0656901 -0.06570054 -0.06572019 -0.0657528 -0.0657943
 -0.06584199 -0.06589037 -0.06593404 -0.06596947 -0.06599249 -0.06600432 -0.06600336 -0.06599636 -0.06598403 -0.06597548
 -0.06597269 -0.06597956 -0.06599733 -0.0660197 -0.06604643 -0.06606679 -0.06608061 -0.06608423 -0.06607839 -0.06606692
 -0.06604937 -0.06602666 -0.06599662 -0.06595303 -0.06589711 -0.06582548 -0.06574731 -0.06567136 -0.06560822 -0.06557199
 -0.06556149 -0.06558383 -0.06562124 -0.06566989 -0.0657093 -0.06573173 -0.06573259 -0.06570773 -0.06567224 -0.06562661
 -0.06559146 -0.06556825 -0.06556617 -0.06558488 -0.06561718 -0.06566188 -0.06570655 -0.0657517 -0.06579234 -0.06583089
 -0.06587156 -0.06591515 -0.06596588 -0.0660215 -0.06608125 -0.06614187 -0.06620003 -0.06625452 -0.06630319 -0.06634755
 -0.06638662 -0.06642664 -0.06646808 -0.06652126 -0.06658822 -0.0666753 -0.06678429 -0.06690895 -0.0670492 -0.06719109
 -0.06733412 -0.0674695 -0.06759771 -0.06771837 -0.06783178 -0.0679389 -0.06803967 -0.06813373 -0.06822254 -0.06830827
 -0.06839311 -0.06848135 -0.06857245 -0.06866829 -0.068765 -0.06886052 -0.06895277 -0.06903936 -0.06912391 -0.06920654
 -0.06929264 -0.06938394 -0.06947934 -0.06957962 -0.06967492 -0.06976462 -0.06984043 -0.06990256 -0.06995693 -0.07000542
 -0.07006582 -0.0701385 -0.07023624 -0.07035452 -0.07048862 -0.07063165 -0.0707679 -0.07089474 -0.07100065 -0.07109043
 -0.07116339 -0.0712277 -0.07128871 -0.07135028 -0.07141619 -0.07148407 -0.07155392 -0.0716234 -0.07169134 -0.0717613
 -0.07183333 -0.07191277 -0.07200015 -0.07209394 -0.07219384 -0.07229159 -0.07238697 -0.07247392 -0.0725536 -0.0726276
 -0.07269745 -0.07276859 -0.07284098 -0.07291775 -0.07299671 -0.07307649 -0.07315443 -0.07322725 -0.07329437 -0.07335348
 -0.07340841 -0.07345956 -0.0735128 -0.07357027 -0.07363432 -0.07370645 -0.07378292 -0.07386357 -0.07394388 -0.07402335
 -0.07410317 -0.07418356 -0.07427036 -0.07436362 -0.0744667 -0.07457838 -0.07469516 -0.07481533 -0.07493213 -0.07504496
 -0.07514907 -0.07524563 -0.07533385 -0.07541627 -0.07549486 -0.07557197 -0.07564993 -0.07572928 -0.07581092 -0.07589442
 -0.07597961 -0.07606729 -0.07615777 -0.0762509 -0.07634737 -0.07644014 -0.07652893 -0.07660322 -0.07666276 -0.07670657
 -0.07673635 -0.07676655 -0.07679888 -0.07685003 -0.07691798 -0.0770067 -0.07711054 -0.07722033 -0.07733128 -0.0774323
 -0.07752272 -0.07759685 -0.07765907 -0.0777095 -0.07775594 -0.07780187 -0.07785296 -0.07791269 -0.077979 -0.07805286
 -0.07812674 -0.07819977 -0.07826682 -0.07832727 -0.07838189 -0.07843071 -0.07847551 -0.07851587 -0.07854886 -0.07857376
 -0.07858501 -0.07858347 -0.07856781 -0.07854155 -0.07851075 -0.07847957 -0.0784571 -0.07844417 -0.07844593 -0.07845844
 -0.07848102 -0.0785087 -0.07853845 -0.07856933 -0.07859985 -0.07863298 -0.07866932 -0.07871001 -0.07875582 -0.07880212
 -0.07884877 -0.07888823 -0.07892019 -0.07894187 -0.07895383 -0.07896055 -0.07896282 -0.07896733 -0.07897364 -0.07898398
 -0.07899724 -0.07901175 -0.07902749 -0.07904354 -0.07906071 -0.07907978 -0.07910029 -0.07912243 -0.07914489 -0.07916667
 -0.07918844 -0.07920941 -0.07923417 -0.07926311 -0.07930241 -0.07935309 -0.07941827 -0.07949864 -0.0795896 -0.07969079
 -0.07979117 -0.07989018 -0.0799775 -0.08005398 -0.0801179 -0.08017165 -0.08022176 -0.0802703 -0.08032523 -0.08038654
 -0.08045811 -0.08053772 -0.08062497 -0.08071636 -0.08080958 -0.08090128 -0.08098913 -0.08107173 -0.08114786 -0.0812184
 -0.08128305 -0.08134459 -0.08140321 -0.08146238 -0.08152246 -0.08158498 -0.08164998 -0.08171601 -0.08178294 -0.08184873
 -0.08191367 -0.08197812 -0.08204265 -0.08210962 -0.08217859 -0.08224996 -0.08232266 -0.08239505 -0.08246679 -0.08253679
 -0.08260532 -0.08267271 -0.0827377 -0.08279973 -0.08285809 -0.08291193 -0.08296321 -0.08301195 -0.08306146 -0.08311242
 -0.08316556 -0.08322113 -0.08327685 -0.08333258 -0.08338474 -0.08343319 -0.0834747 -0.08350957 -0.08353723 -0.08355916
 -0.08357992 -0.08360112 -0.0836293 -0.08366353 -0.08370609 -0.08375333 -0.08380222 -0.08384968 -0.08389226 -0.083929
 -0.08395877 -0.08398049 -0.08399397 -0.08399677 -0.08398817 -0.08396722 -0.08393336 -0.08388902 -0.0838342 -0.08377328
 -0.08370648 -0.08363808 -0.08356804 -0.08349758 -0.08342586 -0.08334932 -0.0832663 -0.08316885 -0.08305667 -0.08292411
 -0.08277419 -0.08260846 -0.08243167 -0.08225004 -0.08206543 -0.08188199 -0.08169757 -0.08151188 -0.08132385 -0.08113191
 -0.08094066 -0.08075039 -0.08056775 -0.08039412 -0.0802315 -0.08008045 -0.07993821 -0.07980466 -0.07967775 -0.07955774
 -0.0794475 -0.07934782 -0.07926497 -0.07919926 -0.07915579 -0.07913303 -0.07913063 -0.07914536 -0.07917198 -0.07920779
 -0.0792475 -0.07929055 -0.07933503 -0.07938037 -0.07942639 -0.07947043 -0.0795116 -0.07954758 -0.07957726 -0.07960171
 -0.07962091 -0.07963641 -0.07964846 -0.07965643 -0.07966027 -0.07966156 -0.07966085 -0.079666 -0.07967797 -0.0797069
 -0.07975268 -0.0798203 -0.07990897 -0.08001871 -0.08015022 -0.08030438 -0.0804827 -0.0806881 -0.08091874 -0.08117558
 -0.08145188 -0.08174499 -0.08204714 -0.08235476 -0.08266351 -0.08297128 -0.08327809 -0.08358338 -0.08388976 -0.08419734
 -0.08450952 -0.08482652 -0.08514865 -0.08547547 -0.08580066 -0.08612289 -0.08643014 -0.08672185 -0.08698878 -0.08723281
 -0.08745334 -0.08765391 -0.08784026 -0.08801476 -0.0881827 -0.08834448 -0.08850218 -0.08865537 -0.08880444 -0.08894856
 -0.08908788 -0.08922017 -0.08934507 -0.08945981 -0.08956377 -0.08965611 -0.08973652 -0.08980647 -0.08986601 -0.08991624
 -0.08995708 -0.0899875 -0.09000751 -0.09001639 -0.09001479 -0.09000445 -0.08998679 -0.08996554 -0.08994347 -0.08992578
 -0.08991779 -0.08992708 -0.08995984 -0.09002457 -0.09012196 -0.09025716 -0.0904201 -0.09060988 -0.09081039 -0.0910174
 -0.09121919 -0.09141237 -0.09159558 -0.09176788 -0.09193481 -0.09209663 -0.09225873 -0.0924212 -0.09258571 -0.092752
 -0.09291862 -0.09308603 -0.09325463 -0.09342649 -0.09360711 -0.09379806 -0.09400597 -0.09422771 -0.09446397 -0.09470584
 -0.09494668 -0.09517766 -0.09539079 -0.09558488 -0.09575599 -0.095912 -0.09605378 -0.0961904 -0.09632411 -0.09645709
 -0.09659033 -0.09671872 -0.09684205 -0.09695473 -0.09705675 -0.09714799 -0.09722904 -0.09730431 -0.0973741 -0.09744219
 -0.09750798 -0.09757175 -0.09763285 -0.0976899 -0.09774339 -0.09779319 -0.09784053 -0.09788652 -0.09793174 -0.09797693
 -0.09802208 -0.09806725 -0.09811277 -0.09815857 -0.09820562 -0.0982541 -0.09830449 -0.09835694 -0.09841071 -0.09846579
 -0.09852075 -0.09857547 -0.09862799 -0.09867816 -0.09872378 -0.09876516 -0.09880222 -0.09883594 -0.09886907 -0.0989022
 -0.09893806 -0.09897578 -0.09901534 -0.09905591 -0.0990961 -0.09913747 -0.09918047 -0.09922683 -0.09927843 -0.09933174
 -0.09938715 -0.09943649 -0.09947827 -0.09950701 -0.09952129 -0.09952458 -0.09951683 -0.09950792 -0.09949832 -0.0994967
 -0.09950282 -0.09951933 -0.09954506 -0.09957663 -0.09961265 -0.09964748 -0.0996806 -0.09970807 -0.09973074 -0.09974785
 -0.09976127 -0.09977222 -0.09978279 -0.09979461 -0.09980895 -0.09982716 -0.09984801 -0.09987213 -0.09989471 -0.09991518
 -0.09992832 -0.09993306 -0.09992982 -0.09991832 -0.09990636 -0.09989439 -0.09989187 -0.09989855 -0.0999172 -0.0999462
 -0.09997996 -0.1000168 -0.1000488 -0.1000762 -0.1000951 -0.1001081 -0.1001167 -0.1001238 -0.100133 -0.1001456
 -0.1001639 -0.1001862 -0.1002129 -0.1002401 -0.1002669 -0.1002903 -0.1003091 -0.1003241 -0.1003349 -0.1003452
 -0.1003551 -0.1003672 -0.1003816 -0.1003977 -0.1004157 -0.100435 -0.1004557 -0.100479 -0.1005043 -0.1005316
 -0.100559 -0.1005834 -0.1006033 -0.1006147 -0.100619 -0.1006157 -0.1006082 -0.1005988 -0.10059 -0.1005841
 -0.1005803 -0.1005792 -0.1005781 -0.1005765 -0.1005729 -0.1005668 -0.1005596 -0.1005512 -0.1005449 -0.1005407
 -0.1005401 -0.100543 -0.1005479 -0.1005544 -0.1005602 -0.1005652 -0.1005686 -0.1005707 -0.1005722 -0.1005731
 -0.1005736 -0.1005731 -0.1005711 -0.1005667 -0.1005589 -0.100548 -0.1005336 -0.1005174 -0.1004994 -0.1004825
 -0.1004672 -0.1004552 -0.100447 -0.1004417 -0.1004395 -0.1004377 -0.1004361 -0.1004326 -0.1004273 -0.1004201
 -0.1004114 -0.1004028 -0.1003944 -0.1003877 -0.1003824 -0.1003786 -0.1003758 -0.1003732 -0.1003703 -0.100366
 -0.1003606 -0.1003539 -0.100347 -0.1003402 -0.1003338 -0.1003284 -0.1003215 -0.1003129 -0.1003003 -0.100283
 -0.1002628 -0.1002397 -0.1002192 -0.1002016 -0.1001904 -0.1001853 -0.1001846 -0.1001877 -0.1001903 -0.1001923
 -0.1001918 -0.1001893 -0.1001855 -0.1001811 -0.1001776 -0.1001753 -0.1001754 -0.1001774 -0.1001818 -0.1001873
 -0.100194 -0.1001998 -0.1002042 -0.1002058 -0.1002042 -0.1001994 -0.1001914 -0.1001809 -0.1001682 -0.1001545
 -0.1001398 -0.1001263 -0.1001142 -0.1001058 -0.1001012 -0.100102 -0.1001076 -0.1001174 -0.1001305 -0.100145
 -0.10016 -0.1001736 -0.1001851 -0.100193 -0.1001974 -0.1001977 -0.1001944 -0.1001878 -0.1001787 -0.1001674
 -0.1001544 -0.1001396 -0.100124 -0.1001075 -0.1000922 -0.1000784 -0.1000669 -0.1000576 -0.1000482 -0.1000384
 -0.1000256 -0.10001 -0.09999289 -0.09997503 -0.09996036 -0.09994873 -0.09994214 -0.09993911 -0.0999383 -0.09993823
 -0.09993677 -0.09993304 -0.09992574 -0.09991451 -0.09989873 -0.0998788 -0.09985442 -0.09982768 -0.09979887 -0.09977033
 -0.09974249 -0.09971619 -0.09969157 -0.09966834 -0.09964647 -0.09962618 -0.09960749 -0.09959106 -0.09957673 -0.099564
 -0.09955265 -0.09954166 -0.09953103 -0.09952036 -0.09950972 -0.09949928 -0.09948856 -0.09947722 -0.09946454 -0.09944967
 -0.09943281 -0.09941351 -0.09939335 -0.09937264 -0.09935336 -0.09933612 -0.09932167 -0.09931036 -0.09930123 -0.09929429
 -0.09928737 -0.09928034 -0.09927074 -0.09925856 -0.09924287 -0.09922393 -0.09920257 -0.09917927 -0.09915596 -0.09913316
 -0.09911285 -0.09909549 -0.0990827 -0.09907459 -0.09907215 -0.09907454 -0.09908175 -0.09909178 -0.09910391 -0.0991153
 -0.09912486 -0.09913046 -0.09913108 -0.09912728 -0.09911861 -0.09910894 -0.09909854 -0.09909128 -0.09908739 -0.09908656
 -0.09908848 -0.09908888 -0.09908777 -0.09908269 -0.09907448 -0.09906503 -0.09905477 -0.09904605 -0.09903792 -0.09902985
 -0.09902094 -0.09900939 -0.09899645 -0.09898221 -0.09896885 -0.09895778 -0.09894948 -0.09894493 -0.09894202 -0.09894062
 -0.09893778 -0.09893294 -0.0989246 -0.09891237 -0.09889762 -0.09888043 -0.09886438 -0.0988496 -0.09883862 -0.09883098
 -0.09882533 -0.09882084 -0.09881353 -0.0988033 -0.09878765 -0.09876768 -0.09874398 -0.09871808 -0.09869208 -0.09866665
 -0.09864311 -0.0986213 -0.09860156 -0.09858338 -0.0985666 -0.09855088 -0.09853617 -0.09852182 -0.0985077 -0.09849332
 -0.09847856 -0.09846333 -0.09844759 -0.09843157 -0.09841526 -0.09839871 -0.09838194 -0.09836527 -0.09834857 -0.09833168
 -0.09831409 -0.09829453 -0.09827241 -0.09824583 -0.09821555 -0.09818119 -0.09814516 -0.09810919 -0.09807543 -0.09804591
 -0.09802044 -0.09799968 -0.09798191 -0.09796689 -0.09795297 -0.0979398 -0.0979265 -0.09791291 -0.09789894 -0.09788459
 -0.09786996 -0.09785499 -0.09783897 -0.09782165 -0.0978009 -0.09777669 -0.09774742 -0.097714 -0.09767777 -0.09764015
 -0.09760445 -0.09757092 -0.09754176 -0.09751514 -0.09749046 -0.09746534 -0.09743776 -0.09740803 -0.0973753 -0.0973424
 -0.09731012 -0.09727951 -0.09725136 -0.09722265 -0.09719314 -0.09715991 -0.09712267 -0.09708298 -0.09704107 -0.09700165
 -0.09696469 -0.09693237 -0.09690391 -0.09687736 -0.09685222 -0.0968258 -0.09679904 -0.09677211 -0.09674672 -0.09672527
 -0.09670833 -0.09669785 -0.09669184 -0.09668998 -0.09668949 -0.09668878 -0.09668783 -0.09668579 -0.09668595 -0.09668874
 -0.09669711 -0.09671172 -0.09673116 -0.09675547 -0.09677909 -0.09680177 -0.09681898 -0.09683096 -0.09683741 -0.09683863
 -0.09683637 -0.09682927 -0.09681542 -0.09679166 -0.09675093 -0.09669202 -0.0966088 -0.09650639 -0.09638509 -0.09625625
 -0.09612543 -0.09600534 -0.09590285 -0.09582403 -0.09577325 -0.09574607 -0.09574365 -0.09575299 -0.09577346 -0.09578758
 -0.09579413 -0.09578001 -0.09574522 -0.09569308 -0.0956253 -0.09555697 -0.09548825 -0.09542816 -0.09537469 -0.09532677
 -0.09528293 -0.09523978 -0.09519687 -0.09515243 -0.0951058 -0.09505577 -0.09500208 -0.09494381 -0.0948823 -0.09481742
 -0.0947522 -0.09468737 -0.09462548 -0.09456736 -0.09451293 -0.09446266 -0.09441219 -0.09436128 -0.09430461 -0.09424207
 -0.0941721 -0.09409539 -0.09401648 -0.09393633 -0.0938618 -0.09379268 -0.09373233 -0.09367895 -0.09363075 -0.0935858
 -0.0935405 -0.09349463 -0.09344647 -0.09339705 -0.09334656 -0.09329575 -0.09324501 -0.09319459 -0.09314459 -0.09309535
 -0.09304691 -0.09299976 -0.092954 -0.0929095 -0.09286626 -0.09282324 -0.09278038 -0.09273648 -0.09269169 -0.09264646
 -0.09260116 -0.09255761 -0.09251601 -0.09247822 -0.09244347 -0.09241149 -0.09238052 -0.09234817 -0.09231285 -0.09227195
 -0.09222557 -0.09217247 -0.09211507 -0.0920538 -0.09199198 -0.09193064 -0.09187197 -0.09181672 -0.09176513 -0.0917174
 -0.09167264 -0.09163082 -0.0915906 -0.09155186 -0.09151229 -0.09147169 -0.09142759 -0.09138016 -0.09132852 -0.09127336
 -0.09121612 -0.09115764 -0.09110024 -0.09104449 -0.09099227 -0.09094339 -0.09089874 -0.09085655 -0.09081635 -0.09077531
 -0.09073201 -0.09068475 -0.09063235 -0.09057593 -0.09051513 -0.09045348 -0.09039131 -0.09033193 -0.09027565 -0.09022386
 -0.09017658 -0.09013236 -0.09009095 -0.09004934 -0.09000749 -0.08996348 -0.08991755 -0.08986946 -0.08981925 -0.08976678
 -0.08971205 -0.08965463 -0.08959559 -0.08953538 -0.08947626 -0.08941998 -0.0893677 -0.08932091 -0.08927795 -0.08923888
 -0.08920075 -0.08916291 -0.08912349 -0.0890821 -0.08903831 -0.08899208 -0.08894298 -0.08889098 -0.08883545 -0.08877653
 -0.08871529 -0.08865226 -0.08859062 -0.08853068 -0.08847547 -0.08842414 -0.0883766 -0.08833129 -0.0882858 -0.08823936
 -0.08819003 -0.08813846 -0.0880845 -0.088029 -0.08797236 -0.0879149 -0.08785676 -0.08779818 -0.08773903 -0.0876806
 -0.08762291 -0.08756821 -0.08751672 -0.08746944 -0.08742639 -0.08738601 -0.08734796 -0.08730835 -0.08726693 -0.08722024
 -0.08716861 -0.08711088 -0.08704817 -0.08698203 -0.08691414 -0.08684747 -0.08678362 -0.08672578 -0.08667331 -0.08662761
 -0.08658467 -0.08654328 -0.08649892 -0.0864492 -0.08639438 -0.08633348 -0.08627146 -0.08620884 -0.08615019 -0.08609612
 -0.08604613 -0.0860002 -0.08595505 -0.0859106 -0.08586483 -0.08581798 -0.08577012 -0.08572132 -0.08567185 -0.08562132
 -0.08556902 -0.0855146 -0.08545708 -0.08539686 -0.08533361 -0.08526893 -0.08520352 -0.08513972 -0.08507878 -0.08502246
 -0.08497198 -0.08492668 -0.08488707 -0.0848498 -0.08481467 -0.08477734 -0.0847374 -0.08469215 -0.08464145 -0.08458622
 -0.08452673 -0.08446646 -0.08440559 -0.08434691 -0.08429004 -0.08423528 -0.08418214 -0.08412939 -0.08407737 -0.08402599
 -0.08397573 -0.08392727 -0.08388013 -0.08383439 -0.08378889 -0.08374289 -0.08369633 -0.08364884 -0.08360134 -0.08355409
 -0.08350723 -0.0834609 -0.08341455 -0.08336809 -0.08332166 -0.08327527 -0.08322901 -0.08318273 -0.08313488 -0.08308536
 -0.08303238 -0.08297656 -0.08291878 -0.08286028 -0.08280449 -0.08275189 -0.08270512 -0.08266319 -0.08262639 -0.08259273
 -0.08256095 -0.08252906 -0.08249565 -0.08245978 -0.08242057 -0.08237878 -0.08233429 -0.08228864 -0.08224207 -0.08219541
 -0.08214876 -0.08210235 -0.0820562 -0.08201121 -0.08196738 -0.08192516 -0.08188422 -0.08184276 -0.08180041 -0.0817546
 -0.0817058 -0.08165359 -0.08159936 -0.08154521 -0.08149205 -0.08144194 -0.08139451 -0.08135036 -0.08130828 -0.08126783
 -0.081228 -0.08118829 -0.08114821 -0.08110756 -0.08106614 -0.08102389 -0.08098079 -0.08093678 -0.08089246 -0.08084785
 -0.08080384 -0.08076043 -0.08071772 -0.08067547 -0.08063199 -0.08058736 -0.08054063 -0.0804928 -0.08044569 -0.08040027
 -0.08035959 -0.08032235 -0.08028873 -0.08025586 -0.08022127 -0.08018374 -0.08014128 -0.08009615 -0.08004851 -0.0800012
 -0.07995532 -0.07991072 -0.07986778 -0.07982422 -0.07977987 -0.07973296 -0.07968337 -0.07963151 -0.0795775 -0.07952344
 -0.07946949 -0.0794178 -0.07936821 -0.0793215 -0.07927691 -0.07923305 -0.07918923 -0.07914335 -0.07909595 -0.07904662
 -0.07899673 -0.07894761 -0.07889907 -0.07885186 -0.07880365 -0.07875367 -0.07870031 -0.07864255 -0.07858216 -0.07851906
 -0.07845666 -0.0783953 -0.07833737 -0.07828306 -0.07823221 -0.07818469 -0.07813877 -0.07809424 -0.07804894 -0.07800262
 -0.07795306 -0.07790034 -0.07784334 -0.07778277 -0.07771888 -0.07765345 -0.07758871 -0.07752587 -0.07746717 -0.07741151
 -0.07735952 -0.07730775 -0.07725489 -0.07719906 -0.07713892 -0.0770768 -0.07701272 -0.07695029 -0.07689007 -0.07683239
 -0.07677737 -0.07672223 -0.0766669 -0.07660973 -0.07655094 -0.07649121 -0.07643078 -0.07637099 -0.07631159 -0.0762526
 -0.07619351 -0.07613328 -0.07607196 -0.07600893 -0.07594512 -0.07588115 -0.07581765 -0.07575533 -0.07569383 -0.07563328
 -0.07557282 -0.07551216 -0.07545118 -0.07538975 -0.07532826 -0.07526678 -0.07520497 -0.07514281 -0.07508022 -0.07501722
 -0.07495448 -0.07489202 -0.07483049 -0.0747695 -0.07470788 -0.07464504 -0.07457858 -0.07450885 -0.07443496 -0.0743587
 -0.07428188 -0.07420614 -0.07413395 -0.07406479 -0.07399946 -0.07393568 -0.07387263 -0.07380893 -0.07374381 -0.07367782
 -0.07361106 -0.07354315 -0.07347421 -0.07340214 -0.0733268 -0.07324751 -0.0731644 -0.0730807 -0.07299673 -0.07291683
 -0.07284083 -0.07277063 -0.07270537 -0.07264384 -0.07258493 -0.07252619 -0.07246647 -0.07240307 -0.07233604 -0.07226405
 -0.07218901 -0.07211141 -0.07203384 -0.07195784 -0.07188356 -0.07181182 -0.07173979 -0.07166713 -0.07159141 -0.07151207
 -0.07143014 -0.07134558 -0.07126077 -0.07117576 -0.07109154 -0.07100812 -0.07092585 -0.07084498 -0.07076678 -0.07069129
 -0.07061961 -0.07055057 -0.07048266 -0.07041425 -0.07034221 -0.07026664 -0.07018615 -0.07010243 -0.07001615 -0.06992881
 -0.06984132 -0.06975395 -0.06966691 -0.06958058 -0.06949504 -0.06941079 -0.06932795 -0.06924618 -0.06916548 -0.06908468
 -0.06900375 -0.06892195 -0.06883932 -0.0687561 -0.06867229 -0.06858815 -0.06850322 -0.06841636 -0.06832705 -0.06823342
 -0.06813616 -0.06803487 -0.06793214 -0.06783023 -0.06773093 -0.06763671 -0.06754579 -0.06745848 -0.06737106 -0.06728241
 -0.06719024 -0.06709362 -0.06699337 -0.06688927 -0.06678436 -0.0666788 -0.06657578 -0.0664754 -0.06637819 -0.06628387
 -0.06619022 -0.06609704 -0.06600231 -0.06590616 -0.06580804 -0.06570797 -0.06560575 -0.0655013 -0.06539398 -0.06528498
 -0.06517508 -0.06506563 -0.06495813 -0.06485198 -0.06474759 -0.06464292 -0.06453717 -0.06443015 -0.06432155 -0.06421246
 -0.06410305 -0.06399338 -0.06388351 -0.06377231 -0.06365977 -0.06354608 -0.06343138 -0.06331725 -0.06320352 -0.06309035
 -0.06297697 -0.06286112 -0.06274215 -0.06261718 -0.06248719 -0.06235196 -0.06221358 -0.06207424 -0.06193473 -0.06179665
 -0.06165871 -0.06152063 -0.06138146 -0.06124045 -0.06109907 -0.06095739 -0.06081736 -0.06067944 -0.06054284 -0.06040768
 -0.06026977 -0.06012886 -0.05998052 -0.05982491 -0.05966163 -0.0594916 -0.05931934 -0.05914504 -0.05897215 -0.05879901
 -0.05862387 -0.05844515 -0.05825922 -0.05806708 -0.05786798 -0.05766452 -0.05745856 -0.05725083 -0.05704266 -0.05683199
 -0.05661886 -0.05639954 -0.05617346 -0.05593664 -0.05568821 -0.05542797 -0.05515553 -0.05487764 -0.05459468 -0.05431503
 -0.05403871 -0.05376876 -0.05350472 -0.05324595 -0.05299199 -0.05274192 -0.05249371 -0.05224362 -0.05198762 -0.0517173
 -0.0514326 -0.05112787 -0.05081217 -0.05048943 -0.05016904 -0.04985867 -0.04955497 -0.04925965 -0.04896285 -0.04866214
 -0.04835414 -0.04803756 -0.04771599 -0.04738983 -0.04705802 -0.0467204 -0.04636743 -0.04599918 -0.04561186 -0.04520807
 -0.04479981 -0.04438859 -0.04398714 -0.04359171 -0.04320086 -0.04280958 -0.04240939 -0.04199798 -0.04157036 -0.04112414
 -0.04065787 -0.04016418 -0.03964024 -0.03907655 -0.03846804 -0.03781483 -0.0371138 -0.03638017 -0.03561459 -0.03483801
 -0.03405226 -0.03327256 -0.0324997 -0.03174067 -0.03099453 -0.03025518 -0.02951876 -0.02876168 -0.02798041 -0.02714628
 -0.02626866 -0.02534893 -0.0244103 -0.02349226 -0.02260164 -0.0217674 -0.02096767 -0.02019681 -0.01943144 -0.01865527
 -0.01786621 -0.01705789 -0.01624279 -0.01542265 -0.01460721 -0.01379801 -0.01300217 -0.01222035 -0.01145951 -0.01071999
 -0.009999286 -0.009297289 -0.0086101 -0.007940355 -0.007300693 -0.006694161 -0.006140414 -0.005634682 -0.005177581 -0.004759311
 -0.004362799 -0.00398694 -0.003620896 -0.003276041 -0.002958999 -0.002673628 -0.002426804 -0.002207207 -0.002011962 -0.001833855
 -0.001668963 -0.001523622 -0.001398081 -0.001299459 -0.001228881 -0.00118383 -0.001164207 -0.001163679 -0.001182359 -0.00121995
 -0.001277129 -0.001358228 -0.00146254 -0.001590517 -0.001739698 -0.001905296 -0.002083729 -0.002268198 -0.002453516 -0.00263218
 -0.002798399 -0.00294535 -0.00306997 -0.003168814 -0.003241157 -0.003286251 -0.003302989 -0.00329071 -0.003250208 -0.003180903
 -0.003088654 -0.002973928 -0.002841719 -0.002692332 -0.002523642 -0.002335303 -0.00212194 -0.001883683 -0.001618349 -0.001326897
 -0.001011296 -0.0006729715 -0.0003160589 5.806308E-05 0.0004453759 0.000845007 0.001254577 0.001673337 0.002100396 0.002533913
 0.002972743 0.003415456 0.003860871 0.004310119 0.004763134 0.005221763 0.005686507 0.006156982 0.006633402 0.007112735
 0.007594846 0.008072966 0.0085466 0.009007161 0.009454696 0.009885283 0.01029918 0.01069694 0.01107498 0.01142628
 0.01174423 0.01201374 0.01223305 0.01239389 0.0124976 0.01254405 0.01252986 0.01245337 0.01231137 0.01210193
 0.01182514 0.01148264 0.01106409 0.01056974 0.009977561 0.009284013 0.00849048 0.007596491 0.006645151 0.005638095
 0.004608226 0.003552104 0.002462549 0.001337444 0.0001630578 -0.001055667 -0.002314065 -0.003605221 -0.00491335 -0.006239371
 -0.007576365 -0.008932393 -0.01031704 -0.01171886 -0.01314423 -0.01454462 -0.01590354 -0.01718358 -0.01836541 -0.01946485
 -0.02047952 -0.02144275 -0.02235874 -0.02323835 -0.02408266 -0.02488426 -0.02564286 -0.02635289 -0.02701456 -0.02762705
 -0.02818979 -0.02869896 -0.02915615 -0.02955985 -0.02992073 -0.03025285 -0.03057531 -0.03091643 -0.03129002 -0.03172065
 -0.0322025 -0.03274315 -0.03331899 -0.03392414 -0.03453401 -0.03514136 -0.0357293 -0.03629488 -0.03682068 -0.03730463
 -0.03773281 -0.0381039 -0.03842667 -0.03870252 -0.03895726 -0.03919227 -0.03942978 -0.03966883 -0.0399184 -0.04017492
 -0.0404347 -0.04069253 -0.04093834 -0.04116612 -0.04136521 -0.04152948 -0.04165033 -0.04172396 -0.04174536 -0.04171464
 -0.04163061 -0.04149456 -0.04130665 -0.04106775 -0.04077784 -0.04043888 -0.04005092 -0.03961717 -0.03913781 -0.03861592
 -0.03805217 -0.03745716 -0.03683414 -0.03621161 -0.03559264 -0.03500737 -0.03445158 -0.0339306 -0.03343642 -0.03295539
 -0.03248594 -0.03202009 -0.03155967 -0.03110656 -0.03065282 -0.03019603 -0.02972344 -0.02922481 -0.02871116 -0.02817882
 -0.02766366 -0.02717293 -0.02672342 -0.0263201 -0.0259462 -0.02560109 -0.02526364 -0.02493344 -0.02460559 -0.02428112
 -0.02396634 -0.02366087 -0.02336751 -0.02308257 -0.02279825 -0.02250935 -0.02220229 -0.02187474 -0.02151705 -0.0211322
 -0.0207195 -0.02028234 -0.01982361 -0.01934192 -0.01883694 -0.01830885 -0.01775544 -0.01718823 -0.01660743 -0.01603267
 -0.01546613 -0.01492292 -0.01440436 -0.01391598 -0.0134581 -0.01303518 -0.01264872 -0.01231165 -0.0120269 -0.01181388
 -0.01167484 -0.01162552 -0.0116678 -0.01181173 -0.01206036 -0.01242212 -0.01289779 -0.0134935 -0.01420074 -0.0150197
 -0.01592983 -0.01692525 -0.01797988 -0.01908625 -0.02022154 -0.02138077 -0.02254663 -0.0237172 -0.02487429 -0.02601678
 -0.02712264 -0.02819088 -0.02920485 -0.03016512 -0.03106901 -0.03191786 -0.03271645 -0.03346499 -0.03416653 -0.03482065
 -0.0354273 -0.03598778 -0.03650301 -0.03697634 -0.03741055 -0.03781011 -0.03817803 -0.03851946 -0.03883723 -0.03913508
 -0.03941527 -0.03967692 -0.03992079 -0.04014194 -0.0403398 -0.04051108 -0.04065536 -0.04077443 -0.04086835 -0.04093881
 -0.04098547 -0.04100564 -0.04099939 -0.04096462 -0.04090384 -0.04082253 -0.04072473 -0.04062117 -0.04051404 -0.0404113
 -0.04031238 -0.0402195 -0.04013174 -0.04004861 -0.03997109 -0.03989869 -0.03983557 -0.03978228 -0.03974486 -0.03972461
 -0.03972556 -0.03974871 -0.03979331 -0.03985956 -0.03994223 -0.04004097 -0.04014803 -0.04026276 -0.04037647 -0.04048849
 -0.04059099 -0.04068371 -0.0407618 -0.04082527 -0.04087182 -0.04090146 -0.04091318 -0.04090713 -0.04088282 -0.04084149
 -0.0407833 -0.04071115 -0.0406256 -0.04053191 -0.04043118 -0.04033013 -0.04023006 -0.04013697 -0.04005185 -0.039978
 -0.03991578 -0.03986649 -0.0398302 -0.03980786 -0.03979957 -0.03980686 -0.0398295 -0.03986776 -0.0399202 -0.03998325
 -0.04005439 -0.04012686 -0.04019857 -0.04026321 -0.04032099 -0.04036937 -0.04041066 -0.0404456 -0.04047651 -0.04050472
 -0.04053145 -0.04055737 -0.04058306 -0.04060886 -0.0406344 -0.04065983 -0.04068336 -0.04070491 -0.04072194 -0.04073433
 -0.04074023 -0.04073965 -0.04073234 -0.04071836 -0.04069801 -0.04067102 -0.04063676 -0.04059464 -0.04054306 -0.04048172
 -0.04040921 -0.04032621 -0.04023271 -0.04013002 -0.04001908 -0.03990069 -0.03977545 -0.03964376 -0.03950555 -0.03936248
 -0.03921435 -0.03906563 -0.0389165 -0.03877398 -0.03863868 -0.03851589 -0.0384058 -0.03830607 -0.03821592 -0.03812609
 -0.03803612 -0.03793811 -0.03783368 -0.03772334 -0.03761004 -0.03750044 -0.03739655 -0.03730468 -0.03722468 -0.03715916
 -0.03710605 -0.03706532 -0.03703307 -0.03700801 -0.03698494 -0.03696192 -0.03693536 -0.03690386 -0.03686717 -0.03682492
 -0.03677865 -0.03672848 -0.03667535 -0.03661932 -0.03656073 -0.03649966 -0.03643735 -0.0363741 -0.03631221 -0.03625189
 -0.03619523 -0.03614182 -0.03609194 -0.03604463 -0.03599827 -0.03595286 -0.03590717 -0.0358634 -0.0358226 -0.03578714
 -0.03575935 -0.03573713 -0.0357213 -0.03570489 -0.03568642 -0.03566095 -0.03562684 -0.03558728 -0.03554209 -0.03549988
 -0.03546111 -0.03543127 -0.03541007 -0.03539579 -0.03538751 -0.03537934 -0.03537069 -0.03535619 -0.03533631 -0.03530919
 -0.03527616 -0.03523857 -0.03519717 -0.03515377 -0.03510722 -0.03505763 -0.03500264 -0.03494067 -0.0348715 -0.03479438
 -0.03471114 -0.0346223 -0.03452802 -0.03442872 -0.03432145 -0.03420589 -0.03408047 -0.03394507 -0.03380369 -0.03365687
 -0.03351237 -0.0333707 -0.03323875 -0.03311631 -0.03300665 -0.03290856 -0.03282142 -0.0327429 -0.0326693 -0.03259788
 -0.03252415 -0.03244652 -0.03236211 -0.03227112 -0.03217257 -0.03206828 -0.03195826 -0.03184586 -0.03173147 -0.03161973
 -0.03151143 -0.03140959 -0.03131477 -0.03122609 -0.03114353 -0.03106385 -0.03098697 -0.03091148 -0.03083749 -0.03076544
 -0.03069476 -0.03062426 -0.03055196 -0.03047288 -0.03038467 -0.030281 -0.03016127 -0.03002165 -0.02986459 -0.02969016
 -0.02950261 -0.02930411 -0.02909806 -0.02888632 -0.0286701 -0.02844977 -0.0282271 -0.02800196 -0.02777907 -0.02755868
 -0.02734707 -0.02714462 -0.02695487 -0.02677774 -0.02661259 -0.02645895 -0.0263138 -0.02617664 -0.02604398 -0.02591568
 -0.02578941 -0.02566594 -0.02554524 -0.0254288 -0.02531846 -0.02521509 -0.02512031 -0.02503338 -0.02495464 -0.02488212
 -0.02481559 -0.02475177 -0.02469021 -0.02462648 -0.02456 -0.02448626 -0.02440471 -0.02431269 -0.02421001 -0.02409633
 -0.02397175 -0.0238378 -0.02369468 -0.0235443 -0.02338673 -0.02322301 -0.02305352 -0.02287896 -0.02270166 -0.02252513
 -0.02235351 -0.02219296 -0.02204679 -0.02191999 -0.02181338 -0.02172869 -0.02166611 -0.021626 -0.02160876 -0.02161533
 -0.02164193 -0.02168928 -0.02174557 -0.0218102 -0.02186762 -0.0219168 -0.02194765 -0.0219602 -0.02195464 -0.0219318
 -0.02189784 -0.02185276 -0.02180018 -0.02173889 -0.02166723 -0.02158505 -0.02149016 -0.0213859 -0.02127472 -0.0211617
 -0.02105233 -0.02094865 -0.02085413 -0.02076637 -0.02068515 -0.02060851 -0.02053519 -0.0204677 -0.02040575 -0.02035545
 -0.02031723 -0.02029788 -0.02029782 -0.02032298 -0.02037351 -0.02045259 -0.02055966 -0.02069261 -0.02084998 -0.02102512
 -0.02121631 -0.02141587 -0.02162238 -0.02183006 -0.02203753 -0.02224068 -0.02243902 -0.0226304 -0.02281602 -0.02299565
 -0.02317168 -0.0233448 -0.02351754 -0.02369023 -0.02386699 -0.02404815 -0.02423989 -0.02444306 -0.02466076 -0.02489343
 -0.02513518 -0.02538541 -0.02563199 -0.02587451 -0.02610389 -0.02632106 -0.02652494 -0.02671679 -0.02689976 -0.02707372
 -0.02724035 -0.02739775 -0.0275442 -0.0276782 -0.02779726 -0.02790245 -0.02799328 -0.02807254 -0.02814169 -0.02820093
 -0.02825115 -0.02828929 -0.02831485 -0.02832597 -0.02832205 -0.02830586 -0.02827744 -0.02824301 -0.02820292 -0.02816355
 -0.02812508 -0.02809219 -0.02806426 -0.02804163 -0.02802271 -0.02800327 -0.02798212 -0.02795451 -0.02792134 -0.02788171
 -0.02783706 -0.02778878 -0.02773665 -0.02768119 -0.02762105 -0.02755532 -0.02748502 -0.02740967 -0.02733321 -0.02725614
 -0.02718247 -0.02711303 -0.02704741 -0.0269858 -0.02692246 -0.02685708 -0.02678331 -0.02670142 -0.02661067 -0.02651208
 -0.02640983 -0.02630444 -0.02619977 -0.02609517 -0.0259912 -0.02588724 -0.02578242 -0.02567703 -0.02557097 -0.02546478
 -0.02535855 -0.02525341 -0.02514938 -0.02504914 -0.02495328 -0.02486481 -0.02478468 -0.02471331 -0.02465129 -0.02459409
 -0.02454154 -0.02448661 -0.02442905 -0.02436551 -0.0242966 -0.02422605 -0.02415477 -0.02408931 -0.02402931 -0.0239775
 -0.02393209 -0.02389089 -0.02385235 -0.02381326 -0.02377328 -0.02373083 -0.02368653 -0.02363997 -0.02359301 -0.02354643
 -0.02350145 -0.02345946 -0.02341692 -0.0233741 -0.0233231 -0.02326282 -0.02318874 -0.02310016 -0.02300136 -0.02289271
 -0.02278341 -0.02267365 -0.0225692 -0.02246911 -0.02237227 -0.0222772 -0.0221788 -0.02207662 -0.02196656 -0.02185088
 -0.02173015 -0.02160892 -0.02149188 -0.02138185 -0.02128347 -0.02119289 -0.02111082 -0.02102828 -0.02094235 -0.02084829
 -0.02074336 -0.02063356 -0.02051867 -0.02041006 -0.02030872 -0.02021929 -0.02014177 -0.02007105 -0.0200066 -0.01994133
 -0.01987564 -0.01980772 -0.01973835 -0.01966945 -0.01960026 -0.01953089 -0.0194584 -0.01937879 -0.01928939 -0.01918489
 -0.01906779 -0.01893642 -0.01879956 -0.01866061 -0.01852692 -0.01840302 -0.01828578 -0.01817646 -0.01806433 -0.0179479
 -0.01782124 -0.01768336 -0.01753942 -0.01738977 -0.01724411 -0.01710245 -0.01696889 -0.01684203 -0.01671721 -0.01659279
 -0.01646065 -0.0163214 -0.01617148 -0.01601447 -0.01585396 -0.01569322 -0.01553778 -0.01538667 -0.01524152 -0.01509864
 -0.01495615 -0.0148134 -0.01466876 -0.01452726 -0.01438932 -0.01426116 -0.014144 -0.0140391 -0.01394694 -0.01386248
 -0.01378545 -0.01370982 -0.01363557 -0.01356046 -0.01348504 -0.01341115 -0.01333909 -0.01327113 -0.01320657 -0.01314559
 -0.01308614 -0.01302572 -0.01296159 -0.01288961 -0.01280928 -0.01271784 -0.01261938 -0.01251444 -0.01240928 -0.01230625
 -0.01220866 -0.01211802 -0.01203389 -0.01195665 -0.01188369 -0.01181511 -0.01174394 -0.01166976 -0.01158206 -0.01148081
 -0.01136102 -0.01122469 -0.01107958 -0.01092825 -0.01078384 -0.01064584 -0.01052014 -0.01040371 -0.01029403 -0.01018968
 -0.01008779 -0.009988957 -0.009893453 -0.009799623 -0.009707617 -0.009612589 -0.009512542 -0.009405881 -0.00929065 -0.009173805
 -0.009055507 -0.008946398 -0.008847616 -0.008763515 -0.008694306 -0.008635501 -0.008586612 -0.008540534 -0.008497171 -0.008452291
 -0.008406234 -0.008357855 -0.008307606 -0.008256035 -0.008203171 -0.008149562 -0.008094371 -0.008037199 -0.007976411 -0.007910501
 -0.007838963 -0.007760894 -0.00767723 -0.007588276 -0.007494009 -0.007394639 -0.007289009 -0.007176716 -0.007058943 -0.006935503
 -0.006811479 -0.006687144 -0.006568516 -0.006455809 -0.006353369 -0.006261096 -0.006181061 -0.006112371 -0.006053619 -0.00600276
 -0.005954722 -0.005907268 -0.005854193 -0.005795482 -0.005727998 -0.005654772 -0.005576697 -0.005497701 -0.005420623 -0.005345798
 -0.005275131 -0.005202838 -0.005128484 -0.005043979 -0.004947484 -0.004837715 -0.004713776 -0.004584578 -0.004450573 -0.004322881
 -0.004201476 -0.004088984 -0.003984122 -0.003880473 -0.003777329 -0.003668048 -0.003554411 -0.003436526 -0.003318253 -0.003205757
 -0.003102226 -0.003014104 -0.00294154 -0.002887527 -0.002848615 -0.002824694 -0.002809347 -0.002801161 -0.002791496 -0.002778373
 -0.002753894 -0.002716028 -0.002663618 -0.002595697 -0.002521522 -0.002441549 -0.00236882 -0.00230345 -0.002250287 -0.002207637
 -0.002167924 -0.002128902 -0.00207816 -0.002015177 -0.001932084 -0.001830464 -0.0017086 -0.001570519 -0.001418858 -0.001260911
 -0.001102934 -0.0009511155 -0.0008120702 -0.0006830171 -0.0005668085 -0.0004491818 -0.0003273338 -0.0001889786 -2.940659E-05 0.0001408927
 0.0003222667 0.0004929181 0.0006515614 0.0007857026 0.0008950916 0.0009740859 0.001023173 0.00104164 0.001031543 0.0009999543
 0.0009489886 0.000888007 0.0008164675 0.0007375224 0.0006503977 0.0005540215 0.0004519805 0.0003456249 0.0002417885 0.0001447637
 5.851369E-05 -1.415232E-05 -7.296559E-05 -0.0001176658 -0.0001467442 -0.0001596833 -0.0001568102 -0.000137365 -0.0001112434 -7.88945E-05
 -5.672294E-05 -4.507351E-05 -5.170995E-05 -7.500118E-05 -0.0001084163 -0.0001494879 -0.0001853391 -0.0002146087 -0.0002272671 -0.0002234839
 -0.0001977232 -0.0001543479 -9.389407E-05 -2.796006E-05 3.517174E-05 8.215258E-05 0.0001016932 9.126118E-05 4.394262E-05 -2.502392E-05
 -0.0001156704 -0.0002009395 -0.0002764408 -0.0003210878 -0.0003305911 -0.0003107535 -0.0002612517 -0.0002144374 -0.0001716006 -0.0001583912
 -0.0001718207 -0.0002044692 -0.0002508609 -0.0002841516 -0.0003040521 -0.0002943627 -0.0002618633 -0.0002101752 -0.0001481574 -8.805125E-05
 -3.618039E-05 -2.656811E-06 1.15695E-05 1.18919E-06 -2.561294E-05 -6.900982E-05 -0.0001126792 -0.0001526028 -0.0001755264 -0.0001769999
 -0.0001598778 -0.0001229785 -8.205443E-05 -3.804644E-05 -3.108759E-06 2.27262E-05 4.010868E-05 4.965978E-05 5.64421E-05 5.994177E-05
 6.036146E-05 5.753292E-05 4.978819E-05 4.044744E-05 3.356158E-05 3.522195E-05 5.490617E-05 9.618714E-05 0.0001671762 0.0002633382
 0.0003864535 0.0005239556 0.0006723151 0.0008175712 0.0009553385 0.001076209 0.001177635 0.001255522 0.001308873 0.001338155
 0.001343166 0.001331065 0.001302469 0.001269536 0.001232782 0.001201838 0.00117637 0.001159831 0.001152256 0.001155202
 0.00116957 0.001198625 0.001240619 0.00129656 0.001358876 0.001422317 0.001477557 0.001516581 0.001536857 0.001533909
 0.001514119 0.001477731 0.001433601 0.001383091 0.001334053 0.001286952 0.0012534 0.001234085 0.001243107 0.00128056
 0.001346279 0.001436873 0.001526331 0.001610257 0.001653824 0.001659422 0.001612526 0.00152526 0.001412225 0.001287507
 0.001177107 0.001085274 0.001028206 0.0009950341 0.0009860605 0.0009825127 0.0009761046 0.0009553941 0.0009129495 0.000855601
 0.0007814514 0.0007110796 0.0006465382 0.0006052534 0.0005890572 0.00059487 0.0006226738</values></Ydata></AB><ScSm><Ydata ylabel="Single channel"><values byteorder="INTEL" format="FLOAT32" numvalues="1814"> 0.09375408 0.09387559 0.09401293 0.09417251 0.09434738 0.09452313 0.09468637 0.09483179 0.09496035 0.09507054
 0.09516279 0.09525517 0.0953785 0.09554584 0.09573576 0.09591007 0.09604433 0.09614679 0.09625462 0.0963985
 0.09655957 0.09667222 0.09668435 0.09661476 0.09654244 0.09653617 0.09661025 0.09676582 0.0970358 0.09740953
 0.09772985 0.0977947 0.09760816 0.09741749 0.09743895 0.09764214 0.09784968 0.09793524 0.09787263 0.09772057
 0.09765214 0.09790212 0.09855411 0.09936468 0.09983778 0.09951138 0.09826443 0.09648475 0.09497896 0.09455211
 0.09542678 0.09699613 0.09827804 0.09870939 0.09845395 0.09798303 0.0975818 0.09734075 0.09737602 0.09781231
 0.09857992 0.09933069 0.09957317 0.0989953 0.09781596 0.09674796 0.09641659 0.09687446 0.09781627 0.0989508
 0.09972698 0.09905756 0.09627889 0.09260976 0.09077491 0.09248987 0.09666651 0.1005436 0.1022018 0.1015849
 0.09970583 0.09774938 0.09675424 0.09726011 0.09895889 0.1009998 0.1026634 0.1035535 0.1034185 0.1022686
 0.1006137 0.09924892 0.09881178 0.09959432 0.1014245 0.10349 0.1046642 0.1043935 0.103113 0.1016853
 0.1007639 0.1007644 0.1019035 0.1039414 0.1061981 0.1080548 0.1092777 0.1098867 0.1100022 0.1098182
 0.1095071 0.1091959 0.1090961 0.1093956 0.1098878 0.1100148 0.1094894 0.1086861 0.1082632 0.1084851
 0.1089973 0.1092551 0.1090624 0.1084703 0.1072235 0.1048852 0.1017313 0.09889166 0.09724995 0.09682284
 0.09747198 0.09928071 0.1016945 0.1032551 0.103064 0.1019935 0.1017453 0.1030114 0.1050375 0.1067212
 0.1076825 0.1083296 0.1092171 0.1104183 0.1113653 0.1112705 0.1099342 0.1082483 0.1076057 0.1085533
 0.1102571 0.1115236 0.1120524 0.112404 0.1130106 0.1135488 0.1132213 0.111613 0.1094066 0.1081424
 0.1089476 0.1114228 0.1138519 0.1145005 0.1128481 0.1098678 0.1072108 0.1060205 0.106486 0.1083133
 0.1111351 0.1143374 0.1169616 0.1181888 0.1179055 0.1166811 0.1151462 0.1134046 0.1112593 0.1091311
 0.1082992 0.109707 0.1127515 0.1157637 0.1175482 0.1180461 0.1176579 0.1164366 0.1141944 0.1113347
 0.1092241 0.1091797 0.1109698 0.1128712 0.1135 0.113107 0.1127939 0.113012 0.1133148 0.113277
 0.1131283 0.1134229 0.1143275 0.1154065 0.1160833 0.1161712 0.115912 0.1156346 0.1154437 0.1151616
 0.1146006 0.1139797 0.1139092 0.1147504 0.1161328 0.1173251 0.1179561 0.1181658 0.1181667 0.1178844
 0.1170875 0.1158429 0.114741 0.1144799 0.1151868 0.1163209 0.1172489 0.1177176 0.1177952 0.1176359
 0.1173743 0.1170891 0.1168189 0.1166538 0.1167214 0.1170166 0.1173511 0.11754 0.1175524 0.1174437
 0.1172371 0.1169283 0.1165614 0.1162494 0.1161041 0.1161479 0.1163092 0.1164952 0.1166325 0.1166576
 0.1165373 0.1163131 0.1160732 0.1158725 0.1157152 0.1156051 0.1155657 0.1155996 0.115662 0.1156921
 0.1156619 0.115582 0.1154693 0.1153307 0.1151777 0.1150373 0.1149417 0.1149081 0.1149232 0.1149489
 0.1149632 0.1149857 0.1150351 0.1150756 0.1150482 0.1149473 0.1148297 0.1147527 0.1147307 0.1147431
 0.1147558 0.1147338 0.1146489 0.1144994 0.1143339 0.114238 0.1142709 0.1144201 0.1146292 0.1148461
 0.1150302 0.1151515 0.1152137 0.1152524 0.1152922 0.115324 0.1153335 0.1153354 0.115371 0.1154771
 0.11565 0.1158414 0.1159995 0.1161057 0.1161709 0.1162228 0.1163005 0.1164246 0.1165592 0.1166411
 0.1166607 0.1166796 0.1167547 0.1168727 0.1169741 0.1170223 0.1170385 0.1170717 0.117146 0.1172446
 0.1173394 0.1174246 0.1175171 0.1176279 0.1177352 0.1177926 0.1177758 0.1177177 0.1176789 0.1176855
 0.1177192 0.1177618 0.1178195 0.1178986 0.1179789 0.1180293 0.1180416 0.11804 0.118053 0.1180794
 0.1180916 0.1180705 0.1180258 0.1179825 0.1179571 0.1179489 0.117944 0.1179261 0.1178879 0.1178332
 0.1177677 0.1176921 0.1176043 0.1175088 0.1174249 0.11738 0.1173784 0.1173778 0.1173131 0.1171565
 0.1169457 0.1167473 0.1165994 0.1164899 0.1163805 0.1162435 0.1160802 0.1159128 0.1157638 0.1156414
 0.1155381 0.1154415 0.1153511 0.115285 0.1152618 0.1152697 0.1152663 0.1152169 0.1151299 0.1150434
 0.1149863 0.1149611 0.114955 0.1149556 0.1149604 0.1149801 0.1150254 0.1150854 0.115133 0.1151582
 0.1151826 0.1152369 0.1153352 0.1154745 0.1156379 0.1157937 0.1159131 0.1160002 0.1160902 0.1162125
 0.1163664 0.1165367 0.1167167 0.1169091 0.1171159 0.1173368 0.117575 0.1178361 0.1181209 0.1184223
 0.1187262 0.1190199 0.1193016 0.1195861 0.1198945 0.1202378 0.1206078 0.1209855 0.1213552 0.1217147
 0.1220728 0.122438 0.1228118 0.1231946 0.123593 0.1240139 0.1244522 0.124892 0.1253221 0.1257448
 0.1261685 0.1265987 0.1270347 0.127475 0.1279237 0.1283876 0.1288629 0.129326 0.1297511 0.1301374
 0.1305137 0.1309122 0.131343 0.1317899 0.1322226 0.1326167 0.1329751 0.1333272 0.1336981 0.1340823
 0.1344589 0.1348297 0.1352234 0.1356566 0.1361021 0.1365061 0.1368391 0.1371232 0.1374074 0.137717
 0.1380346 0.13833 0.1385998 0.1388661 0.1391436 0.1394281 0.1397187 0.1400298 0.1403686 0.1407133
 0.1410311 0.1413116 0.1415705 0.1418234 0.1420678 0.1422903 0.1424828 0.1426544 0.1428295 0.1430264
 0.1432384 0.1434455 0.1436448 0.1438569 0.1440992 0.1443692 0.1446603 0.1449772 0.1453219 0.1456766
 0.1460208 0.1463631 0.1467337 0.1471371 0.1475311 0.1478703 0.1481562 0.1484262 0.1487062 0.1489979
 0.1493054 0.149646 0.1500275 0.150433 0.1508328 0.1512075 0.1515628 0.151925 0.1523132 0.152711
 0.1530748 0.1533761 0.1536292 0.1538759 0.1541502 0.1544597 0.1547883 0.1551104 0.1554058 0.1556599
 0.1558565 0.1559805 0.1560344 0.1560412 0.1560173 0.1559465 0.1557906 0.1555197 0.1551237 0.1545983
 0.1539342 0.1531292 0.1522131 0.1512616 0.1503867 0.1497058 0.1493089 0.1492411 0.1495008 0.1500404
 0.1507698 0.1515707 0.1523203 0.1529092 0.1532491 0.1532824 0.1529982 0.1524369 0.1516727 0.1507873
 0.1498535 0.1489271 0.1480491 0.1472686 0.1466761 0.1464121 0.1466268 0.1474229 0.1488169 0.1507229
 0.1529527 0.1552566 0.1574093 0.1592911 0.1608979 0.1622877 0.1635234 0.1646543 0.1657186 0.1667396
 0.1677184 0.1686417 0.1694998 0.1702919 0.1710153 0.1716563 0.1721942 0.1726111 0.1729029 0.1730854
 0.1731896 0.1732496 0.1732971 0.1733619 0.1734578 0.1735569 0.1735873 0.1734696 0.1731636 0.1726919
 0.1721438 0.171676 0.1715013 0.1718388 0.1728223 0.1744155 0.1764077 0.1785116 0.1804863 0.1821945
 0.1835916 0.1846979 0.1855778 0.1863097 0.1869546 0.1875458 0.1880996 0.1886255 0.1891289 0.1896147
 0.1900885 0.1905559 0.1910224 0.1914921 0.1919635 0.1924287 0.1928815 0.193328 0.1937832 0.194256
 0.1947397 0.1952184 0.1956846 0.196146 0.1966117 0.1970772 0.1975299 0.1979666 0.1983954 0.1988253
 0.1992593 0.1996969 0.2001339 0.2005607 0.2009695 0.2013613 0.2017431 0.2021188 0.2024875 0.2028506
 0.2032135 0.203581 0.2039511 0.2043169 0.2046742 0.205026 0.2053764 0.2057244 0.206065 0.2063973
 0.206726 0.2070565 0.2073902 0.207725 0.2080602 0.2083994 0.2087472 0.2091031 0.2094592 0.2098059
 0.210138 0.2104585 0.2107772 0.2111038 0.2114389 0.2117739 0.2120995 0.2124148 0.212726 0.2130398
 0.2133591 0.2136814 0.214001 0.2143137 0.2146204 0.2149245 0.2152286 0.2155336 0.2158408 0.2161516
 0.2164658 0.2167808 0.2170908 0.21739 0.2176777 0.2179595 0.2182408 0.218524 0.2188093 0.2190975
 0.21939 0.2196877 0.2199893 0.2202908 0.2205885 0.2208815 0.2211711 0.2214597 0.2217496 0.2220402
 0.2223305 0.2226218 0.2229179 0.2232192 0.223522 0.2238224 0.2241192 0.224412 0.2247024 0.2249939
 0.2252886 0.2255851 0.2258818 0.2261785 0.2264746 0.2267686 0.2270598 0.2273487 0.2276373 0.227929
 0.2282264 0.2285273 0.2288261 0.2291189 0.2294058 0.2296899 0.2299742 0.2302589 0.2305424 0.2308259
 0.2311124 0.2314011 0.2316895 0.2319787 0.2322713 0.2325649 0.2328551 0.2331409 0.2334237 0.2337045
 0.2339847 0.2342654 0.2345462 0.2348287 0.2351158 0.2354072 0.2356984 0.2359867 0.2362736 0.2365608
 0.2368498 0.2371411 0.2374327 0.2377229 0.2380151 0.2383131 0.2386157 0.238921 0.2392297 0.239541
 0.2398515 0.2401595 0.2404639 0.2407629 0.2410569 0.2413491 0.24164 0.2419269 0.2422081 0.2424826
 0.2427509 0.2430213 0.2433048 0.2435998 0.2438937 0.2441806 0.2444673 0.2447607 0.2450612 0.2453652
 0.2456681 0.245969 0.246272 0.2465791 0.2468863 0.2471918 0.2474981 0.2478054 0.2481123 0.2484204
 0.2487304 0.2490379 0.2493415 0.249646 0.2499543 0.2502667 0.2505843 0.2509054 0.251224 0.2515395
 0.2518553 0.2521698 0.2524801 0.252791 0.2531058 0.2534192 0.2537279 0.2540359 0.2543448 0.2546546
 0.2549676 0.255282 0.2555918 0.2559005 0.256219 0.256547 0.2568757 0.2572016 0.2575233 0.2578366
 0.2581436 0.2584504 0.2587535 0.2590484 0.2593415 0.2596382 0.2599335 0.2602236 0.2605078 0.2607771
 0.2610111 0.2611542 0.261046 0.260348 0.258504 0.2547439 0.2482248 0.2383603 0.2251705 0.2093953
 0.1922923 0.1752423 0.1593699 0.1453865 0.1336745 0.1244326 0.1177778 0.1138377 0.1128259 0.1151485
 0.1215443 0.1326442 0.1473583 0.1614861 0.1692887 0.16783 0.1596323 0.150389 0.144334 0.1421639
 0.1424616 0.143815 0.1456565 0.1481127 0.1515207 0.1559258 0.1610295 0.1666767 0.1731387 0.180693
 0.1890786 0.1975898 0.2056661 0.2132531 0.2205962 0.2278049 0.2346829 0.2409179 0.2463256 0.2509106
 0.2547973 0.258152 0.2611216 0.2638031 0.266261 0.2685337 0.2705864 0.2722905 0.2734985 0.2741637
 0.2743955 0.2744092 0.2744074 0.2744923 0.2746782 0.2749568 0.275323 0.2757664 0.2762731 0.2768307
 0.2774202 0.2780203 0.2786208 0.2792175 0.2797987 0.2803522 0.280874 0.2813621 0.2818155 0.2822406
 0.2826465 0.2830374 0.2834178 0.2837951 0.2841699 0.2845371 0.2848973 0.285252 0.2855934 0.2859123
 0.2862085 0.2864861 0.2867499 0.2870069 0.2872624 0.2875148 0.2877615 0.2880041 0.2882424 0.2884746
 0.2887042 0.288937 0.2891719 0.2894043 0.2896323 0.2898554 0.290074 0.2902919 0.2905129 0.2907359
 0.29096 0.2911866 0.2914165 0.2916464 0.2918718 0.2920897 0.2923038 0.2925275 0.2927737 0.2930388
 0.2933066 0.2935665 0.2938191 0.2940697 0.2943244 0.2945872 0.294855 0.2951216 0.2953866 0.2956525
 0.295912 0.2961502 0.2963589 0.2965481 0.2967408 0.296956 0.2971911 0.2974277 0.2976547 0.2978783
 0.2981079 0.2983441 0.2985806 0.2988117 0.2990389 0.2992749 0.2995341 0.299814 0.3000975 0.3003748
 0.3006511 0.3009327 0.3012205 0.3015141 0.3018099 0.3020966 0.302365 0.3026232 0.302897 0.3032098
 0.3035615 0.3039238 0.3042653 0.304579 0.3048816 0.3051915 0.3055167 0.3058494 0.3061607 0.3064186
 0.3066325 0.3068655 0.3071797 0.3075767 0.3080027 0.308403 0.3087604 0.3090888 0.3094061 0.3097146
 0.310001 0.310253 0.3104807 0.3107266 0.3110391 0.3114244 0.3118353 0.3122192 0.3125585 0.3128615
 0.3131415 0.3134124 0.31367 0.3138685 0.3139693 0.3140307 0.3142002 0.3145763 0.3151001 0.3156168
 0.3160286 0.3163552 0.3166569 0.3169546 0.3172362 0.3174713 0.3175771 0.3174614 0.3171933 0.3170632
 0.3173459 0.3180219 0.3188144 0.3194697 0.319924 0.3202428 0.3205073 0.3207603 0.3209794 0.3210782
 0.3209984 0.3208399 0.3208446 0.3211759 0.3217373 0.3222803 0.3226655 0.3229389 0.3231943 0.3234659
 0.3237118 0.3237892 0.3235129 0.3229102 0.322395 0.3224993 0.3233565 0.3245484 0.3255242 0.3260904
 0.3264107 0.3266211 0.3266287 0.3262866 0.3255777 0.3246163 0.3236971 0.3233484 0.3239897 0.3253925
 0.3267676 0.3275546 0.327906 0.3282928 0.3288945 0.3295201 0.3299282 0.3300441 0.3299219 0.3296088
 0.329123 0.3286126 0.3284452 0.3289486 0.3300328 0.3312137 0.3320664 0.3325574 0.3328543 0.3328353
 0.3319601 0.3299093 0.32743 0.3261523 0.3271419 0.3297786 0.3324268 0.3340541 0.3347976 0.3352
 0.3355017 0.3355727 0.3349014 0.332765 0.3292122 0.3259217 0.3251843 0.3276471 0.3315892 0.3345884
 0.335369 0.3340654 0.3316123 0.3293135 0.3283748 0.3292469 0.3314364 0.3340091 0.3361531 0.3373987
 0.3376442 0.3371103 0.3362495 0.3356251 0.335556 0.335641 0.3350102 0.3334545 0.3318275 0.3307315
 0.329415 0.3270031 0.3244504 0.3239473 0.3262104 0.3294446 0.3314229 0.3317649 0.3315375 0.3311081
 0.3292657 0.3248211 0.3188104 0.3144675 0.3144545 0.3182022 0.3224724 0.3245391 0.3243446 0.3235758
 0.3232915 0.3228046 0.3207095 0.3168706 0.3131957 0.3119303 0.3131455 0.3146392 0.3143779 0.311933
 0.3074216 0.3009806 0.2944242 0.2915987 0.2949896 0.3026207 0.3097929 0.3131416 0.3117042 0.3055213
 0.2959486 0.2870853 0.2839446 0.2878378 0.2948437 0.2995986 0.2995261 0.2949589 0.2869554 0.2768194
 0.2672117 0.2618212 0.263007 0.2698976 0.2785867 0.2838536 0.2818264 0.2730625 0.2632859 0.2590873
 0.2617565 0.2664503 0.2678995 0.2653652 0.2615538 0.2589127 0.258269 0.2593064 0.2609386 0.2621579
 0.2628141 0.2622217 0.2577378 0.247697 0.2358174 0.2292358 0.2311396 0.2381953 0.2459718 0.2533929
 0.2602668 0.2640914 0.2627188 0.2586111 0.2572719 0.2613699 0.2681905 0.273094 0.274215 0.2732179
 0.2722326 0.2712916 0.2694018 0.2673203 0.2675884 0.2713728 0.2766419 0.2803695 0.2815718 0.281319
 0.2807095 0.2799493 0.2789043 0.2775479 0.2759252 0.2741763 0.2725223 0.2710224 0.2695329 0.2679893
 0.2663392 0.2639497 0.2596605 0.253311 0.2470429 0.2438382 0.244409 0.2467554 0.2490618 0.2510285
 0.2514452 0.2471803 0.237277 0.2266424 0.2226838 0.2281543 0.2389487 0.248689 0.2537387 0.253665
 0.2491168 0.2415437 0.2348003 0.2344674 0.2435295 0.2592388 0.2755859 0.2883872 0.2968664 0.3013132
 0.301501 0.2979269 0.2931922 0.2909886 0.2935953 0.3004109 0.3084355 0.3136337 0.3126811 0.305707
 0.2981675 0.2975267 0.3058015 0.316865 0.3232283 0.3239244 0.3233911 0.3244529 0.3258929 0.3263611
 0.3271253 0.3298868 0.3339483 0.3367816 0.3362964 0.3317292 0.3236212 0.3144007 0.3079957 0.3067651
 0.3089405 0.3106817 0.3100265 0.306962 0.3010235 0.2923012 0.2844262 0.2826438 0.2878652 0.2953092
 0.2999625 0.3012541 0.3015241 0.3017989 0.3005806 0.2963532 0.2902497 0.2855615 0.2844974 0.2860882
 0.2877743 0.2881836 0.2873589 0.2851581 0.2812375 0.276728 0.2743877 0.2761789 0.2812012 0.2865956
 0.2901958 0.2918652 0.2926498 0.2934299 0.294434 0.2954152 0.296119 0.2969276 0.2988917 0.302562
 0.3069642 0.3104628 0.3126338 0.3146079 0.3174788 0.3209662 0.3238513 0.3253364 0.3257594 0.3261834
 0.3274454 0.32947 0.3313433 0.3321196 0.3317466 0.3312318 0.3317421 0.3335041 0.3357179 0.3374902
 0.3385926 0.3393373 0.3400678 0.3408764 0.3415634 0.3418069 0.3415984 0.3415191 0.3423064 0.3440723
 0.3461459 0.347735 0.3485654 0.3488427 0.3488131 0.3485252 0.3479517 0.3471878 0.3464617 0.3459736
 0.3457632 0.3457363 0.3457783 0.3458262 0.3458719 0.345944 0.3460816 0.346296 0.346563 0.3468555
 0.3471583 0.3474438 0.3476697 0.3478255 0.3479471 0.3480577 0.3481147 0.3480343 0.3477439 0.3471926
 0.3463353 0.3451343 0.3435674 0.3416095 0.339233 0.336512 0.3337997 0.3317681 0.3311331 0.3322013
 0.334623 0.3375876 0.3402894 0.342285 0.343534 0.3442156 0.3445384 0.3446507 0.3446302 0.3444994
 0.3442563 0.3439077 0.3434799 0.3430052 0.3425119 0.3420287 0.3415835 0.3411883 0.3408278 0.3404647
 0.34006 0.3395926 0.3390615 0.3384699 0.3378087 0.3370569 0.336193 0.3352104 0.3341306 0.3330034
 0.3318871 0.3308215 0.3298104 0.3288241 0.3278182 0.326747 0.3255494 0.3241498 0.3225282 0.3208115
 0.3192358 0.3179629 0.3169425 0.3159792 0.3149109 0.3136944 0.3123578 0.3109347 0.3094475 0.3079114
 0.3063309 0.3046972 0.3029923 0.3011985 0.2993104 0.2973381 0.2952953 0.29319 0.2910318 0.2888333
 0.2865773 0.284179 0.2814887 0.2783377 0.2745849 0.2701409 0.2649871 0.2592007 0.2529637 0.2465276
 0.2401458 0.234024 0.2283188 0.2231621 0.2186761 0.2149648 0.2121033 0.2101364 0.2090856 0.2089517
 0.2097111 0.2113113 0.2136672 0.2166544 0.2201062 0.2238234 0.2275941 0.23122 0.2345609 0.2375835
 0.2403586 0.2429803 0.245482 0.24783 0.2499789 0.2519037 0.2535872 0.2550051 0.2561428 0.2570206
 0.2576937 0.2582253 0.258658 0.2590075 0.2592746 0.2594615 0.2595803 0.2596561 0.2597229 0.2598162
 0.2599652 0.2601901 0.2605062 0.2609303 0.2614787 0.2621565 0.2629518 0.2638393 0.2647878 0.2657701
 0.2667785 0.2678354 0.268986 0.2702808 0.2717588 0.2734357 0.2752945 0.2772843 0.2793247 0.2813098
 0.2831203 0.2846527 0.2858484 0.2866987 0.2872255 0.2874596 0.2874319 0.2871771 0.2867334 0.2861357
 0.2854152 0.2846042 0.2837343 0.2828212 0.2818576 0.2808259 0.2797243 0.2785773 0.277423 0.2762887
 0.275183 0.2741073 0.2730651 0.2720529 0.2710584 0.2700747 0.2691102 0.2681788 0.2672866 0.2664293
 0.2655948 0.264763 0.2639035 0.2629757 0.2619383 0.2607654 0.2594494 0.2579876 0.2563744 0.2546105
 0.2527108 0.250698 0.2485932 0.2464102 0.2441549 0.2418267 0.239416 0.2369092 0.2343148 0.2316911
 0.2291332 0.2267227 0.2244937 0.2224374 0.2205229 0.2187151 0.2169891 0.2153315 0.2137356 0.2122025
 0.2107397 0.2093479 0.2080173 0.2067468 0.2055547 0.2044653 0.2034973 0.2026598 0.201946 0.2013344
 0.2008034 0.2003407 0.1999466 0.1996437 0.1994695 0.1994309 0.1994677 0.1994805 0.1993969 0.1992143
 0.1989893 0.1987877 0.1986369 0.1985244 0.1984219 0.1982828 0.1980273 0.1975577 0.1967852 0.1956363
 0.1940687 0.1921053 0.1898442 0.1874333 0.1850433 0.182837 0.1809295 0.1793748 0.1781774 0.1772896
 0.1766157 0.1760698 0.175639 0.1753814 0.1753695 0.1756115 0.1759869 0.176292 0.176414 0.1764571
 0.1766542 0.1771696 0.1779936 0.1789797 0.1799513 0.1807937 0.1814685 0.1819702 0.182307 0.182513
 0.1826251 0.1826488 0.18257 0.1823811 0.1820759 0.181654 0.1811352 0.1805359 0.1798437 0.1790468
 0.178156 0.1771781 0.1761055 0.1749298 0.1736249 0.1721549 0.1705751 0.169107 0.1680589 0.1676644
 0.1679623 0.1687767 0.1698386 0.1709655 0.1720865 0.1731122 0.1739272 0.1745806 0.1753741 0.1766624
 0.1785534 0.1807975 0.1829579 0.1846875 0.1858456 0.1864153 0.1864306 0.1859712 0.1850956 0.1837836
 0.1820353 0.1799608 0.177702 0.175376 0.1731274 0.1710957 0.1693351 0.167858 0.1666674 0.165756
 0.1651807 0.1646721 0.1626814 0.1569165 0.1475936 0.1395527 0.1386113 0.1453015 0.1541411 0.1595272
 0.1605013 0.1594155 0.1582258 0.1573527 0.1567163 0.1563753 0.1563709 0.1565948 0.1568331 0.1568624
 0.156585 0.1560164 0.1550367 0.1531541 0.1494937 0.143113 0.1337007 0.1222187 0.1106961 0.1011519
 0.09459455 0.09081645 0.08883679 0.08758248 0.08649516 0.08572281 0.08576937 0.08698061 0.0893466 0.09264784
 0.09661368 0.1009005 0.1050471 0.1086187 0.1114296 0.1135494 0.1150963 0.1161133 0.1166263 0.1167005
 0.1164116 0.11583 0.1150279 0.1140492 0.11288 0.1114971 0.1099628 0.1084677 0.1072558 0.1064637
 0.106035 0.1058139 0.105696 0.1056568 0.1056902 0.1057812 0.1059175 0.1060963 0.1063279 0.1066271
 0.106976 0.1073118 0.1075749 0.1077516 0.107857 0.1078933 0.1078241 0.1076004 0.1072364 0.1068298
 0.1064295 0.1059011 0.1050333 0.1038154 0.1025498 0.1016638 0.101413 0.1017259 0.1022833 0.1027552
 0.1029996 0.1030765 0.1030994 0.103081</values></Ydata></ScSm><ScRf><Ydata ylabel="Single channel"><values byteorder="INTEL" format="FLOAT32" numvalues="1820"> 0.06964636 0.06977533 0.06989223 0.06999306 0.07007881 0.07016071 0.0702568 0.07037789 0.07051887 0.07066306
 0.07079485 0.07090921 0.07100888 0.07109438 0.07116652 0.07123924 0.0713359 0.07146576 0.07161261 0.07174861
 0.07185514 0.07193588 0.07201622 0.0721209 0.07224101 0.07233089 0.07234916 0.07230419 0.07225267 0.07224952
 0.07230929 0.07243184 0.07263775 0.07291795 0.0731577 0.07320891 0.07307559 0.07294193 0.0729675 0.07312676
 0.07328501 0.07334797 0.07329838 0.07318397 0.07313755 0.07333402 0.07383046 0.07443871 0.07478627 0.07453147
 0.07358979 0.07225638 0.07113725 0.07083368 0.07150649 0.0726936 0.07365633 0.07397674 0.07378393 0.07343394
 0.07313976 0.07296876 0.07300809 0.07334968 0.07393741 0.07450618 0.07468591 0.07424609 0.07335878 0.0725645
 0.07233024 0.07268827 0.07340518 0.0742617 0.07484183 0.07432591 0.07221954 0.06945195 0.06808218 0.0693973
 0.07256566 0.07550004 0.07675539 0.07629286 0.07487798 0.07340674 0.07266535 0.07305959 0.0743515 0.07589573
 0.07715039 0.07781848 0.07771192 0.07684243 0.07559913 0.07458207 0.0742676 0.0748719 0.07626368 0.07782988
 0.07872108 0.07852136 0.07756069 0.07649119 0.07580802 0.07582544 0.07670332 0.07825419 0.07996295 0.08136712
 0.08229521 0.08276211 0.08285545 0.08271948 0.08248551 0.08225346 0.08218777 0.08243032 0.08281856 0.08292392
 0.08252923 0.08192465 0.0816147 0.08179909 0.08220273 0.08240671 0.08226226 0.08181274 0.08086936 0.07910356
 0.07672606 0.07459253 0.073368 0.07306115 0.07356893 0.07495777 0.07680439 0.07799762 0.07785769 0.07705384
 0.07688047 0.07785784 0.0794067 0.08068977 0.08142392 0.08192512 0.08261599 0.08354913 0.08428804 0.08423044
 0.08322478 0.08195302 0.08147743 0.08221291 0.08352353 0.08450444 0.08493119 0.08522723 0.08571396 0.08614306
 0.08591396 0.08471812 0.08307683 0.08215666 0.08280741 0.08472048 0.08659101 0.08710231 0.08586104 0.08361222
 0.0816185 0.08075339 0.08115971 0.08261063 0.08482352 0.0873269 0.08938606 0.09037313 0.09019943 0.08930056
 0.08816132 0.08686294 0.08525658 0.08367112 0.08309585 0.08425456 0.08667379 0.08906052 0.09049422 0.09093496
 0.09069462 0.08981141 0.08813617 0.08598281 0.08441645 0.08446157 0.08593468 0.08749394 0.0880648 0.08784222
 0.08767863 0.08792046 0.0882224 0.08826049 0.08822022 0.08853498 0.08933197 0.09026654 0.09088363 0.09103456
 0.09090976 0.09077068 0.09070138 0.09056077 0.09020203 0.08980413 0.08985201 0.09062403 0.09181619 0.09284765
 0.09343256 0.09369029 0.09378926 0.09366199 0.09311789 0.09221309 0.0914273 0.09132176 0.09199309 0.09300122
 0.0938384 0.09430824 0.09447205 0.09445234 0.09435093 0.09422699 0.09411392 0.09408745 0.09424908 0.0945906
 0.09495857 0.09520665 0.09531458 0.09532954 0.09526873 0.09512529 0.09493349 0.09478614 0.09477411 0.09491245
 0.09513997 0.09538186 0.09558298 0.09569509 0.09569138 0.09560494 0.0955088 0.09544839 0.09542391 0.09543346
 0.09549403 0.0956099 0.09574769 0.09586057 0.0959276 0.09595774 0.09596314 0.09594563 0.09591062 0.0958797
 0.09588309 0.09593883 0.09603412 0.09613369 0.09622119 0.09632051 0.09645046 0.09657441 0.09663194 0.09661373
 0.09657235 0.09656453 0.09660767 0.09668486 0.09676549 0.09681657 0.09681132 0.09674836 0.09667104 0.096652
 0.09673847 0.09691964 0.09715359 0.09740171 0.09762672 0.09779468 0.09790409 0.09798878 0.09807476 0.09815442
 0.0982132 0.09826298 0.09834039 0.09847702 0.09866968 0.09887934 0.09906316 0.09920211 0.09930106 0.09938409
 0.09949047 0.09964082 0.09979846 0.09989961 0.09993489 0.0999677 0.1000569 0.100188 0.1002976 0.1003511
 0.1003761 0.100424 0.1005139 0.1006225 0.1007215 0.1008109 0.1009141 0.1010426 0.1011701 0.1012451
 0.1012422 0.1011935 0.101157 0.101158 0.1011828 0.1012198 0.101279 0.1013638 0.1014471 0.1014926
 0.1014931 0.1014785 0.1014822 0.1015041 0.1015144 0.1014888 0.1014334 0.1013744 0.1013345 0.1013189
 0.1013158 0.1013054 0.1012731 0.1012183 0.1011508 0.1010797 0.1010062 0.1009315 0.1008721 0.1008566
 0.1008891 0.1009198 0.1008754 0.1007284 0.1005269 0.1003486 0.1002327 0.1001573 0.1000728 0.09994768
 0.09978873 0.09962504 0.09947963 0.09935565 0.09924322 0.0991337 0.09903117 0.09895377 0.0989164 0.09890358
 0.09886958 0.09877914 0.098644 0.09850784 0.09840257 0.09833081 0.09828089 0.09824187 0.09820879 0.09818651
 0.0981832 0.0981933 0.09819637 0.09818128 0.09816208 0.0981653 0.09821053 0.09830137 0.09841816 0.09851954
 0.09857183 0.09858468 0.0986039 0.09866504 0.09876553 0.09888318 0.09900662 0.09913918 0.09928428 0.09943913
 0.09960242 0.09977992 0.09997895 0.1001979 0.1004234 0.1006395 0.1008428 0.1010478 0.1012768 0.1015408
 0.1018298 0.1021218 0.1024009 0.1026676 0.1029333 0.1032041 0.1034765 0.1037484 0.1040289 0.1043303
 0.1046527 0.1049829 0.1053081 0.1056264 0.1059436 0.1062644 0.1065873 0.1069115 0.1072464 0.1076067
 0.1079892 0.1083614 0.1086866 0.1089624 0.1092238 0.1095109 0.1098378 0.1101877 0.110526 0.1108253
 0.1110886 0.1113472 0.1116271 0.1119234 0.1122176 0.1125141 0.1128419 0.1132149 0.1136023 0.1139483
 0.1142228 0.1144474 0.1146693 0.1149117 0.1151577 0.1153808 0.1155827 0.1157884 0.1160129 0.1162482
 0.1164874 0.1167404 0.1170149 0.1172936 0.1175482 0.1177704 0.1179747 0.1181737 0.1183609 0.1185186
 0.1186366 0.1187272 0.1188212 0.1189437 0.1190902 0.1192363 0.1193707 0.1195066 0.1196604 0.1198353
 0.120031 0.1202541 0.1205056 0.120768 0.1210209 0.1212697 0.1215408 0.1218398 0.1221309 0.1223745
 0.1225718 0.122756 0.1229497 0.1231545 0.1233754 0.1236276 0.1239157 0.1242223 0.1245219 0.1248007
 0.1250671 0.125346 0.1256531 0.1259694 0.1262515 0.1264746 0.1266562 0.1268369 0.1270478 0.127297
 0.127574 0.1278594 0.128134 0.1283811 0.1285831 0.1287265 0.1288179 0.1288854 0.1289478 0.1289878
 0.1289638 0.1288446 0.128623 0.1282966 0.1278523 0.1272808 0.1266041 0.1258875 0.1252262 0.124715
 0.1244225 0.124382 0.1245937 0.1250257 0.1256104 0.1262525 0.1268513 0.1273194 0.1275862 0.1276032
 0.12736 0.1268904 0.126254 0.1255103 0.1247095 0.123893 0.123095 0.1223547 0.1217445 0.1213823
 0.1214004 0.1218928 0.1228775 0.1242824 0.1259485 0.1276657 0.1292489 0.1306073 0.1317524 0.1327427
 0.1336302 0.1344471 0.1352172 0.1359562 0.1366648 0.1373335 0.1379572 0.1385391 0.1390782 0.1395626
 0.1399742 0.1402998 0.1405365 0.1406945 0.1407928 0.1408492 0.1408747 0.1408779 0.1408649 0.140825
 0.1407215 0.1405066 0.1401513 0.1396685 0.1391246 0.1386444 0.1384004 0.1385673 0.1392445 0.1403933
 0.141846 0.143387 0.1448404 0.146103 0.1471311 0.1479298 0.1485472 0.149052 0.1494999 0.1499175
 0.1503127 0.1506884 0.151049 0.1514 0.1517456 0.152088 0.1524297 0.1527737 0.1531185 0.1534562
 0.1537815 0.1540999 0.1544254 0.1547677 0.155124 0.1554813 0.1558296 0.1561714 0.1565143 0.1568565
 0.1571859 0.157497 0.1578007 0.1581151 0.1584506 0.158803 0.1591564 0.1594919 0.1598001 0.1600871
 0.1603667 0.1606477 0.1609301 0.1612109 0.1614901 0.1617686 0.1620457 0.1623228 0.1626038 0.1628907
 0.1631769 0.163449 0.1637003 0.1639382 0.1641783 0.1644296 0.164689 0.164947 0.1651986 0.1654482
 0.1657054 0.1659744 0.1662489 0.1665164 0.1667694 0.1670106 0.1672483 0.167489 0.1677345 0.1679841
 0.1682366 0.1684907 0.1687445 0.1689974 0.1692516 0.1695088 0.1697669 0.1700208 0.1702672 0.1705067
 0.1707433 0.1709814 0.1712232 0.1714689 0.1717181 0.1719704 0.1722232 0.172472 0.1727138 0.1729485
 0.1731779 0.1734046 0.1736324 0.1738651 0.1741036 0.1743464 0.1745902 0.1748319 0.1750704 0.1753066
 0.1755418 0.1757761 0.1760107 0.1762489 0.1764929 0.1767416 0.1769902 0.177234 0.1774728 0.1777097
 0.1779468 0.1781826 0.1784154 0.1786461 0.1788762 0.1791066 0.1793393 0.1795767 0.1798183 0.1800618
 0.1803045 0.1805435 0.1807767 0.1810049 0.1812313 0.1814583 0.1816855 0.181913 0.1821417 0.1823733
 0.1826085 0.1828467 0.1830849 0.1833211 0.1835565 0.183794 0.1840353 0.1842794 0.1845221 0.1847588
 0.1849897 0.1852188 0.1854508 0.1856881 0.1859314 0.186178 0.186424 0.1866688 0.1869152 0.1871625
 0.1874062 0.1876453 0.1878823 0.1881196 0.1883583 0.1886 0.188845 0.1890923 0.1893418 0.1895928
 0.1898429 0.1900919 0.1903438 0.1906017 0.1908644 0.1911288 0.1913905 0.1916441 0.1918868 0.1921194
 0.1923438 0.192562 0.1927787 0.1929974 0.1932182 0.1934417 0.1936708 0.1939046 0.1941395 0.1943743
 0.1946112 0.1948519 0.1950985 0.1953512 0.1956044 0.1958527 0.1960977 0.1963438 0.1965933 0.1968472
 0.1971056 0.1973631 0.1976148 0.1978646 0.1981198 0.198381 0.1986449 0.1989102 0.1991761 0.199442
 0.1997097 0.1999786 0.2002452 0.2005098 0.2007756 0.2010409 0.2013032 0.2015661 0.2018327 0.2021016
 0.2023737 0.202651 0.202929 0.2032015 0.2034694 0.2037337 0.203993 0.2042517 0.204519 0.2047945
 0.2050727 0.2053544 0.2056407 0.2059247 0.2062015 0.2064721 0.2067371 0.2069987 0.207263 0.2075295
 0.2077918 0.2080516 0.2083131 0.2085666 0.208788 0.2089298 0.208867 0.2083332 0.2068815 0.2038897
 0.1986794 0.190785 0.1802284 0.1676028 0.1539107 0.1402547 0.127538 0.1163361 0.1069584 0.09956256
 0.09424031 0.09109586 0.09030682 0.09220406 0.0973794 0.1063323 0.1181776 0.1295339 0.1357937 0.134613
 0.1280355 0.1206396 0.1158155 0.1141086 0.1143756 0.1154854 0.1169865 0.1189833 0.1217489 0.1253216
 0.1294609 0.1340391 0.1392713 0.1453808 0.1521626 0.1590562 0.1656129 0.1717829 0.1777536 0.1836077
 0.1891901 0.1942558 0.1986591 0.2024024 0.2055839 0.2083367 0.2107784 0.2129861 0.215012 0.2168886
 0.2185899 0.2200106 0.2210279 0.2216007 0.2218189 0.2218634 0.2219048 0.2220273 0.2222383 0.2225236
 0.222874 0.22328 0.223732 0.2242225 0.2247407 0.2252737 0.2258147 0.2263566 0.2268846 0.2273843
 0.2278515 0.2282886 0.2287018 0.2291011 0.2294924 0.2298725 0.2302386 0.2305939 0.2309415 0.2312831
 0.2316227 0.2319621 0.2322953 0.2326149 0.2329177 0.2332003 0.2334622 0.2337119 0.2339598 0.2342087
 0.234458 0.2347099 0.234965 0.2352195 0.2354697 0.2357146 0.2359546 0.2361924 0.2364314 0.236671
 0.2369093 0.2371486 0.2373912 0.2376337 0.2378709 0.2381021 0.2383311 0.238563 0.2388009 0.2390441
 0.2392907 0.2395432 0.2398037 0.2400683 0.240333 0.2406005 0.2408726 0.241144 0.2414107 0.2416762
 0.241944 0.242213 0.2424828 0.2427551 0.2430261 0.2432855 0.2435262 0.2437517 0.2439744 0.2442046
 0.2444407 0.2446743 0.2449052 0.2451441 0.2453971 0.2456575 0.2459148 0.2461638 0.2464081 0.2466583
 0.2469243 0.2472051 0.2474896 0.2477706 0.2480504 0.2483339 0.2486227 0.2489163 0.2492119 0.2495034
 0.2497862 0.2500642 0.2503501 0.2506577 0.2509877 0.2513228 0.2516434 0.2519476 0.2522478 0.2525563
 0.2528778 0.2532049 0.2535121 0.2537721 0.253997 0.2542441 0.254565 0.2549546 0.255363 0.2557442
 0.2560863 0.256404 0.2567137 0.2570181 0.257306 0.257566 0.2578048 0.2580577 0.2583681 0.2587427
 0.2591371 0.2595007 0.2598209 0.2601142 0.2603971 0.2606774 0.2609445 0.2611598 0.2612956 0.2614042
 0.2616075 0.2619832 0.2624777 0.262961 0.2633553 0.2636822 0.263992 0.2642975 0.2645882 0.2648442
 0.2650011 0.2649782 0.2648259 0.2647812 0.2650738 0.2656914 0.2664083 0.2670174 0.2674676 0.2678112
 0.2681084 0.2683883 0.2686336 0.2687805 0.2687859 0.2687289 0.2688045 0.2691483 0.2696853 0.2702107
 0.270606 0.2709068 0.2711923 0.2714936 0.2717765 0.2719185 0.2717613 0.271328 0.2709682 0.2711297
 0.2719247 0.2730024 0.2738997 0.2744523 0.2747965 0.27505 0.2751403 0.2749441 0.2744398 0.2737155
 0.2730189 0.2728015 0.2734219 0.2746874 0.2759333 0.2766907 0.2770889 0.2775187 0.2781219 0.2787335
 0.2791528 0.2793245 0.279302 0.2791279 0.2788125 0.2784735 0.2784206 0.2789382 0.2799563 0.2810632
 0.281893 0.2824145 0.2827683 0.2828479 0.2821918 0.2805334 0.2785165 0.2775307 0.27848 0.2808335
 0.2831979 0.284692 0.2854306 0.2858763 0.2862366 0.2864021 0.2859354 0.2842184 0.2812945 0.2786015
 0.2780973 0.2803289 0.2838188 0.2864972 0.2872799 0.2862868 0.2843156 0.2824764 0.2817968 0.2826644
 0.2846621 0.2869939 0.2889637 0.2901679 0.2905186 0.2902007 0.2895972 0.2891937 0.2892704 0.2894832
 0.2890797 0.287878 0.2866164 0.285815 0.2848212 0.2828783 0.2808172 0.2805413 0.2826731 0.2856525
 0.2875441 0.2880178 0.2880008 0.2878082 0.286382 0.2826869 0.2776302 0.2740368 0.2742306 0.277713
 0.2816563 0.2836847 0.2837532 0.2833337 0.2833447 0.2831808 0.2816115 0.278523 0.2755983 0.2748163
 0.2762322 0.2778905 0.2779868 0.2761377 0.2724451 0.2670376 0.2615435 0.2593906 0.2627823 0.2699496
 0.276711 0.2800781 0.2791851 0.2740446 0.2658579 0.2583167 0.2559451 0.2599271 0.2667239 0.2714965
 0.271921 0.2682943 0.2615684 0.2529321 0.2448271 0.2406417 0.242554 0.249776 0.2587027 0.264471
 0.2634456 0.2561358 0.2479152 0.2449732 0.2484917 0.2538675 0.2561207 0.2545789 0.2518265 0.2501915
 0.2504651 0.2523435 0.254768 0.2567599 0.2581711 0.2582915 0.2544619 0.245019 0.2336671 0.2275048
 0.2297041 0.2369659 0.2449097 0.2524787 0.2594677 0.2633615 0.262017 0.2579007 0.2565031 0.2604741
 0.2671019 0.2717758 0.2726671 0.2714673 0.270323 0.2692815 0.2673616 0.2653171 0.2656679 0.2695631
 0.2749797 0.2789171 0.2804054 0.2805092 0.280314 0.280012 0.2794557 0.2786086 0.277509 0.2762898
 0.2751682 0.2742064 0.2732638 0.2722741 0.2711762 0.2693082 0.2654607 0.2594499 0.2534612 0.2505399
 0.2513952 0.2539578 0.2563548 0.2582645 0.2584303 0.2536414 0.242928 0.2313193 0.2263851 0.2309198
 0.2407168 0.2492878 0.2529908 0.2514843 0.2455331 0.2366496 0.2286248 0.2268695 0.234245 0.2480692
 0.2625318 0.2736129 0.280605 0.2838477 0.2831832 0.2791152 0.2741046 0.2715905 0.2736268 0.2795352
 0.2864253 0.2905377 0.288877 0.2816801 0.2740535 0.2728848 0.2800114 0.2897784 0.2952828 0.2956042
 0.2947842 0.2954129 0.2964139 0.2966006 0.297163 0.2996688 0.3034925 0.3063387 0.3063018 0.3026677
 0.2958993 0.288184 0.2830871 0.2827304 0.2854487 0.2877001 0.2876986 0.2854412 0.2804832 0.2729163
 0.2661571 0.2651083 0.2705852 0.278079 0.2828979 0.2845345 0.2852001 0.2858497 0.2850595 0.2814097
 0.2760049 0.2719957 0.2714926 0.2735781 0.275817 0.2768921 0.2768095 0.2753765 0.2722144 0.2683956
 0.2665862 0.268676 0.2737533 0.2789898 0.2822355 0.2833281 0.2832751 0.2829551 0.2826486 0.2821934
 0.2814139 0.2807238 0.2811561 0.2832626 0.2861536 0.2883126 0.2893484 0.2903107 0.2922076 0.2947714
 0.2968692 0.2977572 0.2977321 0.2977549 0.2985891 0.3001756 0.3016897 0.3022688 0.3018637 0.3013973
 0.301934 0.3036621 0.3058213 0.3075734 0.3087021 0.3094923 0.310254 0.3110594 0.3117086 0.3118957
 0.311614 0.3114075 0.311969 0.313423 0.3151791 0.3165304 0.3172352 0.3174845 0.3175031 0.3173308
 0.3169326 0.3163779 0.3158541 0.315526 0.3154202 0.3154469 0.3154985 0.3155142 0.3154876 0.3154575
 0.315482 0.3155921 0.3157723 0.315992 0.3162289 0.3164526 0.3166222 0.3167289 0.3168101 0.3168936
 0.3169456 0.3168904 0.3166617 0.3162156 0.3155155 0.3145306 0.3132388 0.3116115 0.3096188 0.3073255
 0.3050487 0.3033909 0.3029904 0.3041174 0.3064597 0.3092992 0.3119172 0.3139029 0.3151966 0.3159418
 0.3163217 0.3164771 0.3164927 0.3164065 0.3162289 0.3159685 0.3156458 0.3152879 0.3149193 0.3145629
 0.314238 0.3139502 0.3136856 0.3134152 0.313105 0.3127283 0.3122752 0.3117529 0.3111718 0.3105268
 0.3097913 0.3089379 0.307973 0.3069473 0.3059304 0.304973 0.3040826 0.3032268 0.3023595 0.3014408
 0.300422 0.299235 0.2978571 0.2964042 0.2951007 0.2941 0.2933455 0.2926376 0.2918094 0.2908132
 0.2896791 0.2884519 0.2871686 0.2858538 0.2845136 0.2831352 0.2816929 0.2801585 0.2785191 0.2767859
 0.2749787 0.2731082 0.2711835 0.2692209 0.267219 0.2651155 0.2627787 0.2600451 0.2567682 0.2528515
 0.2482708 0.2430915 0.2374729 0.2316385 0.2258207 0.2202162 0.2149803 0.210246 0.2061335 0.2027415
 0.2001377 0.1983624 0.1974375 0.1973688 0.1981409 0.1997132 0.2020139 0.2049318 0.2083112 0.2119625
 0.2156827 0.2192823 0.2226249 0.2256678 0.2284593 0.2310724 0.2335309 0.2357996 0.2378329 0.2396137
 0.2411485 0.2424459 0.2435128 0.244369 0.2450553 0.245625 0.2461225 0.2465649 0.2469424 0.2472377
 0.2474521 0.2476121 0.2477549 0.2479095 0.2480911 0.2483043 0.2485512 0.2488418 0.2491965 0.2496358
 0.2501662 0.2507793 0.2514566 0.2521778 0.2529343 0.2537411 0.2546345 0.2556518 0.2568161 0.2581349
 0.2596035 0.2611989 0.2628647 0.2645034 0.2659965 0.2672448 0.2682005 0.2688636 0.2692542 0.2693945
 0.269312 0.2690458 0.2686357 0.2681085 0.2674796 0.2667646 0.2659833 0.265151 0.2642718 0.2633407
 0.262357 0.2613392 0.2603225 0.2593355 0.258384 0.2574611 0.256561 0.255681 0.2548212 0.2539878
 0.2531896 0.2524303 0.2517074 0.251016 0.2503467 0.2496802 0.2489867 0.2482245 0.2473485 0.2463269
 0.2451513 0.2438283 0.242366 0.2407711 0.2390495 0.2372101 0.2352682 0.2332432 0.231149 0.2289888
 0.2267532 0.2244249 0.222009 0.2195668 0.2172028 0.2150021 0.2129895 0.2111408 0.2094174 0.207789
 0.2062417 0.2047694 0.2033612 0.2020046 0.2006971 0.1994446 0.1982546 0.1971359 0.1960975 0.1951452
 0.1942891 0.1935461 0.1929208 0.1923955 0.1919469 0.1915652 0.1912604 0.1910644 0.191011 0.1910903
 0.1912295 0.1913357 0.191356 0.1912975 0.1912071 0.1911336 0.1910975 0.1910953 0.191113 0.1911099
 0.1909999 0.1906769 0.190053 0.1890631 0.1876678 0.1858811 0.1837876 0.1815282 0.1792756 0.1771969
 0.1754068 0.1739555 0.1728447 0.1720293 0.1714228 0.1709506 0.1706038 0.1704329 0.1704982 0.1708012
 0.171225 0.171575 0.1717515 0.1718702 0.1721638 0.1727806 0.1736919 0.1747471 0.1757791 0.1766807
 0.1774148 0.1779789 0.1783891 0.1786819 0.1788838 0.1789844 0.1789629 0.1788179 0.1785537 0.1781763
 0.1777067 0.1771599 0.1765234 0.1757871 0.1749655 0.174067 0.1730827 0.1720041 0.1708066 0.1694528
 0.1679898 0.1666273 0.1656635 0.165327 0.1656599 0.1664985 0.1675879 0.1687526 0.1699183 0.170989
 0.1718484 0.172553 0.1734131 0.1747826 0.1767571 0.1790754 0.181301 0.1830991 0.1843393 0.1850014
 0.1851049 0.1847148 0.1838839 0.1825975 0.1808677 0.1788193 0.1766062 0.1743465 0.1721706 0.1701995
 0.1684817 0.1670417 0.1659009 0.1650634 0.1645863 0.1641926 0.1623197 0.1566619 0.1474308 0.1394768
 0.1386345 0.1454406 0.1543959 0.1598692 0.1608835 0.1597925 0.1585682 0.1576458 0.1569499 0.1565393
 0.1564616 0.1566209 0.1568114 0.1568121 0.1565273 0.1559719 0.1550128 0.1531382 0.1494646 0.1430607
 0.1336336 0.1221563 0.1106573 0.101145 0.09461176 0.09083647 0.08883539 0.08754697 0.08643365 0.08565885
 0.08572228 0.08694819 0.08930963 0.0925923 0.09654595 0.1008408 0.105012 0.1086094 0.1114325 0.1135441
 0.115069 0.1160675 0.1165809 0.1166734 0.1164063 0.1158382 0.1150417 0.114065 0.1128947 0.1115073
 0.1099719 0.1084915 0.1073185 0.1065867 0.1062268 0.1060681 0.1059956 0.1059804 0.1060168 0.1060957
 0.1062158 0.1063828 0.1066103 0.1069153 0.1072827 0.1076479 0.1079406 0.1081332 0.1082352 0.1082534
 0.1081602 0.1079146 0.1075416 0.1071509 0.1067897 0.1062983 0.1054342 0.1041776 0.1028526 0.1019183
 0.1016461 0.1019565 0.1025102 0.1029622 0.1031742 0.1032237 0.1032394 0.1032333 0.1030802 0.102657
</values></Ydata></ScRf><Data_Parameters_AB><parameter name="DPF">1</parameter><parameter name="NPT">3497</parameter><parameter name="FXV">3996</parameter><parameter name="LXV">500</parameter><parameter name="CSF">1</parameter><parameter name="MXY">0.012544053606689</parameter><parameter name="MNY">-0.126500904560089</parameter><parameter name="DAT">17/01/2024</parameter><parameter name="TIM">12:55:39.267 (GMT+1)</parameter><parameter name="DXU">WN</parameter></Data_Parameters_AB><AB__Qtest><MainReport name="Quality Test Report"><Header><Line><Legend>Test result ok/not ok [1/0]: </Legend><Value>0</Value></Line><Line><Legend>Method file: </Legend><Value>C:\Users\Public\Documents\Bruker\OPUS_8.2.28\QT\IRBT_v3_default.QT</Value></Line></Header><Matrix><Line><Legend></Legend><Legend>min</Legend><Legend>max</Legend><Legend>measured</Legend></Line><Line><Value>Absorption (X-Range 1):</Value><Value>0.400000</Value><Value>2.000000</Value><Value>0.084484</Value></Line><Line><Value>Noise (X-Range 4):</Value><Value></Value><Value>0.000300</Value><Value>0.000021</Value></Line><Line><Value>Signal/Noise (X-Range 2):</Value><Value>200.000000</Value><Value></Value><Value>51.095752</Value></Line><Line><Value>Signal/Noise (X-Range 3):</Value><Value>40.000000</Value><Value></Value><Value>22.038699</Value></Line><Line><Value>Water vapour (X-Range 5):</Value><Value></Value><Value>0.000300</Value><Value>0.000008</Value></Line><Line><Value>Signal/Water (X-Range 2):</Value><Value>100.000000</Value><Value></Value><Value>133.340531</Value></Line><Line><Value>Signal/Water (X-Range 3):</Value><Value>20.000000</Value><Value></Value><Value>57.512645</Value></Line><Line><Value>Fringes (X-Range 6):</Value><Value></Value><Value>0.000100</Value><Value>0.000023</Value></Line></Matrix></MainReport></AB__Qtest><Data_Parameters_ScSm><parameter name="DPF">1</parameter><parameter name="NPT">1814</parameter><parameter name="FXV">3996.63438082617</parameter><parameter name="LXV">499.579297603271</parameter><parameter name="CSF">1</parameter><parameter name="MXY">0.348842710256577</parameter><parameter name="MNY">0.0857228115200996</parameter><parameter name="DAT">17/01/2024</parameter><parameter name="TIM">12:55:39.267 (GMT+1)</parameter><parameter name="DXU">WN</parameter></Data_Parameters_ScSm><Data_Parameters_ScRf><parameter name="DPF">1</parameter><parameter name="NPT">1820</parameter><parameter name="FXV">4004.34989121387</parameter><parameter name="LXV">495.721542409425</parameter><parameter name="CSF">1</parameter><parameter name="MXY">0.317503064870834</parameter><parameter name="MNY">0.068082183599472</parameter><parameter name="DAT">17/01/2024</parameter><parameter name="TIM">12:55:13.732 (GMT+1)</parameter><parameter name="DXU">WN</parameter></Data_Parameters_ScRf><Optic_Parameters_Rf><parameter name="APR">0</parameter><parameter name="APT">Open</parameter><parameter name="BMS">KBr</parameter><parameter name="DTC">RT-DLaTGS_IR-Biotyper [Microplate reader]</parameter><parameter name="HPF">0</parameter><parameter name="LPF">10.0</parameter><parameter name="LPV">4000</parameter><parameter name="PGR">0</parameter><parameter name="RCH">Module port</parameter><parameter name="RDX">0</parameter><parameter name="SRC">MIR</parameter><parameter name="VEL">10.0</parameter><parameter name="SON">Off</parameter></Optic_Parameters_Rf><Acquisition_Parameters_Rf><parameter name="ADT">1</parameter><parameter name="AQM">DD</parameter><parameter name="CFE">0</parameter><parameter name="COR">0</parameter><parameter name="DEL">0</parameter><parameter name="DLY">0</parameter><parameter name="HFW">8000</parameter><parameter name="LFW">0</parameter><parameter name="NSR">32</parameter><parameter name="PLF">AB</parameter><parameter name="RES">6</parameter><parameter name="RGN">-1</parameter><parameter name="STR">0</parameter><parameter name="TCL">MakeCompatibleScalar (0, {WSV=1.000000, ARV=0});</parameter><parameter name="TDL">37</parameter><parameter name="RPO">0</parameter></Acquisition_Parameters_Rf><FT_-_Parameters_Rf><parameter name="APF">B3</parameter><parameter name="HFQ">500</parameter><parameter name="LFQ">4000</parameter><parameter name="NLI">0</parameter><parameter name="PHR">24</parameter><parameter name="PHZ">ML</parameter><parameter name="SPZ">NO</parameter><parameter name="ZFF">1</parameter></FT_-_Parameters_Rf><Optic_Parameters_><parameter name="APR">0</parameter><parameter name="APT">Open</parameter><parameter name="BMS">KBr</parameter><parameter name="CHN">Module port</parameter><parameter name="DTC">RT-DLaTGS_IR-Biotyper [Microplate reader]</parameter><parameter name="HPF">0</parameter><parameter name="LPF">10.0</parameter><parameter name="LPV">4000</parameter><parameter name="PGN">0</parameter><parameter name="RDX">0</parameter><parameter name="SRC">MIR</parameter><parameter name="VEL">10.0</parameter><parameter name="SON">Off</parameter></Optic_Parameters_><FT_-_Parameters_><parameter name="APF">B3</parameter><parameter name="HFQ">500</parameter><parameter name="LFQ">4000</parameter><parameter name="NLI">0</parameter><parameter name="PHR">24</parameter><parameter name="PHZ">ML</parameter><parameter name="SPZ">NO</parameter><parameter name="ZFF">1</parameter></FT_-_Parameters_><Acquisition_Parameters_><parameter name="ADT">1</parameter><parameter name="AQM">DD</parameter><parameter name="CFE">0</parameter><parameter name="COR">0</parameter><parameter name="DEL">0</parameter><parameter name="DLY">0</parameter><parameter name="HFW">8000</parameter><parameter name="LFW">0</parameter><parameter name="NSS">32</parameter><parameter name="PLF">AB</parameter><parameter name="RES">6</parameter><parameter name="SOT">0</parameter><parameter name="TCL">MakeCompatibleScalar (0, {WSV=1.000000, ARV=0});</parameter><parameter name="TDL">37</parameter><parameter name="SPO">0</parameter><parameter name="SGN">-1</parameter></Acquisition_Parameters_><Instrument_Parameters_Rf><parameter name="HFL">15801.365274</parameter><parameter name="LFL">0</parameter><parameter name="LWN">15801.365274</parameter><parameter name="ABP">32157</parameter><parameter name="SSP">1</parameter><parameter name="ARG">2</parameter><parameter name="ASG">2</parameter><parameter name="ASS">32</parameter><parameter name="GFW">16</parameter><parameter name="GBW">16</parameter><parameter name="BFW">0</parameter><parameter name="BBW">0</parameter><parameter name="PKA">9111</parameter><parameter name="PKL">4987</parameter><parameter name="PRA">9121</parameter><parameter name="PRL">5010</parameter><parameter name="P2A">1</parameter><parameter name="P2L">1</parameter><parameter name="P2R">1</parameter><parameter name="P2K">1</parameter><parameter name="DAQ">0</parameter><parameter name="AG2">1</parameter><parameter name="SSM">1</parameter><parameter name="RSN">46284</parameter><parameter name="CRR">0</parameter><parameter name="SRT">1705496113.732</parameter><parameter name="DUR">19.6439971923828</parameter><parameter name="TSC">30.8</parameter><parameter name="MVD">0.354384928941727</parameter><parameter name="AN1">0.226028918627287</parameter><parameter name="AN2">0</parameter><parameter name="VSN">2.485 Apr  4 2017</parameter><parameter name="SRN">0085</parameter><parameter name="CAM">0</parameter><parameter name="INS">IR-Biotyper</parameter><parameter name="FOC">69</parameter><parameter name="RDY">1</parameter><parameter name="ARS">32</parameter></Instrument_Parameters_Rf><Sample_Parameters_><parameter name="BLD"></parameter><parameter name="CNM">Admin</parameter><parameter name="CPY"></parameter><parameter name="DPM"></parameter><parameter name="EXP">IRBT_v3_32Scans.XPM</parameter><parameter name="LCT"></parameter><parameter name="SFM">Microplate, HTS-XT</parameter><parameter name="SNM">240117-1222-Cdiff_SCFA_1_C5_232101287_E4_3cf6b8de-0e53-443a-bc0b-9f580b704887.0</parameter><parameter name="XPP">C:\Users\Public\Documents\Bruker\OPUS_8.2.28\XPM</parameter><parameter name="IST">OK</parameter><parameter name="CPG">1252</parameter><parameter name="UID">23a01be5-f9d1-4e36-9ac4-13b0dc698882</parameter></Sample_Parameters_><Instrument_Parameters_><parameter name="HFL">15801.365274</parameter><parameter name="LFL">0</parameter><parameter name="LWN">15801.365274</parameter><parameter name="ABP">32157</parameter><parameter name="SSP">1</parameter><parameter name="ASG">2</parameter><parameter name="ARG">2</parameter><parameter name="ASS">32</parameter><parameter name="GFW">16</parameter><parameter name="GBW">16</parameter><parameter name="BFW">0</parameter><parameter name="BBW">0</parameter><parameter name="PKA">10560</parameter><parameter name="PKL">4987</parameter><parameter name="PRA">10744</parameter><parameter name="PRL">5010</parameter><parameter name="P2A">1</parameter><parameter name="P2L">1</parameter><parameter name="P2R">1</parameter><parameter name="P2K">1</parameter><parameter name="DAQ">0</parameter><parameter name="AG2">1</parameter><parameter name="SSM">1</parameter><parameter name="RSN">23835</parameter><parameter name="CRR">0</parameter><parameter name="SRT">1705496139.268</parameter><parameter name="DUR">19.6439971923828</parameter><parameter name="TSC">30.8</parameter><parameter name="MVD">0.277906328439713</parameter><parameter name="AN1">0.225996149900065</parameter><parameter name="AN2">0</parameter><parameter name="VSN">2.485 Apr  4 2017</parameter><parameter name="SRN">0085</parameter><parameter name="CAM">0</parameter><parameter name="INS">IR-Biotyper</parameter><parameter name="FOC">69</parameter><parameter name="RDY">1</parameter></Instrument_Parameters_><History/></OPUSDataFile>
