<?xml version="1.0" encoding="UTF-8" ?>
<OPUSDataFile><AB><Ydata ylabel="Absorbance Units"><values byteorder="INTEL" format="FLOAT32" numvalues="3497"> -0.0455588 -0.04553123 -0.04551025 -0.04549464 -0.04548142 -0.04546826 -0.04544719 -0.04542095 -0.04538902 -0.04535757
 -0.04533347 -0.04531863 -0.04531832 -0.04532637 -0.04534173 -0.04535714 -0.04536938 -0.04537699 -0.04537893 -0.04537606
 -0.04536858 -0.04535512 -0.04533552 -0.04530937 -0.04527673 -0.04524273 -0.04520794 -0.04518025 -0.04515943 -0.04514879
 -0.0451467 -0.04514974 -0.04515628 -0.0451609 -0.04516369 -0.04516224 -0.04515773 -0.04515062 -0.04514164 -0.04513171
 -0.04512049 -0.04510788 -0.04509417 -0.04507913 -0.04506459 -0.0450509 -0.04503966 -0.04503141 -0.04502472 -0.04501969
 -0.04501153 -0.04500001 -0.0449827 -0.04496014 -0.04493717 -0.04491486 -0.04490222 -0.04489842 -0.04490655 -0.04492291
 -0.04494084 -0.04495751 -0.04496461 -0.04496393 -0.04495365 -0.04493788 -0.04491967 -0.04489983 -0.04488002 -0.04485842
 -0.04483419 -0.04480851 -0.0447809 -0.0447561 -0.04473484 -0.04471987 -0.04471177 -0.04470802 -0.04470851 -0.04470869
 -0.04470845 -0.04470503 -0.0446985 -0.0446879 -0.04467326 -0.04465383 -0.04463032 -0.04460334 -0.04457518 -0.04454949
 -0.0445285 -0.04451679 -0.04451311 -0.04451911 -0.04452922 -0.04454119 -0.04455033 -0.04455377 -0.04455236 -0.04454535
 -0.0445367 -0.04452707 -0.04451792 -0.04450964 -0.04450001 -0.04448893 -0.04447455 -0.04445715 -0.04443947 -0.04442207
 -0.04441008 -0.04440276 -0.04440063 -0.0444017 -0.04440125 -0.04439884 -0.04439083 -0.04437986 -0.04436767 -0.044356
 -0.0443477 -0.04434045 -0.04433416 -0.04432525 -0.04431159 -0.04429471 -0.04427396 -0.04425481 -0.0442384 -0.04422539
 -0.04421623 -0.04420665 -0.04419644 -0.04418359 -0.04416843 -0.04415505 -0.04414375 -0.04413895 -0.04413957 -0.0441446
 -0.04415195 -0.04415583 -0.04415579 -0.0441477 -0.04413415 -0.04411656 -0.04409697 -0.04407781 -0.04405889 -0.04404056
 -0.04402301 -0.04400604 -0.04399136 -0.04397954 -0.04397073 -0.04396556 -0.04395952 -0.04395235 -0.04393907 -0.04391937
 -0.04389542 -0.04386769 -0.04384338 -0.04382247 -0.04380865 -0.04380075 -0.04379636 -0.04379486 -0.04379331 -0.04379216
 -0.0437913 -0.0437901 -0.04378859 -0.04378373 -0.04377287 -0.04375459 -0.04372621 -0.04369173 -0.04365111 -0.04361174
 -0.04357558 -0.04354717 -0.04352794 -0.0435173 -0.04351568 -0.04351763 -0.04352287 -0.04352355 -0.04351946 -0.04350571
 -0.04348321 -0.0434548 -0.0434221 -0.04339314 -0.0433679 -0.04335101 -0.0433401 -0.04333344 -0.0433282 -0.04331992
 -0.04330813 -0.04329041 -0.04326899 -0.04324414 -0.04321889 -0.04319458 -0.0431727 -0.04315406 -0.04313843 -0.04312597
 -0.04311564 -0.04310743 -0.04309938 -0.04309137 -0.04308138 -0.04306944 -0.04305571 -0.0430406 -0.04302693 -0.04301479
 -0.04300625 -0.04300048 -0.04299656 -0.04299347 -0.04298887 -0.04298255 -0.04297314 -0.04296136 -0.0429474 -0.04293181
 -0.04291526 -0.04289697 -0.04287673 -0.04285409 -0.04282818 -0.04280253 -0.04277709 -0.04275871 -0.04274838 -0.0427478
 -0.04275728 -0.04276906 -0.04278266 -0.04278869 -0.04278775 -0.04277949 -0.04276493 -0.04274869 -0.0427296 -0.04270684
 -0.04267935 -0.04264364 -0.04260254 -0.04255786 -0.04251305 -0.04247237 -0.04243561 -0.04240361 -0.04237633 -0.04235335
 -0.04233717 -0.04232889 -0.04232774 -0.04233494 -0.04234087 -0.04234485 -0.04233639 -0.04231462 -0.04227958 -0.04223185
 -0.04218363 -0.04213594 -0.04210296 -0.04208343 -0.04208078 -0.04209125 -0.04210671 -0.04212419 -0.04213403 -0.04213637
 -0.04212708 -0.04210845 -0.04208059 -0.04204733 -0.04201025 -0.04197474 -0.04194332 -0.04191981 -0.04190657 -0.04190138
 -0.04190498 -0.04190954 -0.04191453 -0.04191079 -0.04189757 -0.04187224 -0.04183511 -0.04179353 -0.04174851 -0.04171195
 -0.04168319 -0.04166692 -0.04165957 -0.04165398 -0.04164682 -0.041627 -0.04159702 -0.04155406 -0.04150565 -0.04145804
 -0.04141527 -0.04138296 -0.04135789 -0.0413411 -0.04132485 -0.0413074 -0.04128176 -0.0412457 -0.0411992 -0.04114113
 -0.04108179 -0.04102172 -0.04097227 -0.04093358 -0.04090622 -0.04088913 -0.04087427 -0.04086113 -0.04084296 -0.04082058
 -0.04079264 -0.04076034 -0.04072522 -0.04068836 -0.04065188 -0.04061617 -0.04058257 -0.04055044 -0.04051993 -0.04048974
 -0.04045939 -0.04042782 -0.0403947 -0.04035911 -0.0403208 -0.04027923 -0.0402341 -0.04018745 -0.04013935 -0.04009289
 -0.04004809 -0.0400046 -0.03996207 -0.0399175 -0.03987103 -0.03982132 -0.03976962 -0.03971896 -0.03967011 -0.0396269
 -0.03958701 -0.03954975 -0.03951043 -0.03946359 -0.03940867 -0.03934128 -0.03927075 -0.03919915 -0.03913781 -0.03909218
 -0.03906089 -0.03904615 -0.03903481 -0.03902565 -0.03900729 -0.03897863 -0.03893647 -0.03888084 -0.03881559 -0.03874116
 -0.03866298 -0.0385814 -0.03850106 -0.03842185 -0.03834604 -0.03827285 -0.03820163 -0.03813208 -0.03806294 -0.03799585
 -0.03793155 -0.03787253 -0.03782091 -0.03777719 -0.03774273 -0.0377148 -0.03769333 -0.0376736 -0.03765483 -0.03763268
 -0.03760654 -0.03757318 -0.0375323 -0.03748197 -0.03742218 -0.03735426 -0.03727891 -0.03720274 -0.03712654 -0.03705817
 -0.0369967 -0.03694404 -0.03689761 -0.03685293 -0.03680858 -0.03676026 -0.03670879 -0.03665333 -0.03659518 -0.03653503
 -0.03647363 -0.03641135 -0.03634918 -0.03628743 -0.03622696 -0.03616804 -0.03611075 -0.03605506 -0.03600168 -0.03595058
 -0.03590398 -0.03586193 -0.0358244 -0.03579089 -0.03575668 -0.03572132 -0.03567987 -0.03563286 -0.03557915 -0.0355199
 -0.03545715 -0.03539116 -0.03532309 -0.03525298 -0.03518087 -0.03510805 -0.03503498 -0.03496405 -0.03489655 -0.03483384
 -0.03477711 -0.03472468 -0.034677 -0.03462872 -0.03457939 -0.03452271 -0.03445796 -0.03438367 -0.03429989 -0.03421393
 -0.03412654 -0.03404834 -0.03397903 -0.03392321 -0.03387868 -0.03384084 -0.03380803 -0.03377384 -0.03373932 -0.03370291
 -0.03366691 -0.03363375 -0.03360306 -0.03357632 -0.03354932 -0.03352091 -0.03348586 -0.03344189 -0.03338714 -0.03331994
 -0.03324496 -0.03316211 -0.03308019 -0.03299989 -0.0329281 -0.0328651 -0.03281033 -0.03276328 -0.03271799 -0.03267422
 -0.03262725 -0.03257791 -0.03252643 -0.0324736 -0.03242165 -0.03236982 -0.03231823 -0.03226519 -0.03220846 -0.03214841
 -0.03208379 -0.03201819 -0.0319527 -0.03189143 -0.03183653 -0.03178804 -0.03174714 -0.03170853 -0.03167191 -0.03163072
 -0.03158424 -0.03153011 -0.03146823 -0.03140239 -0.03133305 -0.03126683 -0.03120384 -0.03114826 -0.03109934 -0.03105705
 -0.03102008 -0.03098544 -0.0309525 -0.03091862 -0.03088454 -0.03084964 -0.03081603 -0.03078499 -0.03075839 -0.03073812
 -0.03072281 -0.03071307 -0.03070444 -0.0306962 -0.03068396 -0.03066672 -0.03064394 -0.03061534 -0.03058344 -0.03054834
 -0.03051252 -0.03047604 -0.03044033 -0.03040558 -0.03037379 -0.03034498 -0.03032087 -0.03029999 -0.03028036 -0.03025954
 -0.0302323 -0.03019868 -0.03015574 -0.0301072 -0.03005486 -0.03000184 -0.02995083 -0.02990114 -0.02985303 -0.02980582
 -0.02975891 -0.02971486 -0.029674 -0.02963826 -0.02960805 -0.02958145 -0.02955835 -0.02953668 -0.02951651 -0.02949855
 -0.02948253 -0.02946757 -0.02945271 -0.02943367 -0.02941072 -0.02938151 -0.0293488 -0.02931595 -0.02928522 -0.02926151
 -0.0292427 -0.02922944 -0.02921709 -0.02920302 -0.02918538 -0.02916219 -0.02913616 -0.02910743 -0.02907913 -0.02905194
 -0.0290267 -0.02900358 -0.02898245 -0.02896332 -0.0289473 -0.02893434 -0.02892434 -0.02891681 -0.0289086 -0.02889941
 -0.028886 -0.02886943 -0.02885043 -0.02883055 -0.02881325 -0.02879793 -0.0287859 -0.02877429 -0.02876114 -0.02874469
 -0.02872264 -0.02869729 -0.02866853 -0.02864041 -0.02861408 -0.02859139 -0.02857312 -0.02855759 -0.02854478 -0.02853235
 -0.02852016 -0.02850833 -0.02849695 -0.02848737 -0.02847947 -0.0284734 -0.02846847 -0.02846237 -0.02845425 -0.02844064
 -0.02842174 -0.02839561 -0.02836474 -0.02833065 -0.02829733 -0.02826859 -0.02824674 -0.02823494 -0.02823073 -0.02823466
 -0.02824101 -0.02824858 -0.02825244 -0.02825134 -0.02824406 -0.02823014 -0.02821201 -0.02818978 -0.02816723 -0.0281445
 -0.02812413 -0.02810603 -0.02809089 -0.02807865 -0.02806953 -0.02806338 -0.02806012 -0.02805907 -0.02805933 -0.02805948
 -0.02805774 -0.02805232 -0.02804128 -0.02802314 -0.02799613 -0.02796112 -0.02791702 -0.0278694 -0.02781879 -0.02777333
 -0.02773472 -0.0277068 -0.02769057 -0.02768268 -0.02768305 -0.02768536 -0.02768939 -0.02769095 -0.02769022 -0.02768622
 -0.02767933 -0.02767069 -0.02766007 -0.02764801 -0.02763267 -0.02761104 -0.02758159 -0.02753975 -0.02748941 -0.02743047
 -0.02737257 -0.02732151 -0.02728295 -0.0272628 -0.02725344 -0.02725529 -0.02725424 -0.02724718 -0.02722926 -0.02719869
 -0.02716458 -0.02712731 -0.02709854 -0.0270784 -0.02706955 -0.02707094 -0.02707645 -0.0270852 -0.02709008 -0.0270915
 -0.02708666 -0.02707705 -0.02706386 -0.02704887 -0.02703487 -0.02702272 -0.02701457 -0.02700921 -0.0270069 -0.02700505
 -0.02700251 -0.02699813 -0.02699111 -0.02698243 -0.02697218 -0.02696098 -0.02694894 -0.02693595 -0.02692199 -0.02690844
 -0.02689544 -0.02688576 -0.0268793 -0.02687678 -0.02687768 -0.02688018 -0.02688384 -0.02688642 -0.02688803 -0.02688771
 -0.02688615 -0.0268835 -0.02688158 -0.02688191 -0.02688628 -0.02689694 -0.02691218 -0.02693271 -0.02695301 -0.02697173
 -0.02698464 -0.02699021 -0.02698985 -0.02698336 -0.02697412 -0.02696235 -0.0269495 -0.02693564 -0.02692191 -0.02690857
 -0.02689868 -0.02689215 -0.02689074 -0.0268932 -0.02689694 -0.02690098 -0.02690157 -0.02690023 -0.02689689 -0.02689464
 -0.02689688 -0.02690365 -0.02691702 -0.02693241 -0.02694873 -0.02696089 -0.02696659 -0.02696584 -0.02695767 -0.02694686
 -0.0269338 -0.02692303 -0.026915 -0.02690975 -0.02690721 -0.02690492 -0.02690296 -0.02690067 -0.02689851 -0.02689842
 -0.02690016 -0.02690447 -0.02690982 -0.02691351 -0.02691465 -0.0269099 -0.02690201 -0.02689149 -0.02688358 -0.02688207
 -0.02688926 -0.02690831 -0.0269348 -0.02696884 -0.02700255 -0.02703436 -0.02705915 -0.02707589 -0.02708397 -0.02708319
 -0.0270759 -0.02706232 -0.02704725 -0.02703113 -0.02701993 -0.02701346 -0.02701459 -0.02702183 -0.02703236 -0.02704508
 -0.0270558 -0.02706609 -0.02707605 -0.02708817 -0.0271057 -0.02712756 -0.02715518 -0.02718301 -0.02720898 -0.02722895
 -0.02724051 -0.02724522 -0.02724255 -0.0272372 -0.02722974 -0.02722327 -0.02721811 -0.0272147 -0.02721307 -0.02721318
 -0.02721508 -0.02721926 -0.02722544 -0.02723292 -0.02724087 -0.02724629 -0.02724903 -0.02724675 -0.0272412 -0.02723349
 -0.02722619 -0.02722266 -0.02722304 -0.02722903 -0.02723805 -0.02724941 -0.02726085 -0.02727127 -0.0272808 -0.02728927
 -0.02729727 -0.02730493 -0.02731189 -0.02731808 -0.02732406 -0.02732987 -0.02733722 -0.02734604 -0.02735659 -0.02736822
 -0.02737772 -0.02738472 -0.02738586 -0.02738252 -0.02737534 -0.02736707 -0.02736207 -0.02736167 -0.02736948 -0.02738348
 -0.02740372 -0.02742707 -0.02745182 -0.027477 -0.02750177 -0.02752673 -0.02755215 -0.02757687 -0.02760094 -0.02762178
 -0.02763906 -0.02765328 -0.02766452 -0.02767776 -0.02769319 -0.02771525 -0.02774324 -0.02777637 -0.02781328 -0.02784907
 -0.02788357 -0.02791371 -0.02794071 -0.02796492 -0.02798762 -0.0280103 -0.02803343 -0.02805741 -0.02808364 -0.02811241
 -0.02814647 -0.02818708 -0.02823465 -0.02829032 -0.02834885 -0.02841001 -0.02846665 -0.02851804 -0.02856177 -0.02859777
 -0.02862961 -0.02865755 -0.02868579 -0.02871396 -0.0287424 -0.0287706 -0.02879674 -0.02882136 -0.02884446 -0.02886762
 -0.02889333 -0.0289224 -0.02895733 -0.02899597 -0.02903849 -0.02907985 -0.02911776 -0.02914814 -0.02916808 -0.02918041
 -0.02918418 -0.02918884 -0.02919569 -0.02921111 -0.02923625 -0.02926634 -0.02930108 -0.02932918 -0.0293506 -0.02936101
 -0.02936182 -0.0293585 -0.02935193 -0.02934839 -0.02934657 -0.02934656 -0.02934709 -0.02934557 -0.02934315 -0.02933948
 -0.02933764 -0.02933982 -0.02934786 -0.02936365 -0.02938649 -0.02941718 -0.02945184 -0.02949012 -0.02952666 -0.02956055
 -0.02958891 -0.02961114 -0.02963002 -0.02964571 -0.02966547 -0.02968955 -0.02972325 -0.02976573 -0.02981548 -0.02987063
 -0.02992394 -0.02997456 -0.03001629 -0.03005109 -0.0300787 -0.03010271 -0.03012722 -0.03015378 -0.03018545 -0.03022058
 -0.03025948 -0.03029909 -0.03033848 -0.0303751 -0.03040817 -0.03043619 -0.0304587 -0.03047589 -0.03048758 -0.0304964
 -0.0305025 -0.03050958 -0.03051776 -0.03052952 -0.0305446 -0.03056286 -0.03058363 -0.03060466 -0.03062523 -0.03064242
 -0.03065615 -0.03066462 -0.03066909 -0.03066974 -0.03066937 -0.03067001 -0.03067417 -0.0306843 -0.03069938 -0.0307204
 -0.03074234 -0.03076429 -0.03078189 -0.03079405 -0.03080057 -0.03080118 -0.03079839 -0.03079235 -0.03078445 -0.03077481
 -0.03076518 -0.0307561 -0.03075184 -0.03075271 -0.03076275 -0.0307805 -0.03080488 -0.03083369 -0.03086265 -0.03089082
 -0.03091526 -0.03093641 -0.03095372 -0.03096777 -0.0309787 -0.03098703 -0.03099279 -0.03099717 -0.03100041 -0.03100357
 -0.03100689 -0.03101075 -0.03101518 -0.03102091 -0.03102799 -0.03103755 -0.03104955 -0.03106356 -0.03107921 -0.0310939
 -0.03110744 -0.03111732 -0.03112445 -0.03112934 -0.03113416 -0.03114286 -0.03115683 -0.03118032 -0.03121042 -0.03124729
 -0.0312846 -0.03131875 -0.03134609 -0.03136304 -0.03137438 -0.03137947 -0.03138901 -0.03140458 -0.03143439 -0.03147981
 -0.03154085 -0.03161765 -0.03170228 -0.03179412 -0.03188303 -0.03196872 -0.03204406 -0.03210956 -0.032163 -0.03220575
 -0.03223969 -0.03226677 -0.03229105 -0.03231404 -0.03233948 -0.03236698 -0.03239789 -0.0324299 -0.03246216 -0.03249264
 -0.03252004 -0.03254474 -0.03256645 -0.03258656 -0.03260525 -0.03262351 -0.03264148 -0.0326593 -0.03267698 -0.03269511
 -0.03271371 -0.03273343 -0.03275406 -0.03277487 -0.03279523 -0.03281226 -0.03282562 -0.03283244 -0.03283421 -0.03283148
 -0.03282777 -0.0328274 -0.03283326 -0.03284996 -0.03287644 -0.03291428 -0.03295843 -0.03300762 -0.03305654 -0.0331035
 -0.03314547 -0.03318146 -0.03321161 -0.03323571 -0.03325558 -0.03327131 -0.03328419 -0.03329418 -0.03330092 -0.03330442
 -0.03330425 -0.0333012 -0.0332977 -0.03329551 -0.03330041 -0.03331358 -0.03334038 -0.03337933 -0.03343184 -0.03349295
 -0.03355971 -0.0336258 -0.03368651 -0.0337388 -0.03377951 -0.03381121 -0.03383338 -0.03385189 -0.03386774 -0.03388471
 -0.0339035 -0.03392398 -0.03394618 -0.03396901 -0.03399247 -0.03401714 -0.03404299 -0.0340705 -0.03409889 -0.03412552
 -0.03414924 -0.03416537 -0.03417407 -0.03417291 -0.03416403 -0.03414865 -0.03413008 -0.03411136 -0.03409555 -0.03408537
 -0.03408238 -0.03408824 -0.03410185 -0.03412381 -0.03414994 -0.03417982 -0.03420856 -0.0342355 -0.03425802 -0.03427585
 -0.03428907 -0.03429772 -0.03430314 -0.03430546 -0.03430613 -0.03430544 -0.03430529 -0.034306 -0.03430935 -0.0343155
 -0.03432598 -0.03433981 -0.03435681 -0.03437477 -0.03439179 -0.0344058 -0.03441456 -0.03441849 -0.03441678 -0.03441226
 -0.03440559 -0.03439883 -0.03439257 -0.03438739 -0.0343834 -0.0343813 -0.03438117 -0.03438396 -0.03438961 -0.03439653
 -0.03440438 -0.03440966 -0.03441264 -0.03441235 -0.03440998 -0.03440842 -0.0344082 -0.03441218 -0.03441893 -0.03442803
 -0.03443725 -0.03444405 -0.03444811 -0.03444788 -0.03444583 -0.03444256 -0.03444042 -0.03444079 -0.03444215 -0.03444484
 -0.03444448 -0.0344404 -0.03443121 -0.03441656 -0.03440162 -0.03438671 -0.03437861 -0.03437696 -0.03438197 -0.03439238
 -0.03440252 -0.03441213 -0.034417 -0.03441872 -0.0344184 -0.03441752 -0.03441901 -0.03442219 -0.0344277 -0.03443383
 -0.0344396 -0.03444397 -0.03444617 -0.03444592 -0.03444304 -0.03443711 -0.03442791 -0.03441568 -0.03440028 -0.03438335
 -0.03436494 -0.03434763 -0.03433157 -0.03431902 -0.03430993 -0.03430514 -0.03430424 -0.03430603 -0.03430982 -0.03431282
 -0.03431483 -0.03431389 -0.03431075 -0.03430548 -0.03429921 -0.03429319 -0.03428779 -0.03428374 -0.03428065 -0.03427846
 -0.03427694 -0.03427609 -0.03427541 -0.03427494 -0.03427328 -0.03427024 -0.03426468 -0.03425642 -0.03424656 -0.03423518
 -0.03422451 -0.0342145 -0.0342058 -0.03419805 -0.03418992 -0.03418135 -0.03417138 -0.03416041 -0.03414875 -0.03413693
 -0.03412583 -0.03411584 -0.03410759 -0.03410135 -0.03409773 -0.03409587 -0.03409599 -0.03409553 -0.03409375 -0.03408871
 -0.03407936 -0.034068 -0.03405451 -0.03404389 -0.03403658 -0.03403525 -0.0340399 -0.03404766 -0.03405808 -0.03406569
 -0.03407055 -0.03406983 -0.03406437 -0.03405512 -0.03404306 -0.03403082 -0.03401845 -0.0340073 -0.03399665 -0.03398621
 -0.03397557 -0.03396418 -0.03395247 -0.03394058 -0.03392848 -0.03391645 -0.03390305 -0.03388788 -0.03387066 -0.03385085
 -0.0338326 -0.03381608 -0.03380694 -0.03380536 -0.03381183 -0.0338256 -0.0338396 -0.03385313 -0.03385846 -0.0338565
 -0.03384561 -0.03382789 -0.03380706 -0.0337844 -0.03376357 -0.03374454 -0.03372867 -0.03371557 -0.03370554 -0.03369754
 -0.03369167 -0.03368509 -0.03367697 -0.0336649 -0.03364758 -0.03362721 -0.03360337 -0.0335832 -0.03356728 -0.03356064
 -0.03356345 -0.03357287 -0.03358822 -0.03360118 -0.03361174 -0.03361501 -0.03361264 -0.03360738 -0.03360077 -0.0335982
 -0.03359857 -0.03360317 -0.0336089 -0.03361267 -0.03361334 -0.03360821 -0.03360022 -0.0335898 -0.03358081 -0.03357515
 -0.03357284 -0.0335747 -0.03357727 -0.03358022 -0.03358049 -0.03357774 -0.03357122 -0.03356092 -0.03354734 -0.03353059
 -0.03351188 -0.03349147 -0.03347128 -0.03345167 -0.03343495 -0.03342102 -0.03341104 -0.03340409 -0.03339942 -0.03339586
 -0.03339171 -0.0333868 -0.03338009 -0.03337304 -0.03336598 -0.03336047 -0.03335743 -0.03335636 -0.03335765 -0.03335873
 -0.03335933 -0.03335713 -0.03335182 -0.03334316 -0.03333113 -0.03331729 -0.03330169 -0.03328513 -0.03326761 -0.0332494
 -0.0332308 -0.03321271 -0.03319572 -0.03318183 -0.03317095 -0.03316417 -0.03316022 -0.03315837 -0.03315663 -0.03315306
 -0.03314716 -0.03313777 -0.03312648 -0.03311335 -0.03310069 -0.03308913 -0.03307971 -0.03307278 -0.03306792 -0.03306514
 -0.0330634 -0.03306265 -0.03306169 -0.03306041 -0.03305738 -0.03305254 -0.03304465 -0.03303403 -0.03302088 -0.03300584
 -0.03299047 -0.03297543 -0.03296264 -0.03295198 -0.03294434 -0.03293858 -0.03293423 -0.03292994 -0.0329246 -0.0329185
 -0.03291121 -0.0329046 -0.03289915 -0.03289564 -0.03289456 -0.0328938 -0.03289329 -0.03289031 -0.03288471 -0.03287616
 -0.03286481 -0.03285249 -0.03283923 -0.0328262 -0.03281299 -0.03279863 -0.03278304 -0.03276522 -0.03274627 -0.03272729
 -0.03270984 -0.0326964 -0.03268706 -0.03268324 -0.03268273 -0.03268494 -0.03268715 -0.03268794 -0.03268687 -0.03268323
 -0.03267914 -0.03267482 -0.03267207 -0.03267122 -0.03267175 -0.03267366 -0.03267485 -0.0326752 -0.03267276 -0.0326676
 -0.03265915 -0.03264766 -0.03263379 -0.03261766 -0.03259989 -0.03258039 -0.03255915 -0.03253671 -0.03251348 -0.03249071
 -0.03246957 -0.03245083 -0.03243551 -0.03242287 -0.0324131 -0.03240443 -0.0323965 -0.03238782 -0.03237804 -0.03236663
 -0.03235339 -0.03233924 -0.0323242 -0.03231058 -0.03229851 -0.03229037 -0.03228605 -0.03228623 -0.03229035 -0.03229696
 -0.03230517 -0.0323123 -0.03231722 -0.03231656 -0.03231028 -0.03229644 -0.03227719 -0.03225312 -0.03222779 -0.03220336
 -0.03218215 -0.03216592 -0.03215405 -0.03214711 -0.03214199 -0.03213843 -0.03213295 -0.0321251 -0.03211311 -0.03209679
 -0.03207762 -0.03205578 -0.03203451 -0.03201392 -0.03199625 -0.03198126 -0.03196919 -0.03195986 -0.03195298 -0.03194832
 -0.03194562 -0.03194398 -0.03194246 -0.03193963 -0.03193381 -0.03192466 -0.03191097 -0.03189492 -0.0318767 -0.0318597
 -0.03184503 -0.03183394 -0.03182723 -0.03182242 -0.03181948 -0.03181461 -0.03180756 -0.03179676 -0.0317823 -0.03176536
 -0.0317462 -0.03172703 -0.03170804 -0.0316911 -0.03167628 -0.03166483 -0.03165618 -0.03165004 -0.03164559 -0.03164168
 -0.03163776 -0.0316328 -0.03162714 -0.03162059 -0.03161393 -0.03160733 -0.03160181 -0.03159758 -0.03159575 -0.03159668
 -0.03160007 -0.03160614 -0.03161178 -0.03161685 -0.03161712 -0.03161253 -0.0316022 -0.03158678 -0.03157062 -0.03155449
 -0.03154411 -0.03153919 -0.03154268 -0.031552 -0.03156493 -0.03157625 -0.03157877 -0.0315678 -0.03153481 -0.03148377
 -0.03141182 -0.03133374 -0.03125437 -0.03118677 -0.03113686 -0.03110521 -0.03109391 -0.03109432 -0.03110609 -0.03111803
 -0.03112935 -0.03113203 -0.03112598 -0.03111104 -0.03108814 -0.03106423 -0.03103997 -0.03102228 -0.03101004 -0.03100425
 -0.03100219 -0.03099925 -0.03099356 -0.03097979 -0.03096003 -0.03093353 -0.03090501 -0.03087758 -0.0308529 -0.03083318
 -0.0308155 -0.0307995 -0.03078249 -0.03076354 -0.0307434 -0.03072197 -0.03070089 -0.03068032 -0.03065977 -0.03063917
 -0.03061701 -0.03059346 -0.03056896 -0.03054396 -0.03052069 -0.03049928 -0.03048152 -0.0304666 -0.03045396 -0.0304423
 -0.03042956 -0.03041521 -0.03039769 -0.03037816 -0.03035652 -0.03033518 -0.03031502 -0.03029832 -0.03028617 -0.0302786
 -0.03027608 -0.03027624 -0.03027893 -0.03028142 -0.03028346 -0.03028443 -0.03028428 -0.03028258 -0.03027913 -0.03027186
 -0.03026068 -0.03024359 -0.03022158 -0.0301963 -0.03016908 -0.03014375 -0.03011993 -0.03009918 -0.03007951 -0.0300594
 -0.03003791 -0.03001336 -0.02998764 -0.0299609 -0.02993583 -0.02991345 -0.0298945 -0.02987958 -0.029867 -0.02985668
 -0.02984671 -0.02983689 -0.02982698 -0.02981697 -0.02980748 -0.02979836 -0.02978867 -0.02977808 -0.02976423 -0.02974745
 -0.02972721 -0.02970471 -0.02968218 -0.02966031 -0.02964132 -0.0296244 -0.02960967 -0.02959588 -0.02958212 -0.02956801
 -0.02955304 -0.02953759 -0.02952166 -0.02950569 -0.0294898 -0.02947408 -0.0294586 -0.02944298 -0.02942722 -0.02940997
 -0.02939118 -0.02937024 -0.02934737 -0.02932416 -0.02930105 -0.02928116 -0.02926436 -0.02925226 -0.02924356 -0.02923661
 -0.02922973 -0.02921951 -0.02920582 -0.02918677 -0.02916447 -0.02913957 -0.02911453 -0.02909101 -0.02906918 -0.02904965
 -0.02903108 -0.02901311 -0.02899565 -0.02897851 -0.02896331 -0.02895023 -0.02893945 -0.02893089 -0.02892151 -0.02891115
 -0.02889698 -0.02887948 -0.02885933 -0.0288375 -0.02881757 -0.02879955 -0.02878561 -0.02877426 -0.02876435 -0.02875434
 -0.02874178 -0.02872729 -0.02871014 -0.02869256 -0.02867559 -0.0286603 -0.0286477 -0.02863611 -0.0286255 -0.02861344
 -0.02859944 -0.02858308 -0.02856419 -0.0285446 -0.0285244 -0.02850549 -0.02848776 -0.02847092 -0.02845468 -0.02843719
 -0.0284185 -0.02839754 -0.02837512 -0.02835233 -0.02833016 -0.02831078 -0.02829401 -0.02828088 -0.02826964 -0.02825957
 -0.02824854 -0.02823516 -0.0282188 -0.02819864 -0.02817626 -0.02815161 -0.0281275 -0.02810426 -0.02808446 -0.02806842
 -0.02805681 -0.02804964 -0.02804513 -0.02804299 -0.02803948 -0.02803445 -0.02802487 -0.0280111 -0.02799255 -0.02797004
 -0.0279451 -0.02791821 -0.02789068 -0.02786294 -0.02783586 -0.02780979 -0.02778531 -0.02776239 -0.02774131 -0.02772139
 -0.02770242 -0.02768399 -0.02766581 -0.02764847 -0.02763203 -0.0276168 -0.02760291 -0.02758897 -0.0275749 -0.02755914
 -0.02754172 -0.02752259 -0.02750195 -0.02748098 -0.0274597 -0.02743893 -0.02741835 -0.02739762 -0.02737652 -0.02735427
 -0.02733168 -0.02730904 -0.027288 -0.02727005 -0.02725568 -0.02724621 -0.02723905 -0.02723395 -0.02722711 -0.0272174
 -0.02720344 -0.02718453 -0.02716284 -0.0271384 -0.02711429 -0.02709064 -0.02706879 -0.02704865 -0.02702978 -0.02701199
 -0.02699379 -0.02697532 -0.026956 -0.02693655 -0.02691844 -0.02690202 -0.02688908 -0.02687816 -0.02686877 -0.02685832
 -0.02684436 -0.02682639 -0.02680271 -0.02677653 -0.02674833 -0.02672195 -0.02669873 -0.02667932 -0.02666434 -0.02665111
 -0.02663948 -0.02662685 -0.02661308 -0.02659785 -0.02658121 -0.02656401 -0.02654624 -0.02652827 -0.02650995 -0.02649077
 -0.02647118 -0.02645192 -0.02643355 -0.02641761 -0.02640359 -0.02639187 -0.02638073 -0.02636883 -0.02635521 -0.0263385
 -0.02632025 -0.02630045 -0.02628175 -0.02626502 -0.02625091 -0.02623996 -0.02623005 -0.02622116 -0.02621005 -0.02619655
 -0.02617836 -0.02615557 -0.02612831 -0.02609716 -0.02606546 -0.02603398 -0.02600753 -0.02598587 -0.02597136 -0.02596221
 -0.02595671 -0.0259528 -0.02594712 -0.02593937 -0.02592787 -0.02591396 -0.02589799 -0.0258809 -0.02586319 -0.02584503
 -0.0258266 -0.02580763 -0.02578811 -0.02576774 -0.02574651 -0.02572341 -0.02569838 -0.02567168 -0.02564348 -0.02561652
 -0.02559104 -0.02557034 -0.02555401 -0.02554248 -0.02553462 -0.02552792 -0.02552138 -0.02551183 -0.02549974 -0.02548413
 -0.02546651 -0.0254478 -0.02542915 -0.02541182 -0.02539491 -0.02537857 -0.02536095 -0.02534132 -0.02532006 -0.02529678
 -0.02527449 -0.02525348 -0.02523565 -0.02522118 -0.02520842 -0.02519722 -0.02518486 -0.02517142 -0.02515618 -0.02513948
 -0.02512245 -0.02510492 -0.02508709 -0.02506867 -0.02504903 -0.02502871 -0.02500784 -0.02498783 -0.02497004 -0.02495484
 -0.02494337 -0.02493353 -0.02492498 -0.02491516 -0.02490308 -0.02488854 -0.02487115 -0.02485258 -0.02483301 -0.02481299
 -0.02479257 -0.02477019 -0.02474581 -0.02471863 -0.02468903 -0.02465919 -0.0246296 -0.02460353 -0.02458077 -0.02456267
 -0.02454817 -0.02453611 -0.02452539 -0.02451409 -0.02450182 -0.02448757 -0.02447139 -0.02445296 -0.02443269 -0.02441048
 -0.02438738 -0.02436334 -0.02434062 -0.0243196 -0.02430216 -0.02428873 -0.02427839 -0.02427118 -0.02426299 -0.02425364
 -0.02423951 -0.02422089 -0.024198 -0.02417164 -0.02414531 -0.02411918 -0.02409575 -0.02407411 -0.02405377 -0.02403406
 -0.02401358 -0.02399314 -0.02397279 -0.023954 -0.02393797 -0.0239247 -0.02391485 -0.0239065 -0.02389939 -0.0238913
 -0.02388169 -0.02386978 -0.02385536 -0.02383876 -0.02381999 -0.02379964 -0.02377775 -0.02375503 -0.02373157 -0.02370837
 -0.02368551 -0.02366403 -0.02364382 -0.02362525 -0.02360783 -0.02359082 -0.02357363 -0.02355507 -0.02353507 -0.02351292
 -0.0234895 -0.02346493 -0.0234407 -0.02341749 -0.02339618 -0.02337732 -0.02336045 -0.02334569 -0.02333159 -0.023318
 -0.0233036 -0.02328828 -0.02327101 -0.02325171 -0.0232289 -0.02320261 -0.02317192 -0.02313743 -0.02310087 -0.02306338
 -0.02302919 -0.0229987 -0.02297516 -0.02295713 -0.02294446 -0.02293445 -0.02292453 -0.02291308 -0.02289797 -0.02287994
 -0.02285862 -0.02283572 -0.02281179 -0.02278737 -0.02276272 -0.02273772 -0.02271236 -0.02268685 -0.02266119 -0.02263589
 -0.02261096 -0.02258656 -0.02256271 -0.02253948 -0.02251698 -0.02249573 -0.02247561 -0.02245682 -0.02243849 -0.02241909
 -0.02239786 -0.02237267 -0.02234457 -0.02231338 -0.02228141 -0.02225012 -0.02222089 -0.02219488 -0.02217195 -0.02215241
 -0.02213541 -0.02212107 -0.0221072 -0.02209375 -0.02207707 -0.02205689 -0.02203076 -0.02199869 -0.02196254 -0.02192273
 -0.0218838 -0.02184568 -0.02181068 -0.021778 -0.02174642 -0.02171535 -0.02168273 -0.02164909 -0.02161413 -0.02157888
 -0.02154429 -0.0215108 -0.02147918 -0.02144873 -0.02141937 -0.02139031 -0.02136126 -0.02133179 -0.02130175 -0.02127102
 -0.0212396 -0.02120727 -0.02117403 -0.02113995 -0.02110506 -0.02107017 -0.02103526 -0.02100081 -0.0209667 -0.02093265
 -0.02089852 -0.02086359 -0.02082797 -0.02079136 -0.02075421 -0.02071706 -0.02068 -0.02064354 -0.02060686 -0.02056977
 -0.0205309 -0.02048935 -0.02044509 -0.02039767 -0.02034863 -0.02029821 -0.02024775 -0.02019763 -0.02014722 -0.02009656
 -0.02004427 -0.0199903 -0.01993427 -0.01987621 -0.01981635 -0.01975463 -0.01969078 -0.01962477 -0.01955622 -0.0194855
 -0.01941304 -0.01933962 -0.01926646 -0.01919431 -0.01912457 -0.01905699 -0.01899222 -0.01892849 -0.0188655 -0.01880042
 -0.01873243 -0.01865909 -0.01857951 -0.01849362 -0.01840093 -0.0183048 -0.0182054 -0.01810691 -0.01800948 -0.01791405
 -0.01782035 -0.01772607 -0.01763135 -0.01753541 -0.01743915 -0.01734521 -0.0172538 -0.01716724 -0.01708379 -0.01700193
 -0.01692001 -0.01683513 -0.0167486 -0.01665985 -0.01657237 -0.01648778 -0.01640809 -0.01633438 -0.0162672 -0.01620685
 -0.01615355 -0.01610754 -0.01606742 -0.01603325 -0.01600076 -0.01596973 -0.01593538 -0.01589781 -0.01585607 -0.01581082
 -0.0157652 -0.01571925 -0.01567509 -0.01563145 -0.01558664 -0.01553952 -0.01548736 -0.01543053 -0.01536827 -0.01530162
 -0.01523167 -0.01515724 -0.01507867 -0.01499237 -0.01489694 -0.01479106 -0.01467339 -0.01454834 -0.01441611 -0.0142825
 -0.01414818 -0.01401446 -0.01388138 -0.01374737 -0.01361232 -0.01347464 -0.01333393 -0.01318743 -0.01303433 -0.01286996
 -0.01269522 -0.0125087 -0.01231442 -0.01211834 -0.01192219 -0.01173134 -0.01154225 -0.01135415 -0.0111634 -0.01096696
 -0.01076669 -0.01056186 -0.01035772 -0.01015548 -0.009957974 -0.009765967 -0.009579518 -0.009398731 -0.009222937 -0.009052097
 -0.008884961 -0.008721594 -0.008562127 -0.008407141 -0.008260224 -0.00812135 -0.007993084 -0.00787334 -0.007758774 -0.00764731
 -0.007532927 -0.007418282 -0.007302796 -0.007192863 -0.00709421 -0.00700734 -0.006935228 -0.006872301 -0.006816749 -0.006766581
 -0.006720211 -0.006681623 -0.006651257 -0.006631899 -0.006624065 -0.006625886 -0.006637283 -0.006656329 -0.006683188 -0.006719484
 -0.006765447 -0.006823612 -0.006893268 -0.006973363 -0.007062926 -0.007158895 -0.007261466 -0.007369332 -0.007483723 -0.007605771
 -0.007735649 -0.007874584 -0.008019999 -0.008171284 -0.008324864 -0.008479378 -0.00863233 -0.00878288 -0.00892968 -0.009072441
 -0.009210138 -0.009342615 -0.009469672 -0.009591289 -0.009708475 -0.009821303 -0.009930964 -0.01003749 -0.01014168 -0.01024355
 -0.01034355 -0.01044166 -0.01053809 -0.01063283 -0.0107259 -0.01081759 -0.01090809 -0.01099812 -0.01108827 -0.01117909
 -0.01127109 -0.01136436 -0.0114589 -0.01155527 -0.01165355 -0.01175447 -0.01185827 -0.01196444 -0.01207313 -0.01218124
 -0.01228862 -0.01239224 -0.01249213 -0.01258787 -0.0126799 -0.01277077 -0.01286059 -0.01295159 -0.01304257 -0.01313205
 -0.01321833 -0.01329745 -0.01336966 -0.01343334 -0.01349021 -0.01354132 -0.01358735 -0.01362914 -0.01366637 -0.01369875
 -0.01372757 -0.01375276 -0.01377725 -0.01380157 -0.01382739 -0.0138552 -0.01388228 -0.01390851 -0.01392897 -0.01394356
 -0.01394993 -0.01394839 -0.01393955 -0.01392383 -0.01390282 -0.01387748 -0.0138507 -0.0138239 -0.01380094 -0.01378226
 -0.01377034 -0.01376365 -0.01376218 -0.01376305 -0.01376468 -0.01376492 -0.01376232 -0.01375689 -0.0137482 -0.01373744
 -0.01372473 -0.01371124 -0.01369715 -0.01368294 -0.01366867 -0.01365326 -0.01363659 -0.0136165 -0.01359314 -0.01356591
 -0.01353593 -0.01350696 -0.01348056 -0.01346298 -0.01345406 -0.01345699 -0.01346924 -0.01348902 -0.01351407 -0.01354142
 -0.0135714 -0.01360316 -0.01363832 -0.01367755 -0.01372115 -0.01376965 -0.01382135 -0.01387609 -0.01393196 -0.0139886
 -0.01404651 -0.01410568 -0.01416771 -0.01423253 -0.01429962 -0.01436842 -0.01443503 -0.01449885 -0.01455518 -0.01460433
 -0.01464435 -0.01467667 -0.01470299 -0.0147244 -0.01474304 -0.01475906 -0.01477363 -0.01478556 -0.01479477 -0.01479932
 -0.01479848 -0.01479072 -0.01477523 -0.01475252 -0.01472244 -0.01468652 -0.01464496 -0.01459831 -0.01454665 -0.0144887
 -0.01442444 -0.01435292 -0.01427465 -0.01419263 -0.0141078 -0.01402592 -0.01394708 -0.0138747 -0.01380782 -0.01374631
 -0.01368907 -0.01363468 -0.01358245 -0.01353141 -0.01348085 -0.0134301 -0.01337866 -0.01332591 -0.01327261 -0.01321869
 -0.01316559 -0.01311372 -0.01306292 -0.01301337 -0.01296317 -0.01291221 -0.01285905 -0.01280373 -0.01274699 -0.01268901
 -0.01263157 -0.0125745 -0.01251824 -0.01246184 -0.01240316 -0.01234094 -0.01227169 -0.01219498 -0.01210856 -0.0120134
 -0.01190979 -0.011798 -0.01167881 -0.01155033 -0.01141192 -0.01126221 -0.01109989 -0.01092832 -0.01074738 -0.01056346
 -0.01037736 -0.0101928 -0.01001017 -0.009829155 -0.009649853 -0.009473671 -0.009301662 -0.009142501 -0.00899783 -0.00887964
 -0.008788225 -0.008730757 -0.008706248 -0.008716053 -0.008759421 -0.008836002 -0.008944987 -0.009086035 -0.009256911 -0.009456992
 -0.009681587 -0.009929336 -0.0101938 -0.01047339 -0.01076132 -0.01105641 -0.01135197 -0.01164738 -0.01193475 -0.01221355
 -0.01247594 -0.0127216 -0.01294626 -0.0131502 -0.01333379 -0.01349738 -0.01364274 -0.01376994 -0.01387984 -0.01397305
 -0.01405081 -0.01411449 -0.01416625 -0.01420755 -0.01424023 -0.01426599 -0.01428585 -0.01430291 -0.01431832 -0.01433604
 -0.01435771 -0.01438466 -0.01441792 -0.01445449 -0.01449432 -0.01453271 -0.01456925 -0.01460184 -0.01463037 -0.01465411
 -0.01467282 -0.01468425 -0.01468804 -0.01468081 -0.01466347 -0.01463625 -0.01460174 -0.0145648 -0.01452838 -0.01449867
 -0.01447708 -0.01446764 -0.01446905 -0.01448255 -0.01450334 -0.01453038 -0.01455673 -0.01458017 -0.0145956 -0.01460097
 -0.01459764 -0.01458501 -0.01456965 -0.01455197 -0.01453781 -0.01452732 -0.01452094 -0.0145183 -0.01451624 -0.01451458
 -0.01451072 -0.01450494 -0.01449682 -0.01448652 -0.0144741 -0.01445974 -0.01444336 -0.01442627 -0.01440925 -0.01439483
 -0.01438492 -0.01438126 -0.01438573 -0.01439664 -0.01441457 -0.01443435 -0.01445514 -0.01447231 -0.0144849 -0.01449204
 -0.01449346 -0.01449141 -0.01448602 -0.01447995 -0.01447323 -0.01446729 -0.01446213 -0.01445855 -0.01445643 -0.014456
 -0.01445679 -0.01445797 -0.01445905 -0.01445891 -0.01445753 -0.01445447 -0.01444981 -0.01444373 -0.01443539 -0.01442467
 -0.01440992 -0.01439039 -0.01436586 -0.01433578 -0.01430266 -0.01426665 -0.01423089 -0.01419577 -0.0141608 -0.01412589
 -0.01408638 -0.01404213 -0.01398961 -0.01392969 -0.01386464 -0.01379604 -0.01373015 -0.01366763 -0.01361324 -0.01356601
 -0.01352668 -0.01349369 -0.01346569 -0.01344143 -0.0134198 -0.01339951 -0.01337969 -0.01335955 -0.01333848 -0.01331699
 -0.01329494 -0.01327383 -0.01325388 -0.013236 -0.01322034 -0.01320649 -0.01319443 -0.01318328 -0.01317299 -0.01316267
 -0.01315222 -0.01314057 -0.01312775 -0.01311316 -0.01309721 -0.01308045 -0.01306342 -0.01304735 -0.01303198 -0.01301792
 -0.01300351 -0.0129879 -0.01296939 -0.01294655 -0.01291987 -0.0128887 -0.01285608 -0.01282239 -0.01279098 -0.01276244
 -0.01273823 -0.01271852 -0.01270406 -0.01269491 -0.01269261 -0.01269709 -0.01270848 -0.01272602 -0.01274571 -0.01276659
 -0.0127828 -0.012795 -0.0128013 -0.01280409 -0.01280629 -0.01280964 -0.01281752 -0.01282944 -0.01284639 -0.01286663
 -0.01288971 -0.01291366 -0.01293786 -0.0129602 -0.01298007 -0.01299629 -0.01300822 -0.01301847 -0.01302708 -0.01303837
 -0.01305255 -0.01306998 -0.01309033 -0.01310964 -0.01312767 -0.01314087 -0.01314993 -0.01315541 -0.01315785 -0.013159
 -0.01315823 -0.01315548 -0.01314965 -0.0131394 -0.01312441 -0.0131039 -0.01307812 -0.013047 -0.01301089 -0.01296974
 -0.0129247 -0.01287592 -0.01282496 -0.01277212 -0.01271819 -0.01266334 -0.01260693 -0.01254893 -0.0124883 -0.01242503
 -0.01235863 -0.01228929 -0.01221773 -0.0121444 -0.01207107 -0.01199843 -0.01192888 -0.01186301 -0.01180293 -0.0117486
 -0.01170123 -0.01165932 -0.0116226 -0.01158823 -0.0115548 -0.01151972 -0.0114813 -0.01144015 -0.01139564 -0.01135133
 -0.01130762 -0.01126788 -0.01123262 -0.01120202 -0.01117614 -0.01115244 -0.01113071 -0.01110785 -0.01108372 -0.01105597
 -0.01102489 -0.0109901 -0.01095245 -0.01091377 -0.01087464 -0.0108373 -0.01080068 -0.01076469 -0.01072754 -0.01068741
 -0.01064445 -0.01059772 -0.01054968 -0.01050117 -0.01045353 -0.01040776 -0.01036168 -0.01031514 -0.01026564 -0.01021271
 -0.01015754 -0.01010013 -0.01004448 -0.009990678 -0.009940831 -0.009894532 -0.009850237 -0.009807568 -0.009764068 -0.009720204
 -0.009675722 -0.009631616 -0.009589663 -0.009549963 -0.009513826 -0.009479566 -0.009446326 -0.009412507 -0.009376431 -0.009339312
 -0.009300791 -0.009264068 -0.009230211 -0.009199762 -0.009173585 -0.009146875 -0.00911934 -0.00908571 -0.009045611 -0.008999139
 -0.008946501 -0.008891213 -0.008833296 -0.008774505 -0.008714722 -0.008654062 -0.008593246 -0.008534207 -0.008477454 -0.008425361
 -0.008376366 -0.008329418 -0.008283492 -0.008235881 -0.008191144 -0.008150228 -0.00812013 -0.00810496 -0.008103986 -0.008119328
 -0.00814085 -0.008167183 -0.008190316 -0.008208686 -0.00822471 -0.008238398 -0.008255695 -0.008276556 -0.008300579 -0.008327035
 -0.008350444 -0.008370866 -0.008385294 -0.008395032 -0.008401902 -0.008407025 -0.008413336 -0.00842103 -0.008431547 -0.008444622
 -0.008460676 -0.008478816 -0.0084992 -0.00851903 -0.008537419 -0.008551539 -0.008559754 -0.008564165 -0.00856421 -0.008566914
 -0.008573013 -0.008587324 -0.008610306 -0.008639274 -0.008673986 -0.008709437 -0.008746072 -0.008784494 -0.008825849 -0.008875291
 -0.00893307 -0.009002753 -0.009083307 -0.009174653 -0.009275421 -0.009384222 -0.00949901 -0.009618134 -0.00973833 -0.009857473
 -0.00997257 -0.01008167 -0.01018424 -0.01027956 -0.01036879 -0.01045193 -0.01053069 -0.01060525 -0.01067662 -0.01074486
 -0.01081046 -0.01087337 -0.0109328 -0.01098851 -0.01103853 -0.01108255 -0.01111805 -0.01114507 -0.01116212 -0.01117007
 -0.0111695 -0.0111621 -0.01115012 -0.01113512 -0.01111898 -0.01110332 -0.01108916 -0.01107923 -0.01107475 -0.01107818
 -0.01109123 -0.0111113 -0.01113901 -0.01116625 -0.01119228 -0.01120977 -0.01121805 -0.01121625 -0.01120455 -0.0111873
 -0.01116483 -0.01114188 -0.01111825 -0.01109591 -0.01107407 -0.01105164 -0.01102801 -0.01100112 -0.0109718 -0.01093975
 -0.01090745 -0.01087682 -0.01085051 -0.01083109 -0.01081878 -0.01081518 -0.01081609 -0.01082139 -0.01082382 -0.01082197
 -0.01081093 -0.01078936 -0.01076051 -0.01072431 -0.01068992 -0.01065765 -0.01063272 -0.01061437 -0.01059885 -0.01058509
 -0.01056583 -0.01054182 -0.01051087 -0.01047533 -0.01043873 -0.01040267 -0.01037123 -0.01034371 -0.01032137 -0.01030178
 -0.01028381 -0.01026551 -0.0102453 -0.01022409 -0.01020148 -0.0101804 -0.01016148 -0.01014618 -0.01013513 -0.01012532
 -0.01011666 -0.01010424 -0.0100879 -0.01006565 -0.01003791 -0.0100072 -0.009974072 -0.009942559 -0.009912624 -0.009886383
 -0.009863212 -0.009842941 -0.009824857 -0.009807748 -0.009791664 -0.009775816 -0.009761723 -0.009749983 -0.009742346 -0.009740449
 -0.009742411 -0.009748959 -0.009753514 -0.009754974 -0.009747884 -0.009730891 -0.009705923 -0.009672858 -0.009638052 -0.009601723
 -0.00956641 -0.009531735 -0.009495023 -0.009456472 -0.009415254 -0.009372672 -0.009332478 -0.009294976 -0.009263135 -0.009235236
 -0.009210059 -0.009186283 -0.009161273 -0.009137259 -0.00911417 -0.009096696 -0.009087273 -0.009087785 -0.009100567 -0.009120166
 -0.009147 -0.009169229 -0.009185461 -0.009186178 -0.009170163 -0.009139431 -0.009094295 -0.009046494 -0.00899657 -0.008954695
 -0.008919913 -0.008893054 -0.008872692 -0.008854625 -0.008838808 -0.008823218 -0.008808102 -0.008793602 -0.008778119 -0.00876049
 -0.00873831 -0.008708983 -0.008673191 -0.008629689 -0.008583173 -0.008534485 -0.008489022 -0.008448362 -0.008414087 -0.008387036
 -0.00836378 -0.008344223 -0.008323158 -0.008300381 -0.008274153 -0.00824488 -0.008215957 -0.008187764 -0.008164291 -0.008144888
 -0.008129876 -0.008117862 -0.008105993 -0.008093514 -0.008077963 -0.008059509 -0.008037513 -0.008012052 -0.007982899 -0.007950488
 -0.007914642 -0.007877019 -0.007837838 -0.007799686 -0.007763359 -0.007729335 -0.007698013 -0.007667312 -0.007637106 -0.007605419
 -0.00757219 -0.007538225 -0.007503728 -0.007471179 -0.007440586 -0.007413428 -0.007389282 -0.007367688 -0.007347998 -0.007328812
 -0.007309162 -0.007287304 -0.007261769 -0.007230153 -0.007192342 -0.007146228 -0.007096605 -0.007044026 -0.006997171 -0.006959307
 -0.00693503 -0.006927365 -0.006929764 -0.006942543 -0.006952516 -0.00695845 -0.006953219 -0.006936537 -0.006912911 -0.006882938
 -0.006855074 -0.006828884 -0.00680691 -0.006787224 -0.006764547 -0.006738087 -0.006702511 -0.006660501 -0.006612977 -0.006564894
 -0.006522393 -0.006487115 -0.006463819 -0.006446979 -0.006435993 -0.006422525 -0.006402527 -0.006375619 -0.006339528 -0.006304116
 -0.006270375 -0.00624733 -0.006236414 -0.006234306 -0.006240813 -0.006243553 -0.006242159 -0.006228129 -0.00620255 -0.006166762
 -0.006122476 -0.0060761 -0.006028633 -0.005985532 -0.00594681 -0.005915011 -0.005889321 -0.005870142 -0.005855625 -0.00584462
 -0.00583545 -0.005826915 -0.005818308 -0.005809413 -0.005798686 -0.005786109 -0.005768375 -0.005744943 -0.005713759 -0.005674331
 -0.005629476 -0.005579335 -0.00552966 -0.005480565 -0.005435173 -0.005393031 -0.005352987 -0.005314889 -0.005277243 -0.005241036
 -0.005207736 -0.00517842 -0.005155913 -0.005139511 -0.005130097 -0.005124986 -0.005122721 -0.005120267 -0.005115773 -0.005106986
 -0.005092688 -0.005071734 -0.005043181 -0.005009077 -0.004969032 -0.004929517 -0.004891052 -0.00485945 -0.004835055 -0.004815447
 -0.004800127 -0.004781402 -0.004759604 -0.004732488 -0.004701568 -0.004671691 -0.004642574 -0.004616659 -0.004591325 -0.004562588
 -0.004530645 -0.004492565 -0.004454121 -0.004418795 -0.004391231 -0.004376538 -0.004370605 -0.004374191 -0.004378201 -0.004379976
 -0.004376413 -0.004365769 -0.004353945 -0.00434137 -0.004332772 -0.004328481 -0.004322654 -0.004314589 -0.00429241 -0.004256677
 -0.004203933 -0.004137245 -0.004065957 -0.003992536 -0.003928338 -0.003872338 -0.003828283 -0.003793424 -0.003766086 -0.003743843
 -0.003724904 -0.003705447 -0.003683239 -0.003654571 -0.003615859 -0.003572622 -0.003523306 -0.003485865 -0.003463728 -0.003464493
 -0.003490754 -0.003525712 -0.003568563 -0.003600566 -0.003621472 -0.003624594 -0.003611212 -0.003585599 -0.003549695 -0.00351305
 -0.003476528 -0.003447449 -0.003424689 -0.00340992 -0.003400997 -0.003396286 -0.003393379 -0.003390102 -0.003383888 -0.00337267
 -0.003355214 -0.003330234 -0.003298884 -0.003261041 -0.003218782 -0.003172416 -0.003123427 -0.003071856 -0.003020351 -0.002969029
 -0.002923401 -0.002883697 -0.002854544 -0.00283545 -0.002825687 -0.002824107 -0.002826034 -0.002830455 -0.002832877 -0.002831878
 -0.002822791 -0.002805288 -0.002775345 -0.002738698 -0.002697492 -0.002660681 -0.002636614 -0.002620984 -0.002617212 -0.002606237
 -0.002582514 -0.002538254 -0.002467982 -0.002392817 -0.002313488 -0.00225913 -0.002231894 -0.002236003 -0.002270335 -0.002313918
 -0.002365459 -0.002405748 -0.002435853 -0.002449938 -0.002449421 -0.002434303 -0.002407181 -0.002371403 -0.002332274 -0.002297552
 -0.002271192 -0.002260845 -0.002262738 -0.002278175 -0.002298159 -0.002318864 -0.002336313 -0.002347634 -0.002357007 -0.002364931
 -0.002373889 -0.00238493 -0.002390712 -0.002390882 -0.002376226 -0.002347006 -0.002308112 -0.002261791 -0.002227544 -0.002205367
 -0.002208071 -0.002228895 -0.002257463 -0.002285349 -0.002290112 -0.002273336 -0.002224562 -0.002157782 -0.002081346 -0.002007222
 -0.001947539 -0.001899254 -0.001865768 -0.001834707 -0.001802715 -0.001763678 -0.001714542 -0.001662164 -0.001606252 -0.001560981
 -0.001527288 -0.001515576 -0.001525738 -0.00155427 -0.00159905 -0.001642437 -0.001682931 -0.0017033 -0.001706865 -0.001692588
 -0.001667106 -0.001643222 -0.001622924 -0.001616257 -0.001616315 -0.001621199 -0.001622203 -0.001611817 -0.001590501 -0.001554033
 -0.001515492 -0.001476236 -0.001454184 -0.001453345 -0.001482946 -0.001546206 -0.00163029 -0.00173518 -0.001827903 -0.001906938
 -0.001943782 -0.00194034 -0.001897338 -0.001820057 -0.001732073 -0.001635908 -0.001551448 -0.001476531 -0.001415945 -0.001367863
 -0.001331145 -0.001306429 -0.001294366 -0.001294057 -0.001305904 -0.001326297 -0.001353689 -0.001385986 -0.001421932 -0.001462351
 -0.001507467 -0.001556553 -0.001610114 -0.001661651 -0.001710907 -0.001747264 -0.001770548</values></Ydata></AB><ScSm><Ydata ylabel="Single channel"><values byteorder="INTEL" format="FLOAT32" numvalues="1814"> 0.07786693 0.07796025 0.07807346 0.07820921 0.07835616 0.0784999 0.07863235 0.07875353 0.07886526 0.07896441
 0.07904873 0.07913017 0.07923207 0.07936624 0.07951903 0.07966189 0.07977327 0.07985691 0.07994308 0.08005996
 0.08019458 0.08029224 0.08030671 0.0802509 0.08019085 0.0801869 0.08025293 0.08038758 0.08061395 0.08092229
 0.08118558 0.08123916 0.08108565 0.08092791 0.08094482 0.08111206 0.0812825 0.08135084 0.08129641 0.08117093
 0.08112012 0.081337 0.08188608 0.082561 0.0829488 0.08266731 0.08161934 0.0801326 0.07888289 0.07853939
 0.0792794 0.08058922 0.08165132 0.08200527 0.08179437 0.08140972 0.08108346 0.08088929 0.08092573 0.08129578
 0.08193684 0.08255592 0.0827466 0.08225591 0.08127201 0.08038939 0.08012463 0.08051543 0.08130358 0.08224596
 0.08288476 0.0823171 0.07999562 0.07694209 0.07542728 0.07687236 0.08036019 0.08358773 0.08496302 0.08444756
 0.08288682 0.08126439 0.08044206 0.0808679 0.08228558 0.08398763 0.08537455 0.08611363 0.08599471 0.08503166
 0.08365534 0.08252738 0.08217286 0.08283179 0.08436262 0.08609105 0.08707858 0.08686186 0.08580017 0.08461051
 0.08384036 0.08384131 0.08479606 0.08650179 0.08838852 0.08993985 0.09096183 0.09147117 0.09156831 0.09141515
 0.09115589 0.09089686 0.09081592 0.09107052 0.09148732 0.09159908 0.0911651 0.09049841 0.0901494 0.09033896
 0.09076978 0.09098547 0.0908231 0.09032874 0.08929323 0.08735257 0.08473451 0.0823783 0.08101861 0.08066949
 0.08121797 0.08273447 0.08475277 0.08605303 0.08588976 0.0850004 0.08480916 0.08588696 0.08759269 0.08900173
 0.08980317 0.09034852 0.0911051 0.09212835 0.09293346 0.09285696 0.09173663 0.09032887 0.08980514 0.0906195
 0.09206614 0.0931434 0.09360267 0.09391251 0.09442994 0.09488377 0.09461539 0.09328706 0.09147162 0.09045003
 0.09115553 0.09324819 0.0952929 0.09584317 0.0944688 0.09198857 0.08978686 0.0888213 0.08925056 0.09082866
 0.09324589 0.09598227 0.09822871 0.09929651 0.09909198 0.0980964 0.09684167 0.09541374 0.09364456 0.09188947
 0.09123068 0.09246592 0.09508573 0.09767999 0.09923857 0.09971018 0.09943108 0.09844409 0.09658971 0.09421259
 0.09247714 0.09250461 0.09409508 0.09577855 0.09637664 0.09610431 0.09589906 0.09614147 0.09645037 0.09646821
 0.09639823 0.09671599 0.0975607 0.09855585 0.09920666 0.09935378 0.09920457 0.09903954 0.09894562 0.09876791
 0.09834848 0.09788503 0.09790835 0.0987232 0.09999773 0.1010974 0.1017093 0.1019628 0.1020414 0.101874
 0.1012576 0.1002551 0.09938496 0.09925235 0.09996068 0.1010332 0.1019191 0.102404 0.1025527 0.1024994
 0.1023587 0.1021985 0.1020541 0.102004 0.102155 0.1024983 0.1028688 0.1031078 0.1031926 0.1031755
 0.1030784 0.1028962 0.1026649 0.1024823 0.102446 0.102575 0.1028055 0.1030555 0.1032601 0.1033612
 0.1033281 0.1031995 0.1030592 0.1029606 0.1029075 0.1028992 0.1029516 0.1030637 0.1031942 0.1032903
 0.1033306 0.1033283 0.103302 0.1032582 0.1032029 0.1031544 0.1031385 0.1031715 0.1032432 0.1033227
 0.1033964 0.1034869 0.1036085 0.1037189 0.1037565 0.1037187 0.1036667 0.1036588 0.1037044 0.1037776
 0.1038461 0.1038809 0.1038585 0.1037774 0.1036813 0.1036462 0.1037236 0.1039035 0.1041404 0.1043906
 0.1046134 0.1047746 0.104875 0.1049503 0.1050275 0.1050999 0.1051535 0.1051981 0.1052688 0.1054001
 0.1055933 0.1058082 0.1059963 0.106135 0.1062312 0.1063123 0.1064176 0.1065652 0.1067167 0.10681
 0.1068403 0.1068733 0.1069661 0.1071014 0.107216 0.1072747 0.1073016 0.107345 0.1074266 0.1075287
 0.1076248 0.1077114 0.1078093 0.1079333 0.1080609 0.1081389 0.1081353 0.1080791 0.1080318 0.1080251
 0.1080475 0.1080864 0.1081493 0.1082378 0.1083237 0.10837 0.1083694 0.1083519 0.1083509 0.1083663
 0.1083673 0.1083297 0.1082617 0.1081921 0.1081429 0.1081152 0.1080936 0.1080611 0.1080102 0.1079437
 0.1078677 0.1077863 0.1077005 0.1076156 0.1075507 0.1075317 0.1075554 0.1075662 0.1074923 0.1073145
 0.1070881 0.10689 0.1067538 0.1066563 0.1065517 0.1064125 0.1062448 0.106074 0.1059202 0.105786
 0.1056617 0.1055403 0.1054275 0.1053418 0.1052969 0.105276 0.1052331 0.1051327 0.1049869 0.1048417
 0.1047328 0.1046626 0.1046146 0.1045731 0.1045348 0.104511 0.1045137 0.1045328 0.1045392 0.1045181
 0.1044889 0.1044854 0.1045288 0.1046198 0.1047383 0.1048458 0.1049099 0.1049369 0.1049676 0.1050353
 0.1051388 0.1052594 0.1053873 0.1055253 0.1056757 0.1058368 0.1060088 0.1061965 0.1064054 0.1066352
 0.1068772 0.1071178 0.1073487 0.1075765 0.1078204 0.1080959 0.1084003 0.1087141 0.1090186 0.1093093
 0.1095943 0.1098806 0.110169 0.1104621 0.1107696 0.1110986 0.1114428 0.1117896 0.1121334 0.1124783
 0.1128272 0.1131771 0.1135232 0.1138679 0.1142248 0.1146083 0.1150127 0.1154046 0.1157495 0.1160474
 0.1163344 0.1166492 0.1170033 0.1173776 0.1177368 0.1180545 0.1183363 0.1186166 0.1189234 0.1192511
 0.1195785 0.1199057 0.120259 0.1206531 0.12106 0.1214245 0.1217141 0.121951 0.1221887 0.1224564
 0.1227353 0.1229912 0.1232207 0.1234501 0.123699 0.1239616 0.1242297 0.1245124 0.1248193 0.125135
 0.1254286 0.1256865 0.1259208 0.1261479 0.1263662 0.1265588 0.1267119 0.1268339 0.1269562 0.1271076
 0.1272859 0.1274643 0.1276285 0.1277928 0.1279782 0.1281891 0.1284198 0.128671 0.1289444 0.1292285
 0.1295083 0.1297888 0.1300921 0.1304194 0.1307326 0.1309914 0.1312003 0.1313983 0.1316122 0.1318425
 0.1320904 0.132371 0.1326907 0.1330323 0.1333686 0.1336856 0.133993 0.1343153 0.134666 0.135023
 0.135341 0.1355948 0.1358058 0.1360211 0.1362741 0.1365677 0.1368837 0.1372006 0.1375036 0.1377806
 0.1380142 0.1381864 0.1382997 0.1383798 0.1384462 0.138484 0.1384535 0.1383252 0.1380916 0.1377479
 0.1372778 0.1366702 0.135949 0.1351848 0.1344784 0.1339316 0.1336206 0.1335838 0.1338208 0.1342932
 0.1349265 0.1356211 0.1362721 0.1367854 0.1370823 0.1371084 0.1368513 0.1363479 0.1356637 0.134865
 0.1340062 0.1331303 0.1322727 0.1314794 0.1308354 0.1304687 0.1305153 0.1310692 0.1321501 0.133686
 0.1355089 0.1373929 0.1391379 0.1406443 0.1419183 0.1430168 0.1439945 0.1448906 0.145734 0.1465415
 0.1473128 0.1480403 0.1487232 0.1493666 0.1499684 0.1505139 0.1509823 0.1513562 0.1516288 0.1518097
 0.1519208 0.1519845 0.1520177 0.1520352 0.1520454 0.152031 0.151944 0.1517286 0.1513563 0.1508462
 0.1502727 0.1497678 0.149512 0.1496916 0.1504216 0.151674 0.153275 0.1549842 0.1565956 0.1579877
 0.1591168 0.1599982 0.1606872 0.1612526 0.1617489 0.1622077 0.1626436 0.1630615 0.1634609 0.1638417
 0.1642092 0.1645719 0.1649387 0.1653149 0.1656971 0.1660748 0.1664403 0.1667979 0.1671612 0.1675397
 0.1679283 0.1683123 0.1686845 0.1690547 0.1694341 0.1698168 0.1701847 0.1705301 0.1708641 0.1712035
 0.1715579 0.171928 0.1723044 0.17267 0.1730114 0.173331 0.1736428 0.1739567 0.1742716 0.1745824
 0.1748871 0.175187 0.1754833 0.175777 0.1760702 0.1763663 0.1766652 0.1769602 0.1772428 0.1775118
 0.1777759 0.1780446 0.1783205 0.1785992 0.1788766 0.1791542 0.1794365 0.1797246 0.1800112 0.1802863
 0.1805465 0.1807989 0.1810548 0.1813197 0.1815903 0.1818613 0.1821308 0.1824006 0.1826705 0.1829394
 0.1832076 0.183476 0.1837428 0.1840053 0.1842642 0.184523 0.1847831 0.1850438 0.185305 0.1855693
 0.1858394 0.1861144 0.1863875 0.1866499 0.1868977 0.1871348 0.18737 0.1876107 0.1878601 0.1881158
 0.1883721 0.1886254 0.1888752 0.1891229 0.18937 0.1896178 0.1898679 0.1901205 0.1903738 0.1906249
 0.1908735 0.1911248 0.1913847 0.1916514 0.1919152 0.1921685 0.1924129 0.1926546 0.1928978 0.1931432
 0.1933899 0.1936376 0.1938866 0.1941368 0.1943871 0.1946373 0.1948888 0.1951409 0.1953906 0.195637
 0.1958836 0.1961333 0.1963845 0.1966333 0.1968787 0.1971249 0.1973763 0.197631 0.1978816 0.1981248
 0.198365 0.1986077 0.1988539 0.1991025 0.1993537 0.1996076 0.1998626 0.2001162 0.2003658 0.2006112
 0.200856 0.2011038 0.2013555 0.2016099 0.2018652 0.2021185 0.202368 0.2026162 0.2028667 0.2031202
 0.2033768 0.203637 0.2038987 0.2041588 0.204418 0.2046796 0.2049454 0.2052161 0.2054906 0.2057638
 0.2060297 0.2062888 0.2065451 0.2068002 0.2070529 0.207302 0.2075444 0.2077789 0.2080099 0.2082443
 0.2084833 0.2087241 0.2089641 0.2092025 0.2094419 0.2096878 0.2099407 0.2101947 0.2104468 0.2107006
 0.2109589 0.2112203 0.2114834 0.211747 0.21201 0.2122744 0.2125433 0.2128147 0.2130845 0.2133541
 0.2136259 0.2138977 0.2141678 0.2144379 0.2147085 0.2149797 0.2152544 0.215533 0.2158112 0.2160871
 0.2163624 0.2166364 0.2169101 0.2171895 0.2174765 0.217763 0.2180429 0.2183183 0.2185914 0.2188642
 0.2191407 0.2194208 0.2196993 0.2199775 0.2202611 0.220549 0.2208375 0.2211283 0.22142 0.221707
 0.2219908 0.2222766 0.2225592 0.2228323 0.2231012 0.2233722 0.2236428 0.223912 0.2241801 0.2244364
 0.2246592 0.2248005 0.2247263 0.2241492 0.2225875 0.2193716 0.2137716 0.2052846 0.1939325 0.1803532
 0.1656278 0.1509448 0.137274 0.1252293 0.1151402 0.1071791 0.1014504 0.09806897 0.0972221 0.09925932
 0.1048128 0.11442 0.127134 0.139327 0.1460505 0.1447821 0.1377115 0.1297553 0.1245575 0.1227068
 0.1229769 0.1241549 0.1257578 0.1278967 0.1308619 0.1346928 0.1391312 0.1440388 0.1496456 0.1561924
 0.1634593 0.1708407 0.1778513 0.1844406 0.1908192 0.1970817 0.2030585 0.2084786 0.2131804 0.217166
 0.2205453 0.2234692 0.226072 0.2284379 0.2306158 0.2326311 0.2344496 0.235958 0.237029 0.2376251
 0.2378459 0.2378806 0.2379036 0.2380024 0.2381921 0.2384684 0.2388258 0.2392507 0.2397281 0.2402481
 0.2407968 0.2413538 0.2419054 0.242447 0.2429748 0.2434846 0.2439736 0.2444368 0.2448712 0.2452819
 0.2456768 0.2460585 0.2464302 0.2467967 0.2471583 0.247512 0.2478594 0.2482024 0.2485342 0.2488461
 0.249136 0.2494081 0.2496701 0.2499311 0.250194 0.2504557 0.250715 0.2509739 0.2512294 0.2514775
 0.2517216 0.2519684 0.252217 0.2524619 0.2527002 0.2529317 0.2531593 0.2533877 0.2536196 0.2538525
 0.2540862 0.2543235 0.2545645 0.2548041 0.2550392 0.2552707 0.2555035 0.2557468 0.2560053 0.2562719
 0.2565353 0.2567948 0.2570572 0.2573254 0.257598 0.2578745 0.258154 0.2584331 0.2587094 0.2589812
 0.2592427 0.2594863 0.2597113 0.2599258 0.2601421 0.2603685 0.2606043 0.2608429 0.2610804 0.2613187
 0.2615592 0.2618014 0.2620445 0.2622872 0.2625284 0.2627732 0.2630311 0.2633054 0.26359 0.2638785
 0.2641687 0.2644585 0.264746 0.2650332 0.2653214 0.2656051 0.2658772 0.2661417 0.2664174 0.2667252
 0.2670656 0.2674125 0.2677372 0.2680379 0.2683364 0.2686513 0.2689853 0.2693232 0.2696335 0.2698873
 0.2700983 0.2703282 0.2706345 0.2710169 0.2714255 0.2718115 0.2721607 0.2724857 0.2728007 0.2731054
 0.2733884 0.273641 0.273872 0.2741175 0.2744205 0.2747891 0.2751822 0.2755517 0.2758832 0.2761875
 0.276476 0.2767557 0.2770179 0.2772227 0.2773387 0.2774194 0.2775975 0.2779635 0.2784678 0.2789722
 0.2793868 0.2797243 0.2800351 0.2803377 0.2806261 0.2808772 0.2810157 0.2809548 0.2807549 0.2806764
 0.2809674 0.2816139 0.2823707 0.2830085 0.2834629 0.2837881 0.2840593 0.2843231 0.2845659 0.2847115
 0.2847025 0.2846211 0.2846799 0.2850252 0.2855715 0.286097 0.2864793 0.286765 0.2870424 0.2873421
 0.2876223 0.2877513 0.2875624 0.2870809 0.286678 0.2868304 0.2876576 0.2887839 0.2897128 0.2902703
 0.2906079 0.2908537 0.2909243 0.2906821 0.2901082 0.2893085 0.288553 0.288314 0.2889594 0.2902788
 0.2915699 0.2923388 0.2927233 0.2931409 0.2937487 0.2943753 0.2948039 0.2949675 0.294918 0.2947022
 0.2943373 0.2939544 0.2938818 0.2944142 0.2954702 0.2966134 0.2974606 0.2979808 0.2983226 0.2983745
 0.2976532 0.2958792 0.2937302 0.2926676 0.2936406 0.2960868 0.2985395 0.3000762 0.3008234 0.3012686
 0.3016251 0.3017731 0.3012528 0.2994155 0.2963053 0.2934305 0.29285 0.2951459 0.2987734 0.3015569
 0.3023498 0.3012714 0.2991605 0.2971885 0.2964394 0.2973196 0.2993878 0.301804 0.3038343 0.3050535
 0.3053721 0.3049908 0.3043167 0.3038581 0.3039043 0.3040905 0.3036253 0.3023174 0.3009428 0.3000513
 0.2989624 0.2968821 0.2946776 0.2943406 0.2965222 0.2995883 0.3015121 0.3019483 0.3018681 0.3016022
 0.3000447 0.2961148 0.2907637 0.2869447 0.2870834 0.290652 0.2946903 0.2967152 0.2966852 0.2961469
 0.2960643 0.2958018 0.2940688 0.2907418 0.2875751 0.2866331 0.2879783 0.2895798 0.2895616 0.2875264
 0.283581 0.2778567 0.2720391 0.2696871 0.2730952 0.2804343 0.2873662 0.2907876 0.2898011 0.2844208
 0.2758918 0.2680357 0.2655339 0.2696068 0.2765856 0.2814598 0.2818263 0.2779958 0.2709541 0.2619285
 0.2534387 0.2489846 0.2508163 0.25812 0.2671736 0.2729614 0.2717363 0.2640203 0.2553439 0.2520841
 0.2554718 0.2607817 0.2628894 0.2610921 0.2580411 0.2561328 0.2561858 0.2578923 0.260169 0.2620116
 0.2632677 0.263222 0.2591772 0.2494403 0.2377728 0.2313934 0.2335328 0.2408376 0.248846 0.2564783
 0.2635337 0.2674683 0.2661059 0.2619476 0.260572 0.2646801 0.271522 0.2764085 0.2774709 0.2764203
 0.275434 0.2745563 0.2727857 0.2708865 0.2714213 0.275557 0.2812307 0.2853865 0.2870407 0.287281
 0.2872118 0.287025 0.2865704 0.2858152 0.2848039 0.2836744 0.2826461 0.2817804 0.2809355 0.2800475
 0.2790509 0.2772564 0.2734134 0.2673346 0.2612726 0.2583601 0.2593215 0.2620269 0.2645572 0.2665869
 0.2668141 0.2619174 0.250894 0.2389365 0.2338569 0.2385386 0.2486426 0.2574787 0.261293 0.2597325
 0.2535832 0.2444034 0.2361079 0.234284 0.2418848 0.2561377 0.2710421 0.2824498 0.2896357 0.2929572
 0.2922545 0.2880448 0.2828617 0.2802533 0.2823466 0.2884526 0.2955936 0.2998873 0.2982364 0.2908787
 0.2830793 0.2819467 0.2893816 0.2995499 0.3053198 0.305729 0.3049433 0.3056399 0.3067129 0.3069379
 0.3075404 0.3101366 0.3140808 0.317003 0.3169334 0.3131304 0.3060687 0.298008 0.2926364 0.292155
 0.2948539 0.2970802 0.2969911 0.2945853 0.2894055 0.2815396 0.274501 0.2733422 0.2789105 0.286563
 0.2914594 0.2930702 0.2936762 0.2942693 0.2933853 0.2895547 0.2839056 0.2796762 0.2790342 0.2810273
 0.2831438 0.2840337 0.2837197 0.2820225 0.2785639 0.2744433 0.2723919 0.2743542 0.2794177 0.284711
 0.2880503 0.2892772 0.2894226 0.2893762 0.2894041 0.2893144 0.288902 0.2885708 0.2893643 0.2918397
 0.2950799 0.2975238 0.2987672 0.2998933 0.3019501 0.304671 0.3068888 0.3078354 0.3078287 0.3078829
 0.3087998 0.3105104 0.3121423 0.3127869 0.3123862 0.3118931 0.312412 0.3141494 0.3163361 0.3181193
 0.3192795 0.320106 0.3209106 0.3217589 0.3224375 0.3226278 0.3223268 0.3221027 0.3226723 0.3241598
 0.3259526 0.3273243 0.3280297 0.3282673 0.3282695 0.3280804 0.3276676 0.3271045 0.326581 0.3262608
 0.3261653 0.3261989 0.3262523 0.3262676 0.3262448 0.3262257 0.3262626 0.3263769 0.3265495 0.3267542
 0.3269721 0.3271686 0.3272999 0.3273624 0.327401 0.3274399 0.3274314 0.3272912 0.3269591 0.3264062
 0.3256071 0.3245327 0.3231572 0.3214465 0.3193636 0.3169684 0.3145864 0.3128445 0.3124093 0.3135618
 0.3159736 0.3188937 0.3215747 0.3235946 0.3248968 0.325633 0.3259932 0.3261207 0.3260995 0.3259677
 0.3257429 0.3254446 0.3250986 0.3247291 0.3243576 0.3240078 0.3236981 0.323428 0.3231766 0.3229121
 0.3226021 0.3222242 0.3217728 0.3212536 0.3206708 0.3200172 0.3192732 0.3184197 0.3174598 0.316434
 0.3154061 0.3144294 0.3135146 0.3126266 0.3117109 0.3107204 0.3096068 0.30831 0.3068182 0.3052545
 0.3038438 0.3027359 0.3018718 0.3010516 0.3001094 0.2989999 0.2977564 0.2964264 0.2950475 0.2936432
 0.2922171 0.2907529 0.289224 0.2876052 0.2858858 0.2840732 0.2821832 0.2802287 0.2782226 0.2761793
 0.2740908 0.2718893 0.2694399 0.2665776 0.2631575 0.2590863 0.2543389 0.2489774 0.2431641 0.2371342
 0.2311326 0.2253599 0.2199667 0.2150812 0.2108273 0.2073143 0.2046188 0.2027797 0.2018117 0.2017172
 0.2024826 0.2040667 0.2063903 0.209332 0.2127307 0.2163959 0.2201243 0.223726 0.2270687 0.2301188
 0.2329299 0.2355701 0.2380563 0.2403541 0.2424226 0.2442445 0.2458215 0.2471598 0.2482694 0.2491725
 0.2499077 0.2505219 0.2510536 0.25152 0.2519154 0.2522264 0.2524538 0.2526228 0.2527722 0.2529368
 0.2531388 0.2533874 0.2536858 0.2540406 0.2544684 0.2549901 0.2556178 0.2563461 0.2571529 0.2580113
 0.2589062 0.2598444 0.2608529 0.2619703 0.2632357 0.2646708 0.2662666 0.2679805 0.2697405 0.2714472
 0.2729881 0.2742695 0.2752438 0.2759104 0.2762961 0.2764385 0.2763753 0.2761381 0.2757477 0.2752169
 0.2745602 0.2738025 0.2729732 0.27209 0.2711518 0.2701525 0.2691014 0.268031 0.2669802 0.2659701
 0.264997 0.2640462 0.2631075 0.2621797 0.2612688 0.2603838 0.2595292 0.2587044 0.2579123 0.2571615
 0.2564511 0.2557591 0.2550428 0.2542496 0.2533327 0.2522663 0.251045 0.2496695 0.2481418 0.2464712
 0.2446746 0.2427693 0.2407726 0.2386993 0.2365562 0.23434 0.2320403 0.2296455 0.2271654 0.2246593
 0.2222253 0.2199468 0.2178528 0.215925 0.214127 0.2124273 0.2108103 0.2092706 0.2078011 0.2063938
 0.2050479 0.2037677 0.2025567 0.2014191 0.2003581 0.1993754 0.1984814 0.1976975 0.1970345 0.1964796
 0.1960115 0.1956176 0.1952991 0.1950782 0.1949876 0.1950275 0.1951365 0.1952215 0.1952174 0.1951211
 0.1949844 0.1948716 0.1948152 0.1948097 0.19483 0.1948243 0.194701 0.1943526 0.1936904 0.1926478
 0.1911865 0.1893268 0.1871609 0.1848334 0.1825161 0.1803752 0.1785281 0.1770293 0.1758832 0.1750427
 0.1744117 0.1739025 0.1735051 0.1732877 0.1733319 0.1736414 0.1740798 0.1744333 0.1745993 0.1747006
 0.1749754 0.1755735 0.1764685 0.1775127 0.1785408 0.1794461 0.1801882 0.1807542 0.181149 0.1814088
 0.1815735 0.1816455 0.1816048 0.1814417 0.1811571 0.1807608 0.1802773 0.1797211 0.179077 0.1783321
 0.1774952 0.1765698 0.1755484 0.1744287 0.1731883 0.1717876 0.1702739 0.168862 0.1678566 0.167489
 0.1678016 0.1686297 0.1697167 0.1708831 0.1720497 0.1731157 0.1739629 0.1746482 0.1754868 0.1768435
 0.1788235 0.1811607 0.1834002 0.1851939 0.1864154 0.1870544 0.1871322 0.1867148 0.1858637 0.1845718
 0.1828434 0.1807838 0.1785339 0.1762164 0.1739804 0.1719644 0.1702214 0.1687673 0.1676092 0.1667417
 0.1662244 0.1657903 0.1638764 0.1581572 0.1488336 0.1407883 0.1399106 0.1467544 0.1557792 0.1613009
 0.1623247 0.161218 0.1599681 0.1590178 0.1583006 0.1578834 0.1578117 0.1579761 0.158159 0.1581363
 0.1578163 0.1572206 0.1562264 0.1543289 0.1506348 0.144189 0.1346827 0.1230976 0.1114854 0.1018754
 0.09527417 0.09146597 0.08945939 0.08817449 0.08705883 0.08627468 0.08633065 0.08756042 0.08993904 0.09324536
 0.09722013 0.1015294 0.1057089 0.1093126 0.1121498 0.1142932 0.115861 0.1168904 0.1174068 0.1174838
 0.1172007 0.1166217 0.115817 0.114839 0.1136786 0.1123028 0.1107625 0.1092534 0.108035 0.1072536
 0.1068493 0.1066578 0.1065667 0.1065445 0.1065814 0.1066657 0.1067939 0.1069673 0.1071947 0.1074923
 0.1078485 0.1082014 0.1084814 0.1086628 0.1087596 0.108783 0.1087069 0.1084856 0.1081298 0.1077311
 0.1073325 0.106794 0.1059018 0.1046481 0.103344 0.1024246 0.102148 0.1024429 0.1029904 0.1034584
 0.1037031 0.1037863 0.1038219 0.1038135</values></Ydata></ScSm><ScRf><Ydata ylabel="Single channel"><values byteorder="INTEL" format="FLOAT32" numvalues="1820"> 0.06968562 0.06981322 0.06992335 0.07001951 0.07010898 0.07020192 0.07030919 0.07043563 0.07057558 0.07071504
 0.07084058 0.07094879 0.07104463 0.0711305 0.07120612 0.07128212 0.07138021 0.07151115 0.07165958 0.07179523
 0.07189697 0.07197066 0.0720472 0.07215355 0.07227746 0.07236883 0.07238604 0.0723405 0.07229058 0.07228966
 0.07235107 0.07247625 0.07268728 0.07297232 0.0732116 0.07325546 0.07311147 0.07296834 0.07298781 0.07314475
 0.0733051 0.07337473 0.07333435 0.07322772 0.07318454 0.07338031 0.07387586 0.07448679 0.07484125 0.07459463
 0.07365806 0.07232378 0.07119831 0.07088584 0.07155026 0.07273169 0.07369255 0.0740151 0.07382758 0.07348409
 0.07319506 0.07302529 0.0730609 0.07339498 0.0739743 0.07453644 0.07471257 0.07427213 0.07338607 0.07259376
 0.07236114 0.0727192 0.0734342 0.07428883 0.07487065 0.07436158 0.07226466 0.06950422 0.06813545 0.06944429
 0.07260111 0.07552341 0.07677217 0.07631192 0.07490526 0.07344093 0.07270041 0.07309155 0.07438168 0.07592733
 0.07718433 0.07785336 0.07774629 0.07687597 0.07563271 0.07461756 0.07430708 0.07491625 0.07631238 0.07788211
 0.07877621 0.07857879 0.07761985 0.07655075 0.07586449 0.07587416 0.07674262 0.07828836 0.0799995 0.08141058
 0.08234478 0.08281453 0.08290909 0.08277492 0.08254327 0.08231176 0.08224277 0.0824787 0.08286072 0.08296436
 0.08257254 0.08197072 0.08165845 0.08183549 0.08223204 0.08243511 0.08229735 0.08185804 0.080923 0.07916135
 0.0767846 0.0746495 0.07342163 0.07311119 0.07361674 0.07500426 0.0768493 0.07804181 0.07790419 0.07710469
 0.07693352 0.0779091 0.07945582 0.08074183 0.0814853 0.08199699 0.08269168 0.08361799 0.08434249 0.08427103
 0.08325952 0.08199289 0.08153071 0.08228061 0.08359839 0.08457543 0.08499128 0.08527786 0.08576123 0.08619
 0.08595764 0.08475462 0.08310774 0.08218901 0.08284698 0.08476605 0.08663616 0.08714296 0.0859009 0.08365963
 0.08167794 0.08082044 0.08122514 0.08266835 0.08487368 0.08737268 0.08942986 0.09041653 0.09024476 0.08935114
 0.08822017 0.08693124 0.08533214 0.08374731 0.08316354 0.08430737 0.08671333 0.08909614 0.09053633 0.09098723
 0.09075244 0.08986804 0.08819018 0.08603906 0.0844799 0.08453058 0.08600006 0.08754461 0.08809575 0.08785839
 0.08769201 0.08794209 0.08825622 0.08830367 0.08826864 0.08858721 0.08938796 0.09032457 0.09094062 0.0910886
 0.09096041 0.09081706 0.09074195 0.09059567 0.09023468 0.08983891 0.08989047 0.09066398 0.09185424 0.09288271
 0.09346566 0.09372222 0.09381972 0.09369171 0.09315023 0.09225201 0.09147379 0.09137227 0.09204163 0.0930434
 0.09387412 0.09433988 0.09450094 0.09447899 0.09437834 0.09426092 0.09415802 0.09413926 0.09430197 0.09463918
 0.09500274 0.09525111 0.09536433 0.09538497 0.09532498 0.09517651 0.09497714 0.0948227 0.09480441 0.09493725
 0.09516191 0.09540636 0.09561567 0.09573836 0.09574249 0.09565684 0.09555362 0.09548277 0.09545229 0.0954653
 0.09553619 0.09566221 0.09580559 0.0959197 0.09598479 0.09600995 0.09600821 0.09598497 0.0959497 0.09592469
 0.09593593 0.0959957 0.09608938 0.09618494 0.09627004 0.0963687 0.09649652 0.09661406 0.09666163 0.09663434
 0.09659007 0.09658673 0.09663691 0.09671736 0.0967961 0.09684412 0.09683818 0.09677522 0.09669501 0.09667105
 0.09675647 0.09694393 0.0971877 0.0974431 0.09767183 0.0978424 0.09795352 0.09803703 0.09811933 0.09819585
 0.09825304 0.09830131 0.09837696 0.09851346 0.09870785 0.09891817 0.09909964 0.09923604 0.09933654 0.09942494
 0.09953529 0.09968352 0.09983359 0.09992681 0.09995876 0.0999937 0.1000875 0.1002228 0.1003372 0.1003974
 0.1004291 0.1004801 0.1005691 0.1006761 0.1007741 0.1008611 0.1009582 0.1010794 0.1012025 0.101278
 0.1012781 0.101233 0.1012018 0.1012107 0.1012433 0.1012838 0.1013408 0.1014208 0.1015023 0.101552
 0.1015611 0.1015548 0.1015621 0.1015824 0.1015865 0.1015521 0.1014882 0.1014245 0.1013848 0.1013722
 0.1013722 0.1013638 0.1013326 0.1012773 0.1012063 0.1011284 0.1010482 0.1009713 0.100915 0.1009035
 0.1009374 0.1009683 0.1009252 0.1007791 0.1005742 0.1003879 0.1002641 0.1001858 0.1001033 0.0999815
 0.09982412 0.09966026 0.09951486 0.0993922 0.09928176 0.09917346 0.09907047 0.0989909 0.09895003 0.09893365
 0.09889788 0.09880888 0.09867784 0.09854694 0.0984475 0.0983815 0.09833494 0.09829506 0.09825952 0.09823821
 0.09823983 0.09825237 0.09824951 0.09822226 0.09819275 0.09819221 0.09823802 0.09832954 0.09844664 0.09855075
 0.09861043 0.0986341 0.09866321 0.09872802 0.09882352 0.09893063 0.0990443 0.09917212 0.09931713 0.09947399
 0.09963909 0.09981684 0.1000142 0.1002311 0.100458 0.1006819 0.1008979 0.1011149 0.1013484 0.1016066
 0.1018831 0.1021628 0.1024352 0.1027012 0.1029693 0.103244 0.103522 0.1038007 0.1040871 0.1043907
 0.1047093 0.10503 0.1053439 0.1056548 0.1059714 0.1062953 0.1066216 0.1069487 0.1072863 0.1076473
 0.1080263 0.1083916 0.1087118 0.1089899 0.1092616 0.1095609 0.1098944 0.1102423 0.1105741 0.1108675
 0.111128 0.1113875 0.1116725 0.1119772 0.1122803 0.112582 0.1129099 0.1132809 0.1136669 0.1140104
 0.1142769 0.1144885 0.1146989 0.1149375 0.1151864 0.1154146 0.115621 0.1158301 0.1160555 0.116288
 0.116521 0.116768 0.1170412 0.1173251 0.1175885 0.1178172 0.1180208 0.1182114 0.1183866 0.1185355
 0.1186522 0.1187471 0.1188464 0.1189732 0.1191252 0.1192788 0.1194202 0.1195593 0.1197133 0.1198881
 0.120085 0.1203103 0.1205634 0.1208246 0.1210728 0.1213173 0.1215892 0.1218936 0.1221893 0.1224324
 0.1226275 0.1228137 0.1230152 0.1232279 0.1234497 0.1236945 0.1239726 0.1242736 0.1245754 0.1248621
 0.1251357 0.1254139 0.1257114 0.1260161 0.1262919 0.1265144 0.1266969 0.1268791 0.127093 0.127345
 0.1276216 0.1279047 0.1281803 0.1284348 0.1286477 0.1287999 0.128894 0.1289568 0.1290102 0.1290418
 0.1290134 0.1288926 0.1286682 0.128336 0.1278862 0.1273137 0.1266415 0.1259328 0.1252799 0.1247753
 0.1244856 0.1244428 0.1246485 0.1250727 0.1256498 0.1262876 0.1268882 0.1273631 0.1276377 0.12766
 0.127418 0.1269452 0.1263016 0.1255496 0.1247426 0.1239228 0.1231219 0.1223772 0.1217632 0.1214019
 0.1214282 0.1219351 0.122937 0.1243556 0.1260252 0.1277345 0.1293052 0.1306555 0.1317996 0.1327927
 0.133683 0.1345009 0.135268 0.1359985 0.1366951 0.1373539 0.1379744 0.1385597 0.1391069 0.1396019
 0.1400247 0.1403587 0.1405989 0.1407577 0.1408585 0.1409197 0.1409487 0.1409519 0.1409362 0.1408923
 0.1407831 0.1405616 0.1402017 0.1397194 0.1391819 0.1387118 0.1384763 0.1386441 0.1393138 0.1404526
 0.1418992 0.1434391 0.1448934 0.1461567 0.1471871 0.1479917 0.1486164 0.1491247 0.1495681 0.1499752
 0.1503595 0.1507296 0.1510912 0.1514471 0.1517984 0.1521454 0.1524897 0.1528319 0.1531698 0.153499
 0.1538189 0.1541373 0.1544668 0.1548146 0.1551739 0.1555283 0.1558686 0.156202 0.1565404 0.156883
 0.157218 0.1575388 0.157852 0.1581697 0.1584998 0.1588417 0.1591858 0.1595183 0.1598313 0.1601278
 0.1604163 0.1607022 0.1609865 0.1612696 0.1615517 0.1618308 0.1621042 0.1623741 0.1626484 0.162932
 0.1632183 0.1634925 0.163747 0.1639886 0.1642306 0.1644793 0.1647324 0.1649856 0.1652381 0.1654934
 0.1657569 0.1660302 0.1663063 0.1665737 0.1668258 0.1670661 0.1673038 0.1675462 0.1677946 0.1680466
 0.1683001 0.1685536 0.1688058 0.1690557 0.1693043 0.1695529 0.169802 0.1700508 0.1702984 0.1705451
 0.1707916 0.171039 0.1712886 0.1715418 0.1717995 0.1720594 0.1723141 0.1725568 0.1727879 0.1730144
 0.1732416 0.1734693 0.1736968 0.1739258 0.1741589 0.1743963 0.1746359 0.1748746 0.1751114 0.1753488
 0.1755891 0.175832 0.176076 0.1763204 0.1765654 0.1768099 0.1770518 0.1772889 0.1775226 0.1777572
 0.1779956 0.1782365 0.1784773 0.1787159 0.1789515 0.1791856 0.1794233 0.179669 0.1799187 0.1801622
 0.1803932 0.1806155 0.1808382 0.1810669 0.1813001 0.1815318 0.18176 0.1819883 0.1822206 0.1824565
 0.182693 0.1829274 0.1831575 0.1833851 0.1836157 0.1838537 0.1840978 0.184344 0.1845887 0.1848305
 0.1850699 0.1853084 0.1855452 0.1857778 0.1860066 0.1862352 0.1864683 0.1867085 0.1869546 0.187202
 0.1874475 0.1876929 0.1879393 0.1881841 0.1884262 0.1886687 0.188915 0.1891644 0.1894154 0.1896671
 0.1899191 0.1901723 0.1904276 0.1906819 0.1909323 0.1911809 0.1914307 0.19168 0.1919242 0.1921607
 0.1923892 0.1926113 0.1928315 0.193053 0.1932757 0.1934998 0.1937272 0.1939576 0.1941908 0.1944301
 0.1946778 0.1949295 0.195179 0.1954243 0.1956659 0.1959065 0.1961502 0.1963979 0.1966453 0.1968912
 0.1971393 0.1973908 0.1976454 0.1979049 0.1981706 0.1984394 0.1987094 0.1989803 0.1992493 0.1995136
 0.199777 0.2000428 0.20031 0.2005779 0.2008464 0.2011114 0.2013697 0.2016263 0.2018858 0.2021467
 0.2024101 0.2026806 0.2029564 0.2032307 0.203501 0.2037672 0.2040296 0.2042956 0.2045736 0.2048603
 0.205147 0.2054312 0.2057115 0.2059831 0.2062487 0.2065161 0.2067854 0.2070524 0.2073187 0.2075832
 0.2078409 0.2080943 0.2083503 0.2086015 0.2088259 0.2089747 0.20892 0.2083924 0.2069452 0.2039589
 0.1987569 0.1908716 0.1803216 0.167698 0.154005 0.1403489 0.1276353 0.1164386 0.1070644 0.0996687
 0.0943441 0.09119654 0.09040418 0.09230029 0.0974822 0.1064525 0.1183209 0.1296949 0.1359597 0.1347727
 0.1281853 0.1207824 0.1159551 0.1142442 0.1145026 0.1156012 0.117096 0.1190965 0.1218725 0.1254551
 0.1296001 0.1341812 0.1394161 0.1455291 0.1523139 0.1592067 0.165757 0.1719171 0.1778798 0.1837306
 0.1893126 0.1943775 0.1987776 0.2025133 0.2056819 0.2084191 0.2108487 0.213053 0.2150824 0.2169622
 0.2186616 0.2200788 0.221098 0.2216801 0.2219102 0.2219624 0.2220043 0.2221211 0.222324 0.2226031
 0.2229512 0.2233584 0.2238139 0.2243093 0.2248308 0.2253615 0.2258926 0.2264202 0.2269354 0.2274297
 0.2279008 0.2283477 0.2287688 0.2291687 0.2295538 0.2299264 0.23029 0.2306518 0.2310129 0.2313669
 0.2317097 0.2320404 0.2323577 0.2326618 0.2329541 0.2332344 0.2335033 0.2337674 0.2340319 0.2342942
 0.2345503 0.2348019 0.235052 0.2353017 0.2355524 0.2358028 0.2360483 0.236288 0.2365251 0.2367601
 0.2369903 0.2372173 0.237446 0.2376792 0.2379177 0.238161 0.2384056 0.2386475 0.2388873 0.2391274
 0.2393693 0.2396163 0.2398715 0.2401324 0.2403946 0.2406598 0.2409318 0.2412074 0.2414797 0.241747
 0.2420121 0.2422791 0.242552 0.2428298 0.2431032 0.2433615 0.2436013 0.2438284 0.2440537 0.2442866
 0.2445273 0.2447688 0.2450071 0.2452463 0.2454908 0.2457403 0.2459916 0.246242 0.2464914 0.2467458
 0.247012 0.2472878 0.2475646 0.2478419 0.2481262 0.2484195 0.248716 0.2490118 0.249305 0.2495916
 0.2498678 0.2501378 0.2504159 0.2507184 0.2510493 0.2513928 0.2517254 0.2520391 0.2523448 0.2526578
 0.2529854 0.2533188 0.2536291 0.2538878 0.2541069 0.2543452 0.2546545 0.2550311 0.2554286 0.2558061
 0.2561544 0.2564824 0.2567973 0.2570966 0.2573739 0.2576275 0.2578707 0.2581366 0.2584577 0.2588313
 0.2592143 0.2595676 0.2598876 0.2601887 0.2604794 0.2607636 0.2610322 0.261248 0.2613823 0.2614873
 0.2616874 0.262062 0.2625575 0.2630436 0.2634422 0.2637734 0.264086 0.2643933 0.2646855 0.2649421
 0.2650962 0.2650657 0.2649013 0.2648445 0.2651328 0.2657586 0.2664922 0.2671148 0.2675653 0.2678961
 0.2681765 0.2684454 0.2686877 0.2688359 0.2688424 0.2687864 0.2688653 0.2692161 0.2697613 0.2702925
 0.2706891 0.2709875 0.2712686 0.2715654 0.2718444 0.2719846 0.2718291 0.271401 0.2710485 0.271217
 0.2720153 0.2730899 0.2739801 0.2745293 0.2748798 0.275144 0.275238 0.2750333 0.2745152 0.2737825
 0.2730857 0.272871 0.2734908 0.2747519 0.2759919 0.2767426 0.2771333 0.2775574 0.2781611 0.2787799
 0.2792079 0.279384 0.2793611 0.2791848 0.2788695 0.2785346 0.2784886 0.2790114 0.2800294 0.2811323
 0.2819595 0.2824852 0.2828514 0.2829472 0.2823029 0.2806456 0.2786211 0.2776262 0.2785693 0.2809171
 0.2832744 0.2847636 0.2855049 0.2859599 0.28633 0.2865009 0.2860357 0.2843169 0.2813867 0.278682
 0.2781637 0.2803838 0.2838683 0.2865448 0.2873225 0.2863161 0.2843279 0.2824796 0.2818071 0.2826927
 0.2847073 0.2870475 0.2890187 0.2902213 0.2905698 0.2902508 0.2896495 0.2892506 0.289332 0.2895481
 0.2891456 0.2879426 0.2866776 0.2858727 0.2848785 0.2829391 0.2808823 0.280607 0.2827335 0.2857034
 0.2875863 0.2880566 0.2880412 0.2878518 0.2864292 0.2827415 0.2776987 0.2741218 0.2743291 0.2778199
 0.2817675 0.2837957 0.2838586 0.2834301 0.283432 0.2832609 0.2816882 0.2786012 0.2756802 0.2748978
 0.2763073 0.27796 0.2780595 0.2762229 0.2725441 0.2671431 0.2616448 0.2594814 0.2628636 0.2700272
 0.2767902 0.2801592 0.2792651 0.2741227 0.26594 0.2584102 0.2560487 0.2600291 0.2668118 0.2715696
 0.2719893 0.2683693 0.2616548 0.2530302 0.2449357 0.240758 0.2426713 0.2498865 0.2588045 0.2645698
 0.2635468 0.256236 0.2480044 0.2450465 0.248556 0.2539364 0.2562039 0.2546758 0.2519284 0.2502888
 0.2505534 0.2524247 0.2548468 0.2568382 0.2582477 0.2583641 0.2545323 0.2450925 0.2337472 0.22759
 0.22979 0.2370503 0.2449916 0.2525557 0.2595362 0.2634198 0.2620653 0.2579399 0.2565344 0.2605013
 0.2671323 0.2718188 0.2727285 0.2715439 0.2704048 0.2693612 0.2674412 0.2654027 0.2657591 0.2696503
 0.2750535 0.2789776 0.2804612 0.2805684 0.2803779 0.2800769 0.2795187 0.2786703 0.2775729 0.2763585
 0.2752404 0.2742769 0.2733282 0.2723333 0.2712354 0.2693714 0.2655282 0.2595207 0.2535335 0.2506099
 0.2514585 0.254014 0.2564111 0.2583323 0.2585164 0.2537435 0.2430375 0.2314263 0.2264808 0.2309997
 0.2407848 0.2493574 0.2530783 0.2515968 0.2456625 0.2367792 0.2287429 0.2269748 0.234342 0.2481604
 0.2626154 0.2736855 0.2806665 0.2839063 0.2832543 0.2792103 0.274219 0.2717046 0.2737238 0.2796154
 0.2865013 0.2906204 0.2889685 0.2817779 0.2741559 0.27299 0.2801148 0.2898745 0.2953686 0.2956802
 0.2948536 0.2954811 0.2964877 0.2966824 0.297247 0.2997464 0.3035625 0.3064101 0.3063848 0.3027648
 0.2960051 0.2882915 0.2831919 0.2828314 0.2855449 0.2877888 0.2877778 0.2855142 0.2805572 0.2729936
 0.2662312 0.2651705 0.2706344 0.2781214 0.282938 0.2845713 0.2852328 0.2858814 0.2850941 0.2814481
 0.2760474 0.272045 0.2715499 0.2736386 0.2758733 0.2769424 0.2768585 0.2754292 0.2722721 0.268458
 0.2666544 0.2687501 0.2738294 0.2790607 0.2822963 0.2833808 0.2833286 0.2830197 0.2827294 0.282289
 0.2815182 0.280829 0.2812548 0.2833515 0.286235 0.2883911 0.2894267 0.2903903 0.292292 0.2948654
 0.2969729 0.2978641 0.2978361 0.2978581 0.2987006 0.300303 0.3018329 0.3024179 0.302005 0.3015217
 0.3020432 0.3037661 0.3059304 0.3076897 0.3088179 0.3095948 0.3103362 0.3111274 0.3117781 0.3119789
 0.311711 0.3115088 0.3120644 0.3135057 0.3152471 0.3165873 0.3172887 0.3175422 0.3175667 0.3173943
 0.3169857 0.3164155 0.3158813 0.315555 0.3154604 0.3154998 0.3155605 0.3155826 0.315564 0.315545
 0.3155791 0.3156908 0.3158631 0.3160709 0.3162987 0.316518 0.3166878 0.3167984 0.3168854 0.3169731
 0.3170271 0.3169737 0.3167469 0.3163003 0.3155959 0.3146047 0.3133076 0.3116783 0.3096861 0.3073924
 0.3051118 0.3034487 0.3030477 0.3041822 0.3065361 0.3093835 0.3120019 0.3139834 0.3152706 0.316007
 0.3163764 0.3165238 0.3165371 0.3164534 0.3162815 0.3160308 0.3157219 0.3153757 0.3150095 0.3146471
 0.3143181 0.3140372 0.3137874 0.3135267 0.313212 0.3128197 0.3123491 0.3118124 0.3112204 0.3105695
 0.3098347 0.3089869 0.3080286 0.3070088 0.305998 0.3050458 0.3041584 0.3033028 0.3024313 0.3015007
 0.300464 0.2992615 0.2978785 0.29643 0.2951322 0.294132 0.2933747 0.292667 0.2918454 0.2908604
 0.2897373 0.288516 0.2872308 0.285909 0.2845635 0.2831869 0.2817531 0.2802294 0.2785973 0.2768632
 0.2750484 0.2731727 0.2712537 0.2693056 0.2673153 0.2652116 0.2628651 0.2601204 0.256837 0.2529177
 0.2483339 0.2431501 0.2375286 0.2316969 0.2258867 0.2202909 0.2150603 0.2103247 0.2062053 0.202806
 0.2002004 0.1984304 0.1975152 0.1974559 0.1982343 0.1998088 0.2021097 0.205027 0.2084036 0.2120483
 0.2157588 0.2193482 0.2226824 0.225724 0.2285285 0.2311665 0.2336445 0.2359113 0.2379245 0.2396859
 0.2412137 0.2425112 0.2435777 0.2444359 0.2451345 0.2457248 0.2462401 0.2466897 0.2470645 0.2473509
 0.2475518 0.2476987 0.2478369 0.2479972 0.2481871 0.2484058 0.248661 0.2489684 0.2493422 0.2497916
 0.250321 0.2509262 0.2515908 0.2522966 0.2530394 0.2538355 0.2547144 0.2557117 0.2568619 0.258184
 0.2596681 0.2612745 0.2629379 0.2645673 0.2660561 0.2673104 0.2682763 0.268945 0.269336 0.2694772
 0.2693982 0.2691349 0.2687253 0.2681985 0.2675712 0.2668581 0.2660774 0.2652424 0.2643552 0.2634141
 0.2624268 0.2614163 0.2604107 0.2594282 0.2584742 0.2575512 0.2566605 0.2557949 0.2549421 0.2541005
 0.253283 0.2525036 0.2517686 0.2510761 0.2504152 0.2497628 0.2490833 0.2483312 0.24746 0.2464382
 0.2452574 0.2439239 0.2424491 0.2408456 0.2391243 0.2372941 0.2353677 0.2333606 0.2312824 0.229131
 0.2268926 0.2245516 0.222121 0.219671 0.217308 0.2151107 0.2130967 0.2112438 0.2095204 0.2078961
 0.2063487 0.2048684 0.2034518 0.202096 0.2007968 0.1995486 0.1983502 0.1972142 0.1961637 0.1952157
 0.1943775 0.1936514 0.1930328 0.1925081 0.1920636 0.1916906 0.1913913 0.1911916 0.1911299 0.1912067
 0.1913539 0.1914708 0.1914897 0.1914126 0.1912979 0.1912116 0.19118 0.1911919 0.1912229 0.1912277
 0.1911212 0.1907993 0.1901748 0.1891818 0.1877791 0.1859822 0.1838802 0.1816181 0.1793675 0.1772904
 0.175499 0.1740448 0.1729336 0.1721222 0.1715198 0.1710453 0.1706904 0.1705149 0.1705842 0.1708934
 0.1713165 0.1716611 0.1718365 0.1719579 0.1722484 0.172853 0.1737538 0.1748127 0.1758625 0.176785
 0.1775323 0.1780995 0.1785057 0.1787897 0.1789771 0.1790568 0.179013 0.1788539 0.1785922 0.1782347
 0.1777951 0.1772783 0.1766652 0.1759436 0.1751258 0.1742193 0.1732189 0.1721246 0.1709193 0.1695666
 0.1681092 0.1667513 0.1657899 0.1654552 0.1657909 0.1666319 0.1677202 0.1688783 0.170033 0.1710911
 0.1719407 0.1726406 0.1734999 0.1748702 0.1768476 0.1791722 0.1814045 0.1832029 0.1844353 0.1850885
 0.1851906 0.184809 0.1839929 0.1827235 0.1810096 0.1789703 0.176751 0.1744658 0.1722561 0.1702671
 0.1685669 0.1671737 0.16608 0.1652636 0.1647792 0.1643669 0.1624833 0.1568297 0.1476105 0.1396597
 0.1388002 0.1455736 0.1544985 0.1599601 0.160983 0.159909 0.1586947 0.1577696 0.1570659 0.1566545
 0.1565865 0.156759 0.1569592 0.1569637 0.1566784 0.1561224 0.15517 0.1533122 0.1496561 0.1432544
 0.1338076 0.1222977 0.1107679 0.1012348 0.09469162 0.09091522 0.08892326 0.08765722 0.08657468 0.08582301
 0.08588868 0.08710062 0.08944748 0.09272271 0.09667371 0.100969 0.1051431 0.1087424 0.1115672 0.1136908
 0.1152403 0.1162584 0.1167679 0.1168394 0.1165586 0.1159969 0.1152188 0.1142579 0.1130956 0.1117129
 0.1101847 0.1087116 0.1075354 0.1067839 0.106397 0.1062224 0.1061547 0.1061577 0.1062094 0.1062894
 0.1063979 0.1065518 0.1067745 0.1070812 0.1074464 0.1077995 0.1080768 0.1082645 0.1083787 0.1084184
 0.1083402 0.1080891 0.107687 0.1072539 0.1068564 0.1063529 0.105508 0.1042951 0.1030196 0.1021169
 0.1018442 0.1021314 0.102664 0.1031135 0.1033365 0.1033953 0.103409 0.1033897 0.1032192 0.1027831
</values></Ydata></ScRf><Data_Parameters_AB><parameter name="DPF">1</parameter><parameter name="NPT">3497</parameter><parameter name="FXV">3996</parameter><parameter name="LXV">500</parameter><parameter name="CSF">1</parameter><parameter name="MXY">-0.00129405700135976</parameter><parameter name="MNY">-0.0455588027834892</parameter><parameter name="DAT">17/01/2024</parameter><parameter name="TIM">12:49:22.450 (GMT+1)</parameter><parameter name="DXU">WN</parameter></Data_Parameters_AB><AB__Qtest><MainReport name="Quality Test Report"><Header><Line><Legend>Test result ok/not ok [1/0]: </Legend><Value>0</Value></Line><Line><Legend>Method file: </Legend><Value>C:\Users\Public\Documents\Bruker\OPUS_8.2.28\QT\IRBT_v3_default.QT</Value></Line></Header><Matrix><Line><Legend></Legend><Legend>min</Legend><Legend>max</Legend><Legend>measured</Legend></Line><Line><Value>Absorption (X-Range 1):</Value><Value>0.400000</Value><Value>2.000000</Value><Value>0.020445</Value></Line><Line><Value>Noise (X-Range 4):</Value><Value></Value><Value>0.000300</Value><Value>0.000020</Value></Line><Line><Value>Signal/Noise (X-Range 2):</Value><Value>200.000000</Value><Value></Value><Value>17.722811</Value></Line><Line><Value>Signal/Noise (X-Range 3):</Value><Value>40.000000</Value><Value></Value><Value>9.411733</Value></Line><Line><Value>Water vapour (X-Range 5):</Value><Value></Value><Value>0.000300</Value><Value>0.000010</Value></Line><Line><Value>Signal/Water (X-Range 2):</Value><Value>100.000000</Value><Value></Value><Value>35.269143</Value></Line><Line><Value>Signal/Water (X-Range 3):</Value><Value>20.000000</Value><Value></Value><Value>18.729747</Value></Line><Line><Value>Fringes (X-Range 6):</Value><Value></Value><Value>0.000100</Value><Value>0.000022</Value></Line></Matrix></MainReport></AB__Qtest><Data_Parameters_ScSm><parameter name="DPF">1</parameter><parameter name="NPT">1814</parameter><parameter name="FXV">3996.63438082617</parameter><parameter name="LXV">499.579297603271</parameter><parameter name="CSF">1</parameter><parameter name="MXY">0.328269511461258</parameter><parameter name="MNY">0.0754272788763046</parameter><parameter name="DAT">17/01/2024</parameter><parameter name="TIM">12:49:22.450 (GMT+1)</parameter><parameter name="DXU">WN</parameter></Data_Parameters_ScSm><Data_Parameters_ScRf><parameter name="DPF">1</parameter><parameter name="NPT">1820</parameter><parameter name="FXV">4004.34989121387</parameter><parameter name="LXV">495.721542409425</parameter><parameter name="CSF">1</parameter><parameter name="MXY">0.317566692829132</parameter><parameter name="MNY">0.0681354478001595</parameter><parameter name="DAT">17/01/2024</parameter><parameter name="TIM">12:48:57.191 (GMT+1)</parameter><parameter name="DXU">WN</parameter></Data_Parameters_ScRf><Optic_Parameters_Rf><parameter name="APR">0</parameter><parameter name="APT">Open</parameter><parameter name="BMS">KBr</parameter><parameter name="DTC">RT-DLaTGS_IR-Biotyper [Microplate reader]</parameter><parameter name="HPF">0</parameter><parameter name="LPF">10.0</parameter><parameter name="LPV">4000</parameter><parameter name="PGR">0</parameter><parameter name="RCH">Module port</parameter><parameter name="RDX">0</parameter><parameter name="SRC">MIR</parameter><parameter name="VEL">10.0</parameter><parameter name="SON">Off</parameter></Optic_Parameters_Rf><Acquisition_Parameters_Rf><parameter name="ADT">1</parameter><parameter name="AQM">DD</parameter><parameter name="CFE">0</parameter><parameter name="COR">0</parameter><parameter name="DEL">0</parameter><parameter name="DLY">0</parameter><parameter name="HFW">8000</parameter><parameter name="LFW">0</parameter><parameter name="NSR">32</parameter><parameter name="PLF">AB</parameter><parameter name="RES">6</parameter><parameter name="RGN">-1</parameter><parameter name="STR">0</parameter><parameter name="TCL">MakeCompatibleScalar (0, {WSV=1.000000, ARV=0});</parameter><parameter name="TDL">37</parameter><parameter name="RPO">0</parameter></Acquisition_Parameters_Rf><FT_-_Parameters_Rf><parameter name="APF">B3</parameter><parameter name="HFQ">500</parameter><parameter name="LFQ">4000</parameter><parameter name="NLI">0</parameter><parameter name="PHR">24</parameter><parameter name="PHZ">ML</parameter><parameter name="SPZ">NO</parameter><parameter name="ZFF">1</parameter></FT_-_Parameters_Rf><Optic_Parameters_><parameter name="APR">0</parameter><parameter name="APT">Open</parameter><parameter name="BMS">KBr</parameter><parameter name="CHN">Module port</parameter><parameter name="DTC">RT-DLaTGS_IR-Biotyper [Microplate reader]</parameter><parameter name="HPF">0</parameter><parameter name="LPF">10.0</parameter><parameter name="LPV">4000</parameter><parameter name="PGN">0</parameter><parameter name="RDX">0</parameter><parameter name="SRC">MIR</parameter><parameter name="VEL">10.0</parameter><parameter name="SON">Off</parameter></Optic_Parameters_><FT_-_Parameters_><parameter name="APF">B3</parameter><parameter name="HFQ">500</parameter><parameter name="LFQ">4000</parameter><parameter name="NLI">0</parameter><parameter name="PHR">24</parameter><parameter name="PHZ">ML</parameter><parameter name="SPZ">NO</parameter><parameter name="ZFF">1</parameter></FT_-_Parameters_><Acquisition_Parameters_><parameter name="ADT">1</parameter><parameter name="AQM">DD</parameter><parameter name="CFE">0</parameter><parameter name="COR">0</parameter><parameter name="DEL">0</parameter><parameter name="DLY">0</parameter><parameter name="HFW">8000</parameter><parameter name="LFW">0</parameter><parameter name="NSS">32</parameter><parameter name="PLF">AB</parameter><parameter name="RES">6</parameter><parameter name="SOT">0</parameter><parameter name="TCL">MakeCompatibleScalar (0, {WSV=1.000000, ARV=0});</parameter><parameter name="TDL">37</parameter><parameter name="SPO">0</parameter><parameter name="SGN">-1</parameter></Acquisition_Parameters_><Instrument_Parameters_Rf><parameter name="HFL">15801.365274</parameter><parameter name="LFL">0</parameter><parameter name="LWN">15801.365274</parameter><parameter name="ABP">32157</parameter><parameter name="SSP">1</parameter><parameter name="ARG">2</parameter><parameter name="ASG">2</parameter><parameter name="ASS">32</parameter><parameter name="GFW">16</parameter><parameter name="GBW">16</parameter><parameter name="BFW">0</parameter><parameter name="BBW">0</parameter><parameter name="PKA">9113</parameter><parameter name="PKL">4987</parameter><parameter name="PRA">9129</parameter><parameter name="PRL">5010</parameter><parameter name="P2A">1</parameter><parameter name="P2L">1</parameter><parameter name="P2R">1</parameter><parameter name="P2K">1</parameter><parameter name="DAQ">0</parameter><parameter name="AG2">1</parameter><parameter name="SSM">1</parameter><parameter name="RSN">46270</parameter><parameter name="CRR">0</parameter><parameter name="SRT">1705495737.192</parameter><parameter name="DUR">19.6439971923828</parameter><parameter name="TSC">30.8</parameter><parameter name="MVD">0.283825784921646</parameter><parameter name="AN1">0.226023517028782</parameter><parameter name="AN2">0</parameter><parameter name="VSN">2.485 Apr  4 2017</parameter><parameter name="SRN">0085</parameter><parameter name="CAM">0</parameter><parameter name="INS">IR-Biotyper</parameter><parameter name="FOC">69</parameter><parameter name="RDY">1</parameter><parameter name="ARS">32</parameter></Instrument_Parameters_Rf><Sample_Parameters_><parameter name="BLD"></parameter><parameter name="CNM">Admin</parameter><parameter name="CPY"></parameter><parameter name="DPM"></parameter><parameter name="EXP">IRBT_v3_32Scans.XPM</parameter><parameter name="LCT"></parameter><parameter name="SFM">Microplate, HTS-XT</parameter><parameter name="SNM">240117-1222-Cdiff_SCFA_1_C6_232100818_F3_f8162b0c-ddb9-402b-baec-661ecedfc409.0</parameter><parameter name="XPP">C:\Users\Public\Documents\Bruker\OPUS_8.2.28\XPM</parameter><parameter name="IST">OK</parameter><parameter name="CPG">1252</parameter><parameter name="UID">780571d7-a0dc-41f1-81bd-a8fd141d9087</parameter></Sample_Parameters_><Instrument_Parameters_><parameter name="HFL">15801.365274</parameter><parameter name="LFL">0</parameter><parameter name="LWN">15801.365274</parameter><parameter name="ABP">32157</parameter><parameter name="SSP">1</parameter><parameter name="ASG">2</parameter><parameter name="ARG">2</parameter><parameter name="ASS">32</parameter><parameter name="GFW">16</parameter><parameter name="GBW">16</parameter><parameter name="BFW">0</parameter><parameter name="BBW">0</parameter><parameter name="PKA">9605</parameter><parameter name="PKL">4987</parameter><parameter name="PRA">9677</parameter><parameter name="PRL">5010</parameter><parameter name="P2A">1</parameter><parameter name="P2L">1</parameter><parameter name="P2R">1</parameter><parameter name="P2K">1</parameter><parameter name="DAQ">0</parameter><parameter name="AG2">1</parameter><parameter name="SSM">1</parameter><parameter name="RSN">23828</parameter><parameter name="CRR">0</parameter><parameter name="SRT">1705495762.451</parameter><parameter name="DUR">19.6439971923828</parameter><parameter name="TSC">30.8</parameter><parameter name="MVD">0.316743314266205</parameter><parameter name="AN1">0.226003888898857</parameter><parameter name="AN2">0</parameter><parameter name="VSN">2.485 Apr  4 2017</parameter><parameter name="SRN">0085</parameter><parameter name="CAM">0</parameter><parameter name="INS">IR-Biotyper</parameter><parameter name="FOC">69</parameter><parameter name="RDY">1</parameter></Instrument_Parameters_><History/></OPUSDataFile>
