<?xml version="1.0" encoding="UTF-8" ?>
<OPUSDataFile><AB><Ydata ylabel="Absorbance Units"><values byteorder="INTEL" format="FLOAT32" numvalues="3497"> -0.05866273 -0.05866204 -0.05865905 -0.05865376 -0.05864631 -0.05863638 -0.05862357 -0.058607 -0.05858467 -0.05855751
 -0.05852476 -0.05849057 -0.05845729 -0.05842904 -0.0584091 -0.05839704 -0.05839408 -0.05839592 -0.05840208 -0.0584078
 -0.05841229 -0.05841303 -0.05840965 -0.05840256 -0.0583918 -0.05837928 -0.05836506 -0.05835057 -0.05833559 -0.05831953
 -0.05830249 -0.05828412 -0.05826553 -0.05824878 -0.05823522 -0.05822826 -0.05822721 -0.0582335 -0.05824341 -0.05825539
 -0.05826429 -0.0582669 -0.05826111 -0.05824458 -0.05822124 -0.05819103 -0.05816051 -0.0581307 -0.05810542 -0.05808523
 -0.05806936 -0.05805774 -0.0580483 -0.0580409 -0.05803358 -0.0580262 -0.05801698 -0.05800591 -0.05799186 -0.05797525
 -0.05795632 -0.05793588 -0.05791526 -0.05789501 -0.05787611 -0.05785923 -0.05784497 -0.05783426 -0.0578279 -0.05782574
 -0.05782872 -0.05783271 -0.05783759 -0.05783618 -0.05782725 -0.05780705 -0.05777473 -0.05773487 -0.05768769 -0.05764354
 -0.05760268 -0.05757162 -0.05754991 -0.05753852 -0.05753686 -0.05754379 -0.05755833 -0.05757862 -0.0576017 -0.05762295
 -0.05763797 -0.05763968 -0.05762705 -0.05759519 -0.05755076 -0.05749462 -0.05743711 -0.05738213 -0.0573361 -0.05730182
 -0.05727907 -0.0572686 -0.05726614 -0.05727146 -0.05728011 -0.05729184 -0.05730247 -0.05731172 -0.05731496 -0.05731208
 -0.05729954 -0.05727842 -0.05724998 -0.05721672 -0.05718524 -0.05715677 -0.05713682 -0.0571236 -0.05711758 -0.05711571
 -0.05711555 -0.05711587 -0.05711514 -0.05711388 -0.05711213 -0.05710973 -0.05710693 -0.05710185 -0.05709416 -0.05708279
 -0.05706736 -0.05705092 -0.05703363 -0.05702214 -0.0570166 -0.05702149 -0.0570356 -0.05705478 -0.05707595 -0.05708556
 -0.05708221 -0.05705308 -0.05700524 -0.0569429 -0.05687696 -0.05682363 -0.05678323 -0.05676341 -0.05675481 -0.0567544
 -0.05675466 -0.05675141 -0.05674367 -0.05673034 -0.05671232 -0.05668967 -0.05666245 -0.0566304 -0.05659734 -0.05656346
 -0.05653665 -0.05651695 -0.05650672 -0.05650476 -0.05650457 -0.05650561 -0.05650188 -0.05649493 -0.05648556 -0.05647519
 -0.05646721 -0.05646051 -0.05645558 -0.05644983 -0.0564412 -0.05642839 -0.05640983 -0.05638619 -0.05635715 -0.0563244
 -0.05628788 -0.05625113 -0.05621438 -0.0561825 -0.05615602 -0.05613819 -0.05612927 -0.05612666 -0.05612977 -0.05612902
 -0.05612387 -0.05610529 -0.05607514 -0.05603477 -0.05598796 -0.05594532 -0.05590789 -0.05588347 -0.05586825 -0.0558611
 -0.05585739 -0.05585232 -0.05584496 -0.05583318 -0.05581827 -0.0558003 -0.05578034 -0.0557585 -0.05573651 -0.05571442
 -0.05569544 -0.05568005 -0.05566852 -0.05566097 -0.0556524 -0.05564258 -0.05562713 -0.05560662 -0.05558265 -0.05555597
 -0.05553085 -0.05550655 -0.05548343 -0.05546043 -0.05543544 -0.05540911 -0.05538105 -0.05535306 -0.05532666 -0.05530265
 -0.055282 -0.05526461 -0.05525044 -0.05524014 -0.05523365 -0.05523269 -0.05523769 -0.05524882 -0.05526653 -0.05528616
 -0.05530756 -0.05532154 -0.05532772 -0.05531822 -0.05529382 -0.05525587 -0.05520593 -0.05515111 -0.05509196 -0.05503301
 -0.05497526 -0.05492191 -0.05487542 -0.054841 -0.05481743 -0.05480732 -0.05480282 -0.05480028 -0.05479309 -0.0547761
 -0.05475275 -0.05472193 -0.05469313 -0.05466842 -0.05465046 -0.05464035 -0.05463203 -0.05462524 -0.05461356 -0.05459687
 -0.05457275 -0.05454176 -0.05450622 -0.05446754 -0.05443267 -0.05440255 -0.05438417 -0.05437534 -0.05437649 -0.05438227
 -0.05438654 -0.05438409 -0.05436705 -0.05433657 -0.05428914 -0.05423412 -0.05417412 -0.054118 -0.05406985 -0.05402904
 -0.05399677 -0.05396623 -0.05393658 -0.05390485 -0.05387063 -0.05383842 -0.05380849 -0.05378665 -0.05377244 -0.05376546
 -0.05376418 -0.05376225 -0.05375797 -0.0537431 -0.05371765 -0.05367675 -0.05362394 -0.05356083 -0.05349344 -0.05342764
 -0.05336771 -0.05331853 -0.05328002 -0.05325402 -0.05323667 -0.05322796 -0.05322103 -0.05321486 -0.0532028 -0.05318358
 -0.053157 -0.05312277 -0.05308741 -0.05305114 -0.0530178 -0.05298683 -0.0529555 -0.05292324 -0.05288593 -0.05284401
 -0.05279656 -0.05274417 -0.05268773 -0.05262718 -0.05256247 -0.05249461 -0.05242353 -0.05235329 -0.05228605 -0.05222593
 -0.05217632 -0.05213488 -0.05210313 -0.05207066 -0.05203589 -0.05198986 -0.05193048 -0.05186079 -0.0517806 -0.0517001
 -0.05161964 -0.0515437 -0.05147178 -0.05140146 -0.05133268 -0.05126354 -0.05119528 -0.05113043 -0.05107005 -0.05101801
 -0.05097311 -0.05093651 -0.05090329 -0.05086984 -0.05083069 -0.05078007 -0.05071913 -0.05064523 -0.05056775 -0.0504892
 -0.05041543 -0.05034915 -0.0502858 -0.0502254 -0.05016105 -0.05009206 -0.05001861 -0.04994091 -0.04986565 -0.04979289
 -0.0497264 -0.04966502 -0.04960537 -0.04954636 -0.04948243 -0.0494145 -0.04934106 -0.04926507 -0.04919029 -0.04911809
 -0.04905215 -0.04898964 -0.04893035 -0.04886982 -0.04880559 -0.04873639 -0.04866069 -0.04858153 -0.04849902 -0.04841729
 -0.04833698 -0.04825989 -0.04818629 -0.04811518 -0.04804646 -0.04797763 -0.04790859 -0.04783725 -0.04776374 -0.04768752
 -0.04760877 -0.0475275 -0.04744429 -0.04735999 -0.0472758 -0.04719394 -0.04711476 -0.04703998 -0.04696765 -0.0468973
 -0.04682605 -0.04675211 -0.04667516 -0.04659446 -0.04651145 -0.04642628 -0.04634015 -0.0462531 -0.04616703 -0.04608197
 -0.04600164 -0.04592619 -0.04585785 -0.04579623 -0.04573886 -0.04568483 -0.04562822 -0.04556862 -0.04550102 -0.045427
 -0.04534681 -0.04526363 -0.04518254 -0.0451046 -0.04503414 -0.04496671 -0.0449013 -0.04483151 -0.04475298 -0.04466594
 -0.04456815 -0.04446762 -0.0443655 -0.04426885 -0.04417926 -0.04409657 -0.04402108 -0.04394887 -0.04387979 -0.04381235
 -0.04374666 -0.04368329 -0.04362214 -0.04356299 -0.04350531 -0.04344734 -0.0433887 -0.04332772 -0.04326436 -0.0431979
 -0.04312837 -0.0430555 -0.04297952 -0.04290031 -0.04281887 -0.0427354 -0.04265172 -0.04256852 -0.04248675 -0.0424069
 -0.04232839 -0.04225119 -0.04217492 -0.04209947 -0.0420255 -0.04195301 -0.0418825 -0.04181382 -0.04174538 -0.04167685
 -0.04160537 -0.04153113 -0.04145267 -0.04137152 -0.04128983 -0.04121009 -0.04113723 -0.04107212 -0.04101867 -0.04097311
 -0.04093489 -0.04089742 -0.04085721 -0.04081028 -0.04075376 -0.04068933 -0.04061643 -0.04053956 -0.0404592 -0.04037925
 -0.04030005 -0.04022451 -0.04015279 -0.04008663 -0.04002583 -0.03996903 -0.03991553 -0.03986095 -0.03980478 -0.03974266
 -0.03967543 -0.0396024 -0.03952564 -0.0394477 -0.03937126 -0.03929992 -0.03923612 -0.03918317 -0.03914089 -0.03911106
 -0.03908895 -0.03907416 -0.03905908 -0.03904185 -0.03901764 -0.03898506 -0.03894492 -0.03889705 -0.03884473 -0.03878814
 -0.03872891 -0.03866715 -0.03860413 -0.03854042 -0.03847985 -0.038423 -0.03837443 -0.03833307 -0.03829922 -0.0382703
 -0.03824216 -0.03821354 -0.03818088 -0.03814571 -0.03810776 -0.03806968 -0.03803278 -0.03799877 -0.0379688 -0.0379426
 -0.03792058 -0.03790068 -0.03788288 -0.0378635 -0.03784224 -0.03781558 -0.03778332 -0.03774518 -0.03770144 -0.0376555
 -0.03760771 -0.03756198 -0.03751827 -0.03747867 -0.03744273 -0.03741035 -0.03738114 -0.03735449 -0.03733001 -0.03730717
 -0.03728541 -0.0372644 -0.03724295 -0.03722046 -0.03719575 -0.0371682 -0.03713725 -0.03710227 -0.03706503 -0.03702532
 -0.03698779 -0.03695266 -0.03692615 -0.03690864 -0.03690184 -0.03690513 -0.03691086 -0.03691775 -0.03691356 -0.03689911
 -0.03686971 -0.0368296 -0.03678641 -0.03674391 -0.03671298 -0.03669184 -0.03668389 -0.03668287 -0.03668484 -0.03668554
 -0.03668068 -0.03667168 -0.0366578 -0.03664224 -0.0366259 -0.03660963 -0.03659381 -0.03657774 -0.0365613 -0.03654535
 -0.03652991 -0.03651706 -0.03650687 -0.03650074 -0.03649853 -0.03650046 -0.03650582 -0.03651248 -0.036519 -0.03652076
 -0.03651698 -0.03650336 -0.03648249 -0.0364548 -0.03642551 -0.03639907 -0.03637861 -0.03636828 -0.03636483 -0.03636879
 -0.03637331 -0.03637651 -0.03637474 -0.03636644 -0.03635493 -0.03634007 -0.03632887 -0.03632178 -0.03632172 -0.03632833
 -0.03633614 -0.03634435 -0.03634451 -0.03633736 -0.03632059 -0.03629691 -0.03627199 -0.03624776 -0.03623075 -0.03621998
 -0.03621728 -0.03621994 -0.03622632 -0.03623429 -0.03624192 -0.036249 -0.03625498 -0.0362603 -0.03626532 -0.0362686
 -0.03627039 -0.03626608 -0.03625524 -0.03623413 -0.03620238 -0.03616405 -0.03611973 -0.03608024 -0.03604567 -0.03602264
 -0.0360091 -0.03600077 -0.03599508 -0.03598238 -0.03596347 -0.03593428 -0.03589937 -0.03586254 -0.03582797 -0.03580151
 -0.035782 -0.03577163 -0.03576389 -0.03575708 -0.0357447 -0.03572388 -0.03569515 -0.03565728 -0.03561785 -0.03557735
 -0.03554365 -0.03551733 -0.03550046 -0.03549292 -0.03549241 -0.03549873 -0.03550963 -0.03552471 -0.0355416 -0.03555909
 -0.03557279 -0.03558188 -0.03558211 -0.0355754 -0.03556168 -0.03554519 -0.03552974 -0.03551771 -0.03551234 -0.03551188
 -0.03551681 -0.03552351 -0.03553087 -0.03553753 -0.03554272 -0.03554852 -0.03555492 -0.03556539 -0.03558021 -0.03560095
 -0.03562745 -0.03565649 -0.03568731 -0.03571266 -0.03573244 -0.03574161 -0.03574204 -0.03573566 -0.03572541 -0.03571799
 -0.03571412 -0.03571831 -0.03572757 -0.03574118 -0.03575526 -0.03576691 -0.0357749 -0.03577746 -0.03577687 -0.03577321
 -0.03576964 -0.03576676 -0.03576672 -0.03577003 -0.03577589 -0.03578439 -0.03579151 -0.03579709 -0.0357977 -0.03579389
 -0.03578794 -0.03578116 -0.03578076 -0.0357868 -0.03580398 -0.03582973 -0.0358616 -0.03589657 -0.03592936 -0.03595912
 -0.03598297 -0.03600194 -0.03601583 -0.03602574 -0.03603217 -0.03603558 -0.03603617 -0.03603428 -0.03602992 -0.03602364
 -0.03601541 -0.03600655 -0.0359971 -0.03599012 -0.03598578 -0.03598669 -0.03599261 -0.03600281 -0.03601668 -0.03603093
 -0.03604566 -0.03605924 -0.0360727 -0.03608741 -0.03610375 -0.03612338 -0.03614464 -0.03616685 -0.03618769 -0.03620528
 -0.03621897 -0.03622747 -0.03623308 -0.03623583 -0.03623972 -0.03624557 -0.03625588 -0.03627124 -0.03629117 -0.03631575
 -0.03634306 -0.036373 -0.03640345 -0.03643404 -0.0364611 -0.03648378 -0.0364961 -0.03649789 -0.03648449 -0.03645859
 -0.03642233 -0.03638071 -0.03634147 -0.03630804 -0.03628731 -0.03627768 -0.03628093 -0.03629199 -0.03630902 -0.03632849
 -0.03634869 -0.03636904 -0.03638932 -0.03640852 -0.03642671 -0.03644076 -0.03645042 -0.03645347 -0.03644991 -0.03644182
 -0.0364296 -0.03641762 -0.03640611 -0.03639841 -0.0363943 -0.03639474 -0.03639974 -0.03640991 -0.03642495 -0.03644495
 -0.03646894 -0.03649627 -0.03652535 -0.03655499 -0.03658392 -0.0366114 -0.03663623 -0.03665792 -0.03667563 -0.03668901
 -0.03669826 -0.03670321 -0.03670547 -0.03670514 -0.03670355 -0.03670076 -0.03669759 -0.03669407 -0.03669069 -0.03668763
 -0.03668603 -0.03668621 -0.0366899 -0.0366969 -0.03670805 -0.03672196 -0.03673721 -0.03675218 -0.0367643 -0.03677411
 -0.03678045 -0.03678668 -0.03679389 -0.03680536 -0.03682283 -0.03684602 -0.03687569 -0.03690773 -0.03694188 -0.03697301
 -0.03700066 -0.03702188 -0.03703657 -0.03704595 -0.03705037 -0.03705397 -0.03705696 -0.03706281 -0.03707122 -0.03708312
 -0.03709811 -0.03711572 -0.03713603 -0.0371591 -0.03718458 -0.03721229 -0.03724148 -0.03727166 -0.03730218 -0.03733243
 -0.03736286 -0.03739323 -0.03742516 -0.03745886 -0.03749613 -0.03753742 -0.03758231 -0.03763095 -0.03767978 -0.03772863
 -0.03777377 -0.03781531 -0.03785298 -0.03788706 -0.03791905 -0.03794877 -0.03797631 -0.03800168 -0.0380246 -0.03804605
 -0.03806742 -0.03808946 -0.03811391 -0.03813986 -0.03816744 -0.03819506 -0.03822177 -0.03824734 -0.03827141 -0.03829438
 -0.03831629 -0.03833728 -0.03835734 -0.03837669 -0.03839535 -0.0384138 -0.03843208 -0.03845108 -0.03847084 -0.03849229
 -0.03851526 -0.03853962 -0.03856475 -0.03858855 -0.03861053 -0.038628 -0.03864241 -0.0386542 -0.03866638 -0.03868261
 -0.03870383 -0.03873293 -0.03876635 -0.03880366 -0.03883959 -0.03887195 -0.03889867 -0.03891835 -0.0389334 -0.03894381
 -0.03895301 -0.0389614 -0.03896979 -0.03897825 -0.0389853 -0.03899102 -0.0389956 -0.0389996 -0.03900634 -0.03901627
 -0.03903303 -0.03905569 -0.03908441 -0.03911701 -0.03915014 -0.03918236 -0.03921048 -0.03923485 -0.03925441 -0.0392709
 -0.03928521 -0.03929764 -0.03930892 -0.03931712 -0.03932187 -0.039322 -0.03931701 -0.03930879 -0.03929734 -0.03928602
 -0.03927499 -0.03926632 -0.03925994 -0.03925569 -0.0392534 -0.03925228 -0.0392519 -0.03925067 -0.0392477 -0.03924025
 -0.03922756 -0.03920671 -0.03917873 -0.03914263 -0.03910267 -0.03906121 -0.03902331 -0.03899283 -0.03897058 -0.03895891
 -0.03895209 -0.03894966 -0.03894421 -0.03893405 -0.03891793 -0.03889517 -0.03887182 -0.03884817 -0.03883122 -0.03882097
 -0.03881902 -0.03882464 -0.03883427 -0.03884727 -0.03885905 -0.03887018 -0.03887945 -0.03888826 -0.03889849 -0.0389109
 -0.03892776 -0.03894712 -0.03896878 -0.03898909 -0.03900595 -0.03901732 -0.03902144 -0.03901985 -0.03901204 -0.03900284
 -0.0389928 -0.03898671 -0.03898529 -0.03898876 -0.03899719 -0.03900559 -0.03901374 -0.03901724 -0.03901672 -0.03901365
 -0.03900925 -0.03900898 -0.039013 -0.0390246 -0.03904295 -0.03906793 -0.03909943 -0.03913766 -0.03918145 -0.03923117
 -0.03928182 -0.03933153 -0.03937388 -0.03940485 -0.03942591 -0.03943473 -0.03944436 -0.03945595 -0.03948439 -0.03953172
 -0.03960212 -0.03969603 -0.03980511 -0.0399286 -0.04005362 -0.04017959 -0.04029645 -0.04040422 -0.0404974 -0.04057658
 -0.04064 -0.04068916 -0.04072512 -0.04075104 -0.0407705 -0.04078739 -0.0408061 -0.04082885 -0.04085885 -0.04089394
 -0.04093467 -0.04097601 -0.04101671 -0.04105342 -0.04108501 -0.04111255 -0.04113594 -0.04115748 -0.04117735 -0.0411955
 -0.0412119 -0.04122562 -0.04123693 -0.04124714 -0.04125663 -0.0412676 -0.04128007 -0.04129493 -0.04131263 -0.04133399
 -0.04136026 -0.04139359 -0.04143387 -0.04148275 -0.04153652 -0.04159406 -0.04165045 -0.0417031 -0.04175081 -0.04179232
 -0.04183 -0.04186419 -0.04189629 -0.0419267 -0.04195359 -0.04197686 -0.04199529 -0.04200897 -0.04201962 -0.04202736
 -0.042034 -0.04203941 -0.04204337 -0.04204702 -0.04205227 -0.04206251 -0.0420849 -0.04212113 -0.04217814 -0.04225038
 -0.04233744 -0.04242803 -0.04251529 -0.04259226 -0.04265296 -0.04270126 -0.04273605 -0.04276695 -0.04279568 -0.04282777
 -0.04286443 -0.04290374 -0.04294572 -0.04298527 -0.04302222 -0.04305364 -0.04307988 -0.04310187 -0.04312014 -0.04313745
 -0.04315379 -0.04317067 -0.04318745 -0.04320371 -0.04321883 -0.04323152 -0.04324243 -0.04325118 -0.04326005 -0.04327019
 -0.04328358 -0.04330194 -0.04332357 -0.04334896 -0.04337306 -0.04339482 -0.0434118 -0.04342318 -0.04343231 -0.04343931
 -0.04344898 -0.04346133 -0.04347577 -0.04349177 -0.0435048 -0.04351508 -0.04352077 -0.04352314 -0.04352487 -0.04352659
 -0.04353121 -0.04353764 -0.04354594 -0.0435544 -0.04356147 -0.0435662 -0.04356744 -0.04356525 -0.04355906 -0.04355049
 -0.04353963 -0.0435291 -0.04351937 -0.0435125 -0.04350898 -0.04350808 -0.04350984 -0.04351208 -0.04351474 -0.04351718
 -0.04351963 -0.0435237 -0.04352934 -0.04353746 -0.04354718 -0.04355669 -0.04356498 -0.04356882 -0.04356892 -0.04356445
 -0.04355779 -0.04355077 -0.04354542 -0.04354398 -0.04354576 -0.04355142 -0.04355822 -0.04356549 -0.0435713 -0.04357495
 -0.04357687 -0.04357694 -0.0435768 -0.04357659 -0.04357635 -0.04357597 -0.04357289 -0.04356696 -0.04355571 -0.04353968
 -0.04351968 -0.04349679 -0.04347461 -0.04345372 -0.04343725 -0.04342461 -0.04341641 -0.04341169 -0.04340995 -0.04340994
 -0.04341094 -0.04341129 -0.04341022 -0.04340618 -0.04339821 -0.04338724 -0.04337292 -0.04335877 -0.04334525 -0.04333435
 -0.04332634 -0.04332002 -0.04331531 -0.04331045 -0.04330559 -0.04330133 -0.04329784 -0.04329642 -0.04329662 -0.0432978
 -0.04329932 -0.04329936 -0.0432983 -0.04329561 -0.04329275 -0.04329092 -0.04329111 -0.0432945 -0.04330084 -0.04331049
 -0.04332228 -0.04333608 -0.04335032 -0.04336478 -0.04337765 -0.04338874 -0.04339631 -0.04340017 -0.04340049 -0.04339732
 -0.04339292 -0.04338742 -0.04338289 -0.04337917 -0.04337659 -0.04337465 -0.04337193 -0.04336812 -0.04336176 -0.04335317
 -0.04334195 -0.04332919 -0.04331566 -0.04330267 -0.04329157 -0.04328233 -0.0432756 -0.04326963 -0.04326395 -0.04325754
 -0.04324979 -0.04324224 -0.04323497 -0.04322997 -0.04322753 -0.04322652 -0.04322681 -0.04322466 -0.04322002 -0.04321074
 -0.04319725 -0.04318038 -0.04316059 -0.04313964 -0.04311785 -0.0430967 -0.04307647 -0.04305813 -0.0430418 -0.04302803
 -0.04301633 -0.04300662 -0.04299808 -0.04299024 -0.0429829 -0.04297591 -0.0429691 -0.04296247 -0.0429555 -0.04294807
 -0.04294013 -0.04293162 -0.04292339 -0.04291546 -0.04290798 -0.04290082 -0.04289259 -0.04288328 -0.0428717 -0.04285847
 -0.04284485 -0.04283157 -0.04282113 -0.04281313 -0.04280831 -0.04280526 -0.04280275 -0.04279999 -0.04279586 -0.04279075
 -0.04278457 -0.04277773 -0.04277042 -0.04276267 -0.04275444 -0.04274608 -0.04273759 -0.04272973 -0.04272261 -0.04271609
 -0.04271016 -0.04270431 -0.04269859 -0.0426936 -0.04268933 -0.04268631 -0.04268413 -0.04268174 -0.04267881 -0.04267381
 -0.04266755 -0.04266028 -0.04265374 -0.04265013 -0.04264969 -0.04265414 -0.04266035 -0.04266765 -0.04267187 -0.04267099
 -0.04266465 -0.04265163 -0.04263702 -0.04262125 -0.04260961 -0.0426028 -0.04260089 -0.04260385 -0.04260769 -0.0426123
 -0.04261525 -0.04261678 -0.04261696 -0.04261582 -0.04261342 -0.04260978 -0.0426046 -0.04259891 -0.04259416 -0.04259122
 -0.04259221 -0.04259564 -0.0426017 -0.04260704 -0.04260976 -0.04260859 -0.04260201 -0.0425929 -0.04258145 -0.04257144
 -0.04256364 -0.04255908 -0.0425581 -0.04255826 -0.04255943 -0.04255832 -0.04255487 -0.04254736 -0.04253598 -0.04252077
 -0.04250202 -0.04248069 -0.04245719 -0.04243269 -0.04240796 -0.04238449 -0.04236343 -0.0423466 -0.04233458 -0.04232878
 -0.04232789 -0.04233218 -0.04233822 -0.04234504 -0.04234947 -0.04235031 -0.04234727 -0.04233988 -0.04233073 -0.04232
 -0.04231015 -0.04230132 -0.04229385 -0.04228767 -0.0422821 -0.04227706 -0.04227198 -0.04226666 -0.04226028 -0.04225232
 -0.04224112 -0.04222637 -0.04220651 -0.04218242 -0.04215395 -0.04212356 -0.04209268 -0.04206429 -0.0420403 -0.0420225
 -0.04201233 -0.04200881 -0.04201244 -0.04201947 -0.04202964 -0.04203839 -0.04204526 -0.04204734 -0.04204445 -0.04203763
 -0.04202717 -0.04201696 -0.04200712 -0.04200057 -0.04199658 -0.04199412 -0.04199233 -0.04198826 -0.04198239 -0.04197384
 -0.04196408 -0.04195461 -0.04194606 -0.04193968 -0.04193496 -0.04193211 -0.04193012 -0.04192883 -0.0419269 -0.04192426
 -0.04191842 -0.04190893 -0.04189443 -0.04187448 -0.04185161 -0.04182592 -0.04180237 -0.04178106 -0.04176441 -0.04175186
 -0.04174118 -0.04173174 -0.04171961 -0.04170531 -0.04168776 -0.04166859 -0.0416502 -0.04163326 -0.04162012 -0.04160895
 -0.04159936 -0.04158855 -0.04157443 -0.0415568 -0.04153444 -0.04151072 -0.04148604 -0.04146433 -0.04144648 -0.04143364
 -0.0414262 -0.04142238 -0.04142212 -0.0414224 -0.0414231 -0.04142198 -0.04141919 -0.04141456 -0.04140834 -0.04140157
 -0.04139412 -0.04138634 -0.04137762 -0.04136691 -0.04135429 -0.04133913 -0.04132258 -0.0413054 -0.04128837 -0.04127228
 -0.04125695 -0.04124258 -0.04122856 -0.04121465 -0.04120113 -0.04118801 -0.04117562 -0.04116404 -0.0411529 -0.04114218
 -0.04113068 -0.04111836 -0.04110438 -0.04108886 -0.04107195 -0.04105419 -0.04103775 -0.04102301 -0.04101245 -0.04100531
 -0.04100191 -0.04099988 -0.04099642 -0.04098974 -0.04097667 -0.04095871 -0.04093522 -0.04091005 -0.0408846 -0.04086142
 -0.0408418 -0.04082529 -0.04081213 -0.04080064 -0.04079065 -0.04078082 -0.04077106 -0.04075994 -0.0407474 -0.04073225
 -0.04071469 -0.04069527 -0.0406745 -0.04065472 -0.04063627 -0.04062135 -0.04060962 -0.04060167 -0.04059654 -0.04059345
 -0.04059117 -0.04058827 -0.04058442 -0.04057847 -0.04057243 -0.04056634 -0.04056422 -0.04056751 -0.04057742 -0.04059531
 -0.04061513 -0.04063683 -0.04064982 -0.04065333 -0.04064296 -0.04061905 -0.04058875 -0.04055292 -0.04052193 -0.04049469
 -0.04047251 -0.04045316 -0.04043053 -0.040405 -0.04037392 -0.04033965 -0.04030494 -0.04026919 -0.04023308 -0.04019481
 -0.04015197 -0.04010889 -0.04006587 -0.04003042 -0.04000544 -0.03999208 -0.03999183 -0.03999873 -0.04001261 -0.04002494
 -0.04003512 -0.04003676 -0.04002972 -0.04001277 -0.03998657 -0.0399554 -0.03992007 -0.03988662 -0.03985473 -0.03982707
 -0.03980196 -0.03977717 -0.03975208 -0.03972394 -0.03969562 -0.0396686 -0.03964581 -0.03963058 -0.03962053 -0.03961638
 -0.03961182 -0.03960494 -0.03959253 -0.03957329 -0.03954833 -0.03951756 -0.03948304 -0.03944486 -0.0394051 -0.03936394
 -0.03932552 -0.03928997 -0.03926051 -0.03923651 -0.03921708 -0.03920121 -0.03918517 -0.03916947 -0.039153 -0.03913736
 -0.03912468 -0.03911486 -0.03910944 -0.03910515 -0.03910056 -0.03909243 -0.03907836 -0.03905916 -0.03903406 -0.03900691
 -0.03897847 -0.03895066 -0.03892403 -0.0388972 -0.03887011 -0.03884169 -0.03881199 -0.03878281 -0.03875427 -0.03872837
 -0.03870474 -0.03868281 -0.03866215 -0.03864088 -0.03861938 -0.0385973 -0.03857556 -0.03855535 -0.03853711 -0.03852191
 -0.03850921 -0.03849927 -0.03849058 -0.0384828 -0.03847371 -0.03846271 -0.03844772 -0.03842794 -0.03840391 -0.03837528
 -0.03834607 -0.03831651 -0.03829129 -0.03827053 -0.03825523 -0.03824487 -0.03823533 -0.03822604 -0.03821192 -0.03819344
 -0.0381689 -0.03813999 -0.03810922 -0.038078 -0.03804971 -0.03802394 -0.03800199 -0.03798174 -0.03796209 -0.03794179
 -0.03791953 -0.03789666 -0.03787325 -0.03785085 -0.03783011 -0.03780998 -0.03779062 -0.03776897 -0.03774473 -0.03771734
 -0.03768685 -0.03765581 -0.03762442 -0.03759547 -0.03756878 -0.0375449 -0.03752351 -0.03750386 -0.03748586 -0.03746905
 -0.03745324 -0.0374381 -0.0374232 -0.03740814 -0.03739218 -0.03737464 -0.03735536 -0.03733372 -0.03731118 -0.03728778
 -0.03726614 -0.03724698 -0.03723106 -0.03721895 -0.03720719 -0.03719561 -0.03717997 -0.03716013 -0.03713562 -0.03710685
 -0.03707762 -0.03704827 -0.03702267 -0.03700034 -0.03698204 -0.03696672 -0.03695244 -0.03693866 -0.03692363 -0.03690758
 -0.03688993 -0.03687158 -0.03685326 -0.03683477 -0.03681656 -0.03679699 -0.03677571 -0.03675115 -0.03672268 -0.03669086
 -0.03665549 -0.03661925 -0.03658231 -0.0365481 -0.0365168 -0.03649056 -0.03646922 -0.03645218 -0.03643886 -0.03642613
 -0.03641338 -0.03639689 -0.03637673 -0.036351 -0.03632079 -0.03628676 -0.03625048 -0.03621367 -0.03617799 -0.03614514
 -0.03611598 -0.03609164 -0.03607115 -0.03605469 -0.03604004 -0.03602676 -0.03601319 -0.0359989 -0.03598405 -0.03596858
 -0.03595344 -0.03593863 -0.03592382 -0.03590884 -0.03589169 -0.03587236 -0.03584959 -0.03582389 -0.03579627 -0.03576728
 -0.03573883 -0.03571067 -0.03568335 -0.03565633 -0.03562897 -0.03560181 -0.03557488 -0.03554924 -0.03552559 -0.03550394
 -0.03548474 -0.03546627 -0.03544821 -0.03542935 -0.03540939 -0.03538856 -0.03536686 -0.03534483 -0.03532249 -0.03530002
 -0.03527743 -0.03525516 -0.03523331 -0.03521272 -0.0351932 -0.03517472 -0.0351566 -0.03513718 -0.03511637 -0.03509298
 -0.03506811 -0.03504229 -0.03501706 -0.03499398 -0.03497308 -0.03495519 -0.03493848 -0.03492261 -0.03490564 -0.0348869
 -0.03486616 -0.03484323 -0.03481889 -0.03479316 -0.03476724 -0.0347412 -0.03471637 -0.03469279 -0.03467149 -0.03465229
 -0.03463476 -0.03461834 -0.0346007 -0.03458168 -0.03455945 -0.03453499 -0.03450879 -0.03448243 -0.03445804 -0.03443602
 -0.03441767 -0.03440173 -0.03438799 -0.03437487 -0.03436163 -0.03434801 -0.03433383 -0.03431909 -0.03430386 -0.0342874
 -0.03426968 -0.0342497 -0.03422739 -0.0342031 -0.03417696 -0.03415089 -0.034125 -0.03410106 -0.03407881 -0.03405843
 -0.03403934 -0.0340203 -0.03400093 -0.03397995 -0.03395758 -0.03393343 -0.03390831 -0.03388265 -0.03385729 -0.03383291
 -0.03380944 -0.03378716 -0.03376519 -0.03374337 -0.03372089 -0.03369744 -0.03367374 -0.03364979 -0.03362665 -0.0336044
 -0.03358264 -0.03356124 -0.03353804 -0.03351303 -0.03348495 -0.03345446 -0.03342313 -0.03339189 -0.03336393 -0.03333919
 -0.03331936 -0.03330296 -0.03328912 -0.03327596 -0.03326157 -0.03324519 -0.03322536 -0.0332039 -0.03318088 -0.03315915
 -0.03313955 -0.03312344 -0.03311153 -0.03310172 -0.03309406 -0.03308459 -0.03307309 -0.03305696 -0.03303626 -0.03301146
 -0.03298293 -0.03295317 -0.03292247 -0.03289336 -0.03286559 -0.03283991 -0.03281562 -0.03279169 -0.03276803 -0.03274374
 -0.03272014 -0.03269801 -0.03267848 -0.032663 -0.03264978 -0.032639 -0.03262669 -0.03261175 -0.03259205 -0.03256669
 -0.03253743 -0.03250417 -0.03247107 -0.03243836 -0.0324085 -0.03238144 -0.03235684 -0.03233447 -0.03231248 -0.03229092
 -0.03226897 -0.03224703 -0.03222569 -0.03220534 -0.0321871 -0.03217053 -0.03215576 -0.03214175 -0.03212759 -0.03211271
 -0.03209631 -0.032079 -0.03206073 -0.03204262 -0.03202521 -0.03200783 -0.03199068 -0.0319711 -0.0319488 -0.0319222
 -0.03189112 -0.03185808 -0.0318233 -0.03179101 -0.03176109 -0.03173489 -0.03171173 -0.03168967 -0.03166825 -0.03164515
 -0.03162076 -0.0315947 -0.0315676 -0.0315401 -0.03151267 -0.03148599 -0.03146004 -0.03143503 -0.03141068 -0.03138695
 -0.03136344 -0.03133987 -0.03131679 -0.03129419 -0.03127323 -0.03125409 -0.03123692 -0.03122176 -0.03120717 -0.03119305
 -0.0311773 -0.03115992 -0.03113981 -0.03111719 -0.03109225 -0.03106543 -0.03103785 -0.03100996 -0.03098319 -0.03095749
 -0.03093353 -0.03091069 -0.03088887 -0.03086689 -0.03084419 -0.03081929 -0.03079147 -0.03075981 -0.03072357 -0.03068411
 -0.0306411 -0.03059887 -0.0305578 -0.03052201 -0.03049188 -0.0304679 -0.03044992 -0.03043421 -0.03042039 -0.03040362
 -0.03038411 -0.03036005 -0.03033219 -0.03030167 -0.03026923 -0.03023678 -0.03020464 -0.03017404 -0.0301449 -0.03011774
 -0.03009182 -0.030067 -0.03004205 -0.03001641 -0.0299894 -0.02996044 -0.02993086 -0.02990069 -0.02987207 -0.02984534
 -0.02982109 -0.02979945 -0.02977833 -0.02975757 -0.02973396 -0.02970749 -0.02967656 -0.02964172 -0.02960429 -0.02956517
 -0.02952756 -0.02949176 -0.02946018 -0.02943165 -0.02940586 -0.02938089 -0.02935486 -0.02932663 -0.02929451 -0.02925963
 -0.02922179 -0.02918325 -0.02914453 -0.02910764 -0.02907319 -0.02904155 -0.02901296 -0.02898614 -0.02896106 -0.02893563
 -0.02890979 -0.02888223 -0.02885302 -0.02882232 -0.02879031 -0.02875786 -0.02872517 -0.02869319 -0.02866201 -0.02863228
 -0.02860376 -0.02857655 -0.02854991 -0.02852326 -0.02849582 -0.02846688 -0.0284362 -0.02840346 -0.02836881 -0.02833222
 -0.02829395 -0.02825408 -0.02821273 -0.02816988 -0.02812588 -0.02808072 -0.02803547 -0.02799019 -0.0279468 -0.02790537
 -0.0278676 -0.0278333 -0.02780284 -0.0277755 -0.02774947 -0.02772389 -0.02769605 -0.0276659 -0.02763195 -0.02759529
 -0.02755642 -0.0275163 -0.02747606 -0.02743494 -0.02739304 -0.02734889 -0.02730178 -0.02725204 -0.02719929 -0.02714626
 -0.02709324 -0.02704249 -0.02699427 -0.02694815 -0.02690409 -0.02686019 -0.02681645 -0.02677202 -0.02672717 -0.02668283
 -0.02663893 -0.02659599 -0.02655326 -0.02650954 -0.026464 -0.02641467 -0.02636192 -0.02630513 -0.02624567 -0.02618423
 -0.02612193 -0.02605932 -0.0259977 -0.02593745 -0.02588012 -0.02582622 -0.025776 -0.02572989 -0.02568444 -0.02563957
 -0.02558932 -0.02553344 -0.0254687 -0.02539564 -0.02531807 -0.02523679 -0.0251582 -0.02508136 -0.02500713 -0.02493333
 -0.02485549 -0.02477319 -0.02468301 -0.02458808 -0.0244899 -0.02439237 -0.0242993 -0.02421069 -0.02412844 -0.02404807
 -0.02396888 -0.02388577 -0.0237973 -0.02370167 -0.02359808 -0.02348915 -0.02337496 -0.0232593 -0.02314233 -0.02302485
 -0.0229067 -0.02278648 -0.02266451 -0.02254152 -0.02241832 -0.02229821 -0.02218099 -0.02206809 -0.02195813 -0.02184924
 -0.02174161 -0.02163403 -0.0215292 -0.02142888 -0.02133423 -0.02124698 -0.02116446 -0.02108623 -0.02100983 -0.02093434
 -0.02086036 -0.02078788 -0.02071741 -0.02064915 -0.02058034 -0.02051082 -0.02043616 -0.02035655 -0.02027203 -0.02018347
 -0.02009583 -0.02000891 -0.01992525 -0.01984287 -0.01975883 -0.01967129 -0.01957601 -0.01947257 -0.01935892 -0.01923536
 -0.01910175 -0.01895761 -0.01880288 -0.01863628 -0.0184571 -0.01826569 -0.0180614 -0.01784824 -0.01762632 -0.01740212
 -0.01717621 -0.01695319 -0.01673326 -0.01651654 -0.01630255 -0.01608645 -0.01586706 -0.0156357 -0.01539161 -0.01512641
 -0.01484324 -0.0145433 -0.01423377 -0.0139272 -0.01362554 -0.01333766 -0.01305681 -0.01278116 -0.01250369 -0.01221918
 -0.01192816 -0.01162877 -0.01132676 -0.01102291 -0.01072261 -0.01042666 -0.01013914 -0.009860505 -0.00959326 -0.009337524
 -0.00909 -0.008850448 -0.008614399 -0.008382783 -0.008158509 -0.007942727 -0.007742205 -0.007554404 -0.007377819 -0.00720749
 -0.007033469 -0.006856781 -0.006672096 -0.006489892 -0.006317028 -0.006158973 -0.006022593 -0.00590124 -0.0057939 -0.005695437
 -0.005603126 -0.005521907 -0.005451944 -0.005399361 -0.00536509 -0.005347608 -0.005346862 -0.005356987 -0.005377961 -0.005407705
 -0.00544695 -0.005499061 -0.005564287 -0.005645748 -0.005742167 -0.005852301 -0.005974524 -0.006105701 -0.006244781 -0.006389468
 -0.006539115 -0.006692736 -0.006849336 -0.007008595 -0.007168211 -0.007327722 -0.007483638 -0.007635203 -0.007779133 -0.007914554
 -0.00804146 -0.008159502 -0.008272954 -0.008382035 -0.00849174 -0.008602166 -0.008715838 -0.008832494 -0.008951813 -0.009073658
 -0.009197262 -0.009322929 -0.00945103 -0.009581803 -0.009716011 -0.009853193 -0.009993308 -0.01013534 -0.01027858 -0.01042194
 -0.01056468 -0.01070596 -0.01084499 -0.01098277 -0.01111893 -0.01125712 -0.01139769 -0.01154486 -0.01169922 -0.01186154
 -0.0120319 -0.01220823 -0.0123906 -0.01257941 -0.01277534 -0.01298321 -0.0132027 -0.01343671 -0.01368098 -0.01392763
 -0.01417056 -0.01439483 -0.01460024 -0.01477895 -0.01493807 -0.01508055 -0.01521297 -0.0153407 -0.01546392 -0.01558457
 -0.01569854 -0.01580533 -0.01590076 -0.01598405 -0.01605244 -0.01610529 -0.01614404 -0.01616865 -0.01618821 -0.01620323
 -0.01622337 -0.01624812 -0.01627931 -0.01631565 -0.01635323 -0.01639145 -0.01642667 -0.01645933 -0.01648873 -0.016515
 -0.01653879 -0.01655794 -0.01657144 -0.01657576 -0.01656784 -0.01654854 -0.01651631 -0.01647771 -0.01643402 -0.01639068
 -0.01634905 -0.01631037 -0.01627495 -0.01624238 -0.01621265 -0.01618582 -0.01616191 -0.01614097 -0.01612292 -0.01610737
 -0.01609403 -0.0160814 -0.01606967 -0.01605788 -0.01604787 -0.0160417 -0.01604285 -0.01605624 -0.0160847 -0.01613276
 -0.01620012 -0.01628844 -0.01639451 -0.01651788 -0.01665427 -0.01680293 -0.01695857 -0.01712087 -0.01728117 -0.01743872
 -0.01758469 -0.01771835 -0.01783897 -0.01794683 -0.0180479 -0.01814247 -0.01823544 -0.01832633 -0.01841585 -0.01850319
 -0.01858645 -0.01866548 -0.018739 -0.01880752 -0.01887116 -0.0189304 -0.01898588 -0.01903721 -0.01908466 -0.01912666
 -0.01916295 -0.01919094 -0.01920997 -0.01921783 -0.01921399 -0.0191975 -0.01916815 -0.01912625 -0.01907179 -0.01900554
 -0.01892765 -0.01884099 -0.01874633 -0.01865078 -0.01855484 -0.0184649 -0.01837981 -0.01829965 -0.01822342 -0.0181486
 -0.01807659 -0.01800827 -0.01794465 -0.01788825 -0.01783525 -0.01778496 -0.01773104 -0.01766982 -0.01760106 -0.01752278
 -0.01744211 -0.01736007 -0.01728187 -0.01720864 -0.01713872 -0.01707213 -0.0170054 -0.01693843 -0.01686929 -0.01679813
 -0.01672517 -0.0166507 -0.01657633 -0.01650181 -0.01642783 -0.0163529 -0.01627497 -0.01619194 -0.01610022 -0.0159987
 -0.01588523 -0.01575926 -0.01562041 -0.01546655 -0.01529691 -0.01510914 -0.01490195 -0.01467644 -0.01443191 -0.01417443
 -0.01390437 -0.01362916 -0.01334928 -0.01307137 -0.01279581 -0.01252962 -0.01227341 -0.01203525 -0.01181574 -0.01162183
 -0.01145367 -0.01131505 -0.01120635 -0.01112965 -0.01108613 -0.01107809 -0.01110644 -0.01117341 -0.0112775 -0.01141926
 -0.01159437 -0.01180212 -0.01203523 -0.0122923 -0.01256417 -0.01284941 -0.01313849 -0.01343026 -0.01371696 -0.01399797
 -0.01426821 -0.0145275 -0.01477327 -0.01500562 -0.01522423 -0.01542939 -0.01562226 -0.01580311 -0.01597349 -0.01613301
 -0.01628199 -0.01641909 -0.01654269 -0.01665171 -0.01674398 -0.01682099 -0.01688209 -0.01693216 -0.01697241 -0.01700948
 -0.01704542 -0.01708532 -0.01713088 -0.0171827 -0.01724156 -0.0173024 -0.01736508 -0.01742094 -0.01746957 -0.01750416
 -0.01752508 -0.0175323 -0.0175271 -0.01751532 -0.01749777 -0.01748012 -0.01746194 -0.01744493 -0.01742879 -0.01741328
 -0.01739974 -0.01738907 -0.0173834 -0.01738456 -0.01739325 -0.01741076 -0.01743501 -0.01746603 -0.01750009 -0.01753662
 -0.01757203 -0.01760581 -0.01763563 -0.01766131 -0.01768085 -0.01769415 -0.01769929 -0.01769645 -0.01768606 -0.01766917
 -0.01765084 -0.01763239 -0.0176208 -0.01761583 -0.01762086 -0.01763362 -0.01765262 -0.01767505 -0.01769749 -0.01771861
 -0.01773636 -0.01775079 -0.01776123 -0.01776879 -0.01777334 -0.01777731 -0.01778091 -0.01778745 -0.01779744 -0.01781243
 -0.0178327 -0.01785625 -0.01788292 -0.01790877 -0.01793372 -0.01795551 -0.01797455 -0.01799179 -0.01800755 -0.01802362
 -0.01803938 -0.01805468 -0.0180682 -0.01807774 -0.0180831 -0.01808278 -0.01807857 -0.01807122 -0.01806241 -0.01805371
 -0.01804369 -0.01803259 -0.01801712 -0.01799626 -0.0179698 -0.01793719 -0.01790245 -0.01786586 -0.0178304 -0.01779616
 -0.01776094 -0.01772455 -0.01768385 -0.01763931 -0.01759173 -0.01754177 -0.01749237 -0.01744291 -0.01739355 -0.0173434
 -0.01729053 -0.01723638 -0.01718102 -0.01712793 -0.01707984 -0.01703816 -0.01700497 -0.01697777 -0.01695641 -0.01693767
 -0.01692058 -0.01690473 -0.01688986 -0.01687676 -0.01686556 -0.01685484 -0.01684451 -0.0168317 -0.0168164 -0.01679741
 -0.01677522 -0.01675167 -0.01672727 -0.01670491 -0.01668431 -0.01666654 -0.01665042 -0.01663481 -0.0166184 -0.01659917
 -0.01657707 -0.01655101 -0.0165228 -0.01649265 -0.01646355 -0.01643644 -0.01641387 -0.01639685 -0.01638533 -0.01637974
 -0.01637715 -0.01637746 -0.01637624 -0.01637327 -0.01636605 -0.01635479 -0.0163409 -0.01632503 -0.01631135 -0.01630037
 -0.01629616 -0.01629855 -0.01630953 -0.01632784 -0.01635291 -0.01638235 -0.01641367 -0.0164443 -0.01647137 -0.01649398
 -0.01651059 -0.01652247 -0.01652949 -0.01653398 -0.01653633 -0.01653884 -0.01654192 -0.01654697 -0.0165542 -0.01656349
 -0.01657482 -0.01658663 -0.01659883 -0.01660985 -0.01661964 -0.01662726 -0.01663248 -0.01663414 -0.01663179 -0.01662367
 -0.01660997 -0.01658981 -0.01656464 -0.01653549 -0.01650419 -0.01647282 -0.01644124 -0.01641061 -0.01637782 -0.01634246
 -0.01630023 -0.01624993 -0.01618948 -0.01611818 -0.0160367 -0.01594489 -0.01584559 -0.01573896 -0.01562965 -0.01551799
 -0.01540935 -0.01530368 -0.01520371 -0.01510859 -0.01501672 -0.01492769 -0.01483911 -0.01475265 -0.01466983 -0.0145925
 -0.0145242 -0.0144633 -0.01441061 -0.01436126 -0.01431275 -0.01426221 -0.01420724 -0.01415023 -0.01409093 -0.0140339
 -0.01398002 -0.01393087 -0.01388692 -0.01384564 -0.01380691 -0.01376738 -0.01372702 -0.01368444 -0.01363987 -0.01359422
 -0.01354749 -0.01350047 -0.01345238 -0.01340199 -0.01334818 -0.01328834 -0.01322238 -0.01314869 -0.0130691 -0.01298411
 -0.01289676 -0.012809 -0.01272216 -0.01263767 -0.01255359 -0.01246994 -0.0123837 -0.01229431 -0.01220046 -0.01210188
 -0.01199924 -0.01189254 -0.0117832 -0.0116713 -0.01155837 -0.01144449 -0.01133099 -0.01121766 -0.01110435 -0.01099081
 -0.01087571 -0.01076055 -0.01064627 -0.01053686 -0.01043721 -0.01035053 -0.01028208 -0.01022979 -0.01019495 -0.01017147
 -0.01015733 -0.01014828 -0.01014251 -0.01013963 -0.01013942 -0.01014123 -0.01014521 -0.01014761 -0.01014824 -0.01014387
 -0.01013461 -0.010122 -0.01010637 -0.01009112 -0.01007555 -0.01005909 -0.01004011 -0.01001375 -0.009980011 -0.009935696
 -0.009884079 -0.00982724 -0.009769685 -0.009715995 -0.009668448 -0.009629845 -0.009599999 -0.009579377 -0.009567734 -0.009564843
 -0.00957187 -0.009589071 -0.009616731 -0.009655172 -0.009701281 -0.00975495 -0.009809456 -0.009864469 -0.009913753 -0.009957595
 -0.009994454 -0.01002564 -0.01005535 -0.01008483 -0.0101199 -0.01015983 -0.01020692 -0.01025746 -0.01030848 -0.01035497
 -0.01039138 -0.01041555 -0.01042357 -0.01041917 -0.01040189 -0.01037955 -0.01035378 -0.01033201 -0.01031572 -0.01031018
 -0.01031613 -0.01033707 -0.0103733 -0.01042578 -0.01049433 -0.01057573 -0.01066943 -0.01076991 -0.01087677 -0.01098543
 -0.01109577 -0.01120523 -0.01131386 -0.01142034 -0.01152536 -0.01162905 -0.01173271 -0.01183761 -0.01194443 -0.01205426
 -0.01216614 -0.01228005 -0.01239465 -0.01250955 -0.01262397 -0.0127378 -0.01285007 -0.01296078 -0.01306774 -0.01317079
 -0.01326798 -0.01335921 -0.01344342 -0.01352047 -0.01358882 -0.01364803 -0.01369523 -0.01373031 -0.01375096 -0.01375861
 -0.01375409 -0.01374071 -0.01372261 -0.01370344 -0.013688 -0.01367784 -0.01367587 -0.01368021 -0.01369124 -0.01370514
 -0.01372084 -0.01373605 -0.01374995 -0.01376307 -0.01377544 -0.0137873 -0.01379878 -0.01380657 -0.01381043 -0.01380505
 -0.01379059 -0.01376519 -0.01373005 -0.01368892 -0.01364362 -0.01360119 -0.01356266 -0.01353399 -0.01351342 -0.01350212
 -0.01349502 -0.01348817 -0.01347711 -0.01345663 -0.0134291 -0.01339286 -0.0133567 -0.01332283 -0.01329757 -0.0132835
 -0.01327721 -0.01327916 -0.01328007 -0.01327936 -0.01326916 -0.01324927 -0.01321737 -0.013174 -0.01312208 -0.01306262
 -0.01300154 -0.01293941 -0.01288117 -0.01282633 -0.01277636 -0.0127303 -0.01268736 -0.01264702 -0.01260844 -0.01257153
 -0.0125358 -0.01250197 -0.01246988 -0.01244166 -0.01241805 -0.01239989 -0.0123882 -0.0123782 -0.01236982 -0.01235492
 -0.01233277 -0.01230173 -0.01226203 -0.01222125 -0.01217981 -0.01214498 -0.01211548 -0.0120893 -0.01206493 -0.01203603
 -0.01200419 -0.01196879 -0.01193366 -0.0119044 -0.01188189 -0.01187034 -0.01186507 -0.01186507 -0.01186375 -0.01185761
 -0.01184388 -0.0118203 -0.01178938 -0.01175092 -0.01170953 -0.01166579 -0.01162247 -0.0115799 -0.01153686 -0.01149327
 -0.01144715 -0.01139882 -0.01135007 -0.01130178 -0.01125923 -0.01122266 -0.01119593 -0.01117779 -0.01116774 -0.01116396
 -0.01116361 -0.01116559 -0.01116763 -0.0111698 -0.01117151 -0.01117302 -0.01117487 -0.01117515 -0.01117399 -0.01116681
 -0.01115274 -0.01112808 -0.01109171 -0.01104664 -0.01099277 -0.01093896 -0.01088566 -0.01084047 -0.01080321 -0.01077537
 -0.01075604 -0.01074183 -0.01073148 -0.01071962 -0.01070508 -0.01068272 -0.01065245 -0.01061125 -0.0105616 -0.0105043
 -0.0104433 -0.01038165 -0.01032161 -0.01026537 -0.01021223 -0.01016247 -0.01011481 -0.01006884 -0.01002479 -0.009982591
 -0.009943083 -0.009906347 -0.00987262 -0.009841903 -0.009813834 -0.009788368 -0.00976507 -0.009743691 -0.009722802 -0.009702077
 -0.009679521 -0.009655508 -0.009629853 -0.00960302 -0.009576115 -0.00954795 -0.009518095 -0.009484353 -0.009444444 -0.009399123
 -0.009347331 -0.009293479 -0.009238987 -0.009186071 -0.009136069 -0.009086086 -0.009035808 -0.008983435 -0.008928477 -0.00887621
 -0.008826904 -0.008786808 -0.008755431 -0.008730183 -0.008709705 -0.008684956 -0.008656442 -0.008620402 -0.008579518 -0.008538175
 -0.008497356 -0.008461365 -0.008427564 -0.008394523 -0.008360834 -0.008323564 -0.008287274 -0.008253232 -0.008225972 -0.008208894
 -0.008196952 -0.008190776 -0.008178648 -0.008158509 -0.008126211 -0.008080661 -0.008030237 -0.007975351 -0.007925189 -0.007879481
 -0.007838337 -0.007800841 -0.007761753 -0.007721449 -0.007678384 -0.007633503 -0.007588469 -0.007543103 -0.007497796 -0.00745236
 -0.007406289 -0.007360877 -0.007316954 -0.007275329 -0.007237004 -0.007200795 -0.007166323 -0.007133442 -0.007101604 -0.00707363
 -0.007049962 -0.007031958 -0.007020031 -0.007010593 -0.007003454 -0.006993355 -0.00698021 -0.006961357 -0.00693714 -0.006907885
 -0.006874253 -0.006838524 -0.006801327 -0.006765496 -0.006730522 -0.006697039 -0.006663886 -0.006629413 -0.006594759 -0.006559506
 -0.006527302 -0.006500537 -0.00647924 -0.006465132 -0.006452039 -0.006438938 -0.006420475 -0.006395196 -0.006364174 -0.006327262
 -0.006287538 -0.00624516 -0.006201204 -0.00615583 -0.006111206 -0.006067672 -0.006028734 -0.005993784 -0.005962732 -0.005934455
 -0.00590572 -0.005877353 -0.005849066 -0.005822351 -0.005800066 -0.005779095 -0.00575902 -0.005733646 -0.005698599 -0.005653803
 -0.005596554 -0.005535803 -0.005473047 -0.005416093 -0.005367282 -0.00532374 -0.005285678 -0.005245931 -0.00520411 -0.00516055
 -0.005115817 -0.00507798 -0.005047046 -0.005027843 -0.005018377 -0.005014321 -0.005013429 -0.005007848 -0.004997493 -0.004978287
 -0.004952187 -0.004919589 -0.004883073 -0.004844367 -0.00480659 -0.004771643 -0.004742252 -0.004720506 -0.004704851 -0.004696538
 -0.00468679 -0.004674806 -0.004650634 -0.004612787 -0.004560726 -0.004494305 -0.004424039 -0.004350476 -0.004283791 -0.004223406
 -0.004170837 -0.004125169 -0.004083485 -0.004046259 -0.004013415 -0.003985129 -0.003962513 -0.00394319 -0.003925029 -0.003905579
 -0.003881513 -0.003853739 -0.003821216 -0.003787558 -0.003753345 -0.003723632 -0.003699578 -0.003685897 -0.003684339 -0.003691635
 -0.003708267 -0.003722362 -0.003733234 -0.003733112 -0.003722364 -0.00370514 -0.003682958 -0.00366822 -0.003660633 -0.00366704
 -0.003683244 -0.003702453 -0.003720801 -0.003727365 -0.003723771 -0.003706733 -0.003681479 -0.00365175 -0.003619628 -0.003588261
 -0.003554688 -0.003518388 -0.003477105 -0.003429042 -0.003378988 -0.003326704 -0.003282167 -0.00324662 -0.00322431 -0.003215689
 -0.003213566 -0.00321732 -0.003215428 -0.003208355 -0.003192883 -0.003171367 -0.003150982 -0.003133921 -0.003130284 -0.003138612
 -0.003163044 -0.003195761 -0.003230104 -0.003256404 -0.003262629 -0.003248807 -0.003209239 -0.003155099 -0.003089861 -0.003020347
 -0.002950314 -0.002875923 -0.002796249 -0.00271328 -0.00262581 -0.00255252 -0.002494465 -0.00246934 -0.002476737 -0.002510273
 -0.002566997 -0.002622932 -0.002677202 -0.002712533 -0.002732357 -0.002736277 -0.002729028 -0.002719444 -0.002708929 -0.00270403
 -0.002700824 -0.002698751 -0.00269233 -0.002677268 -0.002653455 -0.002618521 -0.00257912 -0.002536211 -0.002496952 -0.00246309
 -0.002436772 -0.0024187 -0.002406493 -0.002400065 -0.002396235 -0.002394932 -0.00239495 -0.002396453 -0.002400535 -0.002406516
 -0.002412927 -0.002417427 -0.002412507 -0.002397806 -0.002367006 -0.002326686 -0.002281265 -0.002240329 -0.002215829 -0.002206941
 -0.002220007 -0.002239597 -0.002261833 -0.002270884 -0.002260101 -0.002227755 -0.002171023 -0.002101151 -0.002018739 -0.001936609
 -0.001855731 -0.001781891 -0.001715084 -0.001653665 -0.001597468 -0.00154417 -0.001494592 -0.001450916 -0.001414136 -0.001388907
 -0.001373665 -0.001369009 -0.001369606 -0.00136943 -0.001362645 -0.001340674 -0.001304435 -0.001249363 -0.001187351 -0.001121
 -0.001064903 -0.00102497 -0.00100387 -0.001004464 -0.001016637 -0.001039457 -0.001065803 -0.001094903 -0.001130267 -0.001171899
 -0.001220645 -0.001274592 -0.001319322 -0.001352235 -0.001352686 -0.001323156 -0.001257034 -0.001164769 -0.001061143 -0.00095955
 -0.0008846654 -0.0008418545 -0.0008474766 -0.0008929401 -0.0009798168 -0.001091639 -0.001222406 -0.00135797 -0.001493337 -0.001618772
 -0.001731489 -0.001826844 -0.001903343 -0.001965095 -0.002012132 -0.002053135 -0.002088242</values></Ydata></AB><ScSm><Ydata ylabel="Single channel"><values byteorder="INTEL" format="FLOAT32" numvalues="1814"> 0.08021514 0.08031583 0.08043294 0.08057199 0.08072491 0.08087661 0.08101489 0.08113669 0.08124469 0.08133879
 0.08141966 0.08150207 0.08161084 0.08175635 0.08192091 0.08207263 0.08218901 0.0822746 0.08236153 0.08248016
 0.08261856 0.0827207 0.08273743 0.08267966 0.08261415 0.08260373 0.08266483 0.08279818 0.08302801 0.08334252
 0.08360865 0.08365696 0.08349314 0.08332903 0.08334894 0.08352597 0.08370745 0.08378448 0.0837338 0.08360511
 0.08354684 0.08376057 0.08431795 0.08500923 0.08540838 0.08512044 0.08404463 0.08251666 0.08122906 0.08086984
 0.08162569 0.08297327 0.08407116 0.0844394 0.08422 0.08381635 0.08347186 0.08326438 0.0832946 0.08367042
 0.08433239 0.08498043 0.08518991 0.08469185 0.08367704 0.0827612 0.08248118 0.08287905 0.08369125 0.0846685
 0.08533711 0.08476099 0.08236998 0.07921498 0.07764055 0.07911971 0.08271316 0.0860461 0.08747091 0.08694149
 0.08532709 0.0836436 0.08278403 0.08321527 0.08467497 0.08643202 0.08786559 0.0886316 0.08851267 0.08752112
 0.08609968 0.08493136 0.08455895 0.08523054 0.0868008 0.08857627 0.0895907 0.08936653 0.08827381 0.08705037
 0.08625735 0.08625394 0.08722907 0.08897824 0.09091888 0.09252019 0.09357975 0.09411012 0.0942113 0.09405082
 0.09378096 0.09351391 0.09343174 0.09369411 0.09412168 0.09423405 0.09378387 0.09309426 0.0927337 0.09293038
 0.09337616 0.09359811 0.09342836 0.0929173 0.0918517 0.08985594 0.08716194 0.08473441 0.08332781 0.08295633
 0.08350767 0.08506154 0.08714151 0.08848637 0.088319 0.08739461 0.08718544 0.0882888 0.09004894 0.09150949
 0.09234069 0.09289724 0.09366242 0.09470362 0.09553043 0.09545837 0.09431167 0.09286191 0.09231539 0.09314482
 0.09462805 0.09573388 0.09620322 0.09651791 0.09704964 0.09752247 0.09725456 0.09589021 0.09401487 0.09295005
 0.09366243 0.09580712 0.0979095 0.09848036 0.09707391 0.09452896 0.09226755 0.09127388 0.09171109 0.09332691
 0.09580503 0.09861308 0.1009191 0.1020117 0.1017908 0.1007515 0.09944615 0.09796817 0.09614442 0.09433636
 0.09365565 0.09492481 0.09761946 0.1002844 0.101877 0.1023469 0.1020465 0.1010246 0.09911759 0.09667654
 0.0948924 0.09491299 0.09653327 0.0982471 0.09884721 0.0985551 0.09833471 0.09857936 0.09889787 0.0989183
 0.09884342 0.09916016 0.1000159 0.1010285 0.1016898 0.1018316 0.1016641 0.101478 0.1013688 0.1011812
 0.1007496 0.1002696 0.1002813 0.1011006 0.1023942 0.103515 0.104141 0.1044009 0.1044794 0.1043015
 0.1036573 0.1026116 0.1016982 0.1015421 0.102254 0.103347 0.1042541 0.1047494 0.1048955 0.1048311
 0.1046781 0.1045078 0.1043531 0.1042899 0.1044289 0.1047661 0.1051366 0.1053778 0.1054634 0.1054436
 0.1053388 0.105144 0.1048971 0.1046979 0.1046454 0.1047602 0.1049803 0.1052247 0.1054273 0.105527
 0.1054894 0.1053527 0.1052031 0.1050967 0.105035 0.1050142 0.1050508 0.1051489 0.1052725 0.1053699
 0.1054159 0.1054183 0.1053894 0.1053327 0.1052566 0.1051865 0.1051563 0.1051872 0.1052658 0.1053518
 0.1054226 0.1055009 0.1056085 0.1057092 0.1057415 0.1056994 0.1056414 0.1056249 0.1056605 0.1057254
 0.1057893 0.1058215 0.1057952 0.1057076 0.1056043 0.1055649 0.1056426 0.1058268 0.1060702 0.1063276
 0.1065579 0.1067269 0.1068337 0.1069109 0.1069827 0.1070434 0.1070836 0.1071194 0.1071896 0.1073259
 0.107523 0.1077372 0.1079223 0.10806 0.1081564 0.1082353 0.1083367 0.1084846 0.1086444 0.108751
 0.1087915 0.108827 0.1089165 0.1090485 0.1091631 0.1092241 0.1092523 0.1092955 0.1093779 0.1094826
 0.1095807 0.1096682 0.1097691 0.1099011 0.1100406 0.1101306 0.1101357 0.1100827 0.1100325 0.1100189
 0.1100361 0.110075 0.1101423 0.1102359 0.1103253 0.1103729 0.1103726 0.1103564 0.1103585 0.1103774
 0.110381 0.1103463 0.1102828 0.1102186 0.1101741 0.1101504 0.1101346 0.1101104 0.1100674 0.1100034
 0.109923 0.1098337 0.1097422 0.1096555 0.1095899 0.1095689 0.1095925 0.1096108 0.1095511 0.1093858
 0.1091613 0.1089545 0.1088073 0.1087041 0.1086006 0.1084654 0.1083002 0.1081291 0.1079741 0.1078392
 0.1077144 0.1075915 0.1074765 0.107391 0.1073504 0.107337 0.1073014 0.1072072 0.1070681 0.1069316
 0.1068314 0.1067659 0.106716 0.1066681 0.1066229 0.1065947 0.1065952 0.1066134 0.106622 0.1066094
 0.1065944 0.1066046 0.1066551 0.1067463 0.106863 0.1069717 0.1070409 0.1070746 0.1071112 0.1071844
 0.1072952 0.1074258 0.107565 0.1077121 0.1078666 0.1080271 0.1081978 0.1083897 0.1086104 0.1088558
 0.1091104 0.1093585 0.1095961 0.1098351 0.1100933 0.1103796 0.1106858 0.1109952 0.1112968 0.1115924
 0.1118905 0.1121948 0.1125015 0.1128082 0.1131218 0.1134514 0.1137955 0.1141429 0.1144862 0.1148292
 0.1151788 0.1155364 0.1158976 0.1162607 0.1166337 0.1170283 0.1174391 0.1178352 0.1181846 0.1184895
 0.1187868 0.1191143 0.1194823 0.1198711 0.1202452 0.1205767 0.1208698 0.1211591 0.1214725 0.1218031
 0.122129 0.1224544 0.1228114 0.1232169 0.1236381 0.1240132 0.1243071 0.1245449 0.1247849 0.1250591
 0.1253488 0.1256179 0.1258588 0.126094 0.1263421 0.1266006 0.1268656 0.1271482 0.127457 0.1277762
 0.1280759 0.1283435 0.12859 0.1288275 0.12905 0.1292402 0.1293883 0.1295068 0.1296269 0.1297756
 0.1299497 0.1301246 0.130288 0.1304548 0.130644 0.1308587 0.131095 0.1313558 0.1316406 0.1319327
 0.132215 0.1324976 0.1328092 0.133152 0.1334827 0.1337557 0.1339748 0.1341826 0.1344081 0.1346497
 0.1349046 0.1351869 0.1355069 0.1358518 0.1361947 0.1365178 0.1368268 0.1371452 0.1374882 0.1378377
 0.1381508 0.138402 0.1386094 0.1388175 0.1390621 0.1393501 0.1396636 0.1399765 0.1402696 0.1405319
 0.1407495 0.1409079 0.1410102 0.1410813 0.1411396 0.1411678 0.1411237 0.1409767 0.140721 0.1403543
 0.1398609 0.1392279 0.1384781 0.1376849 0.1369539 0.136389 0.1360655 0.1360213 0.1362575 0.136737
 0.1373834 0.1380921 0.1387537 0.1392713 0.139566 0.139587 0.1393267 0.1388223 0.1381343 0.1373238
 0.1364463 0.1355503 0.1346758 0.1338695 0.1332163 0.1328447 0.1328915 0.133452 0.1345494 0.1361159
 0.1379842 0.1399219 0.1417198 0.1432727 0.1445864 0.1457189 0.1467249 0.1476433 0.1485067 0.1493373
 0.1501385 0.1508993 0.1516117 0.152276 0.1528901 0.1534426 0.1539155 0.1542931 0.1545699 0.1547554
 0.1548718 0.1549417 0.1549824 0.1550088 0.1550283 0.1550231 0.1549436 0.1547323 0.1543587 0.153841
 0.1532553 0.1527388 0.1524787 0.1526658 0.1534163 0.1547014 0.1563457 0.1581052 0.1597679 0.1612056
 0.1623711 0.16328 0.1639914 0.1645776 0.1650926 0.1655647 0.1660079 0.166432 0.1668424 0.1672415
 0.1676309 0.1680133 0.1683943 0.1687799 0.1691693 0.1695536 0.1699262 0.1702926 0.1706669 0.1710571
 0.1714582 0.1718566 0.1722442 0.172626 0.1730107 0.1733946 0.1737631 0.1741087 0.1744421 0.1747826
 0.175143 0.1755225 0.175908 0.1762811 0.1766301 0.1769577 0.1772757 0.1775915 0.1779055 0.1782169
 0.178528 0.1788398 0.1791492 0.1794536 0.179756 0.180061 0.1803656 0.1806585 0.1809318 0.1811913
 0.1814504 0.1817187 0.1819963 0.1822779 0.1825585 0.1828382 0.1831219 0.1834138 0.1837099 0.1839993
 0.1842743 0.1845374 0.1847983 0.1850655 0.1853405 0.185619 0.185897 0.1861744 0.1864535 0.1867355
 0.187019 0.1873012 0.18758 0.1878552 0.1881283 0.1884007 0.1886713 0.1889379 0.189201 0.1894649
 0.1897349 0.1900105 0.1902841 0.1905476 0.1907991 0.1910437 0.1912873 0.1915343 0.1917863 0.1920425
 0.1923005 0.1925587 0.1928153 0.1930688 0.1933201 0.1935719 0.1938251 0.1940789 0.1943337 0.194591
 0.1948499 0.1951088 0.1953677 0.1956268 0.1958841 0.1961379 0.1963905 0.1966456 0.1969047 0.197165
 0.1974214 0.1976706 0.1979146 0.1981597 0.198411 0.1986692 0.1989309 0.1991916 0.1994497 0.199706
 0.1999611 0.200213 0.2004611 0.2007088 0.2009602 0.2012153 0.2014703 0.2017225 0.2019736 0.2022292
 0.2024916 0.2027561 0.2030173 0.2032764 0.2035376 0.2038005 0.2040627 0.2043234 0.2045819 0.2048358
 0.2050858 0.2053359 0.2055905 0.2058509 0.2061151 0.2063775 0.2066338 0.2068849 0.2071353 0.2073881
 0.2076458 0.2079102 0.2081796 0.2084501 0.2087204 0.2089906 0.2092598 0.2095288 0.2098007 0.210077
 0.2103563 0.210637 0.2109149 0.2111825 0.2114354 0.2116759 0.2119091 0.2121407 0.2123774 0.2126207
 0.2128653 0.2131071 0.2133484 0.2135927 0.213842 0.2140987 0.2143622 0.2146261 0.214887 0.2151467
 0.2154067 0.2156671 0.2159304 0.2161986 0.2164684 0.2167376 0.2170082 0.217281 0.2175541 0.2178272
 0.2181002 0.2183725 0.2186469 0.2189263 0.2192056 0.2194781 0.2197472 0.2200206 0.2203 0.2205845
 0.2208735 0.2211623 0.2214463 0.2217287 0.2220139 0.2223 0.222585 0.2228697 0.2231521 0.2234313
 0.2237119 0.223995 0.2242754 0.2245535 0.2248363 0.225125 0.2254164 0.2257117 0.2260099 0.226305
 0.2265963 0.2268857 0.2271676 0.2274384 0.2277071 0.2279804 0.2282541 0.2285266 0.2287998 0.2290625
 0.2292888 0.2294266 0.2293403 0.2287399 0.2271361 0.2238444 0.2181166 0.2094373 0.1978308 0.1839536
 0.1689125 0.153917 0.1399526 0.1276467 0.11734 0.1092093 0.1033556 0.09989032 0.09900539 0.1010641
 0.1067179 0.1165174 0.1294949 0.1419459 0.1488166 0.147529 0.1403143 0.1321901 0.1268788 0.1249856
 0.1252614 0.126467 0.1281054 0.1302872 0.1333073 0.1372063 0.1417236 0.1467251 0.1524498 0.1591392
 0.1665597 0.1740903 0.1812413 0.1879654 0.1944752 0.2008646 0.2069642 0.2125027 0.2173152 0.2213979
 0.2248574 0.2278453 0.2304974 0.2328994 0.2351038 0.2371419 0.2389856 0.240523 0.2416212 0.2422344
 0.2424598 0.242493 0.242517 0.2426214 0.2428161 0.2430919 0.2434437 0.2438623 0.2443379 0.2448633
 0.2454229 0.2459928 0.2465561 0.2471056 0.2476364 0.248147 0.2486396 0.2491104 0.2495537 0.2499729
 0.2503746 0.2507591 0.2511265 0.2514848 0.2518415 0.2521988 0.2525565 0.252911 0.2532522 0.2535712
 0.2538666 0.2541405 0.254398 0.254649 0.2549031 0.2551613 0.2554203 0.2556782 0.2559322 0.2561798
 0.2564222 0.2566616 0.2568969 0.2571291 0.2573621 0.2575963 0.2578289 0.2580591 0.2582885 0.2585177
 0.2587492 0.2589881 0.2592345 0.2594817 0.2597223 0.2599531 0.2601784 0.2604097 0.2606558 0.260914
 0.2611758 0.2614384 0.2617034 0.2619703 0.2622391 0.2625117 0.2627874 0.2630627 0.2633379 0.2636139
 0.2638831 0.2641311 0.2643512 0.2645533 0.2647582 0.264981 0.2652197 0.265461 0.2656977 0.2659339
 0.2661749 0.2664206 0.266668 0.2669134 0.2671544 0.2673972 0.2676539 0.2679288 0.2682137 0.2685007
 0.2687887 0.269078 0.2693674 0.2696575 0.2699475 0.2702317 0.270505 0.2707723 0.2710508 0.2713593
 0.2717002 0.2720513 0.2723855 0.272697 0.2730008 0.2733124 0.2736375 0.2739676 0.2742743 0.2745284
 0.2747431 0.2749811 0.275298 0.2756885 0.2760991 0.2764829 0.2768287 0.2771495 0.2774587 0.2777573
 0.2780365 0.2782876 0.2785182 0.2787626 0.2790635 0.2794278 0.279815 0.2801797 0.2805102 0.2808165
 0.2811079 0.2813922 0.2816625 0.2818775 0.2820021 0.2820882 0.2822686 0.2826325 0.2831282 0.2836193
 0.28402 0.2843474 0.284654 0.2849597 0.285257 0.2855176 0.2856608 0.2855977 0.28539 0.2853028
 0.2855886 0.2862335 0.286989 0.2876241 0.2880793 0.2884147 0.2887036 0.2889807 0.2892212 0.2893478
 0.2893139 0.2892136 0.2892647 0.2896115 0.2901644 0.2906985 0.2910879 0.2913761 0.2916514 0.291948
 0.2922266 0.2923518 0.2921513 0.2916499 0.2912267 0.2913672 0.2921944 0.2933298 0.2942742 0.2948503
 0.2952032 0.2954527 0.2955129 0.2952529 0.2946612 0.2938436 0.2930658 0.2928016 0.2934257 0.2947326
 0.296019 0.2967898 0.2971841 0.2976176 0.2982388 0.2988676 0.2992858 0.2994334 0.2993715 0.2991506
 0.2987834 0.2983945 0.2983121 0.2988351 0.2998845 0.3010212 0.3018591 0.3023677 0.3026981 0.3027383
 0.3019981 0.3001917 0.2980017 0.2969084 0.2978775 0.3003459 0.3028305 0.3043931 0.3051526 0.3055958
 0.3059403 0.3060726 0.305531 0.3036558 0.30049 0.2975666 0.2969779 0.2993117 0.3029926 0.3058087
 0.3065973 0.3054808 0.3033112 0.3012806 0.3004954 0.3013739 0.3034673 0.3059182 0.3079759 0.3092054
 0.3095166 0.3091164 0.3084208 0.3079443 0.3079772 0.3081493 0.3076613 0.3063218 0.3049169 0.3040009
 0.302882 0.300755 0.2985011 0.2981411 0.3003355 0.3034271 0.3053604 0.3057859 0.3056902 0.3054115
 0.3038277 0.299835 0.294389 0.2904856 0.2905979 0.2942033 0.2982965 0.3003442 0.3002928 0.2997131
 0.2995948 0.2993017 0.2975244 0.2941324 0.2909007 0.2899221 0.2912604 0.2928578 0.2928156 0.2907342
 0.2867212 0.2809044 0.2749873 0.2725762 0.2759994 0.2834071 0.2904046 0.2938457 0.292818 0.2873343
 0.2786552 0.2706514 0.2680661 0.272139 0.2791553 0.2840378 0.2843491 0.2804046 0.2732066 0.2640017
 0.25534 0.2507559 0.2525147 0.2597883 0.2688211 0.2745594 0.273228 0.2653508 0.2564954 0.253085
 0.2563663 0.2615908 0.2636024 0.2616889 0.2585132 0.2564842 0.2564258 0.2580326 0.260222 0.261985
 0.2631627 0.2630396 0.2589243 0.2491233 0.2373884 0.2309302 0.232983 0.2402035 0.2481353 0.255698
 0.2626946 0.2665929 0.265222 0.2610698 0.2596952 0.2637932 0.2706267 0.2755198 0.2766022 0.2755734
 0.2746044 0.2737414 0.2719828 0.2700866 0.2706106 0.2747265 0.2803838 0.284537 0.2862048 0.2864709
 0.2864357 0.2862906 0.2858855 0.2851844 0.2842267 0.2831475 0.2821683 0.2813532 0.2805627 0.2797379
 0.2788216 0.2771299 0.2734112 0.2674737 0.2615674 0.2588209 0.2599463 0.2627976 0.2654507 0.2675899
 0.2679133 0.2630759 0.2520539 0.2400616 0.2349683 0.239697 0.2498964 0.2588318 0.2627131 0.261176
 0.2550093 0.2457826 0.2374357 0.2355916 0.2432255 0.2575529 0.2725388 0.2840098 0.2912349 0.2945716
 0.2938575 0.2896132 0.2843906 0.2817632 0.283877 0.2900476 0.2972877 0.3016928 0.3001359 0.2928402
 0.2850966 0.2840636 0.2916556 0.3019883 0.3078697 0.3083379 0.3076054 0.3083751 0.3095249 0.3098149
 0.3104831 0.3131613 0.3171909 0.3201711 0.320111 0.3162657 0.3091201 0.3009628 0.2955264 0.2950398
 0.2977701 0.3000141 0.2999037 0.2974472 0.2921947 0.2842365 0.2771159 0.2759348 0.2815498 0.2892692
 0.2942011 0.2958123 0.2964094 0.296994 0.2960854 0.2921985 0.2864721 0.282176 0.281501 0.2834858
 0.2855877 0.2864314 0.2860307 0.2842077 0.2805938 0.2763125 0.2741249 0.2759897 0.280982 0.2862071
 0.2894687 0.2906126 0.2906802 0.2905678 0.2905451 0.2904221 0.2899927 0.2896594 0.2904701 0.2929862
 0.2962842 0.2987915 0.3001025 0.3013115 0.3034697 0.3062938 0.3085943 0.3095945 0.3096187 0.3096949
 0.310638 0.312386 0.3140603 0.3147346 0.31434 0.3138408 0.3143644 0.3161255 0.318341 0.3201419
 0.3213086 0.3221434 0.3229692 0.323854 0.3245798 0.3248191 0.3245597 0.3243637 0.3249488 0.3264451
 0.3282472 0.3296351 0.3303676 0.3306416 0.3306798 0.3305143 0.3301068 0.3295378 0.3290119 0.3287032
 0.3286336 0.3287007 0.3287887 0.3288367 0.3288436 0.3288497 0.3289075 0.3290397 0.3292269 0.3294412
 0.329664 0.3298639 0.329998 0.3300597 0.3300933 0.3301288 0.3301259 0.3300016 0.3296889 0.3291466
 0.3283384 0.3272336 0.3258174 0.3240702 0.321961 0.3195457 0.3171457 0.3153913 0.3149562 0.3161232
 0.3185582 0.321501 0.3241994 0.3262326 0.327547 0.328294 0.3286591 0.3287829 0.3287541 0.3286191
 0.3283982 0.3281064 0.3277633 0.3273883 0.3270009 0.3266264 0.326292 0.3260084 0.3257595 0.3255074
 0.3252088 0.3248318 0.3243668 0.3238227 0.3232131 0.3225408 0.3217899 0.3209347 0.3199692 0.3189288
 0.3178791 0.3168766 0.3159351 0.3150224 0.3140886 0.3130887 0.3119693 0.3106588 0.3091331 0.3075133
 0.3060351 0.3048627 0.3039452 0.3030834 0.3021078 0.3009657 0.2996836 0.2983103 0.2968921 0.2954577
 0.2940069 0.2925186 0.2909653 0.2893229 0.2875782 0.285736 0.2838121 0.2818223 0.2797841 0.2777147
 0.2756007 0.2733628 0.2708584 0.2679276 0.2644377 0.2603027 0.2554936 0.2500646 0.2441731 0.2380549
 0.2319593 0.2260927 0.2206117 0.215648 0.2113249 0.2077521 0.2050103 0.2031443 0.2021685 0.2020788
 0.2028562 0.204459 0.2068104 0.2097893 0.2132333 0.2169525 0.2207424 0.2244032 0.2277868 0.2308525
 0.233665 0.2363092 0.2388055 0.2411121 0.2431867 0.2450206 0.2466207 0.2479875 0.249122 0.2500442
 0.250797 0.2514315 0.2519858 0.2524735 0.2528863 0.253211 0.2534476 0.2536168 0.2537546 0.2539015
 0.2540922 0.2543486 0.2546794 0.2550865 0.2555741 0.2561491 0.2568156 0.2575679 0.2583894 0.2592598
 0.2601703 0.261133 0.262178 0.26334 0.2646469 0.2661125 0.2677305 0.2694671 0.2712522 0.2729797
 0.2745329 0.2758211 0.276804 0.2774851 0.2778909 0.2780513 0.2779934 0.2777462 0.2773409 0.276804
 0.2761518 0.2753973 0.2745587 0.2736561 0.2727032 0.2717044 0.2706631 0.2695944 0.2685252 0.2674803
 0.2664695 0.2654938 0.2645509 0.2636316 0.2627211 0.2618147 0.2609236 0.2600643 0.2592473 0.2584747
 0.2577392 0.257019 0.2562774 0.2554685 0.2545489 0.2534871 0.2522634 0.250867 0.2493037 0.2476005
 0.2457875 0.2438776 0.2418714 0.2397759 0.2376075 0.235377 0.2330749 0.2306774 0.2281828 0.2256511
 0.2231899 0.2208887 0.2187744 0.2168246 0.2150053 0.2132917 0.2116709 0.2101329 0.2086651 0.2072598
 0.2059189 0.2046428 0.2034238 0.2022588 0.2011586 0.2001424 0.199232 0.198446 0.1977855 0.1972307
 0.196756 0.1963451 0.1959991 0.1957494 0.1956417 0.1956804 0.1957943 0.1958786 0.1958674 0.1957657
 0.1956301 0.1955207 0.1954629 0.1954472 0.1954491 0.1954223 0.195281 0.1949185 0.1942414 0.1931812
 0.1917026 0.1898274 0.1876454 0.1853014 0.1829728 0.1808301 0.1789879 0.1774929 0.1763447 0.1754978
 0.1748616 0.1743524 0.1739593 0.1737465 0.1737915 0.1740961 0.1745238 0.1748633 0.175014 0.1750973
 0.1753495 0.175924 0.1768017 0.1778377 0.1788618 0.1797605 0.1804917 0.1810461 0.1814336 0.1816919
 0.1818596 0.1819369 0.1819034 0.1817501 0.1814759 0.1810864 0.1806034 0.1800396 0.1793772 0.1786023
 0.1777309 0.1767792 0.1757466 0.1746276 0.1733927 0.171995 0.1704756 0.1690499 0.1680335 0.1676684
 0.1679928 0.1688273 0.1699082 0.1710623 0.1722164 0.1732679 0.1740973 0.174766 0.175593 0.1769393
 0.178907 0.181237 0.1834847 0.1853006 0.1865449 0.1871984 0.187286 0.1868756 0.186021 0.1847079
 0.1829472 0.1808584 0.1785879 0.1762528 0.1739963 0.1719587 0.1701992 0.1687366 0.1675788 0.1667202
 0.1662176 0.1657936 0.1638739 0.1581346 0.1487945 0.1407527 0.1398967 0.1467625 0.1557934 0.1613041
 0.1623145 0.1612076 0.1599717 0.159035 0.1583177 0.1578883 0.1578038 0.1579632 0.1581494 0.1581348
 0.1578256 0.1572417 0.1562566 0.1543603 0.1506605 0.1442117 0.1347157 0.1231527 0.1115613 0.1019582
 0.09534816 0.09152257 0.08949724 0.08819431 0.08705859 0.08625047 0.08628251 0.08749737 0.08987825 0.09320493
 0.0972105 0.1015507 0.1057544 0.1093725 0.1122104 0.114339 0.1158806 0.1168797 0.1173669 0.1174217
 0.1171341 0.1165721 0.1157899 0.1148145 0.1136297 0.1122228 0.1106708 0.1091775 0.1079918 0.1072441
 0.1068635 0.1066801 0.1065813 0.1065426 0.1065629 0.1066333 0.1067469 0.1069046 0.1071215 0.1074179
 0.1077779 0.10813 0.1083977 0.1085562 0.108629 0.1086384 0.1085581 0.1083314 0.1079658 0.1075651
 0.107182 0.1066658 0.1057833 0.1045203 0.1031984 0.102268 0.1019984 0.1023221 0.102915 0.1034309
 0.1037095 0.103804 0.1038368 0.1038305</values></Ydata></ScSm><ScRf><Ydata ylabel="Single channel"><values byteorder="INTEL" format="FLOAT32" numvalues="1820"> 0.06964941 0.06977987 0.06989492 0.06999329 0.07008004 0.07016811 0.07027189 0.07039624 0.07053459 0.07067499
 0.07080636 0.07092267 0.07102255 0.07110541 0.0711743 0.07124515 0.07134135 0.07147185 0.07162012 0.07175753
 0.07186463 0.07194538 0.07202613 0.07213105 0.07224949 0.07233535 0.07235005 0.07230537 0.07225764 0.07225777
 0.07231766 0.07243818 0.07264178 0.0729194 0.07315572 0.07320313 0.07306623 0.07292924 0.07295248 0.07311159
 0.07327205 0.07333848 0.0732931 0.07318395 0.07314337 0.07334529 0.07384658 0.07445963 0.07481055 0.07455431
 0.07360484 0.07226092 0.071135 0.0708321 0.07151206 0.07270955 0.07368207 0.07400804 0.07381415 0.07345679
 0.07315204 0.07297094 0.07300362 0.07334331 0.07393327 0.07450674 0.07469171 0.074255 0.07336555 0.07256319
 0.07231876 0.07267028 0.07338735 0.07424963 0.07483779 0.07432849 0.07222539 0.06945895 0.06809085 0.069408
 0.07257552 0.07550499 0.07675533 0.07629232 0.07488042 0.07341062 0.07266639 0.07305551 0.07434358 0.07588751
 0.07714605 0.07782069 0.07771972 0.07685154 0.07560516 0.07458269 0.07426237 0.07486217 0.0762537 0.07782573
 0.07872593 0.07853222 0.07757147 0.07649819 0.0758106 0.07582263 0.07669318 0.07823769 0.07994596 0.08135618
 0.08229262 0.0827658 0.08286279 0.08272949 0.08249764 0.08226576 0.08219723 0.08243527 0.08282097 0.08292887
 0.08254115 0.08194359 0.08163639 0.08181876 0.08221834 0.08241853 0.08227093 0.08181876 0.08087425 0.07911004
 0.07673632 0.07460654 0.0733834 0.07307498 0.07357963 0.07496521 0.07680814 0.07799613 0.07785007 0.07704169
 0.07686749 0.07784836 0.07940412 0.08069484 0.08143386 0.08193555 0.08262421 0.08355425 0.08428823 0.08422317
 0.08321108 0.08194032 0.08147626 0.0822297 0.08355635 0.08454501 0.08497088 0.08526152 0.08574238 0.08616595
 0.08593033 0.08472636 0.08307746 0.08215404 0.08280776 0.08472771 0.08660433 0.08711835 0.08587749 0.08362894
 0.08163552 0.0807683 0.08116806 0.08260968 0.08481543 0.08731718 0.08937919 0.09037053 0.09020142 0.08930851
 0.08817667 0.08688437 0.08527926 0.08368942 0.08310771 0.08426338 0.0866861 0.0890813 0.09052376 0.09096894
 0.09072681 0.08983727 0.08815506 0.08599772 0.08443113 0.08447751 0.08594907 0.08750067 0.08805921 0.08782594
 0.08765937 0.08790581 0.08821434 0.08825585 0.08821516 0.08852734 0.08932043 0.09025055 0.09086537 0.09101874
 0.09089988 0.09076653 0.09070098 0.0905627 0.09020417 0.08980197 0.08984165 0.09060715 0.09180009 0.09283967
 0.09343447 0.09369828 0.09379824 0.09366962 0.09312472 0.09222017 0.09143446 0.09132831 0.09199937 0.09300864
 0.09384792 0.0943186 0.09448036 0.09445675 0.09435218 0.09422749 0.09411606 0.09409307 0.09425956 0.09460618
 0.09497811 0.09522808 0.09533485 0.09534481 0.09527609 0.09512445 0.09492575 0.09477174 0.09475291 0.09488816
 0.09512141 0.0953782 0.09559697 0.09572123 0.09571996 0.09562781 0.09552282 0.09545544 0.09542859 0.09544092
 0.0955082 0.09563158 0.09577318 0.09588283 0.0959409 0.0959612 0.09595983 0.09593944 0.09590414 0.09587371
 0.09587669 0.09593099 0.09602594 0.0961283 0.09622093 0.09632469 0.09645598 0.09657698 0.09662736 0.09660055
 0.09655409 0.09654711 0.09659406 0.09667391 0.09675643 0.09681228 0.09681544 0.09675991 0.09668407 0.0966612
 0.09674448 0.09692773 0.09716713 0.09741847 0.097642 0.09780627 0.09791217 0.09799253 0.0980724 0.09814672
 0.0982041 0.09825619 0.09833668 0.098475 0.098667 0.09887339 0.09905261 0.09918916 0.09929024 0.09937827
 0.09948862 0.09963934 0.09979383 0.09989101 0.09992573 0.0999639 0.1000625 0.1002027 0.1003193 0.1003773
 0.1004025 0.1004451 0.1005272 0.1006307 0.100728 0.1008157 0.1009152 0.1010411 0.1011706 0.1012514
 0.1012532 0.1012053 0.1011671 0.1011675 0.101194 0.1012333 0.1012935 0.1013788 0.1014648 0.1015147
 0.1015175 0.1015001 0.1014987 0.1015187 0.1015318 0.1015108 0.1014584 0.1013994 0.1013552 0.10133
 0.1013129 0.1012887 0.1012488 0.1011954 0.1011354 0.1010723 0.1010037 0.1009309 0.1008736 0.1008618
 0.1008982 0.100931 0.1008865 0.1007385 0.1005356 0.1003553 0.1002364 0.1001586 0.1000747 0.09995387
 0.09979927 0.09963545 0.09948507 0.099356 0.09924278 0.0991362 0.09903648 0.09895921 0.09891948 0.09890395
 0.09886879 0.09877886 0.09864402 0.09850703 0.09840166 0.09833235 0.09828522 0.0982449 0.09820563 0.09817666
 0.09817102 0.0981833 0.09819049 0.09818045 0.09816756 0.09817547 0.09821853 0.09830023 0.09840904 0.09851183
 0.09857357 0.09859458 0.0986135 0.0986672 0.09875974 0.09887452 0.09900022 0.09913554 0.0992798 0.09943106
 0.09959215 0.09977058 0.09997144 0.1001915 0.1004194 0.1006417 0.1008534 0.101064 0.1012919 0.1015481
 0.1018263 0.1021094 0.1023838 0.1026486 0.1029116 0.1031779 0.1034462 0.1037176 0.104004 0.1043171
 0.1046519 0.1049882 0.1053114 0.1056239 0.1059372 0.1062565 0.1065793 0.1069049 0.1072436 0.1076078
 0.107991 0.1083606 0.1086843 0.108963 0.10923 0.1095204 0.109845 0.110188 0.1105189 0.1108135
 0.1110766 0.11134 0.1116281 0.1119332 0.1122344 0.1125349 0.1128631 0.1132327 0.1136133 0.1139503
 0.1142148 0.1144301 0.1146462 0.1148885 0.1151394 0.1153695 0.1155769 0.1157852 0.1160102 0.1162458
 0.1164851 0.1167373 0.1170108 0.1172911 0.1175514 0.1177811 0.1179915 0.1181932 0.1183792 0.1185317
 0.1186422 0.1187253 0.1188134 0.1189313 0.1190749 0.1192213 0.1193594 0.1195006 0.1196606 0.1198425
 0.1200449 0.120271 0.1205201 0.1207768 0.1210252 0.1212739 0.1215484 0.1218499 0.1221391 0.1223766
 0.1225686 0.1227523 0.1229484 0.1231525 0.1233655 0.1236067 0.123889 0.1241985 0.1245072 0.124798
 0.1250772 0.1253658 0.1256741 0.1259819 0.1262506 0.1264618 0.1266365 0.1268164 0.1270321 0.1272893
 0.1275736 0.1278623 0.1281364 0.128382 0.1285846 0.1287308 0.1288246 0.128891 0.1289505 0.1289905
 0.128972 0.1288606 0.1286427 0.1283135 0.1278644 0.1272919 0.1266188 0.1259062 0.1252436 0.1247246
 0.1244222 0.1243755 0.1245865 0.1250186 0.1255995 0.1262356 0.1268319 0.1273036 0.1275775 0.1276018
 0.1273644 0.126899 0.1262658 0.1255248 0.1247248 0.1239042 0.1230961 0.1223435 0.1217244 0.1213578
 0.1213752 0.1218718 0.1228686 0.1242906 0.1259688 0.1276853 0.1292566 0.1306006 0.1317342 0.132717
 0.133601 0.1344194 0.1351945 0.1359384 0.1366484 0.137316 0.13794 0.1385253 0.1390695 0.1395596
 0.1399795 0.1403157 0.1405612 0.1407224 0.1408177 0.1408662 0.1408801 0.1408722 0.1408542 0.1408174
 0.1407197 0.1405066 0.1401488 0.1396644 0.1391239 0.1386499 0.1384103 0.1385778 0.1392537 0.1404012
 0.1418526 0.1433924 0.1448468 0.1461131 0.147147 0.147951 0.1485715 0.1490753 0.1495174 0.149927
 0.1503155 0.1506884 0.1510487 0.1513996 0.1517441 0.1520843 0.1524215 0.1527574 0.1530931 0.1534267
 0.1537559 0.1540822 0.1544125 0.154755 0.1551104 0.1554686 0.155818 0.1561595 0.1565016 0.1568446
 0.157178 0.1574954 0.1578044 0.1581189 0.1584473 0.1587895 0.1591364 0.1594722 0.159784 0.1600739
 0.1603553 0.1606399 0.1609279 0.1612142 0.1614958 0.1617735 0.1620485 0.1623214 0.1625948 0.1628708
 0.1631469 0.163416 0.1636742 0.1639249 0.1641749 0.164428 0.1646838 0.1649392 0.1651926 0.1654472
 0.1657103 0.1659848 0.1662623 0.1665303 0.1667829 0.1670245 0.1672633 0.1675054 0.1677532 0.1680058
 0.1682595 0.1685113 0.1687605 0.169008 0.1692542 0.169499 0.1697434 0.1699896 0.1702388 0.1704892
 0.170737 0.1709799 0.1712206 0.1714653 0.1717189 0.1719785 0.1722341 0.1724775 0.1727098 0.1729369
 0.1731627 0.1733883 0.1736167 0.1738521 0.1740956 0.174344 0.174593 0.1748385 0.1750795 0.1753175
 0.175554 0.1757899 0.1760261 0.1762644 0.1765049 0.1767459 0.1769867 0.1772272 0.1774676 0.1777076
 0.177947 0.1781853 0.178423 0.1786609 0.1788969 0.1791278 0.1793548 0.1795835 0.1798179 0.1800576
 0.1802995 0.1805404 0.1807778 0.1810121 0.1812455 0.1814785 0.181709 0.1819352 0.1821589 0.1823851
 0.1826182 0.1828573 0.1830969 0.1833339 0.1835699 0.1838063 0.1840416 0.1842772 0.1845166 0.1847595
 0.1850003 0.1852348 0.1854644 0.1856935 0.185926 0.1861618 0.1863986 0.1866357 0.1868747 0.1871156
 0.1873569 0.1875995 0.1878456 0.1880954 0.1883477 0.1885996 0.1888471 0.1890884 0.1893286 0.1895737
 0.1898241 0.1900768 0.1903309 0.1905869 0.1908447 0.1911039 0.1913624 0.1916167 0.1918651 0.1921085
 0.1923456 0.1925746 0.1927965 0.1930139 0.1932278 0.193442 0.1936634 0.1938935 0.1941281 0.1943651
 0.1946061 0.1948502 0.1950951 0.1953387 0.1955798 0.1958184 0.1960588 0.1963053 0.1965593 0.1968211
 0.1970886 0.1973549 0.1976147 0.1978714 0.1981315 0.1983952 0.1986601 0.1989247 0.1991874 0.1994486
 0.1997132 0.1999828 0.2002518 0.200517 0.2007805 0.2010427 0.2013032 0.2015651 0.2018308 0.2020984
 0.2023682 0.2026413 0.2029136 0.2031817 0.2034497 0.2037197 0.2039865 0.2042499 0.2045171 0.2047909
 0.20507 0.2053545 0.2056396 0.2059157 0.2061831 0.2064511 0.2067215 0.2069901 0.2072574 0.2075236
 0.2077848 0.2080423 0.2083002 0.208551 0.208773 0.2089173 0.2088561 0.2083212 0.2068663 0.2038708
 0.198657 0.1907571 0.1801896 0.1675463 0.1538347 0.1401655 0.1274473 0.1162524 0.1068819 0.09948821
 0.09416407 0.09101688 0.09022378 0.09211427 0.09728341 0.1062368 0.1180906 0.1294578 0.1357238 0.1345419
 0.1279572 0.1205521 0.115721 0.1140116 0.1142795 0.1153927 0.1169006 0.1189065 0.1216765 0.1252427
 0.1293687 0.1339391 0.1391774 0.1453043 0.1521053 0.159011 0.1655687 0.1717305 0.1776914 0.1835423
 0.1891292 0.1942002 0.1986024 0.2023389 0.2055148 0.2082692 0.2107198 0.212941 0.2149826 0.2168746
 0.2185883 0.220018 0.2210433 0.2216254 0.2218531 0.2219024 0.2219383 0.2220431 0.2222294 0.2224938
 0.222836 0.2232471 0.2237111 0.2242128 0.2247366 0.2252682 0.2258016 0.2263325 0.2268499 0.2273449
 0.2278175 0.228269 0.228698 0.2291057 0.229495 0.2298678 0.2302295 0.2305887 0.2309477 0.2313031
 0.2316538 0.2319981 0.2323278 0.2326359 0.2329229 0.2331931 0.2334521 0.2337062 0.2339586 0.2342085
 0.2344591 0.2347165 0.2349788 0.2352364 0.2354831 0.23572 0.2359507 0.2361804 0.2364133 0.2366478
 0.2368811 0.237116 0.2373574 0.2376051 0.2378563 0.2381087 0.2383584 0.2386008 0.2388358 0.2390683
 0.2393058 0.239556 0.2398211 0.2400921 0.2403576 0.2406165 0.2408748 0.2411359 0.2413997 0.2416666
 0.2419367 0.2422107 0.2424909 0.2427759 0.2430543 0.2433121 0.2435443 0.2437592 0.2439728 0.2441988
 0.2444386 0.2446828 0.2449246 0.2451666 0.2454133 0.2456636 0.2459134 0.2461597 0.2464041 0.2466546
 0.2469195 0.2471974 0.2474795 0.2477622 0.2480491 0.2483414 0.2486368 0.2489331 0.2492269 0.249511
 0.249782 0.2500496 0.250333 0.2506472 0.250988 0.2513317 0.2516556 0.2519584 0.2522551 0.2525603
 0.2528809 0.253211 0.2535235 0.2537874 0.2540113 0.2542534 0.2545682 0.2549539 0.2553617 0.2557456
 0.2560928 0.2564149 0.2567261 0.2570291 0.2573146 0.2575726 0.2578108 0.2580656 0.2583784 0.2587515
 0.2591398 0.2594982 0.2598197 0.260121 0.2604145 0.260704 0.2609762 0.2611892 0.2613142 0.2614079
 0.2615987 0.2619682 0.262463 0.2629511 0.2633516 0.263683 0.2639954 0.2643036 0.2645966 0.2648517
 0.2650035 0.2649753 0.2648211 0.2647782 0.2650754 0.265701 0.266428 0.2670437 0.2674908 0.2678227
 0.2681082 0.2683828 0.268626 0.2687654 0.2687547 0.2686827 0.2687575 0.2691163 0.269671 0.2702035
 0.2705941 0.2708881 0.2711729 0.2714809 0.271773 0.2719214 0.2717647 0.2713268 0.2709613 0.2711189
 0.2719114 0.2729867 0.2738831 0.2744404 0.2747959 0.2750602 0.2751502 0.2749401 0.2744175 0.2736826
 0.2729868 0.2727758 0.273402 0.2746716 0.2759195 0.2766747 0.2770655 0.2774876 0.2780904 0.2787099
 0.2791393 0.279317 0.2792963 0.2791232 0.2788113 0.2784807 0.2784397 0.2789647 0.2799771 0.2810658
 0.2818747 0.2823826 0.2827339 0.2828198 0.2821739 0.2805231 0.2785079 0.2775194 0.2784663 0.2808211
 0.2831923 0.2846965 0.285443 0.2858898 0.2862452 0.2864059 0.2859393 0.2842255 0.2813015 0.2786007
 0.2780828 0.2803017 0.2837861 0.2864661 0.2872519 0.2862569 0.2842781 0.2824312 0.2817516 0.2826272
 0.2846346 0.2869694 0.2889326 0.2901238 0.2904615 0.2901368 0.2895361 0.2891435 0.2892357 0.289465
 0.2890739 0.287877 0.2866132 0.2858079 0.2848125 0.2828677 0.2808012 0.2805184 0.2826473 0.2856305
 0.2875293 0.2880095 0.2879954 0.2878008 0.2863675 0.2826619 0.2775971 0.2740036 0.2742072 0.2777044
 0.2816607 0.2836957 0.2837641 0.2833396 0.2833425 0.2831681 0.2815872 0.2784882 0.2755555 0.2747672
 0.2761788 0.2778393 0.2779494 0.2761245 0.272456 0.2670603 0.2615604 0.2593896 0.2627616 0.2699167
 0.2766767 0.2800487 0.2791588 0.2740145 0.2658206 0.2582762 0.2559085 0.259897 0.2666959 0.2714643
 0.2718822 0.2682517 0.2615258 0.2528927 0.2447937 0.2406187 0.2425449 0.2497808 0.2587184 0.2644933
 0.2634676 0.2561464 0.2479038 0.2449402 0.2484511 0.2538347 0.2561007 0.2545657 0.2518116 0.2501713
 0.2504416 0.2523218 0.2547528 0.2567531 0.2581732 0.2583017 0.2544771 0.2450322 0.2336721 0.2275005
 0.2296929 0.2369496 0.2448881 0.2524525 0.2594377 0.2633267 0.2619746 0.2578506 0.2564496 0.2604241
 0.2670613 0.2717477 0.2726509 0.2714593 0.2703188 0.2692786 0.2673606 0.2653201 0.2656764 0.2695755
 0.2749925 0.2789286 0.2804187 0.2805283 0.2803381 0.2800346 0.2794695 0.2786096 0.2774972 0.276269
 0.2751441 0.2741826 0.27324 0.2722492 0.2711526 0.2692896 0.2654457 0.2594309 0.2534307 0.2504979
 0.2513487 0.2539152 0.2563214 0.2582423 0.2584184 0.2536351 0.2429213 0.23131 0.2263762 0.230915
 0.2407147 0.249283 0.2529786 0.2514609 0.2454935 0.2365885 0.2285441 0.2267812 0.2341649 0.2480061
 0.2624844 0.2735749 0.2805716 0.2838165 0.2831518 0.2790794 0.2740613 0.2715421 0.2735817 0.2795024
 0.2864075 0.290529 0.2888667 0.2816573 0.2740133 0.272832 0.279958 0.2897354 0.2952524 0.2955813
 0.2947641 0.295396 0.2964045 0.2966014 0.2971703 0.2996732 0.3034838 0.306313 0.3062635 0.3026254
 0.2958596 0.2881505 0.2830623 0.2827159 0.2854417 0.2876919 0.2876795 0.2854066 0.2804351 0.2728598
 0.2660992 0.2650574 0.2705484 0.2780564 0.2828814 0.2845155 0.2851797 0.2858361 0.2850559 0.2814071
 0.2759913 0.2719693 0.2714623 0.2735519 0.2757947 0.2768694 0.2767844 0.2753499 0.2721854 0.2683594
 0.2665382 0.2686166 0.2736878 0.2789241 0.282174 0.2832751 0.2832355 0.2829317 0.282639 0.2821932
 0.2814196 0.280734 0.2811699 0.2832789 0.2861704 0.2883259 0.2893545 0.2903098 0.292205 0.2947725
 0.2968741 0.2977611 0.2977323 0.2977564 0.2986012 0.3002035 0.3017305 0.302314 0.3019049 0.3014289
 0.301953 0.3036687 0.3058193 0.3075691 0.3087016 0.309498 0.3102643 0.3110707 0.3117179 0.311902
 0.3116181 0.3114116 0.311976 0.3134339 0.3151894 0.316532 0.3172215 0.3174551 0.317461 0.3172789
 0.3168743 0.3163218 0.3158108 0.3154995 0.3154044 0.3154325 0.3154821 0.3155008 0.3154847 0.3154683
 0.3155039 0.3156205 0.3158032 0.3160199 0.3162464 0.3164556 0.316615 0.3167199 0.3168029 0.3168857
 0.3169344 0.3168768 0.3166458 0.3161944 0.3154878 0.3145011 0.3132156 0.311599 0.3096139 0.3073196
 0.3050343 0.3033666 0.3029634 0.3041006 0.3064636 0.3093242 0.3119538 0.3139396 0.3152279 0.3159693
 0.3163496 0.3165067 0.3165208 0.3164269 0.3162367 0.3159634 0.3156335 0.3152772 0.314919 0.3145796
 0.3142734 0.3139996 0.3137381 0.313457 0.3131263 0.3127282 0.3122596 0.311727 0.3111365 0.3104846
 0.3097516 0.3089133 0.3079676 0.3069527 0.3059347 0.3049716 0.3040812 0.3032337 0.3023754 0.3014549
 0.3004191 0.2992069 0.2978069 0.296342 0.2950379 0.2940457 0.293305 0.2926109 0.2917937 0.2908067
 0.2896801 0.2884548 0.2871659 0.2858436 0.2845022 0.2831317 0.2817015 0.2801774 0.2785424 0.2768064
 0.274992 0.2731177 0.2711984 0.2692497 0.2672626 0.2651669 0.2628271 0.2600825 0.2567946 0.2528738
 0.248295 0.2431164 0.2374927 0.2316515 0.2258317 0.2202311 0.2150004 0.210269 0.2061591 0.2027741
 0.2001809 0.198413 0.197487 0.1974106 0.1981746 0.1997405 0.2020346 0.2049446 0.2083171 0.2119646
 0.2156823 0.2192771 0.2226142 0.225659 0.2284664 0.2311042 0.2335822 0.2358572 0.2378873 0.2396613
 0.241185 0.2424651 0.2435158 0.244369 0.2450692 0.2456567 0.2461565 0.246579 0.2469285 0.2472115
 0.2474386 0.2476241 0.2477855 0.2479445 0.2481222 0.2483323 0.2485811 0.2488773 0.2492365 0.2496755
 0.2502041 0.2508193 0.2515035 0.2522323 0.2529938 0.2538013 0.2546872 0.2556871 0.2568305 0.2581351
 0.2595991 0.2611928 0.2628521 0.2644812 0.2659718 0.2672315 0.2682061 0.2688818 0.2692745 0.2694157
 0.2693412 0.2690852 0.2686779 0.2681448 0.267509 0.2667942 0.2660207 0.2651979 0.2643211 0.2633809
 0.262382 0.2613559 0.2603462 0.2593745 0.2584305 0.2574992 0.2565838 0.2556947 0.2548341 0.2540019
 0.2532021 0.2524374 0.2517067 0.2510097 0.2503417 0.2496841 0.2490024 0.2482504 0.2473813 0.2463623
 0.2451838 0.2438511 0.2423728 0.2407603 0.2390299 0.2371989 0.2352799 0.2332781 0.2311949 0.2290333
 0.2267938 0.2244695 0.2220669 0.2196408 0.2172869 0.2150874 0.2130701 0.2112161 0.2094884 0.2078538
 0.2062935 0.2048001 0.2033688 0.2019972 0.2006889 0.1994441 0.1982587 0.1971374 0.1960972 0.1951522
 0.1943095 0.1935755 0.1929493 0.1924179 0.1919667 0.1915889 0.1912902 0.1910967 0.1910434 0.191128
 0.1912811 0.1914022 0.1914268 0.1913585 0.1912522 0.1911671 0.1911291 0.1911315 0.1911534 0.1911496
 0.1910348 0.1907069 0.19008 0.1890865 0.1876842 0.1858897 0.1837943 0.1815421 0.1792993 0.1772252
 0.1754369 0.1739931 0.1728977 0.1720987 0.1715012 0.1710272 0.1706695 0.1704847 0.170541 0.1708461
 0.1712825 0.1716499 0.1718386 0.1719554 0.1722326 0.1728277 0.1737241 0.1747772 0.1758191 0.1767384
 0.1774912 0.1780662 0.1784742 0.1787529 0.178936 0.1790219 0.1789952 0.1788549 0.1786036 0.178246
 0.1777995 0.1772723 0.1766461 0.17591 0.1750783 0.17416 0.1731535 0.1720621 0.1708651 0.1695154
 0.1680493 0.1666772 0.165707 0.1653733 0.1657147 0.166559 0.1676458 0.1688007 0.1699563 0.1710232
 0.171886 0.172593 0.173447 0.1748072 0.1767839 0.179121 0.1813679 0.1831725 0.1844041 0.1850573
 0.185163 0.1847856 0.1839719 0.1827 0.1809746 0.1789156 0.176681 0.174401 0.1722177 0.1702554
 0.1685589 0.1671455 0.1660271 0.1651984 0.1647155 0.1643091 0.162425 0.1567593 0.1475219 0.1395623
 0.1387139 0.145512 0.1544593 0.1599295 0.1609459 0.1598545 0.1586196 0.1576779 0.1569662 0.1565552
 0.1564929 0.1566734 0.1568843 0.1569035 0.1566316 0.1560757 0.1551045 0.153221 0.1495529 0.1431641
 0.1337476 0.1222654 0.1107431 0.1011966 0.09463702 0.09085804 0.08887359 0.0876074 0.0865099 0.08573885
 0.08579166 0.08699785 0.08934478 0.09262977 0.09660033 0.1009148 0.1050969 0.1086944 0.1115166 0.1136413
 0.115192 0.1162066 0.1167078 0.1167716 0.1164892 0.1159311 0.1151524 0.1141797 0.1129991 0.1116056
 0.11008 0.1086157 0.1074445 0.1066932 0.1063062 0.1061312 0.1060602 0.1060597 0.1061175 0.1062194
 0.1063594 0.1065403 0.1067747 0.107079 0.1074385 0.1077912 0.1080717 0.1082574 0.1083603 0.1083866
 0.1083056 0.1080688 0.1076899 0.1072706 0.1068639 0.1063334 0.1054639 0.1042433 0.1029718 0.1020699
 0.1017901 0.1020694 0.1026007 0.1030545 0.1032819 0.1033413 0.1033519 0.1033294 0.1031595 0.1027289
</values></Ydata></ScRf><Data_Parameters_AB><parameter name="DPF">1</parameter><parameter name="NPT">3497</parameter><parameter name="FXV">3996</parameter><parameter name="LXV">500</parameter><parameter name="CSF">1</parameter><parameter name="MXY">-0.000841854489408433</parameter><parameter name="MNY">-0.0586627349257469</parameter><parameter name="DAT">17/01/2024</parameter><parameter name="TIM">13:03:46.601 (GMT+1)</parameter><parameter name="DXU">WN</parameter></Data_Parameters_AB><AB__Qtest><MainReport name="Quality Test Report"><Header><Line><Legend>Test result ok/not ok [1/0]: </Legend><Value>0</Value></Line><Line><Legend>Method file: </Legend><Value>C:\Users\Public\Documents\Bruker\OPUS_8.2.28\QT\IRBT_v3_default.QT</Value></Line></Header><Matrix><Line><Legend></Legend><Legend>min</Legend><Legend>max</Legend><Legend>measured</Legend></Line><Line><Value>Absorption (X-Range 1):</Value><Value>0.400000</Value><Value>2.000000</Value><Value>0.029370</Value></Line><Line><Value>Noise (X-Range 4):</Value><Value></Value><Value>0.000300</Value><Value>0.000017</Value></Line><Line><Value>Signal/Noise (X-Range 2):</Value><Value>200.000000</Value><Value></Value><Value>26.953253</Value></Line><Line><Value>Signal/Noise (X-Range 3):</Value><Value>40.000000</Value><Value></Value><Value>13.507579</Value></Line><Line><Value>Water vapour (X-Range 5):</Value><Value></Value><Value>0.000300</Value><Value>0.000009</Value></Line><Line><Value>Signal/Water (X-Range 2):</Value><Value>100.000000</Value><Value></Value><Value>48.383924</Value></Line><Line><Value>Signal/Water (X-Range 3):</Value><Value>20.000000</Value><Value></Value><Value>24.247526</Value></Line><Line><Value>Fringes (X-Range 6):</Value><Value></Value><Value>0.000100</Value><Value>0.000020</Value></Line></Matrix></MainReport></AB__Qtest><Data_Parameters_ScSm><parameter name="DPF">1</parameter><parameter name="NPT">1814</parameter><parameter name="FXV">3996.63438082617</parameter><parameter name="LXV">499.579297603271</parameter><parameter name="CSF">1</parameter><parameter name="MXY">0.330679833889008</parameter><parameter name="MNY">0.0776405483484268</parameter><parameter name="DAT">17/01/2024</parameter><parameter name="TIM">13:03:46.601 (GMT+1)</parameter><parameter name="DXU">WN</parameter></Data_Parameters_ScSm><Data_Parameters_ScRf><parameter name="DPF">1</parameter><parameter name="NPT">1820</parameter><parameter name="FXV">4004.34989121387</parameter><parameter name="LXV">495.721542409425</parameter><parameter name="CSF">1</parameter><parameter name="MXY">0.317461013793945</parameter><parameter name="MNY">0.0680908486247063</parameter><parameter name="DAT">17/01/2024</parameter><parameter name="TIM">13:03:20.740 (GMT+1)</parameter><parameter name="DXU">WN</parameter></Data_Parameters_ScRf><Optic_Parameters_Rf><parameter name="APR">0</parameter><parameter name="APT">Open</parameter><parameter name="BMS">KBr</parameter><parameter name="DTC">RT-DLaTGS_IR-Biotyper [Microplate reader]</parameter><parameter name="HPF">0</parameter><parameter name="LPF">10.0</parameter><parameter name="LPV">4000</parameter><parameter name="PGR">0</parameter><parameter name="RCH">Module port</parameter><parameter name="RDX">0</parameter><parameter name="SRC">MIR</parameter><parameter name="VEL">10.0</parameter><parameter name="SON">Off</parameter></Optic_Parameters_Rf><Acquisition_Parameters_Rf><parameter name="ADT">1</parameter><parameter name="AQM">DD</parameter><parameter name="CFE">0</parameter><parameter name="COR">0</parameter><parameter name="DEL">0</parameter><parameter name="DLY">0</parameter><parameter name="HFW">8000</parameter><parameter name="LFW">0</parameter><parameter name="NSR">32</parameter><parameter name="PLF">AB</parameter><parameter name="RES">6</parameter><parameter name="RGN">-1</parameter><parameter name="STR">0</parameter><parameter name="TCL">MakeCompatibleScalar (0, {WSV=1.000000, ARV=0});</parameter><parameter name="TDL">37</parameter><parameter name="RPO">0</parameter></Acquisition_Parameters_Rf><FT_-_Parameters_Rf><parameter name="APF">B3</parameter><parameter name="HFQ">500</parameter><parameter name="LFQ">4000</parameter><parameter name="NLI">0</parameter><parameter name="PHR">24</parameter><parameter name="PHZ">ML</parameter><parameter name="SPZ">NO</parameter><parameter name="ZFF">1</parameter></FT_-_Parameters_Rf><Optic_Parameters_><parameter name="APR">0</parameter><parameter name="APT">Open</parameter><parameter name="BMS">KBr</parameter><parameter name="CHN">Module port</parameter><parameter name="DTC">RT-DLaTGS_IR-Biotyper [Microplate reader]</parameter><parameter name="HPF">0</parameter><parameter name="LPF">10.0</parameter><parameter name="LPV">4000</parameter><parameter name="PGN">0</parameter><parameter name="RDX">0</parameter><parameter name="SRC">MIR</parameter><parameter name="VEL">10.0</parameter><parameter name="SON">Off</parameter></Optic_Parameters_><FT_-_Parameters_><parameter name="APF">B3</parameter><parameter name="HFQ">500</parameter><parameter name="LFQ">4000</parameter><parameter name="NLI">0</parameter><parameter name="PHR">24</parameter><parameter name="PHZ">ML</parameter><parameter name="SPZ">NO</parameter><parameter name="ZFF">1</parameter></FT_-_Parameters_><Acquisition_Parameters_><parameter name="ADT">1</parameter><parameter name="AQM">DD</parameter><parameter name="CFE">0</parameter><parameter name="COR">0</parameter><parameter name="DEL">0</parameter><parameter name="DLY">0</parameter><parameter name="HFW">8000</parameter><parameter name="LFW">0</parameter><parameter name="NSS">32</parameter><parameter name="PLF">AB</parameter><parameter name="RES">6</parameter><parameter name="SOT">0</parameter><parameter name="TCL">MakeCompatibleScalar (0, {WSV=1.000000, ARV=0});</parameter><parameter name="TDL">37</parameter><parameter name="SPO">0</parameter><parameter name="SGN">-1</parameter></Acquisition_Parameters_><Instrument_Parameters_Rf><parameter name="HFL">15801.365274</parameter><parameter name="LFL">0</parameter><parameter name="LWN">15801.365274</parameter><parameter name="ABP">32157</parameter><parameter name="SSP">1</parameter><parameter name="ARG">2</parameter><parameter name="ASG">2</parameter><parameter name="ASS">32</parameter><parameter name="GFW">16</parameter><parameter name="GBW">16</parameter><parameter name="BFW">0</parameter><parameter name="BBW">0</parameter><parameter name="PKA">9112</parameter><parameter name="PKL">4987</parameter><parameter name="PRA">9125</parameter><parameter name="PRL">5010</parameter><parameter name="P2A">1</parameter><parameter name="P2L">1</parameter><parameter name="P2R">1</parameter><parameter name="P2K">1</parameter><parameter name="DAQ">0</parameter><parameter name="AG2">1</parameter><parameter name="SSM">1</parameter><parameter name="RSN">46302</parameter><parameter name="CRR">0</parameter><parameter name="SRT">1705496600.74</parameter><parameter name="DUR">19.6439971923828</parameter><parameter name="TSC">30.8</parameter><parameter name="MVD">0.293280184268951</parameter><parameter name="AN1">0.226004062099067</parameter><parameter name="AN2">0</parameter><parameter name="VSN">2.485 Apr  4 2017</parameter><parameter name="SRN">0085</parameter><parameter name="CAM">0</parameter><parameter name="INS">IR-Biotyper</parameter><parameter name="FOC">69</parameter><parameter name="RDY">1</parameter><parameter name="ARS">32</parameter></Instrument_Parameters_Rf><Sample_Parameters_><parameter name="BLD"></parameter><parameter name="CNM">Admin</parameter><parameter name="CPY"></parameter><parameter name="DPM"></parameter><parameter name="EXP">IRBT_v3_32Scans.XPM</parameter><parameter name="LCT"></parameter><parameter name="SFM">Microplate, HTS-XT</parameter><parameter name="SNM">240117-1222-Cdiff_SCFA_1_C6_232100818_F5_b32bd7c9-4101-4999-97d7-66d647586eea.0</parameter><parameter name="XPP">C:\Users\Public\Documents\Bruker\OPUS_8.2.28\XPM</parameter><parameter name="IST">OK</parameter><parameter name="CPG">1252</parameter><parameter name="UID">4370e74e-b150-445e-af3c-91088d3070c8</parameter></Sample_Parameters_><Instrument_Parameters_><parameter name="HFL">15801.365274</parameter><parameter name="LFL">0</parameter><parameter name="LWN">15801.365274</parameter><parameter name="ABP">32157</parameter><parameter name="SSP">1</parameter><parameter name="ASG">2</parameter><parameter name="ARG">2</parameter><parameter name="ASS">32</parameter><parameter name="GFW">16</parameter><parameter name="GBW">16</parameter><parameter name="BFW">0</parameter><parameter name="BBW">0</parameter><parameter name="PKA">9737</parameter><parameter name="PKL">4987</parameter><parameter name="PRA">9833</parameter><parameter name="PRL">5010</parameter><parameter name="P2A">1</parameter><parameter name="P2L">1</parameter><parameter name="P2R">1</parameter><parameter name="P2K">1</parameter><parameter name="DAQ">0</parameter><parameter name="AG2">1</parameter><parameter name="SSM">1</parameter><parameter name="RSN">23844</parameter><parameter name="CRR">0</parameter><parameter name="SRT">1705496626.601</parameter><parameter name="DUR">19.6449890136719</parameter><parameter name="TSC">30.9</parameter><parameter name="MVD">0.420862972736359</parameter><parameter name="AN1">0.226001061347122</parameter><parameter name="AN2">0</parameter><parameter name="VSN">2.485 Apr  4 2017</parameter><parameter name="SRN">0085</parameter><parameter name="CAM">0</parameter><parameter name="INS">IR-Biotyper</parameter><parameter name="FOC">69</parameter><parameter name="RDY">1</parameter></Instrument_Parameters_><History/></OPUSDataFile>
