<?xml version="1.0" encoding="UTF-8" ?>
<OPUSDataFile><AB><Ydata ylabel="Absorbance Units"><values byteorder="INTEL" format="FLOAT32" numvalues="3497"> -0.07966332 -0.0796311 -0.07960163 -0.0795776 -0.07956865 -0.07957252 -0.07959053 -0.07961624 -0.07964086 -0.07965945
 -0.07966252 -0.07965176 -0.07962409 -0.07958674 -0.07954209 -0.0794969 -0.07945439 -0.07941605 -0.07938316 -0.07935329
 -0.07932625 -0.07929999 -0.07927418 -0.07925031 -0.07922849 -0.07921214 -0.07920116 -0.07919595 -0.07919552 -0.07919499
 -0.07919358 -0.07918556 -0.07917236 -0.07915368 -0.0791326 -0.07911412 -0.07909893 -0.07909094 -0.0790858 -0.07908197
 -0.07907484 -0.07906052 -0.07904105 -0.07901511 -0.07899043 -0.07896863 -0.07895453 -0.07894961 -0.07895158 -0.07896062
 -0.07897025 -0.07898012 -0.0789831 -0.07897898 -0.07896266 -0.07893489 -0.07889619 -0.07884886 -0.07880056 -0.07875343
 -0.07871651 -0.07868926 -0.07867572 -0.07867224 -0.07867703 -0.07868536 -0.07869322 -0.07869759 -0.0786953 -0.07868748
 -0.07867307 -0.07865723 -0.07864106 -0.0786277 -0.07861834 -0.07860953 -0.07860123 -0.07858752 -0.0785681 -0.07854407
 -0.07851604 -0.07849187 -0.0784716 -0.07846007 -0.07845567 -0.07845578 -0.07845835 -0.07845733 -0.07845221 -0.07843928
 -0.0784198 -0.07839356 -0.0783626 -0.07832827 -0.07829247 -0.0782564 -0.07822159 -0.07818882 -0.07815906 -0.07813283
 -0.07810971 -0.07808982 -0.07807188 -0.07805579 -0.07804082 -0.07802692 -0.07801481 -0.07800449 -0.07799605 -0.07798944
 -0.07798435 -0.07798093 -0.07797986 -0.07798074 -0.07798358 -0.07798649 -0.07798658 -0.07798208 -0.07796907 -0.07794923
 -0.07792196 -0.07789109 -0.07785863 -0.07782666 -0.07779654 -0.0777683 -0.07774203 -0.07771843 -0.07769763 -0.07768021
 -0.0776663 -0.07765502 -0.07764632 -0.07764082 -0.07763858 -0.07764128 -0.07764786 -0.07765386 -0.07765633 -0.07764167
 -0.07760972 -0.07754989 -0.07747185 -0.07738539 -0.07730225 -0.07724206 -0.07720406 -0.07719614 -0.07720768 -0.07723608
 -0.07726927 -0.07730294 -0.07732647 -0.07733624 -0.07732707 -0.07729642 -0.07725108 -0.0771907 -0.07713196 -0.07707578
 -0.07703356 -0.07700498 -0.07698762 -0.07698054 -0.07697646 -0.07697564 -0.07697524 -0.07697584 -0.07697817 -0.07698057
 -0.07698117 -0.07697698 -0.07696351 -0.07693968 -0.07690197 -0.07685435 -0.07679649 -0.07673752 -0.07668018 -0.07663362
 -0.07660151 -0.07658467 -0.07658499 -0.0765923 -0.07660612 -0.07661334 -0.07661311 -0.07660071 -0.07657655 -0.07654656
 -0.07651141 -0.07647878 -0.07644774 -0.07641891 -0.07639113 -0.07636128 -0.07633013 -0.07629728 -0.0762646 -0.07623441
 -0.07620735 -0.07618501 -0.07616656 -0.07615225 -0.07614026 -0.07613025 -0.07611967 -0.07610794 -0.07609269 -0.07607333
 -0.07604907 -0.07601961 -0.07598658 -0.07595001 -0.07591359 -0.07587759 -0.07584702 -0.07582193 -0.07580561 -0.07579719
 -0.07579537 -0.07579857 -0.07580206 -0.07580478 -0.07580265 -0.07579559 -0.0757817 -0.07576176 -0.07573549 -0.07570459
 -0.07566974 -0.07563303 -0.07559503 -0.07555877 -0.07552478 -0.07549699 -0.07547618 -0.07546507 -0.07546446 -0.07547092
 -0.07548436 -0.07549509 -0.07550279 -0.07550108 -0.07549069 -0.07547415 -0.07545153 -0.07542527 -0.07539326 -0.07534997
 -0.07529674 -0.07523099 -0.07516114 -0.07509703 -0.07504378 -0.07501196 -0.0749943 -0.07499127 -0.07498951 -0.07498284
 -0.07496629 -0.07493547 -0.07489881 -0.07485665 -0.07481991 -0.07479035 -0.07476981 -0.07475871 -0.07474986 -0.07474279
 -0.07472812 -0.07470606 -0.07467281 -0.07463019 -0.07458326 -0.07453408 -0.07449124 -0.07445447 -0.0744281 -0.0744088
 -0.07439479 -0.07438123 -0.07436306 -0.07433779 -0.07430129 -0.07425726 -0.07420539 -0.07415281 -0.07410177 -0.07405549
 -0.07401541 -0.07397953 -0.07394809 -0.07391585 -0.07388249 -0.07384372 -0.07379953 -0.07375066 -0.07369783 -0.07364728
 -0.07359885 -0.07355613 -0.07351639 -0.07347406 -0.07342705 -0.07336702 -0.07329837 -0.0732219 -0.07314638 -0.07308099
 -0.07302833 -0.07299442 -0.07297283 -0.07296328 -0.07295608 -0.07294848 -0.07293378 -0.07290968 -0.07287659 -0.07283397
 -0.07278703 -0.07273617 -0.07268259 -0.07262611 -0.07256159 -0.07248925 -0.07240793 -0.07231931 -0.0722304 -0.07214171
 -0.07205892 -0.07198036 -0.07190549 -0.07183271 -0.07175928 -0.0716855 -0.0716105 -0.07153555 -0.07146086 -0.07138882
 -0.07132063 -0.07125749 -0.07120109 -0.07114631 -0.0710933 -0.07103175 -0.07095999 -0.07087527 -0.0707769 -0.07067478
 -0.0705694 -0.07047098 -0.07037907 -0.07029451 -0.07021617 -0.07013933 -0.07006387 -0.06998697 -0.06990924 -0.069831
 -0.06975155 -0.06967112 -0.06958608 -0.06949332 -0.06938951 -0.0692694 -0.06913927 -0.06899843 -0.06886139 -0.0687331
 -0.06861963 -0.06852464 -0.06843979 -0.06836487 -0.06828877 -0.06821045 -0.06812674 -0.06803763 -0.06794684 -0.06785452
 -0.06776383 -0.06767412 -0.06758421 -0.06749305 -0.06739679 -0.06729529 -0.06718574 -0.06707044 -0.06695082 -0.06683037
 -0.06671337 -0.06660058 -0.06649471 -0.06639223 -0.06629272 -0.06619121 -0.06608567 -0.06597491 -0.06585755 -0.0657387
 -0.06561855 -0.06550419 -0.06539632 -0.06529573 -0.06520227 -0.06510948 -0.06501703 -0.06491902 -0.06481622 -0.06470936
 -0.06459921 -0.06448886 -0.06437771 -0.06426588 -0.06415297 -0.06403788 -0.06392195 -0.06380565 -0.0636915 -0.06358156
 -0.06347664 -0.06337847 -0.0632836 -0.0631922 -0.06309706 -0.06299678 -0.06288569 -0.06276216 -0.06262928 -0.06248686
 -0.06234441 -0.06220236 -0.06206706 -0.06193818 -0.06181528 -0.06169765 -0.06158165 -0.06146697 -0.06135057 -0.06123303
 -0.06111371 -0.06099441 -0.06087762 -0.06076407 -0.06065626 -0.06055146 -0.06044902 -0.06034504 -0.06023688 -0.06012476
 -0.0600078 -0.05988876 -0.05976823 -0.05964742 -0.05952654 -0.05940642 -0.05928702 -0.0591713 -0.05905939 -0.05895367
 -0.05885373 -0.05875664 -0.0586616 -0.05856282 -0.05846042 -0.05835146 -0.0582372 -0.05811904 -0.05799779 -0.05787551
 -0.05775186 -0.05762718 -0.05750123 -0.05737333 -0.05724546 -0.05711792 -0.05699416 -0.05687557 -0.05676335 -0.05665859
 -0.05655805 -0.05646168 -0.05636446 -0.05626586 -0.05616404 -0.05605894 -0.05595335 -0.05584741 -0.0557441 -0.0556429
 -0.05554268 -0.05544266 -0.05533937 -0.05523318 -0.05512269 -0.05500972 -0.05489617 -0.05478421 -0.05467674 -0.05457542
 -0.05448263 -0.05439824 -0.05432381 -0.05425482 -0.05419113 -0.05412424 -0.05405219 -0.05396932 -0.05387386 -0.05376856
 -0.05365318 -0.05353552 -0.05341597 -0.0533011 -0.05319101 -0.05308918 -0.05299519 -0.0529092 -0.05283003 -0.0527541
 -0.05268016 -0.05260336 -0.05252363 -0.05243842 -0.05234892 -0.05225505 -0.05215916 -0.05206251 -0.05196827 -0.05187847
 -0.05179459 -0.05171832 -0.05164675 -0.0515796 -0.05151372 -0.05144821 -0.05138453 -0.05132266 -0.05126522 -0.05121231
 -0.05116028 -0.0511088 -0.05105229 -0.05099151 -0.05092755 -0.05086203 -0.05080146 -0.05074584 -0.05069908 -0.05065854
 -0.05062225 -0.05058644 -0.05054643 -0.05049909 -0.05043976 -0.05036984 -0.05028716 -0.05019996 -0.05010991 -0.05002657
 -0.04995326 -0.04989165 -0.04984327 -0.04980141 -0.04976568 -0.04972945 -0.04969236 -0.04965347 -0.04961294 -0.04957255
 -0.04953219 -0.04949199 -0.04945164 -0.04940971 -0.04936676 -0.04932322 -0.04928013 -0.0492397 -0.04920153 -0.04916671
 -0.04913253 -0.04909696 -0.04905898 -0.04901646 -0.04897309 -0.04892946 -0.04888985 -0.04885619 -0.04882666 -0.04880165
 -0.04877603 -0.04874912 -0.04872084 -0.04869115 -0.0486651 -0.0486427 -0.04862534 -0.04861228 -0.04859934 -0.04858652
 -0.04857111 -0.0485546 -0.04853953 -0.04852644 -0.04851831 -0.04851263 -0.0485083 -0.04850131 -0.04848766 -0.0484664
 -0.04843485 -0.04839713 -0.04835336 -0.04831057 -0.04827073 -0.04823751 -0.04821232 -0.04819284 -0.04817916 -0.04816677
 -0.04815541 -0.04814374 -0.04813187 -0.04812124 -0.0481119 -0.04810492 -0.04810015 -0.04809756 -0.04809703 -0.04809818
 -0.04810102 -0.04810546 -0.04811137 -0.04811858 -0.04812687 -0.04813636 -0.04814565 -0.04815461 -0.04815977 -0.04815966
 -0.04815247 -0.04813649 -0.04811615 -0.04809128 -0.04807048 -0.04805474 -0.04804854 -0.04805226 -0.04806275 -0.04807978
 -0.04809887 -0.04812026 -0.0481437 -0.04816922 -0.04819749 -0.04822709 -0.04825513 -0.04827968 -0.04829563 -0.04830308
 -0.04829958 -0.04828737 -0.04826717 -0.0482417 -0.0482122 -0.04818207 -0.04815227 -0.04812783 -0.04811024 -0.04810278
 -0.04810696 -0.04811915 -0.04813962 -0.04815864 -0.04817561 -0.04818409 -0.04818418 -0.04817759 -0.04816471 -0.04814947
 -0.04813103 -0.04810808 -0.04807972 -0.04804192 -0.0479969 -0.04794579 -0.0478934 -0.04784634 -0.04780706 -0.047781
 -0.04776502 -0.04775964 -0.04775872 -0.0477602 -0.04775891 -0.0477529 -0.04774 -0.04771899 -0.04769288 -0.04766138
 -0.04763315 -0.04760868 -0.04759635 -0.0475961 -0.04760705 -0.04762794 -0.04764925 -0.04767044 -0.0476838 -0.04769086
 -0.0476917 -0.04768792 -0.04768281 -0.0476762 -0.0476691 -0.04766117 -0.04765179 -0.04764289 -0.04763499 -0.04763111
 -0.0476328 -0.04764108 -0.04765694 -0.04767846 -0.04770568 -0.04773534 -0.04776707 -0.04779902 -0.04783104 -0.04786278
 -0.04789419 -0.04792483 -0.04795456 -0.047982 -0.04800724 -0.04802965 -0.04804998 -0.04807 -0.04809025 -0.04811292
 -0.04813722 -0.04816326 -0.04818955 -0.0482146 -0.04823812 -0.04825905 -0.04827915 -0.0482986 -0.04832003 -0.04834425
 -0.04837296 -0.04840702 -0.04844442 -0.04848543 -0.04852385 -0.04855931 -0.04858619 -0.04860453 -0.04861593 -0.04862133
 -0.04862916 -0.04863982 -0.0486603 -0.04868886 -0.04872471 -0.04876508 -0.04880419 -0.04884071 -0.04887014 -0.04889341
 -0.0489097 -0.04892052 -0.0489264 -0.04892908 -0.04892888 -0.04892916 -0.0489306 -0.0489374 -0.04895074 -0.04897155
 -0.04900052 -0.04903289 -0.04906842 -0.04910089 -0.04913019 -0.04915641 -0.04918025 -0.04920795 -0.04923965 -0.04928004
 -0.04932719 -0.04937842 -0.04943096 -0.0494777 -0.04951818 -0.04954813 -0.04956999 -0.0495839 -0.04959395 -0.04960256
 -0.04961326 -0.04962828 -0.04964889 -0.04967638 -0.04970881 -0.04974638 -0.04978483 -0.04982368 -0.04985952 -0.04989199
 -0.04992101 -0.04994663 -0.04997073 -0.0499933 -0.0500151 -0.05003586 -0.05005454 -0.05007111 -0.05008471 -0.05009607
 -0.05010612 -0.05011566 -0.05012631 -0.05013799 -0.05015146 -0.05016555 -0.05017972 -0.05019309 -0.05020471 -0.05021571
 -0.05022596 -0.0502378 -0.05025179 -0.05026891 -0.0502896 -0.05031196 -0.05033594 -0.05035854 -0.05037967 -0.05039815
 -0.05041423 -0.05042953 -0.05044432 -0.05046089 -0.05047907 -0.05049968 -0.05052205 -0.0505454 -0.05056889 -0.05059088
 -0.05061117 -0.05062866 -0.05064431 -0.05065805 -0.05067203 -0.05068706 -0.05070527 -0.05072772 -0.05075434 -0.05078553
 -0.05081948 -0.0508561 -0.05089312 -0.05093042 -0.05096542 -0.05099797 -0.05102447 -0.05104486 -0.0510565 -0.0510601
 -0.05105731 -0.05104949 -0.05104177 -0.05103472 -0.05103235 -0.05103352 -0.05103823 -0.05104538 -0.05105348 -0.05106315
 -0.051074 -0.05108806 -0.05110637 -0.05112955 -0.05115865 -0.05119066 -0.05122566 -0.05125781 -0.05128633 -0.05130687
 -0.0513188 -0.05132349 -0.0513211 -0.05131843 -0.05131581 -0.05131945 -0.05132891 -0.05134551 -0.05136836 -0.05139539
 -0.05142616 -0.05145876 -0.05149313 -0.05152863 -0.05156447 -0.05160006 -0.05163353 -0.05166345 -0.05168845 -0.0517072
 -0.05172034 -0.0517272 -0.0517315 -0.05173336 -0.051739 -0.0517492 -0.05176928 -0.05179993 -0.05184116 -0.05189285
 -0.05194833 -0.05200712 -0.05206187 -0.05211294 -0.05215814 -0.05219876 -0.05223766 -0.0522759 -0.05231731 -0.05236195
 -0.05241189 -0.05246589 -0.05252412 -0.05258333 -0.05264165 -0.05269557 -0.05274242 -0.05278208 -0.05281313 -0.05284011
 -0.05286362 -0.05288814 -0.05291472 -0.05294329 -0.05297413 -0.05300327 -0.05303052 -0.05305393 -0.05307384 -0.05309342
 -0.05311316 -0.05313781 -0.05316649 -0.05319928 -0.05323387 -0.05326489 -0.05329148 -0.05330876 -0.05332036 -0.05332763
 -0.05333592 -0.05335041 -0.0533715 -0.05340208 -0.05343596 -0.0534718 -0.0535039 -0.05352985 -0.05355146 -0.05356821
 -0.05358632 -0.05360649 -0.0536303 -0.05365781 -0.05368364 -0.05370757 -0.05372489 -0.05373671 -0.0537465 -0.05375604
 -0.05377383 -0.05379914 -0.0538357 -0.053879 -0.05392395 -0.05396617 -0.0539981 -0.05402003 -0.05402861 -0.05402922
 -0.05402332 -0.0540168 -0.05401245 -0.0540119 -0.0540167 -0.05402315 -0.05403123 -0.05403504 -0.05403398 -0.05402457
 -0.05400661 -0.05398158 -0.05394972 -0.05391449 -0.05387577 -0.05383462 -0.05379063 -0.05374262 -0.05369101 -0.0536357
 -0.05357837 -0.05352157 -0.05346669 -0.05341649 -0.05337083 -0.05333079 -0.05329484 -0.05326273 -0.0532323 -0.05320279
 -0.05317261 -0.05314096 -0.05310876 -0.05307581 -0.05304482 -0.05301605 -0.05299105 -0.05296994 -0.05295217 -0.05293768
 -0.05292514 -0.05291472 -0.05290674 -0.05290128 -0.05289895 -0.05289948 -0.05290246 -0.05290782 -0.05291522 -0.05292483
 -0.05293684 -0.05295102 -0.05296751 -0.0529852 -0.05300354 -0.05302171 -0.05303929 -0.05305587 -0.05307136 -0.05308515
 -0.05309721 -0.05310629 -0.05311224 -0.05311424 -0.05311222 -0.05310666 -0.05309778 -0.05308864 -0.05307975 -0.05307578
 -0.05307702 -0.05308723 -0.05310621 -0.05313552 -0.05317455 -0.05322331 -0.05328036 -0.05334502 -0.05341328 -0.05348261
 -0.05354726 -0.05360275 -0.05364801 -0.0536799 -0.05370643 -0.05372785 -0.05375703 -0.05379615 -0.05385361 -0.05393083
 -0.05402798 -0.05414518 -0.05427638 -0.05442102 -0.05456955 -0.05472108 -0.05486495 -0.05500093 -0.05512199 -0.05522921
 -0.05532138 -0.0554003 -0.05546848 -0.05552721 -0.05557884 -0.0556246 -0.05566566 -0.05570463 -0.05574291 -0.05578354
 -0.05582845 -0.05587743 -0.05593148 -0.05598613 -0.05604102 -0.05609083 -0.05613476 -0.0561718 -0.05620179 -0.05622829
 -0.05625147 -0.0562746 -0.05629736 -0.05631922 -0.05633968 -0.05635599 -0.05636901 -0.05637877 -0.05638831 -0.05640259
 -0.05642472 -0.05646129 -0.05651133 -0.05657762 -0.05665403 -0.0567384 -0.05682388 -0.05690678 -0.05698536 -0.05705799
 -0.05712712 -0.05719301 -0.05725723 -0.05732014 -0.05738054 -0.05743839 -0.05749181 -0.05754073 -0.05758391 -0.0576214
 -0.05765275 -0.0576786 -0.05770051 -0.05772066 -0.05774502 -0.05777626 -0.05782245 -0.05788335 -0.05796325 -0.05805694
 -0.05816252 -0.05827213 -0.0583807 -0.05848304 -0.05857535 -0.0586577 -0.05872907 -0.05879204 -0.05884692 -0.0588957
 -0.05893859 -0.05897709 -0.05901127 -0.0590437 -0.05907453 -0.05910657 -0.05913969 -0.05917444 -0.0592104 -0.05924604
 -0.05928124 -0.05931469 -0.05934691 -0.05937829 -0.05940923 -0.05944071 -0.05947208 -0.05950335 -0.05953304 -0.05956015
 -0.05958414 -0.05960407 -0.05962196 -0.05963796 -0.05965488 -0.05967355 -0.05969369 -0.05971558 -0.05973579 -0.05975409
 -0.05976867 -0.05977962 -0.05978929 -0.05979805 -0.05981001 -0.05982485 -0.05984364 -0.05986529 -0.05988733 -0.05990889
 -0.05992693 -0.05994188 -0.05995264 -0.05996114 -0.05996846 -0.05997697 -0.05998862 -0.06000405 -0.06002457 -0.06004777
 -0.06007359 -0.06009807 -0.06012037 -0.06013848 -0.06015182 -0.06016216 -0.06016952 -0.06017703 -0.06018474 -0.06019356
 -0.06020316 -0.0602113 -0.0602177 -0.06021978 -0.06021788 -0.06021136 -0.06020134 -0.06018952 -0.06017709 -0.06016649
 -0.06015782 -0.06015254 -0.06014875 -0.06014601 -0.06014169 -0.06013412 -0.06012347 -0.06010869 -0.06009414 -0.06008032
 -0.06007176 -0.06006943 -0.06007247 -0.06008102 -0.06008999 -0.06009918 -0.06010444 -0.06010598 -0.0601036 -0.06009771
 -0.06008988 -0.06008051 -0.06007139 -0.06006288 -0.06005652 -0.06005247 -0.06005174 -0.06005383 -0.06005881 -0.06006557
 -0.06007345 -0.06008156 -0.0600894 -0.06009631 -0.06010199 -0.0601062 -0.06010879 -0.06011012 -0.06011012 -0.06010998
 -0.06010979 -0.06011007 -0.06011084 -0.06011192 -0.06011326 -0.06011437 -0.06011522 -0.06011548 -0.06011513 -0.06011389
 -0.06011185 -0.06010897 -0.06010561 -0.06010224 -0.06009925 -0.06009733 -0.06009606 -0.0600954 -0.06009492 -0.0600941
 -0.06009394 -0.0600944 -0.06009751 -0.06010382 -0.06011382 -0.06012796 -0.06014327 -0.06015961 -0.06017289 -0.06018296
 -0.06018814 -0.06018876 -0.0601866 -0.0601823 -0.06017979 -0.06017939 -0.06018453 -0.06019423 -0.06020873 -0.0602254
 -0.06024093 -0.06025244 -0.06025541 -0.06024984 -0.06023339 -0.06021021 -0.060181 -0.06015149 -0.06012369 -0.06010098
 -0.06008476 -0.06007444 -0.06007032 -0.0600695 -0.06007179 -0.06007456 -0.06007772 -0.06008055 -0.06008308 -0.06008553
 -0.0600878 -0.06008968 -0.06009077 -0.06008975 -0.06008625 -0.06007886 -0.06006744 -0.06005099 -0.06003011 -0.06000458
 -0.05997641 -0.05994637 -0.05991765 -0.05989182 -0.05987138 -0.05985795 -0.05985042 -0.05984942 -0.05985005 -0.05985186
 -0.05985013 -0.05984432 -0.05983404 -0.05981932 -0.05980361 -0.05978706 -0.05977261 -0.05975981 -0.05974784 -0.05973629
 -0.05972308 -0.05970891 -0.05969402 -0.0596798 -0.05966876 -0.05966081 -0.05965746 -0.05965609 -0.05965544 -0.05965308
 -0.05964679 -0.05963819 -0.05962664 -0.05961727 -0.05961118 -0.05961173 -0.05962 -0.0596337 -0.05965292 -0.05967161
 -0.05968948 -0.05970163 -0.05970818 -0.05970861 -0.05970358 -0.05969629 -0.05968721 -0.05967984 -0.05967367 -0.05966948
 -0.05966611 -0.05966182 -0.05965677 -0.05964989 -0.05964341 -0.05963849 -0.0596372 -0.05964158 -0.05964995 -0.05966286
 -0.05967551 -0.05968695 -0.05969359 -0.05969447 -0.05969016 -0.05968046 -0.05966914 -0.05965642 -0.05964592 -0.0596377
 -0.05963336 -0.05963266 -0.0596352 -0.05964062 -0.05964752 -0.05965574 -0.05966431 -0.05967325 -0.05968233 -0.05969123
 -0.05969981 -0.05970699 -0.05971207 -0.05971381 -0.05971108 -0.05970431 -0.059693 -0.05967969 -0.05966479 -0.05965072
 -0.0596381 -0.05962679 -0.0596169 -0.05960676 -0.0595963 -0.05958516 -0.05957351 -0.0595632 -0.05955429 -0.05954822
 -0.0595445 -0.05954223 -0.05954075 -0.05953795 -0.05953367 -0.05952663 -0.0595172 -0.05950519 -0.05949146 -0.05947634
 -0.05946131 -0.05944696 -0.05943519 -0.05942697 -0.05942258 -0.05942266 -0.05942479 -0.05942887 -0.05943154 -0.0594324
 -0.05943031 -0.05942519 -0.0594185 -0.05941036 -0.05940282 -0.05939578 -0.05938968 -0.05938427 -0.05937885 -0.0593734
 -0.05936757 -0.05936141 -0.05935494 -0.05934798 -0.05934054 -0.05933191 -0.05932149 -0.05930893 -0.05929347 -0.0592767
 -0.05925868 -0.05924231 -0.05922829 -0.05921864 -0.05921397 -0.05921391 -0.05921863 -0.05922563 -0.05923476 -0.05924193
 -0.05924693 -0.05924593 -0.05923923 -0.05922651 -0.0592089 -0.05919048 -0.05917186 -0.05915702 -0.05914466 -0.05913454
 -0.05912511 -0.059114 -0.05910181 -0.05908773 -0.05907428 -0.05906294 -0.05905413 -0.05904892 -0.05904463 -0.05904084
 -0.05903517 -0.05902688 -0.05901694 -0.05900522 -0.0589949 -0.05898616 -0.05898084 -0.05897884 -0.05897915 -0.05898146
 -0.05898333 -0.05898451 -0.05898287 -0.0589782 -0.05896884 -0.05895507 -0.05893627 -0.05891383 -0.05888898 -0.05886336
 -0.05883894 -0.05881602 -0.05879546 -0.05877648 -0.05875876 -0.05874261 -0.05872788 -0.05871581 -0.05870678 -0.05870013
 -0.05869602 -0.05869098 -0.05868481 -0.0586742 -0.05865917 -0.05863922 -0.05861478 -0.05858829 -0.05856043 -0.0585351
 -0.05851252 -0.05849552 -0.05848324 -0.05847582 -0.05847132 -0.05846745 -0.05846287 -0.05845538 -0.05844551 -0.05843275
 -0.05841861 -0.05840377 -0.05838834 -0.05837274 -0.05835544 -0.05833613 -0.05831438 -0.05828987 -0.05826563 -0.05824179
 -0.05822261 -0.05820808 -0.05819869 -0.05819383 -0.05818952 -0.05818545 -0.05817802 -0.05816803 -0.05815561 -0.05814165
 -0.058128 -0.05811461 -0.05810225 -0.0580905 -0.05807903 -0.05806823 -0.05805825 -0.05804938 -0.05804213 -0.05803527
 -0.05802893 -0.05802033 -0.05800901 -0.05799285 -0.05797147 -0.05794493 -0.0579132 -0.05787917 -0.05784307 -0.057809
 -0.05777708 -0.05775033 -0.05772836 -0.05771132 -0.05769845 -0.05768781 -0.05767906 -0.05767051 -0.05766273 -0.05765559
 -0.05765023 -0.05764764 -0.0576485 -0.05765368 -0.05766279 -0.05767626 -0.05769206 -0.0577101 -0.05772681 -0.05774167
 -0.05775141 -0.0577555 -0.0577532 -0.05774438 -0.05773105 -0.05771327 -0.05769246 -0.05766847 -0.05764066 -0.05760921
 -0.0575743 -0.05753684 -0.05749955 -0.0574626 -0.05742821 -0.05739443 -0.05735996 -0.05732219 -0.0572775 -0.05722714
 -0.05716925 -0.0571111 -0.05705464 -0.05700774 -0.05697357 -0.0569539 -0.05695033 -0.05695779 -0.05697636 -0.0569967
 -0.05701823 -0.05703156 -0.05703647 -0.05703022 -0.05701349 -0.05699061 -0.05696171 -0.05692994 -0.05689407 -0.05685202
 -0.05680343 -0.05674554 -0.05668132 -0.05661236 -0.05654457 -0.05648395 -0.05643403 -0.05640016 -0.05637853 -0.05637011
 -0.05636577 -0.05636319 -0.05635547 -0.05634042 -0.05631743 -0.05628578 -0.05624999 -0.05621027 -0.05617191 -0.05613511
 -0.05610336 -0.05607632 -0.05605329 -0.05603335 -0.05601209 -0.05598899 -0.05595963 -0.05592563 -0.05588748 -0.05584811
 -0.05581187 -0.05578002 -0.05575609 -0.05573758 -0.05572445 -0.05571261 -0.05570007 -0.05568518 -0.05566659 -0.05564616
 -0.05562401 -0.05560185 -0.05558011 -0.05555752 -0.05553405 -0.05550714 -0.05547674 -0.05544261 -0.0554051 -0.05536708
 -0.05532891 -0.05529395 -0.05526199 -0.0552342 -0.05521002 -0.05518899 -0.05517053 -0.05515386 -0.05513808 -0.0551222
 -0.05510516 -0.05508599 -0.05506406 -0.0550387 -0.05501029 -0.05497862 -0.05494512 -0.0549099 -0.0548749 -0.05484027
 -0.05480815 -0.05477873 -0.05475318 -0.05473149 -0.05471226 -0.0546952 -0.05467703 -0.05465774 -0.0546355 -0.05461086
 -0.05458446 -0.05455671 -0.05452898 -0.05450067 -0.05447153 -0.05444083 -0.05440743 -0.05437202 -0.05433418 -0.05429652
 -0.05426003 -0.05422705 -0.0541989 -0.05417497 -0.05415579 -0.05413774 -0.05412045 -0.05410068 -0.05407806 -0.05405285
 -0.05402512 -0.05399735 -0.05396954 -0.05394286 -0.05391677 -0.05388923 -0.05385998 -0.0538269 -0.05379089 -0.0537525
 -0.05371346 -0.05367661 -0.05364266 -0.05361379 -0.05358863 -0.05356724 -0.05354723 -0.0535274 -0.0535066 -0.05348405
 -0.05346018 -0.05343485 -0.05340921 -0.05338339 -0.05335807 -0.05333335 -0.0533094 -0.05328624 -0.05326344 -0.05324085
 -0.05321694 -0.05319152 -0.05316265 -0.0531307 -0.05309557 -0.05305827 -0.05302091 -0.05298399 -0.05294947 -0.05291649
 -0.05288498 -0.05285398 -0.05282231 -0.05279108 -0.05276012 -0.05273196 -0.05270769 -0.05268754 -0.05267224 -0.05265848
 -0.05264609 -0.0526309 -0.05261249 -0.05258934 -0.05256138 -0.05253003 -0.05249547 -0.0524601 -0.05242404 -0.05238906
 -0.05235519 -0.0523235 -0.05229383 -0.05226639 -0.05224087 -0.05221702 -0.05219418 -0.05217167 -0.05214876 -0.05212485
 -0.05209918 -0.05207121 -0.05204068 -0.05200729 -0.05197141 -0.05193286 -0.05189313 -0.05185225 -0.05181261 -0.0517744
 -0.05173932 -0.05170746 -0.05167877 -0.05165311 -0.05162921 -0.05160686 -0.05158441 -0.0515616 -0.05153681 -0.05150976
 -0.05147871 -0.05144421 -0.0514058 -0.05136548 -0.05132489 -0.05128632 -0.05125225 -0.05122301 -0.0511998 -0.05118075
 -0.05116563 -0.0511521 -0.05113955 -0.05112674 -0.05111345 -0.05109873 -0.05108254 -0.05106325 -0.05104076 -0.05101394
 -0.05098294 -0.05094917 -0.05091298 -0.05087734 -0.05084221 -0.0508093 -0.05077795 -0.05074745 -0.05071742 -0.05068672
 -0.05065592 -0.05062523 -0.05059526 -0.05056686 -0.0505393 -0.05051266 -0.05048531 -0.05045658 -0.05042601 -0.05039315
 -0.05035933 -0.05032456 -0.05029115 -0.05025929 -0.0502311 -0.05020668 -0.05018717 -0.05017241 -0.05016105 -0.05015242
 -0.05014204 -0.05012947 -0.05011036 -0.05008554 -0.0500544 -0.05001883 -0.04998149 -0.04994405 -0.04990944 -0.04987825
 -0.04985209 -0.0498303 -0.04981348 -0.04979892 -0.0497863 -0.04977129 -0.04975269 -0.04972808 -0.04969642 -0.04966058
 -0.0496205 -0.04958223 -0.0495461 -0.04951582 -0.04949111 -0.0494696 -0.04945059 -0.04942855 -0.04940366 -0.04937309
 -0.04933857 -0.04930257 -0.04926685 -0.04923588 -0.04920913 -0.04918836 -0.04917064 -0.04915438 -0.04913698 -0.04911638
 -0.04909214 -0.04906342 -0.04903123 -0.04899552 -0.04895791 -0.0489185 -0.04887972 -0.04884179 -0.04880714 -0.04877592
 -0.04874834 -0.04872428 -0.04870219 -0.04868195 -0.04866209 -0.04864253 -0.04862229 -0.04860126 -0.04857855 -0.04855447
 -0.04852895 -0.04850293 -0.0484775 -0.04845323 -0.04843126 -0.0484107 -0.04839153 -0.04837228 -0.04835231 -0.0483309
 -0.04830771 -0.04828256 -0.04825542 -0.04822586 -0.04819381 -0.04815953 -0.04812302 -0.04808577 -0.04804793 -0.04801187
 -0.04797766 -0.0479471 -0.04791981 -0.04789552 -0.04787352 -0.04785199 -0.04783033 -0.04780661 -0.04778081 -0.04775196
 -0.04772088 -0.04768761 -0.04765386 -0.04762027 -0.04758921 -0.0475619 -0.04753905 -0.04752161 -0.04750687 -0.04749486
 -0.04748083 -0.04746426 -0.04744245 -0.04741516 -0.04738358 -0.04734782 -0.0473102 -0.0472707 -0.04723014 -0.04718854
 -0.04714625 -0.04710367 -0.04706188 -0.04702162 -0.04698471 -0.04695141 -0.0469231 -0.0468987 -0.04687809 -0.0468592
 -0.04684093 -0.04682151 -0.04679978 -0.04677572 -0.04674888 -0.04672075 -0.04669144 -0.04666265 -0.04663461 -0.0466082
 -0.04658351 -0.04656006 -0.04653775 -0.04651475 -0.04649087 -0.04646362 -0.04643313 -0.04639824 -0.04635968 -0.04631859
 -0.04627602 -0.04623425 -0.04619408 -0.04615751 -0.04612457 -0.04609618 -0.04607141 -0.04605042 -0.04603069 -0.04601151
 -0.04598991 -0.04596481 -0.04593499 -0.04589974 -0.04586082 -0.0458182 -0.04577497 -0.04573132 -0.04568909 -0.04564831
 -0.04560946 -0.04557247 -0.04553718 -0.04550346 -0.04547075 -0.04543892 -0.04540721 -0.04537575 -0.04534425 -0.04531325
 -0.04528351 -0.04525489 -0.04522793 -0.04520095 -0.04517328 -0.04514308 -0.04510907 -0.04507178 -0.04503086 -0.04498824
 -0.04494416 -0.04490049 -0.0448574 -0.04481674 -0.04477862 -0.04474491 -0.04471557 -0.04468978 -0.04466701 -0.04464275
 -0.04461677 -0.04458522 -0.04454912 -0.0445091 -0.04446663 -0.04442496 -0.04438423 -0.04434615 -0.04430978 -0.04427486
 -0.04424053 -0.04420611 -0.04417143 -0.04413632 -0.04410059 -0.04406414 -0.04402689 -0.04398871 -0.04395022 -0.04391145
 -0.04387324 -0.04383567 -0.04379888 -0.04376285 -0.04372674 -0.04369051 -0.04365328 -0.0436152 -0.04357631 -0.04353688
 -0.04349779 -0.0434589 -0.04342045 -0.04338183 -0.04334242 -0.0433016 -0.04325837 -0.04321323 -0.04316596 -0.04311806
 -0.04307003 -0.04302331 -0.04297863 -0.04293589 -0.04289534 -0.04285566 -0.04281675 -0.04277738 -0.04273745 -0.04269638
 -0.04265412 -0.04261032 -0.04256501 -0.04251824 -0.04247026 -0.04242231 -0.0423747 -0.0423293 -0.04228555 -0.04224346
 -0.04220189 -0.04215908 -0.04211494 -0.04206836 -0.04202092 -0.04197329 -0.04192666 -0.04188196 -0.04183892 -0.04179787
 -0.04175734 -0.04171718 -0.04167585 -0.04163316 -0.04158817 -0.04154078 -0.04149114 -0.04143928 -0.0413861 -0.0413316
 -0.04127635 -0.04122016 -0.04116234 -0.04110283 -0.04104084 -0.04097704 -0.04091203 -0.04084726 -0.04078493 -0.04072611
 -0.04067311 -0.04062472 -0.04058152 -0.04053989 -0.04049851 -0.04045416 -0.04040523 -0.04035168 -0.04029287 -0.0402316
 -0.04016806 -0.04010524 -0.04004344 -0.03998338 -0.03992503 -0.03986661 -0.03980799 -0.03974714 -0.03968431 -0.03961947
 -0.0395532 -0.03948728 -0.03942181 -0.03935802 -0.03929519 -0.03923286 -0.03917019 -0.03910621 -0.03904032 -0.0389719
 -0.03890058 -0.03882584 -0.03874831 -0.03866778 -0.03858627 -0.03850417 -0.03842304 -0.03834337 -0.03826396 -0.03818486
 -0.03810265 -0.03801716 -0.03792604 -0.03782955 -0.03772919 -0.03762569 -0.03752359 -0.03742284 -0.03732616 -0.03723194
 -0.03713843 -0.03704374 -0.03694422 -0.03683936 -0.0367269 -0.03660832 -0.03648395 -0.03635509 -0.03622274 -0.03608644
 -0.03594646 -0.03580113 -0.03564993 -0.03549292 -0.03532964 -0.03516434 -0.03499722 -0.03483387 -0.03467452 -0.03452005
 -0.0343701 -0.03422106 -0.03407306 -0.03392467 -0.03377686 -0.03363253 -0.03349116 -0.03335384 -0.03321784 -0.03307902
 -0.03293716 -0.03278881 -0.03263994 -0.03249347 -0.03235469 -0.03222828 -0.03211146 -0.03200504 -0.03190245 -0.03180202
 -0.03170159 -0.0316004 -0.03149996 -0.03140048 -0.03130089 -0.03120108 -0.03109545 -0.03098388 -0.03086269 -0.0307328
 -0.03059737 -0.03045673 -0.03031437 -0.03016835 -0.03001618 -0.02985627 -0.02968457 -0.02950205 -0.02930823 -0.02910421
 -0.02889204 -0.0286674 -0.02842993 -0.02817136 -0.02788817 -0.0275779 -0.02723764 -0.02687731 -0.02649712 -0.02611217
 -0.02572395 -0.02534006 -0.02496087 -0.02458528 -0.02421268 -0.02383668 -0.02345592 -0.02305995 -0.02264769 -0.02220806
 -0.02174521 -0.02126081 -0.02076442 -0.02027297 -0.01978853 -0.01932264 -0.01886514 -0.01841236 -0.01795527 -0.01748646
 -0.01700838 -0.01651907 -0.01602756 -0.01553554 -0.01504944 -0.0145702 -0.01410372 -0.01365057 -0.01321624 -0.01280099
 -0.01240216 -0.01201923 -0.01164446 -0.01127865 -0.01092221 -0.01057665 -0.0102488 -0.009936044 -0.009636967 -0.009345802
 -0.009051188 -0.008754092 -0.00844803 -0.008145366 -0.007853631 -0.007581044 -0.007335974 -0.007113825 -0.006914913 -0.006733887
 -0.006568926 -0.006420205 -0.00628746 -0.006171626 -0.006072757 -0.005991233 -0.005927089 -0.005885515 -0.005866995 -0.005879723
 -0.005922932 -0.005997183 -0.006099726 -0.006221015 -0.006359654 -0.006507254 -0.006664872 -0.006830703 -0.007005587 -0.007190614
 -0.007383788 -0.007584712 -0.007789138 -0.007995042 -0.008198434 -0.008397592 -0.008589589 -0.008773605 -0.008946905 -0.009108804
 -0.00925868 -0.00939614 -0.00952485 -0.009644991 -0.009763887 -0.009881997 -0.01000715 -0.01013941 -0.01028355 -0.01043866
 -0.01060428 -0.01077911 -0.01095973 -0.01114576 -0.01133496 -0.01152773 -0.01172398 -0.01192333 -0.01212602 -0.01232981
 -0.01253393 -0.01273531 -0.01293226 -0.01312456 -0.01331099 -0.01349658 -0.01368141 -0.0138737 -0.01407417 -0.01428949
 -0.01452006 -0.0147689 -0.01503607 -0.01532275 -0.01562895 -0.01595594 -0.01630253 -0.01666657 -0.01704327 -0.01742086
 -0.01779325 -0.01814377 -0.01847255 -0.01877169 -0.01904794 -0.01930425 -0.01954588 -0.01977747 -0.01999822 -0.02020894
 -0.02040781 -0.02059405 -0.02076904 -0.02093276 -0.02108742 -0.02123327 -0.02137138 -0.02150183 -0.02162611 -0.02174434
 -0.02185888 -0.02196951 -0.02207622 -0.02217824 -0.02227269 -0.02235905 -0.0224343 -0.02249916 -0.02255314 -0.02259791
 -0.02263518 -0.02266634 -0.02269321 -0.02271606 -0.02273555 -0.02275151 -0.02276389 -0.02277316 -0.02277944 -0.02278296
 -0.02278391 -0.02278144 -0.02277554 -0.02276472 -0.02274889 -0.02272719 -0.0226997 -0.02266757 -0.02263123 -0.02259367
 -0.02255566 -0.02252132 -0.02249216 -0.02247357 -0.02246785 -0.0224812 -0.02251582 -0.02257721 -0.02266541 -0.02278312
 -0.02292701 -0.02309689 -0.02328642 -0.02349342 -0.02371211 -0.02394064 -0.02417522 -0.02441535 -0.02465592 -0.02489664
 -0.02512996 -0.02535536 -0.02556926 -0.02577176 -0.02596523 -0.02614987 -0.02632813 -0.02649956 -0.02666357 -0.02681983
 -0.02696696 -0.02710551 -0.02723578 -0.02735844 -0.02747476 -0.02758416 -0.02768705 -0.02778129 -0.02786591 -0.02793863
 -0.02799811 -0.02804391 -0.02807546 -0.02809395 -0.02809966 -0.0280926 -0.02807303 -0.02803797 -0.02798722 -0.02791793
 -0.02783031 -0.02772817 -0.02761278 -0.02749533 -0.02737647 -0.02726548 -0.0271608 -0.02706287 -0.02697033 -0.02688035
 -0.02679362 -0.02671014 -0.02662995 -0.02655414 -0.02647921 -0.0264036 -0.0263239 -0.02623726 -0.02614644 -0.02605095
 -0.02595721 -0.02586684 -0.02578067 -0.0256994 -0.02561804 -0.0255363 -0.02545044 -0.02536044 -0.0252671 -0.02517078
 -0.02507475 -0.02497897 -0.02488537 -0.02479292 -0.02470022 -0.02460543 -0.02450462 -0.02439619 -0.02427662 -0.02414473
 -0.02399896 -0.02383647 -0.02365616 -0.02345218 -0.02322196 -0.02296111 -0.02266673 -0.02234234 -0.02198699 -0.02161193
 -0.02121809 -0.02081652 -0.02040807 -0.0199993 -0.01959055 -0.01918739 -0.01879062 -0.01840906 -0.01804388 -0.01770457
 -0.01739226 -0.01711439 -0.01687282 -0.01667417 -0.01652063 -0.01641829 -0.01636676 -0.01636899 -0.01642014 -0.01651882
 -0.01665824 -0.01683563 -0.01704455 -0.01728317 -0.01754479 -0.01782829 -0.01812657 -0.0184389 -0.01875824 -0.01908412
 -0.01940943 -0.01973384 -0.02005161 -0.02036289 -0.02066603 -0.0209615 -0.02125094 -0.0215339 -0.02181062 -0.02207884
 -0.02233479 -0.02257528 -0.02279428 -0.02299028 -0.02315875 -0.02330259 -0.02342074 -0.02352158 -0.02360747 -0.02368881
 -0.02376919 -0.0238552 -0.02394934 -0.02405104 -0.02416104 -0.0242731 -0.02438701 -0.02449282 -0.02459 -0.02466848
 -0.02472836 -0.02476551 -0.02478169 -0.02478242 -0.02477005 -0.02475472 -0.02473675 -0.02472184 -0.02470879 -0.0246978
 -0.02468912 -0.02468223 -0.02468004 -0.02468407 -0.02469726 -0.0247218 -0.02475739 -0.02480511 -0.0248607 -0.02492404
 -0.02498838 -0.0250531 -0.02511128 -0.0251623 -0.02520229 -0.02523117 -0.02525013 -0.0252597 -0.02526488 -0.02526622
 -0.0252691 -0.02527354 -0.02528245 -0.02529555 -0.02531376 -0.02533648 -0.02536343 -0.02539364 -0.0254262 -0.02545993
 -0.02549386 -0.0255271 -0.02555905 -0.02558913 -0.02561685 -0.02564287 -0.02566697 -0.02569148 -0.0257166 -0.02574481
 -0.02577641 -0.02581122 -0.02584921 -0.02588828 -0.02592846 -0.02596921 -0.02601084 -0.026055 -0.02610131 -0.02614996
 -0.02619941 -0.02624664 -0.02629015 -0.02632605 -0.02635491 -0.02637544 -0.02639009 -0.02640011 -0.02640755 -0.02641425
 -0.02641904 -0.02642245 -0.02642081 -0.02641337 -0.02639778 -0.02637329 -0.02634145 -0.0263022 -0.02625927 -0.02621283
 -0.02616462 -0.02611441 -0.02606054 -0.02600272 -0.02593854 -0.02586824 -0.02579092 -0.02570781 -0.02562049 -0.02553137
 -0.02544416 -0.02536184 -0.02528876 -0.02522679 -0.02517915 -0.02514455 -0.02512412 -0.02511268 -0.02510941 -0.02510747
 -0.02510518 -0.0250982 -0.0250853 -0.02506755 -0.02504478 -0.02502131 -0.02499733 -0.02497551 -0.02495565 -0.02493636
 -0.02491715 -0.02489459 -0.02486868 -0.02483739 -0.0248014 -0.024761 -0.02471728 -0.02467211 -0.02462603 -0.0245805
 -0.02453502 -0.02448961 -0.024444 -0.02439751 -0.02435225 -0.02430829 -0.02426959 -0.02423709 -0.02421339 -0.02419931
 -0.02419367 -0.02419662 -0.02420414 -0.02421601 -0.02422858 -0.02424179 -0.02425383 -0.02426467 -0.02427318 -0.02427939
 -0.02428251 -0.02428316 -0.02428197 -0.02428048 -0.02428143 -0.02428575 -0.02429595 -0.02431102 -0.0243314 -0.02435467
 -0.02437964 -0.0244048 -0.02442911 -0.02445299 -0.0244762 -0.02450012 -0.02452497 -0.02455143 -0.02457972 -0.0246084
 -0.02463738 -0.02466347 -0.0246866 -0.02470487 -0.02471871 -0.02472988 -0.02473847 -0.02474642 -0.02475204 -0.02475285
 -0.02474631 -0.02472674 -0.02469433 -0.02464612 -0.02458603 -0.02451581 -0.02443954 -0.02436022 -0.02427866 -0.02419604
 -0.02411113 -0.02402389 -0.0239331 -0.0238387 -0.02373902 -0.02363406 -0.02351977 -0.02339594 -0.0232592 -0.02310989
 -0.02295074 -0.02278318 -0.02261675 -0.02245273 -0.02230125 -0.02216135 -0.02203663 -0.02192377 -0.02181928 -0.02171977
 -0.02161969 -0.02151819 -0.02141211 -0.02130406 -0.02119402 -0.02108639 -0.02098289 -0.02088588 -0.02079684 -0.02071365
 -0.02063648 -0.02056098 -0.02048664 -0.02041175 -0.02033617 -0.02026232 -0.02019032 -0.02012282 -0.02005931 -0.01999824
 -0.01993867 -0.01987635 -0.01981091 -0.019739 -0.01966145 -0.01957807 -0.01948984 -0.01939793 -0.01930252 -0.01920423
 -0.01910259 -0.01899714 -0.01888887 -0.01877775 -0.01866603 -0.01855443 -0.01844366 -0.01833439 -0.01822335 -0.01811042
 -0.01799096 -0.01786469 -0.01773044 -0.01758847 -0.01744224 -0.01729214 -0.01714226 -0.01699243 -0.01684412 -0.01669705
 -0.01655081 -0.01640624 -0.01626397 -0.01612646 -0.01599642 -0.01587693 -0.01577145 -0.0156814 -0.0156091 -0.01555252
 -0.01551203 -0.01548301 -0.01546462 -0.01545228 -0.01544526 -0.01543968 -0.01543526 -0.015427 -0.01541459 -0.0153922
 -0.01535968 -0.0153141 -0.01525608 -0.01518806 -0.01511095 -0.01502945 -0.01494416 -0.01485891 -0.01477391 -0.01469105
 -0.01461088 -0.01453456 -0.01446292 -0.01439672 -0.01433747 -0.014286 -0.01424419 -0.01421295 -0.01419344 -0.01418644
 -0.01419076 -0.01420666 -0.01423082 -0.01426313 -0.0142988 -0.01433753 -0.01437563 -0.0144131 -0.01444992 -0.01448647
 -0.01452575 -0.01456735 -0.01461189 -0.01465748 -0.01469949 -0.01473674 -0.01476437 -0.01478392 -0.01479498 -0.01480026
 -0.01480217 -0.01480182 -0.01480045 -0.01479873 -0.01479662 -0.01479699 -0.01480019 -0.01481042 -0.01482843 -0.01485719
 -0.01489715 -0.01494936 -0.01501394 -0.01509009 -0.01517764 -0.01527358 -0.01537776 -0.0154874 -0.01560297 -0.01572469
 -0.01585353 -0.01599237 -0.01614135 -0.01630255 -0.01647444 -0.01665638 -0.01684571 -0.01704002 -0.01723713 -0.01743506
 -0.01763287 -0.01782987 -0.01802527 -0.01821913 -0.01840881 -0.0185941 -0.01877119 -0.01893961 -0.01909719 -0.01924371
 -0.01937898 -0.01950297 -0.01961492 -0.01971475 -0.01980116 -0.01987443 -0.01993476 -0.0199831 -0.02002192 -0.02005227
 -0.02007709 -0.02009722 -0.02011482 -0.02013073 -0.02014641 -0.0201623 -0.02017917 -0.02019669 -0.02021489 -0.0202334
 -0.02025195 -0.0202711 -0.02029078 -0.02031243 -0.02033632 -0.02036226 -0.02039042 -0.02041531 -0.02043651 -0.02044506
 -0.02044092 -0.02041896 -0.02038096 -0.02033129 -0.02027266 -0.02021489 -0.02015908 -0.02011243 -0.02007335 -0.02004295
 -0.02001887 -0.01999919 -0.01998264 -0.01996778 -0.01995437 -0.01994194 -0.01993076 -0.01992104 -0.01991209 -0.01990408
 -0.01989473 -0.01988401 -0.01986783 -0.01984592 -0.01981489 -0.0197747 -0.0197253 -0.01966715 -0.01960397 -0.01953607
 -0.01946696 -0.01939631 -0.01932484 -0.01925254 -0.01917918 -0.01910626 -0.01903559 -0.01896866 -0.01890805 -0.01885283
 -0.01880349 -0.01875778 -0.01871452 -0.01867339 -0.01863397 -0.01859697 -0.0185628 -0.01852988 -0.01849827 -0.01846444
 -0.0184281 -0.0183879 -0.01834386 -0.01829813 -0.01825091 -0.01820478 -0.0181598 -0.01811756 -0.01807808 -0.01804229
 -0.01800996 -0.01798149 -0.01795563 -0.0179311 -0.01790625 -0.0178788 -0.01784861 -0.01781441 -0.01777833 -0.01774083
 -0.01770433 -0.0176699 -0.0176377 -0.01760811 -0.01757997 -0.01755328 -0.01752638 -0.01749923 -0.01746833 -0.01743346
 -0.01738932 -0.01733592 -0.01727056 -0.01719426 -0.0171101 -0.01701967 -0.01692904 -0.01683967 -0.01675693 -0.01668274
 -0.0166219 -0.01657578 -0.01654855 -0.0165369 -0.0165418 -0.0165533 -0.01656772 -0.0165756 -0.01657233 -0.01655696
 -0.01652763 -0.01649089 -0.01644737 -0.01640209 -0.01635566 -0.01630736 -0.01625716 -0.01620268 -0.01614418 -0.01608297
 -0.01601972 -0.01595856 -0.0158994 -0.01584454 -0.01579266 -0.0157421 -0.01569193 -0.01563959 -0.01558625 -0.01553183
 -0.01547853 -0.01542829 -0.01538098 -0.01533752 -0.01529533 -0.01525375 -0.01521094 -0.01516617 -0.0151201 -0.01507283
 -0.01502421 -0.01497435 -0.01492089 -0.01486375 -0.01480185 -0.0147356 -0.01466829 -0.01460061 -0.01453793 -0.01448024
 -0.01443053 -0.01438811 -0.01435328 -0.0143246 -0.01430091 -0.01427883 -0.01425541 -0.01422543 -0.014184 -0.01412927
 -0.01405745 -0.01397501 -0.01388202 -0.01378981 -0.01370115 -0.01362189 -0.0135541 -0.01349279 -0.01343802 -0.01337991
 -0.01331803 -0.01324663 -0.01316603 -0.01307712 -0.01298081 -0.01288174 -0.01278118 -0.01268532 -0.01259554 -0.01251802
 -0.01245289 -0.01240359 -0.01236795 -0.01234542 -0.01233269 -0.01232756 -0.01232665 -0.01232844 -0.01232824 -0.01232495
 -0.01231183 -0.01228724 -0.01224648 -0.012188 -0.01211478 -0.01202653 -0.01193359 -0.01183651 -0.01174705 -0.0116653
 -0.01159685 -0.01154052 -0.01149334 -0.0114534 -0.01141274 -0.01137048 -0.01132047 -0.01126366 -0.0111986 -0.01112714
 -0.0110505 -0.01097072 -0.01088923 -0.01080876 -0.01073059 -0.01065813 -0.01059275 -0.01053685 -0.01049155 -0.01045607
 -0.01043077 -0.01041195 -0.01039938 -0.01038943 -0.01038189 -0.01037491 -0.01036827 -0.0103593 -0.01034713 -0.01032551
 -0.01029388 -0.01024628 -0.01018465 -0.01010951 -0.01002511 -0.00993802 -0.009851967 -0.009773607 -0.009704424 -0.009647549
 -0.009603404 -0.00957356 -0.009555694 -0.009550648 -0.009550434 -0.009554387 -0.009550587 -0.009537103 -0.009506138 -0.009456279
 -0.009390933 -0.009310261 -0.009226907 -0.009141601 -0.009067353 -0.009003486 -0.008953487 -0.00891487 -0.008880937 -0.00884978
 -0.008812997 -0.008771734 -0.008723744 -0.008671688 -0.008618059 -0.008563659 -0.008510722 -0.008456584 -0.008400891 -0.00833969
 -0.008271171 -0.008194176 -0.008107134 -0.008015297 -0.007918535 -0.007826954 -0.007741575 -0.007668521 -0.007608178 -0.007556558
 -0.007513042 -0.007468267 -0.007422094 -0.007368556 -0.00730885 -0.007243613 -0.007174981 -0.007107822 -0.007044741 -0.00699245
 -0.006951545 -0.006926649 -0.006913191 -0.006910441 -0.00691001 -0.006907016 -0.006896721 -0.006875207 -0.006845511 -0.006807693
 -0.006764724 -0.006717757 -0.006663131 -0.006600553 -0.006527186 -0.006442802 -0.006356879 -0.00627037 -0.006199706 -0.006144048
 -0.006107931 -0.00608684 -0.006066675 -0.006043914 -0.006001172 -0.005941972 -0.005862599 -0.00577227 -0.005680748 -0.005593234
 -0.005519149 -0.005453616 -0.00539727 -0.00534223 -0.005283869 -0.005224993 -0.005163405 -0.005114263 -0.005080724 -0.005066223
 -0.005072603 -0.005084207 -0.005100191 -0.005110862 -0.005116487 -0.005120366 -0.005122788 -0.005127715 -0.005133735 -0.005137336
 -0.005137678 -0.005130164 -0.005116565 -0.005097919 -0.005075675 -0.005052563 -0.005027548 -0.005000216 -0.004971109 -0.004939609
 -0.004909314 -0.004881912 -0.004857967 -0.004838929 -0.004819172 -0.004798146 -0.004770102 -0.004734094 -0.004690125 -0.004638089
 -0.004582631 -0.004524068 -0.004467945 -0.004414511 -0.004368297 -0.004329087 -0.004298896 -0.004276494 -0.004260194 -0.004248022
 -0.004235993 -0.004222268 -0.004202808 -0.004177426 -0.004144085 -0.00410495 -0.00406027 -0.00401343 -0.003965542 -0.003920017
 -0.003878035 -0.003841342 -0.003810844 -0.003784352 -0.003762117 -0.003737177 -0.003709068 -0.003674571 -0.003634155 -0.003596322
 -0.003561974 -0.003542484 -0.00353612 -0.003542456 -0.003558396 -0.003574987 -0.003592069 -0.003605329 -0.003615397 -0.003622716
 -0.003623784 -0.003616042 -0.003595968 -0.003558446 -0.003510319 -0.003451028 -0.003395591 -0.003348385 -0.003317547 -0.00330671
 -0.003309018 -0.003324724 -0.003340474 -0.003355378 -0.003361807 -0.003359785 -0.003350511 -0.003334649 -0.003317567 -0.003299395
 -0.003283638 -0.003269685 -0.003257708 -0.003247106 -0.003236827 -0.003226623 -0.003215955 -0.003204131 -0.003190399 -0.003174203
 -0.003154667 -0.003132793 -0.003108969 -0.003083317 -0.003056905 -0.003024556 -0.002985775 -0.002934343 -0.002868781 -0.002792966
 -0.002706796 -0.002624724 -0.002547243 -0.00248351 -0.002432072 -0.002385864 -0.002343735 -0.002295494 -0.002244601 -0.002195182
 -0.002150967 -0.002123867 -0.002107522 -0.002101274 -0.002090856 -0.002061583 -0.002009304 -0.001922722 -0.001818265 -0.001697534
 -0.001584995 -0.001488352 -0.001421405 -0.001389384 -0.001389648 -0.001423532 -0.001476345 -0.001547399 -0.001617661 -0.001686401
 -0.001741773 -0.001784321 -0.001813382 -0.001828973 -0.001831137 -0.001818515 -0.001785502 -0.001735343 -0.0016681 -0.001596362
 -0.001535793 -0.001498619 -0.001504905 -0.001549971 -0.001641366 -0.001755599 -0.001886283 -0.002008143 -0.002111205 -0.002186698
 -0.002228623 -0.002252175 -0.002257058 -0.002271135 -0.002296502 -0.002349036 -0.002429025</values></Ydata></AB><ScSm><Ydata ylabel="Single channel"><values byteorder="INTEL" format="FLOAT32" numvalues="1814"> 0.08420616 0.08431078 0.08443188 0.08457779 0.08474168 0.08490482 0.08504974 0.08517195 0.0852778 0.08537166
 0.08545536 0.08554173 0.08565386 0.08580263 0.08597206 0.08613042 0.0862532 0.08634297 0.08643261 0.08655497
 0.08669849 0.08680326 0.08681583 0.086748 0.08667287 0.08665985 0.08672722 0.08687373 0.08712059 0.08745156
 0.0877263 0.08777119 0.08759832 0.08743241 0.0874629 0.08765407 0.08784078 0.08791068 0.08784686 0.08770807
 0.08765051 0.08788095 0.08847004 0.08919653 0.08961332 0.08930536 0.08816764 0.0865559 0.08520031 0.08482276
 0.08561647 0.08703059 0.08818266 0.08856987 0.08834092 0.08791808 0.08755665 0.0873397 0.08737459 0.08777355
 0.08846927 0.0891424 0.08934878 0.0888133 0.08774213 0.08678108 0.08648937 0.086908 0.08775972 0.08878333
 0.08948253 0.08887616 0.08636602 0.08305296 0.08139539 0.08294056 0.08670728 0.09020682 0.09170888 0.09116015
 0.08946873 0.08770038 0.08679479 0.08724459 0.08877535 0.09061921 0.09212372 0.09292708 0.09280062 0.09175681
 0.0902604 0.08902903 0.08863361 0.08933587 0.09098475 0.09285279 0.09392335 0.09369045 0.09254018 0.09125067
 0.09041761 0.09042031 0.09145229 0.09329204 0.09532519 0.09699707 0.09810007 0.09865104 0.09875499 0.09858403
 0.09829365 0.09800179 0.09790501 0.09817652 0.09862862 0.09875306 0.09828633 0.0975653 0.09718492 0.09738466
 0.09784428 0.0980716 0.09789119 0.09735307 0.09623148 0.09413354 0.09130515 0.08876035 0.08729021 0.08690576
 0.08748379 0.08910631 0.091279 0.09268635 0.09251498 0.09155151 0.09133302 0.09248298 0.09431633 0.0958363
 0.0967025 0.0972873 0.09809183 0.09918098 0.1000414 0.09996244 0.0987635 0.09724884 0.09667522 0.09753598
 0.0990788 0.1002285 0.1007156 0.1010426 0.1015943 0.1020789 0.1017852 0.1003458 0.09837609 0.09725855
 0.09800413 0.1002508 0.1024524 0.1030471 0.1015674 0.09889364 0.09651752 0.09547019 0.09591955 0.09759822
 0.1001755 0.1030984 0.1054997 0.1066366 0.1064037 0.1053163 0.1039482 0.1023965 0.1004826 0.09858477
 0.09786054 0.09916589 0.1019564 0.10472 0.1063725 0.1068601 0.1065449 0.1054716 0.1034664 0.1008961
 0.09900821 0.09900568 0.1006783 0.1024548 0.1030732 0.1027615 0.1025234 0.1027675 0.103085 0.1030888
 0.1029931 0.1033074 0.1041848 0.1052245 0.1058944 0.1060199 0.1058229 0.1056096 0.1054809 0.1052737
 0.1048124 0.1042984 0.1042956 0.1051358 0.1064708 0.1076225 0.108252 0.1084958 0.1085536 0.1083528
 0.107674 0.1065782 0.1056158 0.1054356 0.1061529 0.1072611 0.1081727 0.1086583 0.1087873 0.1087036
 0.108529 0.1083331 0.1081503 0.1080638 0.1081926 0.1085318 0.108905 0.1091394 0.1092087 0.1091686
 0.1090426 0.108824 0.1085497 0.1083226 0.1082463 0.1083422 0.1085465 0.1087776 0.1089696 0.1090597
 0.10901 0.1088557 0.108683 0.1085492 0.1084604 0.108418 0.1084409 0.1085292 0.10864 0.1087195
 0.1087468 0.1087351 0.108697 0.1086323 0.1085462 0.1084644 0.1084208 0.1084358 0.1084986 0.1085734
 0.1086398 0.1087172 0.1088213 0.1089114 0.1089241 0.1088555 0.1087701 0.1087315 0.1087541 0.108815
 0.1088805 0.1089154 0.1088884 0.1087947 0.108682 0.1086344 0.1087084 0.1088905 0.1091266 0.1093679
 0.1095771 0.1097272 0.1098223 0.1098965 0.1099737 0.1100451 0.1100951 0.1101337 0.1101982 0.110326
 0.1105179 0.1107319 0.1109175 0.111053 0.1111464 0.111225 0.1113286 0.1114778 0.111635 0.1117349
 0.1117679 0.1117994 0.1118907 0.1120279 0.1121462 0.1122069 0.112233 0.1122756 0.1123603 0.1124705
 0.1125782 0.1126772 0.1127864 0.1129193 0.1130523 0.1131308 0.1131233 0.1130635 0.1130187 0.1130209
 0.1130533 0.1130972 0.1131591 0.1132451 0.1133327 0.1133871 0.1133984 0.113392 0.1133996 0.1134229
 0.1134336 0.1134073 0.1133502 0.1132897 0.1132479 0.113227 0.1132123 0.1131867 0.1131415 0.1130786
 0.1130032 0.1129185 0.1128261 0.1127333 0.1126606 0.1126351 0.1126568 0.1126736 0.1126111 0.1124424
 0.1122174 0.1120147 0.1118713 0.1117653 0.1116525 0.1115094 0.1113437 0.1111771 0.1110253 0.1108903
 0.1107654 0.1106437 0.110529 0.1104401 0.1103953 0.1103819 0.1103531 0.1102691 0.1101383 0.1100053
 0.109904 0.1098375 0.109793 0.1097597 0.1097345 0.1097235 0.1097344 0.1097589 0.1097745 0.1097703
 0.1097637 0.1097831 0.1098461 0.1099536 0.1100861 0.1102051 0.1102783 0.1103143 0.1103576 0.110443
 0.1105667 0.110705 0.110845 0.1109908 0.1111503 0.1113272 0.1115232 0.1117404 0.11198 0.1122386
 0.1125065 0.1127698 0.1130214 0.1132711 0.1135399 0.1138411 0.1141679 0.1145004 0.1148226 0.115134
 0.1154441 0.1157603 0.1160807 0.1164032 0.1167348 0.1170859 0.1174554 0.1178299 0.1181981 0.1185598
 0.1189215 0.1192872 0.1196571 0.1200338 0.1204274 0.1208476 0.1212847 0.1217048 0.1220753 0.1223982
 0.1227102 0.1230505 0.1234318 0.1238353 0.1242244 0.1245706 0.1248798 0.1251891 0.1255281 0.1258871
 0.126238 0.1265799 0.1269457 0.1273578 0.1277882 0.1281754 0.1284826 0.1287335 0.1289863 0.1292735
 0.1295747 0.1298514 0.1300958 0.130333 0.1305848 0.1308497 0.1311236 0.1314179 0.131741 0.1320737
 0.1323828 0.1326539 0.1328987 0.133131 0.1333475 0.1335349 0.1336873 0.1338183 0.1339569 0.1341241
 0.1343127 0.1344987 0.1346748 0.13486 0.1350728 0.1353115 0.1355676 0.1358441 0.1361445 0.1364548
 0.1367559 0.1370544 0.1373789 0.1377341 0.1380784 0.1383649 0.1385948 0.1388093 0.1390385 0.1392855
 0.1395528 0.1398544 0.1401958 0.1405595 0.140918 0.1412542 0.1415724 0.1418965 0.1422473 0.1426126
 0.1429483 0.1432199 0.1434381 0.1436476 0.1438891 0.1441742 0.1444877 0.1448037 0.1451014 0.1453669
 0.1455848 0.145739 0.14583 0.1458814 0.1459146 0.1459188 0.1458558 0.1456927 0.1454168 0.1450208
 0.1444908 0.1438219 0.143044 0.142231 0.1414849 0.1409065 0.1405715 0.1405202 0.1407562 0.1412445
 0.1419092 0.1426428 0.1433302 0.1438702 0.144181 0.1442074 0.1439364 0.1434039 0.1426777 0.1418305
 0.1409254 0.1400118 0.139128 0.138319 0.1376672 0.1373006 0.1373588 0.1379435 0.1390832 0.1407101
 0.1426526 0.1446734 0.1465572 0.1481914 0.149575 0.1507654 0.151822 0.1527878 0.153693 0.1545563
 0.1553822 0.1561669 0.1569088 0.1576091 0.1582621 0.1588511 0.1593552 0.1597571 0.1600498 0.1602445
 0.1603683 0.160449 0.1605047 0.160548 0.1605843 0.1605943 0.1605266 0.1603222 0.1599508 0.1594326
 0.1588451 0.1583277 0.158073 0.1582802 0.1590715 0.1604171 0.1621332 0.1639671 0.1657033 0.1672128
 0.1684466 0.1694152 0.1701739 0.1707953 0.1713378 0.1718353 0.172305 0.1727559 0.1731915 0.1736139
 0.1740259 0.1744317 0.1748374 0.1752476 0.1756602 0.1760662 0.1764588 0.1768424 0.1772296 0.1776306
 0.1780444 0.1784601 0.1788704 0.1792802 0.1796958 0.1801092 0.1805033 0.1808731 0.1812322 0.1815988
 0.1819822 0.1823809 0.1827828 0.1831698 0.1835296 0.1838662 0.1841939 0.184522 0.1848501 0.1851745
 0.1854937 0.1858085 0.1861204 0.1864333 0.1867526 0.187079 0.1874041 0.1877138 0.188001 0.1882732
 0.1885461 0.1888302 0.1891231 0.189416 0.1897047 0.1899954 0.1902984 0.1906152 0.1909348 0.1912425
 0.1915317 0.1918077 0.1920805 0.1923575 0.1926412 0.1929306 0.1932228 0.1935147 0.1938038 0.1940904
 0.1943777 0.1946689 0.1949641 0.1952608 0.1955557 0.1958462 0.196131 0.1964122 0.1966939 0.1969798
 0.1972698 0.1975586 0.1978382 0.1981037 0.1983584 0.1986107 0.1988679 0.1991332 0.1994061 0.1996827
 0.199957 0.2002259 0.2004907 0.2007535 0.2010153 0.2012765 0.2015386 0.2018037 0.2020733 0.2023453
 0.2026151 0.2028791 0.2031387 0.203398 0.2036594 0.2039228 0.2041864 0.2044499 0.2047164 0.2049879
 0.2052608 0.2055287 0.2057915 0.2060553 0.2063248 0.206599 0.2068737 0.2071453 0.2074116 0.2076743
 0.2079366 0.2081995 0.2084626 0.2087269 0.2089946 0.2092663 0.2095399 0.209811 0.2100771 0.2103414
 0.2106092 0.2108807 0.2111513 0.2114198 0.21169 0.2119637 0.2122392 0.2125147 0.2127896 0.2130632
 0.213335 0.2136052 0.2138743 0.2141438 0.2144136 0.2146806 0.2149438 0.2152082 0.2154792 0.2157549
 0.2160296 0.2163017 0.2165729 0.216846 0.2171244 0.2174092 0.2176977 0.2179877 0.2182788 0.2185698
 0.2188576 0.2191416 0.2194223 0.2196983 0.2199688 0.2202336 0.2204893 0.2207338 0.2209728 0.2212152
 0.2214645 0.2217197 0.2219792 0.2222389 0.222495 0.2227508 0.2230125 0.2232809 0.2235539 0.2238299
 0.2241069 0.224384 0.2246632 0.2249439 0.2252215 0.2254955 0.2257724 0.2260558 0.226344 0.2266356
 0.2269289 0.2272196 0.2275069 0.2277937 0.2280798 0.2283635 0.2286482 0.2289373 0.2292293 0.2295224
 0.2298163 0.2301073 0.2303924 0.2306768 0.2309652 0.2312559 0.2315486 0.2318463 0.2321467 0.2324452
 0.2327418 0.2330355 0.2333218 0.2336051 0.2338981 0.2342037 0.2345143 0.2348233 0.2351264 0.235422
 0.2357161 0.2360146 0.2363117 0.2366025 0.2368935 0.2371868 0.2374731 0.23775 0.238021 0.2382791
 0.2385035 0.238645 0.2385618 0.2379442 0.236274 0.2328382 0.2268658 0.217829 0.2057528 0.1913122
 0.1756532 0.1600398 0.1455067 0.1327084 0.1219913 0.1135318 0.1074371 0.10383 0.102912 0.1050562
 0.1109351 0.1211194 0.1346051 0.1475445 0.1546877 0.1533539 0.145859 0.1374159 0.1318947 0.1299257
 0.1302099 0.1314568 0.133149 0.1354035 0.1385316 0.1425786 0.1472728 0.1524699 0.158416 0.1653636
 0.1730738 0.1809025 0.1883385 0.1953303 0.2020962 0.2087321 0.2150625 0.2208108 0.2258107 0.2300587
 0.2336594 0.236765 0.2395163 0.2420071 0.2442954 0.246413 0.2483255 0.2499143 0.251045 0.2516755
 0.2519071 0.2519386 0.2519576 0.2520593 0.2522563 0.2525375 0.2528952 0.2533201 0.2538042 0.2543421
 0.2549189 0.2555109 0.256101 0.2566785 0.2572321 0.257754 0.2582447 0.2587064 0.2591426 0.2595629
 0.2599732 0.2603682 0.2607445 0.261111 0.261478 0.2618474 0.2622148 0.2625722 0.2629103 0.263227
 0.2635272 0.2638124 0.2640823 0.2643437 0.2646062 0.2648707 0.2651323 0.2653875 0.2656344 0.2658741
 0.2661127 0.2663556 0.2666005 0.2668423 0.267078 0.2673061 0.2675309 0.2677627 0.268007 0.2682558
 0.2684988 0.2687352 0.2689686 0.2691998 0.2694285 0.2696572 0.2698918 0.2701397 0.2704023 0.2706714
 0.2709376 0.2712005 0.2714652 0.2717324 0.272001 0.2722716 0.2725444 0.2728191 0.273097 0.2733758
 0.2736438 0.2738879 0.2741074 0.2743151 0.2745276 0.2747555 0.2749971 0.2752431 0.2754872 0.2757303
 0.2759734 0.2762153 0.2764554 0.2766946 0.2769351 0.2771854 0.2774561 0.2777454 0.2780384 0.2783239
 0.278603 0.2788808 0.279161 0.2794487 0.2797465 0.2800472 0.2803376 0.2806151 0.2808962 0.2812055
 0.28155 0.2819076 0.2822487 0.2825651 0.2828695 0.2831774 0.2834987 0.2838308 0.2841468 0.2844108
 0.2846281 0.2848614 0.285175 0.2855704 0.2859928 0.2863892 0.2867443 0.2870714 0.2873856 0.2876889
 0.2879719 0.2882242 0.2884537 0.2886996 0.2890096 0.28939 0.2897926 0.2901655 0.2904968 0.2908007
 0.2910907 0.2913757 0.291647 0.2918598 0.2919769 0.2920545 0.2922346 0.2926123 0.2931312 0.2936421
 0.2940517 0.2943809 0.2946886 0.2949939 0.2952846 0.2955346 0.2956688 0.2955991 0.2953852 0.2952943
 0.2955845 0.2962415 0.2970088 0.2976493 0.2981042 0.2984371 0.2987229 0.2989963 0.299233 0.2993563
 0.2993179 0.2992118 0.2992613 0.2996183 0.300192 0.3007447 0.3011391 0.301419 0.3016816 0.3019684
 0.3022418 0.3023629 0.3021523 0.3016315 0.3011867 0.3013177 0.3021548 0.3033102 0.3042668 0.304839
 0.3051794 0.3054183 0.3054714 0.3052007 0.3045878 0.3037372 0.3029226 0.3026384 0.3032789 0.3046326
 0.3059654 0.3067582 0.3071551 0.3075898 0.3082168 0.3088481 0.3092607 0.3093972 0.309321 0.3090799
 0.308685 0.308267 0.3081669 0.3086936 0.3097653 0.3109275 0.3117794 0.3122898 0.3126184 0.3126528
 0.3118832 0.310007 0.3077274 0.3065794 0.3075671 0.3101073 0.3126608 0.3142537 0.3150124 0.3154466
 0.315784 0.3159045 0.3153273 0.3133712 0.3100821 0.3070437 0.3064154 0.3088049 0.3125869 0.3154772
 0.3162749 0.3151084 0.3128595 0.3107572 0.3099391 0.3108313 0.3129688 0.3154672 0.3175557 0.3187908
 0.3190843 0.3186517 0.3179195 0.317413 0.3174276 0.3175809 0.3170515 0.3156461 0.3141764 0.313211
 0.3120325 0.3098113 0.3074603 0.3070662 0.3093094 0.3124793 0.3144547 0.3148725 0.314748 0.3144297
 0.3127635 0.3086154 0.3029726 0.2989202 0.2990006 0.3026737 0.3068506 0.3089295 0.308855 0.3082349
 0.3080774 0.3077248 0.3058349 0.3022801 0.2988898 0.2978183 0.2991337 0.3007209 0.3006251 0.2984347
 0.2942647 0.2882486 0.2821302 0.2796081 0.2830771 0.2906438 0.2977956 0.3012968 0.3002095 0.2945499
 0.2856095 0.2773513 0.2746348 0.2787341 0.2858465 0.2907696 0.2910064 0.2868815 0.2794203 0.2698892
 0.2608868 0.2560279 0.2576381 0.2648793 0.273917 0.2795919 0.2780558 0.2698442 0.2606249 0.2569333
 0.2600413 0.2651286 0.2669595 0.2648105 0.2613829 0.2591182 0.2588493 0.2602687 0.2622879 0.2638886
 0.2649061 0.2646193 0.2603248 0.250326 0.2383978 0.2317842 0.233727 0.2408632 0.2487209 0.2562217
 0.2631683 0.2670153 0.2655867 0.2613886 0.2600046 0.2641334 0.2710176 0.2759607 0.2770881 0.2761063
 0.2751893 0.2743779 0.2726643 0.2708052 0.2713608 0.275504 0.2811838 0.2853571 0.2870519 0.2873626
 0.2873915 0.2873217 0.2869946 0.2863713 0.2854915 0.2844893 0.2835826 0.2828326 0.2821018 0.2813396
 0.2805006 0.2789059 0.2752954 0.2694649 0.2636665 0.2610448 0.2623185 0.2653285 0.2681376 0.2704234
 0.2708604 0.2660608 0.2549943 0.2429455 0.2378839 0.2427684 0.2531911 0.2623286 0.2663365 0.2648375
 0.2586259 0.2492961 0.2408547 0.2390163 0.2468028 0.2613845 0.2766303 0.2882977 0.2956408 0.2990221
 0.2982827 0.2939612 0.2886568 0.2860014 0.2881753 0.2944877 0.3019091 0.3064725 0.3049921 0.2976871
 0.2899368 0.289023 0.296887 0.3075292 0.3136233 0.3141939 0.3135376 0.3144066 0.3156519 0.316009
 0.3167476 0.3195379 0.323705 0.3267902 0.3267546 0.3228357 0.3155289 0.3071745 0.3015926 0.3010687
 0.3038383 0.3061183 0.3059968 0.3034766 0.2980927 0.2899344 0.2826227 0.2813757 0.2870781 0.2949429
 0.2999694 0.301602 0.3021877 0.3027505 0.3017872 0.2977893 0.2919197 0.287509 0.286781 0.2887424
 0.2907936 0.2915348 0.2909903 0.2889886 0.2851584 0.2806413 0.2782437 0.2799576 0.2848473 0.2899796
 0.2931362 0.2941737 0.2941565 0.2939911 0.2939415 0.293806 0.2933744 0.2930599 0.2939305 0.2965555
 0.2999952 0.3026517 0.3041108 0.3054749 0.3078002 0.3107904 0.3132322 0.3143348 0.3144319 0.3145762
 0.3156015 0.3174444 0.3192096 0.3199529 0.3195982 0.3191193 0.3196625 0.3214552 0.3237112 0.32555
 0.3267468 0.3276093 0.3284705 0.329403 0.3301812 0.3304635 0.3302312 0.3300591 0.3306856 0.3322467
 0.3341201 0.3355629 0.3363273 0.336621 0.3366793 0.3365366 0.3361501 0.3355958 0.335079 0.3347792
 0.3347231 0.3348092 0.3349209 0.3350004 0.3350502 0.3351074 0.3352134 0.3353814 0.3355931 0.3358293
 0.3360793 0.3363121 0.3364767 0.336558 0.3365957 0.336621 0.3365966 0.3364395 0.3360816 0.3354836
 0.3346173 0.3334614 0.3320029 0.3302187 0.3280747 0.325626 0.3231926 0.3214066 0.3209523 0.3221245
 0.3245887 0.3275707 0.3303 0.3323453 0.3336532 0.3343835 0.3347307 0.3348376 0.334788 0.3346271
 0.3343805 0.3340706 0.3337208 0.3333514 0.3329806 0.3326283 0.3323098 0.3320251 0.3317567 0.3314787
 0.3311639 0.330789 0.3303395 0.3298151 0.3292243 0.3285694 0.3278307 0.3269762 0.3259977 0.3249378
 0.3238717 0.3228566 0.3218968 0.3209518 0.3199728 0.3189197 0.3177407 0.3163623 0.3147625 0.3130682
 0.3115195 0.3102776 0.3092835 0.3083327 0.3072616 0.3060322 0.3046785 0.3032389 0.3017423 0.3002136
 0.2986669 0.2970968 0.2954794 0.2937811 0.2919785 0.2900736 0.2880863 0.2860377 0.2839448 0.2818189
 0.2796415 0.277336 0.2747663 0.2717711 0.2682066 0.2639791 0.2590669 0.2535367 0.2475474 0.2413251
 0.2351133 0.2291257 0.2235322 0.2184726 0.2140704 0.2104306 0.2076286 0.2057082 0.2046898 0.2045769
 0.2053513 0.2069638 0.2093301 0.212327 0.2157906 0.2195218 0.2233069 0.2269491 0.2303156 0.2333776
 0.2361978 0.2388515 0.2413547 0.2436681 0.2457534 0.2476023 0.249218 0.2505953 0.2517331 0.2526566
 0.2534174 0.2540684 0.2546401 0.255136 0.2555453 0.2558596 0.2560863 0.2562539 0.2564033 0.2565735
 0.2567914 0.2570718 0.2574217 0.257846 0.2583532 0.2589582 0.2596765 0.2605094 0.2614351 0.2624191
 0.2634408 0.2645094 0.2656557 0.2669142 0.2683109 0.2698594 0.2715552 0.2733646 0.2752135 0.2769914
 0.2785817 0.2798996 0.2809088 0.2816128 0.2820372 0.2822147 0.2821769 0.2819511 0.2815616 0.2810289
 0.2803694 0.2796004 0.2787437 0.2778206 0.2768437 0.2758176 0.2747521 0.273672 0.2726076 0.2715734
 0.2705651 0.2695773 0.2686107 0.2676596 0.2667106 0.2657601 0.2648218 0.2639145 0.2630527 0.2622441
 0.2614852 0.2607519 0.2600001 0.2591749 0.2582273 0.2571273 0.2558634 0.2544343 0.252846 0.2511147
 0.2492596 0.2472959 0.2452386 0.2431056 0.2409082 0.2386421 0.2362897 0.2338345 0.2312914 0.2287293
 0.2262492 0.2239246 0.2217716 0.219768 0.2178856 0.2161052 0.2144191 0.2128229 0.2113087 0.2098694
 0.2085054 0.2072148 0.2059873 0.2048173 0.2037121 0.2026849 0.2017511 0.2009278 0.200221 0.1996183
 0.1991003 0.1986553 0.1982896 0.1980358 0.1979331 0.1979726 0.1980746 0.1981378 0.198105 0.1979839
 0.1978258 0.1976876 0.1975998 0.1975619 0.1975532 0.1975242 0.1973838 0.1970204 0.1963356 0.1952549
 0.1937396 0.1918159 0.1895835 0.187193 0.1848175 0.1826205 0.1807173 0.1791633 0.1779667 0.1770837
 0.1764226 0.1759016 0.175511 0.1753098 0.1753659 0.1756742 0.1760969 0.1764221 0.1765502 0.176609
 0.1768437 0.1774095 0.1782805 0.1793057 0.1803158 0.1812022 0.181924 0.1824712 0.1828544 0.1831121
 0.1832768 0.1833404 0.1832814 0.1831006 0.1828067 0.1824046 0.181908 0.1813267 0.1806496 0.1798708
 0.1790046 0.178057 0.1770195 0.1758844 0.1746226 0.1731895 0.171635 0.1701849 0.1691557 0.1687811
 0.1690942 0.1699181 0.1709911 0.1721363 0.1732783 0.1743161 0.1751286 0.175773 0.1765704 0.1778947
 0.1798603 0.1822044 0.1844653 0.1862768 0.1874951 0.1881099 0.1881605 0.1877269 0.1868629 0.1855421
 0.183764 0.1816493 0.1793531 0.1769965 0.1747204 0.1726651 0.1708945 0.1694278 0.1682622 0.1673788
 0.1668336 0.1663624 0.1644003 0.1586156 0.1492183 0.1411229 0.140247 0.1471341 0.1562035 0.1617462
 0.1627802 0.161695 0.160476 0.1595454 0.1588235 0.1583829 0.1582855 0.1584397 0.1586373 0.1586472
 0.1583573 0.1577714 0.1567628 0.1548329 0.1510975 0.1446077 0.1350579 0.1234284 0.1117707 0.1021193
 0.09548789 0.09166072 0.08963847 0.0883358 0.08720183 0.08640053 0.08643823 0.08764969 0.09001935 0.09333466
 0.097334 0.1016745 0.1058851 0.1095133 0.1123587 0.1144885 0.11603 0.1170363 0.1175404 0.1176127
 0.1173325 0.1167693 0.1159907 0.1150314 0.1138671 0.1124702 0.1109114 0.1093971 0.1081813 0.1074015
 0.1069976 0.1068081 0.1067173 0.1066867 0.1067036 0.1067607 0.1068597 0.1070054 0.107211 0.107497
 0.10785 0.1082002 0.1084692 0.1086291 0.1086982 0.1086957 0.1086022 0.1083725 0.1080128 0.1076136
 0.1072229 0.1067031 0.1058313 0.1045853 0.1032736 0.102348 0.1020881 0.1024251 0.1030174 0.1035067
 0.1037453 0.1038147 0.103851 0.1038652</values></Ydata></ScSm><ScRf><Ydata ylabel="Single channel"><values byteorder="INTEL" format="FLOAT32" numvalues="1820"> 0.06965505 0.06978156 0.06989487 0.06999585 0.07009031 0.07018766 0.07029625 0.07041776 0.07054707 0.07067613
 0.07079786 0.07090954 0.07101177 0.07110298 0.07118294 0.07126348 0.07136498 0.07149573 0.07164055 0.07177304
 0.07187583 0.07195435 0.07203551 0.07214284 0.07226457 0.07235354 0.07236917 0.07232074 0.07226451 0.07225503
 0.07230859 0.07242794 0.07263507 0.07291938 0.07316305 0.07321584 0.07308164 0.07294579 0.07296908 0.07312647
 0.07328358 0.07334665 0.07329842 0.07318575 0.07314075 0.07333928 0.07383967 0.07445279 0.07480273 0.07454512
 0.07359663 0.07225657 0.07113397 0.07082975 0.07150383 0.07269515 0.07366584 0.0739958 0.07380981 0.07346103
 0.07316242 0.07298338 0.07301376 0.07334705 0.07392748 0.07449077 0.07466866 0.07423067 0.07334589 0.07255206
 0.07231642 0.07267299 0.07338971 0.07424856 0.07483408 0.07432516 0.07222521 0.069463 0.06809826 0.06941716
 0.07258561 0.07551506 0.07676227 0.07629268 0.07487531 0.07340583 0.0726666 0.0730608 0.07435253 0.07589993
 0.07716067 0.07783344 0.07772671 0.07685315 0.07560604 0.07458849 0.0742764 0.07488284 0.07627471 0.07784061
 0.07873401 0.07853915 0.07758269 0.07651306 0.07582508 0.07583682 0.07671282 0.07826746 0.07998334 0.08139361
 0.08232412 0.08279026 0.08288215 0.08274608 0.08251317 0.08228129 0.08221295 0.08245029 0.08283369 0.08293761
 0.08254455 0.08194081 0.0816275 0.08180556 0.08220462 0.08240928 0.0822695 0.08182419 0.08088169 0.07911421
 0.07673471 0.07459901 0.07337037 0.07305715 0.07355934 0.07494634 0.0767938 0.07798665 0.07784335 0.07703602
 0.076863 0.07784472 0.07939795 0.08068186 0.08141416 0.08191432 0.08260655 0.08354165 0.08428092 0.08422267
 0.08321755 0.08194904 0.08147989 0.08222431 0.08354338 0.08452763 0.08495055 0.08523932 0.08572137 0.08615009
 0.08592077 0.08472106 0.08307483 0.0821549 0.08281272 0.08473364 0.08660575 0.08711198 0.0858648 0.08361387
 0.08162028 0.0807528 0.08115342 0.08259991 0.08481383 0.08732274 0.0893884 0.09038122 0.09021329 0.08932108
 0.08818965 0.08689885 0.08529593 0.08370553 0.08311767 0.08426268 0.0866738 0.0890597 0.09049715 0.09094265
 0.09070559 0.0898234 0.08814803 0.08599566 0.084433 0.08448312 0.08595788 0.08751111 0.08806907 0.08783358
 0.08766449 0.08790907 0.08821587 0.08825487 0.08821201 0.08852565 0.0893252 0.09026271 0.09087953 0.09102775
 0.09090178 0.09076582 0.09070303 0.09056804 0.09020907 0.08980383 0.08984216 0.09060979 0.09180556 0.09284502
 0.093436 0.09369442 0.09378934 0.09365628 0.09310783 0.09220231 0.09142016 0.09132142 0.09200026 0.09301424
 0.09385429 0.09432383 0.09448501 0.09446236 0.09435883 0.09423299 0.09411702 0.0940875 0.09424877 0.09459487
 0.09497102 0.0952257 0.09533337 0.09534107 0.09527158 0.09512357 0.09493128 0.09478323 0.09476819 0.09490493
 0.09513798 0.09539393 0.09561193 0.09573529 0.09573287 0.09563945 0.09553212 0.09545928 0.09542418 0.09542941
 0.09549425 0.09561952 0.09576512 0.09587967 0.09594189 0.09596246 0.09595658 0.09593116 0.09589626 0.0958727
 0.09588459 0.09594472 0.09604084 0.09614165 0.09623238 0.09633457 0.09646437 0.09658492 0.09663729 0.09661406
 0.09657043 0.0965649 0.09661296 0.09669337 0.09677462 0.09682809 0.09682987 0.09677438 0.0966986 0.09667468
 0.09675592 0.09693673 0.09717443 0.09742568 0.09765013 0.09781466 0.09792036 0.09800249 0.09808757 0.09816879
 0.09823096 0.09828301 0.09835926 0.09849218 0.09868073 0.09888691 0.09906872 0.09920861 0.09931076 0.09939543
 0.09949933 0.09964466 0.09979796 0.09989725 0.09993298 0.09996698 0.1000558 0.1001845 0.1002933 0.1003501
 0.1003809 0.1004341 0.1005291 0.1006448 0.1007522 0.1008472 0.10095 0.1010743 0.1011975 0.1012702
 0.101264 0.1012095 0.1011669 0.1011655 0.1011902 0.1012261 0.1012825 0.101367 0.1014559 0.1015111
 0.1015198 0.1015068 0.1015041 0.1015137 0.1015102 0.101475 0.1014189 0.1013684 0.1013412 0.1013358
 0.1013353 0.1013192 0.1012764 0.1012115 0.1011369 0.1010608 0.1009834 0.1009083 0.1008553 0.1008515
 0.1008942 0.1009286 0.1008824 0.1007329 0.1005311 0.1003529 0.100234 0.1001524 0.1000616 0.09993382
 0.09977706 0.09961868 0.09947878 0.09935875 0.09924944 0.09914376 0.09904502 0.09896821 0.09892637 0.09890686
 0.09886907 0.09877998 0.09864888 0.09851602 0.09841233 0.09834157 0.09829256 0.09825395 0.09822106 0.0981998
 0.09819888 0.09821185 0.09821697 0.0982022 0.0981813 0.09818114 0.09822246 0.09831028 0.09842577 0.09852749
 0.09858131 0.09859654 0.09861878 0.09868357 0.09878813 0.09890964 0.09903467 0.09916364 0.09929969 0.099445
 0.09960479 0.09978576 0.09998867 0.1002057 0.1004246 0.1006365 0.1008417 0.101053 0.1012874 0.1015518
 0.1018358 0.1021193 0.1023898 0.10265 0.1029118 0.1031817 0.1034568 0.1037346 0.1040222 0.1043295
 0.1046542 0.1049827 0.1053043 0.10562 0.1059368 0.1062575 0.1065801 0.1069059 0.1072452 0.1076093
 0.1079907 0.1083575 0.1086787 0.1089556 0.109222 0.1095147 0.1098459 0.1101982 0.1105366 0.1108331
 0.1110926 0.1113498 0.111633 0.1119363 0.112238 0.1125394 0.1128678 0.1132378 0.1136205 0.1139618
 0.1142305 0.1144474 0.114662 0.1149021 0.1151524 0.1153845 0.1155955 0.1158069 0.1160316 0.1162625
 0.1164949 0.1167411 0.1170105 0.1172875 0.1175439 0.1177699 0.1179785 0.1181813 0.1183719 0.1185319
 0.1186508 0.1187405 0.1188331 0.1189542 0.1190993 0.1192438 0.119377 0.1195134 0.1196707 0.1198521
 0.1200553 0.120284 0.1205371 0.1207974 0.1210477 0.1212974 0.1215734 0.1218769 0.1221665 0.1224015
 0.1225896 0.1227716 0.1229702 0.1231793 0.1233983 0.123646 0.123934 0.1242458 0.1245513 0.1248337
 0.1251018 0.125381 0.1256853 0.1259951 0.1262688 0.1264842 0.1266617 0.1268438 0.1270604 0.127314
 0.1275881 0.1278632 0.1281272 0.1283717 0.1285818 0.1287397 0.1288449 0.1289193 0.1289811 0.1290167
 0.1289885 0.1288662 0.1286402 0.1283068 0.1278559 0.1272823 0.1266098 0.1259021 0.12525 0.1247438
 0.1244506 0.1244053 0.1246117 0.1250393 0.1256204 0.1262602 0.1268584 0.1273266 0.1275931 0.12761
 0.1273669 0.1268968 0.1262588 0.1255139 0.1247127 0.1238951 0.1230936 0.1223487 0.1217362 0.1213757
 0.1213991 0.1218993 0.1228934 0.1243073 0.1259794 0.127698 0.1292791 0.1306335 0.1317729 0.1327561
 0.1336369 0.1344495 0.1352169 0.1359522 0.1366549 0.1373169 0.1379362 0.1385189 0.139066 0.1395646
 0.1399928 0.1403317 0.1405759 0.1407382 0.1408409 0.1409 0.1409218 0.1409155 0.1408943 0.140852
 0.1407477 0.1405274 0.1401629 0.1396731 0.1391281 0.1386514 0.1384117 0.1385803 0.1392552 0.140399
 0.1418461 0.1433821 0.1448319 0.1460933 0.1471258 0.1479362 0.1485706 0.1490901 0.1495429 0.1499551
 0.1503412 0.150711 0.1510691 0.1514166 0.1517548 0.152088 0.1524241 0.1527686 0.1531172 0.1534582
 0.1537858 0.1541078 0.1544373 0.1547804 0.1551311 0.155479 0.1558214 0.1561671 0.1565226 0.1568772
 0.1572114 0.1575186 0.1578135 0.1581177 0.1584423 0.1587838 0.1591282 0.1594585 0.1597671 0.1600608
 0.1603523 0.1606467 0.1609392 0.1612249 0.1615053 0.1617854 0.1620674 0.162349 0.1626284 0.162907
 0.1631838 0.1634521 0.1637059 0.1639494 0.1641934 0.1644444 0.1646989 0.1649497 0.1651953 0.1654429
 0.1657028 0.1659769 0.1662551 0.1665231 0.1667744 0.1670138 0.1672507 0.167492 0.1677404 0.1679947
 0.1682516 0.168507 0.1687591 0.1690091 0.1692584 0.1695067 0.1697532 0.1699997 0.170249 0.1705009
 0.1707516 0.170997 0.171236 0.1714728 0.1717149 0.1719671 0.1722251 0.1724786 0.1727205 0.1729518
 0.1731789 0.1734085 0.1736439 0.1738827 0.1741198 0.1743531 0.1745857 0.1748223 0.1750649 0.1753133
 0.1755646 0.1758143 0.1760585 0.1762964 0.1765307 0.1767655 0.1770028 0.1772414 0.1774796 0.1777184
 0.1779591 0.1782002 0.1784399 0.1786784 0.1789173 0.1791564 0.179394 0.1796277 0.1798557 0.18008
 0.1803058 0.1805368 0.180772 0.1810078 0.1812416 0.1814738 0.1817069 0.1819427 0.1821789 0.1824111
 0.1826394 0.1828673 0.1830991 0.1833369 0.1835803 0.1838236 0.1840605 0.1842908 0.1845199 0.1847513
 0.184984 0.1852176 0.1854541 0.1856959 0.1859425 0.1861901 0.186435 0.1866783 0.1869222 0.1871645
 0.1874014 0.1876356 0.1878733 0.1881168 0.1883633 0.1886113 0.1888605 0.1891099 0.1893588 0.1896069
 0.1898555 0.1901079 0.1903659 0.1906262 0.1908832 0.1911358 0.1913852 0.1916311 0.1918728 0.1921105
 0.1923433 0.1925702 0.1927936 0.1930162 0.1932372 0.193456 0.1936752 0.1938977 0.1941263 0.1943635
 0.1946077 0.1948535 0.1951001 0.1953511 0.1956049 0.1958558 0.1961039 0.1963526 0.1966023 0.1968514
 0.1971005 0.1973499 0.1976 0.1978536 0.198113 0.1983775 0.1986468 0.1989196 0.1991904 0.1994559
 0.1997199 0.1999849 0.2002478 0.2005079 0.2007707 0.2010381 0.2013083 0.2015812 0.2018541 0.2021206
 0.2023816 0.2026456 0.2029158 0.2031887 0.2034616 0.2037328 0.2040009 0.2042705 0.2045477 0.2048284
 0.2051054 0.2053796 0.2056532 0.205924 0.2061936 0.2064658 0.2067359 0.2069992 0.2072604 0.2075234
 0.2077853 0.2080476 0.2083138 0.2085724 0.2087984 0.2089436 0.2088838 0.2083517 0.2068967 0.2038937
 0.1986647 0.1907457 0.1801596 0.1675022 0.1537828 0.1401112 0.1273927 0.1161966 0.1068241 0.09942991
 0.09410764 0.09096302 0.09017233 0.09206587 0.09723824 0.1061924 0.1180441 0.1294092 0.1356757 0.1344953
 0.1279108 0.1205041 0.1156701 0.1139572 0.1142242 0.1153418 0.1168585 0.1188734 0.1216498 0.1252199
 0.1293468 0.1339138 0.1391464 0.1452692 0.1520688 0.158973 0.165528 0.1716888 0.1776539 0.1835136
 0.1891119 0.1941959 0.1986121 0.2023597 0.2055391 0.2082884 0.2107295 0.2129416 0.214978 0.2168706
 0.2185895 0.2200251 0.2210527 0.2216328 0.2218559 0.2218996 0.2219325 0.222042 0.2222415 0.2225209
 0.2228708 0.2232791 0.2237347 0.2242308 0.224757 0.2252982 0.2258426 0.2263793 0.2268959 0.2273864
 0.2278541 0.2282997 0.2287206 0.2291191 0.2295009 0.2298679 0.2302233 0.2305749 0.2309273 0.2312807
 0.2316349 0.2319868 0.2323255 0.2326419 0.2329352 0.233209 0.2334684 0.2337233 0.2339817 0.2342423
 0.2344993 0.2347493 0.2349915 0.2352299 0.2354737 0.2357269 0.2359825 0.2362319 0.2364733 0.2367084
 0.236939 0.2371688 0.2374012 0.2376355 0.2378707 0.2381093 0.2383521 0.238595 0.2388337 0.2390686
 0.2393045 0.2395491 0.2398061 0.240071 0.2403378 0.2406075 0.2408836 0.2411641 0.241443 0.2417175
 0.2419877 0.2422561 0.2425274 0.2428036 0.2430774 0.2433369 0.2435749 0.2437942 0.2440068 0.2442253
 0.2444539 0.2446873 0.2449224 0.2451631 0.2454124 0.2456663 0.2459183 0.2461658 0.2464129 0.2466693
 0.2469435 0.2472317 0.2475221 0.2478085 0.2480933 0.2483786 0.2486628 0.2489459 0.2492282 0.2495065
 0.249779 0.2500519 0.2503402 0.2506575 0.2510013 0.2513472 0.2516693 0.2519665 0.2522604 0.2525708
 0.2529013 0.2532375 0.2535481 0.2538062 0.2540276 0.2542734 0.2545939 0.2549792 0.2553781 0.255751
 0.2560931 0.256419 0.2567406 0.2570562 0.2573518 0.257613 0.2578462 0.2580896 0.2583894 0.2587534
 0.2591406 0.2595038 0.2598287 0.2601253 0.2604069 0.2606855 0.2609556 0.261178 0.2613201 0.2614316
 0.2616364 0.2620144 0.2625117 0.2629958 0.2633879 0.263712 0.2640228 0.2643356 0.2646345 0.2648892
 0.2650295 0.264982 0.2648107 0.2647611 0.2650627 0.265698 0.2664351 0.26706 0.2675167 0.2678568
 0.2681447 0.2684137 0.2686485 0.268786 0.2687838 0.2687232 0.2688008 0.2691511 0.2696936 0.2702189
 0.2706092 0.2709059 0.2711926 0.2714996 0.2717873 0.2719285 0.271764 0.2713197 0.2709511 0.2711119
 0.2719162 0.2730085 0.273919 0.2744796 0.2748277 0.2750821 0.2751685 0.2749627 0.2744461 0.2737124
 0.2730131 0.2727993 0.2734267 0.2747006 0.2759547 0.2767161 0.2771107 0.277532 0.2781297 0.2787426
 0.2791665 0.2793408 0.2793181 0.2791433 0.2788294 0.2784955 0.2784503 0.2789736 0.2799901 0.2810875
 0.2819029 0.2824099 0.2827547 0.2828351 0.2821877 0.2805382 0.2785249 0.2775402 0.2784931 0.2808526
 0.2832208 0.2847149 0.2854519 0.2858962 0.2862557 0.2864223 0.2859595 0.2842457 0.2813177 0.2786128
 0.2780963 0.2803235 0.2838163 0.2864968 0.2872735 0.2862654 0.2842768 0.2824261 0.2817472 0.2826263
 0.2846407 0.2869883 0.2889694 0.2901769 0.2905221 0.2901938 0.2895817 0.2891748 0.2892524 0.2894681
 0.2890666 0.2878639 0.2865983 0.2857923 0.2847959 0.2828513 0.2807867 0.2805055 0.2826331 0.2856119
 0.2875062 0.2879849 0.2879742 0.2877876 0.286364 0.2826661 0.2776034 0.2740068 0.2742054 0.2776985
 0.2816495 0.2836764 0.2837369 0.2833124 0.2833263 0.2831702 0.2816079 0.2785229 0.2755986 0.2748133
 0.2762225 0.2778742 0.2779686 0.2761245 0.2724384 0.2670304 0.2615254 0.2593588 0.2627438 0.2699148
 0.2766863 0.2800645 0.2791791 0.2740372 0.2658382 0.2582795 0.2558955 0.2598758 0.2666786 0.2714607
 0.2718962 0.2682789 0.2615537 0.2529068 0.2447865 0.2405941 0.2425153 0.2497602 0.2587176 0.2645163
 0.2635086 0.2561916 0.2479401 0.2449628 0.2484635 0.2538443 0.2561137 0.2545851 0.2518368 0.2501991
 0.2504694 0.2523483 0.2547762 0.2567699 0.2581807 0.2582998 0.2544662 0.2450123 0.2336442 0.2274701
 0.2296662 0.2369278 0.2448682 0.2524341 0.2594282 0.2633348 0.2619997 0.2578806 0.2564712 0.2604332
 0.2670629 0.271748 0.2726512 0.271457 0.2703123 0.26927 0.2673543 0.2653174 0.2656726 0.2695644
 0.2749734 0.2789068 0.2803992 0.2805125 0.2803263 0.2800293 0.279473 0.2786211 0.2775146 0.2762911
 0.2751712 0.2742161 0.2732809 0.2722976 0.2712071 0.2693468 0.2655019 0.2594842 0.2534807 0.2505437
 0.2513883 0.2539484 0.2563522 0.2582762 0.2584556 0.2536685 0.2429419 0.2313132 0.2263625 0.2308884
 0.2406822 0.2492544 0.2529631 0.2514628 0.2455118 0.2366192 0.2285816 0.2268185 0.2341957 0.2480263
 0.2624925 0.2735715 0.2805595 0.2838022 0.283145 0.2790894 0.2740903 0.2715811 0.2736143 0.2795146
 0.2863943 0.2904947 0.2888216 0.2816166 0.273993 0.2728394 0.2799836 0.2897579 0.2952558 0.295566
 0.2947413 0.2953725 0.2963768 0.2965634 0.2971258 0.2996365 0.3034694 0.3063229 0.3062845 0.3026397
 0.2958575 0.288134 0.2830396 0.2826958 0.2854311 0.2876937 0.287692 0.2854262 0.2804564 0.2728742
 0.2660965 0.265034 0.2705128 0.2780248 0.2828666 0.2845194 0.285193 0.2858456 0.2850536 0.281395
 0.2759776 0.2719599 0.2714559 0.2735424 0.2757791 0.2768523 0.2767745 0.275351 0.2721935 0.2683674
 0.2665436 0.2686235 0.2737027 0.278948 0.2821997 0.2832936 0.2832462 0.2829433 0.2826606 0.2822246
 0.2814531 0.2807619 0.2811902 0.283294 0.2861832 0.2883369 0.289361 0.2903094 0.2921989 0.2947666
 0.2968753 0.2977728 0.2977527 0.2977808 0.2986248 0.3002225 0.3017417 0.3023154 0.3018978 0.3014181
 0.3019426 0.3036588 0.3058087 0.3075591 0.3086963 0.3095007 0.3102756 0.3110881 0.3117359 0.3119149
 0.3116264 0.3114232 0.311999 0.3134684 0.31523 0.3165746 0.3172661 0.3175027 0.3175109 0.3173289
 0.3169205 0.3163594 0.3158381 0.3155195 0.3154221 0.3154506 0.3154997 0.3155164 0.3154991 0.3154841
 0.3155209 0.3156341 0.3158085 0.3160181 0.316245 0.3164612 0.316629 0.3167409 0.3168311 0.3169199
 0.3169675 0.3169003 0.31666 0.3162107 0.3155181 0.3145464 0.313265 0.3116401 0.3096408 0.3073342
 0.3050422 0.3033746 0.3029757 0.304114 0.306468 0.3093103 0.3119224 0.3139021 0.3151968 0.3159508
 0.3163429 0.3165078 0.3165256 0.316433 0.3162429 0.3159682 0.3156337 0.3152686 0.3148999 0.3145514
 0.3142409 0.3139697 0.3137178 0.313451 0.3131359 0.3127514 0.3122917 0.3117624 0.3111716 0.310518
 0.3097812 0.3089346 0.3079784 0.3069571 0.3059375 0.3049701 0.3040687 0.3032121 0.3023598 0.3014622
 0.3004546 0.2992618 0.297865 0.2963871 0.2950599 0.2940458 0.2932964 0.2926096 0.2918055 0.2908227
 0.289687 0.2884483 0.2871532 0.2858341 0.2844993 0.2831315 0.2817001 0.2801772 0.2785504 0.2768256
 0.2750168 0.273139 0.271213 0.2692597 0.267269 0.265167 0.2628193 0.2600695 0.2567798 0.2528574
 0.2482749 0.2430936 0.2374712 0.2316323 0.2258113 0.2202064 0.2149736 0.2102453 0.2061417 0.2027624
 0.2001735 0.1984092 0.1974853 0.1974091 0.1981717 0.1997343 0.2020228 0.2049273 0.2083 0.2119545
 0.2156808 0.2192805 0.2226172 0.2256584 0.2284604 0.231092 0.2335636 0.2358314 0.2378545 0.2396261
 0.2411555 0.2424472 0.2435074 0.2443608 0.2450519 0.2456321 0.2461423 0.2465966 0.2469834 0.2472861
 0.2475069 0.2476703 0.2478091 0.2479516 0.2481169 0.2483166 0.2485591 0.2488551 0.2492179 0.2496606
 0.2501914 0.2508072 0.2514908 0.2522182 0.2529778 0.2537823 0.2546641 0.2556619 0.256809 0.2581233
 0.2596018 0.2612141 0.2628922 0.2645298 0.2660093 0.2672416 0.2681852 0.2688386 0.2692232 0.2693708
 0.2693123 0.2690728 0.2686724 0.2681317 0.2674786 0.2667487 0.2659722 0.2651572 0.2642908 0.2633606
 0.2623746 0.2613643 0.2603644 0.2593905 0.2584384 0.2575046 0.2565947 0.2557119 0.2548503 0.254006
 0.2531842 0.2523955 0.2516518 0.2509597 0.2503098 0.2496724 0.2490055 0.2482622 0.2473972 0.2463806
 0.2452046 0.2438747 0.2423992 0.2407895 0.2390585 0.2372174 0.235279 0.2332605 0.2311773 0.229032
 0.2268095 0.2244898 0.2220817 0.2196504 0.2172947 0.2150887 0.2130542 0.2111788 0.2094388 0.2078092
 0.2062699 0.2048049 0.2033956 0.2020281 0.2007084 0.1994553 0.1982795 0.1971797 0.1961532 0.1952045
 0.1943488 0.1936055 0.192978 0.192448 0.1919937 0.1916074 0.1912995 0.1911005 0.191043 0.1911177
 0.1912519 0.1913511 0.1913598 0.1912856 0.1911813 0.1911033 0.1910754 0.1910886 0.191118 0.1911164
 0.1909998 0.1906705 0.1900472 0.1890642 0.1876739 0.1858817 0.1837736 0.1815017 0.1792483 0.1771802
 0.1754074 0.1739762 0.1728845 0.1720801 0.1714694 0.1709765 0.1705994 0.1704031 0.1704623 0.1707833
 0.1712398 0.1716224 0.1718196 0.1719392 0.1722124 0.1727957 0.1736765 0.1747173 0.1757551 0.1766805
 0.1774481 0.1780421 0.1784657 0.1787516 0.1789322 0.1790046 0.1789533 0.1787824 0.1785052 0.178136
 0.1776963 0.1771921 0.1765984 0.1758949 0.1750879 0.174181 0.1731692 0.1720577 0.1708359 0.1694717
 0.1680091 0.1666515 0.1656916 0.1653551 0.1656856 0.1665223 0.1676112 0.1687743 0.1699344 0.1709959
 0.171847 0.1725465 0.1734024 0.1747681 0.176747 0.1790866 0.1813462 0.1831746 0.1844279 0.1850856
 0.1851731 0.1847621 0.1839131 0.1826177 0.1808867 0.1788359 0.1766132 0.1743418 0.1721631 0.1702017
 0.1684994 0.1670719 0.1659391 0.1651071 0.164632 0.1642325 0.1623462 0.1566727 0.1474288 0.1394664
 0.1386196 0.1454236 0.1543777 0.1598512 0.160871 0.1597945 0.158589 0.1576774 0.1569785 0.1565597
 0.1564829 0.1566569 0.1568708 0.1568941 0.1566231 0.1560691 0.1551067 0.1532364 0.1495749 0.1431763
 0.1337356 0.1222274 0.1106895 0.1011415 0.09458871 0.0908159 0.08883087 0.08755577 0.08644336 0.08565789
 0.08570616 0.08692238 0.08928575 0.09257776 0.09653909 0.1008366 0.1050071 0.1086033 0.1114315 0.1135646
 0.1151232 0.1161438 0.1166489 0.1167134 0.1164282 0.1158701 0.1151049 0.114162 0.1130137 0.1116328
 0.1100906 0.1085929 0.1073931 0.1066287 0.1062392 0.1060642 0.1059935 0.1059941 0.1060505 0.1061433
 0.106267 0.1064325 0.1066607 0.106967 0.1073281 0.1076804 0.1079671 0.1081711 0.1082964 0.1083365
 0.1082563 0.1080111 0.1076201 0.1071904 0.1067804 0.1062543 0.1053903 0.10417 0.1028956 0.1019954
 0.1017257 0.1020161 0.102548 0.1029912 0.1032103 0.1032751 0.1032981 0.1032761 0.1030863 0.1026254
</values></Ydata></ScRf><Data_Parameters_AB><parameter name="DPF">1</parameter><parameter name="NPT">3497</parameter><parameter name="FXV">3996</parameter><parameter name="LXV">500</parameter><parameter name="CSF">1</parameter><parameter name="MXY">-0.00138938415329903</parameter><parameter name="MNY">-0.0796633213758469</parameter><parameter name="DAT">17/01/2024</parameter><parameter name="TIM">13:11:00.529 (GMT+1)</parameter><parameter name="DXU">WN</parameter></Data_Parameters_AB><AB__Qtest><MainReport name="Quality Test Report"><Header><Line><Legend>Test result ok/not ok [1/0]: </Legend><Value>0</Value></Line><Line><Legend>Method file: </Legend><Value>C:\Users\Public\Documents\Bruker\OPUS_8.2.28\QT\IRBT_v3_default.QT</Value></Line></Header><Matrix><Line><Legend></Legend><Legend>min</Legend><Legend>max</Legend><Legend>measured</Legend></Line><Line><Value>Absorption (X-Range 1):</Value><Value>0.400000</Value><Value>2.000000</Value><Value>0.044320</Value></Line><Line><Value>Noise (X-Range 4):</Value><Value></Value><Value>0.000300</Value><Value>0.000023</Value></Line><Line><Value>Signal/Noise (X-Range 2):</Value><Value>200.000000</Value><Value></Value><Value>29.576920</Value></Line><Line><Value>Signal/Noise (X-Range 3):</Value><Value>40.000000</Value><Value></Value><Value>15.292160</Value></Line><Line><Value>Water vapour (X-Range 5):</Value><Value></Value><Value>0.000300</Value><Value>0.000004</Value></Line><Line><Value>Signal/Water (X-Range 2):</Value><Value>100.000000</Value><Value></Value><Value>177.897897</Value></Line><Line><Value>Signal/Water (X-Range 3):</Value><Value>20.000000</Value><Value></Value><Value>91.978581</Value></Line><Line><Value>Fringes (X-Range 6):</Value><Value></Value><Value>0.000100</Value><Value>0.000023</Value></Line></Matrix></MainReport></AB__Qtest><Data_Parameters_ScSm><parameter name="DPF">1</parameter><parameter name="NPT">1814</parameter><parameter name="FXV">3996.63438082617</parameter><parameter name="LXV">499.579297603271</parameter><parameter name="CSF">1</parameter><parameter name="MXY">0.336679250001907</parameter><parameter name="MNY">0.0813953876495361</parameter><parameter name="DAT">17/01/2024</parameter><parameter name="TIM">13:11:00.529 (GMT+1)</parameter><parameter name="DXU">WN</parameter></Data_Parameters_ScSm><Data_Parameters_ScRf><parameter name="DPF">1</parameter><parameter name="NPT">1820</parameter><parameter name="FXV">4004.34989121387</parameter><parameter name="LXV">495.721542409425</parameter><parameter name="CSF">1</parameter><parameter name="MXY">0.317510932683945</parameter><parameter name="MNY">0.0680982619524002</parameter><parameter name="DAT">17/01/2024</parameter><parameter name="TIM">13:10:33.950 (GMT+1)</parameter><parameter name="DXU">WN</parameter></Data_Parameters_ScRf><Optic_Parameters_Rf><parameter name="APR">0</parameter><parameter name="APT">Open</parameter><parameter name="BMS">KBr</parameter><parameter name="DTC">RT-DLaTGS_IR-Biotyper [Microplate reader]</parameter><parameter name="HPF">0</parameter><parameter name="LPF">10.0</parameter><parameter name="LPV">4000</parameter><parameter name="PGR">0</parameter><parameter name="RCH">Module port</parameter><parameter name="RDX">0</parameter><parameter name="SRC">MIR</parameter><parameter name="VEL">10.0</parameter><parameter name="SON">Off</parameter></Optic_Parameters_Rf><Acquisition_Parameters_Rf><parameter name="ADT">1</parameter><parameter name="AQM">DD</parameter><parameter name="CFE">0</parameter><parameter name="COR">0</parameter><parameter name="DEL">0</parameter><parameter name="DLY">0</parameter><parameter name="HFW">8000</parameter><parameter name="LFW">0</parameter><parameter name="NSR">32</parameter><parameter name="PLF">AB</parameter><parameter name="RES">6</parameter><parameter name="RGN">-1</parameter><parameter name="STR">0</parameter><parameter name="TCL">MakeCompatibleScalar (0, {WSV=1.000000, ARV=0});</parameter><parameter name="TDL">37</parameter><parameter name="RPO">0</parameter></Acquisition_Parameters_Rf><FT_-_Parameters_Rf><parameter name="APF">B3</parameter><parameter name="HFQ">500</parameter><parameter name="LFQ">4000</parameter><parameter name="NLI">0</parameter><parameter name="PHR">24</parameter><parameter name="PHZ">ML</parameter><parameter name="SPZ">NO</parameter><parameter name="ZFF">1</parameter></FT_-_Parameters_Rf><Optic_Parameters_><parameter name="APR">0</parameter><parameter name="APT">Open</parameter><parameter name="BMS">KBr</parameter><parameter name="CHN">Module port</parameter><parameter name="DTC">RT-DLaTGS_IR-Biotyper [Microplate reader]</parameter><parameter name="HPF">0</parameter><parameter name="LPF">10.0</parameter><parameter name="LPV">4000</parameter><parameter name="PGN">0</parameter><parameter name="RDX">0</parameter><parameter name="SRC">MIR</parameter><parameter name="VEL">10.0</parameter><parameter name="SON">Off</parameter></Optic_Parameters_><FT_-_Parameters_><parameter name="APF">B3</parameter><parameter name="HFQ">500</parameter><parameter name="LFQ">4000</parameter><parameter name="NLI">0</parameter><parameter name="PHR">24</parameter><parameter name="PHZ">ML</parameter><parameter name="SPZ">NO</parameter><parameter name="ZFF">1</parameter></FT_-_Parameters_><Acquisition_Parameters_><parameter name="ADT">1</parameter><parameter name="AQM">DD</parameter><parameter name="CFE">0</parameter><parameter name="COR">0</parameter><parameter name="DEL">0</parameter><parameter name="DLY">0</parameter><parameter name="HFW">8000</parameter><parameter name="LFW">0</parameter><parameter name="NSS">32</parameter><parameter name="PLF">AB</parameter><parameter name="RES">6</parameter><parameter name="SOT">0</parameter><parameter name="TCL">MakeCompatibleScalar (0, {WSV=1.000000, ARV=0});</parameter><parameter name="TDL">37</parameter><parameter name="SPO">0</parameter><parameter name="SGN">-1</parameter></Acquisition_Parameters_><Instrument_Parameters_Rf><parameter name="HFL">15801.365274</parameter><parameter name="LFL">0</parameter><parameter name="LWN">15801.365274</parameter><parameter name="ABP">32157</parameter><parameter name="SSP">1</parameter><parameter name="ARG">2</parameter><parameter name="ASG">2</parameter><parameter name="ASS">32</parameter><parameter name="GFW">16</parameter><parameter name="GBW">16</parameter><parameter name="BFW">0</parameter><parameter name="BBW">0</parameter><parameter name="PKA">9112</parameter><parameter name="PKL">4987</parameter><parameter name="PRA">9124</parameter><parameter name="PRL">5010</parameter><parameter name="P2A">1</parameter><parameter name="P2L">1</parameter><parameter name="P2R">1</parameter><parameter name="P2K">1</parameter><parameter name="DAQ">0</parameter><parameter name="AG2">1</parameter><parameter name="SSM">1</parameter><parameter name="RSN">46318</parameter><parameter name="CRR">0</parameter><parameter name="SRT">1705497033.951</parameter><parameter name="DUR">19.6439971923828</parameter><parameter name="TSC">30.9</parameter><parameter name="MVD">0.408596694469452</parameter><parameter name="AN1">0.226028940717422</parameter><parameter name="AN2">0</parameter><parameter name="VSN">2.485 Apr  4 2017</parameter><parameter name="SRN">0085</parameter><parameter name="CAM">0</parameter><parameter name="INS">IR-Biotyper</parameter><parameter name="FOC">69</parameter><parameter name="RDY">1</parameter><parameter name="ARS">32</parameter></Instrument_Parameters_Rf><Sample_Parameters_><parameter name="BLD"></parameter><parameter name="CNM">Admin</parameter><parameter name="CPY"></parameter><parameter name="DPM"></parameter><parameter name="EXP">IRBT_v3_32Scans.XPM</parameter><parameter name="LCT"></parameter><parameter name="SFM">Microplate, HTS-XT</parameter><parameter name="SNM">240117-1222-Cdiff_SCFA_1_C6_232100818_F6_5b1afb3f-40c9-4b65-a445-5a5dc7424c05.0</parameter><parameter name="XPP">C:\Users\Public\Documents\Bruker\OPUS_8.2.28\XPM</parameter><parameter name="IST">OK</parameter><parameter name="CPG">1252</parameter><parameter name="UID">9ed7289f-5f5a-442d-bb03-97d471c336db</parameter></Sample_Parameters_><Instrument_Parameters_><parameter name="HFL">15801.365274</parameter><parameter name="LFL">0</parameter><parameter name="LWN">15801.365274</parameter><parameter name="ABP">32157</parameter><parameter name="SSP">1</parameter><parameter name="ASG">2</parameter><parameter name="ARG">2</parameter><parameter name="ASS">32</parameter><parameter name="GFW">16</parameter><parameter name="GBW">16</parameter><parameter name="BFW">0</parameter><parameter name="BBW">0</parameter><parameter name="PKA">10007</parameter><parameter name="PKL">4987</parameter><parameter name="PRA">10131</parameter><parameter name="PRL">5010</parameter><parameter name="P2A">1</parameter><parameter name="P2L">1</parameter><parameter name="P2R">1</parameter><parameter name="P2K">1</parameter><parameter name="DAQ">0</parameter><parameter name="AG2">1</parameter><parameter name="SSM">1</parameter><parameter name="RSN">23852</parameter><parameter name="CRR">0</parameter><parameter name="SRT">1705497060.529</parameter><parameter name="DUR">19.6449890136719</parameter><parameter name="TSC">30.9</parameter><parameter name="MVD">0.396365255117416</parameter><parameter name="AN1">0.226004810567159</parameter><parameter name="AN2">0</parameter><parameter name="VSN">2.485 Apr  4 2017</parameter><parameter name="SRN">0085</parameter><parameter name="CAM">0</parameter><parameter name="INS">IR-Biotyper</parameter><parameter name="FOC">69</parameter><parameter name="RDY">1</parameter></Instrument_Parameters_><History/></OPUSDataFile>
