<?xml version="1.0" encoding="UTF-8" ?>
<OPUSDataFile><AB><Ydata ylabel="Absorbance Units"><values byteorder="INTEL" format="FLOAT32" numvalues="3497"> -0.04343285 -0.04341411 -0.04338454 -0.04334728 -0.04331221 -0.04328019 -0.04325853 -0.04324488 -0.04323924 -0.04323845
 -0.04323892 -0.04323968 -0.04323872 -0.04323677 -0.04323389 -0.04323006 -0.04322571 -0.04321872 -0.0432086 -0.04319442
 -0.0431756 -0.0431552 -0.04313326 -0.04311547 -0.04310209 -0.04309466 -0.04309263 -0.04309069 -0.0430884 -0.04307983
 -0.0430667 -0.04305078 -0.04303507 -0.04302772 -0.04302855 -0.04304262 -0.04306372 -0.04308835 -0.04310819 -0.04311541
 -0.04310772 -0.04307995 -0.04304012 -0.04298831 -0.04293821 -0.04289304 -0.04286124 -0.04284539 -0.04284193 -0.04285115
 -0.04286241 -0.04287517 -0.04288217 -0.04288361 -0.04287969 -0.04287088 -0.04286007 -0.04284697 -0.04283196 -0.04281483
 -0.04279487 -0.04277311 -0.04275049 -0.04272883 -0.04271058 -0.04269639 -0.04268778 -0.0426839 -0.04268487 -0.04268927
 -0.04269679 -0.0427058 -0.04271619 -0.04272523 -0.04273268 -0.04273532 -0.0427328 -0.04272377 -0.04270816 -0.04268654
 -0.04265907 -0.0426275 -0.04259241 -0.0425576 -0.04252397 -0.0424968 -0.04247599 -0.04246478 -0.04246065 -0.04246134
 -0.04246411 -0.04246442 -0.04246286 -0.04245757 -0.04245262 -0.04245017 -0.0424512 -0.0424577 -0.0424642 -0.0424703
 -0.04246848 -0.04245709 -0.04243481 -0.0424008 -0.04236358 -0.0423236 -0.04229207 -0.04226888 -0.04225625 -0.04225279
 -0.0422513 -0.04225146 -0.04224765 -0.04224192 -0.0422365 -0.04223268 -0.04223464 -0.04223957 -0.04224663 -0.04225127
 -0.04224893 -0.04223944 -0.04221991 -0.04219718 -0.04217246 -0.04215384 -0.04214459 -0.04214364 -0.0421524 -0.04215982
 -0.04216499 -0.04215914 -0.04214172 -0.04211837 -0.04208991 -0.04206978 -0.04205737 -0.04205684 -0.04206462 -0.04207012
 -0.04207053 -0.04205175 -0.04201851 -0.04197057 -0.04191763 -0.04187175 -0.04183616 -0.04181859 -0.04181506 -0.04182636
 -0.04184527 -0.04187014 -0.04189209 -0.04190887 -0.04191325 -0.04190282 -0.04188052 -0.04184566 -0.04181224 -0.04178103
 -0.04176246 -0.04175608 -0.04175732 -0.0417648 -0.04176709 -0.04176459 -0.04175222 -0.0417321 -0.041707 -0.04167814
 -0.04164907 -0.0416195 -0.04159053 -0.04156148 -0.0415324 -0.04150187 -0.04146891 -0.04143341 -0.04139367 -0.04135623
 -0.04132146 -0.04129981 -0.04129379 -0.04130488 -0.04133447 -0.04136908 -0.04140807 -0.04143515 -0.04145029 -0.04145026
 -0.04143672 -0.04141938 -0.04139848 -0.04138074 -0.0413637 -0.04134408 -0.04132097 -0.04129009 -0.04125469 -0.04121668
 -0.04117972 -0.0411479 -0.04112198 -0.04110389 -0.04109197 -0.04108625 -0.04108426 -0.04108577 -0.04108698 -0.04108758
 -0.04108237 -0.04107083 -0.04104901 -0.04101657 -0.04097573 -0.04092707 -0.04088003 -0.04083543 -0.04080405 -0.04078473
 -0.04077966 -0.04078504 -0.04079236 -0.04079876 -0.04079384 -0.04078065 -0.04075737 -0.04073161 -0.04071001 -0.0406952
 -0.04069259 -0.04069503 -0.0407012 -0.04070402 -0.04069973 -0.04069297 -0.04068307 -0.04068141 -0.04068976 -0.0407089
 -0.04073923 -0.04076602 -0.04078854 -0.04079256 -0.0407796 -0.04075332 -0.04071621 -0.0406814 -0.04064752 -0.04061799
 -0.0405897 -0.04055713 -0.04052223 -0.04048465 -0.04044805 -0.04041664 -0.04038893 -0.04036602 -0.04034317 -0.04031809
 -0.04029027 -0.04025838 -0.04022691 -0.04019646 -0.04017039 -0.04014919 -0.04013423 -0.04012565 -0.04012445 -0.0401305
 -0.0401414 -0.04015631 -0.04016795 -0.04017604 -0.04017492 -0.04016628 -0.04015177 -0.04013281 -0.04011341 -0.04009243
 -0.04007016 -0.04004502 -0.04001467 -0.03998162 -0.03994577 -0.03991273 -0.03988532 -0.039865 -0.03985395 -0.03984597
 -0.03984067 -0.03983026 -0.03981359 -0.03978791 -0.03975281 -0.03971239 -0.03966705 -0.039625 -0.03958657 -0.03955871
 -0.03954028 -0.03953108 -0.03952817 -0.03952349 -0.03951472 -0.03949228 -0.03945922 -0.03941455 -0.03936477 -0.03931588
 -0.03927085 -0.03923417 -0.0392034 -0.03917864 -0.03915722 -0.03913816 -0.03912106 -0.0391057 -0.0390923 -0.03908113
 -0.0390695 -0.03905738 -0.03903833 -0.03901212 -0.03897414 -0.0389252 -0.03886922 -0.03880814 -0.03875295 -0.03870406
 -0.03866928 -0.03864546 -0.03863088 -0.03862101 -0.03860876 -0.03859241 -0.03856665 -0.03853534 -0.03849864 -0.03846269
 -0.03843111 -0.038404 -0.03838365 -0.03836108 -0.03833495 -0.03829803 -0.03824827 -0.03819198 -0.03812927 -0.03807151
 -0.03801888 -0.03797124 -0.03792772 -0.03788025 -0.03782951 -0.03777388 -0.03771565 -0.03766123 -0.03761089 -0.03756906
 -0.03753287 -0.03750046 -0.03746884 -0.03743427 -0.03739589 -0.03735158 -0.03730306 -0.03724999 -0.03719642 -0.03714344
 -0.03709427 -0.0370502 -0.03700998 -0.03697394 -0.0369371 -0.03689912 -0.03685636 -0.03680876 -0.03675703 -0.03670137
 -0.03664392 -0.03658436 -0.03652222 -0.03645702 -0.03638657 -0.03631188 -0.03623325 -0.03615354 -0.03607678 -0.03600518
 -0.03594302 -0.03588902 -0.03584418 -0.03580508 -0.03577026 -0.03573785 -0.03570672 -0.03567738 -0.03564982 -0.03562436
 -0.03560131 -0.03557821 -0.03555504 -0.03552617 -0.03549129 -0.0354443 -0.03538539 -0.03531301 -0.03522881 -0.03513932
 -0.0350468 -0.03496194 -0.03488472 -0.03482101 -0.03476784 -0.03472387 -0.03468525 -0.03464732 -0.03460887 -0.03456685
 -0.03452409 -0.03448111 -0.03444056 -0.03440442 -0.03436923 -0.03433532 -0.03429496 -0.03424683 -0.03418857 -0.03411948
 -0.0340473 -0.03397245 -0.03390398 -0.03384167 -0.03378689 -0.03373865 -0.0336927 -0.0336486 -0.0336029 -0.03355536
 -0.03350386 -0.03344827 -0.03338704 -0.03332153 -0.03325176 -0.03318134 -0.03311262 -0.03304857 -0.03299193 -0.03294113
 -0.03289681 -0.03285443 -0.03281304 -0.03276997 -0.03272443 -0.03267802 -0.03263078 -0.03258529 -0.03254163 -0.03249915
 -0.03245758 -0.03241406 -0.03236842 -0.03231817 -0.03226336 -0.03220269 -0.03213661 -0.03206486 -0.03198937 -0.0319122
 -0.03183682 -0.03176783 -0.03170643 -0.03165605 -0.03161268 -0.03157583 -0.0315398 -0.03150218 -0.03146137 -0.03141615
 -0.03136888 -0.03131969 -0.03127077 -0.03122235 -0.03117505 -0.03112888 -0.03108411 -0.03104058 -0.03099679 -0.03095224
 -0.03090313 -0.03084977 -0.03079038 -0.03072702 -0.03066319 -0.03060067 -0.03054446 -0.03049312 -0.03044761 -0.03040432
 -0.03036048 -0.03031508 -0.0302662 -0.03021658 -0.03016663 -0.03011918 -0.03007532 -0.0300345 -0.02999707 -0.02996002
 -0.02992316 -0.02988343 -0.02984069 -0.0297934 -0.02974162 -0.02968542 -0.02962507 -0.02956174 -0.02949609 -0.02943077
 -0.02936667 -0.02930719 -0.02925255 -0.02920507 -0.02916328 -0.02912683 -0.02909333 -0.02906062 -0.02902804 -0.02899434
 -0.02896082 -0.02892754 -0.02889616 -0.02886703 -0.02884169 -0.02882046 -0.02880431 -0.02879353 -0.02878649 -0.02878309
 -0.02877758 -0.02876965 -0.02875363 -0.02873006 -0.02869883 -0.02866133 -0.02862252 -0.02858296 -0.02854694 -0.02851305
 -0.02848127 -0.02844918 -0.02841377 -0.02837435 -0.02832869 -0.02827943 -0.02822668 -0.02817524 -0.02812693 -0.02808448
 -0.0280494 -0.02801992 -0.02799624 -0.02797454 -0.02795442 -0.0279342 -0.02791379 -0.02789482 -0.02787735 -0.02786269
 -0.02785047 -0.02783948 -0.02782899 -0.0278157 -0.02779942 -0.0277778 -0.0277517 -0.02772129 -0.02768802 -0.02765369
 -0.02761913 -0.02758552 -0.02755339 -0.02752309 -0.02749581 -0.02747193 -0.02745276 -0.02743904 -0.0274295 -0.02742443
 -0.02741939 -0.02741396 -0.02740506 -0.02739247 -0.02737672 -0.02735788 -0.02733726 -0.02731461 -0.02728872 -0.02725982
 -0.02722754 -0.02719354 -0.02716153 -0.02713307 -0.02711315 -0.02710039 -0.02709578 -0.0270958 -0.02709772 -0.02710002
 -0.02710071 -0.02710104 -0.02710151 -0.02710123 -0.02710072 -0.02709553 -0.02708498 -0.02706592 -0.02703761 -0.0270031
 -0.02696249 -0.02692294 -0.02688471 -0.02685331 -0.02682833 -0.02681021 -0.02679797 -0.02678824 -0.02678034 -0.02677059
 -0.02675971 -0.02674693 -0.026734 -0.02672306 -0.02671419 -0.02670909 -0.02670445 -0.02669926 -0.0266896 -0.02667312
 -0.02665029 -0.0266198 -0.02658818 -0.026556 -0.02653068 -0.02651326 -0.02650606 -0.02650934 -0.02651764 -0.0265304
 -0.026538 -0.02654028 -0.0265307 -0.0265109 -0.02648306 -0.02644992 -0.02641953 -0.02639311 -0.02637731 -0.02636952
 -0.02636979 -0.02637385 -0.02637807 -0.02637994 -0.02637673 -0.02636852 -0.02635456 -0.02633611 -0.02631314 -0.02628788
 -0.02626044 -0.0262345 -0.02621043 -0.02619116 -0.02617694 -0.02616725 -0.02616195 -0.02615839 -0.02615635 -0.02615324
 -0.02614842 -0.02613825 -0.02612187 -0.02609477 -0.02605781 -0.02600942 -0.02595349 -0.02589353 -0.02583438 -0.02578169
 -0.02573715 -0.02570402 -0.0256798 -0.02566485 -0.0256541 -0.02564645 -0.02563722 -0.02562522 -0.02560896 -0.02558786
 -0.02556489 -0.02554017 -0.02551795 -0.02549831 -0.0254831 -0.02547191 -0.02546286 -0.02545542 -0.02544636 -0.02543543
 -0.02542003 -0.02540096 -0.02537772 -0.02535317 -0.02533021 -0.02531243 -0.02530454 -0.02530665 -0.02532149 -0.02534329
 -0.02537101 -0.02539731 -0.02541939 -0.0254357 -0.02544481 -0.02545159 -0.02545633 -0.0254641 -0.02547538 -0.02548945
 -0.02550607 -0.02551957 -0.02552969 -0.0255315 -0.02552589 -0.02551356 -0.02549643 -0.02548017 -0.02546575 -0.02545819
 -0.0254559 -0.02545924 -0.02546537 -0.02547148 -0.02547705 -0.02548032 -0.02548383 -0.02548829 -0.02549543 -0.02550635
 -0.02551936 -0.02553464 -0.0255483 -0.02555989 -0.02556652 -0.0255679 -0.02556426 -0.02555575 -0.02554578 -0.02553478
 -0.02552755 -0.02552426 -0.02552852 -0.02553947 -0.02555694 -0.02557933 -0.02560367 -0.02562854 -0.02565071 -0.02566991
 -0.02568467 -0.02569555 -0.02570257 -0.02570591 -0.02570585 -0.0257017 -0.02569322 -0.02568035 -0.02566266 -0.02564284
 -0.02562081 -0.02560216 -0.02558725 -0.0255808 -0.02558289 -0.02559394 -0.02561329 -0.02563604 -0.02566128 -0.0256821
 -0.02569874 -0.02570784 -0.02571119 -0.02571054 -0.02570776 -0.02570639 -0.02570666 -0.02571028 -0.02571609 -0.02572366
 -0.02573271 -0.02574295 -0.02575457 -0.0257676 -0.02578206 -0.02579795 -0.02581549 -0.02583472 -0.02585586 -0.02587901
 -0.02590231 -0.02592562 -0.02594578 -0.0259628 -0.02597526 -0.02598362 -0.02598933 -0.02599255 -0.02599452 -0.02599516
 -0.02599436 -0.0259934 -0.02599362 -0.02599706 -0.02600685 -0.0260219 -0.02604363 -0.02606634 -0.02608796 -0.02610387
 -0.02611117 -0.02611281 -0.02610836 -0.02610435 -0.0261019 -0.02610211 -0.02610536 -0.02610594 -0.02610363 -0.02609463
 -0.0260796 -0.02606275 -0.02604509 -0.02603393 -0.02602859 -0.0260313 -0.02603968 -0.02605004 -0.0260606 -0.02606679
 -0.02606929 -0.02606643 -0.02606153 -0.02605591 -0.02605344 -0.02605652 -0.02606616 -0.02608383 -0.02610624 -0.02613332
 -0.02615993 -0.02618527 -0.02620673 -0.02622391 -0.02623812 -0.02624945 -0.02626065 -0.02627174 -0.02628426 -0.02629774
 -0.02631106 -0.02632327 -0.02633086 -0.02633333 -0.02632749 -0.02631458 -0.02629426 -0.0262699 -0.02624419 -0.02622127
 -0.02620479 -0.02619709 -0.02620086 -0.0262142 -0.02623782 -0.02626615 -0.02629833 -0.02632915 -0.02635746 -0.02638329
 -0.02640638 -0.02643098 -0.02645729 -0.02648764 -0.02652171 -0.02655705 -0.0265932 -0.02662641 -0.02665686 -0.02668318
 -0.02670573 -0.02672461 -0.02674017 -0.02675255 -0.02676312 -0.02677293 -0.02678409 -0.02679869 -0.02681694 -0.02684015
 -0.02686527 -0.02689162 -0.02691672 -0.02693928 -0.02696176 -0.026984 -0.02701118 -0.02704381 -0.02708371 -0.0271309
 -0.02718185 -0.02723609 -0.02728764 -0.02733641 -0.02737867 -0.02741521 -0.02744624 -0.02747327 -0.02749974 -0.02752637
 -0.0275563 -0.02758792 -0.02762137 -0.027653 -0.02768009 -0.02770075 -0.02771244 -0.02771812 -0.02771733 -0.02771695
 -0.02771826 -0.02772718 -0.02774513 -0.02777214 -0.02780867 -0.0278484 -0.02789099 -0.02792836 -0.02796048 -0.02798405
 -0.02799981 -0.02800999 -0.0280151 -0.02801817 -0.02801901 -0.02801849 -0.02801682 -0.02801429 -0.02801216 -0.02801175
 -0.02801442 -0.02802162 -0.02803385 -0.02805186 -0.02807518 -0.02810411 -0.02813681 -0.02817344 -0.02820951 -0.02824462
 -0.02827361 -0.02829586 -0.02831027 -0.02831681 -0.02832071 -0.02832245 -0.02832943 -0.02834165 -0.02836333 -0.02839338
 -0.0284307 -0.02847377 -0.0285186 -0.0285644 -0.02860798 -0.02864974 -0.02868889 -0.0287262 -0.02876229 -0.02879677
 -0.02882984 -0.02886013 -0.02888707 -0.02891031 -0.02892946 -0.02894565 -0.02895894 -0.02897075 -0.02898128 -0.02899077
 -0.02899924 -0.02900677 -0.02901344 -0.02902015 -0.02902699 -0.02903492 -0.02904384 -0.02905401 -0.02906499 -0.02907602
 -0.02908645 -0.02909491 -0.02910121 -0.02910443 -0.0291052 -0.02910352 -0.02910055 -0.02909717 -0.02909314 -0.02908868
 -0.02908281 -0.02907506 -0.02906627 -0.02905608 -0.02904859 -0.02904411 -0.02904645 -0.02905582 -0.02907067 -0.02909057
 -0.02910938 -0.02912693 -0.02913886 -0.02914633 -0.029151 -0.02915434 -0.029161 -0.02917071 -0.02918581 -0.02920354
 -0.0292218 -0.02923798 -0.02924883 -0.02925476 -0.02925431 -0.02925152 -0.02924722 -0.02924593 -0.02924923 -0.0292582
 -0.02927369 -0.02929233 -0.02931402 -0.02933419 -0.02935255 -0.02936791 -0.02938049 -0.02939311 -0.02940596 -0.02942184
 -0.02944013 -0.02946005 -0.02948084 -0.02949981 -0.02951773 -0.02953431 -0.02955156 -0.02957216 -0.02959614 -0.02962555
 -0.02965622 -0.02968698 -0.02971248 -0.0297296 -0.02973869 -0.02973807 -0.02973548 -0.02973138 -0.02973596 -0.02975041
 -0.02978029 -0.02982606 -0.0298859 -0.02995926 -0.03003794 -0.03012094 -0.03019762 -0.03026788 -0.03032506 -0.03037098
 -0.03040658 -0.03043397 -0.03045761 -0.03047763 -0.03049602 -0.03051206 -0.03052481 -0.03053695 -0.03054908 -0.03056575
 -0.03058981 -0.03061985 -0.03065735 -0.03069318 -0.03072595 -0.0307493 -0.03076181 -0.03076757 -0.03076668 -0.03076825
 -0.03077242 -0.03078261 -0.03079806 -0.03081525 -0.03083367 -0.03084913 -0.03086252 -0.03087382 -0.03088462 -0.03089775
 -0.03091405 -0.03093616 -0.03096279 -0.03099428 -0.03102768 -0.03106137 -0.03109334 -0.03112204 -0.03114826 -0.03117185
 -0.03119401 -0.03121502 -0.03123494 -0.03125386 -0.03127119 -0.0312869 -0.03130135 -0.03131454 -0.03132632 -0.03133656
 -0.03134392 -0.03134875 -0.03135132 -0.03135316 -0.03135821 -0.03136795 -0.0313874 -0.0314157 -0.03145467 -0.03150059
 -0.03155141 -0.03160255 -0.03165056 -0.0316935 -0.03172933 -0.03175946 -0.0317837 -0.03180461 -0.0318227 -0.03183905
 -0.03185387 -0.03186728 -0.03187929 -0.03189066 -0.03190143 -0.03191255 -0.03192385 -0.03193457 -0.03194448 -0.03195191
 -0.03195746 -0.03196157 -0.03196564 -0.03197262 -0.03198288 -0.03199859 -0.03201811 -0.03204109 -0.03206505 -0.03208836
 -0.03210953 -0.03212751 -0.03214191 -0.03215238 -0.03215922 -0.03216228 -0.03216287 -0.03216099 -0.03215888 -0.03215667
 -0.03215588 -0.03215649 -0.03215828 -0.03216115 -0.03216432 -0.03216786 -0.03217179 -0.0321762 -0.03218133 -0.03218714
 -0.03219361 -0.03220073 -0.03220852 -0.03221675 -0.03222546 -0.0322336 -0.03224071 -0.03224555 -0.03224721 -0.03224618
 -0.03224213 -0.03223714 -0.03223156 -0.03222673 -0.03222294 -0.03222002 -0.03221799 -0.03221662 -0.03221589 -0.03221593
 -0.03221672 -0.03221817 -0.03222034 -0.03222337 -0.03222736 -0.03223297 -0.03223971 -0.03224733 -0.03225443 -0.032259
 -0.03226021 -0.03225595 -0.03224799 -0.03223655 -0.03222415 -0.03221227 -0.03220115 -0.03219139 -0.03218157 -0.03217125
 -0.03216121 -0.03215126 -0.03214485 -0.03214227 -0.03214503 -0.03215303 -0.03216263 -0.03217337 -0.03217971 -0.03218192
 -0.03217798 -0.03216912 -0.03215775 -0.03214484 -0.0321337 -0.03212396 -0.03211654 -0.03211073 -0.03210594 -0.03210247
 -0.03210017 -0.03209989 -0.03210223 -0.03210655 -0.03211321 -0.03211933 -0.03212444 -0.03212629 -0.03212431 -0.03211923
 -0.03211099 -0.03210224 -0.03209308 -0.03208498 -0.03207783 -0.03207125 -0.03206513 -0.03205867 -0.03205204 -0.03204541
 -0.03203891 -0.03203285 -0.03202762 -0.03202376 -0.03202194 -0.03202337 -0.03202726 -0.03203409 -0.03204077 -0.03204608
 -0.03204755 -0.03204343 -0.03203611 -0.03202526 -0.03201646 -0.03201064 -0.03200921 -0.03201257 -0.03201538 -0.03201737
 -0.032013 -0.03200258 -0.03198647 -0.03196553 -0.0319441 -0.03192256 -0.03190445 -0.03188924 -0.03187761 -0.03186876
 -0.03186185 -0.03185625 -0.03185103 -0.03184596 -0.03184042 -0.03183513 -0.03183013 -0.03182657 -0.03182496 -0.03182539
 -0.03182822 -0.03183177 -0.03183604 -0.03183789 -0.03183708 -0.03183114 -0.03181998 -0.03180363 -0.03178246 -0.03176016
 -0.0317371 -0.03171729 -0.03170019 -0.03168647 -0.03167496 -0.03166316 -0.0316512 -0.03163767 -0.03162464 -0.03161383
 -0.03160646 -0.03160465 -0.03160638 -0.03161175 -0.03161687 -0.03162045 -0.03162023 -0.03161518 -0.03160635 -0.03159359
 -0.0315794 -0.03156394 -0.03154939 -0.03153585 -0.03152379 -0.03151312 -0.0315033 -0.03149427 -0.0314855 -0.03147705
 -0.03146878 -0.03146077 -0.03145311 -0.03144589 -0.0314391 -0.03143319 -0.03142874 -0.03142574 -0.03142489 -0.03142421
 -0.03142332 -0.03141904 -0.03140994 -0.03139545 -0.03137439 -0.03135157 -0.03132718 -0.03130788 -0.03129437 -0.03128928
 -0.03129269 -0.03130072 -0.03131299 -0.03132397 -0.03133372 -0.03133953 -0.03134192 -0.03134139 -0.03133797 -0.03133207
 -0.03132337 -0.03131124 -0.0312964 -0.03127874 -0.03126085 -0.03124438 -0.03123179 -0.03122523 -0.03122405 -0.03122923
 -0.03123635 -0.03124495 -0.03124965 -0.03124945 -0.03124232 -0.03122776 -0.03120882 -0.03118571 -0.03116464 -0.03114589
 -0.03113469 -0.03113057 -0.03113417 -0.03114414 -0.03115655 -0.03116992 -0.03117889 -0.03118319 -0.03117958 -0.03116969
 -0.03115365 -0.03113419 -0.03111336 -0.03109294 -0.03107452 -0.03105829 -0.03104487 -0.03103308 -0.03102269 -0.03101329
 -0.03100468 -0.03099758 -0.030992 -0.03098878 -0.03098794 -0.03098867 -0.03099071 -0.03099064 -0.03098821 -0.03097989
 -0.03096625 -0.03094695 -0.0309236 -0.0308996 -0.03087628 -0.03085759 -0.03084305 -0.03083398 -0.03082851 -0.03082569
 -0.03082395 -0.03082216 -0.03081979 -0.03081639 -0.03081191 -0.03080623 -0.03079954 -0.03079181 -0.03078344 -0.0307745
 -0.03076493 -0.03075473 -0.03074268 -0.03072873 -0.03071208 -0.03069304 -0.03067287 -0.03065215 -0.03063367 -0.03061732
 -0.0306044 -0.03059398 -0.03058499 -0.03057701 -0.03056884 -0.03056139 -0.03055497 -0.0305504 -0.03054855 -0.03054846
 -0.03055024 -0.03055189 -0.03055278 -0.03055245 -0.03055059 -0.0305483 -0.03054566 -0.03054309 -0.03054061 -0.03053773
 -0.03053443 -0.03053046 -0.0305258 -0.03052038 -0.03051401 -0.03050586 -0.03049603 -0.03048405 -0.03047073 -0.03045709
 -0.03044393 -0.03043281 -0.03042332 -0.03041597 -0.03040914 -0.03040197 -0.03039371 -0.03038356 -0.03037269 -0.03036105
 -0.03035077 -0.03034222 -0.03033666 -0.03033439 -0.03033463 -0.03033736 -0.03034008 -0.03034261 -0.03034178 -0.03033763
 -0.03032854 -0.03031514 -0.03029875 -0.03028028 -0.03026275 -0.03024632 -0.03023297 -0.03022157 -0.0302116 -0.03020187
 -0.03019092 -0.03017917 -0.03016625 -0.03015352 -0.03014163 -0.03013053 -0.03012058 -0.03011001 -0.03009859 -0.03008477
 -0.03006817 -0.03005016 -0.03003077 -0.03001281 -0.02999634 -0.02998297 -0.02997243 -0.0299637 -0.02995652 -0.02994911
 -0.02994182 -0.02993459 -0.02992772 -0.02992197 -0.02991666 -0.02991151 -0.02990528 -0.02989662 -0.02988543 -0.02987103
 -0.02985459 -0.02983635 -0.02981753 -0.02979852 -0.02977982 -0.02976152 -0.02974438 -0.02972844 -0.02971478 -0.02970346
 -0.02969518 -0.02968993 -0.02968793 -0.02968905 -0.02969282 -0.02969864 -0.02970396 -0.02970818 -0.02970828 -0.02970461
 -0.02969614 -0.02968412 -0.02966977 -0.02965382 -0.02963747 -0.02962057 -0.029603 -0.02958586 -0.02956942 -0.02955513
 -0.02954378 -0.02953456 -0.0295278 -0.02952012 -0.02951116 -0.02949861 -0.02948225 -0.02946383 -0.0294435 -0.02942453
 -0.02940681 -0.02939124 -0.02937737 -0.02936363 -0.02935016 -0.02933616 -0.02932275 -0.0293116 -0.02930345 -0.02930033
 -0.0293011 -0.02930588 -0.02931219 -0.02931861 -0.02932341 -0.02932531 -0.02932448 -0.0293206 -0.02931475 -0.02930695
 -0.02929896 -0.02929085 -0.02928543 -0.02928288 -0.02928505 -0.02929184 -0.02930099 -0.02931184 -0.02931836 -0.02932035
 -0.02931345 -0.02929858 -0.02927577 -0.02924649 -0.02921344 -0.02917748 -0.02914073 -0.02910371 -0.02906711 -0.02903259
 -0.02900089 -0.02897471 -0.02895557 -0.02894426 -0.02894204 -0.02894521 -0.02895374 -0.0289616 -0.0289681 -0.02896908
 -0.0289641 -0.02895481 -0.02894145 -0.02893019 -0.02892078 -0.02891472 -0.0289106 -0.02890276 -0.02889091 -0.02887079
 -0.02884414 -0.02881215 -0.02877663 -0.02874069 -0.0287048 -0.02867037 -0.02863765 -0.02860711 -0.02857899 -0.02855373
 -0.02853044 -0.0285092 -0.02848795 -0.02846612 -0.0284435 -0.02841979 -0.02839775 -0.02837757 -0.02836107 -0.02834815
 -0.02833616 -0.02832476 -0.02830968 -0.02829155 -0.02827046 -0.02824783 -0.02822797 -0.02821094 -0.02819945 -0.02819162
 -0.02818594 -0.02818117 -0.02817509 -0.02816873 -0.02816221 -0.02815626 -0.02815199 -0.02814657 -0.02813965 -0.02812769
 -0.02810937 -0.02808617 -0.02805771 -0.02802994 -0.02800332 -0.0279818 -0.0279654 -0.02795186 -0.02794077 -0.02792741
 -0.02791217 -0.02789406 -0.02787428 -0.02785597 -0.02783939 -0.02782716 -0.02781735 -0.0278087 -0.02779881 -0.02778435
 -0.02776594 -0.02774212 -0.02771701 -0.027692 -0.02767044 -0.02765426 -0.02764216 -0.02763462 -0.02762721 -0.02761932
 -0.02760854 -0.02759453 -0.02757876 -0.02756135 -0.02754496 -0.02752956 -0.0275159 -0.02750362 -0.02749144 -0.0274791
 -0.02746506 -0.02744959 -0.02743234 -0.02741426 -0.02739642 -0.02737996 -0.02736668 -0.02735624 -0.02734952 -0.02734392
 -0.02733867 -0.02733102 -0.02731954 -0.02730461 -0.02728567 -0.0272659 -0.02724571 -0.02722691 -0.02720976 -0.02719311
 -0.02717691 -0.02716012 -0.02714293 -0.02712685 -0.027112 -0.02710012 -0.02709044 -0.02708165 -0.02707258 -0.02705985
 -0.02704361 -0.0270222 -0.02699754 -0.02697076 -0.02694403 -0.02691936 -0.02689726 -0.02687875 -0.0268626 -0.02684878
 -0.02683546 -0.02682217 -0.02680829 -0.02679355 -0.02677891 -0.02676442 -0.02675108 -0.0267389 -0.02672724 -0.02671594
 -0.02670299 -0.02668848 -0.02667152 -0.0266527 -0.02663333 -0.02661401 -0.02659691 -0.02658174 -0.02656923 -0.02655823
 -0.02654791 -0.02653708 -0.02652437 -0.02651016 -0.026494 -0.02647752 -0.02646114 -0.02644609 -0.02643294 -0.02642077
 -0.02640968 -0.02639733 -0.02638355 -0.02636654 -0.02634624 -0.0263223 -0.02629477 -0.02626401 -0.02623032 -0.02619511
 -0.02615917 -0.02612571 -0.02609554 -0.02607226 -0.02605541 -0.02604648 -0.02604305 -0.02604344 -0.02604492 -0.02604497
 -0.02604223 -0.02603521 -0.02602407 -0.0260082 -0.02598953 -0.02596805 -0.02594712 -0.02592713 -0.02591136 -0.02590025
 -0.02589341 -0.02589078 -0.02588816 -0.02588532 -0.02587811 -0.02586688 -0.02585128 -0.02583211 -0.02581178 -0.0257907
 -0.02577107 -0.02575248 -0.02573533 -0.02571888 -0.02570258 -0.02568562 -0.02566715 -0.02564706 -0.0256248 -0.02560157
 -0.02557753 -0.02555428 -0.02553224 -0.02551227 -0.02549462 -0.02547915 -0.02546592 -0.02545402 -0.02544342 -0.02543288
 -0.02542228 -0.02540981 -0.02539556 -0.02537906 -0.02536086 -0.02534258 -0.02532472 -0.02530946 -0.02529627 -0.02528553
 -0.02527587 -0.02526596 -0.02525475 -0.02524076 -0.02522453 -0.0252058 -0.02518574 -0.02516479 -0.02514333 -0.02512163
 -0.02509902 -0.02507534 -0.02505087 -0.0250255 -0.02500123 -0.02497817 -0.02495832 -0.02494157 -0.02492691 -0.02491396
 -0.0248999 -0.0248848 -0.02486721 -0.02484796 -0.02482831 -0.02480869 -0.02479062 -0.02477352 -0.02475734 -0.0247415
 -0.02472533 -0.02470934 -0.02469355 -0.02467867 -0.02466512 -0.02465256 -0.02464105 -0.02462976 -0.02461852 -0.02460727
 -0.02459603 -0.02458479 -0.02457354 -0.02456144 -0.02454837 -0.02453269 -0.0245145 -0.02449354 -0.02447023 -0.02444601
 -0.02442119 -0.02439736 -0.0243744 -0.02435287 -0.02433247 -0.02431297 -0.02429447 -0.024277 -0.02426063 -0.02424542
 -0.02423131 -0.02421826 -0.0242063 -0.02419542 -0.02418559 -0.02417685 -0.02416873 -0.02416125 -0.02415342 -0.02414517
 -0.02413561 -0.02412467 -0.02411141 -0.02409579 -0.02407682 -0.02405482 -0.02403016 -0.02400375 -0.02397795 -0.02395349
 -0.02393294 -0.02391577 -0.02390262 -0.02389199 -0.02388289 -0.0238741 -0.02386456 -0.02385413 -0.02384235 -0.02383008
 -0.02381745 -0.02380514 -0.02379338 -0.02378182 -0.02377053 -0.02375827 -0.02374499 -0.02373044 -0.02371471 -0.023699
 -0.0236834 -0.02366911 -0.02365587 -0.02364346 -0.0236315 -0.02361904 -0.0236057 -0.02359045 -0.02357305 -0.02355259
 -0.02352972 -0.02350437 -0.02347806 -0.02345162 -0.02342614 -0.02340241 -0.02338004 -0.02335916 -0.02333883 -0.0233188
 -0.02329937 -0.02328049 -0.02326311 -0.02324729 -0.02323369 -0.0232223 -0.02321314 -0.02320616 -0.02320126 -0.02319818
 -0.02319601 -0.02319417 -0.02319088 -0.02318529 -0.02317497 -0.02315987 -0.02313844 -0.02311263 -0.02308287 -0.02305291
 -0.02302511 -0.02300157 -0.0229843 -0.0229713 -0.02296294 -0.02295449 -0.02294508 -0.02293224 -0.02291535 -0.02289614
 -0.02287467 -0.02285405 -0.02283436 -0.02281678 -0.02280107 -0.02278622 -0.02277198 -0.02275674 -0.02274076 -0.02272375
 -0.0227064 -0.02268995 -0.02267464 -0.02266159 -0.02264991 -0.02263937 -0.02262877 -0.02261718 -0.02260448 -0.02259048
 -0.02257505 -0.02255836 -0.02253907 -0.02251693 -0.0224911 -0.02246116 -0.02243006 -0.02239794 -0.02236946 -0.0223447
 -0.02232517 -0.02231042 -0.02229786 -0.02228733 -0.02227668 -0.02226626 -0.02225613 -0.02224609 -0.02223608 -0.02222502
 -0.02221129 -0.02219489 -0.02217466 -0.02215284 -0.02213027 -0.02210934 -0.02209163 -0.02207677 -0.02206535 -0.02205464
 -0.02204428 -0.02203194 -0.02201723 -0.02199969 -0.02197925 -0.02195698 -0.02193298 -0.02190887 -0.02188471 -0.02186176
 -0.02183985 -0.02181905 -0.02179905 -0.02177906 -0.02175898 -0.02173807 -0.02171683 -0.02169545 -0.02167477 -0.02165566
 -0.02163835 -0.02162352 -0.02161005 -0.0215978 -0.02158524 -0.02157191 -0.02155695 -0.02154004 -0.02152139 -0.02150098
 -0.0214792 -0.02145606 -0.02143236 -0.02140816 -0.02138454 -0.0213616 -0.02134052 -0.02132123 -0.02130413 -0.02128897
 -0.02127543 -0.02126284 -0.02124988 -0.02123574 -0.02121861 -0.02119865 -0.02117501 -0.02114926 -0.02112208 -0.02109486
 -0.02106867 -0.02104295 -0.02101786 -0.02099216 -0.02096545 -0.02093812 -0.02091004 -0.02088317 -0.0208577 -0.02083411
 -0.02081238 -0.02079108 -0.02077018 -0.0207486 -0.02072661 -0.0207048 -0.02068336 -0.02066324 -0.02064422 -0.02062647
 -0.02060933 -0.020592 -0.02057401 -0.02055467 -0.02053365 -0.02051049 -0.02048517 -0.02045742 -0.02042788 -0.02039654
 -0.0203646 -0.02033221 -0.02030081 -0.02027061 -0.02024237 -0.02021623 -0.02019107 -0.02016679 -0.02014084 -0.02011323
 -0.0200827 -0.02004986 -0.02001672 -0.01998405 -0.01995537 -0.01993031 -0.01991023 -0.0198934 -0.01987814 -0.01986258
 -0.01984418 -0.01982248 -0.01979612 -0.01976633 -0.01973314 -0.01969854 -0.01966316 -0.01962834 -0.01959457 -0.01956192
 -0.01953051 -0.01949984 -0.01946988 -0.01944007 -0.01941038 -0.01938002 -0.01934887 -0.01931535 -0.01927958 -0.01924098
 -0.0192002 -0.01915871 -0.01911749 -0.01907935 -0.0190444 -0.01901447 -0.01898798 -0.01896451 -0.0189412 -0.01891605
 -0.01888713 -0.01885263 -0.01881349 -0.01876917 -0.01872305 -0.01867587 -0.0186293 -0.01858392 -0.01853771 -0.01849059
 -0.01843993 -0.01838569 -0.01832904 -0.01827036 -0.01821376 -0.01815915 -0.01810852 -0.01806074 -0.0180135 -0.01796587
 -0.0179146 -0.01785992 -0.01780046 -0.01773767 -0.01767254 -0.01760613 -0.01753986 -0.01747282 -0.01740534 -0.01733486
 -0.01726072 -0.01718058 -0.01709347 -0.0170001 -0.01689996 -0.01679846 -0.0166959 -0.01659873 -0.0165072 -0.01642221
 -0.01634329 -0.01626598 -0.01619013 -0.01611234 -0.01603357 -0.01595526 -0.01587768 -0.01580274 -0.01572859 -0.01565328
 -0.01557527 -0.0154911 -0.01540373 -0.01531333 -0.01522532 -0.01514269 -0.01506751 -0.01500141 -0.01494354 -0.01489395
 -0.01485205 -0.01481791 -0.01478997 -0.01476829 -0.01474841 -0.0147301 -0.0147077 -0.01468119 -0.01464801 -0.01460876
 -0.0145653 -0.01451788 -0.01446851 -0.01441647 -0.01436088 -0.01430185 -0.01423881 -0.01417308 -0.01410611 -0.01403813
 -0.01397073 -0.01390032 -0.01382634 -0.01374286 -0.01364748 -0.01353767 -0.01341153 -0.0132736 -0.01312363 -0.01297118
 -0.01281701 -0.01266913 -0.01252793 -0.01239611 -0.01227313 -0.01215474 -0.01203937 -0.01191665 -0.01178522 -0.01163395
 -0.01146516 -0.01127681 -0.01107578 -0.01087219 -0.01066974 -0.01047782 -0.01029259 -0.01011465 -0.00993837 -0.009760726
 -0.009579287 -0.009392238 -0.009200152 -0.009002521 -0.008801964 -0.008598322 -0.008397639 -0.008200326 -0.008012776 -0.00783531
 -0.007668552 -0.007512245 -0.007363168 -0.007221626 -0.007087718 -0.006962005 -0.006847167 -0.006741893 -0.006644992 -0.006553982
 -0.00646373 -0.006374687 -0.006284341 -0.006197006 -0.006115751 -0.006041651 -0.005976894 -0.005918273 -0.005864588 -0.005815815
 -0.005771148 -0.005734516 -0.005706612 -0.005688604 -0.005680875 -0.005680326 -0.005686811 -0.005699112 -0.005717547 -0.005745824
 -0.005784335 -0.005837562 -0.005904893 -0.005986589 -0.006081827 -0.006188799 -0.006307106 -0.006435503 -0.006573346 -0.00671967
 -0.006873414 -0.007033591 -0.007199137 -0.007369584 -0.007543047 -0.007719548 -0.007894238 -0.008066498 -0.008229773 -0.008382658
 -0.008523122 -0.008650402 -0.008770188 -0.00888276 -0.008995134 -0.009107248 -0.009219994 -0.009332627 -0.009440968 -0.009544887
 -0.009641334 -0.009731488 -0.00981653 -0.009897764 -0.009978016 -0.01005758 -0.01013785 -0.01021881 -0.01030077 -0.01038405
 -0.01046886 -0.01055545 -0.01064388 -0.01073453 -0.01082741 -0.01092314 -0.0110219 -0.01112333 -0.01122758 -0.01133211
 -0.01143677 -0.01153825 -0.01163646 -0.0117299 -0.01181873 -0.01190334 -0.01198361 -0.01205933 -0.01213026 -0.01219542
 -0.01225547 -0.01231094 -0.01236289 -0.01241325 -0.0124611 -0.01250691 -0.01254774 -0.01258189 -0.01260811 -0.01262483
 -0.01263476 -0.01263812 -0.01263805 -0.0126353 -0.01263015 -0.01262263 -0.01261331 -0.01260219 -0.01259433 -0.01258994
 -0.01259326 -0.01260349 -0.01261768 -0.01263465 -0.01264802 -0.01265818 -0.01266234 -0.01266272 -0.01266205 -0.01266141
 -0.01266419 -0.01266762 -0.01267112 -0.01267041 -0.012662 -0.01264665 -0.01262287 -0.01259629 -0.01256824 -0.012542
 -0.01251855 -0.01249782 -0.01247986 -0.01246492 -0.01245302 -0.01244482 -0.01244025 -0.01243842 -0.0124391 -0.01244012
 -0.01244158 -0.01244253 -0.01244356 -0.01244575 -0.01244944 -0.01245559 -0.01246474 -0.01247751 -0.01249546 -0.01251996
 -0.01255255 -0.01259503 -0.01264631 -0.01270717 -0.01277292 -0.01284295 -0.01291125 -0.01297655 -0.01303563 -0.0130876
 -0.01313553 -0.0131795 -0.01322625 -0.01327596 -0.01333183 -0.01339322 -0.01345736 -0.01352306 -0.01358402 -0.01363992
 -0.01368639 -0.01372472 -0.01375526 -0.01377928 -0.01379857 -0.0138136 -0.01382536 -0.01383401 -0.01383989 -0.0138431
 -0.01384404 -0.01384148 -0.01383537 -0.01382357 -0.01380572 -0.0137801 -0.01374643 -0.01370421 -0.01365339 -0.01359414
 -0.01352661 -0.01345306 -0.01337417 -0.01329579 -0.01321862 -0.01314902 -0.01308637 -0.01303258 -0.01298574 -0.01294336
 -0.01290361 -0.01286322 -0.01282108 -0.01277517 -0.01272491 -0.01266903 -0.01260869 -0.01254327 -0.0124773 -0.01241157
 -0.01235134 -0.01229815 -0.01225195 -0.01221324 -0.01217757 -0.01214473 -0.01211011 -0.01207355 -0.01203252 -0.01198723
 -0.01193794 -0.01188518 -0.01183137 -0.01177667 -0.01172326 -0.01166984 -0.01161545 -0.01155762 -0.0114926 -0.01141912
 -0.01133418 -0.01123924 -0.01113439 -0.01102087 -0.0108996 -0.01076964 -0.01063069 -0.0104829 -0.0103257 -0.01016319
 -0.009995553 -0.009828303 -0.009661843 -0.00949956 -0.009341642 -0.009191164 -0.009048565 -0.008918632 -0.008801944 -0.008703557
 -0.00862377 -0.008565623 -0.00853004 -0.00851967 -0.008536533 -0.008584656 -0.008664528 -0.008779239 -0.008924583 -0.009100052
 -0.009297753 -0.009514649 -0.009743513 -0.009981656 -0.01022487 -0.01047218 -0.01071976 -0.01096744 -0.01120864 -0.01144298
 -0.01166235 -0.01186645 -0.01205149 -0.01221792 -0.01236782 -0.01250183 -0.012624 -0.01273427 -0.01283472 -0.01292459
 -0.01300336 -0.01307056 -0.01312498 -0.01316757 -0.01319802 -0.01321973 -0.01323416 -0.01324604 -0.0132576 -0.01327263
 -0.01329293 -0.01331947 -0.0133531 -0.01339176 -0.01343555 -0.01348017 -0.0135254 -0.0135662 -0.01360239 -0.01363118
 -0.01365265 -0.0136663 -0.01367228 -0.0136708 -0.01366213 -0.01364671 -0.01362585 -0.01360207 -0.01357733 -0.01355557
 -0.01353757 -0.01352595 -0.01351928 -0.01351751 -0.01351884 -0.01352242 -0.01352719 -0.01353277 -0.01353815 -0.01354324
 -0.01354629 -0.01354703 -0.01354453 -0.01353865 -0.0135299 -0.01351833 -0.01350581 -0.01349246 -0.01348042 -0.01346964
 -0.0134613 -0.01345498 -0.01345014 -0.01344626 -0.01344184 -0.01343704 -0.01343132 -0.01342537 -0.01341994 -0.01341478
 -0.01341021 -0.01340507 -0.01339864 -0.01339105 -0.01338177 -0.01337316 -0.01336562 -0.01336097 -0.0133597 -0.0133611
 -0.0133652 -0.01336997 -0.01337531 -0.01338049 -0.0133856 -0.01339129 -0.01339757 -0.01340499 -0.01341335 -0.01342246
 -0.01343187 -0.01344071 -0.01344825 -0.01345308 -0.01345453 -0.01345116 -0.0134434 -0.0134308 -0.01341505 -0.0133968
 -0.0133774 -0.01335761 -0.01333735 -0.01331685 -0.01329515 -0.01327218 -0.01324684 -0.01321903 -0.01318761 -0.0131525
 -0.01311274 -0.01306843 -0.01302019 -0.01296842 -0.01291544 -0.01286163 -0.01280948 -0.01275897 -0.01271134 -0.01266637
 -0.01262422 -0.01258486 -0.01254835 -0.01251464 -0.01248373 -0.01245554 -0.01242998 -0.01240713 -0.01238696 -0.01236968
 -0.01235539 -0.0123439 -0.01233532 -0.0123284 -0.01232312 -0.01231702 -0.01230994 -0.01229894 -0.01228402 -0.01226401
 -0.01223941 -0.01221199 -0.01218256 -0.01215475 -0.01212863 -0.01210639 -0.01208706 -0.01207019 -0.01205476 -0.01203925
 -0.01202383 -0.01200796 -0.01199267 -0.0119784 -0.01196571 -0.01195508 -0.01194577 -0.01193789 -0.01192958 -0.01192058
 -0.01190969 -0.01189666 -0.01188282 -0.01186826 -0.01185662 -0.0118481 -0.01184627 -0.01185089 -0.01186265 -0.0118808
 -0.0119033 -0.01192931 -0.011956 -0.01198271 -0.01200714 -0.01202907 -0.01204734 -0.01206222 -0.01207342 -0.01208166
 -0.01208714 -0.01209074 -0.01209255 -0.01209438 -0.01209643 -0.01210132 -0.01210939 -0.01212303 -0.01214262 -0.01216773
 -0.01219833 -0.01223064 -0.01226433 -0.01229409 -0.01231989 -0.01233866 -0.01235097 -0.0123572 -0.01235791 -0.01235474
 -0.01234765 -0.01233726 -0.01232368 -0.01230707 -0.01228808 -0.01226744 -0.01224481 -0.01222077 -0.01219264 -0.01215964
 -0.01211963 -0.0120714 -0.01201684 -0.01195572 -0.01189282 -0.01182859 -0.01176591 -0.01170495 -0.01164536 -0.01158705
 -0.01152848 -0.01146981 -0.01141105 -0.01135252 -0.0112953 -0.01123982 -0.01118763 -0.01113876 -0.01109425 -0.0110532
 -0.01101527 -0.01097887 -0.01094262 -0.01090551 -0.01086632 -0.01082584 -0.01078386 -0.01074224 -0.01070137 -0.01066261
 -0.01062626 -0.01059294 -0.01056273 -0.0105362 -0.0105134 -0.01049434 -0.01047884 -0.01046461 -0.01045112 -0.01043398
 -0.01041306 -0.01038519 -0.01035126 -0.01031151 -0.01026742 -0.01022154 -0.01017474 -0.01012924 -0.01008449 -0.01004109
 -0.009997263 -0.009952114 -0.009904671 -0.009853738 -0.009801757 -0.009748735 -0.009698883 -0.009653198 -0.009612273 -0.009576741
 -0.009540083 -0.009501981 -0.009453656 -0.009395108 -0.009324243 -0.009242445 -0.009157102 -0.009069885 -0.008991376 -0.008921215
 -0.008864437 -0.008818421 -0.008780965 -0.008749992 -0.008721466 -0.008696522 -0.008674605 -0.008657525 -0.008647283 -0.00864078
 -0.00863834 -0.008632695 -0.008621862 -0.008601814 -0.008570793 -0.008532824 -0.008487879 -0.008442856 -0.008398187 -0.00835694
 -0.008319032 -0.008283395 -0.008249847 -0.008216782 -0.008184135 -0.0081511 -0.008117108 -0.008080428 -0.008040344 -0.007994162
 -0.007943389 -0.007887696 -0.007831826 -0.00777936 -0.007734429 -0.007701322 -0.007678545 -0.007667392 -0.007661959 -0.007660755
 -0.007660513 -0.007659934 -0.007661192 -0.007664252 -0.00767276 -0.007686966 -0.007707688 -0.007734798 -0.00776619 -0.00780147
 -0.007837138 -0.007872671 -0.007904138 -0.007931331 -0.007951315 -0.007965164 -0.007972956 -0.007977027 -0.007980236 -0.007984363
 -0.007992499 -0.008003411 -0.008017732 -0.008032273 -0.008045821 -0.008056484 -0.008062911 -0.008067432 -0.008069862 -0.008075003
 -0.008083316 -0.008098669 -0.008121366 -0.008152552 -0.008192128 -0.008238243 -0.008290478 -0.00834492 -0.00840139 -0.008456714
 -0.008511777 -0.008567087 -0.008624035 -0.008685629 -0.008752027 -0.008825094 -0.0089032 -0.008985708 -0.009070788 -0.009156951
 -0.009243918 -0.009331125 -0.009419133 -0.00950811 -0.009597945 -0.009688861 -0.009779222 -0.009869006 -0.00995544 -0.01003835
 -0.01011534 -0.0101863 -0.01024987 -0.01030612 -0.01035492 -0.0103965 -0.01043147 -0.01046044 -0.01048542 -0.01050681
 -0.01052652 -0.01054389 -0.01055907 -0.01057073 -0.01057727 -0.01057932 -0.01057613 -0.01057088 -0.01056451 -0.01056012
 -0.01055914 -0.01056144 -0.01056752 -0.01057479 -0.01058309 -0.01058962 -0.01059416 -0.01059446 -0.01059043 -0.01058113
 -0.01056667 -0.01054742 -0.01052393 -0.01049863 -0.01047235 -0.01044859 -0.01042785 -0.01041318 -0.01040323 -0.01039807
 -0.01039465 -0.01039026 -0.01038263 -0.01036867 -0.01035059 -0.01032804 -0.01030554 -0.01028474 -0.01026661 -0.01025233
 -0.01023694 -0.01022007 -0.01019671 -0.01016636 -0.01012967 -0.01008686 -0.01004356 -0.01000005 -0.009961317 -0.00992687
 -0.009897505 -0.009872095 -0.009847912 -0.009824082 -0.009797102 -0.009768093 -0.009736192 -0.009705346 -0.0096786 -0.00965983
 -0.009653558 -0.009657657 -0.009673942 -0.009693114 -0.009713284 -0.009725147 -0.009725905 -0.009714315 -0.009689286 -0.009657159
 -0.009618236 -0.009579607 -0.009541541 -0.009507593 -0.00947764 -0.009452375 -0.009431386 -0.009413491 -0.009397851 -0.009381348
 -0.009363651 -0.009342047 -0.00931814 -0.009292611 -0.009268041 -0.00924755 -0.009231449 -0.00922159 -0.009215047 -0.009210958
 -0.009207058 -0.009202145 -0.009196715 -0.009190818 -0.009184295 -0.009177542 -0.009166235 -0.00915013 -0.009124372 -0.009088895
 -0.009045128 -0.008993926 -0.008943514 -0.008894566 -0.008854913 -0.008823832 -0.008803632 -0.008792444 -0.008787734 -0.008787774
 -0.008789224 -0.008790714 -0.008789768 -0.008785639 -0.008776904 -0.008764079 -0.008746548 -0.008726981 -0.008705791 -0.008686412
 -0.008669862 -0.008656817 -0.008647801 -0.008639864 -0.008632843 -0.008623781 -0.008612583 -0.008599186 -0.008583572 -0.008565836
 -0.008545386 -0.008519257 -0.008487131 -0.00844573 -0.008396836 -0.008341732 -0.0082842 -0.008230223 -0.008182292 -0.008145886
 -0.008119314 -0.008104188 -0.008094588 -0.00808849 -0.008080238 -0.008066956 -0.008048577 -0.008023948 -0.007998043 -0.007971335
 -0.0079481 -0.007928864 -0.007913188 -0.007901031 -0.007890187 -0.007880627 -0.007871505 -0.007862508 -0.007851904 -0.007838801
 -0.007819224 -0.007793203 -0.007758132 -0.007716335 -0.007669847 -0.007621313 -0.007574675 -0.007529891 -0.007488752 -0.007448466
 -0.007408143 -0.007365599 -0.007319328 -0.007271003 -0.007220074 -0.007172165 -0.007127751 -0.007093126 -0.007069027 -0.007056576
 -0.007055721 -0.007059501 -0.007067169 -0.007068177 -0.00706266 -0.00704506 -0.007017514 -0.006983551 -0.006945888 -0.00691289
 -0.006883976 -0.006863097 -0.006845423 -0.006827548 -0.006805176 -0.00677259 -0.006733015 -0.006684824 -0.006638291 -0.006596474
 -0.00656683 -0.006553022 -0.006550277 -0.006559483 -0.006566484 -0.006570169 -0.006559538 -0.006534125 -0.00649587 -0.006445884
 -0.006397184 -0.006350412 -0.006316664 -0.006293694 -0.006280687 -0.006273646 -0.006262701 -0.006247027 -0.00621967 -0.00618518
 -0.00614541 -0.006105537 -0.006071059 -0.006041189 -0.006017828 -0.00599593 -0.005973814 -0.005949496 -0.005921835 -0.005892508
 -0.005861927 -0.005828811 -0.005793273 -0.005750516 -0.005700334 -0.005643604 -0.005581045 -0.005521466 -0.005465387 -0.005420739
 -0.005386336 -0.005362409 -0.005347521 -0.005338457 -0.005334643 -0.00533423 -0.005335818 -0.005337564 -0.005337442 -0.005332817
 -0.005324429 -0.005311325 -0.005297061 -0.005283099 -0.005270056 -0.005259127 -0.005245565 -0.005228888 -0.005204731 -0.005172309
 -0.005134121 -0.005090293 -0.005049389 -0.005011719 -0.004984113 -0.004965458 -0.004953405 -0.004945667 -0.004932539 -0.004913849
 -0.004883049 -0.004844417 -0.004801383 -0.004759048 -0.00472555 -0.004700356 -0.004687036 -0.004679331 -0.004674905 -0.00466898
 -0.004658629 -0.004644541 -0.004626278 -0.004605546 -0.004582865 -0.004556799 -0.004527292 -0.004492533 -0.004452419 -0.004409053
 -0.004362805 -0.004319078 -0.004278169 -0.004244882 -0.004218623 -0.004200508 -0.004188347 -0.004177937 -0.004166584 -0.004147297
 -0.004120643 -0.004082905 -0.004040516 -0.00399674 -0.003958432 -0.00393168 -0.003914483 -0.00390911 -0.003905284 -0.003900837
 -0.003888488 -0.003865788 -0.003836378 -0.003800054 -0.003764972 -0.003731602 -0.003702467 -0.003677277 -0.003652095 -0.003626833
 -0.003598622 -0.003568507 -0.003538872 -0.003510535 -0.00348732 -0.003467855 -0.003452106 -0.003437162 -0.003419533 -0.0033975
 -0.003368434 -0.00333201 -0.00328714 -0.003234711 -0.003173078 -0.003110763 -0.003047473 -0.003001932 -0.002978174 -0.002981705
 -0.003015122 -0.003057816 -0.003108748 -0.003147619 -0.003174325 -0.003184278 -0.003178937 -0.003165074 -0.003143993 -0.003124476
 -0.003106082 -0.003092631 -0.003081887 -0.003072239 -0.003060534 -0.003041805 -0.003015887 -0.002979161 -0.002938451 -0.002895879
 -0.00285942 -0.002834316 -0.002817821 -0.002811811 -0.002803983 -0.002792194 -0.00277007 -0.002735966 -0.002696436 -0.002651745
 -0.002610947 -0.002574112 -0.002542977 -0.0025171 -0.002494304 -0.002474609 -0.002457341 -0.002442012 -0.002427805 -0.002412406
 -0.00239157 -0.002363169 -0.002321678 -0.002269962 -0.002206875 -0.002140846 -0.002076326 -0.002019414 -0.001974984 -0.001939697
 -0.001914522 -0.001890779 -0.001866648 -0.001839209 -0.00180714 -0.001779396 -0.001756394 -0.001749672 -0.001759107 -0.001783079
 -0.001819877 -0.001856084 -0.001891917 -0.001920275 -0.001944348 -0.001969984 -0.001996954 -0.002030102 -0.002061204 -0.002082054
 -0.002086052 -0.002060774 -0.00201621 -0.00195075 -0.001888291 -0.001839212 -0.001814893 -0.001824785 -0.001850214 -0.001891098
 -0.001918366 -0.001927606 -0.00191282 -0.001872847 -0.001829711 -0.0017845 -0.001758642 -0.001750519 -0.001758977 -0.001780762
 -0.001801316 -0.001820401 -0.001829763 -0.001831196 -0.001825324 -0.00181067 -0.001786402 -0.001748783 -0.001692624 -0.001620893
 -0.0015311 -0.001436568 -0.001340882 -0.001259125 -0.001196838 -0.001159928 -0.001151765 -0.001164762 -0.001199329 -0.001238792
 -0.001282083 -0.001315947 -0.001340347 -0.001356948 -0.001366939 -0.001381229 -0.001398351 -0.001419327 -0.001438897 -0.001442209
 -0.001427999 -0.001383738 -0.001319104 -0.001239908 -0.001159296 -0.001093454 -0.001042671 -0.001015231 -0.0009958127 -0.0009803489
 -0.0009551327 -0.0009130701 -0.0008585013 -0.0007893036 -0.000723271 -0.0006622238 -0.0006194348 -0.0005962076 -0.0005921048 -0.0006068266
 -0.0006326198 -0.0006690806 -0.0007099237 -0.000754761 -0.0007989235 -0.0008414882 -0.0008765892 -0.0009057722 -0.0009274179 -0.0009481162
 -0.0009764846 -0.001015706 -0.001076156 -0.001144203 -0.001217857 -0.001273067 -0.001296749 -0.00128267 -0.001221224 -0.001138241
 -0.001034985 -0.0009468701 -0.0008794657 -0.0008448398 -0.0008450413 -0.000860138 -0.0008898478</values></Ydata></AB><ScSm><Ydata ylabel="Single channel"><values byteorder="INTEL" format="FLOAT32" numvalues="1814"> 0.07747574 0.07757244 0.07768004 0.07780871 0.07795687 0.07811132 0.0782553 0.07837962 0.07848506 0.07857482
 0.07865298 0.07873353 0.07883778 0.07897489 0.07912987 0.07927384 0.07938497 0.07946746 0.0795535 0.07967274
 0.07981069 0.07990882 0.07991918 0.07985723 0.07979278 0.07978709 0.07985228 0.07998576 0.08021029 0.08051479
 0.08077066 0.08081496 0.08065535 0.08049798 0.08052051 0.08069529 0.08087316 0.08094764 0.08089653 0.0807708
 0.08071756 0.08093193 0.08147862 0.08215009 0.08253419 0.08225254 0.08121078 0.07973391 0.07849097 0.07814679
 0.0788814 0.08018807 0.08125243 0.08160952 0.08139603 0.08100293 0.08066866 0.08047093 0.08050618 0.0808749
 0.08151574 0.0821376 0.08233216 0.08184294 0.08085738 0.07997246 0.07970712 0.08009914 0.08088902 0.08183314
 0.08247584 0.08191724 0.07960908 0.0765657 0.07504872 0.0764775 0.07994387 0.08315755 0.08453241 0.08402536
 0.08247325 0.08085494 0.08003341 0.08045954 0.081877 0.08357636 0.0849585 0.0856944 0.08557617 0.08461505
 0.08323786 0.08210556 0.08174454 0.08239487 0.08391543 0.08563599 0.08662218 0.08640947 0.08535275 0.08416769
 0.08340354 0.08341017 0.08436406 0.0860589 0.08792961 0.08946878 0.09048767 0.09100131 0.09110481 0.09095527
 0.09069464 0.09043 0.09034234 0.09059328 0.09101202 0.09112984 0.09070143 0.09003672 0.08968782 0.08987944
 0.09031512 0.09053566 0.09037589 0.08988345 0.08885276 0.08692116 0.08431305 0.08196321 0.08060478 0.08025272
 0.08079508 0.08230408 0.08431856 0.08562265 0.08546742 0.08458063 0.08438061 0.08544229 0.08713474 0.08854087
 0.08934829 0.08989955 0.09065445 0.09166992 0.09246925 0.09239425 0.09128012 0.08987611 0.089349 0.09015469
 0.09159371 0.09266838 0.09312797 0.0934376 0.09395513 0.09441222 0.09414957 0.09282526 0.0910088 0.08998056
 0.0906751 0.0927557 0.09479277 0.09534539 0.09398518 0.09152658 0.08934582 0.08839245 0.08882082 0.09038584
 0.09278397 0.09550433 0.0977447 0.09881607 0.09861761 0.09762377 0.09636706 0.09494096 0.09318246 0.09144165
 0.09079023 0.09202185 0.09463181 0.0972156 0.09876472 0.0992294 0.09894953 0.09797038 0.0961308 0.09377004
 0.09204413 0.09206789 0.09364422 0.09531453 0.09590876 0.09563938 0.09543797 0.09568488 0.09600173 0.09602843
 0.09596073 0.09627019 0.09710093 0.09808556 0.09873401 0.09888379 0.09873677 0.09857285 0.09848368 0.0983177
 0.09791236 0.09745482 0.09746951 0.09826651 0.09952626 0.1006215 0.1012371 0.101497 0.101582 0.1014212
 0.1008103 0.09981011 0.09893756 0.09879872 0.0994995 0.100566 0.1014494 0.1019357 0.1020892 0.1020418
 0.1019045 0.1017433 0.1015947 0.1015395 0.1016868 0.1020286 0.1024014 0.102648 0.1027449 0.1027404
 0.1026519 0.1024729 0.1022407 0.1020537 0.1020093 0.1021275 0.102348 0.1025925 0.1027982 0.1029065
 0.1028825 0.1027597 0.1026199 0.1025195 0.1024652 0.1024562 0.1025071 0.1026175 0.1027479 0.1028463
 0.1028907 0.1028936 0.1028722 0.1028313 0.1027769 0.1027291 0.1027161 0.1027547 0.1028321 0.1029127
 0.1029802 0.1030608 0.1031759 0.1032874 0.1033305 0.1032953 0.1032392 0.1032225 0.1032612 0.1033356
 0.1034153 0.103467 0.1034592 0.1033836 0.1032835 0.1032408 0.1033135 0.1034929 0.1037301 0.103978
 0.104197 0.1043557 0.1044558 0.1045329 0.1046137 0.1046909 0.1047484 0.1047951 0.104867 0.1049985
 0.1051891 0.1053977 0.1055776 0.1057102 0.105804 0.1058854 0.105993 0.1061452 0.1063041 0.1064052
 0.106439 0.1064686 0.1065524 0.1066772 0.1067833 0.1068366 0.1068608 0.1069045 0.1069906 0.107101
 0.1072055 0.1072976 0.1073978 0.107523 0.1076522 0.1077322 0.1077296 0.1076723 0.1076214 0.1076103
 0.1076294 0.1076649 0.1077223 0.1078029 0.1078827 0.1079285 0.1079317 0.1079172 0.1079147 0.1079248
 0.1079205 0.1078808 0.1078146 0.1077505 0.1077102 0.1076939 0.1076843 0.1076595 0.1076078 0.1075321
 0.1074437 0.1073526 0.1072626 0.1071776 0.1071137 0.1070942 0.1071174 0.1071312 0.1070642 0.1068933
 0.1066697 0.1064708 0.106334 0.1062383 0.1061371 0.106001 0.1058355 0.1056657 0.1055116 0.1053747
 0.1052458 0.1051206 0.1050081 0.1049283 0.1048933 0.1048831 0.1048501 0.1047584 0.1046202 0.1044814
 0.1043765 0.1043078 0.10426 0.1042193 0.1041821 0.104157 0.104154 0.104166 0.1041703 0.1041551
 0.1041359 0.104139 0.1041823 0.1042698 0.1043864 0.1044958 0.1045645 0.1045973 0.104635 0.1047102
 0.1048198 0.1049424 0.1050672 0.1051979 0.1053398 0.1054945 0.1056657 0.1058605 0.1060827 0.1063258
 0.1065739 0.1068123 0.1070381 0.1072641 0.1075103 0.1077877 0.1080895 0.1083965 0.1086932 0.1089799
 0.1092678 0.1095633 0.1098622 0.1101612 0.1104682 0.110794 0.1111375 0.111487 0.1118337 0.1121776
 0.1125204 0.112862 0.1132028 0.113548 0.113909 0.1142944 0.1146941 0.1150764 0.1154126 0.1157074
 0.1159961 0.1163132 0.1166664 0.1170363 0.1173911 0.1177086 0.1179965 0.1182866 0.1186018 0.1189313
 0.1192526 0.1195702 0.1199164 0.1203091 0.1207175 0.1210813 0.121365 0.1215918 0.1218183 0.1220775
 0.1223533 0.1226123 0.1228494 0.123088 0.1233437 0.1236078 0.1238723 0.1241495 0.1244508 0.1247602
 0.1250482 0.1253045 0.1255423 0.1257719 0.1259853 0.1261664 0.126309 0.1264257 0.1265447 0.1266892
 0.126857 0.1270268 0.1271883 0.1273545 0.1275414 0.1277494 0.1279742 0.1282203 0.1284918 0.1287754
 0.1290536 0.1293329 0.1296386 0.1299722 0.1302917 0.130553 0.1307613 0.1309592 0.1311751 0.1314083
 0.1316583 0.1319392 0.1322573 0.1325943 0.1329228 0.1332301 0.133529 0.1338467 0.1341973 0.1345579
 0.1348807 0.1351379 0.1353495 0.1355625 0.1358098 0.136094 0.1363993 0.1367076 0.1370039 0.1372733
 0.1374973 0.1376612 0.1377696 0.1378474 0.1379131 0.1379512 0.1379208 0.1377896 0.1375485 0.1371952
 0.1367179 0.1361084 0.1353904 0.1346321 0.1339309 0.1333847 0.1330687 0.1330241 0.1332551 0.1337251
 0.1343569 0.1350467 0.1356896 0.1361959 0.1364923 0.1365263 0.1362821 0.1357909 0.1351151 0.1343217
 0.1334683 0.1325996 0.1317503 0.1309637 0.1303222 0.1299533 0.1299933 0.1305357 0.1315994 0.1331139
 0.1349157 0.1367832 0.1385183 0.1400205 0.1412919 0.1423855 0.1433557 0.1442445 0.1450826 0.1458851
 0.1466514 0.1473755 0.1480562 0.1486947 0.1492855 0.1498161 0.1502718 0.1506382 0.1509073 0.1510874
 0.1512016 0.1512728 0.1513153 0.1513398 0.1513516 0.1513337 0.1512401 0.1510175 0.1506396 0.1501262
 0.149552 0.1490496 0.1487978 0.1489796 0.1497072 0.1509521 0.152541 0.1542352 0.1558317 0.1572117
 0.1583332 0.1592103 0.1598967 0.1604587 0.1609481 0.161395 0.1618168 0.1622242 0.162621 0.1630082
 0.1633869 0.1637594 0.164129 0.1644985 0.1648668 0.1652286 0.1655814 0.1659325 0.1662955 0.1666782
 0.1670737 0.1674644 0.1678395 0.1682061 0.1685776 0.1689524 0.1693142 0.1696543 0.1699825 0.1703167
 0.1706675 0.1710343 0.1714067 0.1717683 0.1721074 0.1724261 0.1727359 0.1730444 0.1733502 0.1736504
 0.1739457 0.1742384 0.1745295 0.1748205 0.1751156 0.175418 0.1757226 0.1760167 0.1762922 0.1765549
 0.1768187 0.1770915 0.1773683 0.1776393 0.177903 0.1781684 0.1784458 0.1787359 0.1790286 0.1793122
 0.1795822 0.1798414 0.1800955 0.1803505 0.1806113 0.1808791 0.1811508 0.1814222 0.1816909 0.1819557
 0.182217 0.1824775 0.1827407 0.1830068 0.1832713 0.18353 0.1837837 0.1840371 0.1842946 0.1845576
 0.1848268 0.1850995 0.1853688 0.1856281 0.1858763 0.1861181 0.1863573 0.1865956 0.1868344 0.1870751
 0.1873182 0.1875636 0.1878115 0.1880619 0.1883142 0.1885673 0.1888202 0.1890725 0.189326 0.1895824
 0.1898406 0.1900971 0.1903506 0.1906011 0.1908489 0.1910945 0.1913388 0.1915833 0.1918299 0.1920798
 0.1923323 0.192585 0.1928355 0.1930826 0.1933261 0.193568 0.1938116 0.1940579 0.1943048 0.1945502
 0.1947935 0.195034 0.1952726 0.1955132 0.1957597 0.1960131 0.1962705 0.1965261 0.1967739 0.1970133
 0.1972505 0.1974921 0.1977414 0.1979975 0.1982566 0.1985141 0.1987671 0.1990155 0.1992588 0.1994966
 0.1997327 0.1999723 0.2002177 0.200468 0.2007216 0.2009768 0.2012315 0.2014853 0.201739 0.2019932
 0.2022495 0.2025091 0.2027697 0.2030284 0.2032858 0.2035457 0.2038101 0.2040785 0.204349 0.2046168
 0.2048783 0.2051354 0.205391 0.205644 0.2058924 0.2061376 0.20638 0.2066185 0.2068538 0.2070873
 0.2073198 0.2075531 0.2077904 0.2080318 0.2082762 0.2085236 0.2087729 0.2090212 0.2092713 0.2095287
 0.2097918 0.2100534 0.2103111 0.2105676 0.2108252 0.2110867 0.2113552 0.2116289 0.2119015 0.2121699
 0.2124338 0.2126946 0.2129577 0.2132293 0.2135072 0.2137855 0.2140622 0.2143369 0.2146086 0.214881
 0.2151596 0.2154413 0.2157189 0.2159925 0.2162652 0.2165374 0.2168117 0.2170925 0.2173782 0.2176629
 0.2179443 0.2182195 0.2184862 0.2187518 0.2190279 0.219315 0.2196083 0.2199076 0.2202083 0.2204992
 0.2207786 0.2210551 0.2213314 0.2216049 0.2218784 0.2221522 0.2224204 0.2226836 0.2229457 0.2231988
 0.2234212 0.2235626 0.223487 0.2229076 0.2213491 0.2181516 0.2125921 0.2041672 0.192892 0.1793955
 0.1647519 0.1501457 0.1365463 0.1245672 0.114536 0.1066218 0.1009261 0.09756136 0.09671378 0.09873267
 0.1042506 0.1138059 0.1264578 0.1385955 0.1452922 0.1440345 0.1369991 0.1290791 0.1239036 0.1220599
 0.1223271 0.1234973 0.1250909 0.1272194 0.1301689 0.1339754 0.138384 0.1432645 0.1488489 0.1553717
 0.1626077 0.1699528 0.1769262 0.1834776 0.1898151 0.1960345 0.2019726 0.2073646 0.2120505 0.2160293
 0.2194021 0.2223095 0.2248808 0.2272085 0.2293569 0.2313584 0.2331721 0.2346752 0.235739 0.2363304
 0.2365511 0.2365873 0.2366108 0.2367103 0.2369019 0.2371799 0.2375362 0.2379569 0.2384283 0.2389413
 0.2394815 0.2400309 0.2405803 0.2411254 0.2416555 0.2421611 0.2426426 0.2431024 0.2435401 0.2439572
 0.2443571 0.2447408 0.2451106 0.2454724 0.2458292 0.2461824 0.2465349 0.2468843 0.2472178 0.2475255
 0.2478105 0.248082 0.2483481 0.2486156 0.2488863 0.2491534 0.2494103 0.2496572 0.2498974 0.250134
 0.2503717 0.2506138 0.2508584 0.2511025 0.2513446 0.2515815 0.251812 0.2520411 0.2522748 0.252513
 0.2527528 0.2529912 0.2532238 0.2534471 0.2536651 0.2538875 0.2541245 0.2543818 0.2546558 0.2549319
 0.2551984 0.255458 0.2557213 0.2559923 0.2562684 0.2565472 0.2568259 0.2571012 0.2573729 0.2576424
 0.2579054 0.2581529 0.2583804 0.2585928 0.2588037 0.259026 0.2592614 0.2595007 0.259737 0.2599719
 0.2602093 0.2604497 0.2606928 0.2609387 0.2611884 0.2614474 0.2617227 0.2620111 0.2623 0.2625817
 0.2628586 0.2631347 0.2634127 0.2636966 0.2639861 0.2642717 0.2645431 0.2648036 0.2650725 0.2653712
 0.2657042 0.2660519 0.2663878 0.266703 0.2670095 0.2673242 0.267655 0.2679921 0.2683047 0.2685617
 0.268774 0.2690022 0.2693029 0.2696761 0.2700742 0.2704523 0.2707984 0.2711255 0.2714467 0.2717609
 0.2720537 0.272313 0.2725491 0.272802 0.2731141 0.273486 0.2738709 0.274225 0.2745425 0.2748387
 0.2751248 0.275407 0.2756763 0.2758912 0.2760175 0.2761074 0.2762928 0.2766621 0.2771633 0.27766
 0.2780672 0.2784015 0.2787125 0.2790162 0.2793052 0.2795565 0.2796957 0.2796367 0.2794393 0.2793624
 0.2796524 0.2802953 0.2810485 0.2816861 0.2821466 0.2824813 0.2827573 0.283015 0.2832451 0.2833825
 0.2833756 0.2833009 0.2833627 0.2837079 0.2842591 0.2847973 0.2851935 0.2854853 0.2857606 0.2860562
 0.2863347 0.2864642 0.2862771 0.2858002 0.2854019 0.2855505 0.2863606 0.2874643 0.2883804 0.2889407
 0.2892894 0.2895454 0.2896253 0.2893944 0.2888317 0.2880375 0.2872801 0.2870355 0.2876745 0.2889872
 0.2902706 0.2910326 0.2914148 0.2918361 0.2924504 0.2930804 0.2935064 0.2936629 0.2936074 0.2933922
 0.2930366 0.2926661 0.2925989 0.2931233 0.2941616 0.2952865 0.2961217 0.2966388 0.2969869 0.2970535
 0.2963511 0.2945933 0.2924511 0.2913843 0.2923464 0.2947828 0.2972305 0.2987641 0.2995061 0.2999448
 0.300298 0.3004489 0.2999374 0.2981149 0.2950254 0.2921734 0.29161 0.2939115 0.2975328 0.3003039
 0.3010846 0.2999979 0.2978839 0.295913 0.2951655 0.2960429 0.2981016 0.3005067 0.3025335 0.3037618
 0.3040972 0.3037308 0.3030648 0.3026083 0.3026536 0.3028381 0.3023732 0.3010708 0.2997076 0.2988308
 0.2977567 0.295689 0.2934914 0.2931519 0.2953234 0.29838 0.3003022 0.3007455 0.3006769 0.3004246
 0.2988831 0.2949695 0.2896302 0.285816 0.2859552 0.2895271 0.2935756 0.2956139 0.2955932 0.2950565
 0.2949719 0.2947104 0.2929846 0.2896695 0.2865145 0.2855807 0.2869332 0.2885487 0.2885556 0.2865522
 0.2826377 0.276939 0.2711381 0.2687882 0.2721822 0.2795011 0.2864216 0.289849 0.288884 0.283534
 0.2750346 0.2671972 0.2646976 0.2687598 0.2757232 0.2805847 0.2809461 0.2771214 0.2700952 0.2610887
 0.2526125 0.2481578 0.2499709 0.2572442 0.2662728 0.2720595 0.2708624 0.2631896 0.2545467 0.2512933
 0.2546657 0.259961 0.2620723 0.2602955 0.2572663 0.2553674 0.255415 0.2571107 0.2593842 0.2612347
 0.2625045 0.2624769 0.2584629 0.2487719 0.2371492 0.2307927 0.2329293 0.2402192 0.2482124 0.2558304
 0.2628719 0.2667993 0.2654423 0.2612966 0.2599275 0.2640284 0.2708576 0.2757404 0.2768142 0.2757851
 0.2748257 0.2739803 0.2722436 0.2703667 0.2709019 0.2750213 0.2806802 0.2848364 0.2865025 0.286752
 0.2866794 0.2864792 0.2860098 0.285244 0.2842267 0.2830936 0.2820628 0.2811932 0.2803397 0.2794379
 0.2784278 0.2766289 0.2727932 0.2667245 0.2606612 0.2577316 0.2586697 0.2613565 0.2638713 0.265882
 0.2660901 0.2611856 0.2501674 0.2382115 0.2331143 0.2377638 0.2478408 0.2566674 0.2604862 0.258938
 0.2528102 0.2436606 0.2353885 0.2335609 0.2411268 0.2553322 0.2701989 0.2815883 0.2887743 0.2921113
 0.2914376 0.2872649 0.2821187 0.279538 0.281643 0.2877453 0.2948771 0.2991713 0.2975396 0.2902122
 0.2824323 0.2812894 0.2886868 0.2988144 0.3045625 0.3049704 0.3041913 0.3048937 0.305973 0.3062063
 0.3068166 0.3094165 0.313359 0.3162739 0.3161943 0.3123872 0.3053364 0.297301 0.2919579 0.2914988
 0.2942141 0.2964558 0.2963824 0.2939914 0.2888253 0.2809718 0.2739415 0.2727854 0.2783544 0.2860111
 0.2909173 0.2925409 0.2931575 0.2937565 0.2928771 0.2890565 0.2834255 0.279218 0.2785977 0.280614
 0.282759 0.2836814 0.2833993 0.2817311 0.278299 0.2742027 0.2721709 0.2741442 0.2792066 0.2844868
 0.2878057 0.2890111 0.2891353 0.2890613 0.2890469 0.2888997 0.2884241 0.2880331 0.2887721 0.2911944
 0.2943819 0.2967792 0.297989 0.2990966 0.3011443 0.3038573 0.3060657 0.3070059 0.3069996 0.3070588
 0.3079801 0.3096918 0.3113211 0.3119593 0.3115508 0.311056 0.3115856 0.3133429 0.3155477 0.3173358
 0.3184848 0.3192906 0.3200753 0.3209116 0.3215879 0.3217844 0.3214952 0.3212827 0.3218594 0.3233507
 0.3251479 0.3265246 0.327233 0.3274706 0.3274697 0.3272723 0.3268431 0.3262583 0.3257172 0.3253907
 0.3252997 0.3253439 0.3254118 0.3254459 0.325443 0.325439 0.3254824 0.3255934 0.3257526 0.3259364
 0.3261355 0.326327 0.3264703 0.3265531 0.3266064 0.3266484 0.3266377 0.3265026 0.3261889 0.3256605
 0.3248786 0.3238059 0.3224191 0.3206939 0.3186021 0.3162073 0.3138328 0.312102 0.3116785 0.3128384
 0.3152472 0.3181525 0.3208138 0.3228192 0.3241184 0.3248625 0.325236 0.3253769 0.3253674 0.3252474
 0.3250352 0.3247462 0.3244029 0.3240317 0.32366 0.3233142 0.3230116 0.3227501 0.3225078 0.3222498
 0.3219407 0.321558 0.3210984 0.3205718 0.3199877 0.3193425 0.3186138 0.3177738 0.3168196 0.315792
 0.314758 0.3137726 0.3128483 0.3119547 0.3110456 0.3100794 0.3090009 0.3077316 0.3062434 0.3046621
 0.303232 0.3021187 0.3012648 0.3004624 0.2995393 0.2984473 0.2972192 0.2959031 0.2945372 0.2931434
 0.2917238 0.2902646 0.2887424 0.287131 0.285414 0.2835971 0.2817016 0.2797484 0.2777535 0.2757267
 0.27365 0.2714496 0.2689939 0.2661257 0.2627035 0.2586331 0.2538909 0.2485434 0.2427489 0.2367295
 0.2307194 0.224924 0.2195111 0.2146233 0.2103835 0.2068879 0.2042026 0.2023705 0.201416 0.2013401
 0.2021173 0.2036994 0.2060147 0.208955 0.2123654 0.2160544 0.2198146 0.2234474 0.226807 0.2298512
 0.2326405 0.235261 0.2377383 0.2400315 0.2420921 0.2439062 0.2454825 0.2468264 0.2479405 0.2488439
 0.2495787 0.2501941 0.2507256 0.2511871 0.2515782 0.2518942 0.2521352 0.2523142 0.2524611 0.2526153
 0.2528088 0.2530544 0.2533528 0.2537079 0.2541336 0.2546477 0.2552609 0.2559688 0.2567499 0.2575788
 0.2584462 0.259368 0.2603747 0.2614989 0.2627701 0.2642069 0.2658033 0.2675197 0.2692818 0.2709889
 0.272532 0.2738209 0.2748063 0.2754833 0.2758788 0.2760301 0.2759709 0.2757297 0.2753314 0.2747956
 0.2741389 0.2733815 0.2725465 0.2716531 0.2707111 0.2697251 0.268703 0.2676622 0.2666261 0.265612
 0.2646246 0.2636621 0.2627209 0.2617948 0.2608804 0.2599852 0.259122 0.2582982 0.2575154 0.2567746
 0.25607 0.2553819 0.2546737 0.2538941 0.2529899 0.2519272 0.2506982 0.2493088 0.2477682 0.2460928
 0.2443029 0.2424124 0.2404271 0.2383535 0.2362022 0.2339814 0.2316856 0.2292971 0.2268216 0.2243231
 0.2219045 0.2196425 0.2175552 0.2156245 0.2138263 0.2121382 0.2105404 0.2090152 0.2075475 0.2061331
 0.2047817 0.2035016 0.2022902 0.2011472 0.2000825 0.1991076 0.1982313 0.1974621 0.1968006 0.1962342
 0.1957491 0.1953397 0.1950117 0.1947911 0.1947126 0.1947707 0.1948926 0.19498 0.1949747 0.1948817
 0.1947516 0.1946435 0.1945884 0.1945807 0.1945918 0.1945695 0.1944292 0.1940704 0.1934039 0.1923583
 0.1908941 0.1890351 0.1868784 0.1845676 0.1822679 0.1801388 0.1782976 0.1768023 0.1756611 0.1748299
 0.1742157 0.1737293 0.1733509 0.1731394 0.1731769 0.1734787 0.1739189 0.1742826 0.1744542 0.1745455
 0.1747985 0.1753785 0.1762693 0.1773173 0.1783451 0.1792441 0.1799835 0.1805579 0.1809673 0.1812354
 0.1813938 0.1814469 0.1813823 0.1811991 0.1809029 0.1805054 0.1800314 0.1794931 0.1788674 0.1781301
 0.1772853 0.1763435 0.17531 0.1741893 0.1729574 0.1715697 0.1700708 0.1686765 0.1676902 0.1673373
 0.1676516 0.1684664 0.1695334 0.1706854 0.1718484 0.1729175 0.1737677 0.1744531 0.1752881 0.1766362
 0.1786046 0.1809351 0.1831785 0.1849828 0.1862138 0.1868602 0.1869459 0.1865318 0.1856718 0.1843606
 0.1826137 0.1805423 0.1782833 0.1759567 0.1737168 0.1717086 0.1699849 0.1685544 0.1674183 0.1665686
 0.1660625 0.1656286 0.1637038 0.1579716 0.1486441 0.1406056 0.1397359 0.1465771 0.1555866 0.1610915
 0.1621131 0.1610247 0.1598027 0.1588731 0.15816 0.1577324 0.1576434 0.1577945 0.1579774 0.1579676
 0.1576615 0.1570692 0.1560674 0.1541609 0.1504674 0.1440369 0.1345565 0.1229946 0.1113909 0.1017763
 0.09517115 0.09136913 0.0893742 0.08809605 0.08697765 0.08618325 0.08622557 0.08744337 0.08981696 0.09312734
 0.09711383 0.1014399 0.1056348 0.1092397 0.1120533 0.1141564 0.1156914 0.1167105 0.1172306 0.1173081
 0.1170234 0.1164563 0.1156781 0.1147179 0.1135473 0.1121436 0.110584 0.1090742 0.1078626 0.1070841
 0.10668 0.1064926 0.1064125 0.1064059 0.1064553 0.1065408 0.1066597 0.1068258 0.1070569 0.1073621
 0.107717 0.1080602 0.1083354 0.1085233 0.1086266 0.108638 0.1085257 0.108257 0.1078642 0.1074527
 0.1070652 0.1065533 0.1056944 0.1044727 0.1031929 0.1022894 0.1020244 0.1023249 0.1028629 0.1033045
 0.1035217 0.1035948 0.103639 0.1036419</values></Ydata></ScSm><ScRf><Ydata ylabel="Single channel"><values byteorder="INTEL" format="FLOAT32" numvalues="1820"> 0.06967545 0.06980504 0.06991695 0.07001297 0.07010125 0.0701941 0.07030237 0.07042907 0.07056841 0.07070914
 0.07083927 0.07095223 0.07104869 0.07113157 0.07120578 0.07128462 0.07138565 0.07151401 0.07165536 0.07178658
 0.07189103 0.07197072 0.07204936 0.07215156 0.07226925 0.07235771 0.07237728 0.07233748 0.07229257 0.07229212
 0.07234865 0.07246587 0.07266867 0.07294707 0.07318296 0.07322846 0.07309068 0.07295524 0.07298096 0.07314153
 0.07330207 0.07336701 0.07331747 0.07320141 0.07315417 0.07335347 0.07385772 0.07447769 0.07483708 0.07458919
 0.07364669 0.07230676 0.07117979 0.0708693 0.0715359 0.07271886 0.07368277 0.07401085 0.07382807 0.07348399
 0.07318841 0.07301078 0.07304294 0.07337916 0.07396203 0.07452505 0.0746996 0.07425749 0.07336996 0.07257432
 0.07233597 0.07268931 0.07340503 0.07426722 0.0748593 0.07435665 0.07225981 0.06949693 0.0681285 0.06944124
 0.0726019 0.07552433 0.07676825 0.07629974 0.07488579 0.0734202 0.07268485 0.07308145 0.0743715 0.07591322
 0.07716926 0.07784386 0.07774594 0.07688279 0.0756412 0.07462207 0.07430512 0.07490918 0.07630222 0.07786787
 0.07875472 0.07854865 0.07758273 0.07650922 0.07582124 0.0758331 0.0767078 0.07826048 0.07997502 0.08138555
 0.08231818 0.08278719 0.08288091 0.08274516 0.08251275 0.08228372 0.08222108 0.08246551 0.08285466 0.08296113
 0.0825687 0.08196714 0.08165848 0.08183974 0.08223674 0.08243573 0.08229192 0.08184633 0.08090448 0.07913582
 0.07675418 0.07461846 0.07339287 0.07308333 0.07358663 0.0749723 0.07682002 0.07801845 0.07788493 0.07708567
 0.07691416 0.07789208 0.07944219 0.08072717 0.08146143 0.08195907 0.08264421 0.08357239 0.08430763 0.08424685
 0.08323973 0.08197089 0.08150274 0.08224689 0.08356366 0.08454667 0.08497269 0.0852683 0.08575731 0.08618912
 0.0859571 0.08474988 0.08309422 0.0821659 0.0828176 0.08473568 0.08660986 0.08712399 0.08588817 0.08364698
 0.08165817 0.08079159 0.08119266 0.0826406 0.08485558 0.08736295 0.08942324 0.0904081 0.09023226 0.08933416
 0.08819844 0.08690488 0.08530331 0.0837203 0.08314223 0.08429292 0.08670401 0.08908905 0.09052888 0.09097797
 0.09074216 0.08985955 0.08818477 0.08603299 0.08446672 0.08450846 0.08597518 0.08752561 0.08808563 0.08785331
 0.08768674 0.08793508 0.08824947 0.0882993 0.08826579 0.08858164 0.08937542 0.09030513 0.09091935 0.09107105
 0.09094804 0.09080802 0.09073529 0.09059212 0.09023288 0.08983427 0.08988038 0.09065204 0.0918466 0.09288093
 0.09346623 0.09372197 0.09381814 0.09368715 0.0931378 0.09222831 0.09144214 0.09134145 0.09201935 0.09303157
 0.09386951 0.09433822 0.09450002 0.09447879 0.09437837 0.09425841 0.0941487 0.09412047 0.09427538 0.09460991
 0.09497479 0.09522332 0.09533176 0.09534533 0.09528247 0.09513903 0.09495057 0.09480813 0.09479903 0.09493648
 0.09516153 0.09540436 0.09561201 0.09573207 0.09573057 0.09563677 0.09552626 0.09545141 0.09541979 0.09543364
 0.09550739 0.09563696 0.09578124 0.09589188 0.09595223 0.09597591 0.09597687 0.09595719 0.09592244 0.0958938
 0.09589995 0.09595788 0.09605556 0.09615858 0.09624918 0.0963486 0.09647518 0.0965945 0.09664883 0.09663033
 0.09659188 0.09658838 0.09663335 0.09670763 0.09678407 0.09683612 0.09683844 0.0967831 0.09670622 0.0966811
 0.09676288 0.09694701 0.09718949 0.09744437 0.09766985 0.0978334 0.09793761 0.09801878 0.09810333 0.0981833
 0.09824273 0.09829131 0.09836546 0.09849952 0.09869238 0.09890328 0.09908663 0.09922389 0.09932189 0.09940407
 0.09950742 0.09965307 0.09980782 0.0999109 0.09995255 0.09999287 0.1000865 0.1002169 0.1003236 0.1003747
 0.1003965 0.1004373 0.1005181 0.1006226 0.1007262 0.1008254 0.1009372 0.1010718 0.1012048 0.1012862
 0.1012876 0.1012384 0.1011964 0.1011904 0.1012106 0.1012471 0.1013092 0.1013986 0.1014875 0.1015379
 0.1015399 0.1015212 0.1015178 0.1015352 0.1015453 0.1015204 0.1014632 0.1014018 0.1013623 0.1013493
 0.1013471 0.1013343 0.1012977 0.1012369 0.1011601 0.1010769 0.1009934 0.1009155 0.100862 0.1008587
 0.1009042 0.1009439 0.1009028 0.1007552 0.1005506 0.1003668 0.1002435 0.1001626 0.1000779 0.09995826
 0.09980737 0.09965083 0.09951015 0.09938887 0.09927797 0.09916881 0.09906422 0.09898134 0.09893633 0.09891772
 0.09888254 0.09879359 0.09865839 0.09852061 0.09841727 0.09835428 0.09831603 0.09828417 0.09825103 0.09822524
 0.09821984 0.09822972 0.09823141 0.0982122 0.09818768 0.09818592 0.09822616 0.09831201 0.09842651 0.09853129
 0.09859201 0.09861392 0.09863862 0.09870048 0.09879813 0.09891121 0.09902941 0.09915681 0.09929836 0.09945345
 0.09962104 0.09980394 0.1000055 0.1002239 0.1004499 0.1006723 0.1008859 0.1010993 0.1013292 0.1015869
 0.1018666 0.1021498 0.102422 0.1026833 0.1029441 0.1032121 0.1034857 0.1037631 0.1040505 0.1043569
 0.1046808 0.1050091 0.10533 0.1056435 0.1059571 0.1062759 0.1065986 0.1069247 0.1072635 0.1076277
 0.1080108 0.1083789 0.1086988 0.1089733 0.1092402 0.1095367 0.1098712 0.1102217 0.1105533 0.1108432
 0.1111011 0.1113621 0.1116502 0.1119546 0.1122514 0.1125437 0.1128635 0.1132311 0.1136206 0.1139744
 0.1142539 0.114474 0.1146838 0.1149152 0.1151587 0.1153882 0.1155991 0.1158099 0.1160333 0.1162633
 0.1164961 0.1167445 0.117019 0.117304 0.1175694 0.1178019 0.118013 0.1182152 0.1184038 0.1185618
 0.1186783 0.1187634 0.1188471 0.118957 0.1190945 0.1192389 0.1193764 0.119516 0.119674 0.1198562
 0.1200618 0.120293 0.1205459 0.1208017 0.1210435 0.1212832 0.1215525 0.121856 0.122152 0.1223962
 0.1225922 0.1227789 0.1229808 0.1231944 0.1234179 0.1236648 0.123943 0.1242402 0.124536 0.1248198
 0.1250983 0.1253893 0.125702 0.1260168 0.1262936 0.1265104 0.126687 0.1268665 0.1270798 0.127331
 0.1276062 0.1278871 0.1281583 0.1284054 0.128611 0.1287604 0.1288567 0.1289234 0.1289788 0.1290102
 0.1289807 0.1288592 0.1286359 0.1283082 0.1278663 0.1273016 0.1266321 0.1259178 0.1252515 0.1247311
 0.1244309 0.124387 0.1245982 0.1250285 0.1256095 0.1262495 0.1268512 0.1273263 0.1276009 0.1276238
 0.1273837 0.1269143 0.1262753 0.1255265 0.1247192 0.1238961 0.1230926 0.1223485 0.1217372 0.1213764
 0.1213982 0.1218967 0.1228903 0.1243055 0.125979 0.127697 0.1292759 0.1306307 0.1317752 0.1327661
 0.1336528 0.1344686 0.1352395 0.1359801 0.136686 0.1373452 0.1379572 0.1385331 0.1390758 0.1395699
 0.1399916 0.1403239 0.1405634 0.1407225 0.1408219 0.1408789 0.1409032 0.1409058 0.1408961 0.1408619
 0.1407602 0.14054 0.1401766 0.1396891 0.1391467 0.1386728 0.1384352 0.138603 0.1392749 0.1404177
 0.1418689 0.1434121 0.1448668 0.1461275 0.1471545 0.1479579 0.148586 0.1491002 0.1495478 0.1499556
 0.1503408 0.1507152 0.1510811 0.1514349 0.1517747 0.1521049 0.152433 0.1527647 0.1531002 0.1534342
 0.1537629 0.1540903 0.154427 0.1547806 0.1551455 0.1555054 0.1558498 0.1561854 0.1565249 0.1568669
 0.1571985 0.1575136 0.1578213 0.1581353 0.1584636 0.1588057 0.159152 0.1594872 0.1598006 0.1600939
 0.160377 0.1606581 0.1609401 0.161223 0.1615056 0.1617858 0.1620632 0.1623407 0.1626214 0.1629039
 0.1631815 0.1634473 0.1637011 0.1639505 0.1642044 0.1644653 0.1647271 0.164982 0.165228 0.1654723
 0.1657252 0.1659915 0.1662649 0.1665341 0.1667915 0.1670376 0.1672783 0.16752 0.1677671 0.16802
 0.1682745 0.1685247 0.1687692 0.1690121 0.1692585 0.169508 0.1697564 0.1700017 0.1702465 0.1704941
 0.1707448 0.1709965 0.1712479 0.1714999 0.1717547 0.172012 0.1722665 0.1725109 0.1727425 0.172965
 0.1731845 0.173407 0.1736374 0.1738767 0.1741202 0.174362 0.1746019 0.174844 0.1750889 0.1753314
 0.1755668 0.1757973 0.1760311 0.176274 0.1765239 0.1767743 0.1770206 0.1772621 0.1774999 0.1777351
 0.1779686 0.1782019 0.1784362 0.1786717 0.1789072 0.1791439 0.1793853 0.1796319 0.1798769 0.1801122
 0.1803367 0.1805569 0.1807788 0.1810046 0.181233 0.1814629 0.1816959 0.1819341 0.1821756 0.1824153
 0.1826504 0.1828822 0.1831138 0.1833484 0.183587 0.1838269 0.1840632 0.1842948 0.1845254 0.1847601
 0.1850014 0.1852473 0.1854908 0.1857267 0.1859572 0.1861888 0.1864242 0.1866616 0.1868986 0.187135
 0.1873742 0.1876209 0.1878755 0.1881319 0.1883843 0.1886322 0.1888769 0.1891195 0.1893625 0.1896095
 0.1898623 0.19012 0.1903808 0.1906419 0.1909014 0.1911583 0.1914109 0.1916562 0.1918949 0.1921301
 0.1923609 0.1925843 0.1928022 0.1930193 0.1932375 0.1934572 0.1936806 0.1939085 0.1941402 0.1943762
 0.1946166 0.1948592 0.1951039 0.1953529 0.1956044 0.1958549 0.1961041 0.196353 0.1966003 0.196846
 0.1970945 0.1973478 0.1976053 0.1978665 0.1981283 0.1983863 0.1986425 0.1989045 0.1991738 0.1994447
 0.1997132 0.1999785 0.2002426 0.2005115 0.2007884 0.2010659 0.2013348 0.201597 0.2018581 0.2021184
 0.2023793 0.2026466 0.202922 0.2032015 0.2034808 0.2037548 0.2040202 0.2042824 0.2045504 0.2048234
 0.2050968 0.2053716 0.2056483 0.2059222 0.2061928 0.2064649 0.2067382 0.2070097 0.2072797 0.2075455
 0.2078028 0.2080575 0.2083173 0.2085722 0.2087964 0.2089419 0.2088837 0.2083548 0.2069067 0.2039189
 0.1987172 0.1908373 0.1802973 0.1676852 0.1540027 0.1403542 0.1276429 0.1164417 0.1070601 0.09966134
 0.09434275 0.09120847 0.09043006 0.09233291 0.09750867 0.10646 0.1183041 0.1296598 0.13592 0.1347401
 0.1281615 0.120759 0.115922 0.1141995 0.1144551 0.1155625 0.1170715 0.1190826 0.1218616 0.1254417
 0.1295837 0.1341665 0.1394099 0.1455341 0.1523254 0.1592155 0.1657571 0.1719084 0.1778636 0.183706
 0.1892785 0.1943361 0.1987331 0.2024676 0.205633 0.2083656 0.2107934 0.2130015 0.2150404 0.2169332
 0.2186454 0.2200695 0.2210859 0.2216574 0.2218749 0.221918 0.2219561 0.2220734 0.2222767 0.2225526
 0.2228947 0.2232979 0.223754 0.2242524 0.2247747 0.225303 0.2258312 0.2263579 0.2268734 0.2273654
 0.2278296 0.2282677 0.2286848 0.2290891 0.2294838 0.2298644 0.2302294 0.2305859 0.2309386 0.2312857
 0.2316275 0.2319651 0.2322938 0.2326068 0.2329024 0.2331821 0.2334506 0.2337164 0.2339848 0.2342512
 0.2345076 0.2347526 0.2349905 0.2352279 0.2354707 0.2357185 0.2359652 0.2362071 0.2364458 0.2366827
 0.2369167 0.2371491 0.2373826 0.2376189 0.2378596 0.2381054 0.238353 0.2385982 0.2388411 0.2390836
 0.2393272 0.2395759 0.2398328 0.240094 0.240354 0.2406161 0.2408867 0.2411624 0.2414343 0.2417006
 0.2419667 0.2422375 0.2425131 0.2427894 0.2430578 0.2433091 0.2435415 0.2437625 0.2439857 0.244221
 0.2444664 0.2447109 0.2449482 0.2451815 0.2454172 0.2456592 0.2459078 0.2461594 0.2464102 0.2466657
 0.2469369 0.2472254 0.247519 0.2478081 0.2480936 0.2483803 0.2486704 0.2489635 0.2492559 0.2495404
 0.2498133 0.2500801 0.2503559 0.2506575 0.2509898 0.2513363 0.2516709 0.2519835 0.252286 0.252596
 0.2529212 0.2532526 0.2535629 0.2538258 0.2540521 0.2542956 0.2546061 0.2549827 0.2553806 0.2557574
 0.2561016 0.2564254 0.2567414 0.2570485 0.2573342 0.2575891 0.257825 0.2580818 0.2584016 0.258783
 0.259176 0.2595325 0.2598467 0.2601374 0.2604196 0.2607005 0.2609699 0.261187 0.2613199 0.2614205
 0.2616141 0.2619817 0.262472 0.2629566 0.2633575 0.2636934 0.2640134 0.2643313 0.2646358 0.2649014
 0.2650578 0.2650253 0.2648602 0.2648057 0.2650941 0.2657122 0.2664304 0.2670373 0.2674795 0.2678123
 0.2681022 0.2683823 0.2686318 0.2687812 0.268785 0.2687263 0.2688051 0.2691576 0.269704 0.2702339
 0.2706272 0.2709231 0.2712052 0.2715047 0.2717839 0.2719195 0.2717565 0.2713212 0.270964 0.2711325
 0.2719374 0.2730236 0.2739238 0.274475 0.2748197 0.2750759 0.2751641 0.2749577 0.2744413 0.2737122
 0.2730192 0.2728071 0.2734283 0.2746893 0.2759275 0.2766768 0.2770694 0.2774996 0.2781109 0.2787351
 0.2791651 0.2793402 0.2793134 0.2791315 0.2788109 0.2784737 0.2784268 0.2789471 0.2799606 0.28106
 0.2818849 0.2824059 0.2827619 0.2828451 0.2821924 0.2805356 0.2785187 0.2775331 0.2784831 0.2808364
 0.2832001 0.2846952 0.2854375 0.2858877 0.2862524 0.286423 0.2859631 0.2842527 0.2813311 0.2786329
 0.2781174 0.2803375 0.2838218 0.2865012 0.2872861 0.28629 0.2843104 0.2824622 0.2817796 0.2826518
 0.2846582 0.2869964 0.2889657 0.2901623 0.2905025 0.2901781 0.2895774 0.2891844 0.2892728 0.2894923
 0.2890882 0.2878814 0.2866159 0.2858171 0.2848346 0.282907 0.2808559 0.2805761 0.2826897 0.2856451
 0.2875192 0.2879897 0.287981 0.2877995 0.2863808 0.2826906 0.2776402 0.2740544 0.2742546 0.2777404
 0.2816835 0.2837065 0.2837639 0.2833314 0.283334 0.2831689 0.2816055 0.2785282 0.2756165 0.2748421
 0.276256 0.2779101 0.2780111 0.2761771 0.2724985 0.2670925 0.261587 0.2594186 0.2627987 0.2699613
 0.2767242 0.2800955 0.2792047 0.2740611 0.2658683 0.2583224 0.2559492 0.2599307 0.266726 0.2714985
 0.2719261 0.2683046 0.2615817 0.2529458 0.2448419 0.2406611 0.2425802 0.2498078 0.2587373 0.2645062
 0.2634791 0.2561633 0.2479311 0.2449758 0.2484874 0.2538669 0.2561302 0.2545959 0.2518438 0.2502048
 0.2504767 0.2523592 0.2547913 0.2567886 0.2582005 0.2583196 0.2544914 0.2450507 0.2336948 0.2275208
 0.2297069 0.2369619 0.2449036 0.2524681 0.2594476 0.2633328 0.2619861 0.2578734 0.2564796 0.2604518
 0.2670803 0.2717572 0.2726536 0.271459 0.2703195 0.2692829 0.2673671 0.2653235 0.2656705 0.2695576
 0.2749652 0.2788976 0.2803891 0.2805028 0.2803172 0.2800187 0.2794607 0.2786127 0.2775173 0.2763062
 0.2751912 0.2742288 0.2732762 0.2722713 0.2711618 0.2692923 0.2654528 0.2594538 0.2534744 0.2505566
 0.2514091 0.253965 0.2563589 0.2582764 0.2584615 0.2536945 0.2429956 0.2313901 0.2264492 0.23097
 0.2407495 0.2493058 0.2530027 0.2514971 0.2455461 0.2366561 0.2286201 0.226856 0.2342301 0.2480595
 0.2625295 0.2736171 0.2806143 0.2838633 0.2832084 0.2791519 0.2741498 0.2716382 0.2736741 0.2795846
 0.2864786 0.2905915 0.2889268 0.2817248 0.2740946 0.2729223 0.2800436 0.2898037 0.2952992 0.2956094
 0.2947795 0.2954062 0.2964168 0.2966203 0.2971978 0.2997097 0.3035286 0.3063624 0.3063115 0.3026697
 0.2959051 0.2882033 0.2831212 0.2827727 0.2854883 0.2877265 0.2877073 0.2854387 0.2804824 0.2729254
 0.2661738 0.2651261 0.2706013 0.2780928 0.2829055 0.2845309 0.2851872 0.2858358 0.285049 0.2813973
 0.2759846 0.2719713 0.271475 0.2735711 0.2758141 0.2768872 0.2768057 0.2753803 0.272226 0.2684069
 0.2665873 0.2686618 0.2737256 0.2789554 0.2822024 0.2833028 0.2832627 0.2829588 0.2826678 0.2822241
 0.2814506 0.2807618 0.2811915 0.2832932 0.2861796 0.2883343 0.2893638 0.290319 0.2922134 0.2947829
 0.2968906 0.2977849 0.2977618 0.2977903 0.2986382 0.3002402 0.3017604 0.3023307 0.3019051 0.3014158
 0.3019381 0.3036667 0.3058365 0.3075966 0.308723 0.3095049 0.3102602 0.3110633 0.3117124 0.3119025
 0.3116304 0.3114398 0.312017 0.3134779 0.3152297 0.3165703 0.3172638 0.3175024 0.317509 0.3173243
 0.3169177 0.3163633 0.3158483 0.3155331 0.3154395 0.3154751 0.3155337 0.315558 0.3155438 0.3155269
 0.3155577 0.3156611 0.3158231 0.3160208 0.3162399 0.3164536 0.3166218 0.316735 0.3168263 0.3169165
 0.3169677 0.3169084 0.3166791 0.3162377 0.3155429 0.3145577 0.3132595 0.3116246 0.3096258 0.3073249
 0.3050358 0.3033651 0.3029611 0.3040986 0.3064601 0.3093171 0.3119442 0.3139312 0.3152233 0.3159694
 0.3163544 0.3165135 0.3165235 0.3164213 0.3162262 0.3159581 0.3156422 0.3153006 0.3149506 0.3146091
 0.3142914 0.3140023 0.3137294 0.3134463 0.3131225 0.3127365 0.3122828 0.3117679 0.311196 0.3105561
 0.3098202 0.3089622 0.3079895 0.3069549 0.3059312 0.3049701 0.3040794 0.3032272 0.3023674 0.301457
 0.3004425 0.2992548 0.297873 0.2964151 0.2951072 0.2941034 0.2933485 0.2926434 0.2918201 0.2908285
 0.2896962 0.2884679 0.2871836 0.2858711 0.2845368 0.2831661 0.2817316 0.2802039 0.2785654 0.2768201
 0.2749895 0.2730999 0.2711769 0.2692365 0.2672592 0.2651649 0.2628187 0.2600666 0.2567748 0.2528536
 0.2482749 0.2430942 0.2374653 0.2316175 0.2257954 0.2202015 0.2149844 0.2102649 0.2061569 0.2027619
 0.2001539 0.1983756 0.1974477 0.1973765 0.1981499 0.199729 0.2020388 0.2049626 0.2083431 0.2119943
 0.2157152 0.2193132 0.2226492 0.2256865 0.228482 0.2311062 0.2335702 0.2358334 0.2378592 0.2396417
 0.2411862 0.2424911 0.243557 0.2444071 0.2450904 0.245664 0.2461683 0.2466153 0.2469953 0.2472954
 0.2475161 0.2476779 0.2478153 0.2479631 0.2481427 0.2483584 0.2486084 0.2489004 0.2492562 0.2496993
 0.2502379 0.25086 0.251541 0.2522592 0.2530116 0.2538154 0.2546996 0.2556964 0.2568377 0.2581475
 0.2596254 0.2612355 0.262906 0.2645366 0.2660162 0.2672526 0.2681983 0.2688537 0.2692444 0.2693988
 0.2693413 0.2690987 0.2687006 0.2681729 0.2675368 0.2668139 0.2660255 0.2651839 0.2642898 0.2633411
 0.2623481 0.2613385 0.2603448 0.2593805 0.2584394 0.2575164 0.2566177 0.2557477 0.2549016 0.2540754
 0.2532714 0.2524959 0.2517576 0.2510648 0.2504109 0.2497637 0.2490736 0.2482925 0.2473889 0.2463513
 0.2451768 0.2438589 0.2423924 0.2407857 0.2390577 0.237225 0.2353003 0.2332948 0.2312149 0.2290598
 0.2268209 0.2244867 0.222068 0.2196279 0.2172673 0.2150689 0.2130581 0.2112137 0.2094975 0.2078741
 0.2063214 0.2048284 0.2033887 0.2020048 0.2006896 0.1994512 0.198282 0.1971755 0.1961399 0.1951907
 0.1943413 0.1936005 0.1929693 0.1924402 0.1920041 0.1916507 0.1913721 0.1911826 0.1911165 0.1911794
 0.1913114 0.1914181 0.1914349 0.1913598 0.1912427 0.1911449 0.1910986 0.1911018 0.1911331 0.1911446
 0.1910472 0.1907334 0.1901127 0.1891195 0.1877188 0.1859321 0.1838455 0.1815911 0.1793302 0.1772307
 0.1754231 0.1739712 0.1728761 0.1720813 0.1714913 0.1710276 0.170682 0.1705097 0.1705756 0.170882
 0.1713099 0.171667 0.1718551 0.1719812 0.1722658 0.172857 0.173742 0.1747857 0.1758233 0.176741
 0.1774958 0.1780804 0.1785022 0.1787889 0.1789699 0.1790513 0.1790272 0.1788948 0.1786468 0.1782833
 0.1778291 0.1773019 0.1766832 0.1759543 0.1751245 0.1742046 0.1731942 0.1720961 0.1708927 0.1695459
 0.1680964 0.1667458 0.1657857 0.1654436 0.165767 0.1665992 0.1676861 0.1688477 0.1700064 0.1710678
 0.1719176 0.17261 0.1734542 0.1748115 0.1767908 0.1791336 0.1813876 0.1831968 0.1844275 0.1850768
 0.185181 0.1848038 0.1839856 0.1827054 0.1809784 0.1789308 0.1767103 0.1744315 0.1722361 0.1702647
 0.1685746 0.1671779 0.1660722 0.1652446 0.1647536 0.1643375 0.162451 0.1567957 0.1475779 0.1396333
 0.1387816 0.1455556 0.1544697 0.159916 0.160932 0.159865 0.1586649 0.1577501 0.1570496 0.1566405
 0.1565789 0.1567571 0.1569546 0.1569498 0.1566554 0.1560903 0.1551245 0.1532545 0.1496005 0.14322
 0.1338029 0.1223139 0.1107868 0.1012454 0.0947018 0.09094346 0.08897436 0.0877118 0.08660783 0.08582848
 0.08587867 0.08708838 0.0894389 0.09272076 0.09667895 0.1009738 0.1051344 0.1087161 0.111533 0.1136589
 0.1152083 0.1162168 0.1167159 0.1167897 0.1165253 0.1159824 0.1152126 0.1142471 0.1130717 0.1116718
 0.1101242 0.1086357 0.107459 0.1067268 0.106367 0.1062066 0.1061293 0.1061072 0.1061371 0.1062105
 0.1063235 0.1064812 0.1067024 0.1070106 0.1073913 0.1077719 0.1080747 0.108274 0.1083861 0.108419
 0.1083392 0.1080987 0.1077174 0.1073004 0.1068971 0.1063654 0.1054879 0.1042542 0.1029675 0.1020506
 0.1017572 0.1020267 0.1025578 0.1030279 0.1032893 0.1033911 0.1034361 0.1034257 0.1032425 0.1027831
</values></Ydata></ScRf><Data_Parameters_AB><parameter name="DPF">1</parameter><parameter name="NPT">3497</parameter><parameter name="FXV">3996</parameter><parameter name="LXV">500</parameter><parameter name="CSF">1</parameter><parameter name="MXY">-0.000592104799579829</parameter><parameter name="MNY">-0.0434328466653824</parameter><parameter name="DAT">17/01/2024</parameter><parameter name="TIM">12:42:19.881 (GMT+1)</parameter><parameter name="DXU">WN</parameter></Data_Parameters_AB><AB__Qtest><MainReport name="Quality Test Report"><Header><Line><Legend>Test result ok/not ok [1/0]: </Legend><Value>0</Value></Line><Line><Legend>Method file: </Legend><Value>C:\Users\Public\Documents\Bruker\OPUS_8.2.28\QT\IRBT_v3_default.QT</Value></Line></Header><Matrix><Line><Legend></Legend><Legend>min</Legend><Legend>max</Legend><Legend>measured</Legend></Line><Line><Value>Absorption (X-Range 1):</Value><Value>0.400000</Value><Value>2.000000</Value><Value>0.019278</Value></Line><Line><Value>Noise (X-Range 4):</Value><Value></Value><Value>0.000300</Value><Value>0.000016</Value></Line><Line><Value>Signal/Noise (X-Range 2):</Value><Value>200.000000</Value><Value></Value><Value>22.777600</Value></Line><Line><Value>Signal/Noise (X-Range 3):</Value><Value>40.000000</Value><Value></Value><Value>10.276297</Value></Line><Line><Value>Water vapour (X-Range 5):</Value><Value></Value><Value>0.000300</Value><Value>0.000012</Value></Line><Line><Value>Signal/Water (X-Range 2):</Value><Value>100.000000</Value><Value></Value><Value>30.424978</Value></Line><Line><Value>Signal/Water (X-Range 3):</Value><Value>20.000000</Value><Value></Value><Value>13.726473</Value></Line><Line><Value>Fringes (X-Range 6):</Value><Value></Value><Value>0.000100</Value><Value>0.000029</Value></Line></Matrix></MainReport></AB__Qtest><Data_Parameters_ScSm><parameter name="DPF">1</parameter><parameter name="NPT">1814</parameter><parameter name="FXV">3996.63438082617</parameter><parameter name="LXV">499.579297603271</parameter><parameter name="CSF">1</parameter><parameter name="MXY">0.327470600605011</parameter><parameter name="MNY">0.0750487223267555</parameter><parameter name="DAT">17/01/2024</parameter><parameter name="TIM">12:42:19.881 (GMT+1)</parameter><parameter name="DXU">WN</parameter></Data_Parameters_ScSm><Data_Parameters_ScRf><parameter name="DPF">1</parameter><parameter name="NPT">1820</parameter><parameter name="FXV">4004.34989121387</parameter><parameter name="LXV">495.721542409425</parameter><parameter name="CSF">1</parameter><parameter name="MXY">0.31750899553299</parameter><parameter name="MNY">0.0681284964084625</parameter><parameter name="DAT">17/01/2024</parameter><parameter name="TIM">12:41:55.121 (GMT+1)</parameter><parameter name="DXU">WN</parameter></Data_Parameters_ScRf><Optic_Parameters_Rf><parameter name="APR">0</parameter><parameter name="APT">Open</parameter><parameter name="BMS">KBr</parameter><parameter name="DTC">RT-DLaTGS_IR-Biotyper [Microplate reader]</parameter><parameter name="HPF">0</parameter><parameter name="LPF">10.0</parameter><parameter name="LPV">4000</parameter><parameter name="PGR">0</parameter><parameter name="RCH">Module port</parameter><parameter name="RDX">0</parameter><parameter name="SRC">MIR</parameter><parameter name="VEL">10.0</parameter><parameter name="SON">Off</parameter></Optic_Parameters_Rf><Acquisition_Parameters_Rf><parameter name="ADT">1</parameter><parameter name="AQM">DD</parameter><parameter name="CFE">0</parameter><parameter name="COR">0</parameter><parameter name="DEL">0</parameter><parameter name="DLY">0</parameter><parameter name="HFW">8000</parameter><parameter name="LFW">0</parameter><parameter name="NSR">32</parameter><parameter name="PLF">AB</parameter><parameter name="RES">6</parameter><parameter name="RGN">-1</parameter><parameter name="STR">0</parameter><parameter name="TCL">MakeCompatibleScalar (0, {WSV=1.000000, ARV=0});</parameter><parameter name="TDL">37</parameter><parameter name="RPO">0</parameter></Acquisition_Parameters_Rf><FT_-_Parameters_Rf><parameter name="APF">B3</parameter><parameter name="HFQ">500</parameter><parameter name="LFQ">4000</parameter><parameter name="NLI">0</parameter><parameter name="PHR">24</parameter><parameter name="PHZ">ML</parameter><parameter name="SPZ">NO</parameter><parameter name="ZFF">1</parameter></FT_-_Parameters_Rf><Optic_Parameters_><parameter name="APR">0</parameter><parameter name="APT">Open</parameter><parameter name="BMS">KBr</parameter><parameter name="CHN">Module port</parameter><parameter name="DTC">RT-DLaTGS_IR-Biotyper [Microplate reader]</parameter><parameter name="HPF">0</parameter><parameter name="LPF">10.0</parameter><parameter name="LPV">4000</parameter><parameter name="PGN">0</parameter><parameter name="RDX">0</parameter><parameter name="SRC">MIR</parameter><parameter name="VEL">10.0</parameter><parameter name="SON">Off</parameter></Optic_Parameters_><FT_-_Parameters_><parameter name="APF">B3</parameter><parameter name="HFQ">500</parameter><parameter name="LFQ">4000</parameter><parameter name="NLI">0</parameter><parameter name="PHR">24</parameter><parameter name="PHZ">ML</parameter><parameter name="SPZ">NO</parameter><parameter name="ZFF">1</parameter></FT_-_Parameters_><Acquisition_Parameters_><parameter name="ADT">1</parameter><parameter name="AQM">DD</parameter><parameter name="CFE">0</parameter><parameter name="COR">0</parameter><parameter name="DEL">0</parameter><parameter name="DLY">0</parameter><parameter name="HFW">8000</parameter><parameter name="LFW">0</parameter><parameter name="NSS">32</parameter><parameter name="PLF">AB</parameter><parameter name="RES">6</parameter><parameter name="SOT">0</parameter><parameter name="TCL">MakeCompatibleScalar (0, {WSV=1.000000, ARV=0});</parameter><parameter name="TDL">37</parameter><parameter name="SPO">0</parameter><parameter name="SGN">-1</parameter></Acquisition_Parameters_><Instrument_Parameters_Rf><parameter name="HFL">15801.365274</parameter><parameter name="LFL">0</parameter><parameter name="LWN">15801.365274</parameter><parameter name="ABP">32157</parameter><parameter name="SSP">1</parameter><parameter name="ARG">2</parameter><parameter name="ASG">2</parameter><parameter name="ASS">32</parameter><parameter name="GFW">16</parameter><parameter name="GBW">16</parameter><parameter name="BFW">0</parameter><parameter name="BBW">0</parameter><parameter name="PKA">9117</parameter><parameter name="PKL">4987</parameter><parameter name="PRA">9125</parameter><parameter name="PRL">5010</parameter><parameter name="P2A">1</parameter><parameter name="P2L">1</parameter><parameter name="P2R">1</parameter><parameter name="P2K">1</parameter><parameter name="DAQ">0</parameter><parameter name="AG2">1</parameter><parameter name="SSM">1</parameter><parameter name="RSN">46254</parameter><parameter name="CRR">0</parameter><parameter name="SRT">1705495315.121</parameter><parameter name="DUR">19.6449890136719</parameter><parameter name="TSC">30.8</parameter><parameter name="MVD">0.320408672094345</parameter><parameter name="AN1">0.226005706150897</parameter><parameter name="AN2">0</parameter><parameter name="VSN">2.485 Apr  4 2017</parameter><parameter name="SRN">0085</parameter><parameter name="CAM">0</parameter><parameter name="INS">IR-Biotyper</parameter><parameter name="FOC">69</parameter><parameter name="RDY">1</parameter><parameter name="ARS">32</parameter></Instrument_Parameters_Rf><Sample_Parameters_><parameter name="BLD"></parameter><parameter name="CNM">Admin</parameter><parameter name="CPY"></parameter><parameter name="DPM"></parameter><parameter name="EXP">IRBT_v3_32Scans.XPM</parameter><parameter name="LCT"></parameter><parameter name="SFM">Microplate, HTS-XT</parameter><parameter name="SNM">240117-1222-Cdiff_SCFA_1_C6_232100818_F2_d03de58e-6ccc-49af-9cc3-2fed4727d81d.0</parameter><parameter name="XPP">C:\Users\Public\Documents\Bruker\OPUS_8.2.28\XPM</parameter><parameter name="IST">OK</parameter><parameter name="CPG">1252</parameter><parameter name="UID">fdacac86-5e24-4638-867a-3a17765db437</parameter></Sample_Parameters_><Instrument_Parameters_><parameter name="HFL">15801.365274</parameter><parameter name="LFL">0</parameter><parameter name="LWN">15801.365274</parameter><parameter name="ABP">32157</parameter><parameter name="SSP">1</parameter><parameter name="ASG">2</parameter><parameter name="ARG">2</parameter><parameter name="ASS">32</parameter><parameter name="GFW">16</parameter><parameter name="GBW">16</parameter><parameter name="BFW">0</parameter><parameter name="BBW">0</parameter><parameter name="PKA">9567</parameter><parameter name="PKL">4987</parameter><parameter name="PRA">9638</parameter><parameter name="PRL">5010</parameter><parameter name="P2A">1</parameter><parameter name="P2L">1</parameter><parameter name="P2R">1</parameter><parameter name="P2K">1</parameter><parameter name="DAQ">0</parameter><parameter name="AG2">1</parameter><parameter name="SSM">1</parameter><parameter name="RSN">23820</parameter><parameter name="CRR">0</parameter><parameter name="SRT">1705495339.881</parameter><parameter name="DUR">19.6449890136719</parameter><parameter name="TSC">30.8</parameter><parameter name="MVD">0.318914383649826</parameter><parameter name="AN1">0.22600578442618</parameter><parameter name="AN2">0</parameter><parameter name="VSN">2.485 Apr  4 2017</parameter><parameter name="SRN">0085</parameter><parameter name="CAM">0</parameter><parameter name="INS">IR-Biotyper</parameter><parameter name="FOC">69</parameter><parameter name="RDY">1</parameter></Instrument_Parameters_><History/></OPUSDataFile>
