<?xml version="1.0" encoding="UTF-8" ?>
<OPUSDataFile><AB><Ydata ylabel="Absorbance Units"><values byteorder="INTEL" format="FLOAT32" numvalues="3497"> -0.04116518 -0.04119461 -0.04123201 -0.04127325 -0.04130503 -0.04132706 -0.04133154 -0.04132165 -0.04129798 -0.0412656
 -0.04123021 -0.04119413 -0.04116119 -0.0411305 -0.04110186 -0.04107695 -0.04105543 -0.04104275 -0.04104058 -0.04104944
 -0.04107068 -0.04109414 -0.04111921 -0.04113542 -0.04114235 -0.04114136 -0.0411333 -0.04112821 -0.04112571 -0.04112951
 -0.0411374 -0.04114388 -0.04114788 -0.04114363 -0.04113298 -0.04111613 -0.0410953 -0.04107303 -0.04105023 -0.04102799
 -0.04100773 -0.04099036 -0.04097685 -0.04096835 -0.04096234 -0.04095889 -0.04095313 -0.04094403 -0.04093112 -0.04091405
 -0.04089685 -0.04087968 -0.04086437 -0.04085077 -0.04083745 -0.04082458 -0.04081237 -0.04080119 -0.040793 -0.04078672
 -0.04078127 -0.04077481 -0.04076327 -0.04074779 -0.0407271 -0.04070558 -0.04068607 -0.04067148 -0.04066462 -0.04066454
 -0.04067197 -0.04068371 -0.04069933 -0.04071557 -0.0407321 -0.04074502 -0.04075393 -0.04075595 -0.04075091 -0.04073995
 -0.04072348 -0.04070661 -0.04068962 -0.04067709 -0.04066816 -0.04066259 -0.04065884 -0.04065316 -0.04064496 -0.04063131
 -0.04061324 -0.04059048 -0.04056495 -0.04053769 -0.04051119 -0.04048651 -0.04046711 -0.04045453 -0.04045056 -0.04045665
 -0.04046918 -0.04048846 -0.0405059 -0.04052075 -0.04052679 -0.04052367 -0.04051265 -0.04049409 -0.04047335 -0.04045034
 -0.04042752 -0.04040414 -0.04037848 -0.04035102 -0.04032125 -0.04029193 -0.04026708 -0.04024917 -0.04024334 -0.04024803
 -0.04026492 -0.04028788 -0.04031465 -0.04033887 -0.04035752 -0.04036794 -0.04036858 -0.04036065 -0.04034397 -0.04032107
 -0.04029201 -0.04026137 -0.04022942 -0.04020261 -0.04018113 -0.0401696 -0.04016723 -0.04017247 -0.04018345 -0.04019275
 -0.04019903 -0.04019434 -0.04018103 -0.04015845 -0.04013177 -0.04010716 -0.04008657 -0.0400741 -0.04006824 -0.04006932
 -0.04007547 -0.0400868 -0.04009874 -0.04011121 -0.04011513 -0.04010897 -0.04008663 -0.04004644 -0.03999777 -0.03994102
 -0.03989479 -0.03985932 -0.03984218 -0.03984149 -0.03984911 -0.03986371 -0.03987564 -0.03988614 -0.03989361 -0.03989921
 -0.039905 -0.03990935 -0.03991149 -0.03990907 -0.03989933 -0.03988287 -0.03985852 -0.03983021 -0.03979918 -0.03976823
 -0.03973844 -0.03971056 -0.03968475 -0.03966181 -0.03964169 -0.03962684 -0.03961744 -0.03961489 -0.03961902 -0.03962724
 -0.03963888 -0.03964818 -0.03965509 -0.03965605 -0.03965236 -0.0396453 -0.03963634 -0.03962894 -0.03962291 -0.03961983
 -0.03961788 -0.03961638 -0.03961289 -0.03960573 -0.0395939 -0.03957607 -0.03955432 -0.03952847 -0.03950276 -0.03947793
 -0.0394564 -0.03943872 -0.03942312 -0.03940951 -0.03939445 -0.03937789 -0.03935949 -0.0393395 -0.03931985 -0.03930031
 -0.03928109 -0.03926175 -0.03924084 -0.03921912 -0.03919696 -0.03917607 -0.0391589 -0.03914604 -0.03913924 -0.03913713
 -0.0391394 -0.03914487 -0.03915297 -0.03916315 -0.03917547 -0.03918796 -0.03920059 -0.03920989 -0.03921548 -0.03921515
 -0.03920871 -0.03919585 -0.03917663 -0.03915184 -0.03912179 -0.03908891 -0.03905373 -0.03901963 -0.03898691 -0.03895796
 -0.03893315 -0.03891425 -0.03890137 -0.03889599 -0.03889614 -0.03890144 -0.03890758 -0.0389122 -0.03891139 -0.03890229
 -0.03888591 -0.0388612 -0.03883388 -0.03880473 -0.03877863 -0.03875643 -0.03873836 -0.03872452 -0.03871263 -0.03870257
 -0.03869172 -0.03868007 -0.03866607 -0.03865005 -0.03863256 -0.03861397 -0.03859551 -0.0385773 -0.03856034 -0.03854414
 -0.03852859 -0.03851312 -0.0384971 -0.03848046 -0.03846284 -0.03844484 -0.03842637 -0.0384091 -0.03839347 -0.03838066
 -0.03837116 -0.03836416 -0.03835995 -0.03835419 -0.03834666 -0.03833225 -0.03831093 -0.03828293 -0.03824904 -0.03821572
 -0.03818322 -0.03815689 -0.03813466 -0.03811402 -0.03809215 -0.03806143 -0.03802354 -0.03797594 -0.03792567 -0.03787822
 -0.03783865 -0.03781284 -0.03779892 -0.03779841 -0.037805 -0.0378177 -0.03782923 -0.03783828 -0.03783861 -0.03782912
 -0.03780793 -0.03777466 -0.03773377 -0.03768557 -0.03763692 -0.03758788 -0.03754217 -0.03749931 -0.03745902 -0.03742113
 -0.03738514 -0.03735102 -0.0373188 -0.0372876 -0.03725648 -0.03722423 -0.03718899 -0.03715137 -0.03711073 -0.03706947
 -0.03702871 -0.03698916 -0.03695162 -0.03691429 -0.03687689 -0.03683834 -0.03679829 -0.03675804 -0.03671767 -0.03667759
 -0.03663778 -0.03659758 -0.03655709 -0.03651698 -0.03647737 -0.03643928 -0.03640243 -0.03636645 -0.03633144 -0.03629739
 -0.0362648 -0.0362352 -0.03620638 -0.03617783 -0.03614442 -0.03610155 -0.03605014 -0.03598727 -0.03592402 -0.0358633
 -0.03581263 -0.03577574 -0.03574514 -0.03572091 -0.03569062 -0.03565311 -0.03560622 -0.03555015 -0.03549415 -0.03543837
 -0.03538866 -0.03534343 -0.0352982 -0.03525171 -0.03519716 -0.03513625 -0.03506861 -0.03499763 -0.0349282 -0.03486159
 -0.03480136 -0.03474577 -0.03469511 -0.03464635 -0.03459805 -0.03454866 -0.03449689 -0.03444453 -0.03439125 -0.03434186
 -0.0342971 -0.03425931 -0.03422903 -0.03420051 -0.03417336 -0.03413725 -0.03409233 -0.03403493 -0.03396697 -0.03389566
 -0.03382245 -0.03375609 -0.03369555 -0.03364325 -0.03359696 -0.03355465 -0.03351445 -0.03347384 -0.03343172 -0.0333863
 -0.03333811 -0.03328628 -0.03323424 -0.03318292 -0.03313486 -0.03309156 -0.03304935 -0.0330084 -0.03296114 -0.03290677
 -0.03284425 -0.0327737 -0.03270392 -0.03263537 -0.03257644 -0.03252589 -0.03248255 -0.03244414 -0.0324025 -0.03235758
 -0.03230438 -0.03224629 -0.03218604 -0.03212666 -0.03207318 -0.03202406 -0.03198053 -0.03193803 -0.03189426 -0.03184782
 -0.0317972 -0.03174493 -0.03169144 -0.03163806 -0.03158541 -0.0315306 -0.03147342 -0.0314115 -0.03134482 -0.03127738
 -0.03120975 -0.03114955 -0.03109647 -0.03105381 -0.0310194 -0.03098846 -0.03095851 -0.03092146 -0.03087731 -0.03082152
 -0.03075797 -0.03068842 -0.03061783 -0.0305507 -0.03048863 -0.03043444 -0.03038466 -0.03033899 -0.03029333 -0.03024617
 -0.03019834 -0.03014946 -0.03010328 -0.03006021 -0.03002087 -0.02998521 -0.02994837 -0.02991006 -0.02986522 -0.02981444
 -0.02975792 -0.02969707 -0.02963657 -0.02957736 -0.02952417 -0.02947627 -0.02943498 -0.02939826 -0.02936466 -0.029332
 -0.02929822 -0.02926208 -0.02922214 -0.02917916 -0.02913278 -0.02908537 -0.02903738 -0.02899053 -0.02894534 -0.02890094
 -0.02885737 -0.02881247 -0.02876612 -0.02871772 -0.02866737 -0.0286163 -0.02856449 -0.02851247 -0.02846011 -0.02840691
 -0.02835362 -0.02830135 -0.02825158 -0.02820735 -0.02816887 -0.02813843 -0.02811285 -0.02809128 -0.02806858 -0.02804164
 -0.0280083 -0.02796586 -0.02791948 -0.02786913 -0.02782344 -0.02778407 -0.02775374 -0.02773335 -0.02771616 -0.02770182
 -0.02768098 -0.02765363 -0.02761676 -0.02757133 -0.02752114 -0.02746719 -0.02741498 -0.02736484 -0.02732031 -0.02728113
 -0.02724853 -0.02722182 -0.02720088 -0.02718455 -0.02717247 -0.02716192 -0.02715212 -0.0271384 -0.02711897 -0.02709064
 -0.02705141 -0.02700479 -0.02695032 -0.02689691 -0.0268453 -0.02680281 -0.02676985 -0.02674623 -0.02673156 -0.02672081
 -0.02671363 -0.02670545 -0.02669663 -0.02668605 -0.02667411 -0.02666123 -0.02664752 -0.02663317 -0.02661864 -0.02660437
 -0.02659118 -0.02658041 -0.0265707 -0.02656271 -0.02655125 -0.02653456 -0.02650894 -0.02647202 -0.02642826 -0.02637719
 -0.02632936 -0.02628586 -0.02625258 -0.02622992 -0.02621451 -0.02620589 -0.02619649 -0.0261863 -0.02617101 -0.02615185
 -0.0261306 -0.02610896 -0.02609217 -0.02608047 -0.02607743 -0.02608032 -0.0260878 -0.02609619 -0.02610177 -0.02610349
 -0.02609922 -0.02609111 -0.02607925 -0.02606652 -0.02605375 -0.02604235 -0.02603292 -0.02602437 -0.02601689 -0.02600616
 -0.02599194 -0.02597052 -0.02594211 -0.02590903 -0.02587233 -0.02584001 -0.02581235 -0.02579522 -0.02578679 -0.02578591
 -0.02578988 -0.02579346 -0.02579549 -0.02579219 -0.02578437 -0.02577128 -0.02575456 -0.0257349 -0.02571354 -0.02569119
 -0.02566813 -0.02564461 -0.02562045 -0.02559553 -0.02557057 -0.02554544 -0.0255232 -0.02550402 -0.02549273 -0.02548937
 -0.02549588 -0.02551131 -0.02553072 -0.02555268 -0.02556864 -0.02557872 -0.02557824 -0.02556957 -0.02555455 -0.02553556
 -0.02551652 -0.02549782 -0.02548126 -0.02546611 -0.02545244 -0.02543949 -0.02542708 -0.02541422 -0.02540071 -0.02538531
 -0.02536763 -0.02534782 -0.02532568 -0.02530338 -0.02528103 -0.02526101 -0.02524337 -0.02522864 -0.02521649 -0.0252049
 -0.02519326 -0.02517809 -0.02515896 -0.02513273 -0.02510014 -0.02506038 -0.02501618 -0.02497007 -0.02492565 -0.02488721
 -0.02485567 -0.0248339 -0.02481753 -0.02480624 -0.02479309 -0.02477573 -0.02475178 -0.02471978 -0.02468408 -0.02464478
 -0.02460813 -0.02457455 -0.02454776 -0.02452781 -0.02451527 -0.02450972 -0.02450891 -0.02451168 -0.02451217 -0.02450959
 -0.02449831 -0.02447953 -0.02445258 -0.02441959 -0.02438333 -0.02434422 -0.02430348 -0.02426145 -0.02421758 -0.02417601
 -0.02413723 -0.02410883 -0.02409347 -0.02409377 -0.02411176 -0.02414033 -0.02417953 -0.02421672 -0.02425105 -0.02427422
 -0.02428624 -0.02428861 -0.02428223 -0.02427485 -0.02426647 -0.0242618 -0.024259 -0.02425556 -0.02424989 -0.02423693
 -0.02421871 -0.02419506 -0.02417024 -0.02414854 -0.02413108 -0.02412093 -0.02411378 -0.02410883 -0.02410139 -0.0240892
 -0.02407331 -0.02405301 -0.02403354 -0.02401543 -0.02400249 -0.02399508 -0.02399296 -0.02399602 -0.02400157 -0.02400927
 -0.02401535 -0.02401949 -0.02401813 -0.02401165 -0.02399864 -0.02398126 -0.02396235 -0.02394529 -0.02393601 -0.02393566
 -0.0239487 -0.02397066 -0.02400138 -0.02403215 -0.02405907 -0.02407686 -0.02408202 -0.02407821 -0.02406495 -0.02405019
 -0.02403504 -0.02402265 -0.0240134 -0.02400521 -0.02399804 -0.02399193 -0.02398727 -0.02398772 -0.02399274 -0.02400241
 -0.02401476 -0.02402385 -0.0240291 -0.02402545 -0.02401613 -0.02400307 -0.02399004 -0.02398215 -0.02397868 -0.02398164
 -0.02398607 -0.02398992 -0.02399108 -0.02398757 -0.02398338 -0.02397873 -0.02397856 -0.02398392 -0.02399404 -0.02400908
 -0.02402421 -0.02403925 -0.02405148 -0.02406124 -0.02407009 -0.02407843 -0.02408895 -0.02410144 -0.02411689 -0.02413428
 -0.0241525 -0.02416952 -0.02418229 -0.02418892 -0.02418589 -0.02417445 -0.02415327 -0.02412779 -0.02409955 -0.02407471
 -0.02405574 -0.02404486 -0.02404333 -0.02404941 -0.02406332 -0.02408073 -0.02410142 -0.02411996 -0.02413612 -0.02414609
 -0.02415018 -0.02414935 -0.02414439 -0.02413963 -0.02413528 -0.02413439 -0.02413632 -0.02414114 -0.02414834 -0.02415723
 -0.02416746 -0.0241788 -0.02418988 -0.0242 -0.0242072 -0.02421001 -0.02420884 -0.02420282 -0.024196 -0.0241888
 -0.02418597 -0.02418844 -0.02419696 -0.0242118 -0.02422982 -0.02425084 -0.02427106 -0.02429034 -0.02430613 -0.02431818
 -0.02432375 -0.02432285 -0.02431345 -0.02429716 -0.02427554 -0.0242522 -0.02423291 -0.02422033 -0.02422004 -0.02423061
 -0.02425363 -0.02428415 -0.02432051 -0.02435804 -0.02439487 -0.02442856 -0.02445824 -0.02448306 -0.02450273 -0.02451751
 -0.02452731 -0.02453448 -0.02453915 -0.02454489 -0.02455185 -0.02456321 -0.02457885 -0.02460001 -0.02462611 -0.02465622
 -0.02468926 -0.02472264 -0.02475534 -0.02478439 -0.02481042 -0.02483219 -0.0248531 -0.02487468 -0.02490111 -0.02493523
 -0.02497759 -0.02502987 -0.02508725 -0.02514936 -0.02521005 -0.02526823 -0.02532167 -0.02536992 -0.02541534 -0.02545807
 -0.02550084 -0.02554351 -0.02558547 -0.02562635 -0.02566364 -0.02569758 -0.02572727 -0.0257538 -0.02577909 -0.02580385
 -0.02583029 -0.02585766 -0.0258862 -0.02591437 -0.02594087 -0.02596554 -0.02598766 -0.02600867 -0.02602905 -0.0260492
 -0.02606959 -0.02608863 -0.02610617 -0.02612084 -0.02613238 -0.02614184 -0.02614925 -0.02615661 -0.02616392 -0.02617207
 -0.02618116 -0.02619221 -0.02620559 -0.02622334 -0.02624492 -0.02627064 -0.02629854 -0.02632554 -0.02635075 -0.02637141
 -0.02638941 -0.02640534 -0.0264206 -0.02643679 -0.02645158 -0.0264645 -0.02647347 -0.02647697 -0.02647955 -0.02648114
 -0.02649018 -0.02650756 -0.02653689 -0.02657835 -0.02662737 -0.02668346 -0.02673915 -0.02679434 -0.02684438 -0.02688982
 -0.02692994 -0.02696543 -0.02699745 -0.02702663 -0.02705433 -0.02708124 -0.0271084 -0.02713681 -0.02716769 -0.02720109
 -0.02723772 -0.0272759 -0.0273154 -0.02735397 -0.0273908 -0.02742592 -0.02745892 -0.02749286 -0.02752801 -0.02756617
 -0.02760741 -0.02764912 -0.02769094 -0.02772741 -0.02775865 -0.02778223 -0.0277993 -0.02781264 -0.02782314 -0.02783478
 -0.02784657 -0.02785889 -0.02787001 -0.02787753 -0.02788224 -0.02788336 -0.02788393 -0.02788558 -0.02788956 -0.02789727
 -0.02790641 -0.02791669 -0.02792624 -0.02793445 -0.02794246 -0.02795027 -0.02795987 -0.02797136 -0.0279836 -0.02799641
 -0.02800681 -0.02801497 -0.02801986 -0.0280227 -0.02802702 -0.02803445 -0.02805106 -0.02807657 -0.0281144 -0.02816051
 -0.02821246 -0.02826435 -0.02831063 -0.02834818 -0.02837298 -0.02838733 -0.02839049 -0.02838794 -0.02838069 -0.02837382
 -0.02836838 -0.02836675 -0.02836942 -0.0283753 -0.02838434 -0.02839372 -0.02840342 -0.02841241 -0.02842121 -0.02843234
 -0.02844616 -0.02846572 -0.02849021 -0.02851961 -0.02855218 -0.02858489 -0.02861682 -0.02864525 -0.02867137 -0.02869495
 -0.0287181 -0.02874225 -0.02876746 -0.02879462 -0.02882081 -0.02884525 -0.02886694 -0.02888502 -0.02890373 -0.02892319
 -0.02894961 -0.02898337 -0.02902565 -0.02907614 -0.02913039 -0.02918796 -0.0292437 -0.02929781 -0.02934838 -0.02939586
 -0.02944043 -0.02948223 -0.02952169 -0.02955846 -0.02959225 -0.02962296 -0.02965 -0.0296747 -0.029697 -0.0297203
 -0.02974585 -0.02977606 -0.02981243 -0.02985276 -0.02989743 -0.02994027 -0.02998068 -0.030014 -0.03003987 -0.03005933
 -0.03007267 -0.03008451 -0.03009488 -0.03010624 -0.03011803 -0.0301293 -0.03013979 -0.03014794 -0.03015499 -0.03016212
 -0.03017122 -0.03018534 -0.03020475 -0.03023133 -0.03026275 -0.03029842 -0.03033549 -0.03037259 -0.0304084 -0.03044222
 -0.03047403 -0.0305037 -0.03053147 -0.03055733 -0.03058169 -0.03060458 -0.03062632 -0.03064687 -0.0306654 -0.03068178
 -0.03069443 -0.03070383 -0.03071073 -0.03071634 -0.03072413 -0.03073496 -0.03075227 -0.03077552 -0.03080569 -0.03084117
 -0.0308811 -0.0309236 -0.03096751 -0.03101112 -0.0310535 -0.03109373 -0.03113128 -0.0311664 -0.03119903 -0.03122983
 -0.03125885 -0.03128666 -0.03131329 -0.03133938 -0.03136493 -0.03139017 -0.03141488 -0.03143756 -0.03145795 -0.03147373
 -0.03148553 -0.03149345 -0.03149907 -0.03150546 -0.03151327 -0.03152508 -0.03153941 -0.03155589 -0.03157307 -0.03158946
 -0.03160598 -0.03162243 -0.03164065 -0.03166159 -0.03168394 -0.031708 -0.03172977 -0.03174876 -0.03176289 -0.03177192
 -0.03177823 -0.031782 -0.03178721 -0.03179371 -0.03180242 -0.03181263 -0.03182181 -0.03182964 -0.03183348 -0.03183446
 -0.031833 -0.03183132 -0.03183255 -0.03183804 -0.03185075 -0.03186908 -0.03189374 -0.03192017 -0.03194688 -0.03196956
 -0.03198629 -0.0319967 -0.03199994 -0.03199968 -0.03199618 -0.03199342 -0.03199176 -0.03199202 -0.03199414 -0.03199597
 -0.03199756 -0.03199808 -0.03199816 -0.03200017 -0.03200436 -0.03201313 -0.03202532 -0.03204004 -0.03205554 -0.03206893
 -0.03207969 -0.03208601 -0.03208903 -0.03208875 -0.03208691 -0.03208419 -0.03208213 -0.03208124 -0.03208302 -0.03208801
 -0.03209597 -0.03210719 -0.03211844 -0.03212954 -0.03213681 -0.03214014 -0.03213872 -0.03213293 -0.0321257 -0.03211726
 -0.03211049 -0.03210472 -0.03209972 -0.03209442 -0.0320862 -0.03207545 -0.03206093 -0.03204527 -0.03203029 -0.03201867
 -0.03201332 -0.03201339 -0.03201993 -0.03202872 -0.03203873 -0.03204688 -0.03205196 -0.03205498 -0.03205575 -0.03205707
 -0.03205917 -0.03206263 -0.03206741 -0.03207213 -0.03207685 -0.03208143 -0.03208631 -0.0320935 -0.03210291 -0.03211574
 -0.03213073 -0.03214618 -0.03216042 -0.03217028 -0.03217519 -0.03217302 -0.03216522 -0.0321517 -0.03213523 -0.03211692
 -0.03209904 -0.03208265 -0.03206832 -0.03205642 -0.03204661 -0.03203886 -0.03203343 -0.03203034 -0.03202955 -0.03203098
 -0.03203223 -0.03203313 -0.0320308 -0.03202567 -0.03201803 -0.03200876 -0.03200091 -0.03199435 -0.03199073 -0.03198845
 -0.0319858 -0.03198185 -0.03197438 -0.03196511 -0.03195404 -0.03194445 -0.03193793 -0.03193642 -0.03194138 -0.03195104
 -0.03196578 -0.03198084 -0.03199575 -0.03200611 -0.03201142 -0.03201125 -0.03200563 -0.03199747 -0.03198689 -0.03197641
 -0.03196573 -0.03195458 -0.03194268 -0.03192865 -0.03191317 -0.03189677 -0.03188065 -0.03186678 -0.03185576 -0.03184938
 -0.0318463 -0.03184644 -0.03184757 -0.03184855 -0.03184821 -0.03184582 -0.03184151 -0.03183521 -0.03182698 -0.03181687
 -0.03180436 -0.03178936 -0.03177285 -0.0317549 -0.03173766 -0.03172119 -0.03170678 -0.03169426 -0.03168331 -0.03167385
 -0.03166549 -0.03165836 -0.03165268 -0.03164844 -0.03164583 -0.03164446 -0.03164395 -0.03164424 -0.03164513 -0.03164692
 -0.03164997 -0.03165362 -0.03165824 -0.0316608 -0.03166079 -0.03165533 -0.03164361 -0.03162671 -0.03160442 -0.03158247
 -0.03156114 -0.03154488 -0.03153343 -0.03152581 -0.03152151 -0.03151705 -0.03151286 -0.03150841 -0.0315046 -0.03150347
 -0.03150466 -0.03150894 -0.03151459 -0.03151997 -0.03152421 -0.03152579 -0.03152564 -0.03152381 -0.03152132 -0.03151873
 -0.03151575 -0.03151246 -0.03150818 -0.03150268 -0.03149685 -0.03149069 -0.03148622 -0.03148355 -0.0314825 -0.03148281
 -0.03148129 -0.03147796 -0.03147077 -0.03146086 -0.03145091 -0.031442 -0.03143844 -0.03143922 -0.03144517 -0.03145361
 -0.03146176 -0.03146828 -0.03147103 -0.03147043 -0.03146614 -0.03145875 -0.03144839 -0.0314354 -0.03141953 -0.03140309
 -0.03138617 -0.03137239 -0.0313622 -0.03135619 -0.03135438 -0.03135298 -0.03135177 -0.03134678 -0.03133844 -0.03132698
 -0.03131315 -0.03129977 -0.03128687 -0.03127598 -0.03126675 -0.03125899 -0.03125324 -0.03124999 -0.0312497 -0.03125355
 -0.03125947 -0.03126732 -0.03127297 -0.0312748 -0.03127063 -0.03125916 -0.03124233 -0.03122 -0.03119615 -0.03117114
 -0.03114776 -0.03112619 -0.0311074 -0.03109136 -0.03107779 -0.03106657 -0.03105676 -0.03104829 -0.03104034 -0.03103301
 -0.03102606 -0.03101971 -0.03101408 -0.03100963 -0.03100708 -0.03100615 -0.03100725 -0.03100874 -0.03101004 -0.0310093
 -0.03100537 -0.03099888 -0.03098952 -0.03097956 -0.03096944 -0.03095977 -0.03095078 -0.03094112 -0.03093074 -0.03092024
 -0.03090991 -0.03090365 -0.03090149 -0.030906 -0.03091601 -0.03092896 -0.03094312 -0.03095298 -0.03095799 -0.03095439
 -0.03094356 -0.03092515 -0.03090219 -0.0308766 -0.03085169 -0.03082982 -0.03081264 -0.03080171 -0.03079563 -0.03079461
 -0.03079565 -0.03079828 -0.03080067 -0.03080257 -0.03080356 -0.03080362 -0.03080231 -0.03079956 -0.03079448 -0.03078719
 -0.03077782 -0.03076675 -0.03075559 -0.03074457 -0.03073533 -0.03072727 -0.03072035 -0.03071342 -0.03070496 -0.03069468
 -0.03068128 -0.03066662 -0.03065103 -0.03063737 -0.03062703 -0.03062082 -0.03061969 -0.03062104 -0.03062472 -0.03062763
 -0.03062936 -0.03062909 -0.03062675 -0.03062299 -0.03061779 -0.03061051 -0.03060108 -0.03058858 -0.03057339 -0.03055643
 -0.03053826 -0.03052089 -0.0305042 -0.03048902 -0.03047477 -0.03046089 -0.03044754 -0.03043447 -0.03042253 -0.03041228
 -0.03040368 -0.03039725 -0.03039105 -0.03038479 -0.03037629 -0.03036493 -0.03035066 -0.03033319 -0.03031537 -0.03029734
 -0.03028198 -0.03026929 -0.03025971 -0.03025296 -0.03024732 -0.03024272 -0.0302378 -0.03023302 -0.03022893 -0.0302258
 -0.03022466 -0.03022473 -0.03022576 -0.0302261 -0.0302241 -0.03021926 -0.03021026 -0.03019913 -0.03018622 -0.03017376
 -0.03016279 -0.03015258 -0.03014343 -0.03013227 -0.03011871 -0.03010164 -0.03008092 -0.0300593 -0.03003696 -0.03001729
 -0.03000018 -0.02998656 -0.02997608 -0.02996773 -0.02996134 -0.02995603 -0.02995165 -0.02994756 -0.02994369 -0.02993956
 -0.02993559 -0.0299319 -0.02992916 -0.02992805 -0.02992801 -0.02992954 -0.02992961 -0.02992756 -0.0299207 -0.0299079
 -0.02989156 -0.02987141 -0.02985472 -0.02984199 -0.02983721 -0.02984011 -0.02984487 -0.02985053 -0.0298465 -0.02983347
 -0.02980785 -0.02977234 -0.02973263 -0.02969003 -0.02965015 -0.02961168 -0.02957492 -0.02953914 -0.0295024 -0.02946894
 -0.02944006 -0.02942163 -0.02941756 -0.02942656 -0.02945046 -0.0294801 -0.02951468 -0.02954321 -0.02956426 -0.02957136
 -0.02956379 -0.02954473 -0.02951462 -0.02948354 -0.02945156 -0.0294243 -0.02940034 -0.02937633 -0.02935147 -0.02932118
 -0.02928718 -0.02924991 -0.02921281 -0.02918051 -0.02915556 -0.02914287 -0.02914028 -0.02914927 -0.02916232 -0.02917703
 -0.02918608 -0.0291863 -0.02917654 -0.02915538 -0.02912764 -0.02909353 -0.02905923 -0.02902521 -0.02899514 -0.02896912
 -0.02894836 -0.02893266 -0.02892107 -0.0289132 -0.02890689 -0.02890188 -0.02889615 -0.02888997 -0.02888277 -0.0288751
 -0.02886766 -0.02886028 -0.02885329 -0.02884568 -0.02883701 -0.02882605 -0.02881202 -0.02879475 -0.02877373 -0.02875052
 -0.02872501 -0.02870061 -0.02867761 -0.02865959 -0.02864689 -0.02864019 -0.02863935 -0.0286404 -0.02864294 -0.02864168
 -0.02863676 -0.02862577 -0.0286096 -0.02858952 -0.02856635 -0.02854243 -0.02851787 -0.02849376 -0.02847 -0.02844675
 -0.02842427 -0.02840259 -0.02838255 -0.02836449 -0.02834925 -0.02833731 -0.0283284 -0.0283228 -0.02831863 -0.02831575
 -0.02831201 -0.0283072 -0.02830037 -0.02829151 -0.02828092 -0.02826869 -0.02825552 -0.0282415 -0.02822742 -0.02821319
 -0.02819909 -0.02818452 -0.02816834 -0.02815018 -0.02812852 -0.02810469 -0.02807898 -0.02805404 -0.02803187 -0.02801379
 -0.02800151 -0.02799298 -0.02798834 -0.0279837 -0.02797831 -0.02796957 -0.02795693 -0.02794022 -0.0279193 -0.027896
 -0.02787043 -0.02784508 -0.02782014 -0.02779835 -0.0277799 -0.02776732 -0.02776019 -0.02775906 -0.02776223 -0.02776692
 -0.02777063 -0.02776834 -0.02775944 -0.0277405 -0.02771501 -0.02768358 -0.02765179 -0.02762276 -0.02759864 -0.02758169
 -0.02756807 -0.02755773 -0.02754495 -0.02752866 -0.02750801 -0.02748262 -0.02745719 -0.02743194 -0.02741153 -0.02739576
 -0.02738451 -0.02737723 -0.02737093 -0.02736562 -0.02735969 -0.02735352 -0.02734751 -0.02734119 -0.02733435 -0.02732575
 -0.02731387 -0.0272984 -0.02727825 -0.02725493 -0.02722873 -0.02720146 -0.02717382 -0.02714669 -0.02712036 -0.02709554
 -0.02707226 -0.02705222 -0.02703561 -0.02702313 -0.02701478 -0.02700842 -0.02700383 -0.02699796 -0.02699086 -0.02698109
 -0.02696892 -0.02695459 -0.0269379 -0.02691855 -0.02689643 -0.02687081 -0.02684296 -0.02681348 -0.02678477 -0.0267588
 -0.02673693 -0.0267208 -0.02670907 -0.02670212 -0.02669648 -0.02669157 -0.02668428 -0.02667394 -0.02665987 -0.02664184
 -0.02662167 -0.02659943 -0.02657678 -0.0265537 -0.02653047 -0.02650721 -0.0264845 -0.02646289 -0.02644481 -0.02643009
 -0.02642014 -0.02641306 -0.02640674 -0.02639918 -0.02638684 -0.02637047 -0.02634872 -0.0263253 -0.02630171 -0.02628062
 -0.02626375 -0.02625027 -0.02624062 -0.02623186 -0.02622362 -0.0262138 -0.02620212 -0.0261886 -0.02617324 -0.02615684
 -0.02613942 -0.02612145 -0.02610295 -0.0260843 -0.0260656 -0.02604738 -0.02602974 -0.0260133 -0.02599783 -0.02598338
 -0.02596953 -0.02595584 -0.02594205 -0.02592779 -0.0259131 -0.02589789 -0.02588235 -0.02586663 -0.02585055 -0.02583415
 -0.02581706 -0.02579925 -0.02578016 -0.02575974 -0.02573777 -0.02571426 -0.02568996 -0.02566494 -0.02564009 -0.02561544
 -0.02559156 -0.02556856 -0.02554706 -0.02552717 -0.02550971 -0.02549416 -0.02548034 -0.02546706 -0.02545285 -0.02543711
 -0.0254184 -0.02539831 -0.02537685 -0.02535703 -0.02534015 -0.02532716 -0.025319 -0.025313 -0.02530913 -0.02530309
 -0.02529438 -0.02528148 -0.02526428 -0.02524444 -0.02522209 -0.02519957 -0.02517685 -0.02515502 -0.02513397 -0.02511393
 -0.02509482 -0.02507656 -0.0250592 -0.02504283 -0.0250275 -0.02501335 -0.0250003 -0.02498852 -0.02497732 -0.02496666
 -0.02495509 -0.02494208 -0.02492678 -0.02490867 -0.02488855 -0.02486634 -0.0248438 -0.02482105 -0.0247999 -0.02478046
 -0.02476444 -0.02475183 -0.02474286 -0.02473713 -0.02473226 -0.02472766 -0.02471968 -0.02470844 -0.024692 -0.02467169
 -0.02464876 -0.02462474 -0.024602 -0.0245813 -0.02456424 -0.02455044 -0.02454033 -0.02453251 -0.02452673 -0.02452102
 -0.02451489 -0.02450675 -0.02449619 -0.02448279 -0.0244664 -0.02444774 -0.02442683 -0.0244047 -0.02438142 -0.02435812
 -0.02433491 -0.02431302 -0.02429247 -0.02427408 -0.02425763 -0.02424306 -0.02422972 -0.02421645 -0.02420275 -0.02418747
 -0.02417071 -0.02415192 -0.02413216 -0.02411173 -0.02409188 -0.02407327 -0.02405622 -0.02404117 -0.02402688 -0.02401328
 -0.02399873 -0.02398299 -0.0239656 -0.02394648 -0.02392656 -0.0239059 -0.02388599 -0.02386676 -0.02384854 -0.02383111
 -0.02381391 -0.02379659 -0.02377789 -0.02375802 -0.02373662 -0.02371455 -0.02369253 -0.02367176 -0.02365369 -0.02363825
 -0.02362606 -0.02361589 -0.02360751 -0.02359961 -0.02359184 -0.02358322 -0.02357356 -0.02356203 -0.02354847 -0.0235332
 -0.02351619 -0.02349905 -0.02348185 -0.02346589 -0.02345099 -0.02343647 -0.023422 -0.0234058 -0.023388 -0.02336775
 -0.02334578 -0.02332292 -0.02329999 -0.02327831 -0.02325843 -0.02324145 -0.02322692 -0.02321516 -0.02320461 -0.02319488
 -0.02318409 -0.02317157 -0.02315655 -0.02313856 -0.02311898 -0.02309782 -0.02307741 -0.02305791 -0.02303992 -0.02302335
 -0.02300594 -0.02298755 -0.02296558 -0.02294066 -0.02291373 -0.02288596 -0.02286113 -0.02283934 -0.02282295 -0.02281041
 -0.02280085 -0.02279254 -0.02278348 -0.02277321 -0.02276066 -0.0227468 -0.02273189 -0.02271632 -0.02270052 -0.0226834
 -0.02266495 -0.02264333 -0.02261823 -0.02258946 -0.02255691 -0.0225236 -0.02248974 -0.02245988 -0.02243393 -0.02241356
 -0.02239814 -0.02238594 -0.0223765 -0.02236764 -0.02235937 -0.02235091 -0.02234201 -0.02233226 -0.02232092 -0.02230716
 -0.02229056 -0.02227033 -0.02224748 -0.02222203 -0.02219574 -0.02216906 -0.02214355 -0.02211971 -0.02209763 -0.02207752
 -0.02205781 -0.02203841 -0.02201765 -0.02199552 -0.02197267 -0.02194934 -0.02192808 -0.02190878 -0.02189259 -0.02187859
 -0.02186486 -0.02185066 -0.02183329 -0.02181352 -0.02179101 -0.02176735 -0.02174405 -0.02172161 -0.02170094 -0.02168151
 -0.02166307 -0.02164616 -0.02163078 -0.02161785 -0.02160784 -0.02159918 -0.02159202 -0.02158213 -0.02156921 -0.02155061
 -0.02152636 -0.02149823 -0.02146662 -0.0214357 -0.02140556 -0.02137906 -0.02135539 -0.02133386 -0.02131315 -0.02129023
 -0.02126466 -0.02123399 -0.02119988 -0.0211626 -0.0211249 -0.02108865 -0.02105545 -0.02102668 -0.02100207 -0.02098203
 -0.02096513 -0.02095134 -0.02093823 -0.02092557 -0.02091062 -0.02089316 -0.02087158 -0.02084586 -0.02081687 -0.02078486
 -0.02075232 -0.02071937 -0.02068814 -0.0206583 -0.02063021 -0.02060308 -0.02057541 -0.02054702 -0.02051672 -0.02048546
 -0.02045371 -0.02042229 -0.02039232 -0.02036257 -0.0203329 -0.02030158 -0.02026765 -0.02023203 -0.02019446 -0.02015767
 -0.02012206 -0.02008867 -0.0200577 -0.02002737 -0.01999759 -0.01996648 -0.01993417 -0.01990103 -0.01986733 -0.01983465
 -0.0198029 -0.01977277 -0.0197436 -0.01971453 -0.01968471 -0.01965244 -0.01961751 -0.01957892 -0.01953732 -0.01949267
 -0.01944613 -0.01939807 -0.01934979 -0.01930178 -0.01925484 -0.01920932 -0.019165 -0.01912202 -0.01907898 -0.01903583
 -0.01899088 -0.01894405 -0.01889487 -0.01884349 -0.01879103 -0.01873761 -0.01868448 -0.01863126 -0.01857755 -0.01852271
 -0.01846494 -0.0184044 -0.01834033 -0.01827353 -0.01820459 -0.01813384 -0.01806185 -0.01798812 -0.01791251 -0.01783485
 -0.01775499 -0.01767317 -0.01758947 -0.01750369 -0.01741585 -0.0173254 -0.01723221 -0.01713745 -0.01704119 -0.01694513
 -0.01684926 -0.01675385 -0.01665907 -0.01656561 -0.01647404 -0.01638685 -0.01630362 -0.01622538 -0.01614988 -0.01607425
 -0.01599696 -0.01591426 -0.01582921 -0.01574212 -0.01565811 -0.01558043 -0.0155096 -0.0154471 -0.01538965 -0.01533677
 -0.01528596 -0.01523662 -0.01518917 -0.0151436 -0.01510071 -0.0150605 -0.01502164 -0.014984 -0.0149456 -0.0149066
 -0.01486681 -0.0148265 -0.01478659 -0.01474677 -0.01470704 -0.01466652 -0.01462406 -0.01457858 -0.01452875 -0.01447323
 -0.0144109 -0.0143401 -0.0142596 -0.01416908 -0.01406762 -0.01395796 -0.01383984 -0.0137196 -0.01359799 -0.01348051
 -0.01336783 -0.01326113 -0.01316045 -0.01306236 -0.01296636 -0.01286594 -0.01276005 -0.01263959 -0.01250401 -0.01234518
 -0.01216652 -0.01196988 -0.01176276 -0.0115584 -0.01135925 -0.0111751 -0.01099909 -0.01082966 -0.01065934 -0.0104828
 -0.01030002 -0.01010872 -0.00991531 -0.009720718 -0.009530626 -0.009346196 -0.009169282 -0.009000305 -0.008837718 -0.008681435
 -0.0085271 -0.008374675 -0.008221848 -0.008069668 -0.007922952 -0.007782433 -0.007654165 -0.007535865 -0.0074258 -0.007320554
 -0.007212647 -0.00710384 -0.006991716 -0.006883229 -0.006783869 -0.006695062 -0.006620454 -0.006554079 -0.006494008 -0.006438441
 -0.006385675 -0.006340683 -0.006304021 -0.006279349 -0.00626732 -0.0062659 -0.006275005 -0.006291695 -0.006316004 -0.006347587
 -0.006386634 -0.006434211 -0.006490106 -0.006554092 -0.006625967 -0.00670489 -0.006791432 -0.006886048 -0.006989493 -0.007103347
 -0.007226297 -0.007358686 -0.007496465 -0.0076379 -0.007779015 -0.007917579 -0.008053263 -0.008185174 -0.008316064 -0.008446234
 -0.008577896 -0.008711454 -0.008845896 -0.008981189 -0.009113682 -0.009243143 -0.009365509 -0.009480832 -0.009587015 -0.009684879
 -0.009776035 -0.009861633 -0.009945324 -0.01002744 -0.01011023 -0.01019333 -0.010277 -0.01036126 -0.01044593 -0.01053189
 -0.01061962 -0.01070949 -0.0108022 -0.01089591 -0.01099053 -0.01108323 -0.01117341 -0.01126017 -0.01134313 -0.01142541
 -0.01150716 -0.01159284 -0.01168248 -0.0117776 -0.0118777 -0.01198065 -0.01208572 -0.01218911 -0.01229027 -0.01238581
 -0.012476 -0.01255974 -0.01263768 -0.0127106 -0.01277774 -0.01283918 -0.01289279 -0.01293696 -0.01297195 -0.01299674
 -0.0130153 -0.01302833 -0.01303954 -0.01304997 -0.01305928 -0.01306767 -0.01307256 -0.01307379 -0.01307102 -0.01306439
 -0.01305652 -0.01304747 -0.01303905 -0.01303098 -0.01302323 -0.01301563 -0.01300778 -0.01299955 -0.01299068 -0.01298078
 -0.01296969 -0.01295592 -0.01293821 -0.01291549 -0.01288581 -0.01285265 -0.01281605 -0.01278272 -0.01275486 -0.01273428
 -0.01272222 -0.01271452 -0.01271104 -0.01270617 -0.01269953 -0.01268827 -0.01267241 -0.01265191 -0.01262701 -0.0125993
 -0.01256907 -0.01253812 -0.01250693 -0.01247738 -0.01245042 -0.01242819 -0.01241247 -0.01240615 -0.01241061 -0.01242858
 -0.0124586 -0.01250157 -0.01255235 -0.01260966 -0.01266754 -0.01272402 -0.01277611 -0.01282243 -0.01286566 -0.0129057
 -0.01294794 -0.01299275 -0.0130415 -0.01309395 -0.013146 -0.0131973 -0.01324318 -0.01328415 -0.01331955 -0.0133507
 -0.01338104 -0.01341086 -0.01344285 -0.01347513 -0.01350675 -0.01353512 -0.01355769 -0.01357283 -0.0135785 -0.01357539
 -0.01356305 -0.01354349 -0.01351702 -0.01348599 -0.0134509 -0.01341298 -0.01337248 -0.01332927 -0.01328335 -0.01323416
 -0.0131817 -0.01312594 -0.01306697 -0.01300549 -0.01294158 -0.01287586 -0.0128084 -0.01273933 -0.01266958 -0.01260058
 -0.01253404 -0.01247321 -0.01241766 -0.01236924 -0.01232362 -0.01227896 -0.01223104 -0.01217656 -0.012118 -0.01205456
 -0.01199331 -0.01193592 -0.01188396 -0.01183827 -0.01179395 -0.01175071 -0.01170511 -0.01165716 -0.01160826 -0.01155856
 -0.01151023 -0.01146252 -0.01141361 -0.01136222 -0.0113037 -0.01123785 -0.0111615 -0.01107684 -0.01098534 -0.01088917
 -0.01079171 -0.01069119 -0.01058841 -0.01047825 -0.01035866 -0.01022636 -0.01007937 -0.00991925 -0.0097455 -0.009562887
 -0.00937171 -0.00917749 -0.008980566 -0.008786641 -0.008596093 -0.008415885 -0.008246609 -0.008096007 -0.007964604 -0.007858832
 -0.00777883 -0.007728237 -0.007707041 -0.007716753 -0.007757671 -0.00783079 -0.007936308 -0.008075262 -0.00824601 -0.008448877
 -0.008678717 -0.008934446 -0.009208086 -0.009497737 -0.009795013 -0.01009835 -0.01040033 -0.01070016 -0.01099028 -0.01127016
 -0.01153273 -0.01177776 -0.01200204 -0.01220591 -0.01239087 -0.01255732 -0.01270794 -0.0128427 -0.01296289 -0.01306843
 -0.01315944 -0.01323651 -0.01330018 -0.01335186 -0.01339265 -0.01342492 -0.01344989 -0.01347119 -0.01349038 -0.01351106
 -0.01353479 -0.01356298 -0.01359659 -0.01363348 -0.0136738 -0.01371298 -0.01375074 -0.0137831 -0.0138099 -0.01382865
 -0.01383942 -0.01384154 -0.0138355 -0.01382289 -0.0138047 -0.01378462 -0.01376354 -0.01374511 -0.01372936 -0.01371806
 -0.01371042 -0.01370641 -0.01370494 -0.01370542 -0.01370673 -0.01370814 -0.01370938 -0.01371012 -0.01371086 -0.01371172
 -0.01371271 -0.01371409 -0.01371337 -0.01371044 -0.01370137 -0.01368603 -0.01366306 -0.01363299 -0.01360005 -0.01356524
 -0.01353582 -0.01351173 -0.01349709 -0.01349021 -0.01348972 -0.01349386 -0.01349912 -0.01350554 -0.01351172 -0.01351868
 -0.01352698 -0.01353641 -0.01354737 -0.01355801 -0.01356777 -0.01357565 -0.01358116 -0.01358503 -0.01358727 -0.01358882
 -0.01358976 -0.01359038 -0.01359068 -0.01359119 -0.01359188 -0.01359313 -0.01359463 -0.01359517 -0.01359434 -0.01359005
 -0.01358259 -0.01357139 -0.01355752 -0.0135423 -0.01352655 -0.01351181 -0.01349777 -0.01348485 -0.01347203 -0.01345902
 -0.01344474 -0.01342894 -0.01341013 -0.01338799 -0.01336131 -0.01332976 -0.01329364 -0.01325284 -0.01320978 -0.01316458
 -0.01311918 -0.01307363 -0.0130287 -0.01298452 -0.01294207 -0.01290164 -0.01286503 -0.01283167 -0.01280166 -0.01277322
 -0.01274371 -0.01271209 -0.01267553 -0.01263615 -0.01259391 -0.01255304 -0.01251576 -0.01248422 -0.01246023 -0.01244162
 -0.0124285 -0.01241713 -0.01240681 -0.01239677 -0.01238676 -0.01237892 -0.01237331 -0.01237018 -0.01236911 -0.01236561
 -0.01235921 -0.01234467 -0.01232268 -0.01229236 -0.01225556 -0.01221581 -0.01217467 -0.01213615 -0.0121006 -0.0120699
 -0.01204378 -0.01202279 -0.01200594 -0.01199316 -0.01198252 -0.01197345 -0.01196411 -0.0119538 -0.01194248 -0.01192996
 -0.01191708 -0.0119039 -0.01189121 -0.01187907 -0.01186848 -0.01185964 -0.011855 -0.01185465 -0.01186073 -0.01187242
 -0.01188849 -0.01190734 -0.01192481 -0.01193977 -0.01194823 -0.01195106 -0.01194693 -0.01193942 -0.01193038 -0.01192373
 -0.01192234 -0.01192684 -0.01193875 -0.01195451 -0.0119737 -0.01199258 -0.01201021 -0.01202713 -0.01204317 -0.01206117
 -0.01208125 -0.0121035 -0.0121276 -0.01214979 -0.01216985 -0.01218429 -0.0121936 -0.01219753 -0.01219674 -0.01219276
 -0.01218569 -0.01217632 -0.01216467 -0.01215086 -0.01213549 -0.01211919 -0.01210201 -0.01208473 -0.01206507 -0.01204269
 -0.01201441 -0.01197908 -0.01193651 -0.01188609 -0.01183146 -0.01177288 -0.0117134 -0.01165317 -0.01159204 -0.01153001
 -0.01146679 -0.01140297 -0.01134185 -0.011284 -0.01123368 -0.01118971 -0.01115207 -0.01111799 -0.0110828 -0.01104521
 -0.01100102 -0.01095285 -0.01090087 -0.01084926 -0.01080082 -0.01075621 -0.01071697 -0.01067981 -0.010644 -0.01060819
 -0.0105716 -0.01053745 -0.01050596 -0.01048001 -0.01045979 -0.01044286 -0.01042888 -0.01041223 -0.01039283 -0.01036727
 -0.01033616 -0.01029986 -0.01025898 -0.0102152 -0.01016873 -0.01012078 -0.01007101 -0.01001956 -0.00996596 -0.009909723
 -0.009851123 -0.009790017 -0.009727324 -0.009663606 -0.009598364 -0.009531896 -0.009461833 -0.009387724 -0.00930871 -0.009224493
 -0.009137079 -0.009046569 -0.008954395 -0.008860471 -0.00876352 -0.008663621 -0.008560286 -0.00845443 -0.008349178 -0.008245361
 -0.008146647 -0.008053174 -0.007966541 -0.007887359 -0.007816684 -0.00775575 -0.00770636 -0.007667693 -0.007640398 -0.00762124
 -0.007609177 -0.007601748 -0.007597975 -0.007597459 -0.007600294 -0.007604247 -0.00760935 -0.007610494 -0.007607357 -0.007597418
 -0.007581 -0.007562974 -0.007544063 -0.007531961 -0.007525853 -0.007527376 -0.007533877 -0.007539398 -0.007542337 -0.007536311
 -0.007523405 -0.007502751 -0.00747915 -0.007456196 -0.007437601 -0.00742691 -0.007424306 -0.007431259 -0.007444557 -0.007463912
 -0.007485276 -0.007507808 -0.007529572 -0.00755002 -0.007571382 -0.007593739 -0.007620892 -0.007652829 -0.007689768 -0.007731013
 -0.007771993 -0.007812058 -0.007845927 -0.007874122 -0.007894873 -0.007910017 -0.007921834 -0.007932154 -0.007944556 -0.007958769
 -0.007976525 -0.007994626 -0.008011902 -0.008025136 -0.008032143 -0.008033791 -0.008029149 -0.008023405 -0.008017188 -0.008015306
 -0.008018423 -0.008028648 -0.008046155 -0.008072109 -0.008106584 -0.008151017 -0.008205308 -0.008269748 -0.008343638 -0.008424501
 -0.008511376 -0.008600554 -0.00869133 -0.008780772 -0.008868518 -0.008952888 -0.009034033 -0.009111219 -0.009185733 -0.009257797
 -0.009329658 -0.009402451 -0.009476922 -0.00955401 -0.009631191 -0.009708404 -0.00978182 -0.009850866 -0.009914453 -0.009972393
 -0.01002763 -0.01008027 -0.01013258 -0.01018407 -0.01023239 -0.01027661 -0.01031124 -0.01033648 -0.01034947 -0.01035215
 -0.0103464 -0.01033487 -0.0103217 -0.0103087 -0.01029904 -0.01029311 -0.01029243 -0.01029539 -0.01030199 -0.01030953
 -0.01031725 -0.01032325 -0.01032683 -0.01032845 -0.01032808 -0.01032636 -0.01032338 -0.010318 -0.01031014 -0.01029836
 -0.01028284 -0.01026426 -0.01024306 -0.0102216 -0.01019995 -0.01017968 -0.01016042 -0.01014215 -0.01012471 -0.01010781
 -0.01009159 -0.01007614 -0.01006127 -0.01004695 -0.0100327 -0.01001837 -0.01000337 -0.009987582 -0.009970207 -0.009951013
 -0.009929869 -0.009906556 -0.009883005 -0.009859322 -0.009837691 -0.0098181 -0.009799505 -0.009781518 -0.009760235 -0.009735924
 -0.009707176 -0.009675596 -0.009645094 -0.009616701 -0.009594875 -0.009578205 -0.009566893 -0.009558698 -0.009551249 -0.009544193
 -0.009536479 -0.009528762 -0.009521402 -0.009513637 -0.009505495 -0.009495419 -0.009483054 -0.0094677 -0.009449193 -0.009427561
 -0.009402793 -0.009374818 -0.009343701 -0.0093112 -0.00927765 -0.00924673 -0.009218539 -0.009195683 -0.009177578 -0.009164042
 -0.009154146 -0.00914611 -0.009138966 -0.009130649 -0.009120626 -0.009107394 -0.009091686 -0.009073431 -0.009053748 -0.009033493
 -0.009011858 -0.008988952 -0.008963023 -0.008933292 -0.00890146 -0.008867327 -0.008835776 -0.008807254 -0.008782888 -0.0087626
 -0.008742269 -0.008721828 -0.008698565 -0.008673411 -0.00864933 -0.008627185 -0.008611737 -0.008601696 -0.008597431 -0.00859568
 -0.008592057 -0.008584134 -0.008566839 -0.008542742 -0.00851076 -0.008478033 -0.008447593 -0.0084243 -0.008411678 -0.008405272
 -0.008405486 -0.008403389 -0.008397508 -0.008385021 -0.008365305 -0.008343783 -0.008320707 -0.008301247 -0.008284957 -0.008269842
 -0.008254962 -0.008234359 -0.008208331 -0.008174115 -0.008133772 -0.008089961 -0.008045042 -0.008003731 -0.00796678 -0.007937089
 -0.007913194 -0.00789549 -0.007880721 -0.007867776 -0.007853104 -0.007834994 -0.007812987 -0.007785958 -0.007758784 -0.007731732
 -0.007710972 -0.00769719 -0.007691157 -0.007692808 -0.00769676 -0.007702596 -0.007704141 -0.00770138 -0.007690915 -0.007673172
 -0.007647195 -0.007614531 -0.007577427 -0.007538476 -0.007502837 -0.007470943 -0.007446451 -0.007424765 -0.00740416 -0.007379689
 -0.00734734 -0.007309084 -0.007263648 -0.007218577 -0.007175606 -0.007138252 -0.007107913 -0.007079951 -0.007054141 -0.007025584
 -0.006994143 -0.006962798 -0.006932135 -0.006910005 -0.006895719 -0.006890723 -0.006892025 -0.006890757 -0.006884754 -0.006863917
 -0.006830529 -0.006782707 -0.006725803 -0.006664704 -0.006603235 -0.006545763 -0.006493723 -0.00644869 -0.006411869 -0.006384255
 -0.006365183 -0.006355542 -0.006349273 -0.006345877 -0.006338488 -0.006326177 -0.006309666 -0.006289039 -0.006271923 -0.006258336
 -0.006251629 -0.006250321 -0.006248067 -0.006243803 -0.006229814 -0.006208018 -0.006178356 -0.006144245 -0.006111555 -0.006080658
 -0.006055012 -0.006031393 -0.006008426 -0.005983807 -0.005955189 -0.005924674 -0.005892122 -0.00586119 -0.005833126 -0.00580778
 -0.005785686 -0.005762855 -0.005738921 -0.005711782 -0.005681355 -0.005651103 -0.00562146 -0.005598724 -0.005582857 -0.005577255
 -0.005580817 -0.00559213 -0.005609121 -0.00562693 -0.005642928 -0.005650956 -0.005649323 -0.005632972 -0.005604194 -0.005561762
 -0.005512583 -0.005459237 -0.005409067 -0.00536572 -0.005331098 -0.005307035 -0.005289564 -0.005278868 -0.005267365 -0.005254539
 -0.005232315 -0.00520025 -0.005154964 -0.005097061 -0.005032606 -0.004963197 -0.004901288 -0.004847365 -0.004810426 -0.004788344
 -0.004781155 -0.004785512 -0.004796418 -0.004810669 -0.004822989 -0.004831047 -0.004830998 -0.004823242 -0.004806307 -0.004783781
 -0.004756709 -0.004727433 -0.004697294 -0.004664002 -0.004627303 -0.004585695 -0.004538602 -0.004491496 -0.004444655 -0.004405181
 -0.004372905 -0.004347422 -0.004327799 -0.004307945 -0.004287978 -0.004264989 -0.004239891 -0.004213879 -0.004186467 -0.004157201
 -0.004126047 -0.004091384 -0.004057713 -0.00402729 -0.004005997 -0.003999201 -0.004004203 -0.004023633 -0.004043347 -0.00406081
 -0.004062974 -0.004046206 -0.004011782 -0.003958636 -0.003900966 -0.003839514 -0.00378818 -0.00374694 -0.003718566 -0.003701528
 -0.003687949 -0.003676483 -0.00365746 -0.003631925 -0.003596611 -0.00355545 -0.003513165 -0.003473808 -0.003444833 -0.003425705
 -0.003419932 -0.003421033 -0.003427085 -0.00343051 -0.003427348 -0.003415979 -0.003393773 -0.003369209 -0.003343175 -0.003323402
 -0.003311376 -0.003303205 -0.003298749 -0.003292797 -0.003285499 -0.003278591 -0.003272412 -0.003270797 -0.003272252 -0.003273585
 -0.003272343 -0.003259923 -0.003237209 -0.003200431 -0.00315503 -0.00310578 -0.003057542 -0.003017013 -0.00298298 -0.002957279
 -0.002935317 -0.002914991 -0.002896276 -0.002877799 -0.002865707 -0.002861158 -0.002866501 -0.002882832 -0.002901707 -0.00292273
 -0.00293446 -0.002936881 -0.002928469 -0.002910475 -0.002890921 -0.002869902 -0.002852742 -0.002837127 -0.002819564 -0.002798822
 -0.00276937 -0.002735868 -0.002700778 -0.002671157 -0.002655819 -0.002652213 -0.002664111 -0.002677607 -0.002687838 -0.002685875
 -0.002666218 -0.002636326 -0.002595683 -0.002558562 -0.002526931 -0.002504651 -0.002492247 -0.002481382 -0.002471717 -0.002456746
 -0.002436899 -0.002412392 -0.002383237 -0.002349303 -0.002310821 -0.002266968 -0.002221283 -0.002179122 -0.002144818 -0.002127311
 -0.002124712 -0.002140533 -0.002165243 -0.002194809 -0.002220091 -0.002235426 -0.002240188 -0.002232112 -0.002217656 -0.002197555
 -0.002177316 -0.00215789 -0.00213954 -0.002122385 -0.002103997 -0.002084401 -0.002064147 -0.002043627 -0.002026205 -0.002011682
 -0.002001246 -0.001993963 -0.001987692 -0.001982377 -0.00197673 -0.001971527 -0.001967698 -0.001964478 -0.001961848 -0.001958031
 -0.001951605 -0.001942723 -0.001931302 -0.001916986 -0.001900543 -0.001876816 -0.001844541 -0.001802672 -0.001749715 -0.001699641
 -0.001653088 -0.001629648 -0.001629444 -0.001653021 -0.001697292 -0.001739147 -0.001776232 -0.001784475 -0.001767888 -0.001723402
 -0.001659686 -0.001591791 -0.001524829 -0.001473475 -0.001433809 -0.001408697 -0.001389305 -0.001369999 -0.001348196 -0.001318847
 -0.001292716 -0.001271059 -0.001266953 -0.001285003 -0.001320446 -0.001375139 -0.001423083 -0.001462706 -0.001470433 -0.001446168
 -0.001394138 -0.001317479 -0.001243545 -0.001173118 -0.001126104 -0.001096689 -0.00107923 -0.001067481 -0.00104422 -0.001013404
 -0.0009700728 -0.0009284636 -0.0009006289 -0.0008945234 -0.0009223055 -0.0009738604 -0.001049821 -0.001132224 -0.001215154 -0.001290727
 -0.001355694 -0.001412029 -0.001459798 -0.001499028 -0.001529816 -0.001549132 -0.001556929</values></Ydata></AB><ScSm><Ydata ylabel="Single channel"><values byteorder="INTEL" format="FLOAT32" numvalues="1814"> 0.07707366 0.07717533 0.07729717 0.07743883 0.07758947 0.07773536 0.07786661 0.07798079 0.07808125 0.0781708
 0.07825279 0.07834023 0.07845273 0.07859777 0.07875968 0.07890978 0.0790254 0.07910807 0.07918799 0.07929729
 0.07942842 0.07952829 0.07954767 0.07949479 0.07943283 0.0794223 0.07948001 0.07960834 0.07983178 0.08013907
 0.08040135 0.08045375 0.08029962 0.08014222 0.08016106 0.08033291 0.0805109 0.08058837 0.08054191 0.08042007
 0.0803666 0.08057521 0.0811137 0.0817797 0.08216363 0.08188595 0.08085012 0.07938024 0.07814398 0.07780306
 0.07853516 0.07983625 0.08089878 0.08126193 0.0810591 0.08067383 0.08033973 0.08013569 0.08016224 0.08052243
 0.08115596 0.08177407 0.08197238 0.0814956 0.08052582 0.07965122 0.07938573 0.07976963 0.0805492 0.08148438
 0.08212061 0.08156043 0.07925898 0.07622932 0.07472539 0.07615924 0.07962266 0.08283105 0.084203 0.08369665
 0.082147 0.08052891 0.07970109 0.08011473 0.08151963 0.08321254 0.08459488 0.08533476 0.08522334 0.08427255
 0.08290742 0.08178453 0.08142744 0.08207707 0.0835941 0.08530971 0.08629254 0.08608262 0.0850357 0.08386157
 0.08310175 0.08310476 0.08405313 0.08574659 0.08761956 0.08915932 0.09017329 0.09067816 0.09077427 0.09062324
 0.09036763 0.09011094 0.09002852 0.09027863 0.09069206 0.09080524 0.09037672 0.08971551 0.08936918 0.08955925
 0.08999109 0.09021071 0.09005566 0.08957073 0.08854571 0.08661708 0.08401191 0.08166613 0.0803111 0.07996088
 0.08050483 0.08201621 0.08403231 0.08533565 0.08517799 0.08428878 0.08408649 0.08514486 0.08683188 0.08823039
 0.08902939 0.08957405 0.09032565 0.09134015 0.09213992 0.09206934 0.0909661 0.08957557 0.08905567 0.08985743
 0.09128575 0.09235145 0.09280863 0.09312117 0.09364223 0.09410027 0.09383738 0.09251654 0.09070943 0.08969211
 0.0903926 0.0924731 0.09450886 0.09506355 0.09370825 0.09125349 0.08907248 0.08811516 0.08853887 0.09010138
 0.0924986 0.09521566 0.09744722 0.09850669 0.09830092 0.09731068 0.09606668 0.09465385 0.09290252 0.09116382
 0.0905137 0.09174617 0.09435391 0.09693286 0.09847845 0.09894285 0.09866469 0.09768921 0.09585738 0.09350745
 0.09178954 0.09181285 0.09338075 0.09504049 0.09562782 0.09535749 0.09515941 0.0954106 0.0957299 0.0957566
 0.09568828 0.09599942 0.0968349 0.09782454 0.09847458 0.09862185 0.09847058 0.09830281 0.09821036 0.0980412
 0.0976329 0.09717341 0.09718835 0.09798846 0.09925264 0.1003508 0.1009661 0.1012229 0.1013047 0.1011429
 0.1005356 0.09954295 0.09867731 0.09853904 0.09923392 0.1002947 0.1011784 0.1016692 0.1018242 0.1017728
 0.1016312 0.1014713 0.1013303 0.1012846 0.1014401 0.1017882 0.1021639 0.1024071 0.1024935 0.1024757
 0.1023776 0.1021962 0.1019679 0.1017884 0.1017525 0.1018782 0.102103 0.1023477 0.1025501 0.1026537
 0.1026268 0.1025055 0.1023703 0.1022727 0.1022164 0.1022026 0.1022505 0.1023616 0.1024955 0.102599
 0.1026492 0.1026565 0.1026355 0.1025907 0.1025299 0.102476 0.1024593 0.1024974 0.1025773 0.1026633
 0.1027386 0.1028276 0.1029489 0.1030617 0.1031009 0.1030586 0.1029951 0.1029736 0.1030104 0.1030825
 0.1031561 0.1031992 0.1031845 0.1031073 0.1030098 0.1029711 0.1030475 0.1032305 0.1034725 0.1037269
 0.1039518 0.1041124 0.1042097 0.1042816 0.1043585 0.1044344 0.1044925 0.1045396 0.10461 0.104739
 0.1049288 0.1051408 0.1053277 0.1054678 0.1055658 0.1056456 0.1057464 0.1058905 0.1060424 0.1061388
 0.1061703 0.1062013 0.1062912 0.106426 0.1065424 0.1066032 0.1066318 0.1066771 0.1067614 0.1068674
 0.1069686 0.1070604 0.1071604 0.1072806 0.107401 0.1074747 0.1074729 0.1074217 0.1073782 0.1073727
 0.1073947 0.1074316 0.1074902 0.107573 0.1076548 0.1076994 0.1076983 0.1076801 0.1076787 0.1076952
 0.1076985 0.1076644 0.1076012 0.1075378 0.1074957 0.1074758 0.1074633 0.1074388 0.1073902 0.1073183
 0.1072318 0.1071397 0.107046 0.1069558 0.1068869 0.1068652 0.1068902 0.1069085 0.1068458 0.1066766
 0.1064521 0.1062509 0.1061112 0.1060128 0.1059097 0.1057731 0.1056073 0.1054357 0.1052772 0.1051355
 0.1050041 0.1048766 0.1047565 0.1046623 0.1046115 0.1045914 0.1045558 0.1044662 0.1043301 0.1041893
 0.1040771 0.1039997 0.1039471 0.103906 0.1038683 0.1038401 0.1038335 0.1038427 0.1038431 0.1038212
 0.1037943 0.1037929 0.1038368 0.1039274 0.104045 0.1041493 0.1042069 0.104226 0.1042513 0.1043181
 0.1044237 0.1045455 0.1046705 0.1048015 0.1049444 0.1051021 0.1052756 0.1054671 0.1056797 0.105912
 0.1061534 0.1063882 0.1066104 0.1068321 0.1070745 0.1073487 0.1076475 0.1079529 0.1082511 0.10854
 0.1088269 0.1091175 0.1094108 0.109707 0.1100149 0.1103445 0.1106917 0.1110404 0.1113776 0.111704
 0.1120284 0.1123576 0.1126934 0.1130382 0.1134007 0.1137897 0.1141959 0.1145851 0.1149248 0.1152176
 0.1155017 0.1158167 0.1161735 0.1165508 0.1169106 0.1172253 0.1175015 0.1177763 0.1180787 0.1184015
 0.1187207 0.119037 0.1193791 0.1197643 0.1201649 0.1205262 0.1208162 0.1210562 0.1212966 0.1215644
 0.1218411 0.1220942 0.1223202 0.1225444 0.1227863 0.123044 0.1233126 0.1236001 0.1239105 0.1242237
 0.1245102 0.1247618 0.124996 0.1252286 0.1254546 0.1256531 0.1258094 0.1259327 0.1260547 0.1262029
 0.1263748 0.1265466 0.1267082 0.1268742 0.1270607 0.1272674 0.127491 0.1277384 0.128012 0.1282945
 0.1285654 0.1288324 0.1291252 0.1294508 0.1297715 0.1300445 0.1302686 0.1304767 0.1306919 0.1309166
 0.1311557 0.1314265 0.1317374 0.1320737 0.1324091 0.1327276 0.1330364 0.1333605 0.1337149 0.1340773
 0.1343999 0.1346558 0.1348667 0.1350813 0.1353351 0.1356317 0.1359521 0.1362731 0.1365794 0.1368602
 0.1370981 0.1372729 0.1373852 0.1374635 0.1375324 0.137578 0.1375555 0.1374293 0.1371908 0.1368397
 0.1363652 0.1357597 0.1350475 0.134297 0.133606 0.1330722 0.1327687 0.1327342 0.1329728 0.1334491
 0.1340865 0.1347797 0.1354221 0.1359237 0.1362138 0.1362437 0.1360004 0.1355132 0.1348399 0.1340458
 0.1331907 0.1323221 0.1314744 0.1306882 0.1300448 0.1296744 0.1297174 0.1302684 0.1313427 0.1328641
 0.1346665 0.1365289 0.1382554 0.1397479 0.1410132 0.1421087 0.1430871 0.1439831 0.1448216 0.1456195
 0.1463821 0.1471081 0.1477975 0.1484494 0.1490553 0.1495992 0.1500645 0.1504372 0.1507091 0.1508864
 0.1509908 0.1510476 0.1510766 0.1510942 0.1511087 0.1511016 0.1510208 0.1508066 0.1504306 0.1499173
 0.1493456 0.1488474 0.1485989 0.148782 0.1495083 0.1507478 0.1523274 0.1540133 0.1556087 0.1569957
 0.1581267 0.1590102 0.1596999 0.1602682 0.1607717 0.161238 0.161676 0.1620886 0.1624801 0.162858
 0.16323 0.1636008 0.1639733 0.1643506 0.1647316 0.1651087 0.1654743 0.1658311 0.1661927 0.1665704
 0.16696 0.1673447 0.1677139 0.1680767 0.1684497 0.1688329 0.1692092 0.1695656 0.1699072 0.1702493
 0.1706043 0.1709742 0.1713477 0.1717059 0.1720379 0.1723512 0.1726615 0.1729762 0.1732923 0.1736067
 0.1739197 0.1742309 0.1745373 0.1748384 0.1751386 0.1754415 0.175743 0.1760327 0.1763045 0.1765639
 0.1768235 0.1770908 0.1773627 0.1776327 0.1779004 0.1781726 0.1784557 0.1787489 0.1790439 0.1793304
 0.1796036 0.1798663 0.1801267 0.1803926 0.1806657 0.180942 0.1812155 0.1814826 0.1817443 0.1820049
 0.1822689 0.1825367 0.1828055 0.183074 0.1833431 0.1836115 0.1838747 0.1841302 0.1843825 0.1846396
 0.1849053 0.1851757 0.1854424 0.1856999 0.1859495 0.186196 0.1864421 0.186688 0.186935 0.1871851
 0.1874383 0.1876928 0.1879465 0.1881991 0.1884516 0.188705 0.1889582 0.1892093 0.1894582 0.1897073
 0.1899581 0.1902114 0.1904675 0.1907244 0.1909772 0.1912243 0.1914694 0.1917175 0.1919701 0.1922252
 0.1924792 0.1927292 0.1929753 0.1932191 0.1934616 0.1937044 0.1939503 0.1941999 0.1944493 0.1946963
 0.1949425 0.19519 0.1954378 0.1956845 0.1959311 0.1961802 0.1964328 0.1966861 0.1969362 0.1971835
 0.197432 0.1976829 0.1979323 0.1981788 0.1984262 0.1986785 0.1989352 0.1991928 0.1994471 0.199696
 0.1999402 0.2001828 0.2004271 0.2006762 0.2009305 0.201186 0.2014394 0.2016929 0.2019494 0.2022078
 0.2024666 0.2027278 0.2029922 0.203257 0.2035191 0.2037776 0.2040327 0.2042874 0.2045472 0.2048145
 0.2050868 0.2053606 0.2056324 0.2058974 0.2061523 0.2063978 0.2066357 0.2068683 0.2070991 0.2073305
 0.2075631 0.2077982 0.2080382 0.2082823 0.2085304 0.2087859 0.2090486 0.2093098 0.209563 0.2098111
 0.2100601 0.2103143 0.2105769 0.2108468 0.211118 0.2113864 0.2116531 0.2119186 0.2121837 0.2124527
 0.212727 0.2130024 0.2132763 0.2135501 0.2138222 0.2140904 0.2143593 0.214633 0.2149092 0.2151863
 0.2154672 0.2157502 0.2160295 0.2163044 0.2165791 0.2168562 0.2171391 0.2174287 0.2177178 0.2179985
 0.2182727 0.2185448 0.2188154 0.2190888 0.2193711 0.2196605 0.2199515 0.2202443 0.2205386 0.2208281
 0.2211112 0.221391 0.2216658 0.2219352 0.2222074 0.2224857 0.222762 0.2230326 0.2232992 0.223554
 0.2237768 0.2239195 0.223848 0.2232739 0.2217153 0.2185049 0.2129185 0.2044569 0.19314 0.1795995
 0.164912 0.1502667 0.1366369 0.1246374 0.1145929 0.1066672 0.100959 0.09758306 0.0967307 0.09875414
 0.1042855 0.1138625 0.1265442 0.1387132 0.1454291 0.1441688 0.1371151 0.1291776 0.123996 0.1221548
 0.1224243 0.123593 0.1251842 0.1273143 0.1302727 0.1340936 0.1385168 0.1434069 0.1489972 0.1555262
 0.1627716 0.1701305 0.1771236 0.1837005 0.1900651 0.1963079 0.202264 0.2076702 0.2123669 0.2163524
 0.2197313 0.2226497 0.2252378 0.2275824 0.2297417 0.2317489 0.2335684 0.23508 0.2361517 0.2367458
 0.2369648 0.2370016 0.237033 0.237144 0.2373429 0.2376194 0.2379688 0.2383835 0.2388551 0.2393764
 0.2399312 0.2404957 0.2410548 0.2416016 0.2421279 0.242628 0.2431039 0.2435584 0.2439919 0.2444079
 0.2448091 0.2451927 0.2455582 0.2459133 0.2462647 0.2466152 0.2469696 0.2473283 0.2476794 0.2480064
 0.2483023 0.2485725 0.2488311 0.2490919 0.2493569 0.2496158 0.2498625 0.2501032 0.2503459 0.2505918
 0.2508401 0.2510896 0.2513379 0.2515839 0.2518277 0.252066 0.2522956 0.2525199 0.2527451 0.2529736
 0.2532064 0.2534456 0.2536895 0.2539338 0.2541751 0.2544117 0.2546445 0.2548807 0.2551294 0.2553903
 0.2556566 0.2559246 0.2561944 0.2564645 0.256734 0.257005 0.2572768 0.2575467 0.257817 0.2580928
 0.2583683 0.2586272 0.2588577 0.2590641 0.259266 0.2594828 0.2597195 0.2599668 0.260215 0.2604619
 0.2607075 0.2609502 0.2611892 0.261426 0.2616644 0.261913 0.2621796 0.2624619 0.2627493 0.2630362
 0.2633237 0.263611 0.2638954 0.2641784 0.2644618 0.2647406 0.2650086 0.2652705 0.2655451 0.2658522
 0.2661925 0.2665411 0.2668702 0.2671767 0.2674803 0.2677985 0.268133 0.2684688 0.2687748 0.2690235
 0.2692306 0.269461 0.2697724 0.2701614 0.2705752 0.2709652 0.2713187 0.2716479 0.2719643 0.2722665
 0.2725446 0.2727926 0.2730244 0.2732779 0.2735915 0.2739629 0.274346 0.2746988 0.2750174 0.2753184
 0.2756124 0.2759036 0.2761804 0.276399 0.2765243 0.2766098 0.2767892 0.2771526 0.277649 0.2781414
 0.2785438 0.2788735 0.2791819 0.279485 0.2797734 0.2800236 0.2801643 0.2801115 0.2799214 0.2798476
 0.2801346 0.2807712 0.2815169 0.2821467 0.2826001 0.2829324 0.283214 0.2834827 0.2837207 0.283857
 0.2838432 0.2837649 0.2838309 0.2841842 0.284741 0.2852806 0.2856766 0.2859694 0.286246 0.2865406
 0.2868154 0.2869407 0.2867516 0.2862739 0.2858754 0.2860273 0.286848 0.2879673 0.288895 0.289456
 0.2897944 0.2900351 0.2901006 0.2898611 0.2892977 0.288509 0.287758 0.2875163 0.2881531 0.289459
 0.2907335 0.2914881 0.291867 0.2922887 0.2929047 0.2935373 0.2939689 0.2941367 0.2940964 0.293893
 0.2935381 0.2931585 0.2930828 0.2936086 0.2946573 0.2957915 0.2966261 0.2971346 0.2974759 0.2975433
 0.2968431 0.2950799 0.2929257 0.2918515 0.2928183 0.2952685 0.2977334 0.2992853 0.3000441 0.3004913
 0.3008404 0.3009793 0.3004558 0.2986239 0.2955231 0.2926556 0.2920771 0.2943697 0.2979895 0.3007645
 0.3015549 0.300485 0.2983894 0.296428 0.295678 0.2965499 0.2986119 0.3010294 0.3030658 0.3042887
 0.3046059 0.3042223 0.303551 0.3030975 0.3031439 0.3033242 0.3028552 0.3015518 0.3001869 0.2993037
 0.2982207 0.2961477 0.2939509 0.293615 0.2957871 0.2988387 0.3007538 0.3011922 0.3011221 0.3008691
 0.2993248 0.2954059 0.2900595 0.2862378 0.2863723 0.2899431 0.2939914 0.2960281 0.2960058 0.2954698
 0.295387 0.2951251 0.2933967 0.2900799 0.2869264 0.2859935 0.2873383 0.2889326 0.2889099 0.2868806
 0.2829524 0.2772503 0.2714495 0.2691008 0.272501 0.2798339 0.2867703 0.2902015 0.2892173 0.2838294
 0.2752911 0.2674306 0.2649272 0.2689976 0.275974 0.2808518 0.2812319 0.2774227 0.270403 0.261395
 0.2529191 0.2484777 0.2503223 0.2576417 0.2667207 0.2725473 0.271367 0.263685 0.2550202 0.2517541
 0.2551343 0.260449 0.2625722 0.2607919 0.2577537 0.2558544 0.2559161 0.2576336 0.2599247 0.2617821
 0.2630495 0.2630123 0.2589771 0.2492502 0.2375869 0.2312033 0.2333346 0.2406328 0.2486369 0.2562652
 0.2633159 0.267246 0.2658794 0.2617146 0.2603271 0.2644167 0.271236 0.2760998 0.2771425 0.276077
 0.2750813 0.2741982 0.2724209 0.2705091 0.271028 0.2751533 0.2808299 0.2849999 0.2866694 0.2869163
 0.2868415 0.2866409 0.2861707 0.2854024 0.2843811 0.2832434 0.2822078 0.2813326 0.2804707 0.2795572
 0.2785377 0.2767378 0.2729112 0.2668583 0.2608163 0.2579134 0.2588804 0.2615925 0.2641268 0.2661526
 0.2663715 0.2614719 0.2504536 0.2384992 0.23341 0.2380697 0.2481506 0.2569726 0.260783 0.2592242
 0.2530772 0.2438969 0.2355907 0.233738 0.2412944 0.2555045 0.2703842 0.2817854 0.2889707 0.2922881
 0.2915787 0.2873644 0.2821792 0.2795648 0.2816426 0.2877252 0.2948449 0.2991296 0.2974836 0.2901361
 0.2823388 0.2811918 0.2885983 0.2987342 0.3044761 0.3048652 0.3040688 0.3047645 0.3058439 0.3060757
 0.3066778 0.3092622 0.3131847 0.3160838 0.3160006 0.3122013 0.30516 0.2971295 0.2917879 0.2913295
 0.294044 0.2962818 0.2962015 0.2938032 0.2886328 0.2807801 0.2737533 0.2725971 0.2781584 0.285803
 0.2906985 0.2923159 0.2929312 0.2935321 0.2926532 0.2888257 0.2831788 0.2789531 0.2783207 0.2803324
 0.2824752 0.2833903 0.2830891 0.281388 0.2779159 0.2737842 0.2717282 0.2736864 0.2787396 0.2840185
 0.2873476 0.2885746 0.2887302 0.2886996 0.2887447 0.2886713 0.288272 0.2879472 0.288739 0.2912083
 0.2944439 0.2968884 0.2981363 0.2992685 0.3013312 0.3040554 0.3062741 0.3072225 0.3072203 0.3072791
 0.3081966 0.3099027 0.3115258 0.3121585 0.3117455 0.3112462 0.3117701 0.313522 0.3157238 0.3175126
 0.3186638 0.3194687 0.3202456 0.3210709 0.3217421 0.3219422 0.3216551 0.3214307 0.3219824 0.3234496
 0.325236 0.3266167 0.3273365 0.327587 0.3276003 0.3274207 0.3270131 0.3264501 0.3259263 0.325609
 0.3255169 0.3255498 0.3255999 0.325614 0.3255901 0.3255628 0.325583 0.3256796 0.3258405 0.3260396
 0.3262569 0.3264582 0.3265954 0.3266559 0.3266802 0.3267014 0.3266855 0.3265564 0.3262518 0.325735
 0.3249693 0.3239145 0.3225394 0.3208154 0.3187193 0.3163214 0.3139453 0.3122085 0.3117735 0.3129264
 0.3153428 0.3182662 0.3209406 0.3229426 0.324223 0.3249427 0.3252979 0.3254349 0.3254354 0.3253289
 0.3251213 0.3248261 0.3244722 0.3240903 0.3237061 0.3233456 0.3230305 0.3227617 0.3225137 0.3222455
 0.3219209 0.3215242 0.3210596 0.3205376 0.3199601 0.3193157 0.3185817 0.317737 0.3167846 0.3157637
 0.3147361 0.3137522 0.3128234 0.3119224 0.3110078 0.3100414 0.3089703 0.3077163 0.3062483 0.3046841
 0.3032596 0.3021385 0.301268 0.3004493 0.2995194 0.2984351 0.2972239 0.2959198 0.2945518 0.2931471
 0.29172 0.2902609 0.2887407 0.2871286 0.2854117 0.2835999 0.2817116 0.2797607 0.2777601 0.2757233
 0.2736381 0.2714322 0.2689706 0.2660927 0.2626582 0.2585753 0.2538163 0.2484391 0.242602 0.2365383
 0.2304941 0.2246767 0.2192474 0.2143417 0.2100792 0.2065585 0.2038511 0.2020009 0.2010288 0.2009365
 0.2017082 0.2033035 0.2056464 0.2086159 0.2120501 0.2157597 0.2195412 0.2231981 0.2265862 0.2296661
 0.232498 0.2351597 0.237667 0.2399769 0.2420471 0.2438695 0.2454529 0.2468013 0.2479205 0.2488327
 0.2495783 0.2502029 0.2507421 0.2512117 0.251607 0.2519158 0.2521363 0.2522895 0.2524155 0.2525584
 0.2527496 0.2530016 0.2533151 0.2536928 0.2541466 0.2546908 0.2553315 0.2560592 0.2568495 0.2576756
 0.2585291 0.2594298 0.2604157 0.2615247 0.2627828 0.2642014 0.2657757 0.2674757 0.2692326 0.2709374
 0.2724691 0.2737354 0.2746971 0.2753612 0.275757 0.2759135 0.275854 0.2756032 0.2751914 0.274646
 0.2739864 0.273232 0.2724055 0.2715229 0.2705875 0.2695986 0.2685664 0.2675149 0.2664709 0.2654501
 0.264456 0.2634897 0.2625538 0.2616454 0.2607542 0.2598742 0.2590104 0.2581751 0.2573822 0.2566391
 0.2559378 0.2552529 0.2545461 0.2537696 0.2528729 0.2518186 0.2505933 0.2492012 0.2476558 0.245977
 0.2441844 0.242291 0.2403066 0.2382418 0.2361037 0.2338917 0.2315968 0.2292048 0.2267219 0.2242081
 0.2217696 0.2194975 0.2174187 0.2155054 0.2137175 0.2120308 0.2104373 0.208927 0.2074785 0.2060738
 0.2047153 0.203417 0.2021889 0.2010365 0.1999649 0.1989812 0.1980998 0.1973376 0.1966937 0.1961447
 0.1956676 0.1952566 0.1949223 0.1946949 0.1946114 0.1946687 0.1947935 0.194884 0.1948798 0.1947907
 0.1946718 0.1945769 0.1945259 0.1945105 0.1945127 0.1944934 0.194371 0.194036 0.1933866 0.1923474
 0.190886 0.1890348 0.186887 0.1845743 0.182257 0.1801068 0.1782581 0.1767729 0.1756449 0.1748113
 0.1741735 0.173654 0.1732501 0.1730301 0.1730734 0.1733834 0.1738223 0.174174 0.174337 0.1744386
 0.1747184 0.1753222 0.1762199 0.1772643 0.1782921 0.1791963 0.1799343 0.1804943 0.1808843 0.1811426
 0.181308 0.1813807 0.1813406 0.1811822 0.180911 0.1805376 0.1800818 0.1795482 0.1789107 0.1781516
 0.1772864 0.1763322 0.1752932 0.1741725 0.1729468 0.1715681 0.1700713 0.1686639 0.1676545 0.1672832
 0.1675963 0.1684273 0.1695174 0.1706872 0.1718577 0.1729282 0.1737803 0.1744668 0.1752966 0.1766329
 0.178592 0.1809226 0.1831721 0.1849802 0.1862112 0.18686 0.1869549 0.1865543 0.1857052 0.1843978
 0.1826481 0.1805703 0.1783036 0.1759677 0.1737163 0.1716966 0.1699643 0.1685271 0.1673817 0.166519
 0.1660035 0.1655732 0.1636657 0.1579551 0.1486432 0.1406094 0.1397346 0.1465681 0.1555775 0.1610965
 0.1621412 0.1610702 0.1598471 0.1588968 0.1581551 0.1577067 0.157613 0.1577677 0.1579487 0.1579301
 0.1576237 0.1570524 0.1560853 0.1542071 0.1505246 0.1440901 0.1345971 0.1230191 0.1114033 0.1017875
 0.09518957 0.09139423 0.0894004 0.08812052 0.08700188 0.08621006 0.08625723 0.08747999 0.08985519 0.09316164
 0.09713888 0.1014512 0.1056316 0.1092314 0.1120601 0.1141937 0.1157534 0.1167759 0.117284 0.1173505
 0.117061 0.1164884 0.115703 0.1147418 0.1135784 0.1121808 0.1106203 0.1091102 0.1079097 0.1071529
 0.1067696 0.1065905 0.1065009 0.106472 0.1065021 0.1065879 0.1067264 0.1069127 0.1071484 0.1074444
 0.1077899 0.1081291 0.1083975 0.1085672 0.1086466 0.1086477 0.1085512 0.1083143 0.1079458 0.1075371
 0.1071356 0.1066045 0.1057263 0.1044845 0.1031834 0.1022593 0.1019786 0.102275 0.1028291 0.1033092
 0.1035739 0.1036821 0.1037392 0.103745</values></Ydata></ScSm><ScRf><Ydata ylabel="Single channel"><values byteorder="INTEL" format="FLOAT32" numvalues="1820"> 0.0696616 0.06979661 0.06991839 0.07002049 0.07010621 0.07018982 0.07028824 0.07040928 0.07054763 0.07068925
 0.07081986 0.0709338 0.07103381 0.07112128 0.0711959 0.07126899 0.07136397 0.07149358 0.07164286 0.07178023
 0.07188328 0.07195701 0.07203233 0.07213788 0.07226441 0.07236216 0.07238496 0.0723394 0.07228437 0.07227787
 0.07233572 0.07245795 0.0726658 0.07294969 0.07319212 0.07324207 0.07310373 0.07296488 0.07298891 0.07315107
 0.07331464 0.07338243 0.07333508 0.07321906 0.07316773 0.0733592 0.07385451 0.07446638 0.07481922 0.07456782
 0.07362695 0.07229356 0.07117531 0.07087328 0.07154742 0.07273602 0.07370173 0.0740266 0.07383741 0.0734874
 0.07318869 0.07301008 0.07304183 0.07337881 0.07396581 0.07453611 0.07471709 0.07427607 0.07338379 0.07258153
 0.07233995 0.07269534 0.07341508 0.07427762 0.07486466 0.07435525 0.07225415 0.06949012 0.06812225 0.0694371
 0.07260215 0.07553089 0.07678096 0.07631542 0.07489908 0.07342668 0.07268462 0.0730793 0.07437247 0.07591821
 0.0771751 0.07784636 0.07774255 0.0768735 0.07562826 0.07460814 0.07429087 0.07489385 0.07628803 0.07786244
 0.07876626 0.07857787 0.07762107 0.07654572 0.07584976 0.0758533 0.07672173 0.07826978 0.07998031 0.08138667
 0.08231547 0.0827833 0.08288045 0.08275142 0.08252451 0.08229527 0.08222603 0.08246164 0.08284646 0.08295698
 0.08257335 0.08197705 0.08166604 0.08184144 0.08223481 0.08243233 0.08228618 0.0818388 0.08090053 0.07914074
 0.07676681 0.07463297 0.07340588 0.07309647 0.0736023 0.07498921 0.07683343 0.07802312 0.07787807 0.07706891
 0.07689249 0.07787007 0.07942063 0.08070485 0.08143951 0.08194201 0.08263528 0.08357018 0.08430876 0.08425035
 0.08324654 0.08197994 0.08151056 0.08225098 0.08356393 0.08454293 0.08496331 0.08525261 0.08573762 0.08616942
 0.08594102 0.08474013 0.08309288 0.08217374 0.0828336 0.08475669 0.08663079 0.08713867 0.08589177 0.08363916
 0.08164406 0.08077833 0.08118367 0.0826342 0.08484909 0.0873564 0.08941756 0.09040242 0.09022628 0.08933178
 0.0882058 0.08692417 0.08533008 0.08374712 0.08316464 0.08431213 0.08672394 0.08911031 0.09054711 0.09098914
 0.09074757 0.08986361 0.08818993 0.08603969 0.08447628 0.08452129 0.08598679 0.08752924 0.08808041 0.08784629
 0.08768503 0.08793804 0.0882505 0.08829333 0.08825342 0.08856779 0.08936557 0.09030217 0.09092237 0.09107803
 0.09095927 0.09082536 0.09075759 0.09061377 0.0902479 0.08984087 0.08988085 0.0906499 0.09184483 0.0928811
 0.09346761 0.09372254 0.09381764 0.0936894 0.0931477 0.09224576 0.09146081 0.09135489 0.09202732 0.09303904
 0.09388054 0.09435266 0.09451503 0.0944909 0.09438451 0.09425759 0.09414458 0.09412083 0.09428668 0.09463266
 0.09500435 0.09525491 0.09536319 0.09537488 0.09530644 0.09515306 0.09495334 0.09480363 0.09479556 0.09494221
 0.09517924 0.09542973 0.09563795 0.09575461 0.09575005 0.09565501 0.09554432 0.09546973 0.09543821 0.0954506
 0.09552054 0.09564553 0.09578714 0.09589796 0.09595966 0.09598395 0.09598418 0.09596255 0.09592488 0.09589319
 0.09589734 0.09595431 0.09605119 0.09615403 0.09624729 0.09635238 0.09648358 0.09660134 0.09664758 0.09662037
 0.09657939 0.09658022 0.096631 0.09670772 0.09678359 0.09683564 0.09684074 0.09679092 0.09672114 0.09670247
 0.0967868 0.09696673 0.09719896 0.09744283 0.09766364 0.09783211 0.09794673 0.09803617 0.0981228 0.09820116
 0.09825937 0.09830751 0.09837873 0.09850592 0.09869079 0.09889616 0.09907655 0.09921244 0.09931307 0.09940492
 0.09952179 0.09967593 0.09982923 0.09992445 0.09995881 0.09999602 0.1000902 0.1002232 0.1003326 0.1003863
 0.1004114 0.1004566 0.1005414 0.1006467 0.1007462 0.1008364 0.1009372 0.1010628 0.1011921 0.1012743
 0.1012775 0.1012283 0.1011861 0.1011834 0.1012107 0.1012546 0.1013199 0.1014087 0.1014969 0.1015501
 0.1015573 0.1015418 0.1015343 0.1015404 0.1015384 0.1015088 0.1014571 0.1014058 0.1013732 0.1013605
 0.1013544 0.1013376 0.1012999 0.1012419 0.1011702 0.1010912 0.1010085 0.1009287 0.1008719 0.100865
 0.1009075 0.1009451 0.1009018 0.100751 0.1005443 0.1003627 0.1002451 0.1001692 0.1000864 0.09996625
 0.09981252 0.09964962 0.09950069 0.09937394 0.09926327 0.09915929 0.0990639 0.09899376 0.09896127 0.09894735
 0.09890532 0.0988041 0.09866107 0.09852231 0.09841813 0.09834837 0.09830016 0.09826343 0.09823479 0.09821878
 0.09822115 0.09823385 0.09823675 0.09822169 0.09820483 0.09821104 0.09825572 0.09834042 0.0984486 0.09854551
 0.09860224 0.09862724 0.098659 0.09872428 0.09881672 0.09891846 0.09902626 0.09914872 0.09928962 0.09944521
 0.09961352 0.09979795 0.1000011 0.1002191 0.1004424 0.1006617 0.1008751 0.1010908 0.1013229 0.1015808
 0.1018621 0.1021527 0.1024364 0.1027072 0.1029721 0.1032403 0.1035132 0.1037894 0.1040752 0.1043792
 0.1046995 0.1050249 0.105347 0.1056665 0.105986 0.1063054 0.1066233 0.106943 0.1072765 0.1076371
 0.1080189 0.108389 0.1087124 0.1089888 0.1092545 0.1095478 0.1098798 0.1102322 0.1105718 0.1108724
 0.1111366 0.111395 0.1116738 0.1119689 0.1122613 0.1125542 0.1128774 0.1132486 0.1136389 0.1139885
 0.1142604 0.1144741 0.1146827 0.1149176 0.1151645 0.115394 0.1156024 0.1158115 0.1160365 0.1162722
 0.1165131 0.1167682 0.1170444 0.1173259 0.1175853 0.1178107 0.1180125 0.1182041 0.1183851 0.1185423
 0.1186642 0.1187577 0.1188502 0.1189684 0.119112 0.1192594 0.1193985 0.1195406 0.1197011 0.1198822
 0.1200812 0.1203033 0.1205503 0.1208072 0.1210561 0.1213033 0.121575 0.1218766 0.1221716 0.1224174
 0.1226137 0.1227953 0.1229873 0.1231901 0.1234066 0.1236549 0.1239454 0.1242599 0.1245652 0.1248424
 0.1251025 0.1253767 0.125684 0.126004 0.1262902 0.1265154 0.1266979 0.1268815 0.1270989 0.1273553
 0.1276355 0.1279179 0.1281851 0.1284254 0.1286251 0.128771 0.1288656 0.1289324 0.1289904 0.1290265
 0.1290018 0.1288829 0.1286579 0.128324 0.1278734 0.127301 0.1266285 0.1259185 0.1252637 0.1247586
 0.124472 0.124436 0.1246473 0.1250702 0.1256385 0.1262641 0.1268539 0.1273228 0.1275984 0.1276291
 0.1273996 0.1269383 0.1263023 0.1255534 0.1247451 0.1239189 0.1231078 0.1223541 0.1217369 0.1213776
 0.1214046 0.1219058 0.1228982 0.1243116 0.1259863 0.1277094 0.129296 0.1306589 0.1318102 0.1328056
 0.1336946 0.1345091 0.1352731 0.1360027 0.1367011 0.1373627 0.1379836 0.1385653 0.1391065 0.139598
 0.1400234 0.1403643 0.1406107 0.1407695 0.1408622 0.14091 0.1409266 0.1409251 0.1409159 0.1408864
 0.1407902 0.1405722 0.1402057 0.139713 0.1391675 0.1386931 0.1384553 0.1386222 0.1392928 0.1404346
 0.1418854 0.1434296 0.1448871 0.1461515 0.1471802 0.1479812 0.148604 0.1491151 0.1495665 0.149984
 0.1503776 0.1507527 0.1511125 0.1514591 0.1517962 0.1521296 0.1524649 0.1528041 0.153144 0.1534786
 0.1538059 0.1541313 0.1544643 0.1548108 0.1551663 0.1555182 0.1558599 0.1561983 0.1565425 0.156888
 0.15722 0.1575335 0.1578401 0.1581558 0.1584877 0.1588324 0.1591781 0.1595097 0.159818 0.1601064
 0.1603867 0.1606682 0.1609533 0.1612418 0.1615331 0.161824 0.1621086 0.1623843 0.1626553 0.1629291
 0.1632066 0.1634793 0.1637375 0.1639828 0.1642278 0.1644831 0.1647468 0.1650075 0.1652586 0.1655061
 0.1657622 0.166031 0.1663042 0.1665686 0.166819 0.1670595 0.1672977 0.167538 0.167781 0.1680266
 0.1682752 0.1685268 0.1687808 0.1690365 0.1692935 0.169551 0.1698063 0.170058 0.1703072 0.1705561
 0.170804 0.171048 0.1712877 0.1715286 0.171778 0.1720355 0.1722914 0.1725344 0.1727616 0.1729796
 0.1731975 0.1734221 0.1736554 0.1738954 0.1741389 0.1743844 0.1746318 0.1748791 0.1751234 0.1753626
 0.1755975 0.1758304 0.176064 0.1763007 0.176542 0.176789 0.1770409 0.1772926 0.1775377 0.1777752
 0.178009 0.1782434 0.1784798 0.1787171 0.1789522 0.1791821 0.1794078 0.1796354 0.1798706 0.1801135
 0.1803588 0.1806005 0.1808366 0.1810697 0.1813019 0.1815318 0.1817582 0.1819836 0.1822123 0.1824456
 0.1826827 0.1829211 0.1831582 0.1833929 0.1836263 0.1838597 0.1840943 0.184331 0.1845686 0.184804
 0.1850367 0.1852702 0.1855056 0.1857415 0.1859778 0.1862165 0.1864571 0.1866971 0.1869357 0.1871748
 0.1874171 0.1876639 0.1879134 0.188162 0.1884084 0.188653 0.1888951 0.1891356 0.1893794 0.1896304
 0.1898864 0.1901442 0.1904041 0.1906667 0.1909301 0.1911925 0.191452 0.1917043 0.1919459 0.1921759
 0.1923963 0.1926124 0.1928312 0.1930547 0.1932798 0.1935067 0.193739 0.1939749 0.1942081 0.1944386
 0.1946715 0.1949089 0.1951514 0.1954004 0.1956543 0.1959087 0.1961616 0.1964137 0.1966642 0.1969128
 0.1971612 0.197411 0.197664 0.1979239 0.1981892 0.1984532 0.1987145 0.1989779 0.1992437 0.1995068
 0.1997654 0.2000213 0.2002757 0.2005327 0.2007964 0.2010649 0.2013333 0.2016026 0.2018745 0.202148
 0.2024248 0.202707 0.2029879 0.2032584 0.2035199 0.2037798 0.2040429 0.2043133 0.2045925 0.204874
 0.2051521 0.2054297 0.2057086 0.2059817 0.2062462 0.2065066 0.2067658 0.2070261 0.2072918 0.2075614
 0.2078281 0.2080934 0.208361 0.208619 0.208843 0.2089866 0.2089262 0.2083948 0.2069437 0.2039509
 0.1987394 0.1908419 0.1802779 0.1676415 0.1539409 0.1402817 0.1275644 0.1163608 0.1069812 0.09958707
 0.09427138 0.0911359 0.09035552 0.09226044 0.09744337 0.1064039 0.1182549 0.1296126 0.1358681 0.1346793
 0.1280941 0.1206939 0.1158687 0.1141608 0.1144252 0.1155344 0.1170411 0.1190478 0.1218185 0.1253856
 0.1295142 0.1340879 0.1393283 0.1454552 0.152254 0.1591558 0.1657098 0.1718696 0.1778286 0.1836744
 0.1892535 0.1943184 0.1987195 0.2024575 0.2056331 0.2083841 0.2108299 0.2130453 0.2150785 0.2169593
 0.2186609 0.2200804 0.2210982 0.2216762 0.2219053 0.2219633 0.2220153 0.22214 0.2223433 0.2226134
 0.2229461 0.2233379 0.2237847 0.2242819 0.2248136 0.2253564 0.2258945 0.2264214 0.2269322 0.2274239
 0.2278958 0.2283427 0.2287604 0.2291553 0.2295379 0.2299109 0.2302749 0.2306336 0.2309884 0.2313365
 0.2316777 0.2320123 0.2323374 0.2326502 0.2329506 0.2332369 0.2335079 0.2337696 0.2340299 0.2342904
 0.2345478 0.2347994 0.2350441 0.2352835 0.2355226 0.2357632 0.2360029 0.236242 0.2364852 0.2367315
 0.2369751 0.2372147 0.2374536 0.2376922 0.2379283 0.2381623 0.2383969 0.238634 0.238873 0.2391123
 0.2393535 0.2396042 0.239869 0.2401403 0.2404063 0.2406656 0.2409253 0.2411909 0.2414636 0.241742
 0.2420224 0.2423012 0.242579 0.2428554 0.2431234 0.2433746 0.2436069 0.2438255 0.2440401 0.2442615
 0.2444948 0.2447371 0.2449836 0.2452326 0.2454827 0.2457312 0.2459767 0.2462191 0.246461 0.2467106
 0.2469768 0.2472586 0.2475461 0.2478339 0.2481231 0.2484137 0.2487043 0.2489969 0.2492915 0.2495817
 0.2498599 0.2501295 0.2504065 0.2507111 0.2510486 0.251399 0.2517327 0.2520395 0.2523348 0.2526401
 0.2529659 0.2533018 0.2536151 0.2538752 0.2540946 0.2543339 0.2546479 0.255033 0.255439 0.2558202
 0.2561665 0.2564929 0.2568127 0.2571233 0.2574116 0.2576677 0.2579013 0.2581483 0.25845 0.2588128
 0.2591965 0.259557 0.2598832 0.2601858 0.2604744 0.2607563 0.2610257 0.261245 0.2613826 0.2614875
 0.2616839 0.2620543 0.2625479 0.2630333 0.26343 0.2637576 0.2640681 0.2643774 0.2646739 0.264932
 0.2650827 0.2650491 0.264888 0.2648404 0.2651361 0.2657614 0.2664881 0.2671048 0.2675572 0.2678978
 0.2681899 0.2684645 0.2687036 0.2688426 0.2688391 0.2687769 0.2688557 0.2692104 0.2697583 0.2702876
 0.2706804 0.2709787 0.2712666 0.2715734 0.2718589 0.2719969 0.2718313 0.2713906 0.2710287 0.2711945
 0.2719978 0.2730827 0.2739831 0.2745376 0.2748883 0.2751501 0.2752401 0.2750301 0.2745063 0.2737695
 0.2730727 0.2728617 0.2734857 0.2747484 0.2759892 0.2767451 0.2771457 0.2775784 0.2781838 0.2787974
 0.2792178 0.279388 0.2793628 0.2791882 0.2788774 0.2785485 0.2785091 0.279038 0.2800598 0.2811624
 0.2819832 0.2824954 0.2828446 0.282927 0.2822789 0.2806256 0.2786056 0.2776122 0.2785568 0.28091
 0.2832736 0.2847628 0.2854948 0.2859374 0.2862998 0.2864711 0.286011 0.284298 0.2813723 0.2786725
 0.2781618 0.2803919 0.283884 0.2865626 0.2873404 0.2863386 0.2843583 0.2825115 0.2818286 0.282699
 0.2847061 0.2870494 0.2890265 0.290229 0.2905713 0.2902462 0.2896441 0.2892503 0.2893386 0.2895586
 0.2891561 0.2879515 0.2866865 0.2858838 0.2848918 0.2829516 0.2808895 0.2806053 0.2827234 0.285691
 0.2875798 0.2880605 0.2880546 0.2878704 0.2864477 0.282752 0.2776924 0.2740957 0.2742893 0.2777751
 0.2817217 0.2837483 0.2838096 0.2833835 0.2833956 0.2832402 0.281682 0.2786016 0.2756809 0.2748982
 0.2763085 0.2779599 0.2780552 0.2762148 0.2725348 0.2671335 0.2616332 0.2594661 0.2628448 0.2700083
 0.2767764 0.2801536 0.2792644 0.2741171 0.2659188 0.2583695 0.2559952 0.2599746 0.2667643 0.2715278
 0.2719485 0.2683276 0.2616145 0.2529935 0.2449026 0.2407281 0.242645 0.2498644 0.2587858 0.2645531
 0.2635312 0.2562218 0.2479923 0.2450372 0.2485497 0.2539303 0.2561933 0.2546583 0.2519058 0.2502644
 0.2505286 0.2523991 0.2548212 0.2568164 0.258234 0.2583599 0.2545332 0.2450897 0.2337336 0.2275653
 0.2297599 0.2370219 0.2449699 0.2525428 0.2595311 0.2634184 0.2620614 0.2579293 0.2565186 0.2604858
 0.2671213 0.2718101 0.272716 0.2715248 0.2703837 0.2693467 0.2674372 0.2654048 0.2657597 0.2696449
 0.2750433 0.2789674 0.2804568 0.2805739 0.2803919 0.280093 0.2795305 0.278676 0.2775738 0.2763547
 0.2752307 0.2742625 0.2733135 0.2723225 0.27123 0.2693702 0.2655285 0.259519 0.2535287 0.2506043
 0.2514541 0.2540094 0.2564041 0.2583237 0.2585096 0.2537401 0.2430365 0.2314281 0.2264886 0.2310164
 0.2408078 0.2493778 0.2530842 0.2515805 0.2456251 0.2367281 0.2286863 0.226919 0.2342918 0.2481184
 0.2625816 0.273659 0.2806461 0.2838876 0.2832289 0.2791719 0.2741723 0.2716657 0.2737072 0.2796196
 0.2865092 0.2906136 0.288941 0.2817352 0.2741076 0.2729445 0.2800777 0.2898478 0.295352 0.2956745
 0.2948596 0.2954948 0.296499 0.2966841 0.2972422 0.2997438 0.3035651 0.3064124 0.30638 0.3027511
 0.2959834 0.2882614 0.2831528 0.2827875 0.2855073 0.287769 0.2877773 0.2855209 0.2805549 0.2729777
 0.2662119 0.2651612 0.2706385 0.2781334 0.2829526 0.2845871 0.2852488 0.2858948 0.2851033 0.2814538
 0.2760507 0.272045 0.2715474 0.2736384 0.2758815 0.2769597 0.2768802 0.2754496 0.2722876 0.2684655
 0.2666504 0.2687325 0.2737994 0.279023 0.282258 0.2833499 0.2833095 0.2830113 0.2827275 0.2822905
 0.2815217 0.2808328 0.2812572 0.2833536 0.2862395 0.288398 0.2894316 0.2903884 0.2922826 0.29485
 0.296953 0.2978414 0.2978131 0.2978371 0.2986813 0.3002818 0.301805 0.3023822 0.3019667 0.3014889
 0.3020186 0.3037437 0.3058996 0.3076455 0.3087648 0.3095436 0.3102944 0.311093 0.3117422 0.3119349
 0.3116619 0.3114656 0.3120402 0.3135092 0.315276 0.3166276 0.317322 0.3175566 0.3175603 0.3173738
 0.3169635 0.3164048 0.3158898 0.315579 0.3154884 0.3155198 0.3155673 0.3155791 0.3155568 0.3155394
 0.315577 0.3156924 0.3158686 0.3160797 0.3163092 0.3165278 0.3166933 0.316797 0.3168777 0.3169613
 0.3170099 0.3169468 0.3167086 0.3162552 0.3155524 0.3145711 0.3132883 0.3116716 0.3096838 0.3073848
 0.3050935 0.3034196 0.3030099 0.3041381 0.3064891 0.3093391 0.3119665 0.313961 0.3152626 0.3160143
 0.3163998 0.3165602 0.3165776 0.316487 0.3162998 0.3160301 0.3157041 0.3153493 0.3149876 0.314638
 0.314317 0.3140305 0.3137671 0.3134987 0.3131911 0.3128164 0.3123636 0.3118379 0.31125 0.3105989
 0.3098622 0.3090131 0.3080547 0.3070345 0.3060212 0.3050636 0.3041686 0.3033069 0.3024371 0.3015197
 0.3005022 0.2993146 0.2979355 0.2964804 0.2951706 0.294158 0.2933912 0.2926763 0.291846 0.2908488
 0.2897139 0.2884895 0.2872148 0.2859109 0.2845786 0.283204 0.2817656 0.2802372 0.2785996 0.2768564
 0.2750312 0.27315 0.2712328 0.2692911 0.2673085 0.2652113 0.2628675 0.260121 0.2568339 0.2529136
 0.2483331 0.2431529 0.2375289 0.2316848 0.2258588 0.2202557 0.2150336 0.2103194 0.2062242 0.2028423
 0.2002421 0.1984642 0.1975304 0.1974493 0.1982103 0.1997756 0.202074 0.2049952 0.208384 0.2120464
 0.2157698 0.2193591 0.2226852 0.2257222 0.228528 0.2311659 0.2336387 0.2359003 0.2379147 0.2396824
 0.2412163 0.2425166 0.2435822 0.2444348 0.2451238 0.2457048 0.2462156 0.2466648 0.2470383 0.2473218
 0.2475209 0.2476654 0.2477941 0.2479399 0.2481232 0.2483509 0.2486209 0.248933 0.2492988 0.2497382
 0.2502661 0.2508808 0.2515627 0.2522867 0.2530414 0.2538403 0.2547179 0.255716 0.2568681 0.2581879
 0.2596651 0.2612665 0.2629305 0.2645629 0.2660512 0.2672986 0.2682534 0.2689115 0.2692972 0.2694419
 0.2693752 0.2691263 0.2687247 0.2681959 0.2675613 0.2668423 0.2660594 0.2652227 0.264332 0.2633868
 0.2623976 0.2613879 0.2603843 0.2594037 0.2584508 0.2575287 0.2566404 0.255779 0.2549302 0.2540906
 0.2532728 0.2524905 0.2517475 0.2510415 0.2503662 0.2497042 0.2490214 0.24827 0.2474022 0.246385
 0.2452066 0.2438713 0.242392 0.2407842 0.2390597 0.2372264 0.2352951 0.2332811 0.2311969 0.2290456
 0.2268171 0.2244952 0.2220867 0.2196535 0.2172967 0.2150974 0.2130802 0.2112245 0.2094949 0.2078623
 0.2063109 0.2048326 0.2034178 0.202059 0.2007558 0.1995074 0.1983129 0.1971833 0.1961382 0.1951899
 0.1943446 0.1936112 0.1929927 0.1924753 0.1920398 0.1916743 0.1913793 0.1911789 0.1911109 0.1911787
 0.1913175 0.191429 0.1914468 0.1913707 0.1912533 0.1911559 0.1911078 0.1911063 0.1911343 0.1911478
 0.191056 0.1907463 0.1901266 0.1891337 0.1877342 0.185948 0.1838602 0.1816063 0.1793509 0.1772586
 0.1754512 0.1739899 0.1728833 0.1720847 0.1714972 0.1710323 0.1706765 0.1704917 0.1705536 0.1708663
 0.1713023 0.1716583 0.1718338 0.1719443 0.1722222 0.1728206 0.1737204 0.1747752 0.1758134 0.1767243
 0.1774708 0.1780463 0.1784563 0.178733 0.1789141 0.1790052 0.1789893 0.178856 0.1786015 0.1782317
 0.1777698 0.17723 0.1765985 0.1758668 0.1750479 0.1741461 0.1731514 0.172062 0.1708599 0.1695088
 0.1680542 0.166705 0.165757 0.1654305 0.1657596 0.1665813 0.1676499 0.1687991 0.1699591 0.1710321
 0.1718959 0.1725987 0.1734484 0.1748066 0.1767814 0.1791145 0.1813585 0.183165 0.184404 0.1850686
 0.1851876 0.1848189 0.1839994 0.1827063 0.1809573 0.1788881 0.1766575 0.1743832 0.1721973 0.1702268
 0.1685238 0.1671081 0.1659898 0.165163 0.1646814 0.1642722 0.1623816 0.1567123 0.1474773 0.1395202
 0.1386673 0.1454564 0.1544011 0.1598834 0.1609245 0.1598611 0.1586477 0.157718 0.157011 0.1565998
 0.156533 0.1567036 0.1568972 0.1568904 0.1565881 0.1560098 0.1550359 0.1531684 0.1495213 0.1431427
 0.1337216 0.1222297 0.1107041 0.1011632 0.09461008 0.09083284 0.08884872 0.08758512 0.0864882 0.08571263
 0.08576471 0.08698458 0.08935399 0.09265359 0.09662512 0.1009348 0.1051114 0.1086984 0.1115034 0.1136123
 0.1151578 0.1161798 0.1166955 0.1167717 0.1164926 0.1159328 0.1151615 0.1142124 0.1130585 0.1116701
 0.1101193 0.1086177 0.1074242 0.1066742 0.1062985 0.1061289 0.1060556 0.1060507 0.1061011 0.1061872
 0.1063066 0.1064751 0.1067146 0.1070366 0.1074129 0.1077726 0.1080509 0.1082297 0.1083224 0.1083316
 0.1082255 0.1079649 0.1075807 0.1071839 0.1068174 0.1063208 0.1054609 0.1042286 0.1029434 0.1020409
 0.101769 0.1020481 0.1025657 0.1030076 0.1032424 0.1033287 0.1033718 0.1033737 0.1032126 0.1027731
</values></Ydata></ScRf><Data_Parameters_AB><parameter name="DPF">1</parameter><parameter name="NPT">3497</parameter><parameter name="FXV">3996</parameter><parameter name="LXV">500</parameter><parameter name="CSF">1</parameter><parameter name="MXY">-0.00089452340034768</parameter><parameter name="MNY">-0.0413315407931805</parameter><parameter name="DAT">17/01/2024</parameter><parameter name="TIM">12:56:34.203 (GMT+1)</parameter><parameter name="DXU">WN</parameter></Data_Parameters_AB><AB__Qtest><MainReport name="Quality Test Report"><Header><Line><Legend>Test result ok/not ok [1/0]: </Legend><Value>0</Value></Line><Line><Legend>Method file: </Legend><Value>C:\Users\Public\Documents\Bruker\OPUS_8.2.28\QT\IRBT_v3_default.QT</Value></Line></Header><Matrix><Line><Legend></Legend><Legend>min</Legend><Legend>max</Legend><Legend>measured</Legend></Line><Line><Value>Absorption (X-Range 1):</Value><Value>0.400000</Value><Value>2.000000</Value><Value>0.019424</Value></Line><Line><Value>Noise (X-Range 4):</Value><Value></Value><Value>0.000300</Value><Value>0.000016</Value></Line><Line><Value>Signal/Noise (X-Range 2):</Value><Value>200.000000</Value><Value></Value><Value>20.086634</Value></Line><Line><Value>Signal/Noise (X-Range 3):</Value><Value>40.000000</Value><Value></Value><Value>11.539507</Value></Line><Line><Value>Water vapour (X-Range 5):</Value><Value></Value><Value>0.000300</Value><Value>0.000014</Value></Line><Line><Value>Signal/Water (X-Range 2):</Value><Value>100.000000</Value><Value></Value><Value>23.122404</Value></Line><Line><Value>Signal/Water (X-Range 3):</Value><Value>20.000000</Value><Value></Value><Value>13.283516</Value></Line><Line><Value>Fringes (X-Range 6):</Value><Value></Value><Value>0.000100</Value><Value>0.000025</Value></Line></Matrix></MainReport></AB__Qtest><Data_Parameters_ScSm><parameter name="DPF">1</parameter><parameter name="NPT">1814</parameter><parameter name="FXV">3996.63438082617</parameter><parameter name="LXV">499.579297603271</parameter><parameter name="CSF">1</parameter><parameter name="MXY">0.327600300312042</parameter><parameter name="MNY">0.0747253894805908</parameter><parameter name="DAT">17/01/2024</parameter><parameter name="TIM">12:56:34.203 (GMT+1)</parameter><parameter name="DXU">WN</parameter></Data_Parameters_ScSm><Data_Parameters_ScRf><parameter name="DPF">1</parameter><parameter name="NPT">1820</parameter><parameter name="FXV">4004.34989121387</parameter><parameter name="LXV">495.721542409425</parameter><parameter name="CSF">1</parameter><parameter name="MXY">0.317560255527496</parameter><parameter name="MNY">0.0681222453713417</parameter><parameter name="DAT">17/01/2024</parameter><parameter name="TIM">12:56:08.463 (GMT+1)</parameter><parameter name="DXU">WN</parameter></Data_Parameters_ScRf><Optic_Parameters_Rf><parameter name="APR">0</parameter><parameter name="APT">Open</parameter><parameter name="BMS">KBr</parameter><parameter name="DTC">RT-DLaTGS_IR-Biotyper [Microplate reader]</parameter><parameter name="HPF">0</parameter><parameter name="LPF">10.0</parameter><parameter name="LPV">4000</parameter><parameter name="PGR">0</parameter><parameter name="RCH">Module port</parameter><parameter name="RDX">0</parameter><parameter name="SRC">MIR</parameter><parameter name="VEL">10.0</parameter><parameter name="SON">Off</parameter></Optic_Parameters_Rf><Acquisition_Parameters_Rf><parameter name="ADT">1</parameter><parameter name="AQM">DD</parameter><parameter name="CFE">0</parameter><parameter name="COR">0</parameter><parameter name="DEL">0</parameter><parameter name="DLY">0</parameter><parameter name="HFW">8000</parameter><parameter name="LFW">0</parameter><parameter name="NSR">32</parameter><parameter name="PLF">AB</parameter><parameter name="RES">6</parameter><parameter name="RGN">-1</parameter><parameter name="STR">0</parameter><parameter name="TCL">MakeCompatibleScalar (0, {WSV=1.000000, ARV=0});</parameter><parameter name="TDL">37</parameter><parameter name="RPO">0</parameter></Acquisition_Parameters_Rf><FT_-_Parameters_Rf><parameter name="APF">B3</parameter><parameter name="HFQ">500</parameter><parameter name="LFQ">4000</parameter><parameter name="NLI">0</parameter><parameter name="PHR">24</parameter><parameter name="PHZ">ML</parameter><parameter name="SPZ">NO</parameter><parameter name="ZFF">1</parameter></FT_-_Parameters_Rf><Optic_Parameters_><parameter name="APR">0</parameter><parameter name="APT">Open</parameter><parameter name="BMS">KBr</parameter><parameter name="CHN">Module port</parameter><parameter name="DTC">RT-DLaTGS_IR-Biotyper [Microplate reader]</parameter><parameter name="HPF">0</parameter><parameter name="LPF">10.0</parameter><parameter name="LPV">4000</parameter><parameter name="PGN">0</parameter><parameter name="RDX">0</parameter><parameter name="SRC">MIR</parameter><parameter name="VEL">10.0</parameter><parameter name="SON">Off</parameter></Optic_Parameters_><FT_-_Parameters_><parameter name="APF">B3</parameter><parameter name="HFQ">500</parameter><parameter name="LFQ">4000</parameter><parameter name="NLI">0</parameter><parameter name="PHR">24</parameter><parameter name="PHZ">ML</parameter><parameter name="SPZ">NO</parameter><parameter name="ZFF">1</parameter></FT_-_Parameters_><Acquisition_Parameters_><parameter name="ADT">1</parameter><parameter name="AQM">DD</parameter><parameter name="CFE">0</parameter><parameter name="COR">0</parameter><parameter name="DEL">0</parameter><parameter name="DLY">0</parameter><parameter name="HFW">8000</parameter><parameter name="LFW">0</parameter><parameter name="NSS">32</parameter><parameter name="PLF">AB</parameter><parameter name="RES">6</parameter><parameter name="SOT">0</parameter><parameter name="TCL">MakeCompatibleScalar (0, {WSV=1.000000, ARV=0});</parameter><parameter name="TDL">37</parameter><parameter name="SPO">0</parameter><parameter name="SGN">-1</parameter></Acquisition_Parameters_><Instrument_Parameters_Rf><parameter name="HFL">15801.365274</parameter><parameter name="LFL">0</parameter><parameter name="LWN">15801.365274</parameter><parameter name="ABP">32157</parameter><parameter name="SSP">1</parameter><parameter name="ARG">2</parameter><parameter name="ASG">2</parameter><parameter name="ASS">32</parameter><parameter name="GFW">16</parameter><parameter name="GBW">16</parameter><parameter name="BFW">0</parameter><parameter name="BBW">0</parameter><parameter name="PKA">9114</parameter><parameter name="PKL">4987</parameter><parameter name="PRA">9126</parameter><parameter name="PRL">5010</parameter><parameter name="P2A">1</parameter><parameter name="P2L">1</parameter><parameter name="P2R">1</parameter><parameter name="P2K">1</parameter><parameter name="DAQ">0</parameter><parameter name="AG2">1</parameter><parameter name="SSM">1</parameter><parameter name="RSN">46286</parameter><parameter name="CRR">0</parameter><parameter name="SRT">1705496168.464</parameter><parameter name="DUR">19.6439971923828</parameter><parameter name="TSC">30.8</parameter><parameter name="MVD">0.662389934062958</parameter><parameter name="AN1">0.225992352320846</parameter><parameter name="AN2">0</parameter><parameter name="VSN">2.485 Apr  4 2017</parameter><parameter name="SRN">0085</parameter><parameter name="CAM">0</parameter><parameter name="INS">IR-Biotyper</parameter><parameter name="FOC">69</parameter><parameter name="RDY">1</parameter><parameter name="ARS">32</parameter></Instrument_Parameters_Rf><Sample_Parameters_><parameter name="BLD"></parameter><parameter name="CNM">Admin</parameter><parameter name="CPY"></parameter><parameter name="DPM"></parameter><parameter name="EXP">IRBT_v3_32Scans.XPM</parameter><parameter name="LCT"></parameter><parameter name="SFM">Microplate, HTS-XT</parameter><parameter name="SNM">240117-1222-Cdiff_SCFA_1_C6_232100818_F4_cbe31c89-c4c0-44c5-a2c3-50e1c06d5264.0</parameter><parameter name="XPP">C:\Users\Public\Documents\Bruker\OPUS_8.2.28\XPM</parameter><parameter name="IST">OK</parameter><parameter name="CPG">1252</parameter><parameter name="UID">386b2ace-d709-4d37-bdc4-9201a982ef74</parameter></Sample_Parameters_><Instrument_Parameters_><parameter name="HFL">15801.365274</parameter><parameter name="LFL">0</parameter><parameter name="LWN">15801.365274</parameter><parameter name="ABP">32157</parameter><parameter name="SSP">1</parameter><parameter name="ASG">2</parameter><parameter name="ARG">2</parameter><parameter name="ASS">32</parameter><parameter name="GFW">16</parameter><parameter name="GBW">16</parameter><parameter name="BFW">0</parameter><parameter name="BBW">0</parameter><parameter name="PKA">9566</parameter><parameter name="PKL">4987</parameter><parameter name="PRA">9636</parameter><parameter name="PRL">5010</parameter><parameter name="P2A">1</parameter><parameter name="P2L">1</parameter><parameter name="P2R">1</parameter><parameter name="P2K">1</parameter><parameter name="DAQ">0</parameter><parameter name="AG2">1</parameter><parameter name="SSM">1</parameter><parameter name="RSN">23836</parameter><parameter name="CRR">0</parameter><parameter name="SRT">1705496194.203</parameter><parameter name="DUR">19.6439971923828</parameter><parameter name="TSC">30.8</parameter><parameter name="MVD">0.281362473964691</parameter><parameter name="AN1">0.226022129153597</parameter><parameter name="AN2">0</parameter><parameter name="VSN">2.485 Apr  4 2017</parameter><parameter name="SRN">0085</parameter><parameter name="CAM">0</parameter><parameter name="INS">IR-Biotyper</parameter><parameter name="FOC">69</parameter><parameter name="RDY">1</parameter></Instrument_Parameters_><History/></OPUSDataFile>
