<?xml version="1.0" encoding="UTF-8" ?>
<OPUSDataFile><AB><Ydata ylabel="Absorbance Units"><values byteorder="INTEL" format="FLOAT32" numvalues="3497"> -0.07884952 -0.07884849 -0.0788475 -0.07884526 -0.0788374 -0.07882447 -0.07880503 -0.07878123 -0.07875539 -0.07872985
 -0.07870788 -0.07869084 -0.07868106 -0.07867769 -0.07868163 -0.07868914 -0.0786998 -0.07870797 -0.07871246 -0.07870882
 -0.07869604 -0.07867335 -0.07864036 -0.07860108 -0.07855576 -0.07851144 -0.07846858 -0.07843457 -0.07840919 -0.07839569
 -0.07839236 -0.07839593 -0.07840403 -0.07841 -0.07841235 -0.07840551 -0.07839044 -0.07836549 -0.07833366 -0.07829589
 -0.07825688 -0.0782188 -0.07818595 -0.07816055 -0.07814355 -0.07813613 -0.07813495 -0.07814002 -0.07814586 -0.07815209
 -0.07815299 -0.07814828 -0.07813498 -0.07811361 -0.07808787 -0.07805926 -0.07803803 -0.07802435 -0.07802533 -0.07803748
 -0.07805706 -0.07807953 -0.07809547 -0.07810461 -0.07810238 -0.07809224 -0.07807554 -0.07805432 -0.07802994 -0.07800345
 -0.07797457 -0.07794809 -0.07792478 -0.07790979 -0.07790468 -0.07790676 -0.07791632 -0.07792407 -0.07792957 -0.07792788
 -0.07791939 -0.07790744 -0.07789247 -0.07787894 -0.07786637 -0.07785541 -0.07784554 -0.07783581 -0.07782637 -0.07781752
 -0.07780803 -0.07779733 -0.07778231 -0.07775997 -0.07772999 -0.0776899 -0.07764622 -0.07759997 -0.07755956 -0.07752796
 -0.07750577 -0.07749438 -0.07748578 -0.07747941 -0.07746839 -0.07745232 -0.07743309 -0.07741114 -0.07739244 -0.07737666
 -0.07736514 -0.07735663 -0.0773471 -0.0773364 -0.07732152 -0.07730454 -0.07728732 -0.07727201 -0.07726245 -0.07725769
 -0.07725953 -0.07726238 -0.07726432 -0.07725907 -0.07724311 -0.07721665 -0.07717828 -0.07713387 -0.07708418 -0.07703326
 -0.07698151 -0.07693201 -0.07688493 -0.07685058 -0.07682955 -0.0768341 -0.07686237 -0.07691184 -0.07697608 -0.07703127
 -0.0770719 -0.07706908 -0.07703111 -0.07695485 -0.07685999 -0.07676975 -0.07669187 -0.07664279 -0.07661469 -0.0766084
 -0.07661352 -0.07662635 -0.07664013 -0.07665268 -0.07665945 -0.07665948 -0.07664951 -0.07662883 -0.07659925 -0.07656079
 -0.07652048 -0.07647856 -0.07644004 -0.07640467 -0.07637329 -0.07634575 -0.07632199 -0.07630174 -0.07628488 -0.07626983
 -0.07625403 -0.07623598 -0.07621218 -0.07618421 -0.07615162 -0.0761181 -0.07608609 -0.07605598 -0.07602892 -0.07600261
 -0.07597631 -0.0759504 -0.07592455 -0.07590148 -0.0758815 -0.07586561 -0.07585388 -0.07584514 -0.07583925 -0.07583397
 -0.07582878 -0.07581928 -0.07580496 -0.07578079 -0.07574826 -0.07570778 -0.07566243 -0.07561821 -0.07557571 -0.07553873
 -0.07550459 -0.07547173 -0.07544002 -0.075408 -0.07537965 -0.07535636 -0.07534038 -0.07533353 -0.07533151 -0.07533446
 -0.07533446 -0.07533071 -0.07531738 -0.075294 -0.07525995 -0.07521559 -0.0751666 -0.07511392 -0.07506708 -0.07502596
 -0.07499596 -0.07497489 -0.07496024 -0.07494935 -0.074936 -0.07491995 -0.07489765 -0.07487199 -0.07484391 -0.07481679
 -0.07479367 -0.07477348 -0.0747574 -0.07473995 -0.07471951 -0.07469394 -0.07466159 -0.07462928 -0.07459743 -0.07457381
 -0.07455906 -0.07454985 -0.07454567 -0.0745367 -0.07452313 -0.07450182 -0.0744733 -0.07443895 -0.07439703 -0.07434258
 -0.07427651 -0.07419497 -0.07410813 -0.07402669 -0.07395978 -0.07392225 -0.07390767 -0.07391968 -0.07393909 -0.07395897
 -0.07396585 -0.07395227 -0.07392424 -0.07388056 -0.07383576 -0.07379185 -0.07375284 -0.07371932 -0.07368423 -0.07364723
 -0.07360143 -0.07354759 -0.07348749 -0.07342302 -0.07336309 -0.07330841 -0.07326624 -0.07323427 -0.07321285 -0.07319643
 -0.07317892 -0.07315377 -0.07311178 -0.07305375 -0.07297444 -0.07288762 -0.07279687 -0.0727165 -0.07265336 -0.07260484
 -0.0725732 -0.07254251 -0.07251115 -0.07246783 -0.07241135 -0.07234627 -0.07227318 -0.07220511 -0.07214195 -0.07208972
 -0.07204574 -0.07200237 -0.07195623 -0.07189289 -0.07181359 -0.07171142 -0.07159568 -0.07147494 -0.07135854 -0.07125977
 -0.07117745 -0.07111632 -0.07106715 -0.07102788 -0.0709885 -0.0709462 -0.07089227 -0.07082453 -0.0707382 -0.0706319
 -0.07050918 -0.07037006 -0.07022221 -0.07006589 -0.06990443 -0.06973775 -0.06956618 -0.06939032 -0.06921284 -0.06903474
 -0.06886011 -0.06868981 -0.06852748 -0.06837339 -0.06822999 -0.06809531 -0.06796935 -0.06784745 -0.06772652 -0.06760395
 -0.06747764 -0.06734762 -0.06721459 -0.06707325 -0.06692354 -0.06675553 -0.06656726 -0.0663597 -0.06613225 -0.06590188
 -0.06566937 -0.06544953 -0.06524172 -0.06504736 -0.06486484 -0.06468765 -0.06451504 -0.06434137 -0.06416726 -0.06399151
 -0.06381443 -0.06363709 -0.06345636 -0.0632705 -0.06307462 -0.06286325 -0.06263995 -0.06240241 -0.06216489 -0.06193156
 -0.06171075 -0.0615065 -0.06131166 -0.06112639 -0.0609384 -0.06074661 -0.06054743 -0.06034097 -0.06013403 -0.05992696
 -0.05972639 -0.05953091 -0.05933814 -0.0591455 -0.05894347 -0.05873222 -0.05850588 -0.05827007 -0.05802973 -0.05779066
 -0.05756156 -0.05734148 -0.05713365 -0.05693151 -0.05673296 -0.05653265 -0.05632794 -0.05611863 -0.05590372 -0.05568719
 -0.05546938 -0.05525399 -0.05504158 -0.05482895 -0.05461577 -0.05439174 -0.05415689 -0.05390604 -0.05364184 -0.05337394
 -0.05310535 -0.05285141 -0.05261045 -0.05238747 -0.05217702 -0.0519736 -0.05177266 -0.05156711 -0.05135648 -0.05113772
 -0.05091356 -0.05068436 -0.05045311 -0.05022114 -0.04998875 -0.04975655 -0.04952231 -0.04928576 -0.04904554 -0.0488014
 -0.04855511 -0.04830677 -0.04806003 -0.04781507 -0.04757543 -0.047341 -0.04711351 -0.04689215 -0.0466758 -0.04646274
 -0.04624905 -0.04603298 -0.04581035 -0.04558031 -0.04533991 -0.04509085 -0.04483237 -0.04456969 -0.04430423 -0.04404298
 -0.04378879 -0.04354469 -0.0433128 -0.04308809 -0.04287056 -0.04265225 -0.04243235 -0.04220897 -0.04198214 -0.04175831
 -0.04153778 -0.04132646 -0.04112302 -0.04092403 -0.04072737 -0.04052379 -0.04031377 -0.04009283 -0.03986481 -0.03963351
 -0.03940178 -0.03917467 -0.03895132 -0.03873293 -0.03851737 -0.0383036 -0.03809119 -0.03787952 -0.03766988 -0.03746228
 -0.03725894 -0.03706025 -0.0368672 -0.03668015 -0.03649567 -0.03631355 -0.03612722 -0.03593663 -0.03573853 -0.03553409
 -0.03532772 -0.03512068 -0.03491991 -0.03472466 -0.03453722 -0.03435494 -0.03417481 -0.03399472 -0.03381059 -0.03362375
 -0.0334332 -0.03324289 -0.03305465 -0.03287093 -0.03269357 -0.03252094 -0.03235323 -0.03218732 -0.03202274 -0.03185797
 -0.03169277 -0.03152748 -0.0313621 -0.03119733 -0.03103318 -0.03087002 -0.03070765 -0.03054526 -0.03038267 -0.03021873
 -0.03005374 -0.02988768 -0.02972123 -0.02955559 -0.02939085 -0.02922758 -0.02906574 -0.02890504 -0.02874694 -0.02859174
 -0.02844197 -0.02829878 -0.02816273 -0.02803468 -0.02791165 -0.02779354 -0.02767591 -0.02755826 -0.02743891 -0.02731776
 -0.02719762 -0.02707867 -0.02696426 -0.0268537 -0.02674505 -0.02663722 -0.0265251 -0.02640906 -0.02628705 -0.02616085
 -0.02603257 -0.0259031 -0.02577421 -0.02564628 -0.02551962 -0.02539621 -0.02527713 -0.02516386 -0.0250579 -0.0249565
 -0.02485955 -0.02476317 -0.02466637 -0.02456987 -0.02447339 -0.02438184 -0.02429548 -0.02421656 -0.02414483 -0.02407764
 -0.02401446 -0.02395064 -0.0238861 -0.023818 -0.02374682 -0.02367221 -0.02359474 -0.02351522 -0.02343374 -0.02335062
 -0.02326613 -0.02318004 -0.02309443 -0.02300988 -0.02292956 -0.02285495 -0.02278724 -0.02272762 -0.02267299 -0.0226233
 -0.02257376 -0.02252373 -0.02247273 -0.02242071 -0.0223728 -0.02232911 -0.02229303 -0.02226364 -0.02223694 -0.022212
 -0.02218247 -0.0221501 -0.0221153 -0.02208146 -0.022055 -0.02203635 -0.02202959 -0.02203085 -0.02203891 -0.02204891
 -0.02205794 -0.02206283 -0.02206169 -0.02205327 -0.02203671 -0.02201273 -0.021981 -0.0219447 -0.02190394 -0.02186351
 -0.02182367 -0.02178812 -0.0217569 -0.02173102 -0.02171024 -0.02169345 -0.02168056 -0.02167035 -0.02166342 -0.02166055
 -0.02166259 -0.02167185 -0.02168734 -0.02170975 -0.02173513 -0.02176112 -0.0217829 -0.02179686 -0.02180138 -0.02179421
 -0.02177866 -0.02175461 -0.02172797 -0.02169961 -0.02167433 -0.02165277 -0.02163696 -0.02162704 -0.02162215 -0.02162208
 -0.02162378 -0.02162688 -0.02162724 -0.02162509 -0.02161874 -0.02160947 -0.02159964 -0.02159019 -0.02158461 -0.02158117
 -0.02157965 -0.02157688 -0.02156968 -0.02155753 -0.02153849 -0.02151578 -0.02149017 -0.02146451 -0.02144011 -0.0214164
 -0.02139368 -0.02136959 -0.02134384 -0.02131556 -0.02128465 -0.02125226 -0.02121846 -0.02118505 -0.0211517 -0.02111736
 -0.02108096 -0.0210378 -0.02098715 -0.02092356 -0.02084979 -0.02076651 -0.02068097 -0.02060166 -0.0205358 -0.02049366
 -0.02047468 -0.02048392 -0.02050984 -0.02055057 -0.02059059 -0.0206248 -0.02064617 -0.02065118 -0.02064748 -0.02063469
 -0.02062947 -0.02063286 -0.02065761 -0.02070373 -0.02077122 -0.02085871 -0.02095649 -0.02106345 -0.0211697 -0.0212757
 -0.02137753 -0.02147629 -0.02157245 -0.02166617 -0.02175803 -0.02184742 -0.02193375 -0.02201731 -0.0220973 -0.02217695
 -0.02225645 -0.02234231 -0.02243589 -0.02254419 -0.02266917 -0.02281179 -0.02297312 -0.02314461 -0.02332589 -0.0235052
 -0.02368225 -0.0238524 -0.02401658 -0.0241793 -0.02434143 -0.02450937 -0.02468215 -0.02486117 -0.02504348 -0.02522472
 -0.02540147 -0.02556721 -0.02572116 -0.02585912 -0.02598553 -0.02610077 -0.02621267 -0.02632474 -0.02644152 -0.02656577
 -0.02669549 -0.02683118 -0.02696787 -0.02710518 -0.02723803 -0.02736608 -0.02748475 -0.02759405 -0.02769455 -0.02778746
 -0.02788195 -0.02797947 -0.02809214 -0.02821821 -0.0283605 -0.02851338 -0.02866769 -0.02881905 -0.02895674 -0.02908235
 -0.02919222 -0.02929327 -0.0293883 -0.02948412 -0.0295849 -0.0296921 -0.02980788 -0.02992747 -0.03005071 -0.03017083
 -0.03028676 -0.03039634 -0.03049916 -0.03059961 -0.030698 -0.03080109 -0.03090897 -0.03102545 -0.03114984 -0.03128152
 -0.03141913 -0.03155863 -0.03169876 -0.03183509 -0.03196748 -0.03209339 -0.03221479 -0.03233225 -0.03244873 -0.03256658
 -0.03268657 -0.03281027 -0.03293496 -0.03306023 -0.03318333 -0.0333032 -0.0334211 -0.03353677 -0.03365448 -0.03377458
 -0.03389856 -0.03402635 -0.03415476 -0.03428346 -0.03440813 -0.03452915 -0.03464568 -0.03475876 -0.0348707 -0.03498263
 -0.03509795 -0.03521703 -0.03534201 -0.03547208 -0.03560742 -0.03574661 -0.03588888 -0.03603299 -0.03617844 -0.03632358
 -0.03646832 -0.03660898 -0.03674513 -0.03687202 -0.03698884 -0.0370939 -0.03718684 -0.03727083 -0.03734617 -0.03742022
 -0.03749368 -0.03757597 -0.03766732 -0.03777463 -0.03789619 -0.03803151 -0.03817683 -0.03832479 -0.03847178 -0.03860929
 -0.03873652 -0.03884895 -0.03894925 -0.0390369 -0.03911775 -0.03919382 -0.03927125 -0.03935275 -0.03944001 -0.03953446
 -0.03963228 -0.03973323 -0.03983328 -0.03993198 -0.04002906 -0.04012444 -0.04021752 -0.04030766 -0.04038857 -0.0404596
 -0.04051329 -0.04055146 -0.04057439 -0.04058708 -0.04059942 -0.04061617 -0.04064922 -0.04069824 -0.04076909 -0.04085419
 -0.04095133 -0.04105036 -0.04114543 -0.04123249 -0.04130772 -0.0413762 -0.04143805 -0.04149969 -0.04156251 -0.04162588
 -0.04169007 -0.04174953 -0.04180406 -0.04185195 -0.04189359 -0.04193252 -0.04196884 -0.04200504 -0.04204043 -0.04207368
 -0.04210509 -0.04213407 -0.04216265 -0.04219377 -0.04222832 -0.04226928 -0.04231363 -0.04236036 -0.04240632 -0.04244871
 -0.04248976 -0.04252851 -0.04257249 -0.0426231 -0.04268632 -0.04276372 -0.04285411 -0.04295792 -0.04306626 -0.04317861
 -0.04328359 -0.04338103 -0.04346443 -0.04353523 -0.04359684 -0.04365176 -0.04371 -0.04377249 -0.04384713 -0.04393105
 -0.04402412 -0.04412136 -0.04421735 -0.04430923 -0.04439248 -0.04446889 -0.04453765 -0.04460308 -0.04466644 -0.04473078
 -0.04479705 -0.04486645 -0.04493933 -0.04501582 -0.04509611 -0.04517749 -0.04525979 -0.04533736 -0.04541025 -0.04547635
 -0.04553714 -0.04559926 -0.04566409 -0.04574093 -0.04582736 -0.04592357 -0.04602436 -0.04612112 -0.04621234 -0.04629178
 -0.04636392 -0.04642989 -0.04649415 -0.04656022 -0.04662663 -0.04669402 -0.04675885 -0.04682 -0.04687765 -0.04693146
 -0.04698391 -0.04703533 -0.04708536 -0.04713396 -0.04717758 -0.04721614 -0.04724737 -0.04727184 -0.04729149 -0.04730718
 -0.0473229 -0.04733883 -0.04735774 -0.04737844 -0.04740055 -0.04742221 -0.04744116 -0.04745643 -0.04746607 -0.04747158
 -0.04747311 -0.04747246 -0.04747076 -0.04746709 -0.04746185 -0.04745184 -0.04743667 -0.04741374 -0.0473827 -0.04734341
 -0.04729585 -0.04723966 -0.04717463 -0.04709823 -0.04701022 -0.04690763 -0.04679096 -0.04665991 -0.04651629 -0.04636367
 -0.04620465 -0.04604484 -0.04588613 -0.04573307 -0.04558537 -0.04544483 -0.04530868 -0.0451761 -0.04504419 -0.04491158
 -0.04477723 -0.04464041 -0.04450218 -0.0443624 -0.04422357 -0.0440858 -0.04395273 -0.04382456 -0.04370529 -0.04359517
 -0.043498 -0.04341408 -0.04334734 -0.04329783 -0.0432682 -0.04325738 -0.04326462 -0.04328779 -0.04332318 -0.04336895
 -0.04342193 -0.04348009 -0.04354185 -0.04360278 -0.04366117 -0.04371005 -0.04374658 -0.04376582 -0.04376539 -0.04374628
 -0.04370791 -0.04365484 -0.04358737 -0.04351 -0.043423 -0.0433301 -0.04323156 -0.04313188 -0.04303164 -0.04293647
 -0.042847 -0.04276831 -0.04270094 -0.04264864 -0.04261175 -0.04259257 -0.04259085 -0.04260736 -0.0426412 -0.04269143
 -0.04275881 -0.04284224 -0.04294715 -0.04307441 -0.04323207 -0.04342249 -0.04365017 -0.043917 -0.04421904 -0.0445567
 -0.04491888 -0.04530502 -0.04569949 -0.04610118 -0.04649152 -0.04686952 -0.04721912 -0.04754095 -0.04782788 -0.0480829
 -0.04830918 -0.04851081 -0.04869585 -0.04886762 -0.0490334 -0.04919412 -0.04935346 -0.04950947 -0.04966238 -0.04980906
 -0.04994817 -0.05007851 -0.05019923 -0.05031158 -0.0504157 -0.0505122 -0.05060127 -0.05068171 -0.05075349 -0.05081461
 -0.05086493 -0.05090157 -0.05092429 -0.05092971 -0.0509184 -0.05088978 -0.05084668 -0.0507948 -0.05073914 -0.05069043
 -0.05065335 -0.05063834 -0.05064606 -0.05068216 -0.05074025 -0.05082001 -0.05090939 -0.05100422 -0.05109376 -0.05117382
 -0.05124133 -0.05129457 -0.05133696 -0.05136871 -0.05139264 -0.05140899 -0.05141699 -0.05141671 -0.05140858 -0.05139384
 -0.05138016 -0.05137093 -0.05138291 -0.05142007 -0.05150196 -0.05162849 -0.051811 -0.05204077 -0.05231457 -0.05261575
 -0.05293067 -0.0532427 -0.05353782 -0.05380879 -0.0540482 -0.05425966 -0.05444216 -0.05460309 -0.05474357 -0.05486897
 -0.05498005 -0.05507963 -0.05516794 -0.05524782 -0.05531944 -0.05538536 -0.05544559 -0.05550123 -0.05555231 -0.05559943
 -0.05564294 -0.05568395 -0.05572319 -0.05576253 -0.05580231 -0.05584404 -0.05588688 -0.05593108 -0.05597429 -0.05601516
 -0.05605208 -0.05608336 -0.05611135 -0.05613584 -0.05616163 -0.05618984 -0.05622189 -0.05625848 -0.05629543 -0.05633251
 -0.05636529 -0.05639372 -0.05641791 -0.05643831 -0.05645858 -0.05647894 -0.05650243 -0.05652858 -0.05655794 -0.05658943
 -0.05662148 -0.05665289 -0.05668139 -0.05670645 -0.05672655 -0.0567425 -0.05675406 -0.05676311 -0.05677008 -0.05677744
 -0.05678598 -0.05679719 -0.05681168 -0.05682874 -0.05684849 -0.05686886 -0.05688974 -0.05691002 -0.05692967 -0.0569483
 -0.05696568 -0.05697975 -0.05699036 -0.05699525 -0.05699555 -0.05699294 -0.05698936 -0.05698971 -0.05699401 -0.05700514
 -0.05702021 -0.05703761 -0.05705497 -0.05706981 -0.05708269 -0.05709315 -0.05710254 -0.05711148 -0.05711937 -0.05712627
 -0.05713097 -0.05713315 -0.05713365 -0.05713247 -0.05713198 -0.05713222 -0.05713392 -0.05713677 -0.0571386 -0.0571392
 -0.05713622 -0.05713032 -0.0571219 -0.05711224 -0.05710418 -0.05709822 -0.05709667 -0.05709833 -0.05710317 -0.05710917
 -0.05711497 -0.05711938 -0.05712134 -0.05712133 -0.05711913 -0.05711607 -0.05711218 -0.05710964 -0.05710866 -0.05711137
 -0.05711798 -0.05712929 -0.05714526 -0.05716406 -0.05718537 -0.05720567 -0.0572248 -0.05724013 -0.05725205 -0.05726022
 -0.05726535 -0.05726875 -0.05727073 -0.05727235 -0.05727345 -0.05727419 -0.05727466 -0.05727466 -0.05727538 -0.05727726
 -0.05728139 -0.0572886 -0.05729753 -0.05730851 -0.0573171 -0.05732276 -0.05732219 -0.05731491 -0.05730282 -0.05728607
 -0.05726971 -0.05725387 -0.05724182 -0.05723323 -0.05722825 -0.05722678 -0.0572287 -0.05723383 -0.05724216 -0.05725237
 -0.05726293 -0.05727176 -0.05727589 -0.0572752 -0.05726811 -0.05725713 -0.05724296 -0.0572278 -0.05721261 -0.05719801
 -0.05718417 -0.057172 -0.05716143 -0.05715492 -0.05715269 -0.05715553 -0.05716335 -0.05717183 -0.05718055 -0.05718328
 -0.05718042 -0.05717039 -0.05715471 -0.05713722 -0.05711909 -0.05710491 -0.05709422 -0.05708843 -0.05708642 -0.05708744
 -0.05709112 -0.05709717 -0.05710487 -0.05711438 -0.057123 -0.05713021 -0.05713258 -0.057129 -0.05711919 -0.05710253
 -0.05708349 -0.05706229 -0.05704423 -0.05702953 -0.05701953 -0.0570139 -0.05700989 -0.05700723 -0.05700305 -0.05699763
 -0.05699031 -0.05698147 -0.05697153 -0.05696088 -0.05695011 -0.05693996 -0.05693144 -0.05692488 -0.05692128 -0.05691918
 -0.05691842 -0.05691672 -0.056913 -0.05690727 -0.05689896 -0.05689088 -0.05688337 -0.05687838 -0.05687625 -0.05687538
 -0.05687565 -0.05687371 -0.0568695 -0.05686117 -0.05684916 -0.05683474 -0.05681856 -0.05680332 -0.05678935 -0.05677888
 -0.05677126 -0.05676658 -0.05676376 -0.05676174 -0.05675971 -0.05675672 -0.05675262 -0.05674716 -0.05674023 -0.05673173
 -0.05672167 -0.0567098 -0.05669748 -0.05668471 -0.05667396 -0.05666552 -0.05666009 -0.05665766 -0.05665535 -0.05665297
 -0.05664717 -0.0566384 -0.05662724 -0.05661455 -0.05660385 -0.05659488 -0.05658918 -0.05658516 -0.05658086 -0.05657552
 -0.05656695 -0.0565568 -0.0565455 -0.05653474 -0.05652596 -0.05651831 -0.05651212 -0.0565051 -0.05649669 -0.05648585
 -0.05647226 -0.05645609 -0.05643727 -0.05641662 -0.05639418 -0.05637132 -0.05634814 -0.05632637 -0.056306 -0.05628783
 -0.05627167 -0.05625721 -0.05624451 -0.05623361 -0.05622436 -0.05621682 -0.05621008 -0.05620326 -0.05619548 -0.05618544
 -0.05617391 -0.05616074 -0.05614735 -0.05613445 -0.05612182 -0.05610961 -0.05609696 -0.05608356 -0.05607055 -0.05605794
 -0.05604795 -0.05604068 -0.05603608 -0.05603391 -0.05603128 -0.05602802 -0.05602165 -0.05601252 -0.05600049 -0.05598595
 -0.05596976 -0.05595211 -0.05593369 -0.05591455 -0.05589489 -0.05587522 -0.05585581 -0.05583762 -0.05582111 -0.05580736
 -0.05579698 -0.05579015 -0.05578737 -0.05578683 -0.05578861 -0.05578894 -0.05578749 -0.05578129 -0.05577017 -0.0557551
 -0.05573644 -0.0557189 -0.0557027 -0.05569187 -0.05568541 -0.0556823 -0.05568065 -0.05567525 -0.05566528 -0.05564629
 -0.05562047 -0.05558778 -0.05555276 -0.05551879 -0.0554896 -0.05546876 -0.0554556 -0.05545158 -0.05545126 -0.05545387
 -0.05545354 -0.05544883 -0.05543883 -0.05542297 -0.05540593 -0.05538793 -0.05537396 -0.05536394 -0.05535782 -0.05535494
 -0.055351 -0.05534581 -0.05533612 -0.05532297 -0.05530717 -0.05529008 -0.05527477 -0.0552609 -0.05524971 -0.05523921
 -0.05522817 -0.05521519 -0.05519858 -0.05517986 -0.05515897 -0.05513845 -0.05511913 -0.05510168 -0.0550865 -0.05507242
 -0.05505934 -0.05504661 -0.05503419 -0.05502203 -0.05501005 -0.05499684 -0.05498227 -0.05496448 -0.05494392 -0.05492117
 -0.05489716 -0.0548748 -0.05485399 -0.05483621 -0.05482014 -0.0548046 -0.05478895 -0.05477176 -0.05475459 -0.05473791
 -0.05472312 -0.05471143 -0.05470108 -0.05469219 -0.05468129 -0.05466762 -0.0546503 -0.05462893 -0.05460628 -0.05458248
 -0.05456088 -0.0545415 -0.0545253 -0.05451193 -0.05449968 -0.05448807 -0.05447432 -0.0544584 -0.05443845 -0.05441561
 -0.05439078 -0.05436566 -0.05434291 -0.05432284 -0.05430723 -0.05429384 -0.05428218 -0.05426934 -0.05425384 -0.05423479
 -0.05421135 -0.05418505 -0.05415591 -0.05412605 -0.05409567 -0.0540666 -0.05403895 -0.05401417 -0.05399228 -0.05397372
 -0.0539582 -0.05394397 -0.05393058 -0.05391516 -0.0538981 -0.05387855 -0.05385809 -0.05383912 -0.0538229 -0.05381249
 -0.05380692 -0.05380682 -0.05380981 -0.05381442 -0.05381988 -0.05382511 -0.05383182 -0.05384028 -0.05385184 -0.05386729
 -0.05388383 -0.05390145 -0.05391522 -0.05392475 -0.05392907 -0.05392842 -0.05392814 -0.05392843 -0.053934 -0.05394307
 -0.05395118 -0.05395578 -0.05394685 -0.05392522 -0.05388714 -0.05383604 -0.05377565 -0.05370609 -0.05362874 -0.05354311
 -0.05344662 -0.05334868 -0.05325074 -0.05316773 -0.05310512 -0.05306748 -0.05305819 -0.05306717 -0.05309456 -0.05312194
 -0.0531481 -0.05315769 -0.05315067 -0.05312905 -0.05309465 -0.05306312 -0.05303415 -0.05301575 -0.05300396 -0.05299185
 -0.05297647 -0.05294791 -0.0529079 -0.05285352 -0.05279034 -0.05272215 -0.05265388 -0.05259003 -0.05253197 -0.05248193
 -0.05243739 -0.05239839 -0.05236113 -0.05232489 -0.05228707 -0.05224714 -0.05220497 -0.05216045 -0.05211582 -0.05207124
 -0.05202981 -0.05199154 -0.05195827 -0.05192931 -0.05190299 -0.0518781 -0.05185019 -0.05181888 -0.0517807 -0.05173764
 -0.05169035 -0.05164247 -0.05159766 -0.05155813 -0.05152708 -0.05150275 -0.05148578 -0.05147173 -0.05145951 -0.05144542
 -0.05142835 -0.05140765 -0.05138294 -0.05135607 -0.05132711 -0.05129829 -0.05126967 -0.05124222 -0.05121582 -0.05118994
 -0.0511644 -0.05113801 -0.05111072 -0.05108163 -0.05105112 -0.05101938 -0.05098718 -0.05095563 -0.05092532 -0.05089739
 -0.05087144 -0.05084778 -0.05082516 -0.05080311 -0.05078071 -0.05075754 -0.05073316 -0.05070741 -0.05068004 -0.05065095
 -0.05062031 -0.05058803 -0.05055596 -0.05052419 -0.05049526 -0.05046912 -0.05044639 -0.05042657 -0.05040767 -0.05038919
 -0.05036855 -0.05034569 -0.05031928 -0.05028964 -0.0502565 -0.05022077 -0.05018297 -0.05014462 -0.0501068 -0.05007086
 -0.05003795 -0.05000774 -0.0499806 -0.04995488 -0.04993038 -0.04990548 -0.04987995 -0.04985274 -0.04982375 -0.04979231
 -0.04975844 -0.04972313 -0.04968661 -0.04965168 -0.0496184 -0.04958894 -0.04956259 -0.04953855 -0.04951585 -0.0494919
 -0.04946662 -0.04943857 -0.0494086 -0.04937696 -0.0493447 -0.04931265 -0.04928138 -0.04925149 -0.04922261 -0.04919484
 -0.04916727 -0.04913965 -0.04911165 -0.04908306 -0.04905515 -0.04902801 -0.04900297 -0.04898006 -0.04895865 -0.0489386
 -0.04891811 -0.04889723 -0.04887515 -0.04885223 -0.04882915 -0.04880602 -0.0487835 -0.04876128 -0.04873916 -0.04871689
 -0.04869416 -0.04867083 -0.04864679 -0.04862167 -0.04859535 -0.04856728 -0.04853708 -0.04850505 -0.048471 -0.0484363
 -0.04840105 -0.0483669 -0.04833402 -0.04830379 -0.04827626 -0.0482516 -0.04822965 -0.04820921 -0.04818996 -0.04816957
 -0.04814802 -0.04812372 -0.04809753 -0.04807031 -0.04804328 -0.0480189 -0.0479971 -0.04797925 -0.04796322 -0.04794822
 -0.04793151 -0.04791133 -0.04788704 -0.04785753 -0.04782536 -0.04779067 -0.04775691 -0.0477247 -0.04769545 -0.04766944
 -0.04764523 -0.04762274 -0.04760011 -0.0475774 -0.04755487 -0.04753266 -0.0475119 -0.04749226 -0.04747343 -0.04745472
 -0.04743431 -0.04741218 -0.04738728 -0.04736057 -0.04733253 -0.04730441 -0.04727723 -0.04725184 -0.04722891 -0.04720892
 -0.04719244 -0.04717845 -0.04716713 -0.04715585 -0.04714433 -0.04712991 -0.04711226 -0.04709105 -0.04706626 -0.04704024
 -0.04701313 -0.04698745 -0.04696297 -0.04693991 -0.04691783 -0.04689513 -0.04687195 -0.04684765 -0.04682298 -0.04679899
 -0.04677595 -0.04675495 -0.04673477 -0.04671496 -0.04669417 -0.04667124 -0.04664681 -0.0466206 -0.04659449 -0.04656886
 -0.04654503 -0.04652333 -0.04650374 -0.04648631 -0.04647064 -0.04645671 -0.04644366 -0.04643134 -0.04641777 -0.04640274
 -0.04638401 -0.04636184 -0.04633571 -0.04630668 -0.04627681 -0.04624722 -0.04622091 -0.04619777 -0.04617935 -0.04616357
 -0.04614964 -0.04613495 -0.04611769 -0.04609725 -0.04607261 -0.04604568 -0.04601656 -0.04598799 -0.04596053 -0.04593508
 -0.04591187 -0.04588994 -0.04586926 -0.04584781 -0.04582557 -0.04580157 -0.04577611 -0.04575044 -0.04572503 -0.04570251
 -0.04568264 -0.04566648 -0.04565282 -0.0456402 -0.04562741 -0.04561226 -0.04559493 -0.04557469 -0.04555256 -0.04552887
 -0.04550446 -0.04547949 -0.04545541 -0.04543242 -0.04541252 -0.04539621 -0.0453836 -0.04537502 -0.04536655 -0.04535799
 -0.0453444 -0.0453258 -0.04530089 -0.04527031 -0.04523714 -0.04520192 -0.0451683 -0.04513608 -0.04510672 -0.04507956
 -0.04505416 -0.04503001 -0.04500619 -0.04498287 -0.0449596 -0.04493745 -0.04491693 -0.04489858 -0.04488307 -0.04486917
 -0.04485695 -0.04484398 -0.04482986 -0.04481295 -0.04479302 -0.04476933 -0.04474181 -0.04471003 -0.04467408 -0.04463506
 -0.04459352 -0.04455342 -0.04451533 -0.04448394 -0.04445835 -0.0444391 -0.04442403 -0.04440957 -0.04439458 -0.04437568
 -0.04435445 -0.04433085 -0.04430721 -0.04428523 -0.04426501 -0.04424747 -0.0442301 -0.04421256 -0.04419218 -0.04416833
 -0.04414043 -0.04410822 -0.04407323 -0.0440355 -0.0439975 -0.0439593 -0.04392253 -0.0438871 -0.04385319 -0.04382063
 -0.0437888 -0.04375763 -0.04372663 -0.04369583 -0.04366508 -0.04363433 -0.04360332 -0.04357238 -0.04354157 -0.04351145
 -0.04348245 -0.04345468 -0.04342851 -0.04340291 -0.04337778 -0.04335175 -0.04332441 -0.04329601 -0.0432664 -0.04323777
 -0.04321025 -0.04318472 -0.04316105 -0.043137 -0.04311226 -0.04308338 -0.0430507 -0.04301343 -0.04297262 -0.04293061
 -0.04288813 -0.04284774 -0.04280922 -0.04277342 -0.04273964 -0.04270758 -0.04267665 -0.04264644 -0.04261642 -0.04258633
 -0.0425556 -0.04252398 -0.04249146 -0.04245799 -0.04242368 -0.04238854 -0.04235262 -0.04231593 -0.0422786 -0.04224066
 -0.04220283 -0.04216521 -0.04212914 -0.04209458 -0.0420623 -0.04203192 -0.04200291 -0.04197458 -0.04194537 -0.04191514
 -0.04188297 -0.04184934 -0.04181446 -0.04177838 -0.04174131 -0.04170282 -0.04166244 -0.04162135 -0.04157952 -0.04153947
 -0.04150187 -0.041467 -0.04143526 -0.04140324 -0.04137074 -0.04133516 -0.04129656 -0.04125663 -0.0412157 -0.04117747
 -0.04114152 -0.04110842 -0.04107697 -0.04104419 -0.04100936 -0.0409693 -0.0409251 -0.04087629 -0.04082574 -0.04077569
 -0.04072862 -0.0406873 -0.04065073 -0.04061981 -0.04059051 -0.04056188 -0.04053087 -0.04049649 -0.04045905 -0.04041844
 -0.04037564 -0.04033075 -0.04028354 -0.04023403 -0.04018236 -0.04012885 -0.04007611 -0.04002454 -0.03997756 -0.03993471
 -0.03989677 -0.03986238 -0.03982949 -0.0397967 -0.03976118 -0.03972258 -0.03967922 -0.03963243 -0.03958223 -0.03953099
 -0.03947968 -0.03942995 -0.03938277 -0.03933742 -0.03929408 -0.03925097 -0.03920787 -0.03916393 -0.03911905 -0.03907399
 -0.03902877 -0.03898405 -0.03893979 -0.03889611 -0.03885304 -0.03881093 -0.03876947 -0.03872836 -0.03868648 -0.03864144
 -0.03859276 -0.03853801 -0.03847959 -0.0384185 -0.03835809 -0.0383012 -0.03824842 -0.03820118 -0.03815713 -0.03811593
 -0.03807525 -0.03803461 -0.03799222 -0.03794783 -0.03790015 -0.03784903 -0.03779421 -0.03773572 -0.03767527 -0.037613
 -0.03755088 -0.03748886 -0.03742775 -0.03736733 -0.03730733 -0.03724763 -0.03718772 -0.03712784 -0.03706811 -0.03700884
 -0.03695061 -0.03689286 -0.03683567 -0.03677767 -0.03671804 -0.03665682 -0.03659352 -0.03653006 -0.03646689 -0.03640465
 -0.03634377 -0.03628137 -0.03621726 -0.03614925 -0.03607734 -0.03600347 -0.03592794 -0.03585421 -0.03578197 -0.03571161
 -0.03564242 -0.03557228 -0.03550131 -0.03542853 -0.03535471 -0.03528085 -0.03520665 -0.03513262 -0.03505694 -0.03497836
 -0.03489619 -0.03480908 -0.03471981 -0.03462857 -0.03453952 -0.03445399 -0.03437197 -0.03429415 -0.03421503 -0.03413432
 -0.03404583 -0.03394937 -0.03384442 -0.03373164 -0.03361709 -0.03350136 -0.03339102 -0.03328504 -0.03318403 -0.0330858
 -0.03298592 -0.03288336 -0.03277414 -0.03265996 -0.03254076 -0.03241917 -0.03229723 -0.03217584 -0.03205648 -0.03193717
 -0.03181799 -0.03169523 -0.03156808 -0.03143401 -0.03129203 -0.03114551 -0.03099439 -0.03084653 -0.03070221 -0.03056392
 -0.03043085 -0.03029599 -0.03015874 -0.03001178 -0.02985648 -0.02969351 -0.02952379 -0.02935079 -0.02917173 -0.02898417
 -0.02878518 -0.02856896 -0.02833997 -0.02809828 -0.02785245 -0.02760772 -0.02736513 -0.02712737 -0.02688783 -0.02664533
 -0.02639614 -0.02613927 -0.02587581 -0.02560597 -0.02532708 -0.02503886 -0.02473061 -0.02440222 -0.02404759 -0.02366943
 -0.02327888 -0.02287809 -0.02248162 -0.02208582 -0.0216904 -0.02129024 -0.02087654 -0.0204488 -0.02000311 -0.01954056
 -0.01906283 -0.0185638 -0.01804305 -0.01748739 -0.01689152 -0.01625017 -0.01555841 -0.01483124 -0.01406828 -0.01329787
 -0.01252215 -0.0117661 -0.01103099 -0.01032923 -0.009659848 -0.009017869 -0.008399738 -0.007784091 -0.007168036 -0.00652763
 -0.005869426 -0.005193105 -0.004513553 -0.003856104 -0.003223538 -0.002632755 -0.002068463 -0.001525265 -0.0009886577 -0.0004480706
 9.754088E-05 0.0006517948 0.001208356 0.001766116 0.002321928 0.00287538 0.003423093 0.003964921 0.004495009 0.005013068
 0.005518285 0.006010687 0.006491523 0.006959094 0.007404589 0.007826045 0.008210408 0.008560827 0.008876748 0.009164911
 0.009436953 0.009693769 0.009942673 0.01017672 0.01039189 0.01058647 0.01075685 0.01090936 0.01104659 0.01116823
 0.01127638 0.01135982 0.01141734 0.011439 0.01142357 0.01136822 0.01127273 0.0111345 0.01095345 0.01072707
 0.0104567 0.01014819 0.009804352 0.009437942 0.009050976 0.00865338 0.008248363 0.007843175 0.007446058 0.007067191
 0.006717443 0.006408583 0.006146116 0.005936576 0.005779509 0.005675847 0.005625642 0.005629359 0.005685452 0.00579476
 0.005947642 0.006143391 0.006372618 0.00663476 0.006932689 0.007267011 0.007647273 0.008072891 0.008545865 0.009063618
 0.009618014 0.01020708 0.0108219 0.0114624 0.01212437 0.01280899 0.01351601 0.01424656 0.01500198 0.01578123
 0.016585 0.01740885 0.01825201 0.01910803 0.01997546 0.02084847 0.02172595 0.02260429 0.02348317 0.02435894
 0.02523139 0.02609169 0.02693918 0.0277623 0.02856153 0.02933391 0.03008052 0.03080594 0.03150579 0.03217383
 0.03280061 0.03336607 0.0338681 0.03429478 0.03465205 0.03494188 0.03516606 0.03532672 0.03542231 0.03545269
 0.03541685 0.0353167 0.03513971 0.03488644 0.03452848 0.03406204 0.03347844 0.03277655 0.03199701 0.03114202
 0.03025331 0.02932796 0.02836693 0.02736699 0.02631491 0.0252136 0.02406318 0.02286867 0.02164084 0.02037714
 0.01908084 0.01774236 0.01634953 0.01491362 0.01342592 0.01194116 0.01047662 0.009079162 0.007771211 0.006540281
 0.005390136 0.004285795 0.003222903 0.002190975 0.001188925 0.0002268651 -0.0006950297 -0.001572614 -0.00240706 -0.003204767
 -0.003965965 -0.00469482 -0.005390939 -0.006054106 -0.006687148 -0.007293322 -0.007879378 -0.008454354 -0.009024272 -0.009598079
 -0.01017589 -0.01076123 -0.01134899 -0.01193803 -0.01252405 -0.01310603 -0.01368006 -0.01424702 -0.01479198 -0.01531417
 -0.01579264 -0.01622577 -0.01661304 -0.01695543 -0.01727161 -0.01756231 -0.01784192 -0.01810895 -0.01836495 -0.01860851
 -0.01883632 -0.0190487 -0.01924503 -0.01942517 -0.01958939 -0.01973563 -0.01986245 -0.0199676 -0.02004945 -0.02010636
 -0.02013757 -0.02014118 -0.02011685 -0.02006177 -0.01997544 -0.01985575 -0.01970234 -0.01951441 -0.01929187 -0.01903497
 -0.01874411 -0.01842584 -0.01808241 -0.01773313 -0.01738054 -0.01704681 -0.01672994 -0.01643681 -0.01616222 -0.01589947
 -0.01564555 -0.01539395 -0.0151433 -0.01489173 -0.0146339 -0.01436636 -0.01408461 -0.01378281 -0.01347235 -0.01315281
 -0.01284689 -0.01256018 -0.01229778 -0.01206245 -0.01183769 -0.01162267 -0.01140015 -0.01116969 -0.01092574 -0.01066902
 -0.01040252 -0.01012645 -0.009843982 -0.009553219 -0.009251792 -0.008935178 -0.008594232 -0.008224739 -0.007816419 -0.007370444
 -0.006883422 -0.006360352 -0.005804072 -0.0052157 -0.004596585 -0.003945832 -0.003261608 -0.002552516 -0.001818263 -0.001076653
 -0.000329735 0.0004098624 0.001140897 0.001863401 0.002577311 0.00328311 0.003978977 0.00465122 0.005296723 0.005893925
 0.006442681 0.006931419 0.00736173 0.007732944 0.008042067 0.008286816 0.008458842 0.008549997 0.008553628 0.008461462
 0.008276545 0.007995798 0.007633007 0.007190264 0.006684402 0.006119208 0.005504087 0.004841088 0.004130172 0.003371397
 0.002566076 0.001714586 0.0008264894 -9.73198E-05 -0.001045589 -0.002017462 -0.00300466 -0.004003786 -0.005002615 -0.005994339
 -0.006960185 -0.007895152 -0.008783639 -0.009626856 -0.0104196 -0.01116718 -0.01187123 -0.01253702 -0.01316741 -0.01376494
 -0.01433139 -0.01486563 -0.01536796 -0.0158354 -0.0162675 -0.01666344 -0.01702304 -0.01734887 -0.01764105 -0.01790184
 -0.0181312 -0.01832926 -0.01849635 -0.01863341 -0.01874194 -0.01882658 -0.01888907 -0.01893519 -0.01896557 -0.0189834
 -0.01898898 -0.01898326 -0.01896767 -0.01894289 -0.01891172 -0.01887513 -0.01883677 -0.01879751 -0.01876177 -0.01873021
 -0.01870817 -0.01869627 -0.01869944 -0.01871818 -0.01875417 -0.01880734 -0.01887306 -0.01895041 -0.01902937 -0.01910896
 -0.01917908 -0.0192398 -0.01928593 -0.01931841 -0.01933672 -0.01934157 -0.01933385 -0.01931364 -0.01928113 -0.01923691
 -0.01918082 -0.01911548 -0.01904132 -0.01896309 -0.018882 -0.01880301 -0.01872744 -0.018658 -0.01859542 -0.01853935
 -0.01848997 -0.01844352 -0.01839974 -0.01835201 -0.01829979 -0.01823535 -0.01815825 -0.01806215 -0.01794721 -0.01781013
 -0.01765244 -0.01747457 -0.01728094 -0.01707635 -0.01686929 -0.01666816 -0.01648466 -0.01632817 -0.01621001 -0.01613781
 -0.0161178 -0.01615473 -0.01624553 -0.01639221 -0.0165802 -0.01680914 -0.01705595 -0.01731905 -0.01757534 -0.01782371
 -0.01805027 -0.01825531 -0.01843645 -0.01859459 -0.01873297 -0.01885189 -0.01895381 -0.01903873 -0.01910745 -0.01916087
 -0.01920026 -0.01922736 -0.01924452 -0.01925252 -0.01925299 -0.01924489 -0.01922816 -0.01920167 -0.01916482 -0.01911775
 -0.01906016 -0.0189936 -0.01891804 -0.01883623 -0.01874827 -0.01865842 -0.01856691 -0.01847812 -0.01839215 -0.01831145
 -0.01823576 -0.01816498 -0.01809866 -0.01803542 -0.01797478 -0.01791489 -0.01785577 -0.01779618 -0.01773767 -0.017681
 -0.01762877 -0.01758342 -0.01754539 -0.01751655 -0.01749258 -0.01747305 -0.01745157 -0.01742627 -0.01739499 -0.01735671
 -0.01731448 -0.01726834 -0.01722299 -0.01717868 -0.01713798 -0.0171009 -0.01706844 -0.01704071 -0.01701892 -0.01700333
 -0.01699552 -0.01699529 -0.01700311 -0.01701825 -0.01703977 -0.01706712 -0.01709922 -0.0171362 -0.01717807 -0.01722414
 -0.01727492 -0.01732654 -0.01737849 -0.01742468 -0.01746351 -0.01749157 -0.01750758 -0.01751424 -0.01751139 -0.01750582
 -0.01749788 -0.01749269 -0.01749009 -0.01749007 -0.01749179 -0.01749056 -0.0174858 -0.01747268 -0.01745188 -0.01742238
 -0.01738557 -0.01734374 -0.01729643 -0.01724488 -0.01718577 -0.01711713 -0.01703604 -0.0169396 -0.01682958 -0.01670505
 -0.01657223 -0.01643232 -0.01629054 -0.01614824 -0.01600533 -0.01586202 -0.01571598 -0.01556708 -0.01541609 -0.01526338
 -0.01511413 -0.0149684 -0.01482963 -0.01469663 -0.0145672 -0.01443973 -0.01430931 -0.01417542 -0.014035 -0.01388837
 -0.01373456 -0.01357455 -0.01340827 -0.01323825 -0.01306531 -0.01289327 -0.01272391 -0.01255873 -0.01239891 -0.01224205
 -0.01208795 -0.01193464 -0.01178163 -0.01163174 -0.01148509 -0.01134679 -0.01121684 -0.01109689 -0.01098603 -0.0108801
 -0.01077745 -0.01067009 -0.01055668 -0.01042992 -0.01028962 -0.01013212 -0.009958185 -0.00976754 -0.009560143 -0.009336419
 -0.009094452 -0.008833067 -0.008551775 -0.008248388 -0.007930609 -0.007597533 -0.00726847 -0.006944885 -0.006652294 -0.006393374
 -0.006185764 -0.006030711 -0.005927434 -0.005874747 -0.005855365 -0.005867324 -0.00588971 -0.00592188 -0.005950055 -0.005975389
 -0.005993385 -0.006006512 -0.006016309 -0.006026416 -0.006041407 -0.006064632 -0.006100702 -0.006150008 -0.006214943 -0.006291472
 -0.006379337 -0.006472068 -0.006568225 -0.006662045 -0.006752155 -0.006836526 -0.006914513 -0.006989136 -0.007060523 -0.007133003
 -0.007206471 -0.007280028 -0.007352776 -0.007418194 -0.007475963 -0.00752076 -0.007554262 -0.007577731 -0.007593416 -0.007606097
 -0.007616261 -0.007626775 -0.007636233 -0.00764442 -0.007650041 -0.007651742 -0.007650796 -0.007646529 -0.007643883 -0.007643513
 -0.007651858 -0.007670478 -0.007701052 -0.007744553 -0.007793717 -0.007848251 -0.007895716 -0.007935686 -0.007959903 -0.007969063
 -0.007963656 -0.007944932 -0.007918279 -0.007883797 -0.007844916 -0.007800092 -0.007748228 -0.007687798 -0.007615612 -0.007533452
 -0.007440287 -0.007342701 -0.007243051 -0.007150369 -0.007068513 -0.007004243 -0.006960286 -0.00693927 -0.006942217 -0.006969137
 -0.007020296 -0.007093749 -0.00718947 -0.00730204 -0.007430946 -0.00756694 -0.007709271 -0.007848051 -0.007983184 -0.008108602
 -0.008225496 -0.00833377 -0.008434897 -0.008531808 -0.008624535 -0.008714977 -0.008800727 -0.008880464 -0.008951902 -0.00901243
 -0.009064018 -0.009105452 -0.009144693 -0.009182933 -0.009229893 -0.009287619 -0.009361599 -0.009452981 -0.009561298 -0.009686649
 -0.009826061 -0.009979323 -0.01014268 -0.01031564 -0.01049297 -0.01067382 -0.01085181 -0.01102629 -0.0111922 -0.01134942
 -0.01149523 -0.01163015 -0.01175335 -0.01186667 -0.01197064 -0.01206917 -0.01216441 -0.01226027 -0.01235924 -0.01246202
 -0.01256979 -0.01267985 -0.01279199 -0.01290333 -0.01301343 -0.01312145 -0.01322729 -0.01333125 -0.0134333 -0.01353311
 -0.01363041 -0.01372337 -0.01381125 -0.01389009 -0.01395912 -0.01401395 -0.01405485 -0.01407961 -0.01409048 -0.01408915
 -0.01407836 -0.01406125 -0.01403927 -0.01401432 -0.01398664 -0.01395631 -0.01392525 -0.01389358 -0.01386491 -0.01383998
 -0.01382117 -0.01380913 -0.01380222 -0.01380046 -0.01380013 -0.01380108 -0.01380069 -0.01379903 -0.01379535 -0.01378983
 -0.01378295 -0.01377471 -0.01376555 -0.01375494 -0.01374231 -0.01372643 -0.01370557 -0.01367842 -0.01364294 -0.01359912
 -0.01354589 -0.01348521 -0.01341722 -0.01334526 -0.01326995 -0.01319555 -0.01312291 -0.01305529 -0.01299349 -0.0129367
 -0.01288511 -0.01283221 -0.01277762 -0.01271273 -0.0126378 -0.01255038 -0.01245257 -0.01235184 -0.01225139 -0.0121645
 -0.01209242 -0.01204493 -0.01201906 -0.01201596 -0.01202908 -0.01205333 -0.01208156 -0.01210768 -0.01212732 -0.01213668
 -0.01213547 -0.01212246 -0.01210028 -0.01206924 -0.01203149 -0.01198751 -0.01193677 -0.01187927 -0.01181402 -0.01174106
 -0.01166222 -0.01157777 -0.01149086 -0.01140115 -0.01130884 -0.01121297 -0.01111052 -0.0110013 -0.0108831 -0.01075723
 -0.01062442 -0.01048646 -0.0103453 -0.01020226 -0.01005868 -0.00991556 -0.009773416 -0.00963372 -0.009496805 -0.009364719
 -0.009237993 -0.009117636 -0.009004099 -0.008895308 -0.008791116 -0.00868993 -0.008591844 -0.008502054 -0.008421531 -0.008361906
 -0.008323116 -0.008312216 -0.008325947 -0.008359008 -0.008406363 -0.008455249 -0.008502207 -0.008536736 -0.008557975 -0.008561086
 -0.008547177 -0.008514889 -0.008467981 -0.008406895 -0.008338393 -0.008264342 -0.008191078 -0.008120792 -0.008053894 -0.007991284
 -0.007927123 -0.00786106 -0.0077875 -0.007706274 -0.007618373 -0.007524391 -0.007430887 -0.007337809 -0.007248802 -0.007162296
 -0.007075387 -0.006986505 -0.006890545 -0.006787805 -0.006676068 -0.00655744 -0.006432627 -0.006305352 -0.006177768 -0.006054654
 -0.005939011 -0.005832984 -0.005738972 -0.005652525 -0.005573784 -0.005494663 -0.00541388 -0.00532747 -0.005234704 -0.005138973
 -0.005040498 -0.004946618 -0.004857637 -0.004779748 -0.004712192 -0.004655045 -0.004605921 -0.004557495 -0.004507441 -0.004446418
 -0.004375428 -0.004291036 -0.004197477 -0.004097719 -0.003995576 -0.003894959 -0.003797049 -0.003703508 -0.00361409 -0.003529079
 -0.003447926 -0.003370712 -0.003296021 -0.003223684 -0.00315246 -0.003082169 -0.003013185 -0.002945519 -0.002879719 -0.002815514
 -0.002750363 -0.002683517 -0.002609527 -0.00252813 -0.00243496 -0.00233166 -0.002218991 -0.002100377 -0.00198114 -0.001864329
 -0.00175571 -0.001655113 -0.001564941 -0.001481743 -0.001404777 -0.001329868 -0.001255252 -0.001179119 -0.001100191 -0.001021022
 -0.0009414353 -0.0008669088 -0.0007979549 -0.0007380015 -0.0006871943 -0.0006418751 -0.0006013181 -0.0005558515 -0.0005050571 -0.0004409267
 -0.0003650455 -0.0002777183 -0.0001824242 -8.708573E-05 5.758936E-06 8.781636E-05 0.0001605546 0.0002212087 0.0002756196 0.0003268427
 0.0003807293 0.0004416389 0.0005106758 0.0005898376 0.0006757934 0.0007683169 0.0008635786 0.0009611085 0.001057304 0.001151873
 0.001241055 0.001324643 0.001401281 0.001471276 0.001538178 0.00160226 0.00166742 0.001732584 0.001796149 0.001856859
 0.001910196 0.001957647 0.001998656 0.002037484 0.002078522 0.002125233 0.002182223 0.002249325 0.002328534 0.002415547
 0.002509735 0.002605572 0.002701245 0.002795283 0.002886507 0.002980267 0.003076843 0.003182356 0.003297159 0.003419598
 0.003549164 0.003678474 0.003807435 0.003931546 0.004051721 0.004169192 0.004284004 0.00439763 0.004507839 0.004612005
 0.004707314 0.004789077 0.004857121 0.004908862 0.00494802 0.004975533 0.004995747 0.005010704 0.005021913 0.005030043
 0.005035853 0.00503893 0.005044643 0.005053241 0.00507225 0.005102125 0.005144602 0.005199271 0.005260592 0.005328069
 0.005395708 0.005463906 0.00553092 0.005597419 0.005663887 0.005731401 0.005801457 0.005876225 0.005958242 0.006050697
 0.006156229 0.006279236 0.006422742 0.006589805 0.006785544 0.006996812 0.007226176 0.007434787 0.007615605 0.007748429
 0.007827351 0.00788559 0.0079247 0.00798274 0.008059611 0.008160007 0.008280004 0.008397034 0.008508237 0.008589943
 0.008644255 0.008663983 0.008653541 0.008617 0.008558307 0.008483158 0.008395655 0.008300557 0.008201587 0.008102175
 0.008003821 0.007907566 0.007815016 0.007725803 0.007646165 0.007576464 0.007526023 0.007496003 0.007490968 0.007511362
 0.00755205 0.007612448 0.007682464 0.007761697 0.007842527 0.007925197 0.008006283 0.008086816 0.008166686 0.008249159
 0.008339525 0.00844113 0.008563799 0.008697917 0.00884577 0.008975548 0.009071792 0.009104463 0.009052599 0.00892409
 0.008710519 0.008457989 0.008170577 0.007901477 0.007657247 0.007468145 0.007336822 0.007260753 0.007238728 0.007248427
 0.007288566 0.00733943 0.007401743 0.007468374 0.00753963 0.007613728 0.007688134 0.007757869 0.007819987 0.007868105
 0.007902883 0.007922131 0.007929095 0.007924887 0.007912649 0.007893023 0.007871622 0.00784879 0.007835302 0.007833089
 0.007850071 0.007888327 0.007940918 0.008007751 0.008071599 0.00813205 0.008181246 0.008221073 0.008261666 0.008304516
 0.008362511 0.008432591 0.008514353 0.008601607 0.008682988 0.008754035 0.008804173 0.008832463 0.008833247 0.008811183
 0.008764722 0.008708115 0.008644923 0.008593479 0.008560652 0.008552361 0.008573001 0.008608425 0.008658062 0.00870411
 0.008745114 0.008777951 0.008802877 0.008827479 0.008851314 0.008875357 0.008896878 0.008904926 0.008897229 0.008860814
 0.008797889 0.00870446 0.008588912 0.00845853 0.008325578 0.008203216 0.008100155 0.008027208 0.00798188 0.0079679
 0.007971991 0.007991937 0.008013637 0.008033791 0.008045766 0.008048151 0.008040496 0.008022724 0.007993402 0.007952338
 0.007894911 0.007821375 0.007730426 0.007624667 0.007513637 0.007401779 0.0073071 0.007230463 0.007184641 0.00716132
 0.007156617 0.007157685 0.007149812 0.007129889 0.007089131 0.007037306 0.006977035 0.006914366 0.00685391 0.006786712
 0.006711832 0.006621044 0.006511709 0.006394811 0.006270501 0.006162613 0.006071527</values></Ydata></AB><ScSm><Ydata ylabel="Single channel"><values byteorder="INTEL" format="FLOAT32" numvalues="1814"> 0.0841125 0.08422321 0.0843509 0.08449701 0.08465233 0.08480327 0.08494008 0.08506252 0.0851755 0.08527853
 0.08536931 0.08546001 0.0855753 0.08572637 0.08589572 0.08605172 0.08617288 0.08626433 0.08635736 0.0864806
 0.08662012 0.08671808 0.08672623 0.08666055 0.08659375 0.08659022 0.08666237 0.08680694 0.08704901 0.08737938
 0.08766214 0.08772023 0.08755657 0.08738959 0.08741141 0.08759408 0.08777674 0.08784474 0.08777805 0.08763652
 0.08757973 0.08781482 0.08840896 0.08913802 0.08955622 0.08925182 0.08812054 0.08651522 0.08516225 0.08478218
 0.08557004 0.08697886 0.08812933 0.08851812 0.08829027 0.08786564 0.08750102 0.08728182 0.08731437 0.0877084
 0.08839835 0.08907092 0.08928569 0.08876346 0.08770163 0.08674091 0.08644246 0.08685158 0.08769213 0.0887031
 0.08939356 0.08879085 0.08629836 0.08300684 0.08136113 0.08290301 0.08665693 0.09014345 0.09163801 0.09108859
 0.08940235 0.08764264 0.08674474 0.08719656 0.08872239 0.09055699 0.09205231 0.09284966 0.09272109 0.09167765
 0.0901825 0.08895335 0.08856112 0.08926436 0.09090817 0.092767 0.09383181 0.0936024 0.09246306 0.09118474
 0.09035521 0.09034963 0.09136444 0.09318674 0.09520905 0.09687646 0.09797755 0.09852795 0.09863468 0.09847109
 0.09819057 0.09790583 0.09780817 0.09807096 0.09851353 0.09863502 0.09817168 0.09745373 0.09707148 0.09726633
 0.09772311 0.09795158 0.09777352 0.09723622 0.09611514 0.09401973 0.09119393 0.08864707 0.08716993 0.08677855
 0.08735301 0.08897344 0.09114364 0.09255029 0.0923821 0.0914226 0.09120303 0.09234522 0.09416768 0.09567721
 0.09653379 0.09710941 0.0979068 0.09899189 0.0998492 0.09976523 0.09855919 0.09703645 0.09645393 0.09730493
 0.09883763 0.09997635 0.1004505 0.100764 0.101306 0.1017872 0.101493 0.1000489 0.09806468 0.09692251
 0.09763855 0.09985847 0.1020417 0.1026274 0.1011444 0.09846509 0.096074 0.09500006 0.09541401 0.09705087
 0.09957924 0.1024459 0.1047885 0.1058726 0.1055998 0.1044859 0.1030993 0.1015314 0.09960087 0.09768037
 0.09691705 0.09816147 0.100878 0.10357 0.1051611 0.1055945 0.1052299 0.1041196 0.1020977 0.0995242
 0.09762084 0.09756932 0.09916492 0.1008635 0.1014218 0.1010614 0.1007704 0.1009552 0.101218 0.1011778
 0.1010392 0.1012987 0.1021079 0.1030774 0.103688 0.103768 0.103533 0.1032798 0.1031047 0.1028479
 0.1023393 0.1017754 0.1017078 0.1024639 0.1037099 0.1047856 0.1053558 0.1055464 0.1055472 0.1052888
 0.1045642 0.1034393 0.102451 0.1022262 0.1028723 0.1038959 0.1047275 0.1051461 0.1052195 0.1050856
 0.1048599 0.1046088 0.1043684 0.1042245 0.104295 0.1045737 0.1048853 0.1050584 0.1050671 0.1049699
 0.1047953 0.1045374 0.104227 0.1039599 0.1038368 0.1038811 0.1040316 0.1042074 0.1043442 0.1043828
 0.1042892 0.1040998 0.1038959 0.1037293 0.1036038 0.103523 0.1035075 0.1035577 0.1036289 0.1036649
 0.1036449 0.1035855 0.1035049 0.1034052 0.1032902 0.1031817 0.1031105 0.1030952 0.1031241 0.103162
 0.103189 0.1032242 0.1032846 0.1033338 0.1033135 0.1032206 0.1031156 0.1030571 0.1030551 0.1030842
 0.1031127 0.1031126 0.1030588 0.102945 0.1028106 0.1027325 0.1027654 0.1029011 0.1030945 0.1033042
 0.1034919 0.1036225 0.103694 0.1037416 0.1037934 0.1038413 0.1038684 0.103885 0.1039293 0.1040364
 0.1042035 0.104387 0.1045398 0.1046461 0.104719 0.1047855 0.1048791 0.1050129 0.1051495 0.1052324
 0.1052578 0.1052866 0.1053705 0.1054933 0.1055984 0.1056554 0.1056863 0.1057343 0.1058168 0.1059156
 0.1060071 0.106092 0.1061916 0.1063167 0.1064411 0.1065131 0.1065051 0.1064495 0.1064082 0.1064106
 0.1064418 0.1064854 0.1065472 0.1066313 0.1067147 0.1067631 0.1067675 0.1067532 0.1067513 0.1067635
 0.1067639 0.1067316 0.1066733 0.1066126 0.106568 0.106542 0.1065233 0.1064947 0.1064441 0.1063715
 0.1062855 0.1061943 0.1061002 0.1060051 0.1059241 0.105883 0.1058866 0.1058912 0.1058311 0.1056814
 0.1054844 0.1053069 0.1051813 0.1050903 0.1049979 0.1048838 0.1047539 0.1046274 0.1045194 0.1044314
 0.1043551 0.1042832 0.1042204 0.1041855 0.1041935 0.1042306 0.1042551 0.1042341 0.1041759 0.1041169
 0.1040843 0.1040817 0.104101 0.104134 0.1041764 0.1042306 0.1043005 0.1043762 0.1044369 0.1044754
 0.1045108 0.1045715 0.1046739 0.1048174 0.1049839 0.1051396 0.1052567 0.1053423 0.1054328 0.1055571
 0.1057135 0.1058861 0.1060678 0.1062601 0.1064627 0.1066737 0.106898 0.1071454 0.1074208 0.1077186
 0.1080247 0.1083246 0.1086133 0.1089015 0.1092086 0.1095458 0.109906 0.1102704 0.1106248 0.1109709
 0.1113208 0.1116816 0.1120479 0.1124128 0.1127823 0.1131701 0.1135795 0.1139991 0.1144165 0.1148292
 0.1152413 0.1156547 0.1160673 0.1164794 0.1169003 0.1173421 0.117801 0.1182496 0.1186595 0.1190315
 0.1193958 0.1197827 0.1201981 0.1206239 0.1210331 0.1214081 0.1217559 0.1221047 0.1224752 0.1228585
 0.1232329 0.1235981 0.1239801 0.1243959 0.1248234 0.125216 0.1255473 0.1258367 0.1261275 0.1264408
 0.1267584 0.1270514 0.127317 0.1275774 0.127848 0.1281242 0.1284016 0.1286929 0.1290095 0.1293376
 0.1296474 0.1299235 0.1301744 0.1304141 0.1306442 0.1308554 0.1310398 0.1312033 0.1313661 0.131546
 0.1317403 0.1319343 0.1321267 0.1323344 0.1325693 0.1328244 0.133092 0.1333792 0.1336933 0.1340222
 0.1343478 0.1346753 0.1350283 0.1354071 0.1357731 0.1360877 0.1363547 0.136608 0.1368692 0.1371398
 0.137425 0.1377415 0.1380963 0.138473 0.1388434 0.1391885 0.1395131 0.1398422 0.1401951 0.1405561
 0.1408823 0.1411459 0.1413631 0.1415766 0.1418199 0.1420984 0.1423955 0.1426883 0.1429598 0.1431981
 0.1433862 0.1435045 0.1435504 0.1435462 0.1435136 0.143445 0.1433084 0.1430766 0.1427388 0.1422869
 0.1417044 0.1409828 0.1401498 0.1392817 0.1384877 0.1378761 0.1375249 0.1374716 0.1377156 0.1382182
 0.1388994 0.1396474 0.140343 0.1408806 0.1411762 0.1411749 0.1408662 0.1402907 0.1395214 0.138635
 0.1376959 0.1367527 0.1358433 0.1350149 0.1343537 0.1339919 0.1340742 0.1347065 0.1359188 0.1376419
 0.1396997 0.1418464 0.1438557 0.1456054 0.1470911 0.1483711 0.1495072 0.1505448 0.1515169 0.1524438
 0.1533279 0.1541609 0.1549384 0.1556621 0.1563288 0.1569234 0.157424 0.1578116 0.15808 0.1582428
 0.1583308 0.1583763 0.158404 0.1584325 0.1584679 0.1584849 0.1584245 0.1582231 0.1578487 0.1573189
 0.1567091 0.1561629 0.1558848 0.1560913 0.1569207 0.1583493 0.1601835 0.1621465 0.1639967 0.1655914
 0.1668843 0.1678968 0.1686929 0.1693471 0.1699154 0.1704288 0.1709049 0.1713579 0.1717982 0.1722313
 0.1726585 0.1730784 0.1734912 0.1739013 0.1743125 0.1747221 0.1751251 0.1755226 0.175925 0.1763408
 0.1767661 0.1771867 0.177596 0.1780015 0.1784116 0.1788194 0.1792096 0.1795787 0.1799403 0.1803114
 0.1807002 0.1811044 0.1815107 0.1818996 0.1822579 0.1825897 0.1829118 0.1832373 0.1835678 0.1838992
 0.1842297 0.1845596 0.1848874 0.1852113 0.1855325 0.1858538 0.1861726 0.1864797 0.1867693 0.1870473
 0.1873268 0.1876163 0.1879133 0.1882094 0.1885 0.1887897 0.1890881 0.1893988 0.1897134 0.1900185
 0.1903089 0.1905906 0.1908727 0.1911595 0.1914509 0.1917449 0.1920387 0.1923294 0.1926164 0.1929019
 0.1931888 0.1934775 0.1937647 0.1940461 0.1943202 0.1945907 0.1948634 0.1951423 0.1954277 0.195717
 0.196007 0.1962944 0.1965753 0.1968462 0.1971063 0.197359 0.1976111 0.197869 0.1981353 0.1984059
 0.198675 0.1989407 0.1992051 0.1994708 0.1997398 0.2000145 0.2002953 0.2005787 0.2008583 0.2011297
 0.2013929 0.2016526 0.2019155 0.2021844 0.2024562 0.2027263 0.2029928 0.2032557 0.203516 0.2037754
 0.2040352 0.2042961 0.2045587 0.2048233 0.205089 0.2053539 0.205617 0.2058781 0.2061372 0.206396
 0.2066559 0.2069171 0.2071784 0.2074379 0.2076943 0.2079482 0.2082038 0.2084647 0.2087296 0.2089954
 0.2092603 0.209523 0.2097824 0.2100397 0.2102976 0.2105557 0.2108127 0.2110698 0.2113292 0.2115915
 0.2118555 0.2121196 0.2123821 0.2126427 0.2129026 0.2131621 0.2134203 0.2136778 0.2139366 0.2141987
 0.214467 0.214742 0.215019 0.2152923 0.2155622 0.2158322 0.2161046 0.2163816 0.216665 0.2169521
 0.2172364 0.2175141 0.2177851 0.218049 0.218306 0.2185578 0.2188039 0.2190441 0.2192828 0.2195257
 0.2197743 0.2200255 0.2202758 0.2205227 0.2207684 0.2210207 0.2212839 0.2215534 0.2218235 0.2220923
 0.2223597 0.2226266 0.2228975 0.2231743 0.2234524 0.2237278 0.2240022 0.224278 0.224557 0.224842
 0.2251309 0.2254167 0.2256981 0.2259793 0.2262608 0.226541 0.2268242 0.2271131 0.2274026 0.2276891
 0.2279747 0.2282599 0.228542 0.2288226 0.2291062 0.2293939 0.2296864 0.2299829 0.2302769 0.2305648
 0.230852 0.2311416 0.2314292 0.2317147 0.232004 0.2322971 0.2325906 0.2328857 0.2331802 0.2334673
 0.2337497 0.234038 0.2343331 0.2346271 0.2349161 0.2351967 0.2354644 0.2357257 0.2359901 0.2362509
 0.2364821 0.2366265 0.2365379 0.2359134 0.2342484 0.2308397 0.2249195 0.2159604 0.2039892 0.1896797
 0.1741674 0.158698 0.1442912 0.1315991 0.1209747 0.1125979 0.1065684 0.1029977 0.1020818 0.1041945
 0.110007 0.1200874 0.133443 0.1462645 0.1533506 0.1520391 0.1446153 0.136241 0.130758 0.1288002
 0.129083 0.1303231 0.1320031 0.1342364 0.13733 0.1413297 0.1459697 0.1511104 0.1569948 0.1638716
 0.1715044 0.1792564 0.1866204 0.1935439 0.2002441 0.2068163 0.2130829 0.2187641 0.2236965 0.2278864
 0.2314464 0.2345257 0.2372568 0.2397281 0.2419988 0.2441019 0.2460024 0.2475796 0.2486997 0.2493215
 0.2495464 0.2495727 0.2495892 0.2496926 0.2498942 0.250179 0.2505364 0.250958 0.251436 0.2519635
 0.2525253 0.2531004 0.2536746 0.2542385 0.2547808 0.2552963 0.2557895 0.2562616 0.2567078 0.2571275
 0.2575254 0.2579061 0.2582746 0.2586381 0.259 0.25936 0.2597197 0.2600762 0.2604175 0.2607345
 0.2610285 0.261305 0.2615682 0.2618232 0.2620745 0.2623228 0.2625704 0.2628222 0.2630782 0.2633331
 0.263585 0.2638339 0.2640786 0.2643187 0.2645571 0.2647941 0.2650271 0.265256 0.2654835 0.2657121
 0.2659458 0.2661881 0.2664356 0.2666806 0.2669185 0.2671514 0.2673869 0.2676355 0.2679015 0.2681761
 0.2684472 0.2687122 0.2689762 0.2692416 0.2695089 0.2697794 0.2700539 0.2703327 0.2706172 0.270905
 0.2711839 0.2714399 0.2716691 0.2718806 0.2720908 0.2723145 0.2725539 0.2727987 0.2730406 0.2732816
 0.2735265 0.2737751 0.2740229 0.2742664 0.2745086 0.2747627 0.2750419 0.2753424 0.2756459 0.2759402
 0.2762287 0.2765195 0.2768161 0.2771187 0.2774233 0.277721 0.2780036 0.2782746 0.2785529 0.2788621
 0.2792093 0.2795728 0.2799208 0.2802411 0.2805461 0.2808558 0.281183 0.2815223 0.2818423 0.282109
 0.2823339 0.2825805 0.2829045 0.2832994 0.2837136 0.2841038 0.2844609 0.284796 0.2851204 0.285436
 0.2857331 0.2859981 0.2862344 0.2864807 0.2867883 0.2871669 0.2875691 0.2879418 0.2882731 0.288579
 0.2888741 0.2891662 0.289443 0.2896573 0.2897733 0.2898493 0.2900267 0.2903983 0.2909085 0.2914134
 0.2918227 0.2921553 0.2924678 0.2927818 0.2930878 0.2933539 0.2934941 0.2934159 0.2931851 0.2930787
 0.2933601 0.2940162 0.2947893 0.2954378 0.2958955 0.2962212 0.2964933 0.296756 0.2969916 0.2971209
 0.2970876 0.2969814 0.2970269 0.2973798 0.2979504 0.2985009 0.2988933 0.2991711 0.2994319 0.2997174
 0.299989 0.3001048 0.2998847 0.2993547 0.2989062 0.2990381 0.2998739 0.3010229 0.3019721 0.3025411
 0.302882 0.3031217 0.303174 0.3028995 0.3022804 0.3014237 0.3006055 0.3003179 0.3009503 0.3022908
 0.303609 0.3043874 0.3047691 0.3051905 0.3058136 0.306453 0.3068769 0.3070148 0.3069268 0.3066699
 0.306267 0.3058512 0.3057556 0.3062804 0.3073416 0.3084891 0.3093273 0.3098267 0.310146 0.3101734
 0.3094031 0.3075351 0.3052674 0.3041235 0.3050998 0.3076172 0.3101482 0.3117266 0.3124774 0.3129055
 0.313237 0.3133534 0.3127791 0.3108387 0.3075763 0.3045588 0.3039269 0.3062854 0.3100262 0.3128856
 0.3136737 0.3125178 0.3102899 0.3082045 0.3073877 0.3082635 0.3103728 0.3128397 0.3149012 0.3161194
 0.316406 0.3159707 0.3152334 0.3147157 0.3147154 0.3148581 0.3143293 0.3129326 0.3114699 0.3105069
 0.309335 0.3071302 0.3047918 0.3043851 0.3065864 0.3097042 0.31164 0.3120375 0.3119047 0.3115855
 0.3099303 0.3058088 0.3001986 0.2961621 0.2962246 0.2998539 0.3039884 0.3060464 0.3059693 0.3053512
 0.3051956 0.3048553 0.3030014 0.2995058 0.2961763 0.2951415 0.2964665 0.2980562 0.2979713 0.2957956
 0.2916361 0.2856252 0.2794933 0.2769012 0.2802145 0.287558 0.2944692 0.2977481 0.2964676 0.2906505
 0.2815825 0.2731752 0.2702109 0.2739381 0.2806166 0.2851355 0.2850458 0.2806749 0.2730398 0.2633854
 0.2542424 0.2491187 0.2502612 0.2568494 0.265182 0.270301 0.2685163 0.2603473 0.2512451 0.247496
 0.2503236 0.2550893 0.2567515 0.2546054 0.2512393 0.2489924 0.2486564 0.2499271 0.2517556 0.2531718
 0.2540346 0.2536736 0.2495124 0.2399269 0.228526 0.2222408 0.2241705 0.2310871 0.2387009 0.2459799
 0.2527436 0.256561 0.2553509 0.2515224 0.2504396 0.2546948 0.2616272 0.2666942 0.2680542 0.267311
 0.2665305 0.2657386 0.2639624 0.2619405 0.2621596 0.2657662 0.2707798 0.2742435 0.275196 0.2746881
 0.2738015 0.2727414 0.2713766 0.2696818 0.2677032 0.2655768 0.2635183 0.2615943 0.2596807 0.2577278
 0.2556921 0.252972 0.2484628 0.2420172 0.2356832 0.2323038 0.2325516 0.2345127 0.2364496 0.2380698
 0.2382204 0.233934 0.2243168 0.2140338 0.2101015 0.2151102 0.2251591 0.2342156 0.2388553 0.2386862
 0.234333 0.2271674 0.2208236 0.2205632 0.2291977 0.2441333 0.2597017 0.2719563 0.2801557 0.2845584
 0.2849464 0.281803 0.2776047 0.2758439 0.2786485 0.2853936 0.2931829 0.2981737 0.2972432 0.2905725
 0.2833958 0.2828296 0.2907831 0.3014022 0.3075346 0.3082385 0.307726 0.3086923 0.3100059 0.3104174
 0.3111632 0.3138816 0.3179153 0.3208526 0.3206861 0.3166624 0.3092711 0.3008166 0.2950528 0.2942339
 0.2966539 0.2986242 0.2982681 0.2955771 0.2900987 0.2819218 0.2745663 0.2731064 0.2784107 0.2858339
 0.2905128 0.2918935 0.2922426 0.2925508 0.2913654 0.2872268 0.2812464 0.2766226 0.2754965 0.2769272
 0.2784314 0.278674 0.2776899 0.2753365 0.2712792 0.2666101 0.2639905 0.2653037 0.2696596 0.2742783
 0.2770602 0.2778819 0.2777768 0.2776326 0.2777144 0.2778272 0.2777584 0.2778964 0.2792673 0.2824273
 0.2864805 0.2898828 0.2922058 0.2944657 0.2976372 0.301409 0.3046033 0.3064538 0.3072726 0.3080605
 0.3096092 0.3118522 0.3139304 0.314948 0.3148522 0.3146026 0.3153176 0.3172155 0.3195229 0.3213702
 0.3225311 0.3233097 0.3240449 0.3248271 0.3254601 0.3256391 0.3253734 0.3252373 0.3259405 0.3275834
 0.3295187 0.330989 0.3317352 0.3319592 0.331903 0.3316182 0.3310823 0.3303869 0.3297424 0.3293233
 0.3291481 0.329109 0.3290802 0.3289852 0.3288056 0.3285713 0.3283381 0.3281539 0.3280481 0.328054
 0.3282083 0.3285103 0.3289114 0.3293594 0.3298273 0.3302777 0.3306327 0.3308044 0.3307364 0.3303968
 0.3297537 0.3287773 0.3274507 0.3257504 0.3236434 0.3211896 0.3187195 0.316873 0.3163339 0.3173961
 0.3197363 0.3226008 0.325235 0.3272099 0.3284649 0.3291532 0.3294723 0.329574 0.3295442 0.3294109
 0.3291731 0.328839 0.328439 0.3280113 0.3275869 0.3271903 0.326841 0.326546 0.3262911 0.3260433
 0.3257651 0.3254305 0.3250291 0.324555 0.3239966 0.3233362 0.3225576 0.3216559 0.3206505 0.3195871
 0.3185217 0.3174952 0.3165162 0.315559 0.3145779 0.3135208 0.3123235 0.3109155 0.3092891 0.3075818
 0.306032 0.3047959 0.3038148 0.3028893 0.3018532 0.3006552 0.299315 0.2978646 0.2963342 0.2947525
 0.2931383 0.2914924 0.2897962 0.2880212 0.2861499 0.2841914 0.2821693 0.2801013 0.2779937 0.2758456
 0.2736329 0.2712793 0.2686504 0.2655823 0.2619249 0.2575831 0.2525516 0.2469404 0.2409641 0.2348822
 0.2289232 0.2232488 0.2179747 0.2132068 0.2090552 0.2056236 0.2029962 0.2012291 0.200349 0.200355
 0.2012218 0.2028995 0.2053111 0.2083454 0.2118485 0.2156252 0.219458 0.223146 0.2265563 0.2296615
 0.2325203 0.2352015 0.2377175 0.2400319 0.242112 0.2439543 0.2455648 0.2469365 0.24806 0.2489498
 0.2496508 0.2502157 0.2506793 0.2510507 0.2513259 0.251508 0.2516201 0.251705 0.2518109 0.2519749
 0.2522166 0.2525406 0.252941 0.2534075 0.2539317 0.2545137 0.2551613 0.2558791 0.256658 0.2574769
 0.2583233 0.2592109 0.2601806 0.2612851 0.2625702 0.2640601 0.2657489 0.2675929 0.2695082 0.2713777
 0.2730786 0.2745161 0.2756442 0.2764628 0.2769991 0.277286 0.277352 0.2772257 0.2769392 0.276521
 0.2759906 0.2753655 0.2746639 0.2738937 0.2730456 0.2721076 0.271089 0.2700254 0.2689565 0.2679028
 0.2668689 0.2658632 0.2649009 0.2639889 0.2631189 0.2622785 0.2614582 0.2606531 0.2598661 0.2591074
 0.258378 0.257656 0.2568983 0.2560526 0.2550747 0.2539439 0.252661 0.2512299 0.2496474 0.2479129
 0.2460394 0.2440544 0.2419934 0.2398851 0.2377379 0.2355383 0.2332599 0.2308772 0.2283936 0.2258693
 0.223404 0.2210807 0.2189291 0.2169353 0.2150669 0.2132913 0.2115892 0.209954 0.2083785 0.206856
 0.2053884 0.203983 0.2026442 0.201381 0.2002096 0.1991454 0.1982017 0.1973944 0.196733 0.1962078
 0.1957915 0.1954522 0.1951714 0.1949654 0.1948736 0.1949025 0.19499 0.1950426 0.1949998 0.1948626
 0.1946796 0.1945088 0.1943815 0.1942958 0.194231 0.1941426 0.1939467 0.1935376 0.1928212 0.1917291
 0.1902266 0.1883338 0.1861355 0.1837713 0.1814157 0.179242 0.1773726 0.17586 0.1746995 0.1738335
 0.1731636 0.1726105 0.172173 0.17192 0.1719278 0.1721967 0.1725917 0.172903 0.1730285 0.1730863
 0.1733077 0.1738411 0.1746663 0.175644 0.1766117 0.1774597 0.1781458 0.1786615 0.1790146 0.1792345
 0.1793512 0.1793676 0.1792754 0.1790735 0.1787597 0.1783365 0.1778278 0.1772511 0.176591 0.1758292
 0.1749684 0.1740097 0.1729487 0.17179 0.1705187 0.1690987 0.1675755 0.1661589 0.1651473 0.1647698
 0.1650683 0.1658751 0.1669264 0.1680385 0.169137 0.170131 0.170909 0.1715274 0.1722961 0.173572
 0.1754583 0.1776982 0.1798491 0.1815639 0.1827083 0.1832722 0.1832898 0.1828349 0.1819628 0.1806583
 0.1789295 0.1768914 0.1746829 0.1724092 0.1702015 0.1681966 0.1664595 0.1650143 0.1638677 0.1630084
 0.1624862 0.1620287 0.1600985 0.1544225 0.1452092 0.1372499 0.136313 0.1429347 0.1516838 0.1569989
 0.157924 0.1567968 0.1555695 0.1546691 0.1540188 0.1536725 0.1536644 0.1538851 0.1541299 0.154186
 0.1539524 0.1534256 0.1524701 0.1506004 0.1469665 0.1406525 0.1313604 0.1200399 0.1086814 0.09926006
 0.09276959 0.08902752 0.08709321 0.08591734 0.08493765 0.08427638 0.08440236 0.08563429 0.08795782 0.09117126
 0.09503117 0.09921759 0.1032814 0.1067865 0.1095408 0.111613 0.1131253 0.1141197 0.1146144 0.1146694
 0.1143652 0.1137793 0.1129857 0.1120213 0.1108647 0.109491 0.1079694 0.1065015 0.1053377 0.1046104
 0.1042487 0.1040821 0.103999 0.1039769 0.1040134 0.104097 0.1042219 0.1043942 0.1046318 0.104954
 0.1053443 0.1057362 0.1060574 0.1062756 0.1063939 0.1064185 0.1063293 0.1060931 0.1057344 0.1053589
 0.1050171 0.1045617 0.1037595 0.1025837 0.1013361 0.1004523 0.1001974 0.1005049 0.1010557 0.1015185
 0.1017588 0.1018479 0.101901 0.1019195</values></Ydata></ScSm><ScRf><Ydata ylabel="Single channel"><values byteorder="INTEL" format="FLOAT32" numvalues="1820"> 0.0697234 0.06985103 0.06996168 0.07005814 0.07014726 0.07023987 0.07034703 0.07047245 0.07060893 0.07074292
 0.07086324 0.07096766 0.07106033 0.0711432 0.07121812 0.07129823 0.07140478 0.07154483 0.07169957 0.07183826
 0.07194129 0.07201555 0.07209203 0.07219855 0.07232413 0.07241824 0.07243671 0.07238929 0.07233556 0.07233115
 0.07238977 0.07251215 0.07272087 0.07300571 0.07324684 0.07329256 0.07314888 0.07300541 0.07302561 0.07318427
 0.07334503 0.07341099 0.0733622 0.07324538 0.07319523 0.07339017 0.0738892 0.07450318 0.07485695 0.0746059
 0.07366338 0.07232438 0.07119736 0.07088764 0.07155949 0.07275195 0.07372396 0.07405308 0.07386494 0.07351483
 0.0732166 0.07303841 0.07306869 0.07340185 0.07398459 0.07455285 0.074735 0.07429712 0.07340855 0.07261049
 0.07237327 0.07273176 0.0734523 0.07431408 0.0748994 0.07438636 0.07227913 0.06950875 0.06813833 0.06945653
 0.07262882 0.07556441 0.07681806 0.07635316 0.07493605 0.07346163 0.07271581 0.07310667 0.07439953 0.07595001
 0.07721385 0.07789004 0.07778761 0.07691805 0.07567231 0.07465188 0.07433306 0.07493227 0.07632103 0.07789031
 0.07879121 0.07860272 0.07764818 0.0765766 0.07588456 0.07589003 0.0767573 0.07830328 0.08001521 0.08142823
 0.08236495 0.08283542 0.08292739 0.0827892 0.08255528 0.08232449 0.08225805 0.08249782 0.08288555 0.08299647
 0.0826111 0.08201237 0.08169942 0.08187349 0.08226605 0.08246447 0.08232249 0.08188165 0.08094849 0.07918906
 0.07681096 0.07467023 0.07343481 0.07311809 0.07362242 0.07501639 0.07687151 0.07806739 0.07792045 0.07710581
 0.07692629 0.07790443 0.07945707 0.08074318 0.08147973 0.08198474 0.08268106 0.08361812 0.08435556 0.0842915
 0.08328038 0.08201158 0.08154897 0.08230035 0.08361894 0.08459465 0.08500858 0.08529514 0.08578096 0.08621262
 0.08598101 0.08477494 0.08312098 0.08219314 0.08284405 0.08476201 0.08663699 0.08714961 0.08590759 0.08365841
 0.08166585 0.08080254 0.08121066 0.08266476 0.08488423 0.0873968 0.08946348 0.09045225 0.0902748 0.0893718
 0.08823339 0.0869408 0.08533895 0.08375056 0.08316624 0.08431832 0.08674042 0.08913785 0.09058173 0.09102531
 0.0907812 0.08989379 0.08821832 0.08606736 0.08450237 0.0845468 0.08601721 0.08756956 0.08812734 0.08788942
 0.08771625 0.08795767 0.08826371 0.08830433 0.08826501 0.08858296 0.08938573 0.09032471 0.09094273 0.09109351
 0.09097035 0.09083451 0.09076798 0.09062766 0.09026543 0.08986153 0.08990598 0.09068215 0.09188478 0.09292664
 0.09351614 0.09377179 0.09386458 0.09373045 0.09318136 0.09227425 0.0914889 0.09138714 0.09206596 0.09308312
 0.09392624 0.09439508 0.09455089 0.09452087 0.09441285 0.09428903 0.09418111 0.09416159 0.09433061 0.09467971
 0.09505401 0.09530413 0.09540761 0.09541266 0.0953407 0.0951896 0.09499481 0.09484617 0.09483138 0.09496687
 0.09519622 0.0954475 0.0956625 0.09578566 0.09578401 0.09568963 0.09557998 0.09550752 0.09547803 0.09549102
 0.09556027 0.09568484 0.09582728 0.09593955 0.09600221 0.0960268 0.09602721 0.09600608 0.09596949 0.09593904
 0.09594332 0.09599899 0.09609526 0.09620008 0.09629565 0.09639966 0.09652682 0.09664257 0.09669215 0.09667098
 0.09663326 0.09663303 0.09668203 0.09675996 0.09683861 0.09688959 0.09688697 0.09682652 0.09674951 0.09672952
 0.096816 0.09699915 0.09723555 0.09748398 0.0977066 0.09787211 0.09798165 0.09806827 0.09815472 0.0982317
 0.09828536 0.09832928 0.09840199 0.0985368 0.09873043 0.09894112 0.0991237 0.09926115 0.09936236 0.09945142
 0.09956239 0.09971157 0.09986407 0.09996209 0.0999999 0.1000387 0.1001324 0.1002643 0.1003741 0.1004294
 0.1004548 0.1004971 0.100577 0.100679 0.1007803 0.1008789 0.1009912 0.1011243 0.1012523 0.101327
 0.1013229 0.1012699 0.1012248 0.1012163 0.1012351 0.1012718 0.1013348 0.1014258 0.1015174 0.1015729
 0.1015816 0.1015684 0.1015654 0.1015778 0.101582 0.1015555 0.101502 0.1014452 0.1014069 0.1013914
 0.1013851 0.1013687 0.101331 0.1012736 0.1012056 0.1011338 0.1010592 0.1009849 0.1009296 0.100922
 0.1009633 0.1010003 0.1009573 0.1008077 0.1006019 0.1004189 0.1002971 0.1002148 0.1001242 0.09999549
 0.09983436 0.09966763 0.09951791 0.09939006 0.09927571 0.09916739 0.09907021 0.09900184 0.09897357 0.09896605
 0.09893307 0.0988424 0.09870854 0.09857529 0.09847209 0.09839852 0.09834182 0.09829389 0.09825586 0.09823732
 0.09824522 0.09826675 0.09827432 0.0982558 0.09823003 0.09822764 0.09826829 0.09835498 0.09846976 0.09857292
 0.09862898 0.09864375 0.09866166 0.09872036 0.09882016 0.09893961 0.09906413 0.09919247 0.09932765 0.09947369
 0.09963708 0.09982352 0.1000322 0.1002548 0.1004791 0.1006955 0.1009037 0.1011161 0.1013486 0.1016079
 0.1018859 0.1021671 0.1024411 0.1027085 0.1029772 0.1032527 0.1035323 0.1038133 0.1041019 0.1044079
 0.1047309 0.1050582 0.1053786 0.1056916 0.1060025 0.1063149 0.1066307 0.1069544 0.1072965 0.1076653
 0.1080505 0.1084185 0.1087373 0.1090095 0.1092716 0.1095614 0.1098892 0.1102369 0.1105732 0.1108749
 0.1111457 0.1114145 0.1117036 0.1120058 0.1123024 0.1125991 0.112926 0.1132966 0.1136784 0.1140148
 0.114277 0.1144907 0.1147081 0.1149554 0.1152123 0.1154464 0.1156553 0.1158638 0.1160876 0.1163193
 0.1165528 0.1168006 0.1170729 0.1173535 0.1176124 0.1178385 0.118044 0.1182401 0.1184207 0.1185706
 0.1186835 0.1187734 0.1188693 0.1189933 0.119139 0.1192819 0.1194131 0.1195502 0.1197123 0.1198998
 0.1201052 0.1203303 0.1205778 0.1208351 0.1210856 0.1213369 0.1216154 0.121923 0.1222174 0.1224551
 0.1226414 0.1228181 0.1230115 0.123219 0.1234389 0.1236867 0.123972 0.1242804 0.1245844 0.1248675
 0.1251371 0.125418 0.1257251 0.1260399 0.1263211 0.1265452 0.1267303 0.1269172 0.1271348 0.1273858
 0.1276558 0.1279276 0.128189 0.1284298 0.1286354 0.128791 0.1288972 0.1289735 0.1290339 0.1290634
 0.1290268 0.1288974 0.1286688 0.1283372 0.1278896 0.1273172 0.126642 0.1259288 0.1252723 0.1247664
 0.124478 0.1244388 0.12465 0.125082 0.1256674 0.1263096 0.1269078 0.1273762 0.1276459 0.1276673
 0.1274264 0.1269545 0.126313 0.125566 0.1247655 0.1239496 0.1231485 0.1224026 0.1217895 0.1214305
 0.1214558 0.1219549 0.1229439 0.1243525 0.1260223 0.1277411 0.1293214 0.1306748 0.1318164 0.1328076
 0.1336995 0.1345214 0.135292 0.1360242 0.1367216 0.137381 0.1380009 0.1385821 0.1391211 0.139606
 0.1400199 0.1403496 0.1405931 0.1407622 0.1408743 0.1409411 0.140968 0.1409648 0.1409442 0.1409011
 0.1407992 0.1405879 0.1402357 0.1397549 0.139213 0.1387357 0.1384941 0.1386584 0.1393263 0.1404635
 0.1419087 0.1434476 0.1449001 0.1461591 0.1471837 0.1479856 0.1486143 0.1491319 0.1495842 0.1499954
 0.1503797 0.1507485 0.151109 0.1514634 0.1518106 0.1521501 0.1524863 0.1528262 0.1531705 0.1535107
 0.15384 0.1541644 0.1544981 0.1548487 0.1552079 0.1555597 0.1558977 0.1562317 0.156573 0.1569182
 0.1572532 0.1575721 0.1578829 0.158198 0.1585254 0.1588654 0.1592079 0.1595368 0.1598431 0.160133
 0.1604178 0.1607013 0.1609817 0.1612598 0.1615395 0.1618215 0.1621027 0.162382 0.1626621 0.1629444
 0.1632236 0.1634911 0.1637445 0.163992 0.1642438 0.1645026 0.1647628 0.1650184 0.1652694 0.1655224
 0.1657857 0.1660607 0.1663368 0.1665992 0.1668423 0.167074 0.1673071 0.167549 0.1677998 0.1680556
 0.1683121 0.1685664 0.1688178 0.169066 0.1693117 0.1695571 0.1698053 0.1700573 0.1703096 0.1705584
 0.1708043 0.1710506 0.1712976 0.171544 0.1717908 0.1720412 0.172294 0.1725425 0.172782 0.1730138
 0.1732424 0.1734701 0.173698 0.1739291 0.1741666 0.1744105 0.1746561 0.1748983 0.1751371 0.1753762
 0.1756172 0.1758585 0.1760991 0.1763408 0.1765844 0.1768281 0.1770701 0.1773109 0.1775517 0.1777927
 0.178033 0.1782718 0.1785084 0.178742 0.1789722 0.1792019 0.1794357 0.1796742 0.1799129 0.1801471
 0.1803782 0.1806106 0.180847 0.1810866 0.1813261 0.1815623 0.1817945 0.1820238 0.1822516 0.1824792
 0.1827108 0.1829493 0.1831918 0.1834318 0.1836667 0.1838995 0.1841338 0.1843697 0.1846038 0.1848341
 0.1850638 0.1852972 0.1855341 0.1857712 0.1860084 0.1862477 0.1864897 0.1867341 0.1869808 0.1872278
 0.1874716 0.1877117 0.18795 0.1881886 0.1884302 0.1886779 0.1889302 0.1891815 0.1894294 0.1896771
 0.1899277 0.1901814 0.1904367 0.1906914 0.1909441 0.1911954 0.1914453 0.1916919 0.1919339 0.1921721
 0.1924046 0.1926292 0.1928471 0.1930628 0.1932804 0.1935031 0.1937327 0.1939652 0.1941951 0.1944235
 0.1946569 0.1949013 0.1951587 0.1954247 0.1956878 0.1959384 0.1961796 0.1964219 0.1966715 0.1969273
 0.197184 0.1974357 0.1976846 0.19794 0.198205 0.1984713 0.1987318 0.198989 0.1992474 0.1995095
 0.1997772 0.2000484 0.2003169 0.200581 0.2008437 0.2011059 0.2013674 0.2016325 0.2019035 0.2021762
 0.2024491 0.2027244 0.2029991 0.2032673 0.2035308 0.2037947 0.2040613 0.2043322 0.2046085 0.2048846
 0.2051561 0.2054273 0.2057012 0.2059744 0.2062464 0.2065205 0.2067943 0.2070648 0.2073352 0.2076049
 0.2078681 0.2081265 0.2083853 0.208636 0.2088551 0.2089953 0.2089326 0.2083996 0.2069447 0.2039405
 0.198709 0.1907897 0.1802092 0.167561 0.1538472 0.1401722 0.1274419 0.1162317 0.1068477 0.09944549
 0.09411817 0.09097166 0.09018105 0.09207408 0.09724547 0.1062022 0.1180622 0.1294384 0.1357138 0.1345381
 0.1279554 0.1205491 0.1157137 0.1139958 0.114253 0.1153581 0.1168635 0.1188718 0.1216483 0.1252255
 0.1293647 0.1339436 0.1391822 0.1453047 0.1521026 0.1590088 0.1655693 0.1717346 0.1776999 0.1835569
 0.1891532 0.1942375 0.1986544 0.2024009 0.2055775 0.2083246 0.2107672 0.2129859 0.2150306 0.2169269
 0.2186415 0.2200685 0.2210907 0.2216731 0.2219045 0.2219584 0.2219997 0.2221146 0.2223159 0.2225925
 0.2229363 0.2233404 0.2237976 0.2242984 0.2248248 0.2253574 0.2258874 0.2264118 0.2269234 0.2274174
 0.2278953 0.2283535 0.2287837 0.2291851 0.229565 0.2299307 0.230289 0.2306477 0.2310074 0.2313628
 0.2317116 0.2320535 0.2323837 0.2326966 0.2329921 0.2332718 0.2335373 0.2337939 0.2340471 0.2342983
 0.2345475 0.2347965 0.2350464 0.235296 0.2355448 0.2357915 0.2360335 0.2362714 0.2365087 0.2367463
 0.2369829 0.2372199 0.2374593 0.2377006 0.2379441 0.23819 0.2384352 0.2386753 0.2389109 0.2391465
 0.2393861 0.2396331 0.2398893 0.240152 0.2404177 0.2406872 0.2409604 0.2412321 0.2414995 0.2417664
 0.2420368 0.2423105 0.242587 0.2428653 0.2431385 0.2433961 0.243632 0.2438503 0.2440626 0.2442805
 0.2445077 0.2447405 0.2449771 0.2452198 0.2454687 0.2457187 0.2459656 0.2462094 0.2464536 0.2467075
 0.2469807 0.2472728 0.2475711 0.2478642 0.248151 0.2484359 0.2487216 0.249009 0.2492968 0.2495809
 0.2498586 0.2501335 0.2504166 0.2507219 0.2510531 0.2513959 0.2517293 0.2520455 0.2523521 0.2526612
 0.2529816 0.2533105 0.2536235 0.2538919 0.2541229 0.2543681 0.2546762 0.2550461 0.2554374 0.2558126
 0.2561614 0.2564912 0.2568087 0.257111 0.2573891 0.2576385 0.2578724 0.2581281 0.2584449 0.2588235
 0.2592182 0.2595826 0.2599084 0.2602106 0.2604996 0.2607804 0.2610446 0.2612549 0.2613831 0.2614837
 0.261685 0.2620677 0.2625728 0.2630603 0.2634491 0.2637666 0.2640724 0.2643836 0.264685 0.264946
 0.2650942 0.2650524 0.2648819 0.2648296 0.2651286 0.2657636 0.2665013 0.2671248 0.2675753 0.2679064
 0.2681894 0.2684634 0.2687106 0.2688587 0.2688589 0.2687956 0.2688718 0.2692239 0.2697694 0.2702978
 0.2706915 0.2709909 0.2712781 0.2715842 0.2718722 0.2720153 0.2718522 0.2714083 0.2710399 0.2712
 0.2720006 0.2730872 0.2739943 0.2745563 0.2749082 0.2751636 0.2752459 0.2750332 0.2745112 0.2737762
 0.2730787 0.2728665 0.2734913 0.2747548 0.2759923 0.2767404 0.2771345 0.2775675 0.2781791 0.2788004
 0.2792284 0.2794067 0.2793883 0.279215 0.2788971 0.2785562 0.2785055 0.2790267 0.2800442 0.2811459
 0.2819716 0.2824933 0.2828492 0.2829294 0.2822713 0.280608 0.2785848 0.2775963 0.27855 0.2809116
 0.2832818 0.2847784 0.2855191 0.2859672 0.2863275 0.2864903 0.28602 0.2842983 0.2813665 0.2786646
 0.2781564 0.2803908 0.283885 0.2865623 0.2873366 0.28633 0.2843455 0.2824988 0.2818227 0.2827035
 0.2847162 0.2870564 0.2890247 0.29022 0.2905599 0.290235 0.2896317 0.2892332 0.2893142 0.2895264
 0.2891189 0.2879167 0.2866619 0.2858708 0.2848836 0.2829405 0.2808745 0.2805912 0.2827134 0.2856832
 0.2875711 0.2880501 0.2880432 0.2878571 0.2864277 0.2827216 0.2776537 0.2740557 0.2742536 0.2777457
 0.2816994 0.2837345 0.283804 0.2833821 0.283391 0.2832251 0.2816532 0.2785629 0.2756401 0.27486
 0.2762707 0.277918 0.2780084 0.2761665 0.2724857 0.267079 0.2615702 0.2594004 0.2627882 0.2699675
 0.2767489 0.280134 0.2792486 0.2740988 0.2658889 0.2583252 0.2559461 0.2599352 0.266741 0.2715164
 0.2719394 0.2683097 0.2615755 0.2529241 0.2448045 0.2406153 0.2425368 0.2497756 0.2587202 0.2645039
 0.2634865 0.2561719 0.2479335 0.2449707 0.248479 0.2538602 0.2561283 0.2545999 0.2518535 0.2502194
 0.2504955 0.2523806 0.2548127 0.2568083 0.2582207 0.2583423 0.2545117 0.2450588 0.2336874 0.2275043
 0.2296905 0.2369502 0.2449017 0.2524846 0.2594867 0.2633845 0.262031 0.2578986 0.2564886 0.2604585
 0.2670961 0.2717831 0.2726831 0.2714867 0.2703463 0.2693143 0.2674087 0.2653773 0.2657341 0.2696254
 0.2750321 0.278962 0.2804523 0.2805663 0.2803805 0.2800789 0.2795138 0.2786563 0.2775539 0.2763426
 0.2752336 0.2742796 0.2733361 0.2723404 0.2712365 0.2693623 0.2655054 0.2594832 0.2534867 0.2505648
 0.2514224 0.2539843 0.2563798 0.2582941 0.2584704 0.253687 0.2429651 0.2313378 0.2263871 0.2309163
 0.2407183 0.2492993 0.2530128 0.2515134 0.2455608 0.2366631 0.2286165 0.2268445 0.2342185 0.2480543
 0.2625327 0.2736273 0.2806273 0.2838701 0.2831976 0.2791185 0.2741002 0.2715843 0.2736222 0.2795344
 0.2864307 0.2905491 0.288887 0.2816775 0.2740355 0.2728619 0.2799967 0.2897743 0.2952823 0.2956037
 0.2947888 0.2954287 0.2964398 0.2966289 0.2971867 0.2996864 0.3035069 0.3063539 0.3063199 0.3026868
 0.2959145 0.2881933 0.2830963 0.2827501 0.2854824 0.2877373 0.2877231 0.2854453 0.2804713 0.2728962
 0.2661353 0.2650911 0.2705787 0.2780848 0.2829105 0.2845468 0.2852099 0.2858583 0.2850654 0.2814054
 0.2759845 0.2719636 0.2714627 0.2735622 0.2758173 0.2769045 0.2768275 0.2753907 0.2722145 0.2683793
 0.2665644 0.2686636 0.2737556 0.279001 0.2822494 0.2833465 0.2833042 0.2829965 0.2826955 0.2822368
 0.2814499 0.2807561 0.2811906 0.2833033 0.2861993 0.2883576 0.2893861 0.2903401 0.292235 0.2948042
 0.2969088 0.2977996 0.2977741 0.2977981 0.2986365 0.3002284 0.3017479 0.3023311 0.3019268 0.301456
 0.3019855 0.303709 0.3058684 0.3076214 0.3087468 0.3095297 0.3102846 0.3110863 0.3117332 0.311918
 0.3116364 0.3114343 0.3120039 0.313467 0.3152311 0.3165859 0.3172854 0.3175201 0.3175198 0.3173316
 0.3169249 0.316372 0.315859 0.3155442 0.3154462 0.3154717 0.3155179 0.3155326 0.3155153 0.3155022
 0.3155411 0.3156529 0.3158219 0.3160257 0.3162514 0.3164712 0.316642 0.3167519 0.3168368 0.3169225
 0.316972 0.3169083 0.316669 0.3162172 0.3155186 0.3145387 0.3132519 0.3116295 0.3096413 0.3073477
 0.3050641 0.3033992 0.3030006 0.3041406 0.3065 0.309351 0.3119704 0.3139505 0.3152378 0.3159813
 0.3163643 0.3165216 0.3165313 0.3164318 0.3162408 0.3159738 0.3156531 0.3153035 0.3149477 0.314606
 0.3142937 0.3140136 0.3137512 0.3134784 0.3131629 0.3127807 0.3123242 0.3117992 0.3112123 0.3105572
 0.3098122 0.3089559 0.307994 0.3069712 0.3059536 0.3049928 0.3040984 0.3032393 0.3023705 0.3014532
 0.3004369 0.2992506 0.2978703 0.2964134 0.2951083 0.2941104 0.2933617 0.2926576 0.2918307 0.2908381
 0.2897123 0.2884927 0.2872106 0.2858907 0.284543 0.2831567 0.2817083 0.2801746 0.2785428 0.2768156
 0.2750053 0.2731263 0.2711963 0.2692346 0.2672356 0.2651335 0.2627963 0.2600622 0.2567869 0.2528749
 0.2483 0.2431248 0.2375074 0.2316724 0.2258536 0.2202501 0.215019 0.2102916 0.2061831 0.2027898
 0.2001816 0.1984023 0.197474 0.1974018 0.198172 0.1997452 0.2020492 0.2049697 0.2083482 0.2119945
 0.2157062 0.2192955 0.2226287 0.2256688 0.2284678 0.2310949 0.2335662 0.235844 0.2378857 0.239674
 0.2412102 0.242501 0.2435618 0.2444234 0.2451286 0.2457185 0.2462205 0.2466475 0.2470027 0.2472862
 0.247503 0.2476706 0.2478172 0.2479712 0.2481509 0.2483649 0.2486189 0.2489221 0.249287 0.2497262
 0.2502464 0.2508452 0.2515103 0.2522275 0.2529923 0.2538154 0.2547187 0.2557309 0.2568827 0.2581968
 0.2596728 0.2612759 0.2629361 0.2645541 0.266023 0.2672579 0.2682155 0.2688909 0.2692983 0.2694573
 0.269392 0.2691357 0.2687265 0.2681946 0.2675589 0.2668374 0.2660529 0.2652227 0.2643481 0.2634207
 0.2624421 0.2614348 0.26043 0.2594448 0.2584789 0.2575319 0.2566131 0.2557322 0.2548889 0.2540766
 0.2532878 0.2525166 0.2517656 0.2510467 0.2503669 0.2497108 0.2490385 0.2482949 0.2474288 0.2464102
 0.2452323 0.2439003 0.2424239 0.2408187 0.2391001 0.2372763 0.2353526 0.2333379 0.2312434 0.2290772
 0.2268375 0.2245144 0.2221143 0.2196906 0.2173359 0.215131 0.2131058 0.2112435 0.209507 0.2078651
 0.2063045 0.2048218 0.2034073 0.2020485 0.2007429 0.1994945 0.1983046 0.1971782 0.1961299 0.1951777
 0.1943368 0.1936142 0.1930014 0.1924798 0.1920351 0.1916618 0.1913631 0.1911652 0.1911076 0.1911897
 0.1913381 0.1914489 0.1914607 0.1913831 0.191272 0.1911829 0.1911366 0.1911264 0.1911376 0.1911356
 0.1910408 0.1907446 0.1901447 0.1891623 0.1877568 0.1859541 0.1838505 0.1815898 0.1793396 0.1772607
 0.1754659 0.1740093 0.1728993 0.1720936 0.1714986 0.1710275 0.1706694 0.1704884 0.1705598 0.1708848
 0.1713319 0.1716944 0.1718706 0.1719774 0.1722488 0.1728403 0.173738 0.1748008 0.175856 0.1767826
 0.1775349 0.1781092 0.1785207 0.1788026 0.1789813 0.1790518 0.1790007 0.1788326 0.1785594 0.1781946
 0.1777595 0.1772568 0.1766569 0.1759398 0.1751191 0.1742088 0.1732088 0.1721193 0.1709192 0.1695663
 0.1681013 0.1667327 0.1657654 0.1654343 0.1657792 0.1666262 0.1677117 0.1688619 0.170012 0.1710734
 0.1719277 0.1726229 0.1734674 0.1748279 0.1768178 0.179177 0.1814493 0.1832779 0.1845279 0.185189
 0.1852885 0.1848902 0.1840462 0.1827469 0.1810094 0.1789538 0.1767227 0.1744305 0.1722199 0.1702313
 0.1685226 0.16711 0.1659979 0.1651767 0.1647007 0.1643005 0.1624248 0.156772 0.1475492 0.1395995
 0.1387526 0.1455455 0.1544854 0.1599529 0.1609777 0.1599075 0.1586993 0.157781 0.1570831 0.1566732
 0.1565975 0.1567535 0.1569366 0.1569333 0.1566496 0.1560945 0.1551359 0.1532729 0.1496257 0.1432497
 0.133834 0.1223446 0.1108157 0.1012672 0.09470451 0.09091383 0.08890927 0.08762345 0.08651683 0.08575345
 0.0858317 0.08707356 0.08944966 0.09274204 0.09669843 0.1009916 0.1051585 0.1087474 0.1115591 0.1136658
 0.1151957 0.116198 0.1167024 0.1167785 0.1165018 0.1159357 0.1151485 0.1141876 0.1130421 0.1116838
 0.1101686 0.1086896 0.1074974 0.1067313 0.1063344 0.1061518 0.1060774 0.1060771 0.1061333 0.106231
 0.1063697 0.1065556 0.1067962 0.1070993 0.1074467 0.1077832 0.108056 0.1082482 0.1083644 0.1083989
 0.1083168 0.1080768 0.1077026 0.1073005 0.1069184 0.1064065 0.1055381 0.104304 0.1030207 0.1021216
 0.1018565 0.1021487 0.1026807 0.1031223 0.1033305 0.1033711 0.1033696 0.1033463 0.1031866 0.1027702
</values></Ydata></ScRf><Data_Parameters_AB><parameter name="DPF">1</parameter><parameter name="NPT">3497</parameter><parameter name="FXV">3996</parameter><parameter name="LXV">500</parameter><parameter name="CSF">1</parameter><parameter name="MXY">0.0354526862502098</parameter><parameter name="MNY">-0.0788495168089867</parameter><parameter name="DAT">17/01/2024</parameter><parameter name="TIM">13:11:54.714 (GMT+1)</parameter><parameter name="DXU">WN</parameter></Data_Parameters_AB><AB__Qtest><MainReport name="Quality Test Report"><Header><Line><Legend>Test result ok/not ok [1/0]: </Legend><Value>0</Value></Line><Line><Legend>Method file: </Legend><Value>C:\Users\Public\Documents\Bruker\OPUS_8.2.28\QT\IRBT_v3_default.QT</Value></Line></Header><Matrix><Line><Legend></Legend><Legend>min</Legend><Legend>max</Legend><Legend>measured</Legend></Line><Line><Value>Absorption (X-Range 1):</Value><Value>0.400000</Value><Value>2.000000</Value><Value>0.059960</Value></Line><Line><Value>Noise (X-Range 4):</Value><Value></Value><Value>0.000300</Value><Value>0.000025</Value></Line><Line><Value>Signal/Noise (X-Range 2):</Value><Value>200.000000</Value><Value></Value><Value>45.905567</Value></Line><Line><Value>Signal/Noise (X-Range 3):</Value><Value>40.000000</Value><Value></Value><Value>19.547389</Value></Line><Line><Value>Water vapour (X-Range 5):</Value><Value></Value><Value>0.000300</Value><Value>0.000013</Value></Line><Line><Value>Signal/Water (X-Range 2):</Value><Value>100.000000</Value><Value></Value><Value>86.384567</Value></Line><Line><Value>Signal/Water (X-Range 3):</Value><Value>20.000000</Value><Value></Value><Value>36.784051</Value></Line><Line><Value>Fringes (X-Range 6):</Value><Value></Value><Value>0.000100</Value><Value>0.000024</Value></Line></Matrix></MainReport></AB__Qtest><Data_Parameters_ScSm><parameter name="DPF">1</parameter><parameter name="NPT">1814</parameter><parameter name="FXV">3996.63438082617</parameter><parameter name="LXV">499.579297603271</parameter><parameter name="CSF">1</parameter><parameter name="MXY">0.331959247589111</parameter><parameter name="MNY">0.0813611298799515</parameter><parameter name="DAT">17/01/2024</parameter><parameter name="TIM">13:11:54.714 (GMT+1)</parameter><parameter name="DXU">WN</parameter></Data_Parameters_ScSm><Data_Parameters_ScRf><parameter name="DPF">1</parameter><parameter name="NPT">1820</parameter><parameter name="FXV">4004.34989121387</parameter><parameter name="LXV">495.721542409425</parameter><parameter name="CSF">1</parameter><parameter name="MXY">0.31752011179924</parameter><parameter name="MNY">0.0681383311748505</parameter><parameter name="DAT">17/01/2024</parameter><parameter name="TIM">13:11:28.852 (GMT+1)</parameter><parameter name="DXU">WN</parameter></Data_Parameters_ScRf><Optic_Parameters_Rf><parameter name="APR">0</parameter><parameter name="APT">Open</parameter><parameter name="BMS">KBr</parameter><parameter name="DTC">RT-DLaTGS_IR-Biotyper [Microplate reader]</parameter><parameter name="HPF">0</parameter><parameter name="LPF">10.0</parameter><parameter name="LPV">4000</parameter><parameter name="PGR">0</parameter><parameter name="RCH">Module port</parameter><parameter name="RDX">0</parameter><parameter name="SRC">MIR</parameter><parameter name="VEL">10.0</parameter><parameter name="SON">Off</parameter></Optic_Parameters_Rf><Acquisition_Parameters_Rf><parameter name="ADT">1</parameter><parameter name="AQM">DD</parameter><parameter name="CFE">0</parameter><parameter name="COR">0</parameter><parameter name="DEL">0</parameter><parameter name="DLY">0</parameter><parameter name="HFW">8000</parameter><parameter name="LFW">0</parameter><parameter name="NSR">32</parameter><parameter name="PLF">AB</parameter><parameter name="RES">6</parameter><parameter name="RGN">-1</parameter><parameter name="STR">0</parameter><parameter name="TCL">MakeCompatibleScalar (0, {WSV=1.000000, ARV=0});</parameter><parameter name="TDL">37</parameter><parameter name="RPO">0</parameter></Acquisition_Parameters_Rf><FT_-_Parameters_Rf><parameter name="APF">B3</parameter><parameter name="HFQ">500</parameter><parameter name="LFQ">4000</parameter><parameter name="NLI">0</parameter><parameter name="PHR">24</parameter><parameter name="PHZ">ML</parameter><parameter name="SPZ">NO</parameter><parameter name="ZFF">1</parameter></FT_-_Parameters_Rf><Optic_Parameters_><parameter name="APR">0</parameter><parameter name="APT">Open</parameter><parameter name="BMS">KBr</parameter><parameter name="CHN">Module port</parameter><parameter name="DTC">RT-DLaTGS_IR-Biotyper [Microplate reader]</parameter><parameter name="HPF">0</parameter><parameter name="LPF">10.0</parameter><parameter name="LPV">4000</parameter><parameter name="PGN">0</parameter><parameter name="RDX">0</parameter><parameter name="SRC">MIR</parameter><parameter name="VEL">10.0</parameter><parameter name="SON">Off</parameter></Optic_Parameters_><FT_-_Parameters_><parameter name="APF">B3</parameter><parameter name="HFQ">500</parameter><parameter name="LFQ">4000</parameter><parameter name="NLI">0</parameter><parameter name="PHR">24</parameter><parameter name="PHZ">ML</parameter><parameter name="SPZ">NO</parameter><parameter name="ZFF">1</parameter></FT_-_Parameters_><Acquisition_Parameters_><parameter name="ADT">1</parameter><parameter name="AQM">DD</parameter><parameter name="CFE">0</parameter><parameter name="COR">0</parameter><parameter name="DEL">0</parameter><parameter name="DLY">0</parameter><parameter name="HFW">8000</parameter><parameter name="LFW">0</parameter><parameter name="NSS">32</parameter><parameter name="PLF">AB</parameter><parameter name="RES">6</parameter><parameter name="SOT">0</parameter><parameter name="TCL">MakeCompatibleScalar (0, {WSV=1.000000, ARV=0});</parameter><parameter name="TDL">37</parameter><parameter name="SPO">0</parameter><parameter name="SGN">-1</parameter></Acquisition_Parameters_><Instrument_Parameters_Rf><parameter name="HFL">15801.365274</parameter><parameter name="LFL">0</parameter><parameter name="LWN">15801.365274</parameter><parameter name="ABP">32157</parameter><parameter name="SSP">1</parameter><parameter name="ARG">2</parameter><parameter name="ASG">2</parameter><parameter name="ASS">32</parameter><parameter name="GFW">16</parameter><parameter name="GBW">16</parameter><parameter name="BFW">0</parameter><parameter name="BBW">0</parameter><parameter name="PKA">9116</parameter><parameter name="PKL">4987</parameter><parameter name="PRA">9130</parameter><parameter name="PRL">5010</parameter><parameter name="P2A">1</parameter><parameter name="P2L">1</parameter><parameter name="P2R">1</parameter><parameter name="P2K">1</parameter><parameter name="DAQ">0</parameter><parameter name="AG2">1</parameter><parameter name="SSM">1</parameter><parameter name="RSN">46320</parameter><parameter name="CRR">0</parameter><parameter name="SRT">1705497088.853</parameter><parameter name="DUR">19.6449890136719</parameter><parameter name="TSC">30.9</parameter><parameter name="MVD">0.320426344871521</parameter><parameter name="AN1">0.225988565932621</parameter><parameter name="AN2">0</parameter><parameter name="VSN">2.485 Apr  4 2017</parameter><parameter name="SRN">0085</parameter><parameter name="CAM">0</parameter><parameter name="INS">IR-Biotyper</parameter><parameter name="FOC">69</parameter><parameter name="RDY">1</parameter><parameter name="ARS">32</parameter></Instrument_Parameters_Rf><Sample_Parameters_><parameter name="BLD"></parameter><parameter name="CNM">Admin</parameter><parameter name="CPY"></parameter><parameter name="DPM"></parameter><parameter name="EXP">IRBT_v3_32Scans.XPM</parameter><parameter name="LCT"></parameter><parameter name="SFM">Microplate, HTS-XT</parameter><parameter name="SNM">240117-1222-Cdiff_SCFA_1_C7_232113953_G6_d1ddbca4-5573-4b07-beb8-af4aae29636c.0</parameter><parameter name="XPP">C:\Users\Public\Documents\Bruker\OPUS_8.2.28\XPM</parameter><parameter name="IST">OK</parameter><parameter name="CPG">1252</parameter><parameter name="UID">2d2f5df4-21f1-4d3b-9a57-0f148c06edb9</parameter></Sample_Parameters_><Instrument_Parameters_><parameter name="HFL">15801.365274</parameter><parameter name="LFL">0</parameter><parameter name="LWN">15801.365274</parameter><parameter name="ABP">32157</parameter><parameter name="SSP">1</parameter><parameter name="ASG">2</parameter><parameter name="ARG">2</parameter><parameter name="ASS">32</parameter><parameter name="GFW">16</parameter><parameter name="GBW">16</parameter><parameter name="BFW">0</parameter><parameter name="BBW">0</parameter><parameter name="PKA">9824</parameter><parameter name="PKL">4987</parameter><parameter name="PRA">9958</parameter><parameter name="PRL">5010</parameter><parameter name="P2A">1</parameter><parameter name="P2L">1</parameter><parameter name="P2R">1</parameter><parameter name="P2K">1</parameter><parameter name="DAQ">0</parameter><parameter name="AG2">1</parameter><parameter name="SSM">1</parameter><parameter name="RSN">23853</parameter><parameter name="CRR">0</parameter><parameter name="SRT">1705497114.715</parameter><parameter name="DUR">19.6439971923828</parameter><parameter name="TSC">30.9</parameter><parameter name="MVD">0.287631720304489</parameter><parameter name="AN1">0.226023459867159</parameter><parameter name="AN2">0</parameter><parameter name="VSN">2.485 Apr  4 2017</parameter><parameter name="SRN">0085</parameter><parameter name="CAM">0</parameter><parameter name="INS">IR-Biotyper</parameter><parameter name="FOC">69</parameter><parameter name="RDY">1</parameter></Instrument_Parameters_><History/></OPUSDataFile>
