<?xml version="1.0" encoding="UTF-8" ?>
<OPUSDataFile><AB><Ydata ylabel="Absorbance Units"><values byteorder="INTEL" format="FLOAT32" numvalues="3497"> -0.1032071 -0.103179 -0.103154 -0.1031315 -0.1031099 -0.1030891 -0.1030681 -0.1030474 -0.1030273 -0.1030086
 -0.1029922 -0.1029777 -0.1029655 -0.1029544 -0.1029438 -0.1029331 -0.1029221 -0.1029104 -0.1028984 -0.1028844
 -0.1028686 -0.1028486 -0.1028242 -0.1027971 -0.1027675 -0.1027398 -0.1027141 -0.1026912 -0.1026705 -0.1026486
 -0.1026259 -0.1026017 -0.1025779 -0.1025583 -0.1025436 -0.1025367 -0.1025358 -0.1025401 -0.102548 -0.1025584
 -0.1025701 -0.1025827 -0.1025939 -0.1026029 -0.102608 -0.1026082 -0.1026047 -0.1025976 -0.1025884 -0.1025773
 -0.1025631 -0.1025459 -0.1025252 -0.1025011 -0.102477 -0.1024529 -0.1024318 -0.1024129 -0.102395 -0.102377
 -0.1023553 -0.1023303 -0.1023001 -0.1022673 -0.1022334 -0.1022017 -0.1021751 -0.1021559 -0.1021463 -0.1021458
 -0.1021557 -0.1021708 -0.1021909 -0.102208 -0.102221 -0.1022234 -0.1022142 -0.1021943 -0.1021637 -0.1021294
 -0.1020919 -0.1020582 -0.1020281 -0.1020044 -0.1019869 -0.1019766 -0.101973 -0.1019769 -0.1019862 -0.1019987
 -0.10201 -0.1020143 -0.102009 -0.1019885 -0.1019583 -0.101918 -0.1018782 -0.1018431 -0.1018173 -0.1018039
 -0.1017962 -0.1017942 -0.1017865 -0.1017718 -0.1017465 -0.1017103 -0.1016711 -0.1016295 -0.1015951 -0.1015671
 -0.1015471 -0.1015335 -0.1015212 -0.1015093 -0.1014927 -0.1014727 -0.1014483 -0.1014224 -0.101398 -0.1013772
 -0.1013638 -0.1013541 -0.1013486 -0.10134 -0.1013252 -0.1013032 -0.1012718 -0.10124 -0.1012088 -0.1011855
 -0.1011712 -0.1011657 -0.1011691 -0.1011819 -0.1012042 -0.1012399 -0.1012874 -0.1013407 -0.1013938 -0.1014216
 -0.1014204 -0.1013625 -0.1012617 -0.101124 -0.100974 -0.100845 -0.1007435 -0.1006889 -0.1006683 -0.1006814
 -0.1007115 -0.1007528 -0.1007921 -0.1008252 -0.1008418 -0.100839 -0.1008139 -0.1007649 -0.1007036 -0.1006304
 -0.1005643 -0.1005055 -0.1004617 -0.1004314 -0.1004093 -0.1003949 -0.1003834 -0.1003764 -0.100376 -0.1003822
 -0.1003972 -0.1004172 -0.1004393 -0.1004583 -0.1004691 -0.1004675 -0.1004494 -0.100414 -0.1003585 -0.1002898
 -0.1002074 -0.1001263 -0.1000489 -0.09998736 -0.09994379 -0.09991796 -0.09991004 -0.09991109 -0.09992059 -0.09992956
 -0.09993758 -0.09993774 -0.09992974 -0.09990785 -0.09987388 -0.09982832 -0.0997757 -0.09972426 -0.09967635 -0.09963941
 -0.09960979 -0.09958759 -0.0995672 -0.09954499 -0.09951917 -0.09948783 -0.09945234 -0.09941239 -0.09937086 -0.09932787
 -0.099288 -0.09925173 -0.09922265 -0.09920105 -0.09918433 -0.09917212 -0.0991581 -0.09914244 -0.09912284 -0.09910029
 -0.0990777 -0.09905498 -0.09903385 -0.09901258 -0.09898877 -0.09896128 -0.09892696 -0.09888767 -0.09884319 -0.09879757
 -0.09875317 -0.0987124 -0.09867705 -0.09864683 -0.09862161 -0.09860278 -0.09859017 -0.09858793 -0.09859694 -0.0986152
 -0.09864285 -0.09866602 -0.09868405 -0.09868384 -0.09866681 -0.09863672 -0.09859501 -0.0985512 -0.09850179 -0.09844153
 -0.09836927 -0.09827664 -0.09817442 -0.09807181 -0.09798016 -0.0979159 -0.09787339 -0.0978571 -0.09784861 -0.09784122
 -0.09782317 -0.09778774 -0.09774079 -0.09768139 -0.09762251 -0.09756576 -0.09751736 -0.09747799 -0.09744501 -0.09741807
 -0.09739035 -0.09736146 -0.09732503 -0.09728173 -0.09723031 -0.09717285 -0.09711397 -0.09705602 -0.09700619 -0.09696347
 -0.0969315 -0.09690254 -0.09687211 -0.09683079 -0.0967691 -0.09669105 -0.09659312 -0.09649283 -0.09639502 -0.09630912
 -0.09623956 -0.09617733 -0.09612235 -0.09606141 -0.09599338 -0.09591715 -0.09583315 -0.09575186 -0.09567355 -0.09560579
 -0.09554648 -0.09549147 -0.09543731 -0.09537169 -0.09529448 -0.09519769 -0.0950878 -0.09496929 -0.09484971 -0.09473853
 -0.09463633 -0.09454715 -0.09446622 -0.09439316 -0.09432139 -0.09424999 -0.09416906 -0.09407694 -0.09396429 -0.09382906
 -0.09367353 -0.09349743 -0.09331273 -0.09311993 -0.09292769 -0.092736 -0.09254808 -0.09236436 -0.09218875 -0.0920211
 -0.09186363 -0.09171436 -0.09157078 -0.09143067 -0.09128999 -0.0911477 -0.09100142 -0.09085101 -0.09069552 -0.09053582
 -0.09037244 -0.09020451 -0.09003321 -0.08985095 -0.089657 -0.08944181 -0.08920306 -0.0889456 -0.08866913 -0.08839299
 -0.08811793 -0.0878564 -0.08760745 -0.08736871 -0.08713918 -0.08691271 -0.08669004 -0.0864699 -0.08625377 -0.08604492
 -0.08584173 -0.08564562 -0.08544829 -0.08524376 -0.08502175 -0.08477079 -0.08449608 -0.08419265 -0.08388513 -0.08358017
 -0.08329421 -0.08303431 -0.08279114 -0.08256529 -0.08233849 -0.08210912 -0.08187215 -0.08162769 -0.08138432 -0.08114225
 -0.08090742 -0.08067791 -0.08044827 -0.08021609 -0.07997061 -0.07971275 -0.0794377 -0.07915124 -0.07885887 -0.07856676
 -0.07828385 -0.07801037 -0.07775041 -0.07749802 -0.07725227 -0.07700536 -0.07675467 -0.07649542 -0.07622547 -0.07594706
 -0.07565954 -0.07537198 -0.07508509 -0.07480481 -0.07453114 -0.07425836 -0.07398566 -0.07370244 -0.07340997 -0.07310787
 -0.07279955 -0.07249536 -0.07219687 -0.07191332 -0.07164209 -0.07138415 -0.07113439 -0.07088837 -0.0706416 -0.07038925
 -0.0701305 -0.06986338 -0.06958994 -0.06931061 -0.06902623 -0.06873716 -0.06844294 -0.0681432 -0.06784095 -0.0675362
 -0.06723553 -0.06693918 -0.06664903 -0.06636446 -0.06607994 -0.06579509 -0.06550443 -0.0652095 -0.064912 -0.06461386
 -0.06432073 -0.06403171 -0.06374874 -0.06346819 -0.06318676 -0.0629027 -0.06261283 -0.06231993 -0.0620244 -0.06172927
 -0.06143609 -0.06114428 -0.06085404 -0.06056389 -0.06027333 -0.05998443 -0.05969727 -0.05941451 -0.05913621 -0.05886079
 -0.05858795 -0.05831385 -0.0580386 -0.05776052 -0.05748045 -0.05720004 -0.05692032 -0.05664439 -0.05637247 -0.05610657
 -0.05584563 -0.05558938 -0.05533659 -0.05508609 -0.05483785 -0.05459177 -0.05434718 -0.05410422 -0.05386067 -0.05361604
 -0.05336908 -0.05311926 -0.0528686 -0.05261724 -0.0523669 -0.05211762 -0.05186756 -0.05161653 -0.05136164 -0.05110323
 -0.05084151 -0.0505775 -0.05031417 -0.05005298 -0.04979855 -0.04955176 -0.0493165 -0.04909123 -0.04887673 -0.04866846
 -0.04846353 -0.04825829 -0.0480495 -0.04783807 -0.04762299 -0.04740862 -0.04719587 -0.0469873 -0.04678392 -0.04658273
 -0.04638372 -0.04618113 -0.04597471 -0.04576386 -0.04554924 -0.0453382 -0.04513134 -0.04493658 -0.04475216 -0.04457699
 -0.0444078 -0.04423633 -0.04406153 -0.04387709 -0.04368618 -0.04348908 -0.04329099 -0.04309604 -0.04290699 -0.04272712
 -0.04255423 -0.04238876 -0.04222617 -0.04206543 -0.04190374 -0.04174036 -0.04157524 -0.04140829 -0.04123991 -0.04107013
 -0.04090057 -0.04073146 -0.04056605 -0.04040433 -0.0402483 -0.04009707 -0.0399485 -0.03980194 -0.03965448 -0.0395068
 -0.03935882 -0.03921091 -0.03906396 -0.03891656 -0.0387677 -0.03861698 -0.03846302 -0.03830923 -0.03815592 -0.03800844
 -0.03786819 -0.03773815 -0.03761927 -0.03751065 -0.03741257 -0.03732003 -0.03723275 -0.03714344 -0.0370518 -0.03695187
 -0.03684422 -0.03672872 -0.03660683 -0.03648348 -0.03635993 -0.03624188 -0.03612898 -0.03602346 -0.03592373 -0.03582863
 -0.03573743 -0.03564874 -0.03556369 -0.03548248 -0.03540624 -0.03533599 -0.03526977 -0.03520771 -0.03514556 -0.03508245
 -0.03501702 -0.03494876 -0.03488158 -0.03481568 -0.03475503 -0.03469948 -0.03464754 -0.03459879 -0.03454934 -0.03450026
 -0.03445311 -0.03440987 -0.03437703 -0.03435341 -0.03434117 -0.03433542 -0.03433137 -0.03432543 -0.03431231 -0.03429317
 -0.03426702 -0.03423638 -0.03420229 -0.03416514 -0.03412505 -0.03408302 -0.03403902 -0.03399538 -0.03395249 -0.03390937
 -0.03386599 -0.03381794 -0.03376541 -0.03370982 -0.03365279 -0.03360559 -0.03356889 -0.03355265 -0.03355341 -0.03356851
 -0.0335925 -0.03361417 -0.03363245 -0.0336405 -0.03364263 -0.03364024 -0.03363656 -0.03363492 -0.03363266 -0.03362993
 -0.03362245 -0.03360854 -0.0335888 -0.03356251 -0.03353518 -0.03350727 -0.03348332 -0.03346368 -0.03344846 -0.03343746
 -0.03342746 -0.03341841 -0.03340806 -0.03339707 -0.03338672 -0.03337765 -0.03337244 -0.03337042 -0.03337209 -0.03337523
 -0.03337763 -0.03337685 -0.03337021 -0.033356 -0.03333224 -0.03329934 -0.03325621 -0.0332071 -0.03315235 -0.03309825
 -0.03304604 -0.03299928 -0.03295885 -0.03292211 -0.032889 -0.03285393 -0.0328167 -0.03277376 -0.0327253 -0.03267087
 -0.03261079 -0.03254617 -0.03247713 -0.03240422 -0.03232803 -0.03224902 -0.0321699 -0.03209314 -0.03202392 -0.03196762
 -0.03192707 -0.0319073 -0.03190227 -0.03191269 -0.03192486 -0.03193511 -0.03193454 -0.0319195 -0.03189639 -0.0318646
 -0.03184098 -0.03182656 -0.03183389 -0.031863 -0.03191403 -0.03198589 -0.03207117 -0.03216923 -0.03227371 -0.03238446
 -0.0324981 -0.03261408 -0.03272989 -0.03284511 -0.03295805 -0.03306907 -0.03317768 -0.03328504 -0.03339099 -0.03349911
 -0.03360925 -0.03373078 -0.03386548 -0.03402406 -0.03420989 -0.03442158 -0.03466072 -0.03490897 -0.03516535 -0.03540965
 -0.03564151 -0.03585619 -0.03605524 -0.03624798 -0.03643552 -0.0366278 -0.03682369 -0.0370256 -0.03723118 -0.03743747
 -0.03764211 -0.03784074 -0.03803234 -0.03821367 -0.03838741 -0.03855336 -0.03871717 -0.03888118 -0.03904911 -0.03922319
 -0.03940142 -0.0395844 -0.03976564 -0.03994462 -0.04011478 -0.04027561 -0.04042445 -0.04056143 -0.0406899 -0.04081081
 -0.04093308 -0.04105739 -0.04119207 -0.04133575 -0.04148958 -0.0416504 -0.0418128 -0.04197469 -0.04213051 -0.04228125
 -0.0424255 -0.04256575 -0.0427033 -0.04283946 -0.04297535 -0.04311047 -0.04324507 -0.04337765 -0.04350805 -0.04363476
 -0.04375751 -0.0438761 -0.04399037 -0.04410343 -0.04421551 -0.04433186 -0.04445264 -0.04458186 -0.04471896 -0.04486384
 -0.04501553 -0.04517143 -0.04533055 -0.04548983 -0.04564841 -0.04580386 -0.04595589 -0.0461029 -0.04624648 -0.0463867
 -0.04652656 -0.04666736 -0.04681124 -0.0469593 -0.0471116 -0.04726848 -0.04742881 -0.04759253 -0.04775832 -0.0479261
 -0.04809435 -0.04826297 -0.04842995 -0.0485952 -0.04875696 -0.04891541 -0.04907046 -0.04922237 -0.04937188 -0.04951908
 -0.04966431 -0.0498081 -0.04995085 -0.05009423 -0.05024019 -0.05038907 -0.05054278 -0.05069717 -0.05085159 -0.05099973
 -0.05113859 -0.05126879 -0.05138884 -0.05150775 -0.05162664 -0.05175079 -0.05188108 -0.05201051 -0.0521387 -0.05225699
 -0.05236626 -0.05247052 -0.05257194 -0.05268363 -0.05280503 -0.05294262 -0.05309182 -0.05324683 -0.05340301 -0.05355087
 -0.05368944 -0.05381327 -0.05392637 -0.05402871 -0.05412756 -0.05422607 -0.05432983 -0.05444232 -0.05456108 -0.05468705
 -0.05481186 -0.05493443 -0.05504967 -0.05515683 -0.05525877 -0.05535562 -0.05545023 -0.05554206 -0.05562703 -0.05570442
 -0.05576783 -0.05581884 -0.05585791 -0.05588912 -0.05592089 -0.05595678 -0.05600609 -0.05606857 -0.05614852 -0.05624088
 -0.05634425 -0.05645198 -0.05656021 -0.05666649 -0.05676857 -0.05686904 -0.05696826 -0.05706762 -0.05716789 -0.05726487
 -0.05735836 -0.05744282 -0.0575181 -0.05758599 -0.0576471 -0.05770875 -0.05777061 -0.0578355 -0.05790118 -0.0579619
 -0.05801628 -0.05805752 -0.0580882 -0.05810828 -0.0581229 -0.05813736 -0.05815494 -0.05818009 -0.05821224 -0.05825221
 -0.05829883 -0.05835119 -0.0584116 -0.05847987 -0.05856134 -0.05865689 -0.05876895 -0.05889815 -0.05903935 -0.05919218
 -0.05934521 -0.05949787 -0.05963967 -0.05977111 -0.05988875 -0.05999429 -0.060091 -0.06018098 -0.0602703 -0.06036022
 -0.06045545 -0.06055568 -0.06066293 -0.06077454 -0.06088989 -0.06100457 -0.06111643 -0.06122194 -0.06131865 -0.06140851
 -0.0614906 -0.06157272 -0.06165576 -0.06174642 -0.06184568 -0.06195176 -0.0620645 -0.06217474 -0.06228234 -0.0623821
 -0.06247547 -0.06256754 -0.06265947 -0.06275899 -0.06286348 -0.06297178 -0.06307929 -0.06317731 -0.06326627 -0.06334144
 -0.06341034 -0.06347695 -0.06354714 -0.06362662 -0.06371165 -0.06380305 -0.06389279 -0.06397846 -0.06405894 -0.06413318
 -0.06420664 -0.06427981 -0.06435539 -0.06443348 -0.06450852 -0.06458005 -0.0646406 -0.06469045 -0.06472661 -0.06475084
 -0.06476694 -0.0647776 -0.06479058 -0.06480788 -0.06483677 -0.06487579 -0.06492745 -0.06498563 -0.06504751 -0.06510513
 -0.0651537 -0.06518827 -0.06520545 -0.06520584 -0.06518842 -0.06515788 -0.06511462 -0.0650636 -0.06500538 -0.06494214
 -0.06487405 -0.06479978 -0.06471904 -0.06462777 -0.06452566 -0.06440859 -0.06427687 -0.06412898 -0.06396651 -0.06379212
 -0.06360776 -0.06341804 -0.06322327 -0.063026 -0.06282459 -0.06261825 -0.06240662 -0.06218819 -0.06196734 -0.06174456
 -0.06152647 -0.06131478 -0.06111363 -0.0609242 -0.06074626 -0.06057992 -0.06042409 -0.0602787 -0.06014463 -0.06002216
 -0.05991507 -0.05982399 -0.05975455 -0.05970696 -0.05968569 -0.0596891 -0.05971644 -0.05976392 -0.05982549 -0.05989712
 -0.05997219 -0.06004753 -0.06011946 -0.06018354 -0.06023734 -0.06027479 -0.06029298 -0.06028906 -0.06026081 -0.06021279
 -0.06014496 -0.06006454 -0.05997237 -0.05987112 -0.05976099 -0.05964132 -0.05951246 -0.05937861 -0.05924138 -0.05911253
 -0.05899381 -0.05889812 -0.05882541 -0.0587825 -0.05876729 -0.05877948 -0.05881678 -0.05887583 -0.05895703 -0.0590587
 -0.05918464 -0.05933592 -0.05951735 -0.0597312 -0.0599795 -0.06026351 -0.0605822 -0.06093581 -0.06132187 -0.06174056
 -0.0621854 -0.06265613 -0.0631379 -0.06362942 -0.06410882 -0.06457497 -0.0650091 -0.06541234 -0.06577808 -0.06610979
 -0.06641232 -0.06668916 -0.06694853 -0.06719201 -0.06742465 -0.06764683 -0.06786039 -0.06806549 -0.06826285 -0.06845181
 -0.06863269 -0.06880327 -0.06896321 -0.06910983 -0.06924247 -0.06936035 -0.06946319 -0.06955216 -0.0696273 -0.06968953
 -0.06973884 -0.06977496 -0.06979793 -0.06980737 -0.06980393 -0.06978919 -0.06976505 -0.06973631 -0.0697064 -0.06968299
 -0.06966963 -0.06967395 -0.06969684 -0.06974278 -0.06980744 -0.0698908 -0.06998464 -0.07008617 -0.07018802 -0.07028752
 -0.07038153 -0.07046917 -0.07054889 -0.07062075 -0.07068007 -0.07072658 -0.07075424 -0.07076325 -0.07075545 -0.07073342
 -0.07071441 -0.07070314 -0.07072723 -0.07078981 -0.07091457 -0.07109807 -0.07134783 -0.07165167 -0.0720003 -0.07237577
 -0.07276105 -0.07314003 -0.07349797 -0.07382879 -0.07412543 -0.07439194 -0.07462744 -0.07483952 -0.07502938 -0.07520222
 -0.07535867 -0.07550274 -0.0756347 -0.07575753 -0.07587127 -0.07597637 -0.07607275 -0.07615969 -0.0762378 -0.0763089
 -0.07637443 -0.0764394 -0.07650398 -0.07657131 -0.07663963 -0.07670804 -0.07677491 -0.07683816 -0.07689798 -0.07695385
 -0.07700641 -0.07705578 -0.07710235 -0.07714589 -0.07718839 -0.07722987 -0.07727413 -0.07732175 -0.07737397 -0.07743105
 -0.07748763 -0.07754333 -0.0775903 -0.07762892 -0.07765774 -0.07767858 -0.0776985 -0.07771867 -0.07774679 -0.07778091
 -0.07782152 -0.07786504 -0.07790648 -0.07794496 -0.0779772 -0.07800584 -0.07803129 -0.0780568 -0.07808418 -0.07811394
 -0.07814692 -0.07818127 -0.07821698 -0.07825106 -0.07828319 -0.07831065 -0.07833319 -0.07835022 -0.0783618 -0.07836985
 -0.07837469 -0.07837967 -0.07838508 -0.07839403 -0.07840647 -0.07842422 -0.07844611 -0.07847115 -0.07849733 -0.07852142
 -0.07854264 -0.07855845 -0.07857092 -0.07858039 -0.07858941 -0.07859955 -0.0786108 -0.07862385 -0.07863637 -0.07864802
 -0.07865725 -0.07866373 -0.07866755 -0.07866865 -0.07866882 -0.07866818 -0.07866991 -0.07867412 -0.07868342 -0.07869723
 -0.07871441 -0.07873381 -0.07875119 -0.0787668 -0.07877847 -0.07878853 -0.07879934 -0.0788125 -0.07883127 -0.0788534
 -0.07887906 -0.07890386 -0.07892564 -0.07894255 -0.07895285 -0.07895968 -0.07896315 -0.07896753 -0.07897361 -0.07898195
 -0.07899278 -0.07900287 -0.07901207 -0.07901789 -0.07902066 -0.07902237 -0.0790235 -0.07902773 -0.07903446 -0.07904412
 -0.07905538 -0.07906549 -0.07907442 -0.07908038 -0.07908535 -0.07909072 -0.07909762 -0.07910791 -0.07911959 -0.07913253
 -0.07914366 -0.07915166 -0.07915631 -0.07915694 -0.07915645 -0.0791551 -0.0791555 -0.07915795 -0.07916216 -0.07916807
 -0.07917356 -0.07917859 -0.07918174 -0.0791833 -0.07918379 -0.07918365 -0.07918433 -0.07918613 -0.07919041 -0.07919694
 -0.07920629 -0.07921734 -0.07922968 -0.07924111 -0.07925016 -0.07925501 -0.07925388 -0.07924837 -0.07923794 -0.07922735
 -0.07921746 -0.07921202 -0.07921195 -0.07921659 -0.07922608 -0.07923708 -0.07924943 -0.07926066 -0.07927076 -0.07927886
 -0.07928498 -0.07928867 -0.07929 -0.07928879 -0.07928544 -0.07928057 -0.07927482 -0.0792694 -0.07926455 -0.07926119
 -0.07925852 -0.07925636 -0.07925377 -0.07924999 -0.07924549 -0.07923993 -0.07923544 -0.07923239 -0.07923264 -0.07923675
 -0.0792435 -0.079253 -0.07926131 -0.07926822 -0.07926993 -0.07926657 -0.07925771 -0.07924409 -0.07922922 -0.07921375
 -0.07920192 -0.0791932 -0.07918894 -0.07918748 -0.07918696 -0.07918621 -0.07918301 -0.07917763 -0.07916929 -0.07915939
 -0.07914824 -0.07913769 -0.07912833 -0.07912188 -0.07911901 -0.07911955 -0.07912378 -0.07912914 -0.07913549 -0.07913984
 -0.07914207 -0.07914197 -0.07913973 -0.07913753 -0.07913546 -0.07913522 -0.07913659 -0.0791397 -0.07914416 -0.07914931
 -0.07915453 -0.07915878 -0.07916123 -0.07916059 -0.07915654 -0.07914799 -0.07913662 -0.07912256 -0.07910878 -0.07909624
 -0.07908725 -0.07908283 -0.07908238 -0.07908622 -0.07909108 -0.07909675 -0.07909972 -0.07909981 -0.07909586 -0.07908802
 -0.07907782 -0.07906553 -0.07905346 -0.07904164 -0.07903146 -0.07902262 -0.07901508 -0.07900872 -0.07900322 -0.0789988
 -0.07899569 -0.07899369 -0.07899314 -0.07899243 -0.07899098 -0.07898695 -0.07897925 -0.07896826 -0.07895354 -0.07893768
 -0.07892102 -0.0789053 -0.07889078 -0.0788773 -0.07886485 -0.0788529 -0.0788415 -0.07883096 -0.07882132 -0.0788129
 -0.07880553 -0.07879883 -0.07879248 -0.07878561 -0.07877778 -0.0787678 -0.07875556 -0.07874015 -0.07872277 -0.07870368
 -0.07868507 -0.07866827 -0.07865418 -0.07864378 -0.07863572 -0.07863006 -0.07862442 -0.07861844 -0.07861064 -0.07860079
 -0.07858855 -0.07857388 -0.07855709 -0.07853823 -0.07851788 -0.0784961 -0.07847339 -0.07844991 -0.07842619 -0.078403
 -0.07838221 -0.07836487 -0.07835383 -0.07834888 -0.07835162 -0.07835918 -0.07837045 -0.07838123 -0.07838887 -0.07839117
 -0.07838612 -0.07837568 -0.0783594 -0.0783423 -0.07832503 -0.07831198 -0.07830378 -0.07830095 -0.07830356 -0.07830774
 -0.07831316 -0.07831442 -0.07831167 -0.07830262 -0.07828835 -0.07827133 -0.07825278 -0.07823722 -0.07822453 -0.07821707
 -0.0782129 -0.07821106 -0.0782089 -0.07820381 -0.07819486 -0.07818022 -0.07816201 -0.07814021 -0.0781186 -0.07809816
 -0.07808127 -0.07806875 -0.07805961 -0.078054 -0.07804877 -0.07804373 -0.07803669 -0.07802767 -0.07801685 -0.07800445
 -0.07799198 -0.07797951 -0.077968 -0.07795732 -0.07794773 -0.07793883 -0.07793021 -0.07792123 -0.07791097 -0.07789888
 -0.07788404 -0.07786667 -0.07784642 -0.07782455 -0.07780132 -0.07777837 -0.07775616 -0.07773585 -0.0777178 -0.07770202
 -0.07768872 -0.07767586 -0.07766335 -0.07764819 -0.07763038 -0.07760934 -0.07758565 -0.07756282 -0.07754131 -0.07752521
 -0.07751357 -0.07750647 -0.07750177 -0.07749561 -0.07748721 -0.07747334 -0.07745633 -0.07743663 -0.07741758 -0.07740162
 -0.07738932 -0.07738219 -0.077377 -0.07737346 -0.07736755 -0.07735842 -0.07734433 -0.07732482 -0.07730176 -0.07727522
 -0.07724857 -0.07722195 -0.07719791 -0.07717635 -0.07715798 -0.07714265 -0.07713038 -0.0771208 -0.07711327 -0.07710688
 -0.07709996 -0.07709117 -0.07707804 -0.07706029 -0.07703628 -0.07700802 -0.07697585 -0.0769427 -0.07690986 -0.07687888
 -0.07685065 -0.07682461 -0.07680081 -0.07677874 -0.07675829 -0.07674014 -0.07672434 -0.07671089 -0.0766997 -0.07668874
 -0.07667784 -0.07666438 -0.07664856 -0.07662951 -0.07660789 -0.07658483 -0.07656097 -0.0765378 -0.0765161 -0.07649717
 -0.07648223 -0.07647264 -0.07646941 -0.07647365 -0.0764852 -0.07650447 -0.07653014 -0.07656206 -0.07659861 -0.07663954
 -0.07668344 -0.07673024 -0.07677779 -0.07682603 -0.07687137 -0.0769136 -0.07694886 -0.07697704 -0.07699569 -0.07700474
 -0.07700305 -0.07698964 -0.07696148 -0.07691723 -0.07685264 -0.07676823 -0.07666188 -0.07653761 -0.07639638 -0.07624731
 -0.07609378 -0.07595091 -0.07582515 -0.07572871 -0.07566768 -0.07564127 -0.07565205 -0.0756857 -0.07574192 -0.07579838
 -0.07585364 -0.07588744 -0.07589944 -0.07588603 -0.07584918 -0.0758024 -0.07574683 -0.07569492 -0.07564517 -0.07559986
 -0.0755572 -0.07551438 -0.07547154 -0.07542714 -0.07538321 -0.07534125 -0.07530208 -0.07526783 -0.07523426 -0.07520087
 -0.07516093 -0.07511178 -0.07505229 -0.07498083 -0.07490428 -0.07482309 -0.07474461 -0.07466948 -0.07459933 -0.07453416
 -0.07447282 -0.07441542 -0.07436227 -0.07431351 -0.07427022 -0.07423162 -0.07419622 -0.07416311 -0.0741295 -0.07409588
 -0.07406145 -0.07402769 -0.07399607 -0.07396641 -0.07393976 -0.07391319 -0.07388588 -0.07385489 -0.07381879 -0.07377787
 -0.07373153 -0.07368341 -0.07363377 -0.07358658 -0.07354219 -0.07350235 -0.07346703 -0.07343505 -0.07340613 -0.07337752
 -0.07334924 -0.07331982 -0.07328992 -0.0732609 -0.07323318 -0.07320873 -0.0731863 -0.07316535 -0.07314368 -0.07311881
 -0.07308989 -0.07305507 -0.07301626 -0.0729736 -0.07292978 -0.07288573 -0.07284267 -0.07280108 -0.07276096 -0.07272232
 -0.07268535 -0.07265007 -0.07261713 -0.07258655 -0.07255813 -0.07253174 -0.0725061 -0.07248106 -0.07245535 -0.07242896
 -0.07240133 -0.07237226 -0.07234101 -0.07230756 -0.07227124 -0.07223297 -0.07219308 -0.07215327 -0.07211501 -0.07207852
 -0.07204484 -0.07201142 -0.07197778 -0.07194141 -0.07190129 -0.0718585 -0.07181271 -0.07176801 -0.07172468 -0.07168534
 -0.07165004 -0.07161788 -0.07158866 -0.07156 -0.07153188 -0.071503 -0.07147337 -0.07144244 -0.0714101 -0.07137581
 -0.07133966 -0.07130136 -0.07126158 -0.07122079 -0.07117969 -0.07113893 -0.07109897 -0.07106 -0.07102279 -0.07098765
 -0.07095487 -0.07092477 -0.07089631 -0.07086952 -0.07084265 -0.07081558 -0.07078734 -0.07075792 -0.07072747 -0.07069605
 -0.07066404 -0.07063161 -0.07059971 -0.07056848 -0.07053896 -0.07051079 -0.07048395 -0.07045744 -0.07042968 -0.07040041
 -0.07036848 -0.07033508 -0.07030064 -0.07026632 -0.07023309 -0.07020034 -0.07016817 -0.07013549 -0.07010189 -0.07006772
 -0.07003288 -0.06999848 -0.06996463 -0.06993151 -0.06989913 -0.06986667 -0.06983415 -0.06980138 -0.06976843 -0.06973543
 -0.0697024 -0.06966947 -0.06963672 -0.0696042 -0.06957242 -0.06954209 -0.06951368 -0.06948827 -0.06946509 -0.06944435
 -0.06942384 -0.06940264 -0.0693789 -0.06935144 -0.069321 -0.06928715 -0.06925308 -0.06921914 -0.06918806 -0.06916019
 -0.06913555 -0.06911413 -0.0690937 -0.06907411 -0.06905261 -0.06902921 -0.06900252 -0.06897286 -0.06894054 -0.06890617
 -0.06887118 -0.06883606 -0.06880228 -0.06876969 -0.06873872 -0.06870891 -0.06868006 -0.06865171 -0.06862357 -0.06859536
 -0.06856693 -0.06853804 -0.06850851 -0.06847873 -0.06844859 -0.06841931 -0.06839098 -0.06836487 -0.06834105 -0.06831921
 -0.06829921 -0.06827916 -0.06825895 -0.06823676 -0.06821292 -0.06818742 -0.06816089 -0.06813487 -0.06810957 -0.06808628
 -0.06806421 -0.06804321 -0.06802186 -0.06799901 -0.06797377 -0.06794513 -0.06791376 -0.06787945 -0.06784392 -0.06780747
 -0.06777155 -0.06773646 -0.0677031 -0.0676716 -0.06764217 -0.06761481 -0.06758837 -0.06756268 -0.06753529 -0.0675062
 -0.06747387 -0.06743903 -0.0674034 -0.06736796 -0.0673361 -0.06730779 -0.06728473 -0.06726569 -0.06724994 -0.06723632
 -0.06722376 -0.06721141 -0.06719883 -0.06718456 -0.06716812 -0.06714802 -0.06712358 -0.06709541 -0.0670632 -0.06703031
 -0.066997 -0.06696614 -0.0669379 -0.06691194 -0.06688808 -0.06686403 -0.06683978 -0.06681403 -0.06678709 -0.06675939
 -0.0667313 -0.06670393 -0.06667753 -0.06665312 -0.06663046 -0.06660983 -0.06659033 -0.06657162 -0.06655214 -0.06653102
 -0.06650718 -0.06647978 -0.06644947 -0.06641605 -0.06638134 -0.06634547 -0.06631104 -0.06627833 -0.0662491 -0.06622345
 -0.06620121 -0.06618221 -0.06616413 -0.06614673 -0.06612746 -0.06610639 -0.06608227 -0.06605559 -0.06602675 -0.06599653
 -0.06596626 -0.06593662 -0.06590912 -0.06588344 -0.06586029 -0.06583763 -0.06581478 -0.06578928 -0.06575967 -0.06572632
 -0.06568854 -0.06564985 -0.06561061 -0.06557428 -0.06554135 -0.06551252 -0.06548788 -0.06546628 -0.06544764 -0.06543082
 -0.06541558 -0.06540006 -0.06538373 -0.06536351 -0.06533913 -0.06530789 -0.06527096 -0.06522875 -0.06518328 -0.06513722
 -0.06509171 -0.06504905 -0.06500795 -0.0649685 -0.06492862 -0.06488723 -0.06484419 -0.06479882 -0.06475373 -0.06470918
 -0.06466761 -0.06462948 -0.06459437 -0.06456231 -0.06453045 -0.06449872 -0.06446532 -0.06443056 -0.06439561 -0.06436078
 -0.06432814 -0.06429706 -0.0642673 -0.06423742 -0.06420473 -0.06416841 -0.06412579 -0.06407844 -0.06402624 -0.06397232
 -0.06391831 -0.06386672 -0.06381937 -0.06377561 -0.06373607 -0.06369735 -0.06365903 -0.06361806 -0.06357382 -0.06352694
 -0.06347734 -0.06342866 -0.06338103 -0.06333726 -0.06329706 -0.06326016 -0.06322592 -0.06319168 -0.06315711 -0.06311975
 -0.06308019 -0.06303811 -0.06299479 -0.06295166 -0.06290966 -0.06287041 -0.06283311 -0.06279799 -0.06276315 -0.06272785
 -0.06269091 -0.06265166 -0.06261062 -0.06256772 -0.06252384 -0.06247905 -0.06243412 -0.06238912 -0.06234495 -0.06230164
 -0.06225952 -0.0622185 -0.06217806 -0.06213805 -0.06209778 -0.06205705 -0.06201518 -0.06197175 -0.0619256 -0.06187683
 -0.06182467 -0.06177067 -0.0617158 -0.06166166 -0.06160976 -0.06156002 -0.06151298 -0.06146723 -0.06142249 -0.06137769
 -0.06133264 -0.06128644 -0.06123899 -0.06118939 -0.06113751 -0.06108412 -0.06102929 -0.06097506 -0.06092143 -0.06086937
 -0.06081865 -0.06076864 -0.06071949 -0.06067134 -0.06062441 -0.06057946 -0.06053581 -0.060493 -0.06044997 -0.06040533
 -0.06035939 -0.06031183 -0.06026354 -0.06021522 -0.06016595 -0.06011588 -0.06006265 -0.06000555 -0.05994498 -0.0598806
 -0.0598163 -0.05975234 -0.05969149 -0.05963371 -0.05957767 -0.05952311 -0.05946723 -0.05941035 -0.05935225 -0.05929354
 -0.05923605 -0.05917948 -0.05912438 -0.05906978 -0.05901447 -0.05895818 -0.05890011 -0.05884069 -0.05878011 -0.05871827
 -0.05865534 -0.0585904 -0.05852302 -0.05845343 -0.05838132 -0.05830893 -0.05823638 -0.0581666 -0.05809987 -0.05803722
 -0.05797861 -0.05792248 -0.0578687 -0.05781556 -0.05776314 -0.05771115 -0.05765929 -0.05760699 -0.05755297 -0.05749442
 -0.05743074 -0.05735922 -0.05728197 -0.05719957 -0.05711528 -0.05703149 -0.05694978 -0.05687149 -0.05679697 -0.05672661
 -0.05666031 -0.05659844 -0.05653875 -0.05648125 -0.05642167 -0.0563597 -0.05629262 -0.0562204 -0.05614415 -0.05606411
 -0.05598271 -0.05590009 -0.05581823 -0.05573704 -0.05565729 -0.0555786 -0.0555006 -0.055423 -0.0553451 -0.05526724
 -0.05518964 -0.0551122 -0.0550353 -0.05495749 -0.05487815 -0.05479657 -0.05471209 -0.05462607 -0.05453869 -0.05445078
 -0.05436265 -0.05427276 -0.054181 -0.05408631 -0.05398874 -0.05389041 -0.05379152 -0.05369483 -0.05359991 -0.05350647
 -0.05341353 -0.05331797 -0.05321923 -0.0531143 -0.05300416 -0.05288858 -0.05276949 -0.05264897 -0.05252738 -0.05240593
 -0.05228334 -0.0521589 -0.0520332 -0.05190559 -0.05178019 -0.05165781 -0.05154098 -0.05143076 -0.0513227 -0.05121678
 -0.0511036 -0.05098275 -0.05084891 -0.05070283 -0.05054912 -0.05038929 -0.05023368 -0.05008201 -0.04993945 -0.04980326
 -0.04967028 -0.04953809 -0.04940129 -0.04926024 -0.04911301 -0.04896168 -0.04880733 -0.04865079 -0.04849327 -0.04833278
 -0.04816938 -0.04799911 -0.04782125 -0.04763226 -0.04743107 -0.04722001 -0.04699887 -0.04677678 -0.04655417 -0.04633696
 -0.04612456 -0.04591324 -0.04570228 -0.04548568 -0.04526417 -0.04503739 -0.04480533 -0.04456894 -0.04432496 -0.04406898
 -0.04379854 -0.04350769 -0.04320122 -0.04287972 -0.04255078 -0.0422192 -0.04188573 -0.04155229 -0.04121506 -0.04087328
 -0.04052556 -0.0401718 -0.03981025 -0.03944131 -0.03905346 -0.03864601 -0.03820119 -0.03771966 -0.03720007 -0.03664728
 -0.03608663 -0.03552027 -0.03497119 -0.03443231 -0.03390009 -0.03336581 -0.03281354 -0.0322416 -0.03164215 -0.03101638
 -0.03036546 -0.02968151 -0.02896349 -0.02819562 -0.02737082 -0.02648602 -0.02553507 -0.02454346 -0.02351173 -0.02247954
 -0.02145024 -0.02045326 -0.01949011 -0.01857211 -0.01769804 -0.01686031 -0.01605441 -0.01525292 -0.01445136 -0.01361659
 -0.01275593 -0.01186432 -0.010963 -0.01008516 -0.009238061 -0.008448495 -0.007696425 -0.006977238 -0.006267727 -0.005552284
 -0.004827392 -0.00408618 -0.003340768 -0.002592706 -0.001851839 -0.001120062 -0.0004014019 0.0003035637 0.0009931787 0.001667363
 0.002329534 0.002979523 0.003618069 0.004242225 0.004835935 0.005396341 0.005902891 0.006360108 0.006766554 0.007131329
 0.007469789 0.007783345 0.008081678 0.00835651 0.008603035 0.008820131 0.009003343 0.009163308 0.009303174 0.009429231
 0.009544929 0.009645189 0.0097301 0.009792057 0.009830372 0.009840201 0.009821242 0.009766744 0.009676256 0.009541598
 0.009363499 0.009141457 0.00887756 0.008578978 0.008246756 0.007886207 0.007499028 0.007087783 0.006660582 0.006224407
 0.005794515 0.005383082 0.005005714 0.004673177 0.004396275 0.004180401 0.004034552 0.003962067 0.003966897 0.004051598
 0.00420587 0.004429543 0.004705706 0.005033408 0.005406566 0.005825622 0.006295549 0.006816504 0.007392342 0.00802161
 0.0087015 0.009429836 0.0102005 0.01101111 0.01185557 0.01273123 0.01363306 0.01455878 0.0155051 0.01647065
 0.01745391 0.01845414 0.01947102 0.02050319 0.02155091 0.02260973 0.02367957 0.02475295 0.02582943 0.02689991
 0.02796389 0.02900908 0.03003476 0.031028 0.03198925 0.03291491 0.0338058 0.03466567 0.03548934 0.03626829
 0.03699242 0.03763934 0.03820709 0.03868327 0.03907328 0.03937884 0.03960006 0.03973798 0.03979035 0.03975662
 0.03963527 0.03942889 0.03911962 0.03870745 0.03815791 0.03746561 0.03663006 0.0356504 0.03458856 0.03344702
 0.03227573 0.03106947 0.02981807 0.02851697 0.02714122 0.02569583 0.02417955 0.02260146 0.0209789 0.01931135
 0.01760789 0.01585724 0.01404677 0.01218915 0.01027354 0.008366505 0.006488951 0.004698262 0.003022046 0.001443923
 -3.156194E-05 -0.001448819 -0.0028134 -0.004138565 -0.005425691 -0.006661653 -0.007846189 -0.008973294 -0.01004447 -0.01106748
 -0.01204285 -0.01297671 -0.01386843 -0.01471801 -0.01552846 -0.01630273 -0.01704965 -0.01777996 -0.0185034 -0.01923271
 -0.01997005 -0.02072172 -0.02148124 -0.02224778 -0.02301458 -0.02378015 -0.02453839 -0.02529052 -0.02601449 -0.02670927
 -0.02734278 -0.02791259 -0.02841517 -0.02885192 -0.0292498 -0.02961046 -0.02995859 -0.03029256 -0.03061932 -0.03093589
 -0.03123803 -0.03152385 -0.03178845 -0.03202979 -0.03224401 -0.03242821 -0.03257847 -0.03269364 -0.03277141 -0.03281357
 -0.0328204 -0.03279317 -0.03273274 -0.03263747 -0.03250749 -0.03233916 -0.03213226 -0.03188229 -0.03158898 -0.03124796
 -0.03085949 -0.03042752 -0.02995513 -0.02946582 -0.02896376 -0.02848034 -0.02801362 -0.02757589 -0.02715999 -0.02675786
 -0.02636575 -0.02597505 -0.02558598 -0.02519751 -0.02480491 -0.024406 -0.02399393 -0.02356213 -0.02312052 -0.02266748
 -0.02222824 -0.02180844 -0.02141671 -0.02105632 -0.02071204 -0.02038316 -0.02005327 -0.0197219 -0.0193826 -0.01903562
 -0.01868017 -0.01831563 -0.01793954 -0.01754981 -0.01714039 -0.01670767 -0.01624206 -0.01574141 -0.01519816 -0.0146144
 -0.01398955 -0.01332539 -0.01262432 -0.01188215 -0.01109725 -0.01026793 -0.00939051 -0.008479174 -0.007534024 -0.006579703
 -0.005619262 -0.004668026 -0.003727497 -0.00279876 -0.001882068 -0.0009808784 -9.751818E-05 0.000748304 0.001553537 0.002293584
 0.002968932 0.003568491 0.004093713 0.004544359 0.004915884 0.0052043 0.005399534 0.005490989 0.005471918 0.005333282
 0.005078453 0.004704792 0.0042244 0.003639261 0.002963402 0.002199861 0.001357286 0.0004370475 -0.0005561059 -0.001622037
 -0.002749474 -0.003937505 -0.005166477 -0.00643545 -0.007728425 -0.009044794 -0.01037522 -0.01171567 -0.01305202 -0.01437578
 -0.01566398 -0.01691054 -0.01809652 -0.01922305 -0.02028401 -0.02128395 -0.02222405 -0.02310805 -0.02393771 -0.02471597
 -0.02544364 -0.02612433 -0.02675861 -0.02735034 -0.02790001 -0.02841058 -0.02888235 -0.02931641 -0.02971272 -0.03006922
 -0.03038563 -0.03065812 -0.03088723 -0.03107257 -0.03121661 -0.03132573 -0.03140339 -0.03145947 -0.03149626 -0.03152132
 -0.03153479 -0.03153949 -0.03153466 -0.03152015 -0.03149677 -0.03146386 -0.03142607 -0.03138382 -0.03134479 -0.03131026
 -0.0312878 -0.03127855 -0.03128725 -0.03131446 -0.03136005 -0.03142381 -0.03149929 -0.03158552 -0.03167145 -0.0317561
 -0.03182895 -0.03188952 -0.03193093 -0.03195319 -0.03195275 -0.03193065 -0.03188606 -0.03182241 -0.0317419 -0.03164988
 -0.03155037 -0.03144759 -0.03134458 -0.03124299 -0.03114413 -0.03104763 -0.03095351 -0.03086198 -0.03077304 -0.03068733
 -0.03060498 -0.03052495 -0.03044708 -0.03036569 -0.03028016 -0.03018234 -0.03007171 -0.02994139 -0.02979127 -0.02961722
 -0.02942001 -0.02919785 -0.02895518 -0.02869462 -0.02842867 -0.0281675 -0.0279305 -0.02773271 -0.02759091 -0.02751805
 -0.02751766 -0.02759611 -0.02774086 -0.02795238 -0.0282078 -0.02850513 -0.02881898 -0.02914733 -0.02946887 -0.02978253
 -0.03007462 -0.0303451 -0.03058818 -0.03080439 -0.03099323 -0.03115523 -0.03129166 -0.0314029 -0.03149002 -0.03155414
 -0.03159671 -0.03162056 -0.03162865 -0.03162448 -0.03161165 -0.03159138 -0.0315657 -0.03153257 -0.03149203 -0.03144079
 -0.03137784 -0.03130277 -0.03121499 -0.03111824 -0.03101259 -0.03090454 -0.03079442 -0.03068773 -0.03058446 -0.03048653
 -0.03039347 -0.03030383 -0.03021735 -0.03013228 -0.03004899 -0.02996738 -0.02988813 -0.02981239 -0.02974013 -0.02967199
 -0.02960706 -0.02954503 -0.02948475 -0.02942557 -0.02936683 -0.02930825 -0.02924916 -0.02918945 -0.02912823 -0.02906538
 -0.02900015 -0.02893234 -0.02886333 -0.02879323 -0.02872664 -0.02866405 -0.02861227 -0.0285713 -0.02854502 -0.02853223
 -0.02853109 -0.02854028 -0.0285554 -0.02857718 -0.0286043 -0.02863923 -0.02868452 -0.02874073 -0.02881048 -0.02888882
 -0.02897535 -0.02906068 -0.02914197 -0.02921059 -0.02926349 -0.02929889 -0.02931531 -0.02931897 -0.02931001 -0.02929788
 -0.02928308 -0.0292708 -0.02926074 -0.02925083 -0.02924015 -0.02922239 -0.02919694 -0.02915827 -0.02910661 -0.02903944
 -0.02895815 -0.02886354 -0.02875754 -0.02864295 -0.02851985 -0.02838991 -0.02825038 -0.02810031 -0.02793744 -0.02775983
 -0.02757048 -0.02736911 -0.02716221 -0.02695077 -0.02673894 -0.02652736 -0.02631574 -0.02610411 -0.02589237 -0.02568076
 -0.02547228 -0.02526724 -0.02506925 -0.0248779 -0.02469398 -0.02451622 -0.0243423 -0.02417066 -0.02399788 -0.02382254
 -0.02364173 -0.02345462 -0.02325958 -0.0230566 -0.02284496 -0.02262595 -0.02239928 -0.02216862 -0.02193399 -0.0217027
 -0.02147558 -0.02126045 -0.02105833 -0.02087168 -0.02070071 -0.02054035 -0.02039008 -0.02024168 -0.02009481 -0.01994346
 -0.01978749 -0.01962342 -0.01945081 -0.0192668 -0.01907123 -0.01886222 -0.01864088 -0.01840736 -0.01816404 -0.0179125
 -0.01765558 -0.01739438 -0.01713389 -0.01687455 -0.01662699 -0.01639254 -0.01618629 -0.01601095 -0.01587613 -0.01578402
 -0.01572716 -0.01570535 -0.01569626 -0.01569883 -0.01569271 -0.01567883 -0.0156523 -0.01561566 -0.01557563 -0.01553395
 -0.0154983 -0.01546897 -0.01544983 -0.01544063 -0.01544294 -0.01545514 -0.01547706 -0.01550529 -0.01553812 -0.01557249
 -0.01560681 -0.0156397 -0.01567056 -0.0156986 -0.0157235 -0.01574562 -0.01576481 -0.01578333 -0.01580131 -0.01582008
 -0.01583947 -0.01585696 -0.01587217 -0.01588138 -0.01588467 -0.0158804 -0.01586904 -0.01585099 -0.01582649 -0.01579586
 -0.01576003 -0.01571977 -0.01567719 -0.01563404 -0.01559269 -0.01555488 -0.0155223 -0.01549583 -0.01547701 -0.0154663
 -0.01546526 -0.01547434 -0.01549368 -0.01552357 -0.01556103 -0.01560598 -0.01565176 -0.01569783 -0.01573511 -0.01576307
 -0.01577334 -0.01576624 -0.015738 -0.01569016 -0.01562428 -0.01554263 -0.01544958 -0.01534754 -0.01524077 -0.01513175
 -0.01502349 -0.01491893 -0.01482002 -0.01473054 -0.0146518 -0.01458863 -0.01454213 -0.01451755 -0.01451586 -0.0145413
 -0.01459453 -0.01467732 -0.01478994 -0.01492859 -0.01509264 -0.01527059 -0.01546096 -0.01564774 -0.01583003 -0.01599498
 -0.01614404 -0.01627367 -0.01638742 -0.01648959 -0.01658417 -0.01667812 -0.01677307 -0.01687358 -0.01697734 -0.01708487
 -0.01719159 -0.01729526 -0.01739487 -0.01748832 -0.01758298 -0.01767897 -0.01778832 -0.01791254 -0.0180584 -0.01822664
 -0.01841385 -0.01861952 -0.01883362 -0.01905553 -0.01927608 -0.01949527 -0.0197083 -0.01991511 -0.02011316 -0.02030216
 -0.02047997 -0.02064758 -0.02080446 -0.02095439 -0.02109986 -0.02124576 -0.02139616 -0.02155248 -0.02171695 -0.02188672
 -0.02206174 -0.02223779 -0.02241403 -0.02258795 -0.02275918 -0.02292574 -0.02308748 -0.0232425 -0.02339073 -0.02353108
 -0.02366365 -0.02378866 -0.02390606 -0.02401609 -0.02411807 -0.02421066 -0.02429234 -0.02435982 -0.02441146 -0.02444345
 -0.02445583 -0.0244464 -0.02441871 -0.02437329 -0.02431663 -0.024251 -0.02418321 -0.0241154 -0.02405309 -0.02399746
 -0.02395309 -0.02392076 -0.02390258 -0.02389894 -0.02390609 -0.02392358 -0.02394141 -0.02395884 -0.02396521 -0.02396073
 -0.02394027 -0.02390544 -0.02385766 -0.0237993 -0.02373511 -0.02366773 -0.02360274 -0.02354138 -0.02348778 -0.02343885
 -0.02339502 -0.02334917 -0.02329821 -0.02323768 -0.02316452 -0.02308209 -0.02298988 -0.02289559 -0.02280017 -0.02270836
 -0.02262068 -0.02253694 -0.02245708 -0.02237958 -0.02230434 -0.02223012 -0.02215693 -0.02208383 -0.02201134 -0.02193983
 -0.02187117 -0.02180894 -0.02175524 -0.02171502 -0.02168771 -0.02167592 -0.02167411 -0.02168072 -0.02168692 -0.02168869
 -0.02167922 -0.02165491 -0.02161579 -0.0215605 -0.02149513 -0.02142018 -0.02134136 -0.02125931 -0.02117366 -0.02108427
 -0.02098593 -0.02087841 -0.02075731 -0.0206233 -0.02047682 -0.02031933 -0.02015517 -0.01998582 -0.01981656 -0.01964734
 -0.01948101 -0.01931488 -0.01914779 -0.01897615 -0.0187964 -0.01860917 -0.01841247 -0.01821308 -0.01801199 -0.01781779
 -0.01763256 -0.01746069 -0.01730324 -0.01716035 -0.01703207 -0.01691882 -0.01682067 -0.01673979 -0.01667635 -0.0166329
 -0.01660933 -0.01660696 -0.01662447 -0.01665973 -0.01670865 -0.01676298 -0.0168167 -0.01685757 -0.01688226 -0.01688182
 -0.01685916 -0.01681283 -0.01674869 -0.01666929 -0.01657813 -0.01647693 -0.01636706 -0.01624869 -0.01612499 -0.01599622
 -0.01586619 -0.01573526 -0.01560518 -0.01547602 -0.01534854 -0.01522292 -0.01510151 -0.01498431 -0.014873 -0.01476642
 -0.01466221 -0.01455862 -0.01445064 -0.01433788 -0.01421722 -0.01409001 -0.0139564 -0.01381796 -0.01367603 -0.01353089
 -0.01338289 -0.01323238 -0.01307898 -0.01292559 -0.0127721 -0.0126249 -0.01248473 -0.01235722 -0.01224314 -0.01214174
 -0.0120529 -0.0119697 -0.01189159 -0.01181048 -0.01172629 -0.01163417 -0.01153465 -0.01142647 -0.01131113 -0.0111908
 -0.01106776 -0.01094645 -0.01082809 -0.01071622 -0.01060933 -0.01050762 -0.01040891 -0.01031184 -0.01021633 -0.0101223
 -0.01002888 -0.009936632 -0.009840174 -0.009738912 -0.009627915 -0.009506343 -0.009377521 -0.009241677 -0.009108941 -0.008979555
 -0.00885999 -0.00874916 -0.008644901 -0.008545563 -0.008444745 -0.008341236 -0.008229248 -0.008108404 -0.007974897 -0.007830986
 -0.007676189 -0.007517184 -0.007357947 -0.007205734 -0.007066034 -0.006939692 -0.006829639 -0.006728254 -0.006634748 -0.006540456
 -0.006443386 -0.006343043 -0.006238688 -0.006139762 -0.006046738 -0.005968588 -0.005904722 -0.00585178 -0.005807402 -0.005756492
 -0.00569808 -0.005619492 -0.00552448 -0.005414298 -0.005295123 -0.005177674 -0.005064557 -0.00496416 -0.004872274 -0.004789496
 -0.004708036 -0.004623875 -0.004532455 -0.004430251 -0.004320062 -0.004201144 -0.004080857 -0.003960089 -0.003845023 -0.003736403
 -0.003636644 -0.003545901 -0.003464268 -0.003391541 -0.003325472 -0.003265541 -0.003207727 -0.003151515 -0.003092978 -0.003031974
 -0.002966492 -0.002895996 -0.002818573 -0.002734422 -0.002642309 -0.002544865 -0.002443324 -0.002340977 -0.002240634 -0.0021413
 -0.002044216 -0.001943553 -0.001838399 -0.001722941 -0.001595806 -0.001455992 -0.001302868 -0.001142234 -0.000974382 -0.0008092882
 -0.0006471802 -0.0004939545 -0.000348514 -0.0002071508 -6.909063E-05 7.151052E-05 0.0002121261 0.0003501764 0.0004819726 0.0005989361
 0.0007028072 0.000790879 0.0008697268 0.0009440708 0.00101717 0.001093448 0.001168684 0.001242584 0.001310108 0.001369233
 0.001420895 0.001464514 0.001504903 0.001542436 0.001580945 0.001620661 0.001665329 0.001715359 0.001777384 0.001851604
 0.00194348 0.002051223 0.002172078 0.002302383 0.002431788 0.002558245 0.00267245 0.002777449 0.002871576 0.00296291
 0.00305583 0.003161313 0.003286159 0.003438671 0.003626821 0.003840082 0.004082948 0.004313537 0.004525317 0.004689678
 0.004799862 0.004883853 0.004942824 0.005014782 0.005099703 0.005203238 0.005321712 0.005434086 0.005538629 0.005616548
 0.005671243 0.00570219 0.005711884 0.005705774 0.005681158 0.005636549 0.005570671 0.005479269 0.005370968 0.005247076
 0.005123179 0.005005565 0.00490431 0.00482429 0.004764519 0.004725968 0.004703331 0.004696018 0.004702082 0.004721358
 0.004753999 0.004799958 0.004858162 0.004928854 0.005012528 0.005110558 0.005228546 0.005367548 0.005534479 0.00572612
 0.005942759 0.006173667 0.006408535 0.006631596 0.006827638 0.006982295 0.007083408 0.007122741 0.007093192 0.006996228
 0.006828048 0.006606314 0.006330089 0.006037416 0.005730757 0.00545608 0.005216549 0.005036619 0.004915742 0.00484409
 0.004818995 0.004817106 0.004838111 0.004868545 0.004909529 0.004957671 0.00501285 0.005073394 0.005138856 0.005208171
 0.005280662 0.005356573 0.005431573 0.005504214 0.005567648 0.005617951 0.005654478 0.005674798 0.005687673 0.005694033
 0.005702564 0.005714868 0.00572996 0.005747963 0.005762685 0.005774203 0.005783684 0.005792723 0.005813615 0.005847405
 0.005906689 0.005987558 0.006088273 0.006199518 0.006303825 0.006393941 0.006451141 0.006479721 0.006473711 0.006449519
 0.006413995 0.00638398 0.006369314 0.006374238 0.006404166 0.006447275 0.00650348 0.006554313 0.006597347 0.006623276
 0.006631 0.006627956 0.006614696 0.006603202 0.00659263 0.006582669 0.006570794 0.006545389 0.006506544 0.006446893
 0.006371748 0.006286639 0.006198543 0.006119175 0.006051559 0.006003835 0.005972061 0.005957336 0.005951343 0.005951243
 0.005949654 0.00594419 0.005929292 0.005904125 0.005861465 0.005800411 0.005715274 0.005605326 0.005475973 0.005327858
 0.005175473 0.005019171 0.004868483 0.004722474 0.004581138 0.004445611 0.004318121 0.004202367 0.004107776 0.004033263
 0.003984098 0.003949872 0.003923608 0.003895077 0.0038534 0.003801795 0.003737049 0.003672038 0.003610837 0.003557998
 0.003517052 0.003475889 0.003433639 0.003377989 0.003307336 0.003235695 0.003163261</values></Ydata></AB><ScSm><Ydata ylabel="Single channel"><values byteorder="INTEL" format="FLOAT32" numvalues="1814"> 0.08894227 0.08905277 0.08918115 0.08933265 0.0894998 0.08966675 0.08981792 0.08994789 0.0900622 0.09016643
 0.09026305 0.09036253 0.09048468 0.0906397 0.09081308 0.09097363 0.09109665 0.09118724 0.09128275 0.09141725
 0.09157443 0.09168877 0.09170589 0.09164072 0.09156927 0.09156041 0.09162953 0.09177563 0.0920268 0.09237382
 0.09267214 0.09273331 0.09255925 0.0923796 0.09239697 0.09258453 0.09277736 0.09285685 0.09279732 0.09265406
 0.09259155 0.09283181 0.09345244 0.09422092 0.09466594 0.09434988 0.09316051 0.0914693 0.09004302 0.08964337
 0.09047827 0.09197067 0.09318916 0.09359875 0.09335306 0.09289949 0.09251204 0.09228005 0.09231389 0.09272889
 0.09345534 0.0941619 0.09438526 0.09383395 0.09271666 0.09170611 0.09139185 0.09182407 0.09271644 0.09379589
 0.09454073 0.09391697 0.09128819 0.08780403 0.08604924 0.08765909 0.09161049 0.09528825 0.09686929 0.09629333
 0.09451345 0.09265111 0.09169677 0.0921704 0.09378259 0.09572241 0.09730258 0.09814604 0.09801565 0.09692271
 0.0953517 0.0940571 0.09364186 0.09438021 0.09610903 0.09806308 0.09917928 0.09893155 0.09772603 0.09637629
 0.09550309 0.09550221 0.09657869 0.09850477 0.1006384 0.1023953 0.103553 0.1041276 0.1042316 0.1040497
 0.1037474 0.1034468 0.1033496 0.1036338 0.1041028 0.104227 0.1037323 0.1029718 0.1025694 0.1027765
 0.1032578 0.1034962 0.103307 0.102742 0.1015629 0.09935443 0.09637325 0.09368664 0.09213194 0.09172533
 0.09233481 0.0940401 0.09631912 0.09779233 0.09760718 0.09658855 0.09635 0.09754951 0.09947191 0.1010702
 0.1019819 0.1025937 0.1034325 0.1045684 0.1054617 0.1053646 0.1040897 0.1024853 0.1018708 0.1027619
 0.1043684 0.1055629 0.1060631 0.1063963 0.1069667 0.1074676 0.107149 0.1056216 0.1035303 0.1023287
 0.103081 0.1054093 0.1076915 0.1082894 0.1067126 0.1038811 0.1013533 0.1002076 0.1006236 0.1023272
 0.1049759 0.1079894 0.1104573 0.1116005 0.1113104 0.1101285 0.1086547 0.1069885 0.1049429 0.1029108
 0.1020956 0.1033869 0.1062193 0.1090219 0.1106687 0.111105 0.1107096 0.1095332 0.1073966 0.1046751
 0.102652 0.1025701 0.1042186 0.1059808 0.1065523 0.1061618 0.1058416 0.1060174 0.1062735 0.1062106
 0.1060409 0.1062829 0.1070973 0.1080811 0.1086932 0.1087534 0.1084849 0.1081964 0.1079885 0.1076961
 0.1071441 0.106538 0.1064494 0.1072155 0.1084864 0.1095774 0.1101439 0.1103195 0.1103003 0.1100102
 0.1092315 0.1080341 0.1069789 0.106719 0.1073662 0.1084069 0.1092469 0.1096539 0.1096988 0.1095285
 0.109267 0.1089839 0.1087149 0.1085454 0.1085936 0.1088504 0.1091372 0.1092846 0.1092702 0.1091501
 0.1089454 0.1086487 0.1082971 0.1079942 0.107844 0.1078676 0.1080005 0.1081602 0.1082813 0.1083012
 0.1081827 0.1079619 0.1077245 0.1075257 0.1073696 0.1072588 0.1072149 0.1072408 0.1072945 0.1073192
 0.1072896 0.1072154 0.1071123 0.1069861 0.1068463 0.1067153 0.1066209 0.1065805 0.1065847 0.1066007
 0.1066092 0.1066305 0.1066817 0.1067241 0.1066954 0.1065896 0.1064666 0.1063868 0.1063641 0.1063757
 0.1063885 0.1063706 0.1062962 0.1061619 0.1060103 0.105919 0.1059429 0.1060733 0.1062624 0.106464
 0.1066384 0.1067559 0.1068202 0.1068659 0.1069143 0.106952 0.1069623 0.1069599 0.1069872 0.1070816
 0.1072407 0.1074201 0.1075722 0.10768 0.1077527 0.1078142 0.1078992 0.108026 0.1081596 0.1082392
 0.1082568 0.1082744 0.1083508 0.1084748 0.108586 0.1086454 0.1086709 0.1087096 0.1087853 0.1088822
 0.1089731 0.109054 0.1091443 0.109257 0.1093713 0.1094403 0.1094366 0.1093872 0.1093483 0.1093484
 0.1093768 0.1094201 0.1094836 0.1095683 0.1096499 0.1096953 0.109697 0.1096817 0.1096794 0.1096902
 0.1096871 0.1096505 0.1095894 0.1095275 0.1094808 0.1094484 0.1094181 0.1093763 0.1093154 0.1092366
 0.1091454 0.1090466 0.108942 0.1088359 0.108745 0.1086956 0.1086915 0.1086878 0.1086171 0.1084529
 0.1082379 0.1080422 0.1079034 0.1078065 0.1077123 0.107596 0.1074624 0.1073329 0.1072243 0.1071385
 0.1070666 0.1070007 0.1069456 0.1069202 0.1069414 0.106998 0.1070485 0.1070559 0.1070242 0.10699
 0.106984 0.1070092 0.1070515 0.1070986 0.1071495 0.1072134 0.107297 0.1073906 0.1074741 0.1075412
 0.1076086 0.1076977 0.1078192 0.1079737 0.1081491 0.108317 0.1084509 0.1085561 0.1086676 0.1088125
 0.108987 0.1091725 0.1093613 0.1095583 0.1097692 0.1099952 0.1102377 0.110501 0.1107889 0.1111003
 0.1114253 0.1117488 0.1120623 0.1123731 0.112701 0.1130616 0.1134518 0.1138516 0.1142415 0.1146182
 0.1149932 0.1153768 0.1157682 0.1161629 0.1165657 0.1169855 0.1174217 0.1178628 0.1182992 0.1187307
 0.1191614 0.1195924 0.1200233 0.1204584 0.1209081 0.1213803 0.121866 0.1223373 0.1227692 0.1231638
 0.1235501 0.123958 0.1243969 0.1248529 0.1252977 0.1257064 0.1260785 0.126442 0.1268246 0.1272248
 0.1276211 0.1280094 0.1284136 0.1288529 0.1293065 0.1297252 0.1300785 0.1303845 0.1306898 0.1310207
 0.1313615 0.1316805 0.1319698 0.1322488 0.1325362 0.1328334 0.133138 0.1334574 0.1337945 0.1341317
 0.1344432 0.1347219 0.134982 0.1352379 0.1354883 0.1357211 0.1359272 0.1361133 0.1363024 0.1365142
 0.1367441 0.1369704 0.137187 0.1374131 0.1376683 0.1379519 0.1382554 0.1385795 0.1389246 0.1392765
 0.1396205 0.1399673 0.1403442 0.1407527 0.1411509 0.1414946 0.1417843 0.1420552 0.1423341 0.1426268
 0.1429396 0.143286 0.1436682 0.1440672 0.1444579 0.144827 0.1451801 0.1455371 0.1459108 0.1462858
 0.146626 0.146911 0.1471577 0.1474031 0.1476731 0.1479694 0.1482752 0.1485694 0.1488379 0.1490711
 0.1492526 0.1493619 0.1493964 0.1493793 0.1493316 0.149242 0.1490728 0.1487928 0.1483928 0.1478723
 0.1472253 0.1464492 0.1455698 0.1446581 0.1438213 0.1431731 0.1428018 0.1427515 0.1430186 0.1435528
 0.1442641 0.1450375 0.1457537 0.1463046 0.146603 0.1465936 0.1462669 0.1456606 0.1448441 0.1438979
 0.1428982 0.141906 0.1409647 0.1401213 0.1394621 0.1391226 0.1392524 0.1399607 0.1412766 0.1431256
 0.1453238 0.1476164 0.1497679 0.1516486 0.1532505 0.1546343 0.1558664 0.1569943 0.1580509 0.1590554
 0.1600113 0.1609119 0.1617522 0.1625305 0.1632415 0.1638717 0.1644022 0.1648145 0.1650996 0.1652688
 0.1653542 0.1653938 0.1654198 0.1654554 0.1655072 0.1655464 0.1655085 0.1653248 0.164959 0.1644259
 0.163801 0.1632346 0.1629502 0.1631884 0.1641001 0.1656532 0.167632 0.1697403 0.1717262 0.1734433
 0.1748412 0.1759378 0.176798 0.1775053 0.1781265 0.1786971 0.1792316 0.179738 0.1802234 0.1806924
 0.1811471 0.1815906 0.1820298 0.1824718 0.1829163 0.1833557 0.1837859 0.1842137 0.1846507 0.1851011
 0.1855569 0.186006 0.1864451 0.1868817 0.1873217 0.1877587 0.1881797 0.1885825 0.1889784 0.1893809
 0.1897954 0.1902185 0.190641 0.1910497 0.1914357 0.1918029 0.1921629 0.1925226 0.1928793 0.1932302
 0.1935776 0.1939234 0.194265 0.1946003 0.194934 0.1952723 0.1956134 0.1959469 0.1962661 0.1965743
 0.1968806 0.1971914 0.1975067 0.1978229 0.1981371 0.1984518 0.1987737 0.1991059 0.1994417 0.1997687
 0.2000798 0.200379 0.2006776 0.2009844 0.2012993 0.2016152 0.2019254 0.2022285 0.2025269 0.2028243
 0.2031234 0.203426 0.2037318 0.2040387 0.204344 0.2046455 0.2049431 0.205239 0.2055371 0.2058399
 0.2061475 0.206456 0.206758 0.2070469 0.2073236 0.2075962 0.2078724 0.2081541 0.2084395 0.2087269
 0.2090158 0.2093052 0.2095932 0.2098784 0.2101615 0.2104453 0.2107321 0.2110232 0.2113197 0.2116203
 0.2119193 0.2122102 0.2124918 0.2127679 0.2130425 0.2133185 0.2135973 0.2138782 0.2141588 0.214437
 0.2147121 0.2149862 0.2152637 0.2155465 0.2158312 0.2161127 0.2163905 0.2166678 0.2169472 0.2172287
 0.2175101 0.2177898 0.2180683 0.2183465 0.2186226 0.2188955 0.2191679 0.2194448 0.2197272 0.2200131
 0.2202993 0.2205819 0.2208583 0.2211307 0.2214034 0.2216769 0.2219501 0.2222247 0.2225029 0.2227831
 0.2230619 0.2233374 0.2236095 0.2238806 0.2241537 0.2244289 0.2247044 0.224981 0.2252604 0.2255426
 0.2258263 0.2261113 0.2263975 0.2266856 0.2269771 0.2272712 0.2275636 0.2278532 0.2281436 0.2284362
 0.2287282 0.2290171 0.2293026 0.2295851 0.2298669 0.2301492 0.2304281 0.2306976 0.230958 0.2312139
 0.2314695 0.2317291 0.2319962 0.2322684 0.2325393 0.2328076 0.2330769 0.2333505 0.2336316 0.2339216
 0.234215 0.2345034 0.2347861 0.2350687 0.2353563 0.2356516 0.2359529 0.2362521 0.2365435 0.236832
 0.2371247 0.2374232 0.2377275 0.2380363 0.2383424 0.2386394 0.2389312 0.2392241 0.2395187 0.2398169
 0.2401225 0.2404315 0.2407371 0.2410412 0.2413482 0.2416555 0.2419606 0.242266 0.2425726 0.24288
 0.2431899 0.2434997 0.2438017 0.2440969 0.2443959 0.2447032 0.2450175 0.2453376 0.2456569 0.2459649
 0.2462629 0.2465599 0.2468565 0.2471498 0.2474444 0.2477407 0.2480313 0.2483179 0.2486077 0.248891
 0.2491379 0.2492881 0.2491912 0.2485313 0.2467794 0.2431978 0.2369813 0.2275724 0.2149905 0.1999383
 0.1836142 0.1673381 0.1521865 0.1388389 0.1276594 0.1188363 0.1124809 0.108715 0.1077444 0.1099604
 0.1160698 0.1266726 0.1407265 0.1542232 0.1616864 0.1603104 0.1524982 0.1436822 0.1379046 0.1358323
 0.1361157 0.1374104 0.1391768 0.1415341 0.1448011 0.1490203 0.1539073 0.1593135 0.1654972 0.1727231
 0.1807432 0.188886 0.1966185 0.2038875 0.2109229 0.2178258 0.2244101 0.230381 0.2355629 0.2399579
 0.2436841 0.2469027 0.2497563 0.2523382 0.2547106 0.2569101 0.2589007 0.2605537 0.2617257 0.2623743
 0.2626091 0.2626371 0.2626511 0.2627481 0.2629429 0.263227 0.2635936 0.2640313 0.2645283 0.2650757
 0.2656574 0.2662526 0.266849 0.2674389 0.2680082 0.2685462 0.2690541 0.2695359 0.2699916 0.2704222
 0.2708307 0.2712199 0.271598 0.2719766 0.2723581 0.2727359 0.2731056 0.2734654 0.2738099 0.2741346
 0.2744397 0.2747254 0.2749943 0.2752566 0.2755216 0.2757877 0.2760498 0.2763083 0.276565 0.2768193
 0.2770725 0.2773253 0.277575 0.277819 0.2780584 0.2782943 0.2785273 0.2787602 0.2789959 0.2792339
 0.2794741 0.2797174 0.2799611 0.2802017 0.2804391 0.2806759 0.2809166 0.2811697 0.2814412 0.2817237
 0.2820033 0.2822757 0.282548 0.2828257 0.2831091 0.2833973 0.2836894 0.2839844 0.2842816 0.2845762
 0.2848565 0.2851117 0.2853417 0.2855573 0.2857741 0.2860043 0.2862489 0.2864976 0.2867431 0.2869887
 0.2872411 0.2875005 0.2877616 0.2880192 0.2882741 0.2885356 0.2888141 0.2891084 0.2894068 0.2897025
 0.2899981 0.2902983 0.2906049 0.290918 0.2912316 0.2915323 0.2918122 0.2920824 0.2923699 0.2926967
 0.2930613 0.293438 0.2937974 0.2941301 0.2944465 0.2947652 0.2951021 0.2954546 0.2957887 0.2960651
 0.2962931 0.2965408 0.2968726 0.2972878 0.2977303 0.2981445 0.2985125 0.298848 0.2991707 0.2994853
 0.2997814 0.3000484 0.3002959 0.300563 0.3008936 0.3012893 0.3017019 0.3020839 0.3024274 0.302744
 0.3030396 0.3033196 0.303581 0.3037884 0.3039097 0.3040004 0.3041994 0.3045974 0.3051323 0.305651
 0.3060601 0.306385 0.3066894 0.3069949 0.3072881 0.3075377 0.3076637 0.3075772 0.3073437 0.3072411
 0.3075345 0.3082089 0.3090019 0.3096694 0.3101438 0.3104806 0.3107535 0.3110063 0.3112258 0.3113371
 0.3112858 0.3111634 0.3111981 0.3115478 0.3121214 0.3126777 0.3130786 0.3133682 0.3136397 0.3139287
 0.3141944 0.3142967 0.3140552 0.3134969 0.3130236 0.3131503 0.3140065 0.315188 0.316162 0.3167416
 0.317086 0.3173284 0.3173772 0.3170833 0.3164243 0.315513 0.3146431 0.314331 0.3149793 0.3163608
 0.3177119 0.318497 0.3188711 0.3192905 0.3199211 0.3205679 0.3209927 0.3211277 0.3210337 0.3207621
 0.3203301 0.3198765 0.3197529 0.3202755 0.3213585 0.3225353 0.3233953 0.3239071 0.3242328 0.3242503
 0.323428 0.3214534 0.3190597 0.3178415 0.318838 0.3214403 0.3240507 0.3256632 0.3264148 0.3268375
 0.3271664 0.3272725 0.326656 0.3246124 0.321188 0.3180151 0.3173245 0.3197494 0.3236162 0.3265669
 0.3273618 0.3261347 0.3237927 0.3215961 0.3207155 0.3215951 0.3237616 0.3263066 0.3284356 0.3296872
 0.3299624 0.3294773 0.3286731 0.328099 0.3280662 0.3281825 0.3275952 0.3260974 0.3245256 0.3234753
 0.3222163 0.3198916 0.317428 0.3169626 0.3191952 0.3223749 0.3243303 0.3246937 0.3245085 0.3241299
 0.3223665 0.3180478 0.3121845 0.3079485 0.3079603 0.3116731 0.315914 0.3180023 0.3178726 0.3171769
 0.3169574 0.3165442 0.314559 0.310866 0.3073338 0.3061667 0.3074377 0.3089845 0.3088033 0.3064641
 0.3020766 0.2957748 0.2893442 0.2865668 0.2898842 0.2973517 0.3043544 0.3075935 0.3061244 0.2999781
 0.2904749 0.2816354 0.2783833 0.2820122 0.2886823 0.2931378 0.2928557 0.28817 0.2801278 0.2700035
 0.2603807 0.2548453 0.2557023 0.2621263 0.2703466 0.2753106 0.2732632 0.2647334 0.2552552 0.2512056
 0.2538285 0.2584274 0.2598951 0.2575137 0.2539017 0.2514283 0.2508941 0.2519895 0.2536526 0.2549003
 0.2555897 0.2550598 0.2507436 0.2410228 0.2295174 0.2231729 0.2250894 0.2320199 0.2396517 0.246938
 0.2536869 0.2574565 0.2561652 0.2522385 0.2510606 0.2552338 0.2621029 0.2671373 0.2685134 0.2678445
 0.2671869 0.2665366 0.2648838 0.2629417 0.2631904 0.2667818 0.2717405 0.2751139 0.2759467 0.2752934
 0.2742342 0.2729744 0.271391 0.2694711 0.2672696 0.2649257 0.2626537 0.2605172 0.2583905 0.2562265
 0.2539899 0.2510942 0.2464511 0.2399149 0.2335098 0.2300508 0.2302109 0.2321052 0.2340187 0.2356602
 0.2358853 0.2317574 0.2223971 0.2124255 0.2087844 0.2140326 0.2243064 0.2336312 0.2386082 0.2388296
 0.2348859 0.228124 0.2221828 0.2223565 0.2314821 0.2469514 0.2630543 0.2758116 0.2844693 0.2892728
 0.289981 0.2870699 0.2830536 0.2814936 0.2845712 0.2916655 0.2998374 0.3051721 0.3044711 0.2978981
 0.2907898 0.2904245 0.2987583 0.309796 0.3162103 0.3170407 0.3166132 0.3176956 0.3191233 0.3196071
 0.3204096 0.3232062 0.3273184 0.3302735 0.3300205 0.3257921 0.3180872 0.3092635 0.3031704 0.302128
 0.3044035 0.3062288 0.3056822 0.3027509 0.2969706 0.2884328 0.2807333 0.2790562 0.2842923 0.2917045
 0.2963313 0.2976065 0.2978389 0.2980341 0.2967056 0.2923616 0.2861324 0.2812729 0.279956 0.281213
 0.2825117 0.2825015 0.2812368 0.2785931 0.2742408 0.2692848 0.2664141 0.2675348 0.2717543 0.2762739
 0.2789839 0.2797711 0.2796873 0.279627 0.2798532 0.2801703 0.2803691 0.2808395 0.2826052 0.2862139
 0.2907491 0.2946395 0.2974406 0.3001734 0.3038226 0.3080707 0.3117099 0.3139388 0.3150579 0.3160923
 0.3178725 0.3203484 0.3226402 0.3238198 0.3238273 0.3236482 0.3244341 0.3264141 0.3288019 0.330715
 0.3319263 0.3327447 0.3335117 0.3343206 0.3349782 0.3351756 0.3349171 0.3347846 0.3355063 0.3371899
 0.339172 0.3406682 0.3414035 0.3415837 0.3414664 0.3411184 0.3405231 0.3397712 0.3390726 0.3386034
 0.3383816 0.3382964 0.3382177 0.3380678 0.3378278 0.3375259 0.337216 0.3369483 0.3367666 0.3367278
 0.3368868 0.3372439 0.3377347 0.3382897 0.338871 0.3394361 0.3399025 0.3401755 0.3401901 0.3399064
 0.3392857 0.3382947 0.3369179 0.3351378 0.3329312 0.330371 0.3278037 0.3258876 0.3253211 0.3263998
 0.328786 0.3317022 0.3343749 0.3363678 0.337623 0.3383007 0.3386042 0.3386877 0.3386346 0.3384689
 0.3381881 0.3378016 0.3373441 0.3368588 0.3363823 0.3359464 0.3355757 0.3352755 0.3350247 0.3347859
 0.3345235 0.3342134 0.3338389 0.3333828 0.3328267 0.3321558 0.3313589 0.3304313 0.3293879 0.3282728
 0.327145 0.3260471 0.3249835 0.3239258 0.3228343 0.3216659 0.3203582 0.3188332 0.3170772 0.3152308
 0.313543 0.3121796 0.3110863 0.3100597 0.3089287 0.3076413 0.306219 0.3046936 0.3030913 0.3014343
 0.2997318 0.2979754 0.2961489 0.294242 0.2922581 0.2902101 0.2881075 0.2859526 0.2837507 0.2815084
 0.2792036 0.2767541 0.274021 0.2708488 0.2671084 0.2627277 0.257712 0.252156 0.246231 0.2401454
 0.2341006 0.2282729 0.2228195 0.217886 0.2136028 0.2100748 0.207376 0.2055497 0.2046138 0.2045676
 0.2053921 0.2070449 0.209452 0.2124983 0.2160218 0.2198235 0.2236886 0.2274141 0.2308547 0.2339709
 0.2368258 0.2395039 0.2420281 0.2443586 0.2464536 0.2483049 0.2499202 0.2512994 0.2524396 0.2533538
 0.2540741 0.254641 0.2550885 0.2554367 0.2556927 0.255861 0.2559593 0.2560271 0.2561181 0.2562808
 0.2565432 0.2569094 0.2573672 0.2578988 0.2584901 0.2591344 0.2598332 0.2605922 0.2614109 0.2622773
 0.2631787 0.2641212 0.2651409 0.2662964 0.2676464 0.2692222 0.2710108 0.2729553 0.2749669 0.276933
 0.2787312 0.280257 0.2814556 0.2823319 0.2829266 0.2832816 0.2834251 0.2833788 0.2831647 0.2828027
 0.2823112 0.2817124 0.2810307 0.2802787 0.2794496 0.2785265 0.2775061 0.2764143 0.2752967 0.274192
 0.2731174 0.2720795 0.271086 0.2701408 0.2692379 0.2683653 0.2675117 0.2666714 0.2658498 0.2650593
 0.2643014 0.2635529 0.2627676 0.2618892 0.2608704 0.2596891 0.2583438 0.2568381 0.2551775 0.2533773
 0.2514588 0.249441 0.2473418 0.2451813 0.2429732 0.2407145 0.2383819 0.2359416 0.2333866 0.2307764
 0.2282244 0.2258278 0.2236163 0.2215628 0.2196219 0.2177596 0.2159636 0.2142348 0.2125716 0.2109693
 0.2094286 0.2079539 0.2065491 0.2052255 0.2040028 0.2028987 0.2019269 0.2011009 0.2004255 0.1998881
 0.1994629 0.199118 0.1988308 0.1986139 0.1985079 0.1985209 0.1985883 0.1986118 0.1985305 0.1983508
 0.1981285 0.197928 0.1977831 0.1976889 0.1976164 0.1975105 0.1972812 0.1968253 0.196057 0.1949095
 0.1933411 0.1913684 0.1890874 0.1866544 0.1842497 0.1820379 0.1801295 0.1785726 0.1773673 0.1764647
 0.1757723 0.1752073 0.1747572 0.1744831 0.1744641 0.174707 0.1750767 0.1753572 0.1754442 0.175462
 0.1756532 0.1761749 0.1770066 0.1779947 0.1789561 0.1797729 0.1804143 0.1808898 0.1812171 0.1814243
 0.1815344 0.181544 0.1814436 0.1812366 0.1809218 0.1804932 0.1799629 0.1793473 0.1786426 0.1778436
 0.1769564 0.1759755 0.1748884 0.1736975 0.1723905 0.170935 0.1693811 0.1679443 0.1669241 0.1665407
 0.1668262 0.1676135 0.1686473 0.1697494 0.1708441 0.1718372 0.172615 0.1732311 0.1739895 0.1752425
 0.1770967 0.1793061 0.1814374 0.1831426 0.1842822 0.1848447 0.1848634 0.1844033 0.1835077 0.1821578
 0.1803699 0.1782714 0.176015 0.1737186 0.171515 0.1695229 0.1677798 0.1662975 0.1650949 0.1641815
 0.1636188 0.1631325 0.1611731 0.1554516 0.1461741 0.138156 0.1371999 0.1438492 0.1526439 0.1579884
 0.1589166 0.1577753 0.1565254 0.155596 0.1549159 0.1545533 0.1545562 0.1548118 0.1550904 0.1551539
 0.1549002 0.1543452 0.1533662 0.1514701 0.1477908 0.1414041 0.1320139 0.1205809 0.1091168 0.09962223
 0.09310471 0.08937342 0.0874649 0.08631064 0.08534291 0.0846881 0.08481945 0.08605663 0.08838616 0.09161119
 0.09549445 0.09971462 0.1038099 0.1073313 0.1100868 0.1121556 0.1136644 0.11465 0.1151289 0.1151706
 0.1148656 0.1142914 0.1135125 0.1125541 0.1113851 0.1099812 0.1084262 0.1069395 0.1057738 0.1050486
 0.1046825 0.104507 0.1044189 0.1043983 0.104441 0.1045327 0.1046669 0.1048495 0.1050967 0.105424
 0.10581 0.1061855 0.1064819 0.1066768 0.1067849 0.1068192 0.1067584 0.1065611 0.1062393 0.1058866
 0.1055522 0.1051021 0.104318 0.1031738 0.101957 0.1010904 0.1008399 0.1011507 0.1017126 0.1021901
 0.1024357 0.102516 0.1025544 0.1025572</values></Ydata></ScSm><ScRf><Ydata ylabel="Single channel"><values byteorder="INTEL" format="FLOAT32" numvalues="1820"> 0.06967835 0.0698081 0.06992621 0.07003102 0.07012644 0.07022248 0.07033096 0.07045703 0.07059538 0.07073316
 0.07085727 0.07096352 0.07105705 0.07114284 0.07122304 0.07130678 0.07141086 0.0715424 0.07168746 0.07182099
 0.07192532 0.07200447 0.07208519 0.07219254 0.07231472 0.07240149 0.07241113 0.07235713 0.07230087 0.07229617
 0.07235443 0.07247531 0.07268121 0.07296301 0.07320499 0.07325917 0.0731294 0.07299773 0.07302213 0.07317804
 0.07333256 0.0733918 0.07333858 0.0732218 0.07317555 0.07337499 0.07387747 0.07449502 0.07485312 0.07460506
 0.07366221 0.07232113 0.07119352 0.07088526 0.07155816 0.07274894 0.07371693 0.0740422 0.07385303 0.07350558
 0.0732121 0.07303785 0.0730696 0.07340206 0.07398328 0.074551 0.07473537 0.07430275 0.0734202 0.07262538
 0.07238644 0.07273829 0.07344963 0.07430361 0.07488639 0.07437743 0.07227904 0.06951841 0.0681549 0.06947477
 0.07264382 0.07557361 0.07682109 0.0763507 0.07492983 0.07345538 0.07271437 0.0731127 0.0744108 0.07596093
 0.07722049 0.07789271 0.07778792 0.0769144 0.07566075 0.07463165 0.07431017 0.07491571 0.07631549 0.07789268
 0.07879408 0.07860053 0.07764011 0.07656527 0.07587381 0.07588339 0.07675581 0.07830375 0.08001161 0.08141612
 0.08234529 0.08281414 0.0829116 0.08278236 0.08255479 0.08232365 0.08225115 0.08248305 0.0828644 0.0829716
 0.08258554 0.08198956 0.08168249 0.08186384 0.08226287 0.0824652 0.08232309 0.08187678 0.08093373 0.07916492
 0.07678386 0.07464818 0.07342207 0.07311362 0.07362173 0.0750142 0.07686536 0.07805997 0.07791685 0.07710744
 0.0769299 0.07790779 0.0794626 0.08075362 0.08149228 0.08199188 0.08267763 0.08360627 0.08434227 0.08428168
 0.08327308 0.08200228 0.08153519 0.08228429 0.08360571 0.08458853 0.08501086 0.08530381 0.08579248 0.0862241
 0.08599189 0.08478674 0.08313511 0.08220836 0.08285661 0.08476846 0.08663695 0.08714614 0.08590551 0.08366188
 0.08167577 0.08081512 0.08121946 0.0826648 0.08487391 0.08737619 0.08943337 0.09041572 0.09023741 0.08933806
 0.08820395 0.08691503 0.08531925 0.08374089 0.08316615 0.08432043 0.0867357 0.08912332 0.09056269 0.09101008
 0.09077381 0.08989124 0.08821477 0.08606043 0.08449464 0.08454137 0.08601448 0.08756901 0.08813034 0.08789728
 0.08772685 0.08796687 0.08826989 0.0883086 0.08826699 0.08857927 0.08937405 0.09030673 0.09092189 0.09107182
 0.09094913 0.09081664 0.09075751 0.0906268 0.09027234 0.08987092 0.08991228 0.09068257 0.09187992 0.0929177
 0.09350324 0.09375486 0.09384473 0.0937098 0.09316249 0.09226005 0.09148052 0.09138145 0.09205674 0.09306706
 0.09390704 0.09438002 0.09454359 0.09451874 0.09441103 0.09428475 0.09417368 0.0941503 0.09431471 0.09465966
 0.09503144 0.09528102 0.09538648 0.09539742 0.09533501 0.09519345 0.0950034 0.09485282 0.09483165 0.09495975
 0.09518218 0.09542696 0.09563703 0.09575888 0.09576023 0.09567139 0.09556691 0.09549706 0.09546767 0.09548073
 0.09555268 0.09568182 0.09582739 0.09593953 0.0960004 0.09602345 0.09602256 0.09599971 0.09596094 0.09592843
 0.09593146 0.09598602 0.0960781 0.09617224 0.09625313 0.09634662 0.09647343 0.09659654 0.09665319 0.09663349
 0.09659266 0.0965894 0.09663901 0.09672123 0.0968057 0.09686205 0.09686397 0.0968071 0.09673215 0.09671222
 0.09679757 0.09698011 0.0972176 0.09746855 0.09769395 0.09786151 0.09797162 0.09805647 0.09813944 0.09821419
 0.09827015 0.09832039 0.09839939 0.09853645 0.09872764 0.09893367 0.09911212 0.09924647 0.09934408 0.09942825
 0.09953475 0.09968168 0.09983388 0.09993231 0.09997053 0.1000086 0.1000988 0.1002253 0.1003318 0.1003889
 0.1004194 0.1004675 0.1005531 0.1006607 0.1007643 0.1008585 0.1009617 0.1010892 0.1012201 0.1013012
 0.1012996 0.1012446 0.1011996 0.1011976 0.1012252 0.1012661 0.1013267 0.101412 0.1014992 0.1015534
 0.1015638 0.1015549 0.101557 0.1015719 0.1015732 0.1015408 0.101483 0.1014253 0.1013865 0.1013686
 0.1013608 0.1013464 0.101313 0.1012581 0.1011889 0.1011141 0.1010386 0.1009666 0.1009126 0.1009004
 0.100932 0.1009614 0.1009179 0.1007718 0.1005673 0.1003822 0.1002603 0.1001831 0.1001009 0.09998052
 0.09982601 0.09966362 0.09951469 0.09938424 0.09926659 0.09915623 0.09905757 0.09898709 0.09895669 0.09894718
 0.09891041 0.09881295 0.0986727 0.09853964 0.09844586 0.09838632 0.09833992 0.09829395 0.09825107 0.09822454
 0.09822347 0.09823707 0.09824124 0.09822624 0.09820835 0.0982123 0.09825319 0.09833358 0.09843963 0.09853797
 0.09859785 0.09862409 0.09865431 0.0987187 0.09881445 0.09892246 0.09903386 0.09915322 0.09928684 0.09943721
 0.09960573 0.09979351 0.09999989 0.1002206 0.1004469 0.1006679 0.1008791 0.1010898 0.1013194 0.1015804
 0.1018667 0.1021581 0.1024363 0.1026993 0.1029586 0.103225 0.1034991 0.1037787 0.1040679 0.1043741
 0.1046962 0.1050227 0.1053426 0.1056546 0.1059662 0.1062848 0.1066107 0.1069401 0.1072778 0.107636
 0.1080135 0.1083817 0.1087067 0.1089858 0.109252 0.1095431 0.109873 0.1102263 0.1105697 0.1108742
 0.1111406 0.1114011 0.111685 0.111989 0.1122921 0.1125946 0.112923 0.1132922 0.1136737 0.1140133
 0.1142802 0.1144956 0.1147088 0.1149473 0.1151955 0.1154242 0.1156304 0.1158359 0.1160553 0.1162835
 0.1165164 0.1167668 0.1170436 0.1173298 0.117594 0.1178232 0.1180285 0.1182236 0.1184051 0.1185571
 0.1186691 0.118752 0.118837 0.1189516 0.1190944 0.1192427 0.1193836 0.1195284 0.1196923 0.1198775
 0.1200827 0.1203134 0.1205687 0.1208288 0.1210738 0.1213145 0.1215832 0.1218858 0.1221805 0.122422
 0.1226139 0.1227974 0.1229992 0.123215 0.1234405 0.12369 0.1239733 0.1242764 0.1245727 0.1248482
 0.1251131 0.1253922 0.125699 0.1260151 0.1262993 0.1265253 0.1267069 0.1268842 0.127092 0.1273399
 0.1276142 0.1278923 0.1281565 0.1283963 0.1285987 0.1287505 0.1288538 0.1289295 0.1289919 0.1290247
 0.1289926 0.1288696 0.1286483 0.1283231 0.1278804 0.1273125 0.1266412 0.1259293 0.1252692 0.1247561
 0.1244613 0.1244196 0.1246301 0.1250582 0.1256358 0.1262709 0.1268674 0.1273402 0.1276181 0.127649
 0.1274168 0.1269507 0.1263106 0.125561 0.1247552 0.1239325 0.1231241 0.122373 0.1217594 0.1214026
 0.1214284 0.1219248 0.122912 0.1243228 0.1259971 0.127719 0.1293001 0.130653 0.1317934 0.1327819
 0.1336699 0.1344877 0.1352561 0.1359889 0.1366882 0.1373491 0.1379701 0.1385538 0.1390969 0.1395873
 0.140008 0.1403437 0.1405868 0.1407443 0.1408353 0.1408801 0.1408937 0.1408902 0.1408798 0.1408496
 0.1407561 0.1405461 0.1401913 0.1397101 0.1391726 0.1387026 0.1384676 0.1386373 0.1393108 0.1404535
 0.1419024 0.143443 0.1448972 0.1461591 0.1471863 0.147986 0.1486066 0.1491134 0.1495593 0.1499735
 0.1503686 0.1507484 0.151112 0.1514596 0.1517951 0.152125 0.152456 0.1527932 0.1531358 0.1534749
 0.1538021 0.1541216 0.1544497 0.1547993 0.1551647 0.1555261 0.155871 0.1562066 0.1565466 0.1568905
 0.1572245 0.1575413 0.1578488 0.1581603 0.1584844 0.1588219 0.1591662 0.1595034 0.1598217 0.16012
 0.160406 0.1606878 0.1609693 0.1612519 0.1615352 0.1618163 0.1620921 0.1623638 0.1626377 0.162919
 0.1632037 0.1634789 0.1637359 0.1639794 0.1642231 0.1644745 0.1647287 0.1649776 0.1652211 0.1654686
 0.1657299 0.1660039 0.1662792 0.1665442 0.166797 0.167044 0.1672918 0.167543 0.1677974 0.1680538
 0.1683083 0.1685564 0.1687971 0.1690356 0.1692795 0.1695312 0.1697867 0.1700406 0.1702909 0.1705385
 0.170785 0.1710315 0.1712788 0.1715268 0.1717753 0.1720232 0.1722692 0.1725118 0.1727502 0.1729841
 0.1732139 0.1734417 0.1736703 0.173902 0.1741377 0.1743773 0.1746193 0.1748611 0.175101 0.1753398
 0.1755806 0.1758263 0.1760774 0.1763297 0.1765754 0.1768108 0.1770405 0.1772728 0.1775114 0.1777533
 0.1779933 0.1782293 0.1784636 0.1786988 0.1789352 0.1791723 0.1794104 0.1796479 0.1798818 0.1801119
 0.1803416 0.1805741 0.1808085 0.1810423 0.1812736 0.1815026 0.181732 0.1819656 0.1822036 0.1824422
 0.1826787 0.1829125 0.1831449 0.1833791 0.1836177 0.1838592 0.1840992 0.1843359 0.1845708 0.1848044
 0.1850361 0.1852672 0.1854996 0.1857352 0.1859747 0.1862166 0.186457 0.1866951 0.1869332 0.1871722
 0.1874101 0.1876471 0.1878856 0.1881272 0.1883733 0.1886247 0.1888794 0.1891331 0.1893845 0.1896348
 0.1898842 0.1901343 0.190389 0.1906489 0.1909108 0.1911717 0.1914298 0.1916815 0.1919232 0.1921546
 0.1923779 0.192598 0.1928209 0.1930484 0.1932758 0.1934991 0.1937205 0.1939438 0.1941721 0.1944073
 0.1946477 0.194888 0.1951276 0.1953716 0.1956224 0.1958771 0.1961321 0.1963852 0.196636 0.196888
 0.1971444 0.1974022 0.1976563 0.1979083 0.1981624 0.19842 0.198682 0.19895 0.1992198 0.1994866
 0.199751 0.2000152 0.2002772 0.2005387 0.2008058 0.20108 0.2013561 0.2016298 0.2018981 0.2021602
 0.2024221 0.2026915 0.2029656 0.203236 0.2035014 0.2037645 0.2040263 0.2042911 0.204565 0.2048461
 0.2051291 0.2054116 0.2056884 0.2059526 0.2062093 0.2064722 0.2067444 0.2070199 0.2072963 0.2075701
 0.2078354 0.2080942 0.2083517 0.2085998 0.2088172 0.2089574 0.2088955 0.2083641 0.2069158 0.2039281
 0.1987214 0.1908257 0.1802585 0.1676135 0.1539004 0.1402292 0.1275052 0.1163007 0.1069223 0.09952767
 0.09420927 0.0910708 0.09028833 0.0921927 0.09737751 0.1063434 0.118203 0.12957 0.1358322 0.1346444
 0.1280535 0.1206439 0.1158095 0.1140961 0.1143596 0.1154697 0.1169763 0.1189809 0.1217493 0.1253158
 0.1294459 0.1340236 0.13927 0.1454025 0.1522045 0.1591079 0.1656639 0.1718263 0.1777869 0.183633
 0.189212 0.1942758 0.1986727 0.2024034 0.2055724 0.2083221 0.2107732 0.2129984 0.215043 0.2169343
 0.2186438 0.2200676 0.2210866 0.2216623 0.2218834 0.2219281 0.2219662 0.222084 0.2222912 0.2225746
 0.2229254 0.2233337 0.2237891 0.2242827 0.2248016 0.2253306 0.2258616 0.2263896 0.2269045 0.2273977
 0.2278681 0.2283143 0.2287345 0.2291343 0.2295217 0.2298978 0.230262 0.2306194 0.2309735 0.231323
 0.2316669 0.2320049 0.2323337 0.2326497 0.232951 0.2332354 0.2335034 0.233762 0.2340181 0.2342722
 0.2345233 0.2347736 0.2350243 0.2352741 0.2355221 0.2357669 0.2360071 0.2362445 0.2364824 0.2367192
 0.2369522 0.2371844 0.2374205 0.2376596 0.2378998 0.2381412 0.2383832 0.2386229 0.2388601 0.2390966
 0.2393357 0.2395825 0.2398398 0.2401026 0.2403644 0.2406267 0.2408948 0.2411673 0.2414387 0.2417078
 0.2419785 0.2422551 0.2425398 0.2428275 0.2431045 0.2433581 0.2435873 0.2438024 0.244018 0.2442456
 0.2444865 0.2447315 0.2449717 0.2452076 0.2454454 0.2456893 0.245938 0.2461868 0.2464327 0.246681
 0.2469422 0.24722 0.2475078 0.2477986 0.2480914 0.2483865 0.2486835 0.248982 0.2492792 0.2495687
 0.2498462 0.2501169 0.250396 0.250699 0.2510276 0.2513642 0.2516869 0.2519914 0.2522907 0.2525997
 0.2529252 0.2532591 0.2535729 0.2538372 0.2540628 0.2543067 0.2546215 0.2550041 0.2554064 0.2557834
 0.2561242 0.2564442 0.2567594 0.2570698 0.2573608 0.2576194 0.2578543 0.258104 0.2584117 0.2587814
 0.25917 0.2595326 0.2598584 0.2601569 0.2604385 0.2607146 0.260983 0.261206 0.2613481 0.2614549
 0.2616481 0.2620087 0.2624879 0.2629613 0.2633541 0.2636853 0.264001 0.2643133 0.2646122 0.2648765
 0.2650382 0.2650152 0.2648587 0.2648085 0.265099 0.265721 0.2664459 0.2670588 0.2675034 0.2678353
 0.2681243 0.2684056 0.2686584 0.2688098 0.2688127 0.2687535 0.2688365 0.2691972 0.2697495 0.2702791
 0.2706677 0.2709597 0.2712412 0.2715428 0.271824 0.2719588 0.2717922 0.2713522 0.2709902 0.2711517
 0.271947 0.2730246 0.273921 0.2744734 0.2748208 0.2750806 0.2751753 0.2749788 0.274472 0.2737479
 0.2730551 0.2728408 0.273458 0.2747127 0.2759444 0.2766899 0.2770819 0.2775124 0.2781236 0.2787469
 0.279175 0.2793472 0.2793187 0.2791384 0.2788217 0.278487 0.2784424 0.2789689 0.2799917 0.2810962
 0.2819184 0.2824336 0.2827888 0.2828776 0.2822315 0.2805766 0.2785564 0.2775652 0.2785109 0.2808633
 0.2832296 0.28473 0.2854783 0.2859324 0.2862952 0.286457 0.2859842 0.2842606 0.2813287 0.2786258
 0.2781129 0.2803418 0.2838367 0.2865227 0.2873087 0.2863103 0.2843277 0.2824773 0.2817937 0.2826661
 0.2846743 0.2870158 0.2889898 0.2901914 0.290534 0.2902068 0.2895978 0.2891947 0.2892748 0.2894897
 0.2890853 0.2878811 0.2866172 0.2858146 0.2848227 0.2828848 0.2808282 0.2805511 0.2826748 0.2856442
 0.2875324 0.2880142 0.2880122 0.2878311 0.2864057 0.2827038 0.2776416 0.2740499 0.2742527 0.277747
 0.2816993 0.2837283 0.2837878 0.2833544 0.2833536 0.2831835 0.2816143 0.2785308 0.2756132 0.2748349
 0.2762477 0.2779008 0.2779988 0.2761631 0.2724881 0.2670894 0.2615887 0.2594213 0.262803 0.2699709
 0.2767397 0.2801114 0.2792135 0.2740594 0.2658604 0.2583179 0.2559542 0.2599407 0.2667301 0.2714894
 0.2719071 0.2682849 0.2615683 0.2529392 0.2448371 0.2406527 0.2425664 0.249793 0.2587295 0.2645109
 0.2634942 0.2561817 0.2479473 0.2449884 0.248495 0.2538653 0.2561191 0.2545836 0.2518412 0.2502154
 0.2504942 0.2523756 0.2548038 0.2567985 0.2582087 0.2583229 0.2544843 0.2450319 0.2336716 0.2275021
 0.2296947 0.2369515 0.2448936 0.2524652 0.2594586 0.2633558 0.2620119 0.2578941 0.2564943 0.2604637
 0.2670912 0.2717656 0.2726558 0.2714535 0.2703097 0.2692772 0.2673746 0.2653479 0.2657088 0.2696037
 0.2750132 0.2789421 0.2804256 0.2805299 0.2803381 0.2800387 0.2794826 0.278634 0.2775317 0.2763091
 0.2751847 0.2742217 0.2732783 0.2722861 0.2711853 0.2693173 0.2654731 0.2594656 0.2534754 0.2505467
 0.2513921 0.2539486 0.2563486 0.2582698 0.2584487 0.2536668 0.2429517 0.2313355 0.2263929 0.2309223
 0.2407183 0.2492907 0.2529941 0.2514846 0.2455277 0.2366373 0.2286079 0.226852 0.2342291 0.2480515
 0.262506 0.2735751 0.2805568 0.2837941 0.2831282 0.2790616 0.2740554 0.2715491 0.2735951 0.2795124
 0.2864102 0.2905308 0.2888785 0.2816855 0.2740551 0.2728782 0.2800007 0.2897731 0.2952896 0.2956216
 0.2948048 0.29543 0.296427 0.2966142 0.297181 0.2996889 0.3035064 0.3063398 0.3062906 0.3026499
 0.2958793 0.288164 0.2830702 0.2827207 0.285446 0.287698 0.2876903 0.2854253 0.2804615 0.2728872
 0.2661157 0.2650533 0.2705242 0.2780225 0.2828483 0.2844851 0.2851454 0.2857927 0.2850075 0.2813655
 0.2759661 0.2719601 0.2714604 0.2735486 0.2757883 0.276864 0.2767832 0.27535 0.272182 0.2683533
 0.2665362 0.2686232 0.2736993 0.2789314 0.2821727 0.2832703 0.2832375 0.2829462 0.282664 0.2822233
 0.2814516 0.280766 0.281197 0.2832959 0.2861757 0.2883212 0.2893389 0.2902809 0.2921661 0.2947359
 0.2968526 0.2977584 0.2977422 0.2977708 0.2986148 0.3002118 0.3017282 0.3022972 0.3018742 0.3013899
 0.3019142 0.303638 0.3057989 0.3075524 0.3086784 0.3094642 0.3102249 0.311034 0.3116897 0.3118827
 0.3116036 0.3113944 0.3119497 0.3133982 0.3151519 0.3165025 0.3172048 0.3174497 0.317462 0.3172805
 0.316871 0.3163093 0.3157903 0.3154773 0.3153862 0.3154172 0.3154644 0.3154773 0.3154572 0.3154414
 0.3154805 0.3155997 0.3157803 0.3159901 0.316208 0.3164096 0.3165637 0.316667 0.3167539 0.3168433
 0.316896 0.3168398 0.3166164 0.3161851 0.3155055 0.314539 0.3132558 0.3116227 0.3096097 0.3072882
 0.3049887 0.3033251 0.3029388 0.3040908 0.3064544 0.3093016 0.3119148 0.3138907 0.3151742 0.3159104
 0.3162873 0.3164514 0.3164848 0.3164125 0.3162344 0.3159617 0.3156286 0.3152716 0.3149125 0.3145635
 0.3142387 0.3139493 0.3136876 0.3134203 0.3131043 0.3127122 0.3122426 0.3117087 0.3111207 0.3104722
 0.3097382 0.3088903 0.3079292 0.3069019 0.3058803 0.3049185 0.3040266 0.3031732 0.302311 0.3013961
 0.3003768 0.299187 0.2978064 0.2963499 0.2950402 0.2940335 0.2932788 0.2925775 0.29176 0.290776
 0.2896536 0.2884337 0.2871514 0.2858332 0.2844893 0.2831083 0.2816647 0.2801305 0.27849 0.2767496
 0.2749302 0.273053 0.2711373 0.2691981 0.2672213 0.2651312 0.262791 0.2600419 0.256748 0.2528239
 0.248248 0.2430781 0.2374619 0.2316193 0.2257901 0.2201823 0.2149547 0.2102336 0.2061297 0.2027372
 0.2001262 0.1983419 0.1974097 0.1973355 0.1981042 0.1996766 0.2019806 0.2049017 0.2082817 0.2119329
 0.215655 0.2192558 0.2225949 0.2256334 0.2284287 0.2310553 0.2335277 0.2358017 0.2378322 0.2396075
 0.241134 0.2424175 0.243469 0.24432 0.2450188 0.2456117 0.2461265 0.2465702 0.2469357 0.2472154
 0.2474152 0.247562 0.2476952 0.2478494 0.2480415 0.2482718 0.2485366 0.2488431 0.2492119 0.2496631
 0.2502039 0.2508259 0.2515085 0.2522278 0.2529742 0.2537647 0.2546378 0.2556349 0.256786 0.2581052
 0.2595854 0.2611928 0.2628618 0.2644965 0.265987 0.267239 0.2681995 0.2688607 0.2692444 0.2693835
 0.2693106 0.2690567 0.2686498 0.2681143 0.2674719 0.2667463 0.2659604 0.2651263 0.2642419 0.2633011
 0.2623112 0.2612997 0.2603006 0.2593322 0.2583917 0.2574708 0.2565656 0.2556756 0.2548035 0.2539593
 0.2531548 0.2523943 0.251678 0.2510033 0.2503558 0.2497039 0.2490092 0.2482363 0.2473533 0.2463337
 0.2451604 0.2438264 0.2423362 0.2407075 0.2389629 0.2371218 0.2351988 0.2332035 0.2311376 0.2289962
 0.2267706 0.2244512 0.2220481 0.21962 0.2172634 0.2150604 0.2130395 0.2111835 0.2094559 0.2078224
 0.2062618 0.2047645 0.2033249 0.2019439 0.2006318 0.1993938 0.1982219 0.1971113 0.1960726 0.1951219
 0.1942722 0.1935333 0.1929064 0.1923785 0.1919315 0.1915537 0.19125 0.1910506 0.1909939 0.191077
 0.1912296 0.1913534 0.1913843 0.191322 0.191217 0.1911301 0.1910901 0.1910906 0.1911087 0.1911004
 0.1909839 0.1906577 0.1900343 0.189047 0.1876535 0.185864 0.1837613 0.1814884 0.179222 0.1771332
 0.1753417 0.1739017 0.1728147 0.1720285 0.1714446 0.1709767 0.1706135 0.170419 0.1704716 0.1707798
 0.1712195 0.1715863 0.1717738 0.1718896 0.1721628 0.1727515 0.1736464 0.1747068 0.1757593 0.1766846
 0.1774382 0.1780128 0.1784204 0.1786992 0.1788851 0.1789762 0.1789502 0.1787981 0.1785249 0.1781474
 0.177695 0.1771783 0.1765724 0.1758578 0.1750443 0.1741411 0.1731455 0.1720571 0.170853 0.1694916
 0.1680186 0.1666479 0.1656806 0.1653418 0.1656697 0.1665023 0.1675897 0.1687559 0.1699211 0.1709848
 0.1718337 0.1725296 0.1733841 0.1747513 0.1767307 0.1790641 0.1813107 0.1831278 0.1843823 0.1850553
 0.1851641 0.1847717 0.1839345 0.182643 0.1809081 0.1788491 0.1766196 0.1743449 0.1721642 0.1702027
 0.1685072 0.1670958 0.1659811 0.1651563 0.1646699 0.1642479 0.1623459 0.1566765 0.1474535 0.1395123
 0.1386714 0.1454641 0.1544021 0.1598684 0.1608894 0.1598085 0.1585856 0.157656 0.1569552 0.1565494
 0.1564837 0.1566563 0.1568598 0.1568714 0.1565894 0.1560238 0.1550475 0.1531612 0.1494866 0.1430874
 0.1336645 0.1221878 0.1106816 0.1011538 0.09461096 0.09085098 0.08889143 0.08764868 0.08656018 0.08578236
 0.08582584 0.08702914 0.08937167 0.09263894 0.096582 0.1008739 0.1050463 0.1086439 0.1114705 0.1136002
 0.1151521 0.1161604 0.1166495 0.1166983 0.116398 0.1158223 0.1150382 0.1140833 0.1129359 0.1115657
 0.1100353 0.108547 0.1073569 0.106605 0.1062294 0.1060666 0.1060024 0.1060005 0.1060479 0.1061358
 0.106267 0.1064465 0.1066806 0.1069797 0.1073299 0.1076757 0.1079568 0.1081489 0.1082582 0.108289
 0.1082135 0.1079829 0.1076044 0.107178 0.1067662 0.1062416 0.1053849 0.1041737 0.1029073 0.1020141
 0.1017491 0.1020421 0.1025795 0.1030341 0.1032625 0.1033228 0.10333 0.1032995 0.1031231 0.1026912
</values></Ydata></ScRf><Data_Parameters_AB><parameter name="DPF">1</parameter><parameter name="NPT">3497</parameter><parameter name="FXV">3996</parameter><parameter name="LXV">500</parameter><parameter name="CSF">1</parameter><parameter name="MXY">0.0397903509438038</parameter><parameter name="MNY">-0.103207126259804</parameter><parameter name="DAT">17/01/2024</parameter><parameter name="TIM">12:57:28.388 (GMT+1)</parameter><parameter name="DXU">WN</parameter></Data_Parameters_AB><AB__Qtest><MainReport name="Quality Test Report"><Header><Line><Legend>Test result ok/not ok [1/0]: </Legend><Value>0</Value></Line><Line><Legend>Method file: </Legend><Value>C:\Users\Public\Documents\Bruker\OPUS_8.2.28\QT\IRBT_v3_default.QT</Value></Line></Header><Matrix><Line><Legend></Legend><Legend>min</Legend><Legend>max</Legend><Legend>measured</Legend></Line><Line><Value>Absorption (X-Range 1):</Value><Value>0.400000</Value><Value>2.000000</Value><Value>0.081221</Value></Line><Line><Value>Noise (X-Range 4):</Value><Value></Value><Value>0.000300</Value><Value>0.000029</Value></Line><Line><Value>Signal/Noise (X-Range 2):</Value><Value>200.000000</Value><Value></Value><Value>48.154683</Value></Line><Line><Value>Signal/Noise (X-Range 3):</Value><Value>40.000000</Value><Value></Value><Value>15.984367</Value></Line><Line><Value>Water vapour (X-Range 5):</Value><Value></Value><Value>0.000300</Value><Value>0.000017</Value></Line><Line><Value>Signal/Water (X-Range 2):</Value><Value>100.000000</Value><Value></Value><Value>81.935550</Value></Line><Line><Value>Signal/Water (X-Range 3):</Value><Value>20.000000</Value><Value></Value><Value>27.197518</Value></Line><Line><Value>Fringes (X-Range 6):</Value><Value></Value><Value>0.000100</Value><Value>0.000025</Value></Line></Matrix></MainReport></AB__Qtest><Data_Parameters_ScSm><parameter name="DPF">1</parameter><parameter name="NPT">1814</parameter><parameter name="FXV">3996.63438082617</parameter><parameter name="LXV">499.579297603271</parameter><parameter name="CSF">1</parameter><parameter name="MXY">0.341583669185638</parameter><parameter name="MNY">0.0846880972385406</parameter><parameter name="DAT">17/01/2024</parameter><parameter name="TIM">12:57:28.388 (GMT+1)</parameter><parameter name="DXU">WN</parameter></Data_Parameters_ScSm><Data_Parameters_ScRf><parameter name="DPF">1</parameter><parameter name="NPT">1820</parameter><parameter name="FXV">4004.34989121387</parameter><parameter name="LXV">495.721542409425</parameter><parameter name="CSF">1</parameter><parameter name="MXY">0.317461967468262</parameter><parameter name="MNY">0.068154901266098</parameter><parameter name="DAT">17/01/2024</parameter><parameter name="TIM">12:57:02.526 (GMT+1)</parameter><parameter name="DXU">WN</parameter></Data_Parameters_ScRf><Optic_Parameters_Rf><parameter name="APR">0</parameter><parameter name="APT">Open</parameter><parameter name="BMS">KBr</parameter><parameter name="DTC">RT-DLaTGS_IR-Biotyper [Microplate reader]</parameter><parameter name="HPF">0</parameter><parameter name="LPF">10.0</parameter><parameter name="LPV">4000</parameter><parameter name="PGR">0</parameter><parameter name="RCH">Module port</parameter><parameter name="RDX">0</parameter><parameter name="SRC">MIR</parameter><parameter name="VEL">10.0</parameter><parameter name="SON">Off</parameter></Optic_Parameters_Rf><Acquisition_Parameters_Rf><parameter name="ADT">1</parameter><parameter name="AQM">DD</parameter><parameter name="CFE">0</parameter><parameter name="COR">0</parameter><parameter name="DEL">0</parameter><parameter name="DLY">0</parameter><parameter name="HFW">8000</parameter><parameter name="LFW">0</parameter><parameter name="NSR">32</parameter><parameter name="PLF">AB</parameter><parameter name="RES">6</parameter><parameter name="RGN">-1</parameter><parameter name="STR">0</parameter><parameter name="TCL">MakeCompatibleScalar (0, {WSV=1.000000, ARV=0});</parameter><parameter name="TDL">37</parameter><parameter name="RPO">0</parameter></Acquisition_Parameters_Rf><FT_-_Parameters_Rf><parameter name="APF">B3</parameter><parameter name="HFQ">500</parameter><parameter name="LFQ">4000</parameter><parameter name="NLI">0</parameter><parameter name="PHR">24</parameter><parameter name="PHZ">ML</parameter><parameter name="SPZ">NO</parameter><parameter name="ZFF">1</parameter></FT_-_Parameters_Rf><Optic_Parameters_><parameter name="APR">0</parameter><parameter name="APT">Open</parameter><parameter name="BMS">KBr</parameter><parameter name="CHN">Module port</parameter><parameter name="DTC">RT-DLaTGS_IR-Biotyper [Microplate reader]</parameter><parameter name="HPF">0</parameter><parameter name="LPF">10.0</parameter><parameter name="LPV">4000</parameter><parameter name="PGN">0</parameter><parameter name="RDX">0</parameter><parameter name="SRC">MIR</parameter><parameter name="VEL">10.0</parameter><parameter name="SON">Off</parameter></Optic_Parameters_><FT_-_Parameters_><parameter name="APF">B3</parameter><parameter name="HFQ">500</parameter><parameter name="LFQ">4000</parameter><parameter name="NLI">0</parameter><parameter name="PHR">24</parameter><parameter name="PHZ">ML</parameter><parameter name="SPZ">NO</parameter><parameter name="ZFF">1</parameter></FT_-_Parameters_><Acquisition_Parameters_><parameter name="ADT">1</parameter><parameter name="AQM">DD</parameter><parameter name="CFE">0</parameter><parameter name="COR">0</parameter><parameter name="DEL">0</parameter><parameter name="DLY">0</parameter><parameter name="HFW">8000</parameter><parameter name="LFW">0</parameter><parameter name="NSS">32</parameter><parameter name="PLF">AB</parameter><parameter name="RES">6</parameter><parameter name="SOT">0</parameter><parameter name="TCL">MakeCompatibleScalar (0, {WSV=1.000000, ARV=0});</parameter><parameter name="TDL">37</parameter><parameter name="SPO">0</parameter><parameter name="SGN">-1</parameter></Acquisition_Parameters_><Instrument_Parameters_Rf><parameter name="HFL">15801.365274</parameter><parameter name="LFL">0</parameter><parameter name="LWN">15801.365274</parameter><parameter name="ABP">32157</parameter><parameter name="SSP">1</parameter><parameter name="ARG">2</parameter><parameter name="ASG">2</parameter><parameter name="ASS">32</parameter><parameter name="GFW">16</parameter><parameter name="GBW">16</parameter><parameter name="BFW">0</parameter><parameter name="BBW">0</parameter><parameter name="PKA">9111</parameter><parameter name="PKL">4987</parameter><parameter name="PRA">9127</parameter><parameter name="PRL">5010</parameter><parameter name="P2A">1</parameter><parameter name="P2L">1</parameter><parameter name="P2R">1</parameter><parameter name="P2K">1</parameter><parameter name="DAQ">0</parameter><parameter name="AG2">1</parameter><parameter name="SSM">1</parameter><parameter name="RSN">46288</parameter><parameter name="CRR">0</parameter><parameter name="SRT">1705496222.527</parameter><parameter name="DUR">19.6439971923828</parameter><parameter name="TSC">30.8</parameter><parameter name="MVD">0.367735683917999</parameter><parameter name="AN1">0.226012912547883</parameter><parameter name="AN2">0</parameter><parameter name="VSN">2.485 Apr  4 2017</parameter><parameter name="SRN">0085</parameter><parameter name="CAM">0</parameter><parameter name="INS">IR-Biotyper</parameter><parameter name="FOC">69</parameter><parameter name="RDY">1</parameter><parameter name="ARS">32</parameter></Instrument_Parameters_Rf><Sample_Parameters_><parameter name="BLD"></parameter><parameter name="CNM">Admin</parameter><parameter name="CPY"></parameter><parameter name="DPM"></parameter><parameter name="EXP">IRBT_v3_32Scans.XPM</parameter><parameter name="LCT"></parameter><parameter name="SFM">Microplate, HTS-XT</parameter><parameter name="SNM">240117-1222-Cdiff_SCFA_1_C7_232113953_G4_9ca3e62a-48fd-4b2d-a905-0cc5c6a8003b.0</parameter><parameter name="XPP">C:\Users\Public\Documents\Bruker\OPUS_8.2.28\XPM</parameter><parameter name="IST">OK</parameter><parameter name="CPG">1252</parameter><parameter name="UID">cbe1539a-bd9a-41fa-9bce-85a60a393c47</parameter></Sample_Parameters_><Instrument_Parameters_><parameter name="HFL">15801.365274</parameter><parameter name="LFL">0</parameter><parameter name="LWN">15801.365274</parameter><parameter name="ABP">32157</parameter><parameter name="SSP">1</parameter><parameter name="ASG">2</parameter><parameter name="ARG">2</parameter><parameter name="ASS">32</parameter><parameter name="GFW">16</parameter><parameter name="GBW">16</parameter><parameter name="BFW">0</parameter><parameter name="BBW">0</parameter><parameter name="PKA">10182</parameter><parameter name="PKL">4987</parameter><parameter name="PRA">10337</parameter><parameter name="PRL">5010</parameter><parameter name="P2A">1</parameter><parameter name="P2L">1</parameter><parameter name="P2R">1</parameter><parameter name="P2K">1</parameter><parameter name="DAQ">0</parameter><parameter name="AG2">1</parameter><parameter name="SSM">1</parameter><parameter name="RSN">23837</parameter><parameter name="CRR">0</parameter><parameter name="SRT">1705496248.388</parameter><parameter name="DUR">19.6439971923828</parameter><parameter name="TSC">30.8</parameter><parameter name="MVD">0.327909260988235</parameter><parameter name="AN1">0.226012841691396</parameter><parameter name="AN2">0</parameter><parameter name="VSN">2.485 Apr  4 2017</parameter><parameter name="SRN">0085</parameter><parameter name="CAM">0</parameter><parameter name="INS">IR-Biotyper</parameter><parameter name="FOC">69</parameter><parameter name="RDY">1</parameter></Instrument_Parameters_><History/></OPUSDataFile>
