<?xml version="1.0" encoding="UTF-8" ?>
<OPUSDataFile><AB><Ydata ylabel="Absorbance Units"><values byteorder="INTEL" format="FLOAT32" numvalues="3497"> -0.09079317 -0.09078567 -0.09077476 -0.0907606 -0.09074339 -0.09072405 -0.09070423 -0.09068579 -0.09067238 -0.09066481
 -0.09066615 -0.09067369 -0.09068748 -0.09070166 -0.09071353 -0.09071865 -0.09071407 -0.0907019 -0.09068109 -0.09066005
 -0.09063955 -0.09062815 -0.09062686 -0.09063733 -0.09065954 -0.09068678 -0.09071834 -0.09074462 -0.0907658 -0.09077745
 -0.09078111 -0.0907794 -0.09077372 -0.09076864 -0.09076411 -0.09076212 -0.090762 -0.09076362 -0.09076689 -0.09077185
 -0.09077796 -0.09078535 -0.0907921 -0.09079773 -0.09080004 -0.09079825 -0.09079228 -0.09078184 -0.09076884 -0.09075342
 -0.09073715 -0.09072013 -0.09070375 -0.09068834 -0.09067781 -0.09067278 -0.09067923 -0.09069622 -0.09072505 -0.09076168
 -0.09079811 -0.09083045 -0.09084762 -0.09085247 -0.09084187 -0.09082565 -0.09081008 -0.090802 -0.09080826 -0.09082507
 -0.09085378 -0.09088473 -0.09091582 -0.09094092 -0.0909584 -0.09096848 -0.09097084 -0.09096941 -0.09096441 -0.09096009
 -0.09095661 -0.09095751 -0.09096261 -0.09097301 -0.09098809 -0.09100659 -0.09102746 -0.09104777 -0.09106672 -0.09108197
 -0.09109266 -0.09109706 -0.09109446 -0.09108318 -0.09106518 -0.09104002 -0.09101343 -0.09098715 -0.09096583 -0.09095167
 -0.09094246 -0.09093862 -0.09093393 -0.09092764 -0.09091827 -0.09090572 -0.09089506 -0.0908865 -0.0908846 -0.09088872
 -0.09089761 -0.09090998 -0.09092062 -0.09092889 -0.09093011 -0.09092586 -0.09091564 -0.09090379 -0.09089522 -0.09089208
 -0.09089959 -0.0909116 -0.09092776 -0.0909372 -0.09093459 -0.09091907 -0.09088755 -0.09085228 -0.09081467 -0.0907844
 -0.09076296 -0.09074956 -0.09074424 -0.09074701 -0.09075823 -0.09078359 -0.09082209 -0.09087262 -0.09092985 -0.09097465
 -0.09100171 -0.09098487 -0.0909323 -0.0908417 -0.09073303 -0.09062984 -0.09054112 -0.09048404 -0.09045298 -0.09045008
 -0.0904666 -0.09050056 -0.09054261 -0.09059164 -0.09063295 -0.09066441 -0.09067266 -0.09065535 -0.09061555 -0.09055325
 -0.09048875 -0.09042292 -0.09037271 -0.09033711 -0.09031866 -0.09031526 -0.09032083 -0.09033337 -0.09034492 -0.09035461
 -0.09035661 -0.0903533 -0.09034476 -0.09033462 -0.09032727 -0.09032024 -0.09031489 -0.09030274 -0.09027965 -0.09024509
 -0.09019603 -0.09014548 -0.09009487 -0.09005616 -0.09003128 -0.09001967 -0.09002145 -0.09002834 -0.09003995 -0.09004995
 -0.09005819 -0.09006086 -0.0900574 -0.0900434 -0.09001909 -0.08998168 -0.08993445 -0.08988125 -0.08982598 -0.0897755
 -0.08972987 -0.08969218 -0.08965901 -0.08962902 -0.08960045 -0.08957186 -0.08954451 -0.08951873 -0.08949444 -0.08947214
 -0.08944808 -0.08942199 -0.08938967 -0.08935079 -0.08930512 -0.08925292 -0.08919849 -0.0891425 -0.08909157 -0.08904582
 -0.08900974 -0.08898216 -0.08896267 -0.08894963 -0.08893971 -0.08893258 -0.08892629 -0.08892154 -0.08891879 -0.08891691
 -0.08891609 -0.08891273 -0.08890539 -0.08889157 -0.08886929 -0.08884268 -0.08881126 -0.08878532 -0.08876619 -0.0887583
 -0.08876223 -0.08876695 -0.08877154 -0.08875858 -0.08872899 -0.08868013 -0.08861493 -0.08854488 -0.08846941 -0.08839279
 -0.08831318 -0.08822694 -0.08813906 -0.08805376 -0.08797678 -0.08791711 -0.08786935 -0.08783497 -0.08780083 -0.08776118
 -0.08771051 -0.08764435 -0.08757049 -0.08748922 -0.08740995 -0.08733409 -0.08726373 -0.08719921 -0.08713646 -0.08707516
 -0.08700871 -0.08693696 -0.08685505 -0.08676426 -0.08666669 -0.08656476 -0.08646625 -0.0863722 -0.08628922 -0.08621452
 -0.0861486 -0.08608454 -0.08601655 -0.08593937 -0.0858463 -0.08574189 -0.08562552 -0.08550572 -0.0853863 -0.0852648
 -0.08514253 -0.08500817 -0.08486032 -0.08469361 -0.0845073 -0.08430859 -0.0840981 -0.08388855 -0.08368028 -0.083483
 -0.08329434 -0.08311161 -0.08292811 -0.08272425 -0.08249498 -0.08221773 -0.08190183 -0.08154658 -0.08117217 -0.08079763
 -0.08043312 -0.08009354 -0.07977086 -0.07946787 -0.07916517 -0.07885964 -0.07852776 -0.07816412 -0.07775641 -0.07730087
 -0.07680985 -0.07628365 -0.0757426 -0.07518718 -0.07462213 -0.07404716 -0.07346132 -0.07286651 -0.07227133 -0.07167641
 -0.07108941 -0.07050639 -0.06992397 -0.06933715 -0.0687376 -0.06812306 -0.06748766 -0.06683385 -0.06616025 -0.06547391
 -0.06477898 -0.06407452 -0.06336454 -0.0626292 -0.0618654 -0.06105684 -0.06019821 -0.05931134 -0.05839675 -0.05749343
 -0.05660229 -0.05573038 -0.05487511 -0.05401712 -0.05315624 -0.05228066 -0.05139427 -0.05050226 -0.04960789 -0.04872189
 -0.04784065 -0.0469681 -0.04608728 -0.04518565 -0.04424428 -0.04323998 -0.04218849 -0.04108251 -0.03997392 -0.03887966
 -0.03782203 -0.03681473 -0.03582347 -0.03484659 -0.03384521 -0.0328152 -0.03175987 -0.03068008 -0.02960671 -0.0285396
 -0.02749189 -0.02645837 -0.02542168 -0.02437767 -0.02330243 -0.02220131 -0.02107088 -0.01992447 -0.01878024 -0.0176444
 -0.01653291 -0.01543622 -0.01435407 -0.01327299 -0.01218597 -0.01108781 -0.009974662 -0.00884865 -0.007708685 -0.006562982
 -0.005412118 -0.00426617 -0.003126424 -0.001989006 -0.0008533143 0.0003014636 0.001475312 0.002678596 0.003906512 0.005141174
 0.006378938 0.007597497 0.008800938 0.00998619 0.01116009 0.01233147 0.0135039 0.01468483 0.01587329 0.01707173
 0.01827526 0.0194815 0.02068959 0.02189661 0.02311347 0.0243417 0.02559156 0.02686633 0.02815569 0.02945961
 0.03075695 0.03204694 0.03332334 0.03458705 0.03584462 0.03709633 0.03834634 0.0395951 0.04084555 0.04209951
 0.04336312 0.04463532 0.04591847 0.04720723 0.04849688 0.04978409 0.05106393 0.05233918 0.05360901 0.05487994
 0.05615395 0.05743544 0.05872647 0.06002454 0.06133015 0.06263552 0.06394005 0.06523807 0.06652931 0.06781179
 0.06908539 0.07034792 0.07159983 0.07284138 0.07407473 0.07530713 0.07653964 0.07777915 0.07902278 0.08026965
 0.08151582 0.08275673 0.08399035 0.08521401 0.08642643 0.08762569 0.08881388 0.0899903 0.09116156 0.09232912
 0.09349696 0.09466618 0.09583558 0.09700509 0.09817476 0.09934457 0.1005141 0.1016827 0.1028413 0.1039895
 0.1051185 0.1062308 0.1073297 0.1084177 0.109503 0.1105837 0.1116608 0.1127324 0.1137968 0.1148546
 0.115906 0.1169503 0.1179872 0.1190156 0.1200344 0.121047 0.1220543 0.1230571 0.1240565 0.1250446
 0.1260206 0.1269788 0.1279191 0.1288472 0.1297641 0.1306801 0.1315953 0.1325149 0.1334371 0.134359
 0.1352772 0.1361823 0.1370729 0.1379403 0.1387922 0.1396318 0.1404705 0.14132 0.1421802 0.1430576
 0.1439371 0.1448157 0.1456788 0.1465211 0.1473407 0.1481353 0.1489152 0.1496808 0.1504449 0.1512083
 0.1519751 0.1527444 0.1535092 0.1542686 0.1550142 0.1557468 0.1564647 0.1571685 0.1578587 0.1585364
 0.1592025 0.1598605 0.1605152 0.1611679 0.161823 0.1624758 0.1631248 0.1637677 0.1644018 0.165033
 0.1656627 0.1662941 0.1669291 0.1675599 0.1681861 0.1687987 0.1693971 0.1699804 0.1705487 0.1711039
 0.171646 0.1721755 0.1726931 0.1732008 0.1736997 0.1741931 0.1746818 0.1751691 0.1756543 0.1761396
 0.1766202 0.1770945 0.1775538 0.1779925 0.1784081 0.1787964 0.1791669 0.1795206 0.1798672 0.1802091
 0.1805462 0.1808789 0.1812029 0.1815179 0.1818227 0.1821172 0.1824004 0.1826719 0.1829284 0.1831697
 0.1833921 0.1835968 0.1837835 0.1839559 0.1841192 0.1842784 0.1844425 0.1846113 0.1847897 0.1849698
 0.1851489 0.1853191 0.1854754 0.185618 0.1857452 0.1858617 0.1859676 0.1860681 0.1861634 0.1862606
 0.1863603 0.1864664 0.1865782 0.1866867 0.1867897 0.1868699 0.1869277 0.1869536 0.1869523 0.1869296
 0.1868899 0.1868443 0.1867924 0.1867389 0.1866816 0.186619 0.1865536 0.186485 0.1864209 0.1863648
 0.1863195 0.186288 0.1862608 0.1862371 0.1862048 0.1861621 0.1861091 0.1860459 0.1859834 0.1859221
 0.1858691 0.1858234 0.1857816 0.1857418 0.1856948 0.1856396 0.1855684 0.1854838 0.185385 0.1852798
 0.185176 0.1850843 0.1850159 0.1849766 0.1849747 0.1850046 0.1850683 0.1851499 0.1852465 0.1853417
 0.1854313 0.1855108 0.1855783 0.185644 0.1857084 0.1857845 0.1858725 0.1859763 0.1860956 0.1862297
 0.1863804 0.1865553 0.1867564 0.1869956 0.1872654 0.1875628 0.1878666 0.1881508 0.1883962 0.1885722
 0.1886875 0.188731 0.1887423 0.1887323 0.1887393 0.1887791 0.1888556 0.1889756 0.1891104 0.1892588
 0.1893863 0.1894906 0.1895489 0.189561 0.1895203 0.1894289 0.1892976 0.1891298 0.1889465 0.1887487
 0.1885515 0.188351 0.1881472 0.1879354 0.1877084 0.1874667 0.1872073 0.1869337 0.1866495 0.1863494
 0.1860361 0.1856877 0.1853008 0.1848489 0.1843246 0.1837256 0.1830481 0.182326 0.1815608 0.1807964
 0.1800338 0.1792907 0.1785645 0.1778437 0.177127 0.1764013 0.1756701 0.1749359 0.1742029 0.1734809
 0.172771 0.1720791 0.1714039 0.1707473 0.1701051 0.1694771 0.1688536 0.1682313 0.1675989 0.1669517
 0.166288 0.1656049 0.1649172 0.164225 0.1635518 0.162899 0.1622817 0.1616996 0.1611447 0.160614
 0.1600794 0.1595395 0.15897 0.1583763 0.1577594 0.1571286 0.1565033 0.1558853 0.1552881 0.1547025
 0.1541256 0.1535479 0.1529609 0.1523652 0.1517579 0.1511459 0.1505308 0.149917 0.149306 0.1486988
 0.1480956 0.1474984 0.1469071 0.1463232 0.1457464 0.1451725 0.1446004 0.1440203 0.1434321 0.142828
 0.1422105 0.1415817 0.1409459 0.1403128 0.1396841 0.1390674 0.1384589 0.1378588 0.1372604 0.1366593
 0.136052 0.1354353 0.1348092 0.134173 0.1335278 0.1328735 0.1322126 0.1315451 0.1308769 0.1302082
 0.1295435 0.1288829 0.1282242 0.1275668 0.1269058 0.1262414 0.1255732 0.1249023 0.1242323 0.1235627
 0.1228947 0.1222267 0.1215563 0.1208848 0.1202119 0.1195416 0.1188769 0.118218 0.117567 0.1169187
 0.1162714 0.1156224 0.1149691 0.1143202 0.1136754 0.1130506 0.1124472 0.1118713 0.1113225 0.110784
 0.1102532 0.1096984 0.1091194 0.1084957 0.1078342 0.1071422 0.1064306 0.1057249 0.1050316 0.1043727
 0.1037449 0.1031554 0.1025909 0.1020464 0.1015051 0.1009572 0.1003956 0.09981323 0.09922147 0.09862
 0.09802788 0.09744831 0.09688697 0.09634507 0.09581199 0.09528732 0.09476454 0.09424537 0.09374309 0.09326038
 0.09281904 0.09241632 0.09205863 0.09173406 0.09142351 0.09111175 0.09076751 0.09038577 0.08994555 0.08946207
 0.08893529 0.08839304 0.08784867 0.08731925 0.08681567 0.08633284 0.08587235 0.08542226 0.08498015 0.08454719
 0.08412294 0.08371715 0.0833301 0.08296119 0.08260918 0.0822612 0.0819173 0.08157016 0.08122305 0.0808828
 0.0805511 0.0802365 0.07993478 0.07964441 0.07935856 0.07906923 0.07877358 0.07846645 0.07814971 0.0778231
 0.07748831 0.0771469 0.07679503 0.07643335 0.07605123 0.07564758 0.07521144 0.07474128 0.07423932 0.07370596
 0.07316347 0.07261382 0.07208642 0.07158041 0.07110871 0.07066505 0.07023703 0.06981761 0.06938422 0.06893706
 0.06846446 0.06797522 0.06747362 0.06696896 0.0664707 0.06597918 0.06549852 0.06502081 0.06454445 0.06406245
 0.06357224 0.06307399 0.06256665 0.06205774 0.06154744 0.06104799 0.06056004 0.06009312 0.05964646 0.05921602
 0.05879872 0.0583757 0.05794581 0.05749302 0.05702329 0.0565404 0.0560539 0.05558153 0.05512501 0.05469558
 0.05428342 0.05388559 0.05349136 0.05309314 0.05269032 0.05228003 0.05186847 0.05145697 0.0510477 0.05064148
 0.05023623 0.04983147 0.04943084 0.0490346 0.04865853 0.04830369 0.04798885 0.04771243 0.04747759 0.04727784
 0.04709374 0.0469188 0.04672648 0.04651995 0.04628904 0.0460486 0.04580961 0.0455878 0.04539959 0.04524983
 0.04514655 0.04508504 0.04506508 0.04508317 0.04513748 0.04523149 0.04536508 0.04554452 0.04577042 0.04604642
 0.04637273 0.04674964 0.04717743 0.04765875 0.0481954 0.04879832 0.04947016 0.05022674 0.05106761 0.05200143
 0.05302179 0.05412394 0.05529775 0.05653074 0.05781451 0.0591393 0.06049887 0.06188858 0.06330134 0.06473474
 0.06617964 0.06763378 0.06908946 0.07054514 0.07199695 0.07344462 0.07488307 0.07631203 0.07771565 0.07909173
 0.08040926 0.08166358 0.08281325 0.08385169 0.08473525 0.08545689 0.08597752 0.08629619 0.08638801 0.08627217
 0.08594906 0.08547188 0.08486819 0.08422291 0.08357923 0.08302634 0.08260516 0.0823722 0.0823531 0.08255141
 0.08297587 0.08358613 0.08438113 0.08530211 0.08634574 0.08745541 0.08862862 0.08982007 0.09102837 0.09222171
 0.0934003 0.09454702 0.09566472 0.09675021 0.09780977 0.09885137 0.09988234 0.1009153 0.1019514 0.103001
 0.1040451 0.1050903 0.1060676 0.1069785 0.1076601 0.1080972 0.108035 0.1074349 0.1060812 0.1039355
 0.1010227 0.09733962 0.09321291 0.08866935 0.08416202 0.07970605 0.07563201 0.07191778 0.06866501 0.06582835
 0.06335039 0.06119103 0.05925718 0.05752504 0.05593222 0.05446408 0.0530906 0.0518005 0.05057989 0.04942369
 0.04832593 0.04728983 0.04631437 0.0454072 0.04456912 0.04380802 0.04312459 0.04252652 0.04201433 0.04159421
 0.041266 0.04102829 0.04087922 0.04080703 0.04080805 0.04086418 0.04096818 0.04109708 0.04123512 0.04134952
 0.04141597 0.04139334 0.04126332 0.04099218 0.04058807 0.04003856 0.03938403 0.03863106 0.03783714 0.03701513
 0.03622092 0.03546412 0.03479258 0.03421129 0.03376358 0.03345219 0.0333236 0.03337913 0.03365178 0.03412911
 0.03476264 0.03550132 0.03613817 0.03658799 0.03652121 0.03589788 0.03445745 0.03230596 0.02942377 0.02605674
 0.02238511 0.01865833 0.01507896 0.01176191 0.008815921 0.006208613 0.003960406 0.001979266 0.000253158 -0.001293021
 -0.002669118 -0.003918602 -0.005044858 -0.006075964 -0.007013245 -0.007879155 -0.008674843 -0.009419038 -0.01011307 -0.01077216
 -0.01139748 -0.01200004 -0.01257968 -0.0131412 -0.01368386 -0.01420807 -0.01471478 -0.01520432 -0.01567951 -0.01614199
 -0.01659419 -0.01703751 -0.01747314 -0.01790147 -0.01832416 -0.01874147 -0.01915529 -0.01956605 -0.01997276 -0.02037547
 -0.02076946 -0.02115453 -0.0215268 -0.02188667 -0.02223512 -0.02257304 -0.02290479 -0.02323063 -0.02355377 -0.02387333
 -0.02418899 -0.02450049 -0.02480656 -0.02510958 -0.02541073 -0.02571347 -0.02602128 -0.02633251 -0.02664894 -0.02696162
 -0.02726889 -0.0275614 -0.02783641 -0.02809317 -0.02833059 -0.02855655 -0.02877143 -0.02898345 -0.02919286 -0.02940342
 -0.02961496 -0.029828 -0.03004221 -0.03025666 -0.03047096 -0.03068362 -0.03089434 -0.03110156 -0.03130591 -0.03150738
 -0.03170709 -0.03190619 -0.03210498 -0.03230442 -0.03250285 -0.03270023 -0.03289332 -0.03308126 -0.0332614 -0.03343295
 -0.03359529 -0.03374805 -0.03389337 -0.03403129 -0.03416668 -0.03429985 -0.03443699 -0.03457818 -0.03472723 -0.03488319
 -0.03504397 -0.03520826 -0.03537086 -0.03553174 -0.03568764 -0.03584099 -0.03599337 -0.03614784 -0.0363083 -0.03647495
 -0.03665017 -0.03682944 -0.03701188 -0.0371917 -0.03736617 -0.03753566 -0.0376987 -0.0378639 -0.03803193 -0.03821167
 -0.0384041 -0.03860812 -0.03882343 -0.03904029 -0.03925824 -0.03946884 -0.03967287 -0.03986927 -0.04005922 -0.04024566
 -0.04042907 -0.04061177 -0.04079392 -0.04097675 -0.0411602 -0.04134498 -0.04152982 -0.04171458 -0.04189651 -0.04207424
 -0.04224643 -0.04241195 -0.04257241 -0.04272777 -0.04288046 -0.04303092 -0.04317946 -0.0433262 -0.04346963 -0.04360971
 -0.04374612 -0.04387912 -0.0440111 -0.0441423 -0.04427529 -0.0444097 -0.04454596 -0.04468301 -0.0448189 -0.04495282
 -0.04508255 -0.04520859 -0.04533023 -0.04544933 -0.04556672 -0.04568454 -0.04580396 -0.04592621 -0.04605218 -0.04618125
 -0.04631377 -0.04644717 -0.04658133 -0.04671249 -0.04684034 -0.04696232 -0.04707836 -0.04718916 -0.04729511 -0.04740027
 -0.04750498 -0.04761342 -0.047725 -0.04784047 -0.04795833 -0.04807572 -0.04819171 -0.04830332 -0.04841142 -0.0485156
 -0.0486175 -0.04871821 -0.04881861 -0.0489194 -0.0490209 -0.04912322 -0.04922706 -0.0493327 -0.04943998 -0.04954905
 -0.04965837 -0.04976781 -0.04987659 -0.04998471 -0.05009401 -0.05020465 -0.05031923 -0.05043739 -0.05055892 -0.05068284
 -0.05080599 -0.05092738 -0.05104323 -0.05115359 -0.0512564 -0.0513535 -0.05144538 -0.05153565 -0.05162678 -0.0517219
 -0.05182358 -0.05193165 -0.05204733 -0.05216636 -0.05228837 -0.05240793 -0.05252409 -0.05263457 -0.05273895 -0.05283885
 -0.05293435 -0.05302817 -0.05312046 -0.05321336 -0.05330716 -0.05340464 -0.05350593 -0.05361348 -0.05372594 -0.05384218
 -0.05395936 -0.05407227 -0.05418022 -0.05427941 -0.05437361 -0.05446366 -0.05455515 -0.05465135 -0.05475465 -0.05486732
 -0.05498652 -0.0551126 -0.05523952 -0.05536665 -0.05548809 -0.05560315 -0.05570974 -0.05580778 -0.05590027 -0.05598752
 -0.0560743 -0.05616062 -0.05624925 -0.05633976 -0.05643226 -0.05652607 -0.05661985 -0.05671301 -0.05680399 -0.05689279
 -0.05697859 -0.05706244 -0.05714472 -0.05722677 -0.0573095 -0.05739326 -0.05747859 -0.05756452 -0.05765098 -0.0577369
 -0.05782223 -0.05790532 -0.05798602 -0.0580634 -0.05813744 -0.05820982 -0.05828078 -0.05835386 -0.05842891 -0.05850719
 -0.05858774 -0.05866804 -0.0587472 -0.05882153 -0.05889176 -0.05895711 -0.05901944 -0.05908049 -0.05914168 -0.05920483
 -0.05927001 -0.05933792 -0.05940767 -0.05947921 -0.05955124 -0.05962348 -0.05969485 -0.05976518 -0.05983339 -0.05989932
 -0.05996266 -0.0600234 -0.06008254 -0.06014027 -0.0601995 -0.06026039 -0.06032575 -0.06039502 -0.06046803 -0.0605437
 -0.06061933 -0.0606947 -0.06076799 -0.06084024 -0.06091196 -0.0609839 -0.06105694 -0.06113103 -0.06120615 -0.061283
 -0.06136146 -0.06144392 -0.06153115 -0.06162368 -0.06172222 -0.06182283 -0.06192545 -0.06202325 -0.06211584 -0.06219853
 -0.06227149 -0.06233565 -0.06239189 -0.06244575 -0.06249808 -0.06255516 -0.0626166 -0.06268498 -0.06275861 -0.06283601
 -0.06291556 -0.06299463 -0.06307282 -0.06314892 -0.06322315 -0.06329535 -0.06336572 -0.06343429 -0.06350125 -0.06356657
 -0.06363083 -0.06369416 -0.06375657 -0.06381804 -0.06387862 -0.06393829 -0.06399854 -0.06405954 -0.06412403 -0.06419186
 -0.06426376 -0.06433884 -0.06441414 -0.06448893 -0.06455946 -0.06462675 -0.06469063 -0.06475265 -0.06481494 -0.06487728
 -0.06494074 -0.06500298 -0.06506291 -0.06511899 -0.0651698 -0.06521713 -0.06526077 -0.06530451 -0.06534895 -0.0653969
 -0.06544892 -0.06550448 -0.06556361 -0.06562317 -0.06568301 -0.06574034 -0.06579529 -0.06584724 -0.06589645 -0.06594356
 -0.0659887 -0.0660324 -0.06607503 -0.06611747 -0.06616008 -0.06620383 -0.06624838 -0.06629398 -0.06633965 -0.06638483
 -0.06642924 -0.06647255 -0.06651505 -0.06655698 -0.06659743 -0.06663647 -0.06667211 -0.06670407 -0.06673198 -0.06675576
 -0.0667777 -0.06679801 -0.0668204 -0.06684499 -0.06687465 -0.06690902 -0.06694861 -0.06699245 -0.06703854 -0.06708565
 -0.0671306 -0.06717304 -0.0672109 -0.06724548 -0.06727675 -0.06730736 -0.06733872 -0.06737293 -0.06741152 -0.06745399
 -0.06750104 -0.06754886 -0.06759713 -0.06764124 -0.06768055 -0.06771334 -0.0677394 -0.06776077 -0.06777761 -0.06779311
 -0.06780733 -0.06782216 -0.06783749 -0.06785389 -0.06787144 -0.06789054 -0.06791162 -0.06793553 -0.0679628 -0.06799435
 -0.06803063 -0.06807238 -0.06811984 -0.06817339 -0.06823304 -0.06829901 -0.06837066 -0.06844794 -0.06852993 -0.06861652
 -0.06870677 -0.06880064 -0.06889666 -0.06899477 -0.06909215 -0.06918854 -0.06927902 -0.06936326 -0.06943639 -0.0694982
 -0.06954525 -0.06957734 -0.06959234 -0.06958988 -0.06956842 -0.06952737 -0.06946506 -0.06938196 -0.06927596 -0.06915405
 -0.06901664 -0.06888078 -0.06875259 -0.06864789 -0.06857371 -0.06853189 -0.06852543 -0.06854271 -0.06858347 -0.06863042
 -0.06868242 -0.06872533 -0.06875891 -0.06878081 -0.06879192 -0.0687983 -0.06879976 -0.0687989 -0.0687944 -0.06878371
 -0.06876655 -0.0687409 -0.06870776 -0.06866742 -0.06862126 -0.06857039 -0.06851663 -0.06846134 -0.06840593 -0.0683516
 -0.06829771 -0.06824446 -0.06819029 -0.0681347 -0.0680781 -0.0680202 -0.06796482 -0.06791218 -0.06786581 -0.06782574
 -0.06779133 -0.06776202 -0.06773333 -0.06770493 -0.06767279 -0.06763786 -0.06760055 -0.06756242 -0.06752694 -0.06749427
 -0.06746646 -0.06744201 -0.06742033 -0.0673999 -0.06737927 -0.06735878 -0.067338 -0.06731846 -0.06730071 -0.06728499
 -0.06727184 -0.06725866 -0.06724534 -0.06722818 -0.06720685 -0.06718049 -0.06714924 -0.06711706 -0.06708443 -0.06705727
 -0.06703549 -0.06702232 -0.06701656 -0.06701683 -0.06702133 -0.067026 -0.06702954 -0.06702822 -0.06702226 -0.06701025
 -0.06699368 -0.06697293 -0.06694995 -0.06692566 -0.06690146 -0.0668781 -0.06685562 -0.06683438 -0.06681277 -0.06679064
 -0.06676625 -0.06673941 -0.06671047 -0.06667951 -0.06664882 -0.06661839 -0.0665893 -0.0665611 -0.06653213 -0.06650215
 -0.06646929 -0.06643432 -0.06639762 -0.06636076 -0.06632601 -0.06629444 -0.0662683 -0.0662468 -0.06623067 -0.06621689
 -0.06620456 -0.06619029 -0.06617265 -0.06615061 -0.06612344 -0.06609265 -0.06605822 -0.06602252 -0.06598572 -0.06594925
 -0.06591314 -0.06587855 -0.06584552 -0.06581523 -0.06578767 -0.06576369 -0.06574282 -0.06572427 -0.06570705 -0.0656889
 -0.06566884 -0.06564431 -0.06561549 -0.06558131 -0.06554341 -0.06550241 -0.06546017 -0.06541777 -0.06537604 -0.06533547
 -0.06529631 -0.06525855 -0.06522302 -0.06518977 -0.0651602 -0.06513445 -0.06511305 -0.06509599 -0.06508192 -0.06507061
 -0.06505944 -0.0650483 -0.06503517 -0.06502021 -0.06500291 -0.06498335 -0.06496141 -0.06493731 -0.06491105 -0.06488346
 -0.06485524 -0.06482758 -0.06480166 -0.06477766 -0.06475617 -0.06473601 -0.06471691 -0.06469795 -0.06467872 -0.06465957
 -0.06464046 -0.06462202 -0.06460432 -0.06458772 -0.06457225 -0.06455782 -0.06454434 -0.06453085 -0.06451715 -0.06450156
 -0.0644841 -0.06446361 -0.06444073 -0.06441618 -0.06439088 -0.06436674 -0.06434389 -0.06432354 -0.06430452 -0.0642864
 -0.06426802 -0.06424836 -0.06422817 -0.06420715 -0.06418753 -0.06416988 -0.064155 -0.06414329 -0.06413319 -0.06412464
 -0.06411553 -0.06410578 -0.06409472 -0.06408238 -0.06406865 -0.06405348 -0.06403647 -0.06401783 -0.06399783 -0.06397733
 -0.0639583 -0.06394147 -0.06392917 -0.06392062 -0.06391639 -0.06391411 -0.06391221 -0.06390917 -0.06390331 -0.06389589
 -0.06388669 -0.06387833 -0.06387156 -0.06386692 -0.06386475 -0.06386389 -0.06386426 -0.06386527 -0.06386689 -0.0638695
 -0.06387305 -0.06387702 -0.06388135 -0.06388528 -0.063889 -0.0638928 -0.06389685 -0.06390192 -0.06390728 -0.06391231
 -0.06391596 -0.06391671 -0.0639144 -0.06390798 -0.06389913 -0.06388802 -0.06387755 -0.06386852 -0.06386387 -0.06386463
 -0.06387119 -0.06388415 -0.0638999 -0.06391832 -0.0639343 -0.06394758 -0.06395604 -0.06395996 -0.06396183 -0.06396208
 -0.0639645 -0.06396884 -0.06397641 -0.0639861 -0.06399605 -0.06400516 -0.06401049 -0.06401239 -0.06400955 -0.06400427
 -0.06399748 -0.06399234 -0.06399098 -0.06399446 -0.06400417 -0.06401779 -0.0640353 -0.06405298 -0.06407009 -0.06408536
 -0.06409846 -0.06411073 -0.06412224 -0.06413416 -0.06414643 -0.06415839 -0.06417005 -0.06418085 -0.06419126 -0.06420265
 -0.06421544 -0.06423155 -0.06425045 -0.06427243 -0.06429584 -0.06431918 -0.06434026 -0.06435661 -0.06436791 -0.06437264
 -0.06437367 -0.06437122 -0.06436983 -0.06437092 -0.06437603 -0.06438604 -0.06439815 -0.06441224 -0.06442518 -0.06443677
 -0.06444786 -0.06445862 -0.06447168 -0.06448681 -0.06450393 -0.06452219 -0.06453821 -0.06455186 -0.06456074 -0.06456614
 -0.06456888 -0.06457056 -0.06457356 -0.06457806 -0.06458528 -0.06459393 -0.06460375 -0.06461316 -0.06462134 -0.06462806
 -0.064633 -0.0646371 -0.06464048 -0.06464386 -0.06464738 -0.06465081 -0.06465415 -0.064657 -0.06465941 -0.06466168
 -0.06466389 -0.06466679 -0.0646702 -0.06467407 -0.06467784 -0.06468014 -0.06468037 -0.06467679 -0.06466945 -0.06465741
 -0.06464171 -0.06462253 -0.06460192 -0.06458083 -0.06456155 -0.0645453 -0.06453276 -0.06452463 -0.06451916 -0.06451635
 -0.06451332 -0.06450982 -0.06450357 -0.06449444 -0.06448138 -0.06446437 -0.06444286 -0.06441697 -0.06438718 -0.06435392
 -0.06431912 -0.06428327 -0.06424879 -0.06421557 -0.06418463 -0.06415562 -0.06412846 -0.06410313 -0.06407958 -0.06405788
 -0.06403829 -0.06401993 -0.06400266 -0.06398503 -0.06396659 -0.06394646 -0.06392439 -0.06389987 -0.0638728 -0.06384295
 -0.06381029 -0.06377544 -0.06373847 -0.06370062 -0.06366196 -0.06362353 -0.06358553 -0.06354905 -0.06351453 -0.0634838
 -0.06345667 -0.06343401 -0.06341454 -0.06339718 -0.06338038 -0.06336234 -0.06334256 -0.06332012 -0.06329548 -0.06326857
 -0.06323987 -0.06320938 -0.06317802 -0.06314589 -0.06311417 -0.06308303 -0.06305271 -0.06302324 -0.0629941 -0.06296532
 -0.06293719 -0.06290998 -0.06288577 -0.06286458 -0.0628481 -0.0628354 -0.06282531 -0.06281609 -0.06280401 -0.06278823
 -0.0627657 -0.06273769 -0.06270384 -0.06266685 -0.06262816 -0.06258982 -0.06255291 -0.06251872 -0.06248787 -0.06246055
 -0.06243721 -0.06241546 -0.06239529 -0.06237232 -0.06234623 -0.06231475 -0.06227788 -0.06223651 -0.06219082 -0.06214244
 -0.06209145 -0.06203879 -0.06198489 -0.06193132 -0.0618786 -0.06182867 -0.06178113 -0.06173652 -0.06169364 -0.06165161
 -0.06160947 -0.0615664 -0.06152179 -0.06147513 -0.0614264 -0.06137541 -0.06132274 -0.06126848 -0.06121321 -0.06115701
 -0.06109988 -0.06104178 -0.06098392 -0.0609264 -0.06087122 -0.06081831 -0.0607682 -0.0607205 -0.0606738 -0.06062783
 -0.06058115 -0.06053354 -0.0604839 -0.06043213 -0.06037746 -0.06032038 -0.06026088 -0.06020014 -0.06013915 -0.0600778
 -0.06001649 -0.05995395 -0.05988973 -0.05982364 -0.05975539 -0.05968635 -0.05961663 -0.05954754 -0.05947923 -0.0594117
 -0.05934491 -0.05927756 -0.05920959 -0.0591398 -0.05906835 -0.05899542 -0.05892104 -0.05884572 -0.05876862 -0.05868837
 -0.0586043 -0.0585142 -0.05842 -0.05832226 -0.05822393 -0.05812737 -0.05803332 -0.05794296 -0.05785508 -0.05776965
 -0.05768517 -0.05760159 -0.05751634 -0.05742918 -0.05733765 -0.05724143 -0.05714164 -0.05703839 -0.05693519 -0.05683198
 -0.05672981 -0.05662828 -0.05652593 -0.05642286 -0.05631863 -0.05621341 -0.05610751 -0.05600077 -0.05589292 -0.05578438
 -0.05567553 -0.05556651 -0.05545822 -0.05534819 -0.05523572 -0.0551182 -0.05499409 -0.0548648 -0.05473005 -0.05459334
 -0.05445528 -0.05431654 -0.05417732 -0.05403608 -0.05389275 -0.05374572 -0.05359491 -0.05343914 -0.05327814 -0.05310997
 -0.05293434 -0.05274916 -0.05255475 -0.05235012 -0.05213739 -0.05191887 -0.05169699 -0.051476 -0.05125396 -0.05103213
 -0.05080381 -0.05056591 -0.05031512 -0.05004823 -0.04977156 -0.04948541 -0.04919814 -0.04891146 -0.04862547 -0.04834058
 -0.04804973 -0.04775262 -0.0474434 -0.04712259 -0.04679246 -0.04645435 -0.04611659 -0.04577887 -0.04544542 -0.0451133
 -0.04477827 -0.04443829 -0.04408783 -0.04372846 -0.04335994 -0.0429832 -0.04260021 -0.04220648 -0.04180128 -0.04137762
 -0.04093354 -0.04046268 -0.03996376 -0.03943031 -0.03886076 -0.03825583 -0.03761492 -0.03695066 -0.03626362 -0.03556366
 -0.03485018 -0.03412003 -0.03337368 -0.03261073 -0.03183486 -0.03105901 -0.03028246 -0.0295131 -0.0287406 -0.02795304
 -0.02714253 -0.02629288 -0.02541217 -0.02450026 -0.02356816 -0.02262422 -0.02166303 -0.02068565 -0.01968111 -0.0186458
 -0.0175813 -0.01648728 -0.01536788 -0.01422464 -0.01303763 -0.01180555 -0.01048637 -0.009080706 -0.007575734 -0.005981449
 -0.004345312 -0.002671938 -0.001007513 0.0006642794 0.002354791 0.004083699 0.005888379 0.00777237 0.009751575 0.01182948
 0.01400291 0.01630962 0.01875844 0.02141164 0.02429784 0.02742999 0.03083136 0.03440934 0.03816202 0.04194565
 0.04574743 0.0494717 0.05311374 0.05665623 0.06010478 0.06350917 0.06688453 0.07033738 0.07387847 0.07761679
 0.08151419 0.08555903 0.08966386 0.09367596 0.09757381 0.1012508 0.1047942 0.1082309 0.1116487 0.1151114
 0.1186208 0.1221983 0.1257971 0.1294077 0.1330092 0.1365972 0.1401612 0.1437006 0.1471909 0.1506309
 0.154025 0.1573735 0.1606885 0.1639573 0.1671164 0.1701494 0.1729563 0.1755548 0.1779294 0.1801181
 0.1821846 0.1841245 0.1859682 0.1876695 0.1891893 0.1905407 0.191703 0.1927614 0.1937425 0.1947031
 0.1956691 0.1966239 0.1975702 0.1984737 0.1993296 0.2001456 0.2009221 0.2016932 0.2024582 0.2032224
 0.2039781 0.2046841 0.2053334 0.2058807 0.2063227 0.2066346 0.2068041 0.2068041 0.2066149 0.2061975
 0.2055611 0.2046829 0.2036349 0.2024326 0.2011923 0.1999494 0.1988234 0.1978461 0.1971086 0.1966328
 0.1964473 0.1965598 0.1969392 0.1975842 0.1984568 0.1995561 0.2008629 0.2023757 0.2040766 0.2059612
 0.2080045 0.2102021 0.2125327 0.2149932 0.2175699 0.2202607 0.2230573 0.2259611 0.2289694 0.2320881
 0.2353186 0.2386689 0.2421424 0.2457427 0.2494733 0.2533241 0.2572955 0.2613662 0.265535 0.2697783
 0.2740948 0.2784506 0.2828432 0.2872308 0.2916144 0.2959822 0.3003337 0.3046764 0.3089739 0.313156
 0.317157 0.3208249 0.3241466 0.3270366 0.329536 0.331661 0.3334113 0.3348013 0.3357871 0.3363524
 0.3364795 0.3361653 0.3353795 0.3341261 0.3323078 0.3299114 0.3269095 0.3232979 0.3192621 0.3148127
 0.3101479 0.305257 0.3001643 0.2948589 0.2893043 0.2835193 0.2775285 0.2713628 0.2650946 0.2587191
 0.2522704 0.2457026 0.2389689 0.2321033 0.2250631 0.2180674 0.2111837 0.2046015 0.1984128 0.1925578
 0.1870507 0.1817422 0.176613 0.1716242 0.1667717 0.1621021 0.1576158 0.1533244 0.1492209 0.1452632
 0.1414493 0.1377473 0.1341636 0.1307022 0.1273604 0.1241447 0.1210257 0.1179772 0.1149551 0.111911
 0.1088252 0.1056675 0.1024544 0.09918717 0.09587499 0.09252208 0.08912274 0.08566502 0.08222697 0.07880648
 0.07558254 0.07256725 0.0698397 0.06739477 0.06513499 0.06304899 0.0610077 0.05901689 0.05702833 0.05505999
 0.05313534 0.05126485 0.04947801 0.0477786 0.04617856 0.04469177 0.04332948 0.04211581 0.04106683 0.04020163
 0.03953172 0.03906617 0.03880883 0.03876725 0.0389418 0.03934734 0.03998385 0.04088137 0.04204158 0.04350214
 0.04526147 0.04729883 0.04959191 0.05197794 0.05442003 0.05667528 0.05873431 0.06044009 0.06182212 0.0628539
 0.06358802 0.06407019 0.06437118 0.06455949 0.06470942 0.06488502 0.06512599 0.06547543 0.065897 0.06639875
 0.06689288 0.06736108 0.06776565 0.06809479 0.06839153 0.06865728 0.068955 0.06928677 0.06968594 0.07015007
 0.07067624 0.07126196 0.07189266 0.07257349 0.07330709 0.07410882 0.07500595 0.07601655 0.07717497 0.07849225
 0.07998647 0.08167361 0.08355907 0.08568667 0.08807068 0.09076351 0.09378763 0.09715031 0.1008618 0.1048819
 0.1092054 0.1138191 0.1187202 0.1239581 0.1295331 0.13546 0.1417181 0.148161 0.1547472 0.1612202
 0.1675532 0.1735472 0.1791813 0.1843439 0.1889715 0.192953 0.1961904 0.1985557 0.1999888 0.2004008
 0.1998216 0.1982234 0.1957227 0.1923291 0.1882212 0.1834216 0.1781367 0.1723868 0.1663842 0.1601432
 0.1538773 0.1475965 0.1414718 0.1355018 0.1297552 0.1242214 0.1188871 0.1137525 0.1088064 0.104066
 0.09956033 0.09530023 0.09131925 0.08760078 0.08414794 0.08092254 0.07790638 0.07505325 0.07234212 0.06972966
 0.06719893 0.06472395 0.06229487 0.05991158 0.0575719 0.05528848 0.05306189 0.05090566 0.04882108 0.04683531
 0.04495328 0.04322849 0.04166626 0.04032328 0.03919367 0.03829563 0.03760708 0.03709771 0.03673699 0.03647327
 0.03627754 0.03610529 0.03593611 0.03574382 0.03551944 0.03525293 0.03494133 0.0345824 0.03417275 0.03371164
 0.03319525 0.03262326 0.03199114 0.03129876 0.03053697 0.02970527 0.02879347 0.02780235 0.02673298 0.02558999
 0.02439343 0.02315231 0.02190164 0.02065293 0.01944489 0.01828763 0.01721143 0.01622149 0.01533366 0.014549
 0.0138732 0.01330404 0.01284337 0.01248266 0.01222192 0.01204378 0.01194647 0.0119066 0.01192207 0.01196613
 0.01203693 0.01210639 0.01217308 0.01221411 0.01222935 0.01220803 0.01215135 0.01205932 0.01193314 0.01177666
 0.01159002 0.01137586 0.01113256 0.01085969 0.01055354 0.0102108 0.009827089 0.009398543 0.008922013 0.008394644
 0.007816554 0.00718575 0.006509735 0.005787775 0.005037836 0.004261075 0.003481055 0.002699662 0.001935727 0.001190156
 0.0004725348 -0.0002171048 -0.0008749148 -0.001500846 -0.002092691 -0.002650004 -0.003170522 -0.003653149 -0.004094725 -0.004493811
 -0.004847196 -0.005153272 -0.005409789 -0.005614042 -0.005764052 -0.005856059 -0.005887643 -0.005856996 -0.005762182 -0.005606409
 -0.00538888 -0.005119162 -0.004797284 -0.004440478 -0.004049614 -0.003647436 -0.0032352 -0.00283514 -0.002448357 -0.002093412
 -0.001771995 -0.001502219 -0.001286308 -0.001141413 -0.001067787 -0.001075621 -0.001160717 -0.001322484 -0.001553164 -0.001845263
 -0.002190584 -0.002581052 -0.003011493 -0.003477071 -0.003976613 -0.004509087 -0.005072951 -0.005668699 -0.006289393 -0.006934732
 -0.007594259 -0.008267105 -0.008944987 -0.00962746 -0.01031 -0.01099245 -0.01167156 -0.01234726 -0.01301701 -0.01368134
 -0.01434057 -0.01499545 -0.01564817 -0.01629829 -0.01694699 -0.01759109 -0.01822868 -0.01885395 -0.0194625 -0.0200488
 -0.02060816 -0.02114055 -0.02164347 -0.02212477 -0.02258488 -0.02303541 -0.02347802 -0.02392163 -0.0243674 -0.02481763
 -0.02527244 -0.02572791 -0.02618356 -0.02663269 -0.02707469 -0.02750315 -0.02791728 -0.0283116 -0.0286844 -0.0290296
 -0.02934501 -0.02962433 -0.02986678 -0.03006854 -0.03023145 -0.03035527 -0.03044321 -0.03049754 -0.03051794 -0.03050657
 -0.03045463 -0.03036199 -0.03021292 -0.03000548 -0.02972471 -0.0293687 -0.0289325 -0.02841578 -0.02782678 -0.02716679
 -0.02645378 -0.02568956 -0.02489393 -0.02406755 -0.02322412 -0.02236125 -0.02148127 -0.020579 -0.01964756 -0.01868177
 -0.01767294 -0.01661868 -0.01551383 -0.01435972 -0.01315488 -0.01190412 -0.01060757 -0.009274566 -0.007906018 -0.006516044
 -0.005106068 -0.003692791 -0.002277772 -0.0008748107 0.0005152403 0.001884493 0.003233031 0.004559687 0.005865841 0.007158005
 0.008439521 0.009724876 0.01101858 0.01233825 0.01368727 0.01507916 0.01651487 0.01800056 0.01953623 0.02112347
 0.02276301 0.02445569 0.02620177 0.02800301 0.02985302 0.03175372 0.03368294 0.03564111 0.03758414 0.03950985
 0.04135815 0.04312554 0.04475661 0.04625018 0.04757854 0.04874537 0.04975784 0.05062306 0.05136985 0.05200513
 0.05255965 0.0530376 0.0534598 0.05382723 0.05414966 0.05442442 0.05465253 0.05483113 0.05495719 0.05503517
 0.05506381 0.05505688 0.05501692 0.05495769 0.05488231 0.05479577 0.05469905 0.05459214 0.05447504 0.05435164
 0.05422254 0.05409745 0.05397694 0.05387023 0.05377606 0.05369586 0.05362503 0.05355404 0.05347629 0.0533764
 0.05324957 0.05308398 0.05287756 0.05262586 0.0523249 0.05197302 0.05156129 0.05108648 0.05054 0.04991795
 0.04922083 0.04844652 0.04760802 0.04670537 0.04576145 0.04477751 0.04378032 0.04277113 0.04177271 0.04078539
 0.03982244 0.03888366 0.03797474 0.03709711 0.03625615 0.03545615 0.03470647 0.03401194 0.03338291 0.03281994
 0.03232914 0.03190243 0.03154028 0.03122336 0.03094819 0.03068397 0.03042491 0.03013429 0.02980559 0.02940955
 0.02894148 0.02839261 0.02776177 0.0270618 0.02629396 0.02548134 0.02462569 0.02374947 0.02285468 0.02196055
 0.02106969 0.02019866 0.01934897 0.01853175 0.01774504 0.01699163 0.01626696 0.01556864 0.01489124 0.01423256
 0.01358316 0.01294249 0.01228839 0.01161917 0.01089619 0.01011485 0.00923062 0.008238113 0.007106276 0.005832308
 0.00441252 0.00284819 0.001165009 -0.0006321584 -0.002497677 -0.004424671 -0.00636177 -0.008302468 -0.0102032 -0.01206122
 -0.01385024 -0.01557385 -0.01722486 -0.01881139 -0.02033841 -0.02181153 -0.0232368 -0.02461264 -0.02594043 -0.0272153
 -0.02843579 -0.02960011 -0.03070715 -0.03175995 -0.03275831 -0.03370903 -0.03461237 -0.03547937 -0.03631075 -0.03712035
 -0.03790843 -0.03868417 -0.03944587 -0.04019181 -0.0409187 -0.04161658 -0.04228318 -0.04290917 -0.04349494 -0.04403722
 -0.0445371 -0.04499518 -0.04540999 -0.04578178 -0.04610573 -0.04638031 -0.04660038 -0.0467638 -0.04686905 -0.04691445
 -0.04690646 -0.04684437 -0.04674635 -0.04661315 -0.04647205 -0.04632453 -0.04619761 -0.04609212 -0.0460268 -0.04600153
 -0.04602597 -0.04609923 -0.04622449 -0.04639947 -0.04662247 -0.04688861 -0.04719272 -0.04752519 -0.04787784 -0.04823622
 -0.04859051 -0.04892584 -0.04923342 -0.04950493 -0.04973568 -0.04992464 -0.05007087 -0.05017485 -0.05023678 -0.05025449
 -0.05022784 -0.05015492 -0.05003588 -0.04987479 -0.04967375 -0.04944984 -0.04920877 -0.04898346 -0.04878233 -0.04864617
 -0.04858097 -0.04861903 -0.04875847 -0.04901257 -0.04936996 -0.04982816 -0.05036604 -0.05097377 -0.05162062 -0.05229494
 -0.05295968 -0.05360362 -0.05419271 -0.05471819 -0.05516088 -0.05551625 -0.05578438 -0.05596454 -0.05606892 -0.05609823
 -0.05606613 -0.05597329 -0.0558308 -0.05563983 -0.05541103 -0.05514684 -0.05485911 -0.05455161 -0.05423692 -0.05391881
 -0.05360848 -0.05330568 -0.0530161 -0.05273215 -0.05245196 -0.05216424 -0.05186307 -0.05154255 -0.05119804 -0.05083477
 -0.0504514 -0.05006316 -0.04967095 -0.04929443 -0.04893511 -0.04860868 -0.04831576 -0.04806183 -0.04784605 -0.04766362
 -0.04751245 -0.04738095 -0.04726591 -0.04715231 -0.04703655 -0.04690428 -0.04675341 -0.04657498 -0.04636842 -0.0461304
 -0.04585993 -0.04555564 -0.04521622 -0.0448405 -0.04442884 -0.04398064 -0.04349873 -0.04298311 -0.04243885 -0.04186616
 -0.04127257 -0.04065834 -0.04003526 -0.03940414 -0.03878448 -0.03817819 -0.03761147 -0.03708542 -0.0366212 -0.03621497
 -0.03586807 -0.03557131 -0.03530678 -0.03506589 -0.0348279 -0.0345901 -0.03434134 -0.03408452 -0.03381769 -0.03354634
 -0.03327204 -0.03300095 -0.03273468 -0.03248048 -0.03223968 -0.03202013 -0.03182345 -0.03165174 -0.03150603 -0.03137337
 -0.03125295 -0.03112096 -0.03097688 -0.03080546 -0.03060923 -0.03039267 -0.03015934 -0.0299233 -0.02968535 -0.02945453
 -0.02922889 -0.02900971 -0.02879388 -0.02857886 -0.0283616 -0.0281395 -0.02790956 -0.02767004 -0.02741788 -0.02715202
 -0.02686901 -0.02656738 -0.02624814 -0.0259105 -0.02556251 -0.02520476 -0.02484401 -0.02448052 -0.02411092 -0.02373463
 -0.02334355 -0.02293831 -0.02251744 -0.0220833 -0.02164286 -0.02119772 -0.02075557 -0.02031486 -0.0198772 -0.01943888
 -0.01899596 -0.01854765 -0.01809025 -0.01763045 -0.01716897 -0.01671764 -0.01628045 -0.01586612 -0.01547797 -0.01511712
 -0.01478497 -0.01447453 -0.01418576 -0.01390549 -0.01363302 -0.0133563 -0.01307535 -0.01278659 -0.01249089 -0.01219152
 -0.01188857 -0.01158399 -0.01127734 -0.01096808 -0.01065722 -0.01034579 -0.01003559 -0.009729341 -0.009426936 -0.009129915
 -0.008835129 -0.008541972 -0.00824565 -0.00794412 -0.007635284 -0.007317146 -0.006995564 -0.00667045 -0.006352502 -0.006042877
 -0.005746268 -0.005462938 -0.005187189 -0.00491827 -0.004645607 -0.004368372 -0.004076815 -0.003770003 -0.003439808 -0.003085241
 -0.002700392 -0.002283907 -0.001831474 -0.001341167 -0.000808281 -0.0002347694 0.0003823068 0.001030863 0.00170887 0.002394035
 0.003080727 0.003741658 0.004370194 0.00494366 0.005456099 0.005905606 0.00628961 0.006636034 0.006946297 0.007261857
 0.007584025 0.00794057 0.008329639 0.008755763 0.009214275 0.00969283 0.01018446 0.010668 0.01113586 0.01156674
 0.01195547 0.01228848 0.01256252 0.01277065 0.01291232 0.01298254 0.01299298 0.01294181 0.01286054 0.01275346
 0.01266006 0.01258732 0.01256012 0.01258238 0.01265719 0.01278499 0.01295589 0.01316899 0.01341024 0.0136784
 0.01395905 0.01425138 0.01454387 0.01483854 0.01513294 0.01543322 0.01574881 0.01608335 0.01644762 0.01683398
 0.01724013 0.01765834 0.01807846 0.01851612 0.01897127 0.01947386 0.02003756 0.02064825 0.02131159 0.02196412
 0.02259749 0.02320043 0.02377137 0.02436161 0.02497282 0.02564149 0.02636141 0.02711464 0.0278875 0.02862187
 0.02930344 0.02986987 0.03030935 0.03057317 0.03065864 0.03053813 0.03023096 0.02973531 0.0290966 0.02833185
 0.02750195 0.02662946 0.02577215 0.02494803 0.02419632 0.02352694 0.02295668 0.02248936 0.02212064 0.02185074
 0.02165599 0.02153431 0.02145045 0.02140187 0.02135434 0.0213072 0.02123803 0.02115126 0.02104329 0.02092717
 0.02082338 0.02074321 0.02071935 0.02072378 0.0207618 0.02074953 0.0206437 0.02037399 0.01988737 0.01921403
 0.01833478 0.01737604 0.0163493 0.01540112 0.01454902 0.01388316 0.01341108 0.01313904 0.01306468 0.01314501
 0.01337595 0.01371136 0.01414629 0.01463931 0.01518196 0.01573155 0.01628263 0.01680385 0.01730001 0.0177633
 0.01820373 0.01862809 0.01904121 0.0194497 0.01984874 0.02023929 0.02061086 0.02096077 0.0212817 0.02157077
 0.02183235 0.02206586 0.02228452 0.02248917 0.0226883 0.02288188 0.02306799 0.0232464 0.02341434 0.02357253
 0.02372272 0.02386515 0.02400151 0.02413138 0.02425443 0.02437127 0.02448254 0.02458868 0.0246914 0.02478729
 0.02487562 0.02495082 0.02501005 0.0250513 0.02507215 0.0250787 0.02507064 0.02506038 0.02504927 0.02504662
 0.02505342 0.02506561 0.02508251 0.02509012 0.02508776 0.02506396 0.02501924 0.02494979 0.02485608 0.02473744
 0.02459393 0.02442493 0.02423172 0.02401515 0.0237779 0.02352297 0.02325111 0.02296536 0.02265939 0.02233307
 0.02197364 0.02157736 0.02113589 0.02064554 0.02011231 0.01953569 0.01892976 0.0182955 0.01764161 0.01696822
 0.01627538 0.01556283 0.01482778 0.01407183 0.01329785 0.01251278 0.01173431 0.01097532 0.01026846 0.009622216
 0.009065266 0.008588309 0.008197042 0.007867746 0.007588615 0.007337653 0.007102994 0.006870571 0.006634365 0.006385221
 0.006119657 0.005837791 0.005537853 0.005235427 0.004931118 0.004649732 0.004391672</values></Ydata></AB><ScSm><Ydata ylabel="Single channel"><values byteorder="INTEL" format="FLOAT32" numvalues="1814"> 0.0864422 0.08655487 0.08668329 0.0868326 0.08699532 0.08715846 0.08731046 0.08744644 0.08756725 0.08767296
 0.08776513 0.08785909 0.08798107 0.08814301 0.08832605 0.0884937 0.08862083 0.0887157 0.08881661 0.08895512
 0.08911397 0.08923057 0.0892535 0.0891965 0.08913134 0.08912474 0.08919438 0.08934239 0.08959629 0.0899438
 0.09024075 0.09030363 0.09013762 0.08996992 0.08999889 0.09019689 0.09040003 0.09048863 0.09043506 0.09029449
 0.09023246 0.09047092 0.09108633 0.09184758 0.09229019 0.09198689 0.09083199 0.08919104 0.08781038 0.08742817
 0.08824424 0.08969776 0.09088522 0.09128807 0.09105591 0.09062311 0.09025528 0.09003925 0.09008289 0.0904984
 0.09121671 0.09191349 0.09213576 0.09159843 0.09050617 0.08951946 0.08921834 0.08965163 0.09053315 0.0915883
 0.09230645 0.09168527 0.08911356 0.0857188 0.08402144 0.0856098 0.08947773 0.09306981 0.09460939 0.09404419
 0.09230962 0.09049974 0.08957605 0.0900415 0.09161417 0.09350727 0.09505343 0.0958828 0.09575908 0.09469211
 0.09315955 0.09190221 0.09150729 0.09223831 0.09393413 0.09584765 0.09694079 0.09670058 0.09552461 0.09420647
 0.09335096 0.09334651 0.09439705 0.09628093 0.09836893 0.1000892 0.1012247 0.1017904 0.101895 0.1017186
 0.1014222 0.1011243 0.1010227 0.1012942 0.1017506 0.1018747 0.1013966 0.1006595 0.1002731 0.1004834
 0.1009598 0.1011933 0.1010034 0.1004444 0.09928638 0.097124 0.09420644 0.0915743 0.09004489 0.08963652
 0.09022431 0.09188736 0.09411304 0.09555044 0.09536621 0.09436768 0.09413107 0.09529589 0.09716047 0.09870394
 0.09957738 0.1001611 0.1009678 0.1020636 0.1029215 0.1028117 0.1015501 0.09996329 0.09934101 0.1001893
 0.101736 0.1028745 0.1033228 0.1035952 0.1040912 0.104517 0.1041461 0.1025999 0.1004994 0.0992471
 0.09987313 0.1020171 0.1041148 0.1045832 0.1029461 0.1000891 0.09751603 0.09626808 0.09651557 0.09798636
 0.1003449 0.1030374 0.1051977 0.1060842 0.1055945 0.1042466 0.1026161 0.1008059 0.09864087 0.09648229
 0.09545167 0.09638289 0.09874819 0.1010751 0.1023098 0.1024068 0.1017307 0.1003423 0.09808563 0.09530082
 0.09314621 0.09274511 0.09391101 0.09518462 0.09538133 0.09469888 0.09406693 0.09387706 0.09376483 0.09337182
 0.09287868 0.09274086 0.09310368 0.09361599 0.09380264 0.09350555 0.09292056 0.09231627 0.09178121 0.09117836
 0.09035853 0.08948931 0.08904752 0.08931687 0.09000559 0.09054123 0.0906377 0.09040762 0.09001622 0.08940729
 0.08840743 0.08707 0.0858436 0.08525594 0.08539885 0.08585715 0.08615255 0.08610205 0.08576497 0.08525841
 0.08468174 0.08409327 0.08352116 0.08302735 0.08269729 0.08252166 0.08236679 0.08210804 0.08172989 0.08127538
 0.08076483 0.0801967 0.07959658 0.07903587 0.0785889 0.07827139 0.07803632 0.0778245 0.07758932 0.07728533
 0.07688513 0.07641447 0.07593438 0.07548741 0.07508345 0.07472549 0.07441978 0.07415954 0.07391556 0.07365235
 0.07335486 0.07303306 0.07270032 0.07235955 0.07201587 0.0716872 0.07139375 0.07114275 0.07092188 0.07070711
 0.07048897 0.07028683 0.07011431 0.06993849 0.06970777 0.06941815 0.06912035 0.06886373 0.06865755 0.06848064
 0.06830502 0.06810787 0.0678755 0.06761062 0.06734316 0.06712338 0.06698522 0.06691981 0.06689399 0.0668783
 0.06684612 0.06677307 0.06665893 0.06653056 0.06640937 0.06629208 0.06616958 0.06604858 0.06595024 0.06589378
 0.06587775 0.06587703 0.06586448 0.06583135 0.06578283 0.06573087 0.06569666 0.06569509 0.06570678 0.06569142
 0.06564052 0.06559314 0.06558812 0.06561798 0.06564099 0.06562938 0.06559649 0.06557771 0.06559206 0.06562871
 0.06566761 0.06570259 0.06574175 0.06579158 0.06584261 0.06587125 0.06586357 0.06583588 0.06582123 0.06583621
 0.06587262 0.06591947 0.06597643 0.06604324 0.06610852 0.06615616 0.06618096 0.06619461 0.06621283 0.06623694
 0.06625344 0.0662524 0.06623922 0.06622581 0.06621691 0.06620719 0.06618778 0.06615371 0.06610661 0.06605063
 0.06598702 0.06591412 0.06583074 0.06573835 0.06564385 0.06555983 0.06549442 0.06543738 0.06536365 0.06525597
 0.06512254 0.06499001 0.06487969 0.06479169 0.06471145 0.06462956 0.06455192 0.06449054 0.06445001 0.06442593
 0.06441253 0.06440815 0.06441732 0.06445113 0.06452157 0.06462945 0.06475966 0.06489254 0.06502041 0.06515065
 0.06529468 0.06545729 0.06563459 0.06581871 0.06600507 0.06619565 0.06639278 0.06659095 0.06678146 0.06696511
 0.06715326 0.06735529 0.06757232 0.06780213 0.06804069 0.06827777 0.06850157 0.06871183 0.06892204 0.06914584
 0.06938665 0.06964184 0.06991011 0.07019097 0.07048096 0.07077582 0.07107604 0.0713872 0.0717154 0.07206239
 0.07242322 0.07278717 0.07314519 0.07350004 0.07386637 0.07425688 0.07466932 0.07508987 0.0755079 0.07592411
 0.07634532 0.076775 0.07721104 0.07765116 0.07809797 0.07855673 0.07902905 0.07951049 0.07999399 0.08047485
 0.08095303 0.08143178 0.08191376 0.08239815 0.08288288 0.08336931 0.08386038 0.08435397 0.08484261 0.08532216
 0.08579703 0.08627471 0.08675839 0.08724488 0.08772551 0.08818971 0.08863474 0.08907191 0.08951648 0.08996993
 0.09041962 0.09085684 0.09128753 0.0917217 0.09215814 0.09258538 0.09299627 0.09339654 0.09379694 0.09419861
 0.09458943 0.0949567 0.0953014 0.09563686 0.0959748 0.09631763 0.09666471 0.09701933 0.09738249 0.09774409
 0.09808952 0.09841532 0.09873156 0.09904826 0.09936613 0.09968171 0.0999951 0.1003104 0.1006307 0.1009527
 0.1012683 0.101576 0.1018895 0.102227 0.1025925 0.1029755 0.1033707 0.1037864 0.1042282 0.1046842
 0.1051361 0.1055825 0.1060371 0.1065034 0.1069619 0.1073907 0.107789 0.1081714 0.1085486 0.1089261
 0.1093164 0.1097361 0.1101891 0.1106611 0.1111292 0.1115732 0.1119846 0.112371 0.112748 0.1131203
 0.1134736 0.1137891 0.1140634 0.1143111 0.1145506 0.1147879 0.1150106 0.1151955 0.1153225 0.1153778
 0.1153459 0.115209 0.1149593 0.1146057 0.1141592 0.1136153 0.1129586 0.1121814 0.1112909 0.1102975
 0.1092039 0.1080149 0.1067563 0.1054886 0.1043026 0.103301 0.1025749 0.1021898 0.1021807 0.1025404
 0.1031974 0.1040086 0.1047855 0.1053442 0.1055538 0.1053619 0.1047954 0.1039358 0.102884 0.1017316
 0.1005495 0.09938577 0.09826805 0.09721914 0.09628524 0.09555312 0.09514009 0.09518021 0.0958305 0.09725685
 0.09953843 0.102536 0.1058732 0.1091001 0.111911 0.1142341 0.116158 0.1178106 0.1192918 0.12066
 0.1219378 0.1231252 0.1242153 0.1252006 0.1260683 0.1267982 0.127369 0.1277676 0.1279987 0.1280915
 0.1281014 0.1281019 0.1281704 0.1283651 0.1286943 0.1290978 0.1294645 0.1296787 0.1296604 0.1293781
 0.1288473 0.1281581 0.1275456 0.1274301 0.1282985 0.1304197 0.1336104 0.1373001 0.1408596 0.1439018
 0.1463381 0.1482551 0.149786 0.1510501 0.1521357 0.1530991 0.153976 0.1547916 0.1555639 0.1563029
 0.1570145 0.1577054 0.1583834 0.1590541 0.1597163 0.1603655 0.1610007 0.1616281 0.1622548 0.1628829
 0.1635065 0.1641167 0.1647114 0.1652982 0.1658861 0.1664736 0.1670515 0.1676138 0.1681621 0.1687012
 0.169236 0.1697698 0.1703002 0.1708177 0.1713141 0.1717913 0.172259 0.1727237 0.1731845 0.1736395
 0.1740896 0.1745357 0.1749755 0.175406 0.1758274 0.1762424 0.1766516 0.1770539 0.1774498 0.1778432
 0.1782378 0.1786343 0.1790329 0.1794358 0.179847 0.180268 0.1806971 0.1811322 0.1815719 0.1820125
 0.1824491 0.1828801 0.18331 0.1837438 0.1841812 0.1846173 0.185048 0.185473 0.1858945 0.1863135
 0.1867285 0.1871365 0.1875356 0.1879275 0.1883167 0.1887075 0.1890999 0.1894908 0.1898778 0.1902618
 0.1906452 0.1910291 0.1914106 0.1917857 0.1921535 0.1925167 0.1928772 0.1932347 0.1935882 0.193939
 0.1942913 0.1946497 0.1950155 0.1953861 0.1957572 0.1961257 0.1964898 0.1968492 0.197207 0.1975673
 0.1979311 0.1982971 0.1986645 0.1990333 0.1994024 0.1997693 0.2001326 0.2004934 0.2008543 0.2012163
 0.2015779 0.2019388 0.2023017 0.2026678 0.2030335 0.2033942 0.20375 0.2041032 0.2044559 0.2048116
 0.2051736 0.2055403 0.2059062 0.206268 0.2066266 0.2069855 0.2073478 0.2077144 0.2080828 0.2084484
 0.2088089 0.2091644 0.2095169 0.2098694 0.2102247 0.2105816 0.2109377 0.2112923 0.2116452 0.2119955
 0.2123447 0.2126947 0.2130453 0.2133946 0.2137419 0.2140881 0.2144355 0.214786 0.2151381 0.2154861
 0.2158287 0.2161712 0.2165196 0.2168741 0.2172321 0.2175899 0.2179444 0.2182959 0.2186489 0.219006
 0.219367 0.2197309 0.2200932 0.2204464 0.2207876 0.2211221 0.2214555 0.2217896 0.2221259 0.2224662
 0.2228109 0.2231596 0.2235112 0.2238608 0.2242032 0.2245403 0.2248782 0.2252207 0.2255693 0.2259253
 0.2262857 0.2266468 0.2270085 0.2273705 0.2277298 0.228087 0.2284475 0.2288134 0.229183 0.2295563
 0.2299315 0.2303034 0.2306715 0.2310398 0.2314079 0.2317708 0.2321288 0.2324847 0.2328401 0.2331988
 0.2335656 0.2339382 0.2343107 0.2346816 0.2350486 0.2354076 0.2357621 0.2361201 0.2364798 0.2368345
 0.2371854 0.2375358 0.2378831 0.2382277 0.2385746 0.2389236 0.2392743 0.2396331 0.2400028 0.2403754
 0.2407437 0.2411054 0.2414564 0.2417978 0.2421408 0.2424892 0.2428336 0.2431694 0.2434987 0.243813
 0.24409 0.2442766 0.2442262 0.2436262 0.2419547 0.2384877 0.2324366 0.2232558 0.2109632 0.1962441
 0.1802685 0.164329 0.1494842 0.1364065 0.1254564 0.1168184 0.1105997 0.1069204 0.1059844 0.108177
 0.114193 0.1246231 0.1384426 0.1517104 0.1590453 0.1576947 0.1500234 0.1413694 0.1357034 0.1336815
 0.1339786 0.1352723 0.1370277 0.1393577 0.1425745 0.1467226 0.1515271 0.156845 0.1629311 0.1700461
 0.1779477 0.1859765 0.1936065 0.2007818 0.2077257 0.2145364 0.2210316 0.2269227 0.2320383 0.2363808
 0.240067 0.2432566 0.2460905 0.2486575 0.2510134 0.253193 0.2551673 0.2568176 0.2580033 0.2586757
 0.2589344 0.2589815 0.2590105 0.2591211 0.2593291 0.259625 0.2600011 0.2604451 0.260943 0.2614863
 0.2620639 0.2626576 0.2632517 0.263835 0.2643985 0.2649398 0.2654623 0.2659622 0.2664309 0.2668681
 0.2672822 0.2676795 0.2680649 0.2684433 0.2688162 0.2691831 0.2695481 0.269911 0.2702612 0.2705871
 0.270888 0.2711691 0.2714375 0.2717024 0.2719696 0.2722377 0.2725055 0.2727761 0.2730492 0.2733184
 0.2735788 0.2738307 0.2740761 0.2743198 0.2745678 0.2748205 0.2750728 0.2753229 0.2755737 0.2758278
 0.2760858 0.2763473 0.2766089 0.2768659 0.277116 0.2773607 0.2776046 0.2778571 0.2781254 0.2784057
 0.2786893 0.2789751 0.2792676 0.2795666 0.2798685 0.2801722 0.2804766 0.2807781 0.2810756 0.2813712
 0.2816641 0.2819474 0.2822153 0.2824683 0.2827159 0.2829708 0.2832386 0.2835137 0.2837904 0.2840696
 0.2843538 0.2846407 0.2849268 0.2852105 0.2854928 0.2857805 0.2860835 0.2864029 0.2867301 0.2870607
 0.2873995 0.2877492 0.2881037 0.2884558 0.2888014 0.2891369 0.2894609 0.2897806 0.2901134 0.2904768
 0.2908718 0.2912772 0.2916685 0.292041 0.2924073 0.2927811 0.2931689 0.2935635 0.2939348 0.2942498
 0.294522 0.2948207 0.2952071 0.2956741 0.2961609 0.2966132 0.29702 0.2974022 0.2977805 0.2981556
 0.29851 0.2988287 0.2991229 0.2994369 0.2998173 0.3002638 0.3007243 0.3011499 0.3015357 0.3019003
 0.3022533 0.3025956 0.3029145 0.3031689 0.3033288 0.3034529 0.3036816 0.3041074 0.3046736 0.305231
 0.3056858 0.3060578 0.3064056 0.3067484 0.3070751 0.3073579 0.3075164 0.3074581 0.3072475 0.3071659
 0.3074824 0.3081812 0.3089955 0.3096777 0.3101629 0.3105119 0.3108037 0.3110843 0.3113385 0.3114848
 0.3114598 0.3113518 0.3113942 0.3117525 0.3123371 0.312903 0.3133108 0.3136101 0.3139021 0.3142224
 0.314522 0.3146529 0.3144339 0.3138953 0.3134419 0.3135912 0.3144734 0.3156827 0.3166834 0.3172881
 0.3176602 0.3179359 0.3180215 0.3177615 0.3171279 0.316233 0.3153751 0.3150775 0.3157496 0.3171671
 0.3185627 0.319392 0.319801 0.3202423 0.3208819 0.3215276 0.3219444 0.3220685 0.3219666 0.3216955
 0.3212716 0.320828 0.3207132 0.3212458 0.3223406 0.3235254 0.3243877 0.324901 0.325231 0.3252527
 0.324432 0.3224578 0.320066 0.3188516 0.3198533 0.32246 0.3250729 0.3266875 0.3274422 0.327866
 0.3281894 0.3282821 0.3276441 0.3255706 0.3221101 0.3189002 0.3181761 0.3205724 0.3244162 0.3273482
 0.3281236 0.3268698 0.3244908 0.3222511 0.3213289 0.3221726 0.3243067 0.3268194 0.3289146 0.3301286
 0.3303591 0.329823 0.3289653 0.3283361 0.3282459 0.3283037 0.3276585 0.3261021 0.3244672 0.3233432
 0.3219923 0.3195543 0.3169606 0.3163551 0.318442 0.3214712 0.3232647 0.3234418 0.3230393 0.3224233
 0.3204241 0.3158867 0.3098195 0.3053711 0.3051319 0.308549 0.3124747 0.3142571 0.3138368 0.3128504
 0.3123208 0.311571 0.3092308 0.3051624 0.3011951 0.2994834 0.3001006 0.3009411 0.3000591 0.2970634
 0.2921074 0.2853476 0.2784854 0.275117 0.2775524 0.283905 0.2897448 0.2919264 0.2895853 0.2827998
 0.2728374 0.2634531 0.2592176 0.2613143 0.2661579 0.2688555 0.2670712 0.2611507 0.2520997 0.2410654
 0.2303035 0.222951 0.2210283 0.223826 0.2281171 0.2296546 0.2253557 0.2157005 0.2052297 0.1991328
 0.1984664 0.1995319 0.1982685 0.1940621 0.1889392 0.1847304 0.1820118 0.1805208 0.1794917 0.1782233
 0.1766204 0.1743183 0.1697099 0.1617726 0.1529086 0.1477036 0.148174 0.1520953 0.1565125 0.1606608
 0.1644231 0.1662601 0.1648373 0.1616927 0.1602728 0.162273 0.1660531 0.1687974 0.1694375 0.1690911
 0.1690931 0.1693545 0.1690538 0.1684548 0.1690074 0.1713902 0.1743374 0.175986 0.1757671 0.1744039
 0.1726296 0.1706079 0.1682841 0.165664 0.1627845 0.1597256 0.1566095 0.1534739 0.1502614 0.1469717
 0.1436088 0.1398744 0.1352206 0.1296256 0.1242284 0.120593 0.1191484 0.1189293 0.1190114 0.1192428
 0.1190949 0.1171127 0.1128413 0.1086206 0.1080039 0.1123322 0.119645 0.1268316 0.1320252 0.1348442
 0.1354064 0.1343328 0.1337481 0.1369221 0.1456993 0.1585463 0.1719297 0.1833103 0.1920855 0.1982295
 0.2014352 0.2019679 0.2015575 0.2027332 0.2071392 0.2144848 0.2227848 0.2291996 0.2312347 0.2288629
 0.2260948 0.2285348 0.2376514 0.2486682 0.2558025 0.2583807 0.2599367 0.2626848 0.2656093 0.2675959
 0.2696474 0.2731091 0.2773474 0.2802112 0.2799129 0.2757726 0.2681981 0.2591864 0.252072 0.2490664
 0.2491171 0.2494175 0.2484625 0.246087 0.2416325 0.2349082 0.2287139 0.227309 0.2315359 0.2376016
 0.2414269 0.242465 0.2425443 0.2424882 0.2411146 0.2372123 0.2316588 0.2270296 0.2250169 0.2247607
 0.2241188 0.2219138 0.2181768 0.2128954 0.2059036 0.1980596 0.191377 0.1873568 0.1855827 0.1843636
 0.1825386 0.1803454 0.1787672 0.1785488 0.1798583 0.1824334 0.1859019 0.190236 0.1958483 0.2028697
 0.2104547 0.2173558 0.2232136 0.22878 0.2347699 0.2409078 0.2462633 0.2502647 0.2532427 0.2561152
 0.2596185 0.263725 0.2676874 0.2706873 0.2725822 0.2740623 0.2759758 0.2784829 0.2809929 0.2829018
 0.2841695 0.2851664 0.286229 0.2874442 0.2886436 0.2895583 0.2901947 0.2910802 0.2928874 0.2957336
 0.2990113 0.3019487 0.3041905 0.3058115 0.3069618 0.3076519 0.3078463 0.3076373 0.3072569 0.3069275
 0.3067415 0.3066794 0.3066961 0.3067696 0.3069058 0.307135 0.3074967 0.3080114 0.3086761 0.3094881
 0.3104503 0.3115416 0.3127066 0.313893 0.3150749 0.3162188 0.3172497 0.3180757 0.3186323 0.318879
 0.3187672 0.3182412 0.3172589 0.3157825 0.3137759 0.3113007 0.3086855 0.3065672 0.3056372 0.3062228
 0.3080615 0.3104793 0.3128067 0.3146826 0.3160747 0.3171159 0.3179506 0.3186768 0.3193526 0.3200103
 0.3206612 0.3213034 0.321934 0.322554 0.3231669 0.3237796 0.3244045 0.3250524 0.3257181 0.3263704
 0.326958 0.3274295 0.3277546 0.3279327 0.3279846 0.3279334 0.3277874 0.3275388 0.3271849 0.3267506
 0.3262819 0.3258117 0.325327 0.324775 0.3241007 0.3232699 0.3222402 0.3209329 0.3192959 0.3174139
 0.315497 0.3137048 0.3120024 0.3102226 0.3082357 0.3060216 0.3036145 0.3010419 0.2983207 0.2954682
 0.2924978 0.2894137 0.2862142 0.2829031 0.2795014 0.2760487 0.2725877 0.2691454 0.2657264 0.2623087
 0.2588326 0.2551922 0.2512487 0.2468595 0.2419054 0.2363118 0.2300794 0.223326 0.2163001 0.2093262
 0.2027034 0.1966283 0.1911934 0.1864369 0.1823888 0.1790844 0.1765578 0.1748365 0.1739362 0.1738539
 0.1745611 0.1760059 0.178114 0.1807796 0.1838585 0.187174 0.1905368 0.1937789 0.1967988 0.1995944
 0.2022404 0.2048166 0.2073535 0.2098377 0.2122514 0.2145867 0.2168273 0.2189337 0.2208612 0.2225917
 0.2241454 0.2255572 0.2268434 0.2279861 0.2289478 0.2297015 0.2302592 0.2306844 0.2310823 0.2315675
 0.2322233 0.2330765 0.2341058 0.235274 0.2365501 0.2379086 0.2393222 0.2407651 0.2422171 0.243665
 0.2451103 0.2465906 0.2481955 0.2500564 0.2523078 0.2550401 0.2582689 0.2619213 0.2658376 0.269798
 0.2735782 0.2770123 0.2800244 0.2826122 0.2848041 0.2866258 0.2880957 0.2892362 0.2900799 0.290669
 0.2910553 0.2912961 0.2914326 0.2914692 0.2913769 0.2911236 0.2907031 0.29014 0.2894672 0.2886981
 0.2878235 0.286835 0.2857474 0.2846029 0.2834627 0.282393 0.2814479 0.2806602 0.280044 0.2795933
 0.2792684 0.2789918 0.2786626 0.2781822 0.277477 0.2765071 0.2752565 0.2737193 0.2719041 0.2698495
 0.2676263 0.26533 0.2630662 0.2609236 0.2589406 0.2570887 0.255281 0.2534044 0.2513748 0.2491878
 0.2469119 0.244629 0.2423864 0.2401932 0.2380391 0.2359151 0.2338314 0.2318144 0.2298849 0.2280434
 0.2262743 0.2245566 0.2228794 0.2212568 0.2197261 0.2183301 0.2171047 0.2160703 0.2152187 0.2145133
 0.2139061 0.2133545 0.2128378 0.2123738 0.2120008 0.2117155 0.2114401 0.21107 0.2105502 0.2099044
 0.2092129 0.2085695 0.2080423 0.207657 0.2073905 0.2071597 0.2068299 0.2062604 0.2053463 0.2040221
 0.2022646 0.2001157 0.1976861 0.1951251 0.1925912 0.1902298 0.1881496 0.1864141 0.1850416 0.183993
 0.1831746 0.1824947 0.1819307 0.1815354 0.1813823 0.1814754 0.1816809 0.1817865 0.181688 0.1815048
 0.181476 0.18176 0.182343 0.1830826 0.1838061 0.1843938 0.1848025 0.1850348 0.1851178 0.1850983
 0.1850121 0.1848507 0.1845824 0.1841896 0.1836722 0.183044 0.1823303 0.1815425 0.1806648 0.1796881
 0.178624 0.1774729 0.1762217 0.1748681 0.1734007 0.1717908 0.1700865 0.1684943 0.1673073 0.1667422
 0.1668226 0.1673689 0.1681153 0.1688752 0.1695704 0.17012 0.170446 0.1706543 0.1710993 0.172149
 0.173865 0.1759217 0.1778308 0.1792462 0.180065 0.1803178 0.1800767 0.1794423 0.1784855 0.1771952
 0.1755621 0.1736552 0.1715597 0.1693481 0.1671444 0.1650922 0.1632686 0.1617085 0.1604236 0.1594003
 0.1586807 0.1580026 0.1558931 0.1501696 0.1410324 0.1330917 0.131903 0.1379806 0.1460814 0.1508328
 0.1513103 0.1497864 0.1481914 0.1470094 0.1462421 0.145992 0.146293 0.1469814 0.147756 0.1483057
 0.1484701 0.1482327 0.147477 0.145759 0.1422931 0.1362321 0.1273063 0.1164241 0.105488 0.09640184
 0.09015667 0.08663169 0.08495446 0.08408762 0.08341116 0.08296777 0.08318508 0.08439216 0.08660242 0.08963139
 0.09324992 0.09716351 0.1009508 0.1041904 0.1066917 0.1085236 0.1098129 0.1106126 0.1109546 0.1109043
 0.1105325 0.1098989 0.1090645 0.1080657 0.1068887 0.1055182 0.1040228 0.1025878 0.1014392 0.1006968
 0.1003021 0.1001102 0.100024 0.1000117 0.1000542 0.1001363 0.1002614 0.1004439 0.1007028 0.1010565
 0.1014893 0.1019362 0.1023287 0.102643 0.1028932 0.1030937 0.1032265 0.103253 0.1031864 0.1031171
 0.1030815 0.102928 0.1024288 0.1015587 0.1006002 0.09995573 0.09986776 0.1002786 0.1009043 0.1014509
 0.1017994 0.102012 0.1021828 0.1022923</values></Ydata></ScSm><ScRf><Ydata ylabel="Single channel"><values byteorder="INTEL" format="FLOAT32" numvalues="1820"> 0.06969605 0.06982569 0.06994162 0.07004274 0.07013416 0.07022773 0.0703361 0.07046308 0.07060108 0.07073669
 0.0708587 0.07096465 0.07105967 0.07114749 0.07122868 0.0713108 0.07140996 0.07153475 0.07167375 0.0718029
 0.07190423 0.0719826 0.07206599 0.07217868 0.0723068 0.07239966 0.07241597 0.07236823 0.0723162 0.07231423
 0.07237563 0.07250112 0.072712 0.07299577 0.07323203 0.07327198 0.07312629 0.07298689 0.07301478 0.07317951
 0.07334113 0.07340358 0.07335053 0.07323115 0.07317998 0.07337476 0.07387488 0.07449079 0.07484511 0.0745925
 0.07364963 0.07231501 0.07119526 0.0708898 0.07155962 0.07274632 0.07371373 0.07404195 0.07385584 0.07350863
 0.07321292 0.07303669 0.07306843 0.07340258 0.07398594 0.07455482 0.0747371 0.07429812 0.07340769 0.07260939
 0.07237528 0.07273829 0.07346031 0.07431822 0.07489725 0.07438125 0.0722774 0.0695143 0.06814985 0.06946941
 0.0726392 0.07557075 0.07681954 0.07634847 0.07492486 0.07344705 0.07270336 0.07310028 0.07439804 0.07594799
 0.07720621 0.07787631 0.07777227 0.07690609 0.07566455 0.07464573 0.07432754 0.07493009 0.07632416 0.07789548
 0.07879224 0.07859683 0.07763743 0.0765634 0.07586893 0.07587256 0.07674135 0.07829182 0.08000678 0.08141884
 0.08235332 0.08282389 0.08291844 0.08278328 0.08255202 0.0823238 0.08225971 0.08250106 0.08288984 0.08300201
 0.08261812 0.08202052 0.08170764 0.08187993 0.08226871 0.08246237 0.08231603 0.08187126 0.08093376 0.07917032
 0.07679128 0.07465491 0.07342803 0.07311898 0.07362415 0.07501028 0.07685488 0.07804755 0.07790895 0.07710797
 0.07693769 0.07791749 0.07946853 0.08075431 0.08149146 0.08199524 0.08268824 0.08362297 0.0843616 0.08430083
 0.08329029 0.08201505 0.08153972 0.08227881 0.08359358 0.08457609 0.08500132 0.08529566 0.08578321 0.08621352
 0.08598034 0.08477321 0.08311924 0.08219302 0.08284596 0.08476368 0.08663478 0.08714193 0.08589722 0.0836515
 0.08166675 0.08080931 0.0812166 0.08266461 0.08487744 0.08738537 0.08944935 0.09043781 0.09026351 0.08936644
 0.0882342 0.08694685 0.08535087 0.08377005 0.08319198 0.08434328 0.08675557 0.08913936 0.09057401 0.0910163
 0.09077489 0.08988792 0.08820907 0.08605535 0.08449259 0.08454292 0.08601893 0.08757633 0.08814153 0.08791234
 0.08774348 0.08798209 0.0882827 0.08832097 0.08828199 0.08859853 0.08939664 0.09033061 0.09094658 0.09109879
 0.09097879 0.09084606 0.09078175 0.09064336 0.09028378 0.08988228 0.08992538 0.09069385 0.0918849 0.0929167
 0.09350105 0.09375562 0.09384876 0.09371491 0.09316622 0.09226061 0.09147777 0.0913779 0.09205666 0.0930724
 0.09391385 0.09438104 0.09453619 0.09450895 0.09440753 0.09428957 0.09418117 0.09415404 0.09431279 0.09465416
 0.0950256 0.09527703 0.09538358 0.09539147 0.09532158 0.09517194 0.09497832 0.09483096 0.09481817 0.09495558
 0.0951844 0.09543145 0.09564103 0.09576176 0.09576188 0.0956713 0.09556539 0.0954968 0.09547182 0.09548894
 0.09556045 0.0956852 0.09582645 0.09593634 0.09599483 0.09601366 0.096009 0.09598707 0.09595521 0.09593153
 0.09593916 0.09599291 0.09608492 0.09618677 0.09628225 0.09638893 0.09651975 0.09663707 0.09668423 0.09665866
 0.09661826 0.0966183 0.09666923 0.09674926 0.09682917 0.09687972 0.09687543 0.09681305 0.09673377 0.0967107
 0.09679562 0.09698224 0.09722687 0.09748377 0.09771138 0.09787818 0.09798627 0.09806904 0.09815088 0.09822577
 0.0982815 0.09832877 0.09840135 0.0985315 0.09872045 0.09893138 0.0991184 0.09925816 0.09935418 0.0994314
 0.09953041 0.09967473 0.09983195 0.0999395 0.09998318 0.1000195 0.1001051 0.1002297 0.1003365 0.1003929
 0.1004225 0.1004722 0.1005622 0.1006744 0.1007814 0.1008783 0.1009833 0.1011093 0.1012337 0.1013056
 0.1012967 0.1012391 0.1011944 0.1011925 0.1012198 0.1012617 0.1013253 0.1014139 0.1015024 0.101556
 0.1015663 0.1015599 0.1015667 0.1015852 0.1015865 0.1015489 0.1014824 0.1014177 0.1013789 0.1013684
 0.1013694 0.1013601 0.1013274 0.1012724 0.1012048 0.1011325 0.1010572 0.1009817 0.1009235 0.1009104
 0.1009448 0.1009757 0.1009289 0.1007769 0.1005692 0.1003861 0.1002689 0.1001962 0.1001166 0.09999599
 0.09983875 0.09967344 0.09952535 0.09940014 0.09928752 0.09917741 0.09907451 0.09899881 0.09896423 0.09895228
 0.09891576 0.09882103 0.09868284 0.09854727 0.09844576 0.09837654 0.09832384 0.09827909 0.09824492 0.09823006
 0.0982385 0.09825802 0.09826568 0.09825137 0.09822919 0.09822431 0.09825686 0.09833518 0.09844625 0.09855232
 0.09861776 0.09864587 0.09867512 0.09873604 0.09882629 0.09893006 0.09904305 0.09916991 0.09931009 0.09945913
 0.09961922 0.09979893 0.1000028 0.1002248 0.1004524 0.1006736 0.1008859 0.1011 0.1013339 0.1015969
 0.1018804 0.1021642 0.1024344 0.1026945 0.1029583 0.1032342 0.1035176 0.1038012 0.1040882 0.1043887
 0.1047052 0.1050296 0.1053535 0.1056754 0.1059967 0.1063173 0.1066374 0.1069631 0.1073052 0.1076705
 0.1080476 0.1084057 0.1087185 0.1089913 0.1092586 0.1095539 0.1098858 0.1102358 0.1105714 0.1108685
 0.1111322 0.1113946 0.111681 0.1119849 0.112286 0.1125864 0.1129133 0.1132814 0.1136632 0.1140056
 0.1142775 0.1144979 0.1147138 0.1149503 0.115192 0.115413 0.1156149 0.1158222 0.1160484 0.1162845
 0.1165239 0.1167779 0.1170555 0.1173401 0.117602 0.1178298 0.1180356 0.1182333 0.1184199 0.1185806
 0.1187047 0.1187996 0.1188905 0.1190018 0.119135 0.1192729 0.1194063 0.1195457 0.1197053 0.119888
 0.1200919 0.1203191 0.1205677 0.1208229 0.1210711 0.1213226 0.1216022 0.1219087 0.1222004 0.1224374
 0.122627 0.1228088 0.1230069 0.1232177 0.1234398 0.123688 0.1239722 0.1242788 0.1245808 0.1248601
 0.1251233 0.1253977 0.1257017 0.1260169 0.1262974 0.1265156 0.1266905 0.1268684 0.127084 0.1273419
 0.1276244 0.1279092 0.1281808 0.128428 0.1286345 0.1287842 0.1288808 0.128951 0.1290138 0.1290525
 0.1290255 0.1289023 0.1286754 0.1283428 0.1278936 0.1273209 0.1266483 0.1259395 0.1252858 0.1247788
 0.1244863 0.1244423 0.1246479 0.1250722 0.1256497 0.1262879 0.1268866 0.1273561 0.1276248 0.1276457
 0.1274087 0.1269449 0.1263105 0.1255644 0.1247579 0.1239321 0.1231214 0.1223687 0.1217513 0.1213888
 0.1214127 0.1219171 0.1229204 0.1243467 0.126028 0.1277478 0.1293224 0.1306684 0.1318024 0.1327838
 0.1336637 0.1344756 0.1352448 0.135986 0.1366971 0.1373678 0.1379945 0.1385798 0.139122 0.1396105
 0.1400308 0.1403677 0.1406118 0.1407698 0.1408647 0.1409197 0.1409473 0.1409552 0.1409484 0.140912
 0.1408036 0.1405746 0.140203 0.1397103 0.1391667 0.1386952 0.1384628 0.1386371 0.1393125 0.1404528
 0.1418983 0.1434395 0.1448998 0.1461704 0.1472046 0.1480078 0.148628 0.149132 0.149574 0.1499828
 0.15037 0.1507408 0.151098 0.1514451 0.151787 0.1521281 0.1524712 0.1528172 0.1531626 0.1535007
 0.1538282 0.1541522 0.1544856 0.1548349 0.1551929 0.1555457 0.155887 0.1562249 0.1565687 0.1569127
 0.1572415 0.1575502 0.1578528 0.1581677 0.1585019 0.1588493 0.159197 0.1595309 0.1598424 0.1601352
 0.1604206 0.1607065 0.1609919 0.1612723 0.1615474 0.1618205 0.1620944 0.1623706 0.1626506 0.1629341
 0.1632152 0.1634844 0.1637375 0.1639816 0.1642277 0.1644803 0.164735 0.1649861 0.1652344 0.1654877
 0.165754 0.1660321 0.1663093 0.1665703 0.1668116 0.1670448 0.167285 0.1675381 0.1677994 0.1680606
 0.1683156 0.1685638 0.1688091 0.1690574 0.1693104 0.1695636 0.1698118 0.170056 0.1703022 0.1705543
 0.1708091 0.1710603 0.1713056 0.1715494 0.1717976 0.1720515 0.1723051 0.1725504 0.1727841 0.1730089
 0.1732302 0.1734533 0.1736808 0.1739129 0.1741475 0.1743828 0.1746198 0.174861 0.1751078 0.1753572
 0.1756043 0.1758466 0.1760858 0.1763245 0.1765638 0.1768044 0.1770467 0.1772881 0.1775242 0.1777536
 0.1779805 0.1782123 0.1784541 0.1787035 0.1789509 0.1791887 0.179418 0.179646 0.179878 0.1801142
 0.1803523 0.1805905 0.1808272 0.1810609 0.1812915 0.1815214 0.1817556 0.1819967 0.1822398 0.1824763
 0.1827029 0.1829238 0.1831458 0.1833745 0.1836112 0.1838517 0.1840906 0.1843266 0.1845621 0.1847987
 0.1850375 0.1852787 0.1855204 0.185759 0.1859944 0.1862295 0.1864662 0.1867052 0.1869473 0.1871907
 0.1874321 0.1876719 0.1879133 0.1881573 0.1884032 0.188651 0.1889013 0.189153 0.189405 0.1896564
 0.1899063 0.1901571 0.190413 0.1906747 0.1909374 0.191196 0.1914477 0.1916907 0.1919254 0.1921548
 0.1923818 0.1926073 0.192831 0.1930507 0.1932653 0.1934806 0.1937065 0.1939458 0.1941925 0.1944386
 0.1946791 0.1949135 0.195147 0.1953867 0.1956329 0.1958829 0.1961361 0.1963921 0.1966472 0.1969019
 0.1971607 0.1974227 0.1976824 0.1979391 0.1981968 0.1984571 0.1987188 0.198981 0.1992423 0.1995029
 0.1997668 0.2000341 0.2002996 0.2005617 0.2008249 0.2010921 0.201363 0.2016371 0.2019114 0.2021811
 0.2024474 0.202715 0.2029827 0.2032466 0.2035089 0.2037718 0.204035 0.2043019 0.2045774 0.2048577
 0.205136 0.2054131 0.2056911 0.2059677 0.2062434 0.2065201 0.2067924 0.2070549 0.2073121 0.207567
 0.2078182 0.20807 0.2083274 0.2085801 0.2088035 0.2089489 0.2088898 0.2083577 0.2069044 0.2039089
 0.1986961 0.1908006 0.1802409 0.167607 0.1539032 0.1402364 0.1275127 0.1163078 0.106931 0.09954032
 0.09422635 0.09109033 0.09030614 0.0922043 0.09738098 0.1063401 0.1181955 0.1295612 0.1358274 0.1346505
 0.128072 0.1206662 0.1158234 0.1140963 0.1143518 0.1154636 0.1169776 0.1189897 0.1217645 0.125338
 0.1294734 0.1340492 0.1392851 0.1454045 0.1521962 0.1590917 0.165641 0.1718019 0.1777705 0.1836299
 0.1892178 0.1942834 0.1986818 0.2024186 0.2055937 0.2083413 0.2107809 0.212993 0.2150316 0.2169281
 0.2186506 0.2200868 0.2211105 0.2216837 0.2219014 0.2219456 0.2219843 0.2221005 0.2223027 0.2225792
 0.2229228 0.2233259 0.2237795 0.2242759 0.2248016 0.2253394 0.225879 0.2264139 0.2269346 0.2274327
 0.2279054 0.2283501 0.2287657 0.2291602 0.229544 0.2299203 0.2302887 0.2306506 0.2310048 0.2313489
 0.2316849 0.2320151 0.232336 0.232644 0.2329398 0.2332245 0.2334991 0.2337687 0.2340373 0.234302
 0.2345591 0.2348101 0.2350577 0.2353012 0.2355406 0.2357773 0.236013 0.2362512 0.2364941 0.2367382
 0.2369778 0.2372133 0.2374496 0.2376886 0.2379296 0.2381713 0.2384113 0.2386474 0.2388811 0.2391156
 0.2393525 0.2395951 0.2398474 0.2401086 0.2403743 0.2406427 0.2409133 0.2411837 0.2414537 0.2417263
 0.2420022 0.2422784 0.2425547 0.2428317 0.2431035 0.2433591 0.2435938 0.2438147 0.2440353 0.244265
 0.244503 0.2447428 0.2449813 0.2452206 0.2454621 0.2457052 0.2459481 0.2461886 0.2464265 0.2466701
 0.2469325 0.2472163 0.2475107 0.2478046 0.2480949 0.2483824 0.248669 0.2489586 0.2492518 0.2495404
 0.2498156 0.2500815 0.2503583 0.2506681 0.2510135 0.2513702 0.2517076 0.252017 0.2523138 0.2526175
 0.2529373 0.2532646 0.2535712 0.2538298 0.2540527 0.2542963 0.2546093 0.2549863 0.2553808 0.2557546
 0.2561015 0.2564332 0.2567572 0.2570691 0.2573591 0.2576205 0.2578614 0.2581151 0.2584225 0.258791
 0.2591803 0.2595446 0.2598729 0.260178 0.260471 0.2607571 0.2610263 0.2612415 0.2613752 0.2614784
 0.2616725 0.2620368 0.2625208 0.2629967 0.2633874 0.2637147 0.2640307 0.2643494 0.2646549 0.2649165
 0.2650621 0.2650155 0.2648388 0.2647794 0.265072 0.2657042 0.2664446 0.2670749 0.2675333 0.2678698
 0.2681528 0.268422 0.2686642 0.2688112 0.2688122 0.2687458 0.2688151 0.2691633 0.269712 0.2702468
 0.2706447 0.2709453 0.2712318 0.2715335 0.271813 0.2719488 0.2717876 0.2713551 0.271 0.2711675
 0.2719679 0.2730496 0.2739501 0.2745063 0.2748547 0.2751101 0.2751958 0.2749882 0.2744708 0.2737392
 0.2730433 0.2728293 0.2734478 0.2747038 0.2759382 0.2766892 0.2770884 0.2775262 0.2781428 0.2787687
 0.2791957 0.2793635 0.2793294 0.2791463 0.2788325 0.278506 0.2784698 0.2789996 0.2800204 0.2811219
 0.2819429 0.2824557 0.2828032 0.2828801 0.2822257 0.2805718 0.2785599 0.277577 0.2785247 0.2808715
 0.2832287 0.2847219 0.2854677 0.2859239 0.2862911 0.2864585 0.2859921 0.2842756 0.2813497 0.2786481
 0.2781294 0.2803462 0.2838281 0.2865073 0.2872947 0.2863039 0.2843311 0.2824892 0.2818093 0.2826785
 0.2846797 0.2870165 0.2889911 0.2901948 0.2905371 0.290206 0.2895915 0.2891841 0.2892657 0.2894899
 0.2890982 0.2879032 0.2866425 0.2858406 0.2848491 0.2829106 0.2808531 0.2805777 0.2827052 0.2856752
 0.2875555 0.2880225 0.2880081 0.2878239 0.2864036 0.2827069 0.277644 0.274046 0.2742403 0.2777275
 0.2816769 0.2837092 0.2837772 0.2833536 0.2833609 0.2831976 0.2816345 0.2785543 0.275634 0.2748479
 0.2762535 0.277905 0.2780071 0.276177 0.2725073 0.2671145 0.2616185 0.2594483 0.2628168 0.2699686
 0.2767296 0.2801051 0.2792158 0.2740676 0.2658697 0.2583249 0.2559569 0.2599391 0.2667277 0.2714905
 0.2719114 0.2682872 0.261564 0.2529289 0.2448259 0.2406466 0.2425683 0.2498015 0.2587405 0.2645224
 0.2635082 0.2561998 0.2479658 0.2450014 0.248503 0.2538765 0.2561392 0.2546084 0.251862 0.2502283
 0.250501 0.2523789 0.2548047 0.2567998 0.2582134 0.2583306 0.2544903 0.2450325 0.2336683 0.2275009
 0.2297 0.2369624 0.2449055 0.2524742 0.2594649 0.2633612 0.2620159 0.2578931 0.2564851 0.2604472
 0.2670734 0.2717543 0.2726566 0.2714655 0.2703255 0.2692875 0.2673744 0.2653397 0.2656988 0.2695959
 0.2750089 0.2789428 0.2804335 0.280545 0.2803577 0.2800602 0.2795057 0.2786586 0.2775558 0.276328
 0.2751933 0.2742191 0.2732711 0.2722853 0.2711976 0.2693396 0.2654961 0.2594807 0.2534801 0.2505445
 0.2513887 0.253947 0.2563486 0.2582711 0.258454 0.2536798 0.2429731 0.2313611 0.2264157 0.2309372
 0.2407238 0.2492887 0.2529884 0.2514801 0.2455277 0.2366414 0.2286112 0.2268497 0.2342205 0.2480408
 0.2624991 0.2735773 0.2805707 0.2838196 0.2831639 0.2791044 0.2740986 0.2715854 0.2736216 0.2795328
 0.2864285 0.2905459 0.288886 0.2816844 0.2740503 0.2728771 0.2800072 0.2897855 0.2953034 0.2956353
 0.2948205 0.2954485 0.2964434 0.2966218 0.2971788 0.2996858 0.3035156 0.3063673 0.3063302 0.3026891
 0.2959091 0.2881824 0.2830774 0.2827158 0.2854287 0.2876719 0.2876617 0.2854006 0.2804455 0.2728834
 0.2661249 0.2650728 0.2705475 0.2780438 0.2828669 0.2845062 0.2851764 0.2858375 0.2850626 0.2814212
 0.2760122 0.2719915 0.2714796 0.2735626 0.2758032 0.2768818 0.276803 0.2753715 0.2722064 0.2683821
 0.2665692 0.2686594 0.2737383 0.2789748 0.2822199 0.2833146 0.2832698 0.282964 0.2826731 0.2822283
 0.2814493 0.2807521 0.2811755 0.283277 0.2861675 0.2883254 0.2893538 0.2903044 0.2921944 0.2947612
 0.296867 0.2977599 0.2977366 0.2977643 0.2986087 0.3002059 0.3017241 0.3022961 0.3018715 0.3013787
 0.3018933 0.3036136 0.3057804 0.3075483 0.3086932 0.3094944 0.3102601 0.3110632 0.3117079 0.3118924
 0.3116128 0.3114125 0.3119816 0.3134389 0.315189 0.3165255 0.3172128 0.3174477 0.3174556 0.3172753
 0.3168723 0.3163189 0.3158031 0.3154862 0.315388 0.3154125 0.3154527 0.3154573 0.3154324 0.3154199
 0.315466 0.3155861 0.3157591 0.3159608 0.3161782 0.316386 0.3165473 0.3166572 0.3167535 0.3168542
 0.316912 0.3168478 0.3166062 0.3161565 0.3154633 0.314485 0.3131917 0.3115591 0.3095646 0.3072735
 0.3049991 0.3033424 0.3029438 0.3040752 0.3064252 0.3092764 0.3119098 0.3139129 0.3152232 0.3159808
 0.3163655 0.3165155 0.3165154 0.3164065 0.3162062 0.3159318 0.3156086 0.3152606 0.3149043 0.3145556
 0.3142323 0.3139436 0.3136781 0.3134055 0.31309 0.3127078 0.3122544 0.3117347 0.311149 0.310488
 0.3097351 0.3088765 0.3079202 0.3069078 0.3059005 0.3049459 0.3040513 0.3031868 0.3023119 0.3013913
 0.3003745 0.2991865 0.2977997 0.2963322 0.2950162 0.2940116 0.293264 0.2925699 0.291755 0.290764
 0.2896248 0.2883859 0.2870909 0.2857708 0.284436 0.2830746 0.2816563 0.2801451 0.2785181 0.2767794
 0.2749528 0.2730647 0.2711387 0.2691916 0.2672082 0.265113 0.2627732 0.2600349 0.256761 0.2528536
 0.2482767 0.2430869 0.237447 0.2315924 0.2257637 0.2201585 0.2149292 0.2102051 0.2061031 0.2027206
 0.2001258 0.1983567 0.1974308 0.1973539 0.1981186 0.1996907 0.201995 0.2049121 0.2082842 0.2119269
 0.2156418 0.2192391 0.2225811 0.2256273 0.2284295 0.231059 0.2335328 0.2358106 0.2378474 0.23963
 0.241163 0.2424488 0.2434939 0.2443281 0.2450049 0.24558 0.2460889 0.2465414 0.2469276 0.247232
 0.247452 0.2476086 0.2477399 0.2478832 0.2480603 0.2482763 0.2485317 0.2488334 0.2491968 0.2496381
 0.2501675 0.2507839 0.2514702 0.2522005 0.2529591 0.2537582 0.2546349 0.2556319 0.2567804 0.2580931
 0.2595643 0.2611648 0.2628297 0.2644597 0.2659448 0.2671978 0.2681699 0.2688478 0.2692456 0.269394
 0.2693276 0.2690778 0.2686729 0.2681393 0.2675017 0.2667832 0.2660038 0.2651743 0.2642946 0.2633597
 0.2623725 0.2613547 0.2603396 0.2593511 0.2583938 0.2574639 0.2565598 0.2556786 0.2548162 0.2539738
 0.2531597 0.252383 0.2516517 0.2509691 0.2503222 0.2496795 0.2490009 0.2482451 0.2473734 0.2463567
 0.2451802 0.2438415 0.2423497 0.2407261 0.2389922 0.2371576 0.2352255 0.2332069 0.2311168 0.2289596
 0.2267216 0.2243859 0.2219684 0.2195402 0.217201 0.2150215 0.2130179 0.2111701 0.2094447 0.2078108
 0.2062507 0.2047595 0.2033316 0.20196 0.2006454 0.1993944 0.1982121 0.197104 0.1960782 0.1951404
 0.194298 0.1935615 0.1929337 0.1924038 0.1919576 0.1915849 0.1912852 0.191083 0.1910172 0.1910887
 0.1912276 0.1913347 0.1913508 0.1912837 0.1911858 0.1911102 0.1910774 0.1910798 0.1910998 0.1910992
 0.1909966 0.1906844 0.190066 0.1890695 0.1876597 0.1858608 0.1837622 0.1815001 0.1792422 0.1771582
 0.1753703 0.1739292 0.1728305 0.1720249 0.171425 0.1709527 0.1705949 0.1704087 0.1704697 0.1707883
 0.1712387 0.1716101 0.1717946 0.1719087 0.1721893 0.172789 0.173685 0.1747316 0.1757636 0.1766748
 0.1774273 0.1780119 0.1784327 0.1787174 0.1788963 0.1789707 0.178929 0.1787713 0.1785024 0.1781306
 0.1776774 0.1771536 0.1765406 0.1758238 0.1750126 0.1741122 0.173118 0.1720313 0.1708327 0.1694785
 0.1680092 0.1666368 0.165667 0.1653304 0.1656657 0.1665074 0.1676022 0.1687737 0.1699435 0.1710102
 0.1718549 0.172536 0.1733734 0.1747359 0.1767266 0.1790757 0.1813287 0.183138 0.184373 0.1850204
 0.1851075 0.1847046 0.1838667 0.1825775 0.1808479 0.178803 0.1765954 0.1743394 0.1721671 0.1702105
 0.1685269 0.1671309 0.1660196 0.1651792 0.164672 0.1642419 0.1623455 0.1566818 0.1474555 0.1395076
 0.1386651 0.1454606 0.1543969 0.1598544 0.1608675 0.1597891 0.1585755 0.157649 0.1569388 0.1565209
 0.1564554 0.1566426 0.1568637 0.1568851 0.1566042 0.1560346 0.1550506 0.153155 0.1494754 0.1430774
 0.1336544 0.1221682 0.1106481 0.1011135 0.09457029 0.09080581 0.0888343 0.08758137 0.08649157 0.0857172
 0.08576313 0.08697207 0.08933155 0.09262502 0.09659029 0.1008902 0.1050589 0.1086479 0.1114636 0.1135815
 0.1151273 0.1161425 0.1166492 0.1167176 0.1164327 0.1158649 0.1150768 0.1141041 0.1129338 0.1115512
 0.1100286 0.1085632 0.1073952 0.1066487 0.106256 0.1060611 0.1059664 0.1059491 0.1059971 0.1060909
 0.1062223 0.1063963 0.1066292 0.1069395 0.10731 0.1076737 0.1079624 0.1081529 0.1082544 0.1082693
 0.1081698 0.1079203 0.1075477 0.107155 0.1067806 0.1062663 0.1053847 0.1041351 0.1028454 0.1019531
 0.1016994 0.1019962 0.1025258 0.1029714 0.1032021 0.1032807 0.1033158 0.1033077 0.1031346 0.1026886
</values></Ydata></ScRf><Data_Parameters_AB><parameter name="DPF">1</parameter><parameter name="NPT">3497</parameter><parameter name="FXV">3996</parameter><parameter name="LXV">500</parameter><parameter name="CSF">1</parameter><parameter name="MXY">0.336479544639587</parameter><parameter name="MNY">-0.0910970568656921</parameter><parameter name="DAT">17/01/2024</parameter><parameter name="TIM">12:58:22.009 (GMT+1)</parameter><parameter name="DXU">WN</parameter></Data_Parameters_AB><AB__Qtest><MainReport name="Quality Test Report"><Header><Line><Legend>Test result ok/not ok [1/0]: </Legend><Value>0</Value></Line><Line><Legend>Method file: </Legend><Value>C:\Users\Public\Documents\Bruker\OPUS_8.2.28\QT\IRBT_v3_default.QT</Value></Line></Header><Matrix><Line><Legend></Legend><Legend>min</Legend><Legend>max</Legend><Legend>measured</Legend></Line><Line><Value>Absorption (X-Range 1):</Value><Value>0.400000</Value><Value>2.000000</Value><Value>0.287738</Value></Line><Line><Value>Noise (X-Range 4):</Value><Value></Value><Value>0.000300</Value><Value>0.000038</Value></Line><Line><Value>Signal/Noise (X-Range 2):</Value><Value>200.000000</Value><Value></Value><Value>131.255206</Value></Line><Line><Value>Signal/Noise (X-Range 3):</Value><Value>40.000000</Value><Value></Value><Value>99.337041</Value></Line><Line><Value>Water vapour (X-Range 5):</Value><Value></Value><Value>0.000300</Value><Value>0.000011</Value></Line><Line><Value>Signal/Water (X-Range 2):</Value><Value>100.000000</Value><Value></Value><Value>459.690565</Value></Line><Line><Value>Signal/Water (X-Range 3):</Value><Value>20.000000</Value><Value></Value><Value>347.904683</Value></Line><Line><Value>Fringes (X-Range 6):</Value><Value></Value><Value>0.000100</Value><Value>0.000031</Value></Line></Matrix></MainReport></AB__Qtest><Data_Parameters_ScSm><parameter name="DPF">1</parameter><parameter name="NPT">1814</parameter><parameter name="FXV">3996.63438082617</parameter><parameter name="LXV">499.579297603271</parameter><parameter name="CSF">1</parameter><parameter name="MXY">0.330359101295471</parameter><parameter name="MNY">0.064408153295517</parameter><parameter name="DAT">17/01/2024</parameter><parameter name="TIM">12:58:22.009 (GMT+1)</parameter><parameter name="DXU">WN</parameter></Data_Parameters_ScSm><Data_Parameters_ScRf><parameter name="DPF">1</parameter><parameter name="NPT">1820</parameter><parameter name="FXV">4004.34989121387</parameter><parameter name="LXV">495.721542409425</parameter><parameter name="CSF">1</parameter><parameter name="MXY">0.317455649375916</parameter><parameter name="MNY">0.0681498497724533</parameter><parameter name="DAT">17/01/2024</parameter><parameter name="TIM">12:57:56.392 (GMT+1)</parameter><parameter name="DXU">WN</parameter></Data_Parameters_ScRf><Optic_Parameters_Rf><parameter name="APR">0</parameter><parameter name="APT">Open</parameter><parameter name="BMS">KBr</parameter><parameter name="DTC">RT-DLaTGS_IR-Biotyper [Microplate reader]</parameter><parameter name="HPF">0</parameter><parameter name="LPF">10.0</parameter><parameter name="LPV">4000</parameter><parameter name="PGR">0</parameter><parameter name="RCH">Module port</parameter><parameter name="RDX">0</parameter><parameter name="SRC">MIR</parameter><parameter name="VEL">10.0</parameter><parameter name="SON">Off</parameter></Optic_Parameters_Rf><Acquisition_Parameters_Rf><parameter name="ADT">1</parameter><parameter name="AQM">DD</parameter><parameter name="CFE">0</parameter><parameter name="COR">0</parameter><parameter name="DEL">0</parameter><parameter name="DLY">0</parameter><parameter name="HFW">8000</parameter><parameter name="LFW">0</parameter><parameter name="NSR">32</parameter><parameter name="PLF">AB</parameter><parameter name="RES">6</parameter><parameter name="RGN">-1</parameter><parameter name="STR">0</parameter><parameter name="TCL">MakeCompatibleScalar (0, {WSV=1.000000, ARV=0});</parameter><parameter name="TDL">37</parameter><parameter name="RPO">0</parameter></Acquisition_Parameters_Rf><FT_-_Parameters_Rf><parameter name="APF">B3</parameter><parameter name="HFQ">500</parameter><parameter name="LFQ">4000</parameter><parameter name="NLI">0</parameter><parameter name="PHR">24</parameter><parameter name="PHZ">ML</parameter><parameter name="SPZ">NO</parameter><parameter name="ZFF">1</parameter></FT_-_Parameters_Rf><Optic_Parameters_><parameter name="APR">0</parameter><parameter name="APT">Open</parameter><parameter name="BMS">KBr</parameter><parameter name="CHN">Module port</parameter><parameter name="DTC">RT-DLaTGS_IR-Biotyper [Microplate reader]</parameter><parameter name="HPF">0</parameter><parameter name="LPF">10.0</parameter><parameter name="LPV">4000</parameter><parameter name="PGN">0</parameter><parameter name="RDX">0</parameter><parameter name="SRC">MIR</parameter><parameter name="VEL">10.0</parameter><parameter name="SON">Off</parameter></Optic_Parameters_><FT_-_Parameters_><parameter name="APF">B3</parameter><parameter name="HFQ">500</parameter><parameter name="LFQ">4000</parameter><parameter name="NLI">0</parameter><parameter name="PHR">24</parameter><parameter name="PHZ">ML</parameter><parameter name="SPZ">NO</parameter><parameter name="ZFF">1</parameter></FT_-_Parameters_><Acquisition_Parameters_><parameter name="ADT">1</parameter><parameter name="AQM">DD</parameter><parameter name="CFE">0</parameter><parameter name="COR">0</parameter><parameter name="DEL">0</parameter><parameter name="DLY">0</parameter><parameter name="HFW">8000</parameter><parameter name="LFW">0</parameter><parameter name="NSS">32</parameter><parameter name="PLF">AB</parameter><parameter name="RES">6</parameter><parameter name="SOT">0</parameter><parameter name="TCL">MakeCompatibleScalar (0, {WSV=1.000000, ARV=0});</parameter><parameter name="TDL">37</parameter><parameter name="SPO">0</parameter><parameter name="SGN">-1</parameter></Acquisition_Parameters_><Instrument_Parameters_Rf><parameter name="HFL">15801.365274</parameter><parameter name="LFL">0</parameter><parameter name="LWN">15801.365274</parameter><parameter name="ABP">32157</parameter><parameter name="SSP">1</parameter><parameter name="ARG">2</parameter><parameter name="ASG">2</parameter><parameter name="ASS">32</parameter><parameter name="GFW">16</parameter><parameter name="GBW">16</parameter><parameter name="BFW">0</parameter><parameter name="BBW">0</parameter><parameter name="PKA">9113</parameter><parameter name="PKL">4987</parameter><parameter name="PRA">9127</parameter><parameter name="PRL">5010</parameter><parameter name="P2A">1</parameter><parameter name="P2L">1</parameter><parameter name="P2R">1</parameter><parameter name="P2K">1</parameter><parameter name="DAQ">0</parameter><parameter name="AG2">1</parameter><parameter name="SSM">1</parameter><parameter name="RSN">46290</parameter><parameter name="CRR">0</parameter><parameter name="SRT">1705496276.393</parameter><parameter name="DUR">19.6439971923828</parameter><parameter name="TSC">30.8</parameter><parameter name="MVD">0.313431978225708</parameter><parameter name="AN1">0.226023289407242</parameter><parameter name="AN2">0</parameter><parameter name="VSN">2.485 Apr  4 2017</parameter><parameter name="SRN">0085</parameter><parameter name="CAM">0</parameter><parameter name="INS">IR-Biotyper</parameter><parameter name="FOC">69</parameter><parameter name="RDY">1</parameter><parameter name="ARS">32</parameter></Instrument_Parameters_Rf><Sample_Parameters_><parameter name="BLD"></parameter><parameter name="CNM">Admin</parameter><parameter name="CPY"></parameter><parameter name="DPM"></parameter><parameter name="EXP">IRBT_v3_32Scans.XPM</parameter><parameter name="LCT"></parameter><parameter name="SFM">Microplate, HTS-XT</parameter><parameter name="SNM">240117-1222-Cdiff_SCFA_1_C8_232113452_H4_9d8f959e-b684-4e46-b529-8aaa7e920983.0</parameter><parameter name="XPP">C:\Users\Public\Documents\Bruker\OPUS_8.2.28\XPM</parameter><parameter name="IST">OK</parameter><parameter name="CPG">1252</parameter><parameter name="UID">1bbddfef-ec5c-4aa5-bf51-3d244920f8d6</parameter></Sample_Parameters_><Instrument_Parameters_><parameter name="HFL">15801.365274</parameter><parameter name="LFL">0</parameter><parameter name="LWN">15801.365274</parameter><parameter name="ABP">32157</parameter><parameter name="SSP">1</parameter><parameter name="ASG">2</parameter><parameter name="ARG">2</parameter><parameter name="ASS">32</parameter><parameter name="GFW">16</parameter><parameter name="GBW">16</parameter><parameter name="BFW">0</parameter><parameter name="BBW">0</parameter><parameter name="PKA">9171</parameter><parameter name="PKL">4979</parameter><parameter name="PRA">9301</parameter><parameter name="PRL">5002</parameter><parameter name="P2A">1</parameter><parameter name="P2L">1</parameter><parameter name="P2R">1</parameter><parameter name="P2K">1</parameter><parameter name="DAQ">0</parameter><parameter name="AG2">1</parameter><parameter name="SSM">1</parameter><parameter name="RSN">23838</parameter><parameter name="CRR">0</parameter><parameter name="SRT">1705496302.01</parameter><parameter name="DUR">19.64599609375</parameter><parameter name="TSC">30.8</parameter><parameter name="MVD">11.6593065261841</parameter><parameter name="AN1">0.226038693204512</parameter><parameter name="AN2">0</parameter><parameter name="VSN">2.485 Apr  4 2017</parameter><parameter name="SRN">0085</parameter><parameter name="CAM">0</parameter><parameter name="INS">IR-Biotyper</parameter><parameter name="FOC">69</parameter><parameter name="RDY">1</parameter></Instrument_Parameters_><History/></OPUSDataFile>
