<?xml version="1.0" encoding="UTF-8" ?>
<OPUSDataFile><AB><Ydata ylabel="Absorbance Units"><values byteorder="INTEL" format="FLOAT32" numvalues="3497"> -0.09111006 -0.09110285 -0.09110684 -0.09112143 -0.0911464 -0.09117796 -0.09120754 -0.09123329 -0.09124782 -0.09125358
 -0.09125015 -0.09124061 -0.09122745 -0.09121118 -0.09119237 -0.09117212 -0.09114987 -0.09113125 -0.0911172 -0.09111285
 -0.09111974 -0.09113473 -0.09115805 -0.09118021 -0.09120077 -0.09121408 -0.09122048 -0.09122157 -0.09121775 -0.09121209
 -0.09120429 -0.09119467 -0.09118331 -0.09117013 -0.09115642 -0.09114395 -0.09113405 -0.0911293 -0.09112874 -0.0911332
 -0.09113916 -0.0911452 -0.09114852 -0.09114724 -0.09114293 -0.09113491 -0.091129 -0.09112603 -0.09112958 -0.09114028
 -0.09115552 -0.09117515 -0.09119263 -0.09120775 -0.09121595 -0.09121779 -0.09121381 -0.09120484 -0.09119412 -0.0911818
 -0.09116983 -0.09115779 -0.09114558 -0.09113342 -0.09112101 -0.09111014 -0.09110175 -0.09109805 -0.0911007 -0.09110977
 -0.09112628 -0.09114689 -0.09117161 -0.09119437 -0.09121448 -0.09122576 -0.09122751 -0.09121685 -0.09119364 -0.09116049
 -0.09111801 -0.09107372 -0.09102875 -0.09099318 -0.09096772 -0.09096076 -0.09097084 -0.0910003 -0.09104375 -0.09109508
 -0.09114633 -0.09118634 -0.09121059 -0.09121013 -0.09119038 -0.09114987 -0.09110128 -0.09104869 -0.09100096 -0.09096195
 -0.09093032 -0.09090687 -0.09088536 -0.09086506 -0.09084468 -0.09082415 -0.09081008 -0.09080272 -0.0908075 -0.09082338
 -0.0908475 -0.09087816 -0.09090763 -0.0909358 -0.09095819 -0.09097643 -0.09099119 -0.09100384 -0.09101669 -0.0910289
 -0.0910415 -0.09105033 -0.09105364 -0.09104791 -0.09103038 -0.09100409 -0.09096827 -0.09093159 -0.0908955 -0.09086461
 -0.09083974 -0.09081928 -0.09080315 -0.09079289 -0.09078901 -0.09079952 -0.09082382 -0.09086418 -0.09091587 -0.09096412
 -0.09100279 -0.09100698 -0.09098113 -0.09091745 -0.09083309 -0.09074554 -0.09066472 -0.09060664 -0.09056684 -0.09054785
 -0.09054144 -0.09054505 -0.0905533 -0.0905645 -0.09057504 -0.09058427 -0.09058877 -0.09058803 -0.09058118 -0.09056813
 -0.09055093 -0.09052967 -0.09050587 -0.09047983 -0.09045389 -0.09042891 -0.09040967 -0.09039576 -0.09038961 -0.09038804
 -0.09038688 -0.09038331 -0.0903715 -0.09035274 -0.09032571 -0.09029363 -0.09025796 -0.09022077 -0.09018239 -0.09014744
 -0.09011647 -0.0900965 -0.09008945 -0.09009483 -0.09011352 -0.09013452 -0.09015726 -0.09017146 -0.0901772 -0.09017465
 -0.09016442 -0.0901511 -0.09013385 -0.09011189 -0.09008418 -0.09004702 -0.09000183 -0.08994893 -0.08989101 -0.08983132
 -0.08977187 -0.08971491 -0.08966289 -0.08961764 -0.08958115 -0.0895553 -0.0895381 -0.08953003 -0.08952588 -0.08952492
 -0.08952308 -0.0895198 -0.08951344 -0.08950385 -0.08948979 -0.0894713 -0.0894492 -0.08942404 -0.08940038 -0.08937822
 -0.08936048 -0.08934563 -0.08933123 -0.08931592 -0.08929558 -0.08927123 -0.08924204 -0.0892104 -0.08917814 -0.08914649
 -0.08911696 -0.08908911 -0.08906322 -0.08903821 -0.08901343 -0.08899042 -0.08896895 -0.08895355 -0.08894493 -0.08894382
 -0.08895047 -0.08895534 -0.0889579 -0.08894773 -0.08892602 -0.08889642 -0.08886031 -0.0888271 -0.08879313 -0.08875312
 -0.08870443 -0.08863635 -0.0885577 -0.08847393 -0.08839647 -0.08834036 -0.08830124 -0.0882839 -0.08827099 -0.08825655
 -0.08822832 -0.0881796 -0.08811563 -0.08803516 -0.08795203 -0.08786764 -0.08779153 -0.08772453 -0.08766783 -0.08762108
 -0.08757668 -0.08753384 -0.08748233 -0.08742329 -0.0873552 -0.08728153 -0.08721092 -0.08714522 -0.08709332 -0.08705145
 -0.08702 -0.08699054 -0.08695566 -0.08690983 -0.08684559 -0.08676799 -0.08667623 -0.08658025 -0.08648369 -0.08638791
 -0.08629455 -0.08619741 -0.08609578 -0.08598707 -0.0858709 -0.08575189 -0.0856303 -0.08551142 -0.08539488 -0.08528113
 -0.08516833 -0.0850498 -0.08492251 -0.08477417 -0.08460438 -0.08440423 -0.08418136 -0.08394068 -0.08369283 -0.08345033
 -0.08321566 -0.08299527 -0.08278396 -0.08258177 -0.08238116 -0.08218077 -0.08197148 -0.0817515 -0.0815139 -0.08125717
 -0.08098254 -0.08068994 -0.08038245 -0.08006001 -0.07971916 -0.07936008 -0.07898139 -0.0785855 -0.07818209 -0.07777361
 -0.07737277 -0.07697831 -0.07659487 -0.07621739 -0.07584186 -0.07546191 -0.0750696 -0.07466333 -0.07423782 -0.07380048
 -0.07335375 -0.07290167 -0.07244901 -0.07198159 -0.07149796 -0.0709824 -0.07043044 -0.06985705 -0.0692623 -0.06868009
 -0.06811129 -0.06756587 -0.06704132 -0.06652092 -0.06600308 -0.06547102 -0.06492707 -0.06436864 -0.06380007 -0.06322955
 -0.06265736 -0.06209041 -0.06151835 -0.06093537 -0.06032844 -0.05968212 -0.05900796 -0.05830119 -0.05759876 -0.05691301
 -0.05625869 -0.05564578 -0.05504633 -0.05445906 -0.05385054 -0.05321738 -0.05255884 -0.05187561 -0.05119429 -0.05051536
 -0.04985595 -0.04921161 -0.04857131 -0.04792964 -0.04726297 -0.04657385 -0.04585328 -0.04511325 -0.04436692 -0.04362264
 -0.04289591 -0.0421818 -0.04148292 -0.04078915 -0.04009591 -0.03939873 -0.03869469 -0.03798488 -0.03726868 -0.03654996
 -0.03582908 -0.03510988 -0.03439299 -0.03367373 -0.03295166 -0.03221323 -0.03145882 -0.0306851 -0.02989566 -0.02910644
 -0.02831944 -0.02755077 -0.02679622 -0.02605538 -0.0253226 -0.02458883 -0.02385287 -0.02310906 -0.02236162 -0.02161084
 -0.02086349 -0.0201242 -0.01939176 -0.01866974 -0.01794122 -0.01720385 -0.01644074 -0.01564726 -0.01483273 -0.0139966
 -0.01316854 -0.01234973 -0.01155465 -0.01078159 -0.01001948 -0.009266433 -0.008506872 -0.007741835 -0.006966218 -0.00618234
 -0.005392651 -0.004598686 -0.003804101 -0.003008458 -0.002213358 -0.001415761 -0.0006137859 0.0001939284 0.001010062 0.001828792
 0.002650077 0.00346305 0.004264993 0.005050772 0.005818218 0.006574988 0.007321109 0.008071692 0.008827394 0.009595803
 0.01037599 0.01116137 0.01195059 0.01273277 0.0135087 0.01427498 0.01503337 0.01578636 0.01653441 0.01727905
 0.01802101 0.0187613 0.01950119 0.02024252 0.02098384 0.02172557 0.02246378 0.02319715 0.02392358 0.0246422
 0.02535323 0.02605655 0.02675256 0.02744116 0.02812451 0.02880275 0.02948043 0.03015755 0.03083623 0.03151577
 0.03219368 0.03286916 0.03353806 0.03420049 0.03485407 0.03550074 0.03614195 0.03678074 0.03742171 0.03806417
 0.03871049 0.03935448 0.03999356 0.04062379 0.04124196 0.04185246 0.04245546 0.04305645 0.04365684 0.04425516
 0.0448516 0.04544109 0.04602336 0.04659551 0.04715763 0.04770958 0.04825217 0.04878926 0.04932232 0.04985883
 0.05039835 0.05094474 0.0514941 0.05204231 0.05258565 0.05311775 0.05363916 0.05414715 0.05464689 0.05513964
 0.05563192 0.05612664 0.05662607 0.05713248 0.05763919 0.05814609 0.05864295 0.05912855 0.05960035 0.06005821
 0.06050851 0.06095166 0.06139432 0.06183619 0.06227916 0.06272233 0.06316376 0.06360238 0.06403439 0.06446033
 0.06487843 0.06529233 0.06570542 0.06612027 0.06654166 0.0669647 0.06738939 0.06780665 0.06821304 0.0686034
 0.068975 0.06933052 0.06966922 0.07000007 0.07032359 0.07065043 0.07098117 0.07131995 0.07166629 0.07201523
 0.07236601 0.07271133 0.07305142 0.07338321 0.07370719 0.0740227 0.0743308 0.07463216 0.07492949 0.07522614
 0.07552384 0.07582632 0.07612972 0.07643368 0.07673209 0.07702215 0.0773022 0.077571 0.07783002 0.07807964
 0.07831862 0.07854712 0.07876056 0.07895867 0.07913858 0.07930068 0.07944944 0.07958636 0.07972315 0.07986022
 0.08000669 0.08015878 0.08031283 0.08046337 0.0805984 0.08071849 0.08081758 0.08090398 0.08098177 0.08105929
 0.08114335 0.08123433 0.08133516 0.08143888 0.08154447 0.08164527 0.08173927 0.0818283 0.08191178 0.08199987
 0.08209314 0.08219721 0.08231132 0.08242555 0.08253773 0.08262858 0.08269834 0.08273625 0.08274689 0.08273535
 0.08270729 0.08267514 0.08264056 0.08261097 0.08258422 0.08256019 0.08253933 0.08252054 0.08250928 0.08250787
 0.08251798 0.08254256 0.08257034 0.08260084 0.08261754 0.08261807 0.08259903 0.08255993 0.08251432 0.08246306
 0.08242233 0.08239152 0.08237527 0.08237086 0.08237065 0.08237218 0.08236466 0.08234928 0.08232154 0.08228816
 0.08225434 0.0822288 0.08222125 0.08223467 0.08227558 0.0823363 0.08241706 0.08250383 0.08259297 0.08267493
 0.08274655 0.08280969 0.08286362 0.08291827 0.0829742 0.08303904 0.08311284 0.08319635 0.08328971 0.08339343
 0.08350956 0.08364651 0.0838059 0.08399902 0.08421918 0.08446424 0.08471572 0.08495159 0.08515405 0.08529613
 0.08538335 0.08540452 0.08539382 0.08535992 0.08533823 0.08534296 0.08537935 0.0854538 0.08554125 0.08564056
 0.0857217 0.0857826 0.08580774 0.08579713 0.08575153 0.08567237 0.08556979 0.08544526 0.08531018 0.08516469
 0.08501533 0.08486072 0.0847013 0.08453605 0.0843633 0.08418422 0.08399893 0.08380974 0.0836198 0.08342434
 0.0832257 0.08300477 0.08275862 0.08246321 0.08211201 0.08170149 0.08122816 0.08071952 0.08017681 0.07963651
 0.07909969 0.07858417 0.07808845 0.07761014 0.07714741 0.07669187 0.07624191 0.07578894 0.07533248 0.07486619
 0.07439446 0.07391887 0.07344752 0.07298935 0.07254551 0.07212202 0.07170784 0.07130049 0.07088851 0.07046663
 0.07003597 0.06959438 0.06915492 0.06871829 0.06830046 0.06790268 0.0675332 0.06719166 0.06686886 0.06656187
 0.06624377 0.06591257 0.06554325 0.06514058 0.06470254 0.06423991 0.06377195 0.06330642 0.06286309 0.06244031
 0.06204512 0.06166859 0.06130788 0.06095338 0.0606001 0.06024305 0.05987903 0.05950974 0.05913446 0.05875897
 0.05838403 0.05801228 0.05764412 0.05727613 0.05690815 0.05653647 0.05616155 0.05578551 0.05540871 0.05503475
 0.05466177 0.05428679 0.05390716 0.05351536 0.05311268 0.05269614 0.05227236 0.05184589 0.05142341 0.05101132
 0.05061029 0.05022327 0.04984476 0.04947447 0.0491042 0.04873263 0.04835209 0.04796132 0.04755679 0.04713791
 0.04670867 0.04626947 0.04583 0.04539073 0.04496005 0.0445373 0.04412435 0.04371942 0.04331864 0.04291996
 0.04251753 0.04211031 0.04169411 0.04126965 0.04083556 0.0403947 0.03994783 0.03949958 0.03905173 0.0386092
 0.03817387 0.03774843 0.03733384 0.03693059 0.03653868 0.03616006 0.03579489 0.03544522 0.03511081 0.03478349
 0.03446128 0.03412297 0.03376758 0.03337698 0.03295644 0.03251003 0.0320479 0.03159282 0.03115019 0.03073979
 0.03035512 0.02999942 0.02965787 0.02932204 0.02897978 0.02862159 0.02824855 0.02785666 0.02746075 0.02706258
 0.02667768 0.02630925 0.02595833 0.02562577 0.02529854 0.02497615 0.02465143 0.02432624 0.02401461 0.0237196
 0.02346544 0.02324928 0.02307905 0.02294148 0.02281534 0.02268436 0.02251411 0.02230153 0.02202558 0.02170602
 0.02134585 0.02097628 0.02061361 0.02027413 0.01997006 0.01969043 0.01943639 0.01918799 0.0189417 0.01869283
 0.01844016 0.01819436 0.01795591 0.01773235 0.01752312 0.0173251 0.01713783 0.01695713 0.01678367 0.01661809
 0.01645956 0.01630736 0.01615861 0.01600853 0.01585584 0.01569668 0.0155333 0.01536618 0.01519703 0.01502779
 0.01485535 0.01468049 0.01449405 0.01429509 0.01407148 0.01382115 0.01353794 0.01322036 0.0128797 0.01251678
 0.01215941 0.01180888 0.01149012 0.01120091 0.01094451 0.01071483 0.01049457 0.01027841 0.01004549 0.009796388
 0.009521322 0.009227392 0.008917633 0.008600307 0.008282935 0.007968207 0.007660395 0.007355692 0.007053796 0.006750939
 0.006445799 0.006138564 0.005828675 0.005520195 0.005213227 0.004914441 0.004624169 0.004347499 0.004083705 0.003827357
 0.003576144 0.003313998 0.003041116 0.002747467 0.002439616 0.00212655 0.001815301 0.001522819 0.001246326 0.0009913919
 0.000747116 0.0005066119 0.0002641241 1.322593E-05 -0.0002414757 -0.0004997082 -0.0007573299 -0.001012325 -0.001268458 -0.001526119
 -0.001788073 -0.00205532 -0.002317556 -0.002574174 -0.002803959 -0.003006317 -0.00316625 -0.003286655 -0.003373864 -0.003434612
 -0.003494776 -0.003559035 -0.003652943 -0.003771739 -0.003922175 -0.004089922 -0.004262996 -0.00442744 -0.004567939 -0.004680573
 -0.004758358 -0.004805312 -0.00482178 -0.004809781 -0.004770728 -0.004700538 -0.004598914 -0.004461477 -0.004287562 -0.004078066
 -0.003833021 -0.00355685 -0.00324943 -0.002911241 -0.002540711 -0.002129347 -0.001675251 -0.001166487 -0.0006042233 1.641814E-05
 0.0006893264 0.001407682 0.002164497 0.002948941 0.003758382 0.004587015 0.005435681 0.006304259 0.007190502 0.008094861
 0.009009869 0.009934233 0.01086039 0.01178686 0.01271025 0.01363014 0.01454465 0.01545365 0.01635082 0.01723506
 0.01809198 0.01891879 0.01969307 0.02041038 0.02104406 0.02158931 0.0220215 0.02233861 0.02252388 0.02258493
 0.02251755 0.02234907 0.02208992 0.02179228 0.02147945 0.02121337 0.02102131 0.02094252 0.0209956 0.02117729
 0.02149284 0.02190985 0.02242633 0.02300935 0.02365694 0.02434859 0.02508348 0.02584681 0.02663729 0.02743974
 0.02825252 0.02906145 0.02986601 0.03065668 0.03143671 0.03220485 0.03297095 0.033744 0.03453717 0.03536631
 0.0362312 0.0371475 0.03806895 0.03900351 0.03982021 0.04050973 0.04085704 0.04083231 0.04023543 0.03903481
 0.03720975 0.03475537 0.03190054 0.02866664 0.02541086 0.02214818 0.01915836 0.01642586 0.0140481 0.01198916
 0.01021177 0.008683916 0.007335206 0.006146035 0.005068222 0.004086661 0.003175839 0.002321801 0.001509694 0.0007345708
 -1.063607E-05 -0.0007181488 -0.001388334 -0.002008372 -0.00257602 -0.003083567 -0.003529566 -0.003914808 -0.004239193 -0.004509123
 -0.004725063 -0.004895093 -0.005019573 -0.005104632 -0.005150673 -0.005160899 -0.005138995 -0.005092421 -0.005032753 -0.004979874
 -0.004952091 -0.004978864 -0.005073218 -0.005259573 -0.005530772 -0.005895324 -0.006322289 -0.006806253 -0.007303933 -0.007804869
 -0.008270569 -0.008693098 -0.009047771 -0.009331356 -0.009527246 -0.009634457 -0.009628305 -0.009507353 -0.009240233 -0.008833029
 -0.008297016 -0.00766717 -0.007069988 -0.006573182 -0.006414799 -0.006640621 -0.007467963 -0.008835163 -0.01079115 -0.01315172
 -0.01579827 -0.01852307 -0.02116815 -0.02362544 -0.02580148 -0.02771498 -0.0293456 -0.03076828 -0.0319926 -0.03307827
 -0.03403336 -0.03488936 -0.03564875 -0.03633338 -0.03694452 -0.03750432 -0.03801397 -0.03849279 -0.03894135 -0.03937243
 -0.03978567 -0.04018689 -0.04057499 -0.04095057 -0.04131285 -0.04166056 -0.04199481 -0.04231558 -0.04262554 -0.04292592
 -0.04321978 -0.04350856 -0.04379459 -0.04407889 -0.0443623 -0.04464539 -0.04492664 -0.04520621 -0.04547969 -0.04574683
 -0.04600264 -0.04624706 -0.0464795 -0.04670081 -0.0469171 -0.04712921 -0.04734468 -0.0475621 -0.04778221 -0.04800167
 -0.04821412 -0.04841875 -0.04861049 -0.04879389 -0.04897061 -0.04914665 -0.04932712 -0.04951228 -0.04970474 -0.04989812
 -0.05009153 -0.05027791 -0.05045551 -0.05062179 -0.05077583 -0.05092078 -0.05105667 -0.05119026 -0.05132193 -0.05145858
 -0.05159995 -0.05174757 -0.05190021 -0.05205338 -0.0522063 -0.0523541 -0.05249766 -0.05263646 -0.05277137 -0.05290394
 -0.0530329 -0.05315804 -0.05327703 -0.05338776 -0.05349088 -0.05358526 -0.05367562 -0.05376298 -0.05385146 -0.05394245
 -0.05403535 -0.05413056 -0.05422397 -0.05431524 -0.05440304 -0.0544875 -0.0545732 -0.05466048 -0.0547546 -0.05485485
 -0.05496112 -0.05507189 -0.05518264 -0.05529285 -0.05539922 -0.05550241 -0.05560191 -0.05569861 -0.05579315 -0.05588629
 -0.05597834 -0.05607104 -0.05616496 -0.05626234 -0.05636396 -0.05647116 -0.05658441 -0.05670394 -0.05683 -0.05696098
 -0.05709688 -0.0572335 -0.05737057 -0.05750281 -0.05763033 -0.05775163 -0.05786781 -0.05798301 -0.05809849 -0.05822061
 -0.05834862 -0.05848495 -0.05862608 -0.05876835 -0.05890837 -0.05904095 -0.05916616 -0.05928179 -0.05939121 -0.05949545
 -0.05959707 -0.05969746 -0.05979608 -0.05989303 -0.05998752 -0.06007921 -0.06017016 -0.06026047 -0.06035289 -0.06044748
 -0.06054445 -0.0606435 -0.06074221 -0.06084032 -0.06093532 -0.06102739 -0.06111561 -0.06120063 -0.06128312 -0.06136416
 -0.06144558 -0.06152811 -0.06161363 -0.06170093 -0.06179022 -0.06187876 -0.06196521 -0.06204822 -0.06212655 -0.0622023
 -0.06227546 -0.06234942 -0.06242481 -0.06250222 -0.06258189 -0.0626611 -0.06273969 -0.06281451 -0.06288568 -0.06295309
 -0.06301733 -0.06308111 -0.06314491 -0.06321197 -0.06328189 -0.06335568 -0.0634323 -0.06351061 -0.06358994 -0.06366904
 -0.06374801 -0.06382659 -0.06390482 -0.06398288 -0.06405994 -0.06413572 -0.06420983 -0.06428206 -0.06435287 -0.06442234
 -0.06449059 -0.06455772 -0.06462253 -0.06468499 -0.0647443 -0.06480062 -0.06485516 -0.06490839 -0.06496321 -0.06501995
 -0.06508131 -0.06514697 -0.06521782 -0.06529264 -0.06537021 -0.0654489 -0.06552642 -0.0656023 -0.06567509 -0.06574625
 -0.06581588 -0.06588612 -0.06595776 -0.06603181 -0.06610886 -0.06618784 -0.06626882 -0.06634934 -0.06642926 -0.06650582
 -0.06657891 -0.06664734 -0.06671135 -0.06677289 -0.0668325 -0.0668943 -0.06695817 -0.06702626 -0.06709737 -0.0671699
 -0.06724276 -0.0673132 -0.06738178 -0.06744757 -0.0675128 -0.06757884 -0.06764714 -0.06771914 -0.06779405 -0.06787235
 -0.06795116 -0.06803007 -0.06810589 -0.06817795 -0.06824559 -0.06830852 -0.06836938 -0.06842829 -0.06848903 -0.06855161
 -0.06861748 -0.0686862 -0.06875645 -0.06882764 -0.0688972 -0.06896478 -0.06902815 -0.06908759 -0.06914212 -0.06919337
 -0.06924219 -0.06929158 -0.06934411 -0.06940138 -0.06946567 -0.06953435 -0.0696077 -0.06968006 -0.06975019 -0.06981426
 -0.06987115 -0.06992204 -0.06996676 -0.07000959 -0.07005077 -0.070094 -0.07013929 -0.07018778 -0.07023931 -0.07029358
 -0.07035032 -0.07040861 -0.07046788 -0.07052648 -0.07058407 -0.07063928 -0.07069241 -0.0707433 -0.07079227 -0.07083967
 -0.07088504 -0.07092811 -0.07096888 -0.07100695 -0.07104398 -0.07107998 -0.07111799 -0.07115851 -0.0712031 -0.07125206
 -0.07130424 -0.07135956 -0.07141457 -0.07146908 -0.07151939 -0.07156574 -0.07160723 -0.07164473 -0.07168072 -0.0717159
 -0.07175335 -0.07179292 -0.07183576 -0.07188137 -0.07192953 -0.0719802 -0.07203323 -0.0720888 -0.07214715 -0.07220763
 -0.07227023 -0.07233376 -0.07239795 -0.07246186 -0.0725252 -0.07258807 -0.07265039 -0.07271305 -0.07277612 -0.0728394
 -0.07290275 -0.07296429 -0.0730239 -0.07307981 -0.07313249 -0.0731826 -0.07323078 -0.07327907 -0.07332735 -0.07337641
 -0.07342563 -0.07347456 -0.07352282 -0.07357006 -0.07361581 -0.0736598 -0.07370161 -0.07374059 -0.07377848 -0.07381511
 -0.07385459 -0.07389756 -0.07394677 -0.07400278 -0.07406374 -0.0741296 -0.0741965 -0.07426436 -0.07433092 -0.07439617
 -0.07445925 -0.07451985 -0.0745764 -0.07462873 -0.0746753 -0.07471693 -0.07475398 -0.07478811 -0.07482141 -0.07485493
 -0.07489025 -0.07492755 -0.07496752 -0.0750095 -0.07505362 -0.07509836 -0.07514356 -0.07518686 -0.0752278 -0.07526501
 -0.07529821 -0.07532837 -0.07535556 -0.07538169 -0.07540678 -0.07543132 -0.0754553 -0.07547855 -0.07550155 -0.07552589
 -0.0755522 -0.07558317 -0.07561856 -0.07565954 -0.07570465 -0.07575294 -0.07580217 -0.07585026 -0.07589559 -0.07593652
 -0.07597294 -0.0760041 -0.07603182 -0.07605622 -0.07607996 -0.07610356 -0.0761284 -0.0761548 -0.07618213 -0.07621041
 -0.07623786 -0.07626445 -0.07628921 -0.07631242 -0.07633535 -0.07635849 -0.07638466 -0.0764137 -0.07644697 -0.07648318
 -0.07652092 -0.07655853 -0.07659326 -0.07662474 -0.07665146 -0.0766744 -0.07669351 -0.07671036 -0.07672536 -0.07674059
 -0.07675664 -0.07677501 -0.07679625 -0.07681973 -0.0768456 -0.07687132 -0.07689673 -0.07691982 -0.07694061 -0.07695969
 -0.07697732 -0.07699557 -0.07701459 -0.07703621 -0.07706019 -0.07708696 -0.07711586 -0.07714584 -0.07717645 -0.07720616
 -0.07723653 -0.07726771 -0.07730324 -0.07734523 -0.07739627 -0.07745854 -0.07753066 -0.07761348 -0.07770117 -0.07779299
 -0.07788339 -0.07797137 -0.0780567 -0.07813917 -0.07822543 -0.07831569 -0.07841516 -0.07852262 -0.07863227 -0.07874122
 -0.07883408 -0.07890988 -0.07895739 -0.07897917 -0.07897484 -0.07894675 -0.07889822 -0.07882945 -0.07874011 -0.07863541
 -0.07851513 -0.07839505 -0.07828054 -0.07818709 -0.07812136 -0.0780858 -0.0780834 -0.07810341 -0.07814574 -0.07819282
 -0.0782435 -0.07828285 -0.07831065 -0.07832542 -0.07832839 -0.07832867 -0.07832618 -0.07832555 -0.07832529 -0.07832322
 -0.07831909 -0.07831119 -0.07830023 -0.07828656 -0.07827037 -0.07825194 -0.07823139 -0.07820874 -0.07818434 -0.07815862
 -0.07813075 -0.07810062 -0.07806737 -0.07803046 -0.07799187 -0.0779515 -0.07791383 -0.0778792 -0.0778503 -0.07782714
 -0.07780857 -0.07779427 -0.07778107 -0.0777688 -0.07775505 -0.07774007 -0.0777234 -0.07770525 -0.07768576 -0.07766516
 -0.07764355 -0.0776218 -0.07760045 -0.07758111 -0.07756492 -0.07755301 -0.07754653 -0.0775443 -0.07754657 -0.07755032
 -0.07755508 -0.07755832 -0.07755951 -0.07755891 -0.07755645 -0.07755432 -0.07755262 -0.07755311 -0.07755563 -0.0775594
 -0.07756424 -0.07756861 -0.07757282 -0.07757689 -0.07758138 -0.07758756 -0.07759533 -0.07760534 -0.07761667 -0.07762885
 -0.07764065 -0.07765117 -0.07765938 -0.0776645 -0.07766629 -0.07766426 -0.07765973 -0.07765278 -0.07764533 -0.07763761
 -0.07763124 -0.07762639 -0.07762359 -0.07762283 -0.07762409 -0.07762718 -0.07763059 -0.07763405 -0.07763539 -0.07763468
 -0.07763093 -0.07762469 -0.07761656 -0.07760704 -0.07759713 -0.07758683 -0.07757653 -0.07756602 -0.07755523 -0.077544
 -0.07753199 -0.0775201 -0.07750826 -0.07749862 -0.07749161 -0.07748888 -0.07749101 -0.07749587 -0.07750344 -0.07750902
 -0.07751244 -0.07751121 -0.07750566 -0.07749761 -0.07748745 -0.07747803 -0.07746917 -0.07746176 -0.07745544 -0.07744971
 -0.07744484 -0.07744093 -0.0774385 -0.07743815 -0.0774399 -0.0774441 -0.07745022 -0.07745825 -0.07746715 -0.07747683
 -0.0774854 -0.07749263 -0.0774961 -0.0774953 -0.07749016 -0.07748046 -0.07747012 -0.07745937 -0.07745298 -0.0774508
 -0.07745352 -0.07746039 -0.0774679 -0.07747568 -0.07748041 -0.07748301 -0.07748369 -0.07748364 -0.07748485 -0.07748753
 -0.077493 -0.07749978 -0.07750748 -0.07751402 -0.07751798 -0.07751923 -0.07751696 -0.07751374 -0.07750987 -0.07750829
 -0.07750973 -0.07751375 -0.07752056 -0.077526 -0.07752987 -0.07752877 -0.07752296 -0.07751381 -0.07750219 -0.07749349
 -0.07748803 -0.07749019 -0.07749858 -0.0775127 -0.07753026 -0.07754748 -0.07756341 -0.07757518 -0.07758427 -0.07759062
 -0.07759652 -0.07760321 -0.07761168 -0.07762283 -0.07763568 -0.07765029 -0.07766516 -0.07768008 -0.07769416 -0.07770724
 -0.07771957 -0.07773116 -0.07774229 -0.07775294 -0.0777628 -0.07777192 -0.07778029 -0.07778807 -0.0777958 -0.07780356
 -0.0778119 -0.07782039 -0.07782862 -0.07783631 -0.07784287 -0.07784864 -0.07785344 -0.07785841 -0.07786403 -0.07787118
 -0.07788037 -0.07789167 -0.0779053 -0.07792048 -0.07793712 -0.07795455 -0.07797266 -0.0779914 -0.07801078 -0.07803037
 -0.07805005 -0.07806835 -0.07808522 -0.07809941 -0.07811134 -0.0781217 -0.07813118 -0.07814164 -0.07815353 -0.07816836
 -0.07818607 -0.07820748 -0.07823134 -0.07825738 -0.07828338 -0.0783082 -0.07833009 -0.07834767 -0.0783625 -0.07837425
 -0.07838719 -0.07840201 -0.07842091 -0.07844435 -0.07847056 -0.07849949 -0.07852875 -0.07855845 -0.07858913 -0.0786209
 -0.07865523 -0.07869125 -0.07872693 -0.07876106 -0.07878931 -0.07881228 -0.0788284 -0.07884022 -0.07884999 -0.0788595
 -0.07887122 -0.07888474 -0.0789004 -0.07891773 -0.07893629 -0.07895713 -0.07898053 -0.07900668 -0.07903582 -0.07906654
 -0.07909877 -0.07913115 -0.0791636 -0.07919643 -0.07922968 -0.07926377 -0.07929856 -0.07933328 -0.07936788 -0.07940175
 -0.07943502 -0.07946791 -0.07949997 -0.07953077 -0.07955949 -0.07958479 -0.07960705 -0.07962551 -0.07964268 -0.07965942
 -0.07967855 -0.07970147 -0.07972912 -0.07976241 -0.07979932 -0.07983992 -0.07988094 -0.07992215 -0.07996013 -0.07999466
 -0.08002396 -0.08004815 -0.08006841 -0.08008524 -0.08010245 -0.08012038 -0.08014242 -0.08016817 -0.08019852 -0.08023246
 -0.08026887 -0.08030657 -0.08034384 -0.08037975 -0.08041289 -0.08044319 -0.08046997 -0.08049446 -0.08051693 -0.08053846
 -0.0805595 -0.0805799 -0.08059962 -0.08061899 -0.0806379 -0.08065883 -0.08068193 -0.08070981 -0.08074228 -0.08077744
 -0.08081461 -0.08084856 -0.08087915 -0.08090276 -0.08092046 -0.08093295 -0.08094152 -0.08094862 -0.08095503 -0.08096255
 -0.08097169 -0.08098333 -0.080998 -0.08101648 -0.08103799 -0.08106279 -0.08108854 -0.0811149 -0.081139 -0.0811603
 -0.08117716 -0.08118924 -0.08119723 -0.08120114 -0.08120286 -0.08120245 -0.08120155 -0.08120006 -0.08119817 -0.08119602
 -0.08119402 -0.08119301 -0.0811953 -0.08120132 -0.08121327 -0.08123002 -0.08125149 -0.0812755 -0.08130033 -0.08132419
 -0.08134569 -0.08136348 -0.08137683 -0.08138455 -0.0813859 -0.08138191 -0.08137213 -0.08136152 -0.08135041 -0.08134434
 -0.08134371 -0.08134955 -0.08136161 -0.08137538 -0.08139051 -0.08140216 -0.08141076 -0.08141521 -0.08141647 -0.08141651
 -0.0814157 -0.08141572 -0.08141624 -0.08141728 -0.08141913 -0.08142187 -0.08142619 -0.08143286 -0.08144098 -0.08145081
 -0.08145957 -0.08146644 -0.08147001 -0.08146951 -0.08146711 -0.0814628 -0.0814607 -0.08146108 -0.08146589 -0.08147506
 -0.0814874 -0.0815026 -0.08151765 -0.08153253 -0.08154541 -0.08155672 -0.08156649 -0.08157539 -0.08158448 -0.08159435
 -0.08160608 -0.08162007 -0.08163742 -0.08165701 -0.08167925 -0.08170035 -0.08171919 -0.0817316 -0.08173565 -0.08173186
 -0.08171941 -0.08170362 -0.08168488 -0.08166814 -0.0816538 -0.08164337 -0.0816368 -0.08163355 -0.08163349 -0.08163551
 -0.08163928 -0.08164284 -0.08164565 -0.08164512 -0.08164117 -0.08163214 -0.08161911 -0.08160263 -0.08158422 -0.08156554
 -0.08154713 -0.08153002 -0.08151352 -0.08149741 -0.08148178 -0.08146641 -0.08145249 -0.08144031 -0.08143011 -0.08142209
 -0.0814147 -0.08140785 -0.08140004 -0.08139125 -0.08138125 -0.08137009 -0.08135808 -0.08134529 -0.08133218 -0.08131886
 -0.08130597 -0.08129341 -0.08128126 -0.08126921 -0.08125682 -0.08124407 -0.08123085 -0.08121697 -0.08120265 -0.08118643
 -0.08116768 -0.08114551 -0.08111896 -0.08109049 -0.08106014 -0.08103166 -0.08100566 -0.08098281 -0.08096331 -0.08094411
 -0.08092503 -0.08090298 -0.08087812 -0.08085041 -0.0808204 -0.08079053 -0.08076072 -0.08073234 -0.08070404 -0.08067393
 -0.08064086 -0.08060183 -0.08055836 -0.08051029 -0.08046078 -0.08041202 -0.08036531 -0.08032209 -0.08028136 -0.0802431
 -0.08020641 -0.08017118 -0.08013632 -0.08010186 -0.08006533 -0.08002658 -0.07998301 -0.07993453 -0.07988047 -0.07982104
 -0.07975764 -0.07969078 -0.07962338 -0.07955588 -0.07949122 -0.07942906 -0.07937022 -0.07931403 -0.07925986 -0.07920735
 -0.07915616 -0.07910535 -0.07905465 -0.07900193 -0.07894597 -0.07888605 -0.07882117 -0.07875384 -0.07868445 -0.07861467
 -0.07854507 -0.07847338 -0.07839952 -0.07832004 -0.07823485 -0.07814366 -0.07804675 -0.07794645 -0.07784283 -0.07773758
 -0.07763012 -0.0775197 -0.07740553 -0.07728532 -0.07715946 -0.07702719 -0.07689023 -0.0767504 -0.0766077 -0.0764634
 -0.07631472 -0.07616044 -0.07599944 -0.07583044 -0.07565642 -0.07547774 -0.0752972 -0.07511553 -0.07493123 -0.07474428
 -0.07455155 -0.07435293 -0.07414794 -0.07393692 -0.07372284 -0.07350632 -0.07329221 -0.07308017 -0.07287226 -0.07266641
 -0.07245944 -0.07224949 -0.07203219 -0.07180777 -0.07157499 -0.07133417 -0.0710861 -0.0708279 -0.07055904 -0.07027484
 -0.06997386 -0.06965225 -0.06930889 -0.06894164 -0.06854954 -0.06813616 -0.06770147 -0.06725458 -0.0667959 -0.06632966
 -0.06585533 -0.06536859 -0.06487007 -0.06435996 -0.0638411 -0.06332371 -0.06280693 -0.0622962 -0.06178356 -0.06125923
 -0.06071807 -0.06014795 -0.05955704 -0.05894632 -0.05832678 -0.05770658 -0.05708198 -0.05645538 -0.05581322 -0.05515271
 -0.05446588 -0.05375107 -0.05300617 -0.0522314 -0.05141571 -0.05055835 -0.04963626 -0.04865002 -0.04759463 -0.04647681
 -0.04533037 -0.04415848 -0.04299362 -0.0418246 -0.04064424 -0.03943852 -0.03818147 -0.03686962 -0.03549108 -0.03404207
 -0.03252362 -0.03090853 -0.0291897 -0.0273242 -0.02529169 -0.02308541 -0.02068952 -0.0181707 -0.01553076 -0.01287007
 -0.01019759 -0.007579485 -0.005019024 -0.002530521 -0.0001102955 0.002272725 0.00462935 0.007033038 0.009492265 0.01208608
 0.01478797 0.01759208 0.02043547 0.02320975 0.02589793 0.0284226 0.03084438 0.03318051 0.0354932 0.03782637
 0.0401851 0.04258467 0.04499924 0.04742407 0.04984814 0.05227008 0.05467667 0.0570675 0.05941659 0.0617227
 0.06398557 0.06620546 0.06839156 0.07053458 0.07258795 0.07454007 0.07631829 0.07793712 0.0793884 0.08070282
 0.08193289 0.0830772 0.08416358 0.08515441 0.08602094 0.08676648 0.08737163 0.08789804 0.08836368 0.08881133
 0.08926087 0.08969641 0.09011991 0.09050004 0.09083261 0.09112035 0.0913633 0.09158567 0.091787 0.09197015
 0.09212981 0.09223623 0.09228586 0.09224998 0.0921302 0.09191727 0.09161118 0.09120797 0.09070731 0.09010278
 0.08940898 0.08862637 0.08779573 0.08693042 0.08608957 0.08529215 0.08459891 0.0840275 0.0836168 0.08337861
 0.08330745 0.0834055 0.08364069 0.08401134 0.08450016 0.08510739 0.08583339 0.08667707 0.08763275 0.08869652
 0.08985154 0.09109469 0.09241048 0.09379732 0.09524613 0.09675559 0.09832047 0.09994133 0.1016165 0.1033484
 0.1051375 0.106987 0.1088977 0.1108735 0.1129151 0.1150267 0.1172089 0.119467 0.1218018 0.1242147
 0.1267059 0.1292521 0.1318502 0.1344496 0.1370457 0.1395895 0.142072 0.1444452 0.1466813 0.148692
 0.1504502 0.1518574 0.1529402 0.15368 0.1541415 0.154374 0.1544125 0.1542953 0.1540148 0.153577
 0.152969 0.15219 0.1512226 0.1500671 0.148685 0.1470713 0.1452135 0.14311 0.1408248 0.1383618
 0.1357927 0.1331152 0.1303476 0.1274902 0.1245497 0.1215386 0.1184894 0.1154167 0.1123652 0.1093266
 0.1063215 0.1032981 0.1002282 0.09704825 0.09370118 0.09020182 0.08652773 0.08276916 0.07894579 0.07511927
 0.07130254 0.06753171 0.06380826 0.06020114 0.05671439 0.05341827 0.05031284 0.04740525 0.04468892 0.04212287
 0.03970397 0.03739893 0.03520839 0.03312112 0.03112924 0.0292203 0.02737027 0.02554942 0.02372768 0.02186836
 0.0199595 0.01797991 0.01594344 0.0138505 0.01171493 0.009540149 0.007335006 0.005094145 0.002876092 0.0006814428
 -0.001379858 -0.003300137 -0.00503866 -0.006598771 -0.008044248 -0.009381368 -0.01068615 -0.01195452 -0.01321195 -0.01444799
 -0.01564804 -0.01680564 -0.01790343 -0.01893649 -0.01989531 -0.02076695 -0.02154005 -0.02219668 -0.02272342 -0.02310872
 -0.02334398 -0.02342786 -0.02335812 -0.02313731 -0.02276592 -0.02224375 -0.02157135 -0.02074164 -0.01975406 -0.01860588
 -0.01729961 -0.01587788 -0.01435436 -0.01284647 -0.0113693 -0.01005206 -0.008889828 -0.007938854 -0.007179149 -0.006602462
 -0.006185698 -0.005902083 -0.005718523 -0.005604651 -0.005514397 -0.005413346 -0.00526778 -0.005047636 -0.004771921 -0.00443193
 -0.004091892 -0.003764094 -0.003481789 -0.00325421 -0.003053369 -0.002878568 -0.002683543 -0.0024668 -0.00220392 -0.001896886
 -0.001549635 -0.001163934 -0.0007513506 -0.0003074217 0.0001717108 0.0006965965 0.001288597 0.001955323 0.00271724 0.003571919
 0.004522021 0.005570845 0.006713512 0.007980356 0.009378337 0.01094915 0.01270908 0.01466891 0.01683743 0.01918717
 0.02171567 0.0244033 0.0272478 0.03026407 0.03345177 0.03680795 0.04032042 0.04389711 0.04751518 0.05102602
 0.05441706 0.0575797 0.06050684 0.06314486 0.06546509 0.06741692 0.06895399 0.07001571 0.07057623 0.07059391
 0.0700889 0.06905042 0.06753948 0.06556298 0.06320854 0.0604875 0.05750087 0.05425793 0.05086767 0.0473371
 0.04378216 0.04020851 0.03671293 0.03329504 0.02999596 0.02680987 0.02373106 0.02075898 0.01788636 0.01512236
 0.01248184 0.009971309 0.007609495 0.005388258 0.003310444 0.0013554 -0.0004863331 -0.002240059 -0.003917442 -0.005541227
 -0.007121047 -0.008667286 -0.01018523 -0.01166818 -0.01311656 -0.014518 -0.01587165 -0.0171694 -0.01841056 -0.01958191
 -0.0206805 -0.02167544 -0.0225632 -0.02330834 -0.02391513 -0.02437331 -0.02469883 -0.0249149 -0.02504357 -0.02512304
 -0.02517318 -0.02522591 -0.02529353 -0.02539358 -0.02552987 -0.02570822 -0.02592875 -0.02619247 -0.02649938 -0.02685008
 -0.0272414 -0.02767343 -0.02813919 -0.02863808 -0.02916639 -0.02972411 -0.03031513 -0.03093963 -0.03160209 -0.03230033
 -0.03302838 -0.0337801 -0.03453582 -0.03528682 -0.03600681 -0.0366884 -0.03730991 -0.03786851 -0.03835313 -0.03876561
 -0.03910293 -0.03937115 -0.03957039 -0.03971315 -0.03980142 -0.03985319 -0.03987168 -0.03987392 -0.03986264 -0.03984778
 -0.03983046 -0.03981398 -0.03979851 -0.0397849 -0.03977342 -0.03976665 -0.03976573 -0.0397774 -0.03980323 -0.03985167
 -0.03992313 -0.04002261 -0.04014954 -0.04030488 -0.04048875 -0.04070148 -0.04094346 -0.04121565 -0.04151621 -0.04184527
 -0.04219848 -0.04257499 -0.04296929 -0.04338074 -0.04380166 -0.04423149 -0.04465975 -0.0450857 -0.04549905 -0.04589928
 -0.04628004 -0.04664132 -0.0469808 -0.04729874 -0.0475952 -0.04787021 -0.04812411 -0.04835628 -0.04856608 -0.0487516
 -0.04891041 -0.04903917 -0.04913395 -0.04919142 -0.04920767 -0.04918234 -0.04911332 -0.0490049 -0.0488576 -0.04867697
 -0.04846448 -0.04822255 -0.04795166 -0.04765307 -0.0473265 -0.04697988 -0.04661377 -0.04624615 -0.0458787 -0.04553489
 -0.04521649 -0.04494504 -0.04472141 -0.04456041 -0.04446059 -0.04442715 -0.04445517 -0.04454075 -0.04467637 -0.04485332
 -0.04506464 -0.04530254 -0.04556371 -0.04584431 -0.04614428 -0.0464629 -0.04680039 -0.04715683 -0.0475316 -0.04792469
 -0.0483352 -0.04876319 -0.04920598 -0.0496634 -0.05012799 -0.05059906 -0.05106606 -0.05152863 -0.05197906 -0.05241792
 -0.05284302 -0.05325504 -0.05365458 -0.05404175 -0.05441708 -0.05478036 -0.05513159 -0.05547049 -0.05579684 -0.05611046
 -0.05641104 -0.05669903 -0.05697427 -0.05723827 -0.05749107 -0.05773539 -0.05797136 -0.05820313 -0.05843106 -0.05865867
 -0.05888615 -0.0591129 -0.05933843 -0.05955685 -0.05976733 -0.05996222 -0.06014103 -0.06029793 -0.06043299 -0.06054338
 -0.06062983 -0.06069197 -0.06073124 -0.06074923 -0.06074653 -0.06072475 -0.06068176 -0.06061776 -0.06052753 -0.06040996
 -0.06025836 -0.06007134 -0.05984247 -0.05957061 -0.05925123 -0.0588836 -0.05846743 -0.05800268 -0.05749502 -0.05694521
 -0.05636409 -0.05575284 -0.05512392 -0.05447784 -0.05382352 -0.05315966 -0.05248844 -0.05180642 -0.05110958 -0.05039371
 -0.04965257 -0.04888349 -0.04808183 -0.04724855 -0.04638188 -0.04548715 -0.04456483 -0.04362383 -0.04266566 -0.04170048
 -0.04072984 -0.03976242 -0.03879917 -0.03784589 -0.03690295 -0.03597458 -0.03506087 -0.03416437 -0.03328435 -0.03241869
 -0.03156488 -0.03071362 -0.02986108 -0.02899368 -0.02810871 -0.02719529 -0.02625355 -0.02527909 -0.02427424 -0.02323949
 -0.02217679 -0.02108763 -0.01997205 -0.0188305 -0.0176621 -0.01646551 -0.0152464 -0.0140032 -0.01275755 -0.01150982
 -0.01029816 -0.009124714 -0.008027939 -0.007008457 -0.006082737 -0.005247856 -0.004493947 -0.00381805 -0.003202927 -0.002650153
 -0.002154324 -0.001719651 -0.001352018 -0.001051246 -0.0008215958 -0.0006553677 -0.000549417 -0.0004921491 -0.0004773163 -0.0004937641
 -0.0005370117 -0.0005957467 -0.0006673079 -0.0007392179 -0.0008092191 -0.0008677766 -0.0009132306 -0.0009456237 -0.0009647908 -0.0009785915
 -0.0009873768 -0.000997923 -0.001009738 -0.001022734 -0.001036536 -0.001048923 -0.001061587 -0.00107689 -0.001098333 -0.001132412
 -0.001183191 -0.001257584 -0.001359506 -0.00149411 -0.001664564 -0.001873914 -0.00212408 -0.002416366 -0.002752125 -0.003132359
 -0.003555686 -0.004023121 -0.004525484 -0.005062748 -0.005617701 -0.00618935 -0.006760734 -0.007331302 -0.007891132 -0.008440275
 -0.008974275 -0.009493019 -0.009993815 -0.01047609 -0.01093761 -0.01137654 -0.01178951 -0.01217276 -0.01252033 -0.01282986
 -0.01309591 -0.01332253 -0.01350826 -0.01366545 -0.01379643 -0.0139195 -0.01403838 -0.0141736 -0.01432888 -0.01452048
 -0.01475101 -0.01502569 -0.01534519 -0.01570374 -0.01610085 -0.0165278 -0.01698413 -0.01746303 -0.01796333 -0.01847748
 -0.0190029 -0.01952923 -0.0200543 -0.0205689 -0.02107362 -0.02156541 -0.02204574 -0.02251507 -0.02297396 -0.02342181
 -0.02386269 -0.02429478 -0.02473528 -0.02518537 -0.02567412 -0.0262059 -0.02680777 -0.02748374 -0.02824567 -0.02909492
 -0.03002577 -0.0310372 -0.03210931 -0.03323909 -0.03439642 -0.03557732 -0.03674981 -0.03791069 -0.03903516 -0.04012214
 -0.04115768 -0.04214376 -0.04307618 -0.04396084 -0.04480093 -0.04560298 -0.04637285 -0.04711083 -0.04781972 -0.04849302
 -0.04912943 -0.049724 -0.05027466 -0.05078509 -0.05125487 -0.05169392 -0.0521028 -0.05249128 -0.05285982 -0.05321644
 -0.05356139 -0.0539009 -0.05423426 -0.05456277 -0.05488345 -0.0551895 -0.05547706 -0.05573528 -0.0559631 -0.05615376
 -0.05631035 -0.05643324 -0.05652555 -0.05659036 -0.05662578 -0.05663276 -0.05660512 -0.05654123 -0.05643677 -0.05628955
 -0.05610449 -0.05588064 -0.05563539 -0.05536947 -0.05510877 -0.05485459 -0.05463001 -0.05443521 -0.05428223 -0.05417026
 -0.05410229 -0.05407753 -0.05409604 -0.05415574 -0.05425428 -0.05438564 -0.05454263 -0.05471553 -0.05489363 -0.05506812
 -0.05523006 -0.05537587 -0.05550159 -0.05560772 -0.05569424 -0.05575942 -0.05580375 -0.05582044 -0.05580882 -0.05576244
 -0.05568057 -0.05556517 -0.05541667 -0.05524612 -0.05505498 -0.05485927 -0.05466153 -0.05448069 -0.05432057 -0.05420155
 -0.05412677 -0.05411308 -0.05415863 -0.05427004 -0.05443807 -0.05465863 -0.05491687 -0.05520385 -0.05550324 -0.05580719
 -0.05609987 -0.05637627 -0.05662047 -0.0568287 -0.05698953 -0.05710034 -0.05716138 -0.05717209 -0.05714343 -0.05707593
 -0.0569797 -0.05685458 -0.05670308 -0.0565251 -0.05632075 -0.0560917 -0.05584244 -0.05557576 -0.0552993 -0.05501498
 -0.05472887 -0.05444111 -0.05415449 -0.05386691 -0.05357853 -0.05328501 -0.05298482 -0.05267319 -0.05234762 -0.05200858
 -0.05165406 -0.05129583 -0.05093388 -0.05058973 -0.05026496 -0.04997684 -0.04972586 -0.04951087 -0.04932999 -0.04916557
 -0.04901563 -0.04886126 -0.04870242 -0.04852932 -0.04834256 -0.04813933 -0.04791862 -0.04767829 -0.0474162 -0.0471291
 -0.04681672 -0.04647666 -0.04611363 -0.0457282 -0.04532818 -0.04491625 -0.04449712 -0.04407283 -0.04364201 -0.04320469
 -0.04275952 -0.04230602 -0.04185078 -0.04139427 -0.04094949 -0.04051685 -0.04010567 -0.0397151 -0.03934561 -0.03899677
 -0.03866698 -0.03835736 -0.03807019 -0.03780459 -0.03756258 -0.03733637 -0.03711994 -0.03690368 -0.03667717 -0.03644139
 -0.03619144 -0.03594094 -0.03569274 -0.0354596 -0.03524579 -0.03505269 -0.03488176 -0.03472611 -0.03458545 -0.03445134
 -0.03432331 -0.03419297 -0.0340599 -0.03391659 -0.03376308 -0.03359519 -0.03341402 -0.03322028 -0.03301652 -0.0328081
 -0.03259806 -0.03239368 -0.03219528 -0.03200729 -0.03182459 -0.03164633 -0.03146325 -0.03127141 -0.03106162 -0.03082948
 -0.03057197 -0.03028602 -0.02998063 -0.02965544 -0.02932885 -0.02900242 -0.02868979 -0.02839158 -0.02810553 -0.02783049
 -0.02755291 -0.02727207 -0.02697669 -0.02666783 -0.02634271 -0.02600345 -0.02565301 -0.02529382 -0.02493046 -0.02456545
 -0.02420281 -0.02384496 -0.02349493 -0.02315388 -0.02282339 -0.02250281 -0.02219225 -0.02189096 -0.02159849 -0.02131629
 -0.02104463 -0.02078378 -0.02053412 -0.02029019 -0.02005169 -0.01980983 -0.01956452 -0.01931174 -0.01905245 -0.01878966
 -0.01852454 -0.01826267 -0.01800439 -0.01775376 -0.01750907 -0.01727013 -0.01703331 -0.0167944 -0.01655157 -0.01630111
 -0.01604593 -0.01578616 -0.01552593 -0.01526728 -0.01501023 -0.01475527 -0.01450107 -0.01424713 -0.01399562 -0.0137466
 -0.01350372 -0.01326717 -0.01303666 -0.01281169 -0.01258648 -0.01236 -0.01212353 -0.01187613 -0.0116099 -0.01132456
 -0.0110156 -0.01068305 -0.01032479 -0.009941734 -0.009533159 -0.009102887 -0.00865252 -0.008188532 -0.007713703 -0.007235993
 -0.006756813 -0.006290191 -0.005837576 -0.005421003 -0.005044433 -0.004720517 -0.004452465 -0.004223293 -0.004032214 -0.003841655
 -0.003650104 -0.003428103 -0.003177077 -0.002889461 -0.002569231 -0.002225157 -0.001862746 -0.001498581 -0.001137718 -0.0007957249
 -0.0004749959 -0.0001838365 7.628933E-05 0.000302613 0.0004914716 0.000639833 0.0007468801 0.000809279 0.0008377893 0.0008319388
 0.0008140883 0.0007866902 0.0007734288 0.0007770206 0.0008108617 0.0008758916 0.0009704782 0.001093986 0.001236633 0.001398462
 0.001574641 0.001766418 0.001976328 0.002204239 0.002451598 0.002716528 0.002997033 0.003290247 0.003593043 0.003900534
 0.004207123 0.004512076 0.004809471 0.00511524 0.005431085 0.005782857 0.006181547 0.006621123 0.007107307 0.007591047
 0.008067014 0.008512684 0.008926189 0.009326875 0.009715351 0.01010522 0.01049359 0.01086949 0.01122793 0.011545
 0.01181674 0.0120216 0.012158 0.01221224 0.01218824 0.01208333 0.0119076 0.01166672 0.01137375 0.01103486
 0.01066814 0.01027854 0.009891929 0.009514105 0.009171231 0.00886871 0.008621801 0.00843356 0.008301529 0.00822597
 0.008186053 0.008179858 0.008174649 0.00816829 0.008129944 0.008060162 0.007942118 0.007782867 0.00758718 0.007372442
 0.007168767 0.006994765 0.006893461 0.006848489 0.006876786 0.006906516 0.006905731 0.006805856 0.006560478 0.006184007
 0.005657319 0.005078662 0.004456461 0.003905269 0.003439462 0.003121053 0.002955702 0.002927691 0.003033747 0.003213875
 0.003464888 0.003735439 0.004027471 0.004320832 0.00462005 0.004926532 0.005243786 0.005579626 0.005933277 0.006308729
 0.006698905 0.007100565 0.007503397 0.007900267 0.00828547 0.008653996 0.009008165 0.009347047 0.009676704 0.009998271
 0.01031481 0.01062728 0.01093163 0.0112278 0.01150627 0.01176665 0.01200154 0.01221151 0.01239694 0.01255899
 0.01270246 0.0128282 0.01294041 0.01304051 0.01313279 0.01321873 0.01330228 0.013383 0.01346168 0.01353798
 0.01361103 0.01368376 0.01375745 0.01383316 0.01391289 0.01398933 0.0140622 0.01412044 0.01416264 0.01418246
 0.01417929 0.01415248 0.01410229 0.01403417 0.01394967 0.01386271 0.01377523 0.01370386 0.01364702 0.01361113
 0.01358838 0.01356868 0.01354204 0.0134902 0.01341088 0.0132927 0.01314657 0.01297475 0.01279078 0.01260322
 0.01241066 0.01221688 0.01200545 0.01177383 0.01150999 0.01121136 0.01088015 0.01051615 0.01012846 0.009717653
 0.009293851 0.008858119 0.008423133 0.007990158 0.007571963 0.007168025 0.006784082 0.006417532 0.006065203 0.005727442
 0.005400002 0.005093978 0.004815232 0.004581413 0.004408209 0.004296015 0.004255707 0.004254967 0.004290384 0.004317598
 0.00432649 0.00429499 0.004217232 0.004102483 0.003950387 0.00378995 0.003621627</values></Ydata></AB><ScSm><Ydata ylabel="Single channel"><values byteorder="INTEL" format="FLOAT32" numvalues="1814"> 0.08654048 0.08665299 0.08678254 0.08693701 0.08710878 0.08727954 0.08743254 0.0875635 0.08767878 0.0877835
 0.08788046 0.08798225 0.0881099 0.08827148 0.08844963 0.08861311 0.088739 0.08883215 0.08892774 0.08905916
 0.08921281 0.08932644 0.08934639 0.0892857 0.08921824 0.08921326 0.08928863 0.08944421 0.08970444 0.09005474
 0.09034964 0.09040536 0.09022926 0.09005274 0.09007649 0.09027059 0.09046842 0.0905527 0.09050071 0.09036782
 0.09031282 0.0905496 0.09115279 0.09189714 0.09232674 0.09201825 0.09086292 0.08922117 0.08783833 0.08745503
 0.08827209 0.0897267 0.09091392 0.09131613 0.09108394 0.09065101 0.09028217 0.09006449 0.09010665 0.09052192
 0.09124255 0.09194356 0.09216827 0.09162858 0.09053084 0.08953975 0.08923624 0.08966653 0.09054373 0.09159581
 0.09231357 0.09169327 0.0891227 0.08573042 0.0840374 0.08562981 0.08949979 0.09309283 0.09463327 0.09406735
 0.09232946 0.09051676 0.08959551 0.09006853 0.09164816 0.09354258 0.09508516 0.09591042 0.09578463 0.09471616
 0.09317952 0.09191498 0.0915132 0.09224221 0.09394211 0.09586245 0.09696035 0.09672036 0.09554178 0.0942221
 0.0933689 0.09337053 0.09442896 0.09632004 0.09841254 0.1001339 0.101268 0.1018317 0.1019351 0.1017589
 0.1014647 0.1011716 0.1010767 0.1013561 0.1018192 0.1019469 0.1014687 0.1007292 0.1003402 0.1005479
 0.1010212 0.1012526 0.1010628 0.1005058 0.09934875 0.09718356 0.09426069 0.09162605 0.09010123 0.08970419
 0.09030641 0.09198304 0.09421743 0.09565597 0.09546662 0.09446303 0.09422748 0.09540017 0.09727515 0.09882783
 0.09971014 0.1003059 0.1011293 0.1022448 0.1031212 0.1030253 0.1017722 0.1001924 0.09958132 0.1004468
 0.1020134 0.1031727 0.1036461 0.1039517 0.1044869 0.1049508 0.1046087 0.1030816 0.1010021 0.09978988
 0.1004816 0.1027051 0.1048768 0.1054007 0.1038028 0.1009826 0.09845991 0.09728463 0.0976266 0.09921005
 0.1016949 0.1045195 0.1068081 0.1078116 0.1074247 0.1061664 0.1046163 0.1028783 0.100778 0.09869012
 0.09776552 0.09885958 0.1014336 0.1039797 0.1054136 0.1056798 0.1051432 0.1038603 0.1016681 0.09892295
 0.09683472 0.09657778 0.09795874 0.09945402 0.09982651 0.09928402 0.09879856 0.0987772 0.0988345 0.09859373
 0.09824762 0.09827793 0.09883788 0.09955635 0.09993123 0.09979432 0.09935164 0.09888833 0.09849897 0.09803584
 0.09733841 0.09658872 0.09630311 0.09678861 0.09772885 0.09850156 0.09879443 0.0987321 0.09850052 0.0980413
 0.0971594 0.09590238 0.09475474 0.094299 0.09464826 0.09535518 0.09589064 0.09604332 0.09587297 0.09551004
 0.0950671 0.09460928 0.09416698 0.09380992 0.09363899 0.09365129 0.09369765 0.09362883 0.09341642 0.09310438
 0.0927171 0.09225705 0.09175931 0.09130963 0.09099256 0.09082233 0.09074162 0.09068127 0.09058945 0.09041725
 0.09013538 0.08977368 0.08940151 0.08906388 0.08876644 0.08851263 0.08831785 0.08818024 0.08806184 0.08791465
 0.08772062 0.08749501 0.08725457 0.0870005 0.08673546 0.08647912 0.08625896 0.08609023 0.08596172 0.08584192
 0.0857133 0.08559468 0.08550499 0.08541519 0.08527266 0.08506846 0.08484817 0.08465979 0.08451666 0.08440439
 0.08429897 0.08417445 0.08400799 0.08379516 0.08356949 0.08339362 0.08331126 0.08331367 0.08336218 0.08342282
 0.08346666 0.08346867 0.08342882 0.08337317 0.08331927 0.08325929 0.08318302 0.08310157 0.08304489 0.08304054
 0.0830878 0.08315259 0.08319601 0.08320378 0.08318436 0.0831586 0.0831567 0.08319602 0.08325084 0.08327289
 0.08325212 0.08323109 0.08325086 0.08330406 0.08335051 0.08336454 0.08335849 0.08336421 0.08339851 0.08345087
 0.08350244 0.08354853 0.08359963 0.08366389 0.0837288 0.08376432 0.08375335 0.08371645 0.0836926 0.0836987
 0.08372377 0.08375826 0.08380738 0.08387308 0.08394013 0.08398771 0.08400942 0.08401793 0.08402885 0.08404138
 0.08404019 0.08401635 0.08397891 0.08394323 0.0839151 0.08388844 0.08385363 0.08380558 0.08374618 0.0836802
 0.08360903 0.08352963 0.08343793 0.08333387 0.08322732 0.08313632 0.08306986 0.08301087 0.0829262 0.08279848
 0.08264323 0.08249287 0.08236831 0.08226657 0.08217145 0.08207227 0.08197275 0.08188467 0.08181669 0.08176915
 0.08173688 0.08171479 0.08170465 0.08171746 0.08176608 0.08185038 0.08195169 0.08204731 0.08213103 0.08221544
 0.0823146 0.08242963 0.08255289 0.08268026 0.08281542 0.08296427 0.08312622 0.08329106 0.08344708 0.08359347
 0.08374202 0.08390538 0.08408847 0.08429008 0.0845039 0.08471677 0.08491632 0.08510554 0.08530173 0.08551714
 0.08574735 0.08598259 0.08622273 0.08647463 0.08674072 0.08701776 0.08730547 0.08760954 0.08793468 0.08827704
 0.08862559 0.08897065 0.08931218 0.08966054 0.090028 0.09041832 0.09082408 0.09123287 0.09163726 0.09203984
 0.09244874 0.09286755 0.09329183 0.09371798 0.09415175 0.0946023 0.09506945 0.09554321 0.09601551 0.09648699
 0.09696115 0.09743761 0.09791359 0.09838913 0.09886867 0.0993569 0.0998525 0.1003454 0.1008233 0.1012823
 0.1017311 0.1021839 0.1026508 0.1031303 0.1036078 0.1040651 0.1044974 0.1049202 0.1053522 0.1057934
 0.1062278 0.1066461 0.1070586 0.1074794 0.1079062 0.1083216 0.1087137 0.1090896 0.1094647 0.1098428
 0.1102109 0.1105554 0.1108786 0.1111951 0.1115146 0.1118349 0.1121537 0.1124788 0.1128175 0.1131607
 0.113488 0.1137903 0.1140772 0.1143616 0.1146463 0.1149268 0.115199 0.1154638 0.1157266 0.1159926
 0.1162603 0.1165263 0.1167975 0.117089 0.1174067 0.1177434 0.1180954 0.1184711 0.1188748 0.1192912
 0.1197 0.1201016 0.1205156 0.1209496 0.1213816 0.121782 0.1221443 0.1224851 0.1228219 0.1231645
 0.1235259 0.1239205 0.1243505 0.1247993 0.1252407 0.1256531 0.1260312 0.1263893 0.1267478 0.1271093
 0.1274532 0.1277587 0.1280265 0.1282774 0.128532 0.1287948 0.1290502 0.1292727 0.1294427 0.1295493
 0.1295805 0.1295197 0.1293588 0.1291089 0.1287878 0.1283955 0.1279118 0.1273163 0.1266024 0.1257713
 0.1248219 0.1237571 0.1226039 0.1214266 0.1203208 0.1193919 0.1187294 0.1183925 0.1184058 0.1187539
 0.1193683 0.1201215 0.1208464 0.1213777 0.1215952 0.1214474 0.1209495 0.1201618 0.1191648 0.1180409
 0.1168625 0.1156841 0.1145407 0.1134625 0.1125012 0.1117448 0.1113085 0.1113209 0.1119284 0.1132794
 0.1154383 0.1182677 0.1214145 0.124458 0.12711 0.1292989 0.131104 0.1326445 0.134016 0.1352783
 0.13646 0.1375663 0.13859 0.1395198 0.1403423 0.141043 0.1416091 0.1420316 0.1423094 0.1424584
 0.1425182 0.1425477 0.1426108 0.1427562 0.1429902 0.1432596 0.1434646 0.1435038 0.1433152 0.1428896
 0.1422648 0.1415382 0.1409192 0.140768 0.1415088 0.1433904 0.1462666 0.1496279 0.1528879 0.1556699
 0.1578788 0.1595936 0.1609425 0.162041 0.1629764 0.1638071 0.1645698 0.1652856 0.1659651 0.1666139
 0.1672378 0.1678445 0.1684427 0.169039 0.1696335 0.1702204 0.1707937 0.1713539 0.1719075 0.1724623
 0.1730219 0.1735807 0.1741302 0.1746688 0.1752026 0.1757344 0.176259 0.1767702 0.1772682 0.177758
 0.1782461 0.1787375 0.1792303 0.1797142 0.180178 0.1806206 0.1810503 0.1814753 0.1818974 0.182314
 0.1827223 0.1831217 0.1835146 0.1839049 0.1842964 0.184689 0.185078 0.1854578 0.1858279 0.1861934
 0.1865616 0.1869358 0.1873132 0.1876881 0.1880592 0.1884332 0.1888203 0.1892247 0.1896402 0.190054
 0.1904551 0.1908409 0.1912183 0.1915977 0.1919854 0.1923799 0.1927752 0.1931662 0.1935524 0.1939363
 0.1943197 0.1947005 0.1950756 0.1954447 0.19581 0.1961724 0.196532 0.1968904 0.1972502 0.197612
 0.197975 0.198338 0.1986985 0.1990529 0.1993994 0.1997397 0.2000758 0.2004085 0.2007395 0.201071
 0.2014057 0.2017455 0.2020911 0.2024412 0.2027933 0.2031441 0.2034907 0.2038316 0.2041696 0.2045096
 0.2048536 0.2051993 0.2055421 0.2058793 0.2062116 0.2065433 0.2068789 0.2072188 0.2075605 0.2079008
 0.2082376 0.2085729 0.2089124 0.2092603 0.2096139 0.2099662 0.2103114 0.2106479 0.2109776 0.2113057
 0.2116364 0.2119692 0.2123018 0.212635 0.2129723 0.2133154 0.2136631 0.2140111 0.2143547 0.214693
 0.2150297 0.2153659 0.2157003 0.2160345 0.2163723 0.216713 0.2170528 0.2173898 0.2177263 0.2180652
 0.2184074 0.2187497 0.2190852 0.219411 0.2197324 0.2200571 0.2203896 0.2207297 0.2210733 0.2214147
 0.2217529 0.222092 0.2224331 0.2227721 0.2231075 0.2234419 0.223779 0.2241222 0.2244739 0.2248307
 0.2251849 0.2255326 0.2258743 0.22621 0.2265386 0.2268608 0.2271786 0.2274951 0.2278158 0.2281429
 0.2284736 0.2288062 0.2291421 0.2294779 0.229808 0.2301342 0.2304645 0.2308019 0.2311434 0.2314868
 0.2318299 0.2321715 0.2325129 0.2328564 0.2332029 0.2335546 0.2339138 0.2342767 0.2346381 0.2349986
 0.2353595 0.2357185 0.2360757 0.2364343 0.2367938 0.2371511 0.2375074 0.2378644 0.2382193 0.2385715
 0.2389242 0.2392761 0.2396246 0.2399734 0.240326 0.2406807 0.2410381 0.2414012 0.2417651 0.2421226
 0.2424751 0.2428267 0.2431772 0.2435291 0.2438862 0.2442434 0.2445944 0.2449439 0.2452993 0.2456592
 0.2460222 0.246387 0.2467452 0.2470912 0.2474321 0.2477746 0.2481163 0.2484563 0.2487934 0.2491137
 0.2493926 0.2495787 0.2495245 0.2489105 0.2472014 0.2436559 0.2374675 0.2280783 0.2155082 0.2004603
 0.1841332 0.1678482 0.1526854 0.1393298 0.1281473 0.1193244 0.1129702 0.1092105 0.1082585 0.1105092
 0.1166685 0.1273347 0.1414602 0.155021 0.1625191 0.1611397 0.1532997 0.1444589 0.1386792 0.1366287
 0.1369464 0.1382769 0.1400765 0.1424661 0.1457676 0.1500254 0.1549568 0.1604152 0.1666598 0.1739558
 0.1820554 0.1902861 0.1981108 0.2054709 0.2125944 0.2195833 0.2262517 0.232303 0.2375614 0.2420308
 0.2458296 0.2491178 0.2520371 0.2546822 0.2571154 0.2593726 0.2614193 0.2631295 0.26436 0.2650654
 0.2653529 0.2654321 0.2654984 0.2656481 0.2658911 0.266216 0.2666188 0.2670934 0.2676315 0.2682248
 0.2688555 0.2694979 0.270135 0.2707604 0.2713661 0.2719451 0.2724963 0.2730194 0.2735137 0.273985
 0.2744414 0.2748863 0.2753219 0.2757513 0.2761739 0.2765883 0.2769977 0.2774018 0.2777908 0.2781566
 0.278502 0.2788332 0.2791544 0.27947 0.2797815 0.2800839 0.2803755 0.2806639 0.2809576 0.2812578
 0.281561 0.2818624 0.2821593 0.2824545 0.2827528 0.2830501 0.2833372 0.2836148 0.283893 0.2841793
 0.2844726 0.2847669 0.2850556 0.2853374 0.2856188 0.285907 0.2862053 0.2865157 0.2868388 0.2871684
 0.2874969 0.2878257 0.2881603 0.2884987 0.2888353 0.2891698 0.2895044 0.2898401 0.290179 0.2905205
 0.2908555 0.2911704 0.2914615 0.2917376 0.2920146 0.2923055 0.2926127 0.292927 0.2932386 0.2935455
 0.2938507 0.2941581 0.2944718 0.2947916 0.2951137 0.2954404 0.2957832 0.2961467 0.2965209 0.2968932
 0.2972606 0.2976274 0.2979989 0.2983804 0.2987707 0.2991585 0.2995327 0.2998952 0.3002633 0.300657
 0.3010811 0.3015158 0.3019356 0.302336 0.3027342 0.3031472 0.3035796 0.3040178 0.3044275 0.3047763
 0.3050803 0.3054108 0.3058306 0.3063327 0.3068557 0.3073457 0.3077922 0.3082147 0.3086317 0.3090427
 0.3094315 0.3097833 0.310107 0.3104455 0.3108509 0.3113316 0.3118397 0.3123209 0.3127595 0.3131663
 0.3135528 0.3139291 0.3142872 0.3145812 0.3147749 0.3149326 0.3152057 0.3156891 0.3163159 0.3169262
 0.3174254 0.3178394 0.3182324 0.318626 0.3190098 0.3193536 0.319569 0.3195539 0.3193725 0.31932
 0.3196805 0.3204399 0.3213201 0.3220657 0.3226151 0.3230354 0.3234037 0.3237559 0.3240676 0.324255
 0.3242622 0.324191 0.3242881 0.3247212 0.3253905 0.326037 0.3265149 0.3268747 0.3272189 0.3275859
 0.327931 0.3281066 0.3279248 0.327413 0.3269887 0.3271906 0.3281584 0.3294729 0.3305742 0.331261
 0.331697 0.332022 0.3321437 0.3319105 0.3313025 0.3304374 0.3296173 0.3293759 0.3301316 0.3316504
 0.333139 0.3340384 0.3345063 0.3350176 0.3357472 0.3364929 0.337003 0.3372025 0.3371564 0.3369216
 0.3365165 0.336087 0.3360084 0.3366204 0.3378323 0.3391437 0.3401154 0.3407149 0.341117 0.3411967
 0.340397 0.338388 0.3359375 0.3347223 0.3358392 0.3386485 0.3414656 0.3432289 0.3440829 0.3445874
 0.3449885 0.3451497 0.3445446 0.3424311 0.3388606 0.3355579 0.3348769 0.3374835 0.3416105 0.3447683
 0.3456465 0.3443853 0.3419455 0.3396632 0.3387756 0.3397467 0.3420711 0.34479 0.3470699 0.3484271
 0.3487554 0.348279 0.3474611 0.3468796 0.3468661 0.3470125 0.3464214 0.3448696 0.3432323 0.3421322
 0.3407954 0.3383195 0.3356909 0.3351731 0.3375056 0.3408334 0.3428547 0.3431742 0.3428951 0.3424004
 0.3404391 0.3357788 0.3294911 0.3249279 0.3248499 0.3286708 0.3330386 0.3351277 0.3348725 0.334015
 0.3336468 0.3330498 0.3307642 0.3266456 0.3226601 0.3211234 0.3221114 0.3233552 0.3227592 0.3198947
 0.3149102 0.3079614 0.300895 0.2976241 0.3006734 0.308015 0.3148476 0.3177409 0.3157219 0.3088424
 0.298477 0.2887525 0.2847029 0.2876408 0.2936305 0.2972925 0.296052 0.2902723 0.2810427 0.2696396
 0.258609 0.2514884 0.2505505 0.2549837 0.2611134 0.2640755 0.2603071 0.2503421 0.2394349 0.2336191
 0.2341141 0.2365744 0.2362359 0.232393 0.2274425 0.2235474 0.2214056 0.2207245 0.2205844 0.2201307
 0.2192416 0.2174253 0.2126092 0.203462 0.192996 0.187021 0.188138 0.1935904 0.1996764 0.2054475
 0.2107536 0.2136088 0.2122856 0.2087567 0.2074714 0.2106254 0.2160813 0.2201362 0.2213144 0.2209788
 0.2208335 0.2208228 0.2200039 0.2188533 0.219361 0.2224732 0.2265634 0.2291879 0.2295654 0.2285987
 0.2272151 0.2256052 0.2236786 0.2214306 0.2189043 0.2162045 0.2134938 0.2108115 0.2080452 0.2051447
 0.2020734 0.198391 0.1933207 0.1868623 0.1807098 0.1771564 0.176788 0.1781096 0.1796756 0.1811659
 0.1816849 0.178972 0.1723162 0.1652653 0.1632411 0.1683211 0.1775479 0.186206 0.191504 0.1929761
 0.1909738 0.1865372 0.1827118 0.1840596 0.1931889 0.2080999 0.2239954 0.2373248 0.2471675 0.2535008
 0.2560084 0.2550958 0.2530046 0.2529509 0.2569846 0.2646815 0.273502 0.27992 0.2809367 0.2765941
 0.2717723 0.2732246 0.2827468 0.2946691 0.3020867 0.3041375 0.3049685 0.307211 0.3097076 0.3111698
 0.3127675 0.3160716 0.320371 0.3232217 0.3226154 0.3178188 0.3093483 0.299557 0.2923087 0.2900482
 0.2912977 0.2925309 0.2918924 0.2892815 0.2841071 0.276289 0.2691621 0.2677014 0.272849 0.2801276
 0.2847607 0.2861381 0.2864303 0.2866063 0.2852625 0.2809682 0.274784 0.2698095 0.2681183 0.2687514
 0.269204 0.2680863 0.2654053 0.2610767 0.2548412 0.2477455 0.2422943 0.240322 0.2411798 0.2425373
 0.2427024 0.24177 0.2408355 0.2407709 0.241794 0.2436404 0.245969 0.248925 0.2532172 0.2591629
 0.2658069 0.2716528 0.2762868 0.2806716 0.2857357 0.2911884 0.2959152 0.2992036 0.3013991 0.3035355
 0.3064386 0.3100547 0.3135054 0.3158508 0.3169706 0.3177358 0.3191875 0.3215263 0.3240432 0.3259921
 0.3272745 0.3282768 0.3293646 0.3306229 0.3318374 0.332671 0.3331005 0.3337029 0.3352351 0.3378426
 0.3408667 0.3434733 0.3453016 0.3464721 0.3471808 0.3474607 0.3472928 0.346801 0.3462542 0.3458844
 0.3457463 0.3457507 0.3457893 0.3458117 0.3458333 0.3459169 0.3461341 0.3465177 0.347053 0.3477125
 0.3484735 0.3492953 0.3501197 0.350914 0.3516831 0.3524157 0.3530437 0.3534752 0.3536449 0.3535124
 0.3530318 0.3521497 0.3508204 0.3489976 0.3466436 0.3438364 0.3409436 0.3386548 0.3377049 0.3384253
 0.3405084 0.3432043 0.3457696 0.3477955 0.3492345 0.350229 0.3509447 0.3515009 0.3519684 0.3523805
 0.3527474 0.3530781 0.3533931 0.353714 0.3540469 0.3543857 0.3547236 0.3550549 0.3553659 0.3556281
 0.3558047 0.355867 0.3558075 0.3556378 0.3553731 0.3550144 0.3545418 0.3539293 0.3531747 0.352318
 0.3514247 0.3505451 0.3496817 0.3487912 0.347817 0.3467111 0.3454142 0.3438399 0.3419475 0.3398508
 0.3377911 0.3359419 0.3342589 0.3325524 0.3306721 0.328586 0.3263264 0.3239256 0.3214061 0.3187864
 0.3160767 0.3132746 0.3103712 0.3073622 0.3042606 0.301097 0.2979061 0.2947114 0.2915228 0.2883315
 0.2850898 0.2816933 0.2779921 0.2738256 0.269059 0.2636074 0.2574579 0.2507028 0.2435601 0.2363376
 0.2293419 0.2227945 0.2168247 0.2115211 0.206976 0.2032806 0.2004964 0.1986426 0.1977089 0.1976714
 0.1984948 0.2001231 0.2024709 0.2054208 0.2088228 0.2124968 0.2162406 0.2198614 0.2232303 0.2263278
 0.2292283 0.2320194 0.2347287 0.2373261 0.2397784 0.2420754 0.2442068 0.2461409 0.2478444 0.2493175
 0.2505988 0.2517378 0.2527632 0.2536692 0.2544248 0.2550045 0.2554195 0.2557263 0.2560089 0.2563507
 0.2568071 0.2573957 0.2581093 0.25894 0.2598866 0.260944 0.2620964 0.2633224 0.2646022 0.2659171
 0.2672576 0.2686443 0.2701467 0.2718713 0.2739219 0.276356 0.2791657 0.2822759 0.2855485 0.2887998
 0.2918392 0.2945193 0.2967703 0.2985973 0.3000431 0.3011433 0.301914 0.3023709 0.3025482 0.3024945
 0.3022622 0.3019034 0.3014598 0.3009433 0.3003295 0.2995825 0.2986928 0.2976921 0.2966255 0.2955107
 0.2943327 0.2930775 0.2917615 0.2904303 0.2891414 0.2879469 0.2868822 0.285962 0.2851883 0.2845473
 0.2839982 0.2834724 0.2828903 0.2821787 0.2812804 0.2801584 0.2787941 0.2771829 0.2753381 0.2732952
 0.271109 0.2688449 0.26657 0.2643323 0.2621409 0.2599643 0.2577454 0.2554228 0.252967 0.2504138
 0.2478522 0.2453681 0.2430013 0.2407471 0.238581 0.2364814 0.2344427 0.2324686 0.2305603 0.2287184
 0.226945 0.2252357 0.2235794 0.2219814 0.2204758 0.2191089 0.2179153 0.2169018 0.216042 0.2152918
 0.2146141 0.213988 0.2134101 0.2129053 0.2125141 0.2122388 0.2120099 0.211725 0.2113198 0.2108043
 0.2102516 0.2097488 0.2093444 0.2090363 0.2087928 0.2085546 0.2082199 0.2076625 0.2067722 0.2054759
 0.2037476 0.2016228 0.1992003 0.1966254 0.1940698 0.1916984 0.1896271 0.1879116 0.1865599 0.1855268
 0.1847165 0.18404 0.1834815 0.1830993 0.1829666 0.1830858 0.1833238 0.1834693 0.1834201 0.1833012
 0.1833569 0.1837416 0.1844269 0.1852579 0.1860621 0.1867307 0.1872291 0.1875567 0.1877298 0.1877877
 0.1877656 0.1876566 0.1874289 0.1870647 0.1865654 0.1859506 0.1852567 0.1845027 0.1836668 0.1827239
 0.1816778 0.1805373 0.1793022 0.1779728 0.176529 0.1749355 0.1732418 0.1716621 0.1704983 0.169973
 0.170111 0.1707284 0.1715592 0.1724288 0.173273 0.1740075 0.174527 0.1749052 0.1754804 0.1766293
 0.1784389 0.1806058 0.1826454 0.1841989 0.1851481 0.1855123 0.1853523 0.1847561 0.1837811 0.1824099
 0.1806449 0.1785879 0.1763636 0.1740671 0.1718231 0.1697614 0.1679426 0.1663889 0.165108 0.1640939
 0.1634073 0.1627887 0.1607125 0.1549113 0.1455846 0.1374949 0.136382 0.1427801 0.1512875 0.1563769
 0.1571024 0.1557915 0.1543958 0.1533666 0.152659 0.1523434 0.1524511 0.1528552 0.1533178 0.1535817
 0.1535112 0.153092 0.152199 0.1503704 0.146787 0.1405588 0.131392 0.1202147 0.108983 0.0996493
 0.09321487 0.08952987 0.08768095 0.08661397 0.08573216 0.08512214 0.0852426 0.08642979 0.0886936 0.0918429
 0.09562899 0.09972142 0.1036635 0.1070203 0.1096105 0.1115154 0.1128621 0.1136931 0.1140334 0.1139539
 0.1135395 0.1128648 0.1119991 0.110978 0.1097803 0.108382 0.106849 0.105373 0.1041911 0.1034308
 0.1030295 0.1028289 0.1027228 0.1026851 0.1027131 0.1028034 0.102955 0.1031631 0.1034282 0.1037614
 0.1041507 0.10454 0.1048696 0.1051201 0.105302 0.1054184 0.1054399 0.1053278 0.1051078 0.1048848
 0.1047003 0.1043954 0.1037335 0.1026923 0.1015745 0.1008041 0.1006248 0.1009585 0.1015031 0.1019645
 0.1022284 0.102351 0.1024208 0.1024319</values></Ydata></ScSm><ScRf><Ydata ylabel="Single channel"><values byteorder="INTEL" format="FLOAT32" numvalues="1820"> 0.06971946 0.06984706 0.06996215 0.07006577 0.07016152 0.07025556 0.07035688 0.07047293 0.07060364 0.07073899
 0.07086501 0.0709757 0.07107521 0.07116675 0.07124911 0.07132926 0.07142578 0.0715505 0.07169262 0.071826
 0.07193036 0.07200933 0.07209114 0.07220124 0.07232668 0.07241717 0.0724317 0.07238315 0.07233077 0.07232732
 0.07238502 0.07250517 0.07271135 0.07299435 0.07323588 0.07328487 0.07314602 0.07300687 0.07302992 0.07318939
 0.07334822 0.07341085 0.07336093 0.07324725 0.07320246 0.07340175 0.07390406 0.07452209 0.07487952 0.07462765
 0.07367815 0.07233036 0.07119902 0.07089101 0.07156701 0.0727628 0.07373786 0.0740719 0.07389026 0.07354543
 0.07324856 0.07306742 0.0730923 0.07341989 0.07399789 0.07456193 0.07473999 0.07429871 0.07340854 0.07261129
 0.07237655 0.07273682 0.07345645 0.07431521 0.0748987 0.07438805 0.07228713 0.0695231 0.06815472 0.06946954
 0.07263645 0.0755694 0.07682486 0.07636385 0.07494944 0.07347529 0.0727279 0.073116 0.07440516 0.07595174
 0.07721277 0.07788822 0.07778719 0.07692032 0.07567753 0.0746602 0.07434579 0.07495043 0.07634121 0.07790361
 0.07878971 0.07858735 0.07762757 0.07655832 0.07587062 0.07588077 0.07675537 0.07831194 0.08003442 0.08145413
 0.08239208 0.08285932 0.08294626 0.08280341 0.08256544 0.08233047 0.08225989 0.08249614 0.08288129 0.08299105
 0.08260724 0.08201352 0.08170781 0.08188857 0.08228467 0.08248249 0.08233675 0.08189033 0.08095047 0.07918444
 0.07680243 0.07466236 0.07343102 0.07311845 0.0736243 0.07501598 0.07686584 0.07805631 0.07790725 0.07709472
 0.07692023 0.07790509 0.07946531 0.08075762 0.0814961 0.08199905 0.08269338 0.0836322 0.08437426 0.08431301
 0.0832987 0.08202007 0.08154486 0.08228747 0.08360662 0.08459224 0.08501907 0.08531351 0.08579881 0.08622444
 0.08598673 0.08477873 0.0831285 0.08220878 0.08286864 0.08479245 0.0866688 0.08717996 0.08593573 0.08368397
 0.08168712 0.080817 0.0812172 0.08266545 0.08488354 0.08739886 0.08946997 0.0904631 0.09028974 0.08939026
 0.08825354 0.0869604 0.0853581 0.08377184 0.08319083 0.08434232 0.08675687 0.08914362 0.09058173 0.09102896
 0.09079438 0.08991447 0.08823955 0.08608365 0.0845127 0.08455265 0.08602007 0.08757107 0.08813093 0.08789922
 0.08773347 0.08797879 0.08828348 0.08832005 0.08827703 0.088592 0.08939227 0.09033084 0.09095203 0.09110807
 0.09098856 0.09085284 0.09078512 0.09064674 0.09029169 0.08989642 0.08994381 0.09071369 0.0919042 0.09293411
 0.09351514 0.09376612 0.09385809 0.09372687 0.09318314 0.0922817 0.09149981 0.0913967 0.09206865 0.09307671
 0.09391414 0.0943834 0.09454348 0.0945176 0.09441212 0.0942903 0.09418532 0.09416921 0.09434003 0.09468766
 0.09505781 0.09530427 0.09540816 0.09541877 0.09535486 0.0952098 0.09501669 0.0948665 0.09484962 0.09498387
 0.09521243 0.09546255 0.0956762 0.09579898 0.09579878 0.09570664 0.09559774 0.09552369 0.0954923 0.0955055
 0.09557693 0.09570359 0.09584706 0.09595993 0.09602301 0.096047 0.09604558 0.09602273 0.09598564 0.09595537
 0.09595877 0.09601086 0.09609964 0.09619376 0.09627972 0.09638089 0.09651349 0.09663804 0.09669322 0.09667298
 0.0966353 0.0966377 0.09669076 0.09677031 0.09684667 0.09689476 0.09689325 0.09683812 0.09676597 0.09674612
 0.09682918 0.09701014 0.09724875 0.09750207 0.09772755 0.09788997 0.09799048 0.09806666 0.0981476 0.09822741
 0.09829003 0.09834262 0.09841804 0.09854883 0.09873597 0.09894343 0.09912836 0.09927066 0.09937415 0.09946117
 0.09956852 0.09971604 0.09986942 0.0999687 0.1000058 0.1000417 0.1001323 0.1002638 0.1003761 0.1004343
 0.1004616 0.1005071 0.1005938 0.1007035 0.1008076 0.1009013 0.1010053 0.1011332 0.1012614 0.1013375
 0.1013326 0.101278 0.101234 0.1012287 0.1012489 0.1012834 0.1013436 0.1014341 0.1015274 0.1015843
 0.1015939 0.1015822 0.1015811 0.1015929 0.1015917 0.1015572 0.1014979 0.1014413 0.101408 0.1013974
 0.1013923 0.1013733 0.1013332 0.1012782 0.1012178 0.1011546 0.101085 0.1010101 0.1009498 0.1009338
 0.1009648 0.1009915 0.1009414 0.1007903 0.1005882 0.1004107 0.1002922 0.1002101 0.1001199 0.09999532
 0.09984134 0.09968124 0.09953553 0.09941024 0.09929916 0.09919475 0.09910007 0.09903108 0.09899939 0.09898759
 0.0989514 0.09885892 0.09872408 0.0985913 0.09849198 0.09842552 0.09837508 0.09832779 0.09828334 0.0982531
 0.09824753 0.09825888 0.09826426 0.09825151 0.09823389 0.09823646 0.09827782 0.09836291 0.09847596 0.0985792
 0.09863863 0.09865923 0.09868194 0.09874122 0.09883715 0.0989507 0.09907091 0.09919931 0.09933902 0.09949076
 0.09965642 0.09983999 0.100044 0.1002658 0.1004949 0.1007168 0.1009247 0.1011293 0.1013524 0.1016076
 0.1018894 0.1021796 0.1024623 0.1027331 0.1029979 0.1032637 0.1035337 0.1038109 0.104103 0.1044157
 0.1047426 0.1050681 0.1053827 0.1056899 0.1059991 0.1063155 0.1066393 0.1069716 0.1073191 0.1076881
 0.108069 0.1084321 0.1087489 0.1090226 0.1092882 0.1095815 0.1099119 0.1102595 0.1105916 0.1108864
 0.111152 0.1114203 0.1117131 0.11202 0.1123184 0.1126126 0.1129352 0.1133044 0.1136891 0.114029
 0.1142911 0.1145009 0.1147138 0.1149576 0.1152126 0.1154459 0.1156544 0.1158623 0.1160864 0.1163218
 0.1165627 0.1168171 0.1170909 0.1173681 0.1176234 0.1178487 0.1180565 0.118257 0.1184438 0.1185993
 0.118713 0.1187968 0.1188832 0.1190011 0.1191502 0.1193073 0.1194559 0.1196022 0.1197598 0.1199347
 0.1201294 0.1203499 0.1205962 0.1208526 0.1211022 0.1213523 0.121627 0.1219277 0.1222161 0.1224541
 0.1226484 0.1228358 0.123037 0.1232482 0.1234714 0.1237241 0.1240127 0.1243175 0.1246101 0.1248799
 0.1251428 0.1254274 0.1257451 0.1260679 0.1263475 0.1265601 0.1267301 0.1269057 0.1271197 0.1273746
 0.127653 0.1279338 0.1282022 0.1284468 0.1286519 0.1288009 0.1288955 0.1289592 0.1290125 0.129043
 0.1290127 0.1288903 0.1286665 0.1283378 0.1278929 0.1273242 0.1266538 0.1259444 0.125288 0.1247793
 0.1244888 0.1244502 0.1246627 0.125093 0.1256742 0.1263122 0.1269078 0.127376 0.1276496 0.1276796
 0.1274481 0.1269806 0.1263357 0.1255811 0.1247753 0.1239597 0.1231626 0.1224195 0.1218049 0.1214405
 0.1214601 0.1219576 0.1229509 0.1243652 0.1260348 0.1277456 0.1293173 0.1306694 0.1318167 0.1328123
 0.1337029 0.1345212 0.1352926 0.1360306 0.1367329 0.1373927 0.138011 0.1385931 0.1391371 0.1396299
 0.1400531 0.140389 0.1406296 0.1407846 0.140878 0.1409313 0.1409559 0.1409597 0.1409482 0.140909
 0.1408036 0.1405861 0.1402307 0.1397511 0.1392127 0.1387393 0.1385016 0.1386694 0.1393396 0.1404774
 0.1419222 0.1434626 0.144921 0.1461897 0.1472224 0.1480249 0.1486467 0.1491554 0.1496048 0.1500217
 0.1504155 0.1507893 0.1511454 0.1514886 0.1518259 0.1521631 0.1525034 0.1528476 0.1531917 0.1535289
 0.1538556 0.1541779 0.1545077 0.1548528 0.155208 0.1555593 0.1558996 0.1562375 0.1565847 0.156937
 0.1572782 0.1575995 0.1579092 0.1582222 0.1585484 0.1588889 0.1592331 0.1595631 0.1598674 0.1601514
 0.1604291 0.1607082 0.1609885 0.1612695 0.1615533 0.1618394 0.1621234 0.1624023 0.1626797 0.1629604
 0.1632418 0.1635132 0.1637673 0.1640097 0.1642535 0.1645067 0.164767 0.165028 0.1652865 0.1655453
 0.1658095 0.1660802 0.1663515 0.1666144 0.166865 0.1671081 0.1673512 0.1675971 0.1678421 0.168083
 0.1683228 0.1685675 0.1688196 0.1690767 0.1693358 0.169595 0.1698524 0.1701052 0.1703515 0.1705922
 0.1708305 0.1710716 0.1713187 0.1715707 0.1718232 0.1720723 0.172317 0.1725589 0.1727996 0.1730379
 0.1732709 0.1734979 0.1737241 0.1739558 0.1741951 0.1744394 0.1746846 0.1749285 0.1751713 0.1754128
 0.1756508 0.1758845 0.1761172 0.176354 0.1765963 0.1768418 0.1770881 0.1773339 0.1775777 0.1778189
 0.1780568 0.1782914 0.1785233 0.178755 0.1789873 0.1792199 0.1794539 0.1796911 0.1799303 0.1801691
 0.1804068 0.1806436 0.1808779 0.1811081 0.1813351 0.1815615 0.1817904 0.1820228 0.1822573 0.1824917
 0.1827256 0.1829599 0.1831954 0.1834331 0.1836722 0.1839082 0.184138 0.1843653 0.1845977 0.1848384
 0.1850849 0.185332 0.185574 0.1858085 0.1860399 0.1862746 0.1865137 0.1867537 0.1869925 0.1872312
 0.1874715 0.1877141 0.1879571 0.1881989 0.1884411 0.1886874 0.1889381 0.1891906 0.1894435 0.1896966
 0.189948 0.1901979 0.1904501 0.190707 0.1909677 0.1912298 0.1914894 0.1917409 0.1919815 0.1922125
 0.1924354 0.192653 0.1928707 0.1930928 0.1933183 0.193546 0.1937759 0.1940055 0.194233 0.1944626
 0.1946995 0.1949427 0.1951886 0.1954363 0.1956855 0.1959362 0.1961905 0.1964476 0.1967014 0.196949
 0.1971947 0.1974415 0.1976888 0.1979388 0.1981957 0.1984598 0.1987293 0.1990017 0.1992723 0.1995368
 0.1997974 0.2000581 0.2003207 0.2005875 0.2008594 0.2011327 0.2014042 0.2016766 0.2019497 0.2022174
 0.2024786 0.2027397 0.203003 0.2032676 0.2035363 0.2038093 0.2040818 0.2043532 0.2046274 0.204903
 0.2051759 0.2054479 0.2057201 0.2059898 0.2062596 0.206535 0.2068123 0.2070855 0.2073573 0.2076289
 0.2078954 0.2081566 0.2084159 0.2086647 0.2088816 0.2090198 0.2089528 0.2084125 0.2069536 0.2039582
 0.1987488 0.1908521 0.1802814 0.167631 0.1539155 0.1402483 0.1275315 0.1163293 0.1069425 0.09953181
 0.09419821 0.09105089 0.09026456 0.09216538 0.09734388 0.1063 0.1181486 0.1295083 0.1357722 0.1345956
 0.1280197 0.1206217 0.115793 0.1140817 0.1143473 0.11546 0.1169676 0.1189709 0.1217385 0.1253073
 0.1294414 0.1340194 0.1392594 0.1453814 0.1521736 0.15907 0.1656222 0.171785 0.1777522 0.1836101
 0.189203 0.1942821 0.198698 0.2024492 0.2056316 0.2083797 0.2108177 0.2130292 0.2150665 0.216956
 0.2186658 0.2200919 0.2211169 0.2217026 0.2219361 0.2219917 0.2220353 0.222151 0.2223502 0.2226245
 0.2229681 0.2233723 0.223827 0.224324 0.2248488 0.2253828 0.2259159 0.2264443 0.2269599 0.2274544
 0.227926 0.2283746 0.2288003 0.2292059 0.2295939 0.2299639 0.2303213 0.2306773 0.2310359 0.2313924
 0.2317441 0.2320891 0.2324199 0.2327292 0.2330175 0.2332895 0.2335496 0.233804 0.234058 0.2343123
 0.2345658 0.2348176 0.235066 0.2353109 0.2355567 0.2358055 0.2360536 0.2362984 0.2365416 0.2367827
 0.2370197 0.2372544 0.2374905 0.2377282 0.2379671 0.2382096 0.2384566 0.2387038 0.2389455 0.2391798
 0.239412 0.2396541 0.2399132 0.2401823 0.2404492 0.2407119 0.2409761 0.2412433 0.2415108 0.241778
 0.2420463 0.2423171 0.2425918 0.242869 0.2431398 0.2433945 0.2436312 0.2438567 0.2440816 0.2443141
 0.2445558 0.2448003 0.245041 0.2452765 0.2455102 0.2457485 0.245997 0.2462534 0.2465101 0.2467649
 0.2470264 0.2473014 0.2475877 0.24788 0.2481732 0.2484622 0.2487465 0.2490334 0.2493262 0.2496147
 0.2498875 0.2501517 0.250431 0.2507442 0.2510871 0.2514357 0.2517677 0.25208 0.2523851 0.2526967
 0.2530211 0.2533498 0.2536537 0.2539052 0.2541195 0.254357 0.25467 0.2550546 0.255463 0.2558506
 0.2562022 0.2565262 0.2568347 0.2571306 0.2574078 0.2576613 0.2579021 0.2581634 0.2584798 0.2588511
 0.259236 0.2595931 0.2599154 0.2602165 0.2605076 0.2607945 0.2610678 0.2612891 0.2614275 0.2615312
 0.2617209 0.2620799 0.262564 0.263048 0.2634506 0.2637864 0.2641028 0.2644143 0.2647098 0.2649657
 0.2651141 0.2650775 0.2649131 0.2648646 0.2651637 0.2657952 0.2665277 0.2671476 0.2675976 0.2679287
 0.268207 0.26847 0.2687044 0.2688459 0.2688515 0.2688038 0.2688962 0.2692559 0.2697976 0.2703162
 0.2707015 0.2709971 0.2712831 0.271587 0.2718713 0.2720128 0.2718534 0.2714177 0.2710586 0.2712268
 0.2720335 0.2731222 0.2740244 0.2745761 0.2749194 0.2751745 0.275264 0.2750591 0.2745396 0.2738004
 0.2730944 0.2728741 0.2734974 0.2747709 0.2760262 0.2767886 0.2771847 0.2776091 0.2782097 0.278824
 0.2792501 0.2794296 0.2794132 0.2792416 0.2789268 0.2785906 0.2785439 0.2790659 0.2800807 0.2811768
 0.2819934 0.2825043 0.2828535 0.2829363 0.282289 0.280638 0.2786213 0.2776301 0.2785751 0.2809301
 0.2833009 0.2848014 0.2855425 0.2859865 0.2863442 0.2865093 0.2860443 0.2843273 0.281398 0.2786949
 0.2781804 0.2804064 0.2838959 0.2865743 0.2873527 0.286349 0.2843645 0.2825159 0.2818381 0.2827196
 0.2847373 0.2870864 0.2890655 0.2902697 0.2906119 0.2902807 0.2896652 0.289254 0.2893267 0.289538
 0.2891347 0.2879348 0.2866761 0.2858792 0.2848924 0.282957 0.2808995 0.2806203 0.2827424 0.2857094
 0.2875902 0.2880583 0.2880416 0.2878546 0.2864373 0.2827517 0.2777017 0.2741113 0.2743082 0.2777966
 0.2817467 0.2837771 0.2838396 0.2834105 0.2834152 0.2832525 0.2816918 0.2786146 0.2756973 0.2749135
 0.2763205 0.277972 0.278072 0.2762369 0.2725576 0.26715 0.2616391 0.2594624 0.2628371 0.2699993
 0.2767635 0.2801344 0.2792445 0.274106 0.2659199 0.2583789 0.2560083 0.259991 0.266785 0.271551
 0.2719681 0.2683362 0.2616078 0.2529728 0.2448743 0.2406995 0.2426212 0.2498482 0.2587791 0.2645552
 0.2635366 0.2562215 0.2479803 0.2450158 0.2485274 0.253914 0.2561833 0.254651 0.2519004 0.2502659
 0.2505447 0.252434 0.2548712 0.2568715 0.2582836 0.2583962 0.2545492 0.2450791 0.2336959 0.2275098
 0.2297001 0.2369653 0.2449172 0.2524956 0.2594945 0.263396 0.2620515 0.2579281 0.2565229 0.2604926
 0.2671269 0.2718111 0.2727106 0.2715136 0.2703689 0.26933 0.2674201 0.2653898 0.2657506 0.2696443
 0.2750495 0.2789753 0.2804613 0.280572 0.2803851 0.2800865 0.2795302 0.2786852 0.2775928 0.2763828
 0.2752662 0.2743019 0.2733524 0.2723576 0.2712596 0.2693945 0.2655481 0.259533 0.2535332 0.2505957
 0.251435 0.2539896 0.2563917 0.2583167 0.2584968 0.2537102 0.2429852 0.2313589 0.22641 0.2309382
 0.2407367 0.2493144 0.2530255 0.2515243 0.2455719 0.2366783 0.2286379 0.2268708 0.2342466 0.248082
 0.2625564 0.2736402 0.2806254 0.2838597 0.2831925 0.2791269 0.2741187 0.2716062 0.2736499 0.2795765
 0.2864904 0.2906198 0.2889609 0.2817526 0.2741109 0.2729321 0.280056 0.2898254 0.2953329 0.295655
 0.2948327 0.2954587 0.2964607 0.296653 0.2972216 0.2997295 0.3035507 0.3063935 0.306356 0.3027231
 0.295953 0.2882331 0.2831361 0.2827913 0.2855287 0.2877895 0.287777 0.2854954 0.2805163 0.2729395
 0.2661784 0.26513 0.2706095 0.2781102 0.2829389 0.2845844 0.2852568 0.2859112 0.285122 0.2814664
 0.2760502 0.27203 0.2715216 0.2736049 0.2758392 0.2769086 0.2768269 0.2754033 0.2722502 0.2684318
 0.2666185 0.2687086 0.2737909 0.2790297 0.2822727 0.2833637 0.2833167 0.283011 0.2827224 0.2822837
 0.2815138 0.2808223 0.2812426 0.2833332 0.2862142 0.2883722 0.2894099 0.2903703 0.2922642 0.2948313
 0.2969398 0.2978389 0.2978192 0.2978432 0.2986802 0.3002753 0.3018017 0.3023882 0.3019774 0.301493
 0.3020092 0.3037242 0.3058802 0.3076337 0.3087628 0.3095513 0.3103124 0.3111183 0.3117656 0.3119456
 0.3116563 0.3114482 0.3120159 0.3134788 0.3152404 0.3165921 0.3172942 0.3175397 0.3175526 0.3173715
 0.3169629 0.3164018 0.3158791 0.3155563 0.3154537 0.3154791 0.3155302 0.3155525 0.3155402 0.3155262
 0.3155612 0.3156714 0.3158411 0.316043 0.3162611 0.3164712 0.3166374 0.3167525 0.3168497 0.3169469
 0.3170004 0.3169349 0.3166928 0.3162385 0.3155354 0.314548 0.3132533 0.3116265 0.3096374 0.3073426
 0.3050518 0.3033729 0.3029606 0.3040965 0.306464 0.3093303 0.3119663 0.3139592 0.3152514 0.3159899
 0.3163634 0.3165167 0.3165337 0.3164491 0.3162725 0.3160139 0.3156948 0.3153422 0.314982 0.3146364
 0.3143196 0.3140325 0.3137611 0.3134789 0.313154 0.3127626 0.3122991 0.3117729 0.3111933 0.3105536
 0.3098258 0.3089783 0.3080118 0.3069769 0.3059511 0.3049936 0.3041137 0.3032729 0.3024153 0.3014948
 0.3004646 0.2992643 0.2978765 0.2964167 0.2951057 0.2940948 0.2933306 0.2926189 0.2917948 0.2908064
 0.2896777 0.2884515 0.287169 0.2858613 0.2845368 0.283178 0.2817509 0.2802232 0.2785828 0.2768423
 0.2750233 0.2731427 0.2712179 0.2692667 0.2672805 0.2651887 0.2628571 0.2601239 0.256846 0.2529294
 0.2483501 0.2431708 0.2375472 0.2317009 0.2258659 0.2202464 0.2150062 0.2102794 0.2061785 0.2027938
 0.2001919 0.1984157 0.1974863 0.1974074 0.1981674 0.1997332 0.2020366 0.2049616 0.2083468 0.2120013
 0.2157235 0.2193232 0.2226647 0.2257107 0.2285137 0.2311419 0.2336082 0.2358734 0.2378986 0.2396749
 0.2412099 0.2425068 0.2435687 0.2444187 0.2451063 0.245688 0.2461998 0.2466484 0.2470226 0.2473121
 0.2475218 0.2476768 0.2478141 0.2479659 0.2481483 0.2483648 0.2486183 0.2489186 0.2492795 0.2497143
 0.2502325 0.2508355 0.2515113 0.25224 0.2530106 0.2538323 0.2547299 0.2557358 0.2568818 0.2581883
 0.2596527 0.2612437 0.2628984 0.2645223 0.2660041 0.2672499 0.2682092 0.2688759 0.2692699 0.269421
 0.2693601 0.2691163 0.2687148 0.2681782 0.2675313 0.2668022 0.2660145 0.2651787 0.2642931 0.2633547
 0.2623711 0.2613656 0.2603672 0.2593932 0.2584438 0.2575166 0.2566152 0.2557414 0.2548904 0.2540594
 0.2532541 0.2524822 0.2517475 0.2510498 0.250381 0.2497214 0.2490363 0.248278 0.2473984 0.2463689
 0.2451864 0.2438588 0.2423923 0.2407936 0.239075 0.2372516 0.2353368 0.2333384 0.2312583 0.2290956
 0.226846 0.2245026 0.2220801 0.2196445 0.2172957 0.2151074 0.2130936 0.2112309 0.2094914 0.2078532
 0.2063002 0.2048188 0.2033966 0.202029 0.2007214 0.1994787 0.1983012 0.1971939 0.1961676 0.1952294
 0.1943837 0.1936398 0.1930043 0.1924694 0.1920192 0.1916411 0.1913376 0.1911385 0.1910835 0.1911668
 0.1913117 0.1914161 0.191422 0.1913393 0.1912232 0.1911328 0.1910984 0.1911173 0.1911627 0.191177
 0.191068 0.1907395 0.190116 0.1891339 0.1877462 0.1859614 0.1838657 0.1816032 0.179346 0.1772599
 0.1754631 0.1740132 0.1729154 0.1721179 0.1715193 0.1710319 0.1706494 0.1704438 0.1705011 0.1708313
 0.1712992 0.1716819 0.1718638 0.1719643 0.1722317 0.1728277 0.1737305 0.1747894 0.1758324 0.1767469
 0.1774915 0.1780607 0.178469 0.1787544 0.1789481 0.179043 0.1790165 0.1788635 0.1785906 0.1782112
 0.1777507 0.1772214 0.1766049 0.1758862 0.1750754 0.1741772 0.1731842 0.1720948 0.1708909 0.1695351
 0.1680703 0.1667052 0.165742 0.1654117 0.1657518 0.1665929 0.1676805 0.1688446 0.1700155 0.1710972
 0.1719705 0.172683 0.1735345 0.1748786 0.1768253 0.179128 0.1813502 0.1831467 0.1843822 0.185042
 0.1851537 0.1847844 0.1839812 0.1827171 0.1809919 0.1789256 0.176679 0.1743843 0.1721857 0.1702106
 0.1685055 0.1670865 0.1659643 0.1651345 0.164654 0.1642532 0.1623788 0.1567265 0.1475045 0.1395602
 0.1387268 0.145539 0.1544961 0.159971 0.16099 0.1599024 0.1586697 0.1577243 0.1570031 0.1565805
 0.1565078 0.1566799 0.1568836 0.1568968 0.156621 0.1560655 0.1551008 0.1532285 0.1495707 0.1431835
 0.1337578 0.1222663 0.1107511 0.1012333 0.09470912 0.09095003 0.08895975 0.08766974 0.08654606 0.08576035
 0.0858184 0.08704834 0.08942209 0.09271494 0.09666462 0.1009419 0.1050937 0.1086816 0.111511 0.113647
 0.1152057 0.1162279 0.1167421 0.1168221 0.1165495 0.1159909 0.1152103 0.1142447 0.1130774 0.1116887
 0.1101523 0.1086702 0.1074884 0.1067387 0.1063596 0.1061895 0.1061128 0.1060923 0.1061195 0.1061902
 0.1063085 0.1064827 0.1067277 0.1070585 0.1074488 0.1078188 0.108096 0.1082693 0.1083656 0.1083896
 0.1082972 0.1080373 0.1076378 0.107215 0.1068208 0.1063054 0.1054404 0.1042097 0.1029182 0.1019941
 0.1016958 0.1019651 0.102502 0.1029821 0.1032487 0.1033355 0.1033379 0.1032721 0.1030521 0.102597
</values></Ydata></ScRf><Data_Parameters_AB><parameter name="DPF">1</parameter><parameter name="NPT">3497</parameter><parameter name="FXV">3996</parameter><parameter name="LXV">500</parameter><parameter name="CSF">1</parameter><parameter name="MXY">0.154412522912025</parameter><parameter name="MNY">-0.0912535786628723</parameter><parameter name="DAT">17/01/2024</parameter><parameter name="TIM">13:05:34.970 (GMT+1)</parameter><parameter name="DXU">WN</parameter></Data_Parameters_AB><AB__Qtest><MainReport name="Quality Test Report"><Header><Line><Legend>Test result ok/not ok [1/0]: </Legend><Value>0</Value></Line><Line><Legend>Method file: </Legend><Value>C:\Users\Public\Documents\Bruker\OPUS_8.2.28\QT\IRBT_v3_default.QT</Value></Line></Header><Matrix><Line><Legend></Legend><Legend>min</Legend><Legend>max</Legend><Legend>measured</Legend></Line><Line><Value>Absorption (X-Range 1):</Value><Value>0.400000</Value><Value>2.000000</Value><Value>0.180056</Value></Line><Line><Value>Noise (X-Range 4):</Value><Value></Value><Value>0.000300</Value><Value>0.000029</Value></Line><Line><Value>Signal/Noise (X-Range 2):</Value><Value>200.000000</Value><Value></Value><Value>120.314206</Value></Line><Line><Value>Signal/Noise (X-Range 3):</Value><Value>40.000000</Value><Value></Value><Value>81.479588</Value></Line><Line><Value>Water vapour (X-Range 5):</Value><Value></Value><Value>0.000300</Value><Value>0.000012</Value></Line><Line><Value>Signal/Water (X-Range 2):</Value><Value>100.000000</Value><Value></Value><Value>295.885678</Value></Line><Line><Value>Signal/Water (X-Range 3):</Value><Value>20.000000</Value><Value></Value><Value>200.380687</Value></Line><Line><Value>Fringes (X-Range 6):</Value><Value></Value><Value>0.000100</Value><Value>0.000022</Value></Line></Matrix></MainReport></AB__Qtest><Data_Parameters_ScSm><parameter name="DPF">1</parameter><parameter name="NPT">1814</parameter><parameter name="FXV">3996.63438082617</parameter><parameter name="LXV">499.579297603271</parameter><parameter name="CSF">1</parameter><parameter name="MXY">0.355867028236389</parameter><parameter name="MNY">0.0817046537995338</parameter><parameter name="DAT">17/01/2024</parameter><parameter name="TIM">13:05:34.970 (GMT+1)</parameter><parameter name="DXU">WN</parameter></Data_Parameters_ScSm><Data_Parameters_ScRf><parameter name="DPF">1</parameter><parameter name="NPT">1820</parameter><parameter name="FXV">4004.34989121387</parameter><parameter name="LXV">495.721542409425</parameter><parameter name="CSF">1</parameter><parameter name="MXY">0.317552626132965</parameter><parameter name="MNY">0.0681547224521637</parameter><parameter name="DAT">17/01/2024</parameter><parameter name="TIM">13:05:09.109 (GMT+1)</parameter><parameter name="DXU">WN</parameter></Data_Parameters_ScRf><Optic_Parameters_Rf><parameter name="APR">0</parameter><parameter name="APT">Open</parameter><parameter name="BMS">KBr</parameter><parameter name="DTC">RT-DLaTGS_IR-Biotyper [Microplate reader]</parameter><parameter name="HPF">0</parameter><parameter name="LPF">10.0</parameter><parameter name="LPV">4000</parameter><parameter name="PGR">0</parameter><parameter name="RCH">Module port</parameter><parameter name="RDX">0</parameter><parameter name="SRC">MIR</parameter><parameter name="VEL">10.0</parameter><parameter name="SON">Off</parameter></Optic_Parameters_Rf><Acquisition_Parameters_Rf><parameter name="ADT">1</parameter><parameter name="AQM">DD</parameter><parameter name="CFE">0</parameter><parameter name="COR">0</parameter><parameter name="DEL">0</parameter><parameter name="DLY">0</parameter><parameter name="HFW">8000</parameter><parameter name="LFW">0</parameter><parameter name="NSR">32</parameter><parameter name="PLF">AB</parameter><parameter name="RES">6</parameter><parameter name="RGN">-1</parameter><parameter name="STR">0</parameter><parameter name="TCL">MakeCompatibleScalar (0, {WSV=1.000000, ARV=0});</parameter><parameter name="TDL">37</parameter><parameter name="RPO">0</parameter></Acquisition_Parameters_Rf><FT_-_Parameters_Rf><parameter name="APF">B3</parameter><parameter name="HFQ">500</parameter><parameter name="LFQ">4000</parameter><parameter name="NLI">0</parameter><parameter name="PHR">24</parameter><parameter name="PHZ">ML</parameter><parameter name="SPZ">NO</parameter><parameter name="ZFF">1</parameter></FT_-_Parameters_Rf><Optic_Parameters_><parameter name="APR">0</parameter><parameter name="APT">Open</parameter><parameter name="BMS">KBr</parameter><parameter name="CHN">Module port</parameter><parameter name="DTC">RT-DLaTGS_IR-Biotyper [Microplate reader]</parameter><parameter name="HPF">0</parameter><parameter name="LPF">10.0</parameter><parameter name="LPV">4000</parameter><parameter name="PGN">0</parameter><parameter name="RDX">0</parameter><parameter name="SRC">MIR</parameter><parameter name="VEL">10.0</parameter><parameter name="SON">Off</parameter></Optic_Parameters_><FT_-_Parameters_><parameter name="APF">B3</parameter><parameter name="HFQ">500</parameter><parameter name="LFQ">4000</parameter><parameter name="NLI">0</parameter><parameter name="PHR">24</parameter><parameter name="PHZ">ML</parameter><parameter name="SPZ">NO</parameter><parameter name="ZFF">1</parameter></FT_-_Parameters_><Acquisition_Parameters_><parameter name="ADT">1</parameter><parameter name="AQM">DD</parameter><parameter name="CFE">0</parameter><parameter name="COR">0</parameter><parameter name="DEL">0</parameter><parameter name="DLY">0</parameter><parameter name="HFW">8000</parameter><parameter name="LFW">0</parameter><parameter name="NSS">32</parameter><parameter name="PLF">AB</parameter><parameter name="RES">6</parameter><parameter name="SOT">0</parameter><parameter name="TCL">MakeCompatibleScalar (0, {WSV=1.000000, ARV=0});</parameter><parameter name="TDL">37</parameter><parameter name="SPO">0</parameter><parameter name="SGN">-1</parameter></Acquisition_Parameters_><Instrument_Parameters_Rf><parameter name="HFL">15801.365274</parameter><parameter name="LFL">0</parameter><parameter name="LWN">15801.365274</parameter><parameter name="ABP">32157</parameter><parameter name="SSP">1</parameter><parameter name="ARG">2</parameter><parameter name="ASG">2</parameter><parameter name="ASS">32</parameter><parameter name="GFW">16</parameter><parameter name="GBW">16</parameter><parameter name="BFW">0</parameter><parameter name="BBW">0</parameter><parameter name="PKA">9116</parameter><parameter name="PKL">4987</parameter><parameter name="PRA">9127</parameter><parameter name="PRL">5010</parameter><parameter name="P2A">1</parameter><parameter name="P2L">1</parameter><parameter name="P2R">1</parameter><parameter name="P2K">1</parameter><parameter name="DAQ">0</parameter><parameter name="AG2">1</parameter><parameter name="SSM">1</parameter><parameter name="RSN">46306</parameter><parameter name="CRR">0</parameter><parameter name="SRT">1705496709.11</parameter><parameter name="DUR">19.6439971923828</parameter><parameter name="TSC">30.8</parameter><parameter name="MVD">0.391240060329437</parameter><parameter name="AN1">0.225997070016563</parameter><parameter name="AN2">0</parameter><parameter name="VSN">2.485 Apr  4 2017</parameter><parameter name="SRN">0085</parameter><parameter name="CAM">0</parameter><parameter name="INS">IR-Biotyper</parameter><parameter name="FOC">69</parameter><parameter name="RDY">1</parameter><parameter name="ARS">32</parameter></Instrument_Parameters_Rf><Sample_Parameters_><parameter name="BLD"></parameter><parameter name="CNM">Admin</parameter><parameter name="CPY"></parameter><parameter name="DPM"></parameter><parameter name="EXP">IRBT_v3_32Scans.XPM</parameter><parameter name="LCT"></parameter><parameter name="SFM">Microplate, HTS-XT</parameter><parameter name="SNM">240117-1222-Cdiff_SCFA_1_C8_232113452_H5_de1571ee-5bbf-4dd9-9735-a4202f113804.0</parameter><parameter name="XPP">C:\Users\Public\Documents\Bruker\OPUS_8.2.28\XPM</parameter><parameter name="IST">OK</parameter><parameter name="CPG">1252</parameter><parameter name="UID">bca5ef01-53b0-4581-a604-7237c13f1143</parameter></Sample_Parameters_><Instrument_Parameters_><parameter name="HFL">15801.365274</parameter><parameter name="LFL">0</parameter><parameter name="LWN">15801.365274</parameter><parameter name="ABP">32157</parameter><parameter name="SSP">1</parameter><parameter name="ASG">2</parameter><parameter name="ARG">2</parameter><parameter name="ASS">32</parameter><parameter name="GFW">16</parameter><parameter name="GBW">16</parameter><parameter name="BFW">0</parameter><parameter name="BBW">0</parameter><parameter name="PKA">9904</parameter><parameter name="PKL">4979</parameter><parameter name="PRA">10001</parameter><parameter name="PRL">5002</parameter><parameter name="P2A">1</parameter><parameter name="P2L">1</parameter><parameter name="P2R">1</parameter><parameter name="P2K">1</parameter><parameter name="DAQ">0</parameter><parameter name="AG2">1</parameter><parameter name="SSM">1</parameter><parameter name="RSN">23846</parameter><parameter name="CRR">0</parameter><parameter name="SRT">1705496734.971</parameter><parameter name="DUR">19.6449890136719</parameter><parameter name="TSC">30.8</parameter><parameter name="MVD">0.362558484077454</parameter><parameter name="AN1">0.226026844679126</parameter><parameter name="AN2">0</parameter><parameter name="VSN">2.485 Apr  4 2017</parameter><parameter name="SRN">0085</parameter><parameter name="CAM">0</parameter><parameter name="INS">IR-Biotyper</parameter><parameter name="FOC">69</parameter><parameter name="RDY">1</parameter></Instrument_Parameters_><History/></OPUSDataFile>
