<?xml version="1.0" encoding="UTF-8" ?>
<OPUSDataFile><AB><Ydata ylabel="Absorbance Units"><values byteorder="INTEL" format="FLOAT32" numvalues="3497"> -0.08952005 -0.08951926 -0.08950755 -0.08948661 -0.08946096 -0.08943292 -0.08941028 -0.08939257 -0.08938291 -0.08937869
 -0.08937822 -0.08937988 -0.08938173 -0.08938407 -0.0893866 -0.08938975 -0.08939391 -0.08939795 -0.08940202 -0.08940333
 -0.08940141 -0.08939509 -0.089384 -0.08937191 -0.08935906 -0.08935305 -0.08935393 -0.0893657 -0.08938695 -0.08941303
 -0.08944172 -0.08946303 -0.08947682 -0.08947682 -0.08946656 -0.08944788 -0.08942595 -0.08940726 -0.08939396 -0.08939074
 -0.08939414 -0.08940404 -0.08941573 -0.08942717 -0.08943737 -0.08944545 -0.08945332 -0.08946124 -0.08947007 -0.08948003
 -0.08948947 -0.08949829 -0.08950344 -0.08950478 -0.08949928 -0.08948717 -0.08946736 -0.08944121 -0.08941212 -0.08938213
 -0.08935758 -0.08933932 -0.08933205 -0.08933376 -0.08934487 -0.08936089 -0.08937903 -0.08939498 -0.08940542 -0.08940983
 -0.08940669 -0.08939926 -0.08938797 -0.0893757 -0.08936302 -0.08935103 -0.08933971 -0.08933222 -0.08932875 -0.08933527
 -0.08935161 -0.0893782 -0.08941343 -0.08944824 -0.0894816 -0.08950425 -0.08951832 -0.08952374 -0.08952356 -0.08952358
 -0.08952282 -0.08952329 -0.08952086 -0.0895122 -0.08949742 -0.08947426 -0.08944925 -0.08942434 -0.08940373 -0.0893898
 -0.08937835 -0.08936925 -0.0893571 -0.08934103 -0.08932301 -0.08930313 -0.08928744 -0.08927587 -0.08926869 -0.08926518
 -0.08926062 -0.0892556 -0.08924934 -0.08924361 -0.08924291 -0.08924679 -0.08925723 -0.08927144 -0.08928683 -0.08930196
 -0.08931441 -0.08932521 -0.08933429 -0.08934257 -0.08935065 -0.08935779 -0.08936434 -0.08936736 -0.08936674 -0.08935764
 -0.08933941 -0.08931097 -0.08927225 -0.08923315 -0.08919455 -0.08917183 -0.08916422 -0.08917663 -0.08920431 -0.08923373
 -0.08925921 -0.08925819 -0.08923414 -0.08917914 -0.08910806 -0.0890352 -0.08897063 -0.08892906 -0.08890799 -0.08891132
 -0.08892991 -0.088962 -0.08899735 -0.08903325 -0.08906242 -0.0890831 -0.0890926 -0.08909027 -0.08907793 -0.08905565
 -0.08902594 -0.08898894 -0.08894616 -0.08889827 -0.08884972 -0.08880215 -0.08876445 -0.08873688 -0.08872569 -0.08872734
 -0.08873923 -0.08875671 -0.08877297 -0.08878624 -0.08879264 -0.08879271 -0.08878591 -0.08877235 -0.08875146 -0.08872554
 -0.08869418 -0.0886643 -0.08863708 -0.08861685 -0.08860467 -0.08859616 -0.08859117 -0.08858175 -0.08856776 -0.08854561
 -0.08851596 -0.08848118 -0.0884421 -0.08840289 -0.08836427 -0.08833032 -0.08830083 -0.08827803 -0.0882593 -0.08824281
 -0.08822529 -0.08820237 -0.08817586 -0.08814438 -0.08811453 -0.08808891 -0.08807067 -0.08806246 -0.08805802 -0.08805723
 -0.08805089 -0.08803773 -0.08801507 -0.08798259 -0.08794557 -0.08790449 -0.08786761 -0.0878351 -0.08781278 -0.08779944
 -0.08779432 -0.08779467 -0.08779313 -0.08778784 -0.08777115 -0.0877452 -0.08770851 -0.0876666 -0.08762364 -0.08758351
 -0.08755018 -0.08752336 -0.08750419 -0.08749012 -0.08748063 -0.08747409 -0.08747 -0.08746865 -0.0874702 -0.08747324
 -0.08747782 -0.08747769 -0.0874726 -0.0874569 -0.08743145 -0.08739969 -0.0873624 -0.08732571 -0.08728699 -0.08724208
 -0.08718942 -0.08712156 -0.08704565 -0.08696669 -0.08689334 -0.08683727 -0.08679532 -0.08677145 -0.08675201 -0.08673229
 -0.08670293 -0.08665869 -0.08660405 -0.08653817 -0.08647198 -0.08640684 -0.08634814 -0.08629645 -0.08624895 -0.08620532
 -0.08615877 -0.08610925 -0.08605249 -0.08598977 -0.08592369 -0.08585619 -0.08579397 -0.0857374 -0.08569114 -0.08565223
 -0.08562041 -0.08558811 -0.08554927 -0.08549641 -0.08542126 -0.08532753 -0.08521258 -0.08509036 -0.08496472 -0.08484307
 -0.08472859 -0.08461635 -0.08450638 -0.08439129 -0.08427045 -0.08414421 -0.08401285 -0.0838827 -0.08375404 -0.08363277
 -0.08351726 -0.08340516 -0.08329203 -0.08316463 -0.08301969 -0.08284249 -0.08263854 -0.08240676 -0.0821593 -0.08190735
 -0.08165719 -0.08141738 -0.08118473 -0.08096103 -0.08073784 -0.08051417 -0.08027834 -0.08002812 -0.07975455 -0.07945547
 -0.07913478 -0.07879241 -0.07843985 -0.07807741 -0.07770925 -0.07733489 -0.07695203 -0.07656094 -0.07616145 -0.0757546
 -0.0753431 -0.07492808 -0.07451262 -0.0740981 -0.0736881 -0.07328181 -0.07288084 -0.07248052 -0.07207917 -0.07167044
 -0.07125236 -0.07081611 -0.07036047 -0.06987073 -0.06934309 -0.06877229 -0.06815467 -0.06751543 -0.06685559 -0.06621103
 -0.06558269 -0.06497952 -0.06439948 -0.06382905 -0.06326731 -0.06270291 -0.06213715 -0.06156807 -0.06099699 -0.06042645
 -0.05985478 -0.05928335 -0.0587028 -0.05810633 -0.05748225 -0.05681662 -0.05611863 -0.05538309 -0.05464396 -0.0539115
 -0.05320405 -0.05253068 -0.05187513 -0.05123739 -0.05059375 -0.04994201 -0.04927752 -0.04860038 -0.04791957 -0.04723522
 -0.0465527 -0.04587047 -0.04518437 -0.04449291 -0.04378874 -0.0430732 -0.0423441 -0.04160666 -0.04086735 -0.04012964
 -0.03940045 -0.0386772 -0.03796067 -0.03724661 -0.03653309 -0.03581799 -0.0351003 -0.03437888 -0.0336531 -0.03292393
 -0.03219121 -0.03145835 -0.03072588 -0.02998985 -0.02924982 -0.0284919 -0.02771644 -0.02691926 -0.02610457 -0.02529064
 -0.02448054 -0.02369518 -0.02293013 -0.02218761 -0.02145934 -0.02073456 -0.02000729 -0.0192669 -0.0185134 -0.01774197
 -0.0169601 -0.01616938 -0.01537863 -0.01459228 -0.01380911 -0.01303075 -0.01224745 -0.01145759 -0.01065881 -0.00985036
 -0.009040609 -0.008229923 -0.007424504 -0.006623998 -0.005827279 -0.005033913 -0.004241331 -0.003449274 -0.002655703 -0.001860384
 -0.00106134 -0.0002598591 0.0005433449 0.001346232 0.002145654 0.002942998 0.003737207 0.004533491 0.00533433 0.006142288
 0.006959962 0.007782372 0.008609663 0.009432792 0.0102503 0.01105811 0.01185544 0.01264666 0.01343197 0.01421678
 0.01500083 0.01578351 0.01656471 0.01734284 0.01811958 0.01889961 0.01968385 0.02047786 0.02127823 0.02208278
 0.02288715 0.0236854 0.02447686 0.02525889 0.02603312 0.02680006 0.02755973 0.02831244 0.02905715 0.02979343
 0.03052191 0.03124229 0.03195812 0.0326696 0.0333807 0.03409157 0.03480173 0.0355108 0.03621397 0.03691167
 0.03760305 0.03829004 0.03897893 0.03966993 0.04036768 0.04106868 0.04176987 0.04246758 0.04315659 0.04383538
 0.04450128 0.04515367 0.04579103 0.04641551 0.04702654 0.04763061 0.04822899 0.04882675 0.04942533 0.05002299
 0.05061991 0.05121112 0.0517964 0.0523726 0.05293984 0.05349791 0.05404767 0.0545934 0.05513613 0.05568239
 0.05623092 0.05678296 0.05733501 0.0578816 0.05842198 0.05895204 0.05947578 0.05999482 0.06051265 0.06103221
 0.06155261 0.06207498 0.06259447 0.06311057 0.06361704 0.06411269 0.06459496 0.0650632 0.06552128 0.06596939
 0.06641315 0.06685259 0.06728918 0.06772316 0.06815636 0.06858961 0.06902739 0.06946861 0.06991404 0.07035971
 0.07079951 0.07123105 0.07164872 0.07205369 0.07244471 0.07282436 0.0731929 0.07355494 0.07391115 0.07426943
 0.07463216 0.07500247 0.07538228 0.07576364 0.07614627 0.07651954 0.07688288 0.07723428 0.07757416 0.07790749
 0.07823435 0.07855798 0.07887748 0.07919147 0.07949904 0.0797971 0.08008594 0.08036415 0.08063364 0.08089592
 0.0811528 0.08140686 0.08165687 0.08190338 0.08214311 0.08237473 0.08259725 0.08280975 0.0830145 0.08321173
 0.08340354 0.08359038 0.08377027 0.08394313 0.08410548 0.08425754 0.08440078 0.08453628 0.08467218 0.08480801
 0.08494775 0.08508728 0.08521891 0.08533902 0.08543637 0.08551468 0.08557216 0.08561813 0.08565965 0.0857024
 0.08575274 0.08580804 0.08586968 0.08593029 0.08598821 0.08603833 0.08607884 0.08611238 0.08613852 0.08616673
 0.08619756 0.08623724 0.08628523 0.08633479 0.08638417 0.08641867 0.08643819 0.08643356 0.08640784 0.08636339
 0.08630435 0.086239 0.08616929 0.08610119 0.08603373 0.08596791 0.08590289 0.08583793 0.0857746 0.08571344
 0.0856552 0.08560105 0.08554643 0.08549097 0.08542926 0.08536027 0.08528576 0.08520571 0.0851287 0.08505505
 0.0849911 0.08493625 0.08488999 0.08485091 0.08481366 0.08477668 0.08473318 0.08468276 0.08462062 0.08454988
 0.08447104 0.08439099 0.08431512 0.08424983 0.08420096 0.0841691 0.08415716 0.08415832 0.08417212 0.0841888
 0.08420647 0.08421964 0.08422705 0.08423173 0.0842337 0.08424029 0.08425172 0.08427235 0.08430239 0.08434431
 0.08439992 0.08447739 0.08457889 0.08471666 0.08488532 0.08508572 0.0852995 0.08550662 0.08568713 0.08581384
 0.08588744 0.08589458 0.08586355 0.0857997 0.08573703 0.08568743 0.08566287 0.08566986 0.08569401 0.08573551
 0.08576935 0.08579393 0.08579104 0.08576055 0.08570042 0.08561263 0.08551029 0.08539487 0.08528046 0.08516449
 0.08504826 0.08492646 0.08478916 0.08463524 0.08445726 0.08426189 0.08405144 0.08383451 0.08361887 0.08340261
 0.08319057 0.0829634 0.08271869 0.08243141 0.08209521 0.08170401 0.08125417 0.08076978 0.08025184 0.07973566
 0.07922234 0.07873081 0.07825937 0.07780502 0.07736532 0.07692868 0.07649402 0.07605197 0.07560378 0.07514612
 0.07468417 0.07422269 0.07376742 0.07332697 0.07289847 0.07248528 0.07207428 0.07166084 0.07123524 0.07079165
 0.07033619 0.06986731 0.06940334 0.06894581 0.06851242 0.06810462 0.0677291 0.06738538 0.06706171 0.06675523
 0.06643815 0.06610873 0.06574252 0.06534453 0.06491396 0.06446122 0.06400582 0.06355423 0.0631249 0.06271426
 0.06232708 0.06195356 0.06158927 0.06122592 0.06085863 0.06048404 0.06009967 0.05970725 0.05930613 0.05890234
 0.05849641 0.05809413 0.05769606 0.05730252 0.05691333 0.05652285 0.0561307 0.05573107 0.05532435 0.05490893
 0.05448577 0.05405664 0.05362234 0.05318502 0.0527457 0.05230646 0.05186838 0.05143337 0.0510014 0.05057316
 0.05014778 0.04972516 0.04930413 0.04888465 0.04846441 0.04804332 0.0476172 0.04718541 0.0467459 0.04629825
 0.04584705 0.04539263 0.04494306 0.04449837 0.04406273 0.04363493 0.04321174 0.04279187 0.04236965 0.04194506
 0.04151506 0.04108108 0.04064408 0.04020464 0.03976428 0.03932132 0.03887491 0.03842448 0.03796846 0.03751129
 0.03705317 0.03660162 0.03615804 0.03572837 0.03531353 0.03491733 0.03454022 0.03418286 0.0338449 0.03351517
 0.03319138 0.03284836 0.0324848 0.03207885 0.03163565 0.03115663 0.03065275 0.03014616 0.02964593 0.02917548
 0.02873466 0.02833441 0.02796324 0.02761918 0.02728406 0.02694902 0.02660253 0.0262369 0.02585797 0.02546414
 0.02507159 0.02468267 0.02430452 0.0239383 0.02357734 0.02322139 0.02286562 0.02251154 0.02217091 0.02184635
 0.02155825 0.02130464 0.02109357 0.02091406 0.02074991 0.02058575 0.02039161 0.02016145 0.01987366 0.01954288
 0.0191684 0.01877832 0.01838579 0.0180088 0.01765859 0.0173301 0.01702517 0.01673068 0.01644424 0.01616452
 0.01589093 0.01563047 0.01538329 0.0151475 0.01492201 0.01469455 0.01446553 0.01422948 0.01398993 0.01375533
 0.01352776 0.01331707 0.01312001 0.01293669 0.01276195 0.01259024 0.01241919 0.01224548 0.01206828 0.01188716
 0.01169887 0.01150344 0.01129322 0.01106741 0.01081541 0.01053549 0.0102215 0.009872028 0.009497884 0.009099903
 0.008706935 0.008320455 0.007967728 0.007646258 0.007359184 0.00709979 0.00684841 0.006600127 0.006333327 0.006050319
 0.005743931 0.005421597 0.005088281 0.00475018 0.004413779 0.004080646 0.003753436 0.00343109 0.003113813 0.002800429
 0.00249092 0.002183122 0.001876659 0.001570343 0.001263722 0.0009618967 0.0006651671 0.0003827609 0.0001143053 -0.0001401184
 -0.0003831551 -0.0006292507 -0.0008798504 -0.001149276 -0.001432808 -0.001728194 -0.002027827 -0.002317626 -0.002596904 -0.002857399
 -0.003107559 -0.003350567 -0.003594683 -0.003846262 -0.004104584 -0.00437181 -0.004641073 -0.004911229 -0.005176947 -0.00543724
 -0.005689474 -0.005933404 -0.006166341 -0.006388113 -0.006594036 -0.006783812 -0.00695212 -0.007099506 -0.007225122 -0.007331814
 -0.007427752 -0.007517366 -0.007615491 -0.007722525 -0.007847914 -0.007983784 -0.008126743 -0.008265177 -0.00838872 -0.00849215
 -0.008569018 -0.008622017 -0.008651039 -0.008657656 -0.00864312 -0.008603031 -0.008537102 -0.008440134 -0.008311434 -0.008150698
 -0.007957892 -0.007735471 -0.007483248 -0.007200048 -0.006884713 -0.006530213 -0.006135227 -0.005690837 -0.005197938 -0.004652945
 -0.004060373 -0.003424898 -0.002752743 -0.002052447 -0.001328353 -0.0005863926 0.0001712392 0.000942593 0.00172424 0.002515406
 0.003310109 0.004107053 0.004900741 0.005689912 0.006473179 0.007250233 0.008021768 0.00878781 0.009544759 0.01029157
 0.01101494 0.01171191 0.01235938 0.01295295 0.01346549 0.01389296 0.01421202 0.01442209 0.01450913 0.01448212
 0.01433973 0.01410911 0.01380255 0.01346801 0.0131283 0.01283724 0.01261935 0.01250701 0.01251596 0.01264296
 0.01289229 0.01323692 0.01367513 0.01418033 0.01475092 0.01537094 0.01603973 0.01674622 0.01748865 0.01825199
 0.01903204 0.01980647 0.02057016 0.02129838 0.02199185 0.02263659 0.0232467 0.0238288 0.02440763 0.02500544
 0.0256374 0.02632742 0.02704568 0.02780661 0.02849531 0.02910761 0.0294385 0.02946205 0.02897229 0.02793887
 0.02631633 0.02409851 0.02148356 0.01849196 0.01546223 0.0124107 0.009616381 0.007065217 0.004860559 0.002964997
 0.001340796 -4.655715E-05 -0.00127319 -0.002356696 -0.003346788 -0.004251236 -0.005090154 -0.005871935 -0.006605486 -0.007298137
 -0.007955437 -0.008577249 -0.009165301 -0.009714031 -0.01022259 -0.01068805 -0.0111098 -0.011489 -0.01182571 -0.01211921
 -0.01236926 -0.0125713 -0.01272543 -0.01282928 -0.01288486 -0.01289695 -0.01287126 -0.01282158 -0.01275949 -0.0127084
 -0.01268422 -0.01271531 -0.01281145 -0.01299406 -0.01325367 -0.01359615 -0.01399142 -0.01443257 -0.0148829 -0.01533272
 -0.01575233 -0.01613587 -0.01646131 -0.01672658 -0.01690756 -0.01700286 -0.01698168 -0.01684325 -0.0165672 -0.01616239
 -0.01566661 -0.01511318 -0.01464143 -0.01430447 -0.01431322 -0.01469125 -0.01560165 -0.01697567 -0.01882414 -0.02098713
 -0.02334813 -0.02574049 -0.02803043 -0.03013867 -0.03199099 -0.03361107 -0.03498447 -0.03618006 -0.03720681 -0.03812191
 -0.03893301 -0.0396713 -0.04033931 -0.04095358 -0.04151481 -0.04203455 -0.04251347 -0.04296183 -0.04338052 -0.0437787
 -0.04415701 -0.04452198 -0.04487342 -0.04521394 -0.04554319 -0.04586172 -0.04616924 -0.04646558 -0.04675087 -0.04702474
 -0.04728875 -0.04754269 -0.0477909 -0.04803417 -0.04827726 -0.04852136 -0.04876797 -0.04901772 -0.04926755 -0.04951737
 -0.04976171 -0.05000027 -0.05022801 -0.05044502 -0.05064939 -0.05084198 -0.05102507 -0.05119985 -0.05137076 -0.05153824
 -0.05170509 -0.05187161 -0.05203896 -0.05220836 -0.05238122 -0.05255856 -0.05274243 -0.0529296 -0.05312014 -0.0533074
 -0.05348952 -0.05366183 -0.05382266 -0.05397303 -0.05411266 -0.05424511 -0.05437058 -0.05449203 -0.05460966 -0.05472701
 -0.05484438 -0.05496601 -0.05509168 -0.05522314 -0.05535905 -0.05549689 -0.05563493 -0.05576858 -0.05589728 -0.05601811
 -0.0561321 -0.05623888 -0.05634037 -0.05643755 -0.05653214 -0.05662522 -0.05671731 -0.05680894 -0.05689943 -0.05698875
 -0.05707615 -0.05716145 -0.05724491 -0.05732647 -0.05740799 -0.05748961 -0.05757459 -0.05766302 -0.05775731 -0.05785694
 -0.05796109 -0.05806867 -0.05817602 -0.05828279 -0.05838607 -0.05848728 -0.05858699 -0.0586869 -0.05878922 -0.05889368
 -0.05900119 -0.05910971 -0.05921838 -0.05932648 -0.05943321 -0.05954042 -0.05964832 -0.05975866 -0.0598719 -0.05998681
 -0.06010339 -0.06021906 -0.06033375 -0.06044751 -0.06056058 -0.06067528 -0.06079165 -0.0609114 -0.06103371 -0.06115711
 -0.0612806 -0.06140116 -0.06151907 -0.06163287 -0.06174482 -0.06185646 -0.06196994 -0.06208802 -0.06220887 -0.06233327
 -0.06245566 -0.06257451 -0.06268576 -0.06278777 -0.06288208 -0.0629684 -0.06305128 -0.06313106 -0.06321054 -0.06328982
 -0.06336984 -0.06345067 -0.06353343 -0.06361815 -0.06370591 -0.0637961 -0.06388779 -0.06397972 -0.06406878 -0.06415451
 -0.06423437 -0.06431022 -0.0643825 -0.06445448 -0.06452888 -0.06460656 -0.06468952 -0.06477414 -0.06486006 -0.06494258
 -0.06502035 -0.06509227 -0.06515765 -0.06521983 -0.06527897 -0.06533876 -0.06539936 -0.06546213 -0.06552695 -0.06559306
 -0.06566037 -0.06572783 -0.06579591 -0.06586526 -0.06593686 -0.0660134 -0.06609444 -0.06618138 -0.06627088 -0.06636054
 -0.06644636 -0.06652402 -0.06659411 -0.06665462 -0.0667116 -0.06676631 -0.0668245 -0.0668883 -0.06695705 -0.06703142
 -0.0671057 -0.06717943 -0.0672487 -0.06731337 -0.06737497 -0.06743389 -0.06749473 -0.06755755 -0.06762531 -0.06769744
 -0.06777386 -0.06785374 -0.06793531 -0.06801782 -0.06809941 -0.06817976 -0.06825775 -0.0683337 -0.06840732 -0.06847961
 -0.06855091 -0.06862212 -0.06869373 -0.06876561 -0.0688379 -0.0689097 -0.06898091 -0.06905071 -0.06911903 -0.06918554
 -0.06925023 -0.06931283 -0.06937346 -0.06943275 -0.0694911 -0.0695509 -0.06961241 -0.06967813 -0.06974719 -0.06981929
 -0.06989286 -0.06996517 -0.07003604 -0.07010377 -0.07017022 -0.07023625 -0.07030311 -0.07037231 -0.07044178 -0.07051142
 -0.07057808 -0.0706406 -0.07069933 -0.07075376 -0.07080811 -0.07086268 -0.07092126 -0.07098403 -0.07105046 -0.07112022
 -0.07118947 -0.07125796 -0.0713222 -0.07138246 -0.07143762 -0.07148866 -0.07153694 -0.07158379 -0.0716318 -0.07168195
 -0.07173655 -0.07179512 -0.07185849 -0.07192437 -0.07199203 -0.07205904 -0.07212431 -0.0721869 -0.07224624 -0.072303
 -0.07235714 -0.07240996 -0.07246155 -0.07251299 -0.07256433 -0.07261633 -0.07266901 -0.07272262 -0.07277708 -0.07283208
 -0.07288759 -0.07294338 -0.07299933 -0.07305526 -0.07311049 -0.07316408 -0.0732149 -0.0732611 -0.07330275 -0.07333861
 -0.07337153 -0.07340216 -0.07343473 -0.07347122 -0.07351278 -0.07356079 -0.07361099 -0.07366312 -0.07371204 -0.07375706
 -0.07379731 -0.07383271 -0.07386636 -0.07389844 -0.07393181 -0.07396644 -0.07400348 -0.0740429 -0.07408525 -0.0741305
 -0.07417913 -0.07423025 -0.07428286 -0.07433549 -0.0743858 -0.0744338 -0.07447801 -0.07452128 -0.07456432 -0.07461088
 -0.07466283 -0.07472084 -0.07478599 -0.07485471 -0.07492679 -0.07499804 -0.07506797 -0.07513465 -0.07519794 -0.07525796
 -0.07531479 -0.07536887 -0.07542042 -0.07547096 -0.07552084 -0.07557233 -0.07562482 -0.07567833 -0.07573133 -0.07578105
 -0.07582731 -0.07586793 -0.07590593 -0.07594278 -0.07598165 -0.07602546 -0.076073 -0.07612507 -0.07617749 -0.07622913
 -0.07627822 -0.07632394 -0.07636818 -0.07641105 -0.07645406 -0.07649732 -0.07654008 -0.07658231 -0.07662354 -0.07666417
 -0.07670648 -0.07675065 -0.076799 -0.07685066 -0.07690489 -0.07696024 -0.07701384 -0.07706499 -0.0771113 -0.07715388
 -0.0771925 -0.07722931 -0.07726543 -0.07730243 -0.07734147 -0.07738199 -0.07742438 -0.07746617 -0.077507 -0.07754502
 -0.07757978 -0.07761253 -0.07764331 -0.07767546 -0.07770908 -0.07774623 -0.07778651 -0.07782837 -0.0778712 -0.07791162
 -0.07794965 -0.07798341 -0.07801384 -0.07804166 -0.07806778 -0.07809362 -0.07811966 -0.07814682 -0.07817511 -0.07820486
 -0.07823581 -0.07826809 -0.07830083 -0.07833385 -0.07836641 -0.07839823 -0.07842987 -0.07846134 -0.07849358 -0.07852666
 -0.07856046 -0.07859492 -0.07862877 -0.07866193 -0.0786932 -0.07872258 -0.07874928 -0.07877349 -0.07879497 -0.07881473
 -0.07883413 -0.07885479 -0.07887947 -0.07890838 -0.07894334 -0.07898176 -0.07902309 -0.07906366 -0.07910173 -0.07913555
 -0.07916394 -0.07918823 -0.07920826 -0.07922674 -0.07924394 -0.07926174 -0.07928027 -0.07929946 -0.07931922 -0.07933792
 -0.07935558 -0.07937127 -0.07938541 -0.07939902 -0.07941281 -0.07942919 -0.07944863 -0.07947323 -0.07950258 -0.07953712
 -0.07957594 -0.07961807 -0.07966375 -0.07971234 -0.07976594 -0.07982513 -0.07989196 -0.0799676 -0.08005043 -0.08014082
 -0.08023363 -0.08032831 -0.08042141 -0.08051259 -0.08060358 -0.08069448 -0.08078749 -0.08088192 -0.08097393 -0.08106198
 -0.08113758 -0.08119983 -0.08124176 -0.08126378 -0.08126337 -0.08124159 -0.08119845 -0.08113585 -0.08105413 -0.08095906
 -0.08085183 -0.08074521 -0.08064367 -0.08056037 -0.08050064 -0.08046829 -0.08046603 -0.08048689 -0.08053116 -0.08058421
 -0.08064521 -0.08069874 -0.08074435 -0.08077556 -0.08079331 -0.08080204 -0.08080233 -0.0807991 -0.08079174 -0.08078079
 -0.08076635 -0.08074856 -0.08072859 -0.08070806 -0.08068772 -0.08066903 -0.08065145 -0.08063535 -0.08061904 -0.08060193
 -0.08058243 -0.08055969 -0.08053414 -0.08050551 -0.08047594 -0.08044565 -0.08041643 -0.08038844 -0.08036155 -0.08033577
 -0.08031143 -0.08028869 -0.08026916 -0.08025301 -0.08024191 -0.08023555 -0.08023398 -0.08023649 -0.0802418 -0.08024907
 -0.08025678 -0.08026411 -0.08026972 -0.08027347 -0.08027456 -0.08027443 -0.08027307 -0.08027345 -0.08027641 -0.0802841
 -0.08029738 -0.08031546 -0.08033859 -0.08036338 -0.0803896 -0.08041468 -0.08043853 -0.08046061 -0.08048091 -0.08049927
 -0.08051565 -0.08052973 -0.08054163 -0.08055131 -0.0805594 -0.08056703 -0.08057488 -0.08058438 -0.08059575 -0.08060986
 -0.08062605 -0.08064443 -0.08066341 -0.08068243 -0.08069991 -0.0807151 -0.08072792 -0.080738 -0.08074702 -0.08075511
 -0.08076406 -0.08077407 -0.08078555 -0.08079849 -0.08081168 -0.0808249 -0.08083591 -0.08084465 -0.08084948 -0.08085105
 -0.08085018 -0.08084791 -0.08084688 -0.08084748 -0.08085173 -0.08085871 -0.0808684 -0.08087927 -0.08089028 -0.08090041
 -0.08090866 -0.08091573 -0.0809214 -0.08092761 -0.08093468 -0.08094433 -0.08095699 -0.08097198 -0.08098938 -0.08100621
 -0.08102232 -0.08103525 -0.0810451 -0.08105195 -0.08105623 -0.08106 -0.08106361 -0.08106928 -0.08107688 -0.08108735
 -0.08109999 -0.08111434 -0.08112945 -0.08114411 -0.08115786 -0.08116974 -0.08118062 -0.08119043 -0.08120091 -0.08121271
 -0.08122652 -0.0812429 -0.08126014 -0.0812782 -0.08129459 -0.08130906 -0.0813212 -0.08133106 -0.08134044 -0.08134942
 -0.08135926 -0.0813698 -0.08138072 -0.0813921 -0.08140396 -0.08141688 -0.08143232 -0.08145033 -0.08147193 -0.08149586
 -0.0815214 -0.0815469 -0.08157068 -0.08159282 -0.08161259 -0.08163173 -0.08165065 -0.08167075 -0.08169265 -0.08171576
 -0.08174022 -0.08176411 -0.08178724 -0.08180855 -0.08182799 -0.0818461 -0.08186299 -0.08188018 -0.08189771 -0.08191667
 -0.08193673 -0.08195757 -0.08197848 -0.08199779 -0.08201496 -0.08202818 -0.08203813 -0.08204446 -0.08204907 -0.08205298
 -0.0820583 -0.08206636 -0.08207823 -0.08209471 -0.08211553 -0.08214083 -0.08216993 -0.08220287 -0.08223827 -0.08227611
 -0.08231428 -0.08235268 -0.08238853 -0.08242177 -0.08245056 -0.08247519 -0.0824961 -0.08251394 -0.08253098 -0.08254788
 -0.08256732 -0.08258928 -0.08261517 -0.08264384 -0.08267479 -0.08270634 -0.08273693 -0.08276609 -0.08279274 -0.08281856
 -0.08284374 -0.08287039 -0.08289918 -0.08293056 -0.08296484 -0.08300104 -0.08303916 -0.08307755 -0.08311611 -0.08315268
 -0.0831872 -0.08321816 -0.0832458 -0.08327041 -0.08329234 -0.08331297 -0.08333243 -0.08335155 -0.08337077 -0.08339091
 -0.08341303 -0.08343872 -0.0834682 -0.08350258 -0.08354027 -0.08358084 -0.08362255 -0.08366448 -0.08370645 -0.08374817
 -0.08379005 -0.08383221 -0.08387417 -0.0839159 -0.08395688 -0.08399709 -0.08403684 -0.0840762 -0.08411568 -0.0841553
 -0.08419549 -0.08423604 -0.08427649 -0.08431637 -0.08435437 -0.08439031 -0.08442305 -0.08445348 -0.08448195 -0.08450979
 -0.08453837 -0.08456767 -0.08459818 -0.08462913 -0.08466008 -0.08469183 -0.08472422 -0.08475951 -0.08479818 -0.08484077
 -0.08488753 -0.08493593 -0.08498582 -0.08503392 -0.08508021 -0.08512354 -0.08516415 -0.08520308 -0.08524051 -0.08527762
 -0.08531434 -0.08535098 -0.08538749 -0.08542376 -0.08546036 -0.08549786 -0.08553687 -0.0855782 -0.08562161 -0.08566757
 -0.0857143 -0.08576132 -0.0858071 -0.085851 -0.08589326 -0.08593367 -0.08597385 -0.086014 -0.08605447 -0.08609535
 -0.08613498 -0.08617332 -0.08620913 -0.08624273 -0.08627543 -0.0863077 -0.08634216 -0.08637857 -0.08641787 -0.08645904
 -0.08650083 -0.08654243 -0.08658216 -0.08662039 -0.08665669 -0.08669203 -0.0867267 -0.08676181 -0.08679779 -0.08683536
 -0.08687488 -0.08691619 -0.08695944 -0.08700347 -0.08704827 -0.08709159 -0.08713329 -0.08717131 -0.08720566 -0.08723591
 -0.08726242 -0.08728725 -0.08731089 -0.08733655 -0.08736411 -0.08739529 -0.08742891 -0.08746382 -0.08749879 -0.08753164
 -0.0875625 -0.0875904 -0.08761698 -0.08764281 -0.08766945 -0.08769801 -0.08772751 -0.08775821 -0.08778731 -0.08781437
 -0.08783732 -0.08785571 -0.08787041 -0.08788143 -0.08789159 -0.087901 -0.08791196 -0.08792437 -0.08793872 -0.0879548
 -0.0879721 -0.0879906 -0.08800998 -0.08803026 -0.08805143 -0.08807336 -0.08809598 -0.08811891 -0.08814192 -0.0881644
 -0.08818592 -0.08820621 -0.08822497 -0.08824247 -0.08825863 -0.08827424 -0.08828947 -0.08830458 -0.08831962 -0.08833474
 -0.08834994 -0.08836522 -0.08838057 -0.08839575 -0.0884107 -0.08842465 -0.08843778 -0.08845023 -0.08846244 -0.08847585
 -0.08849024 -0.08850615 -0.08852245 -0.08853794 -0.08855172 -0.0885622 -0.08857025 -0.08857568 -0.08858027 -0.08858483
 -0.08858988 -0.08859573 -0.08860243 -0.0886099 -0.0886191 -0.08863005 -0.08864417 -0.08866157 -0.08868196 -0.08870515
 -0.08872801 -0.08875034 -0.08876894 -0.08878431 -0.08879653 -0.08880666 -0.08881769 -0.08882989 -0.08884551 -0.08886325
 -0.08888258 -0.08890174 -0.08891898 -0.08893345 -0.08894392 -0.08895092 -0.08895416 -0.0889552 -0.0889542 -0.08895351
 -0.08895358 -0.08895591 -0.08896083 -0.08896803 -0.08897754 -0.08898804 -0.08899944 -0.08901027 -0.08902039 -0.08902803
 -0.08903328 -0.08903525 -0.08903462 -0.08903266 -0.08903014 -0.08902933 -0.08902984 -0.08903248 -0.08903573 -0.08903868
 -0.08903977 -0.08903767 -0.08903202 -0.08902213 -0.08900896 -0.08899245 -0.08897462 -0.08895577 -0.08893789 -0.08892123
 -0.0889072 -0.08889591 -0.08888814 -0.08888388 -0.08888301 -0.08888523 -0.08888842 -0.08889235 -0.08889461 -0.08889546
 -0.0888944 -0.08889159 -0.08888735 -0.08888104 -0.0888719 -0.08885942 -0.08884223 -0.08882203 -0.08879916 -0.0887762
 -0.08875453 -0.08873495 -0.08871833 -0.08870305 -0.08868912 -0.08867387 -0.08865698 -0.08863679 -0.08861314 -0.08858625
 -0.08855619 -0.08852487 -0.08849251 -0.08846169 -0.08843254 -0.08840742 -0.08838551 -0.0883663 -0.08834767 -0.08832521
 -0.08829753 -0.08825988 -0.08821483 -0.08816224 -0.08810735 -0.08805361 -0.08800402 -0.08796122 -0.08792435 -0.08789407
 -0.08786731 -0.08784391 -0.08781938 -0.08779317 -0.08776194 -0.08772528 -0.08768398 -0.08763818 -0.08759226 -0.08754623
 -0.08750238 -0.08746011 -0.087418 -0.08737541 -0.08732963 -0.08728054 -0.08722638 -0.08716808 -0.08710574 -0.0870415
 -0.08697761 -0.08691516 -0.0868564 -0.08679867 -0.08674165 -0.08668187 -0.08661766 -0.08654951 -0.08647691 -0.08640312
 -0.08632865 -0.08625428 -0.08618022 -0.0861038 -0.08602486 -0.0859406 -0.08585107 -0.08575554 -0.08565432 -0.0855484
 -0.08543798 -0.08532406 -0.08520675 -0.08508657 -0.08496405 -0.0848402 -0.08471521 -0.08459044 -0.08446326 -0.08433305
 -0.08419528 -0.08404703 -0.08388819 -0.08371677 -0.08353997 -0.08335868 -0.08318008 -0.08300575 -0.0828352 -0.08266876
 -0.08249988 -0.08232822 -0.08214743 -0.08195777 -0.08175905 -0.08155245 -0.08134392 -0.08113374 -0.08092675 -0.08072067
 -0.08051334 -0.08030207 -0.08008142 -0.07985188 -0.07961168 -0.0793628 -0.0791067 -0.07884265 -0.07857146 -0.07828919
 -0.07799523 -0.07768431 -0.07735535 -0.07700367 -0.07662796 -0.07623018 -0.07580996 -0.0753781 -0.07493507 -0.07448851
 -0.07403781 -0.07357944 -0.07311314 -0.07263505 -0.07214719 -0.07165477 -0.07115769 -0.07066013 -0.07015625 -0.069639
 -0.06910457 -0.06854374 -0.06796362 -0.06736554 -0.06675849 -0.06614954 -0.06553441 -0.06491474 -0.06427844 -0.06362271
 -0.0629419 -0.06223467 -0.06150059 -0.0607401 -0.05994272 -0.05910775 -0.05821306 -0.05725916 -0.05624116 -0.05516506
 -0.05406107 -0.05293138 -0.05180285 -0.05066497 -0.04950858 -0.04832247 -0.04708388 -0.04579208 -0.04443932 -0.04302287
 -0.04154551 -0.03998116 -0.03832276 -0.03653171 -0.03458869 -0.03249208 -0.03022809 -0.027862 -0.02539658 -0.02292272
 -0.02044883 -0.01803151 -0.01567358 -0.01338462 -0.01116122 -0.008973087 -0.006810583 -0.004606715 -0.002354175 1.757498E-05
 0.002484477 0.005040658 0.007629121 0.0101517 0.01259239 0.01488026 0.0170703 0.0191771 0.02125995 0.02335962
 0.0254837 0.02764839 0.02982671 0.03201476 0.03419448 0.03636311 0.03850633 0.04062314 0.04269409 0.04471824
 0.04669763 0.04863266 0.05053348 0.05239327 0.05417994 0.0558841 0.05745142 0.05889014 0.06018938 0.06136726
 0.06245289 0.06344365 0.06435149 0.06515884 0.06584734 0.06643488 0.06691686 0.06734423 0.06773474 0.06811936
 0.06851293 0.06890514 0.06929764 0.06966874 0.07001562 0.07033864 0.07063771 0.07092932 0.07121336 0.07149453
 0.07176906 0.07201829 0.07223752 0.07240154 0.07250635 0.07253248 0.0724728 0.07230759 0.07203173 0.0716263
 0.07110745 0.07047145 0.06976666 0.06900916 0.06826441 0.06755448 0.06694242 0.06644608 0.06611042 0.0659472
 0.06596378 0.06616358 0.06652354 0.06704254 0.06770133 0.06849971 0.06943198 0.0704969 0.07168527 0.07299355
 0.07440423 0.07591487 0.0775108 0.07919188 0.08095148 0.08279014 0.084706 0.08669968 0.08877131 0.09092063
 0.09314763 0.09545173 0.09783287 0.1002901 0.1028239 0.1054301 0.1081086 0.1108531 0.1136632 0.1165309
 0.1194558 0.1224138 0.1254025 0.1283799 0.1313438 0.1342621 0.1371299 0.1399222 0.1426136 0.1451351
 0.1474532 0.1494701 0.1511982 0.1526033 0.153737 0.154633 0.1553186 0.1558246 0.1561364 0.1562604
 0.1561595 0.1558359 0.1552065 0.1542674 0.1528838 0.1510371 0.1486885 0.1458327 0.1426622 0.1391894
 0.1356395 0.1320048 0.1283431 0.1246419 0.1208796 0.1170647 0.1132061 0.1093204 0.1054466 0.1015763
 0.09772584 0.09384975 0.08991314 0.08589264 0.08174215 0.07754195 0.07330269 0.06913216 0.06507103 0.06112742
 0.05731199 0.05359118 0.04995893 0.0464379 0.04302873 0.03978362 0.03670266 0.03379222 0.03104652 0.02842883
 0.02593694 0.02354243 0.02124787 0.01904854 0.01694004 0.01491826 0.01296336 0.01105354 0.009162308 0.007258626
 0.005331995 0.003364432 0.001366818 -0.0006598646 -0.002708689 -0.004777269 -0.006865281 -0.008979538 -0.0110683 -0.01313191
 -0.01506375 -0.01685642 -0.01847045 -0.01990924 -0.02123743 -0.02246114 -0.02365593 -0.02481724 -0.02596804 -0.02709817
 -0.02819182 -0.02924456 -0.03024187 -0.03118091 -0.03205629 -0.03285496 -0.03356712 -0.03417342 -0.03465963 -0.03501467
 -0.03522971 -0.03530493 -0.03523909 -0.03503245 -0.03468603 -0.03419193 -0.03354991 -0.03274681 -0.03178147 -0.03065382
 -0.02936681 -0.02797234 -0.02648387 -0.02502238 -0.02360069 -0.02234068 -0.02123532 -0.02033109 -0.01960818 -0.01905365
 -0.0186466 -0.01836066 -0.01816621 -0.01803567 -0.01792678 -0.01780893 -0.01764787 -0.01741574 -0.01712383 -0.01676242
 -0.01638611 -0.01600464 -0.01564939 -0.01532857 -0.01501981 -0.01472268 -0.01439708 -0.01404171 -0.01363498 -0.01317875
 -0.01267737 -0.01213273 -0.01155697 -0.01094626 -0.01029933 -0.009604846 -0.008842451 -0.008000283 -0.007053562 -0.005999086
 -0.004826473 -0.003532927 -0.002118904 -0.0005649343 0.001134708 0.003003744 0.005053627 0.007280298 0.009687506 0.01224906
 0.01496026 0.01782346 0.02083737 0.02404752 0.02745464 0.03107354 0.03488953 0.03880087 0.04277846 0.0466422
 0.05037392 0.05383385 0.05701158 0.05983333 0.06226791 0.06425326 0.06574209 0.06666811 0.0670089 0.06672131
 0.06583609 0.06434376 0.06232508 0.05979037 0.05685381 0.05353113 0.0499489 0.04611971 0.04217206 0.03811466
 0.03407485 0.03005852 0.02616285 0.02238657 0.01876318 0.01528669 0.01194596 0.008742273 0.005671097 0.002742524
 -2.408083E-05 -0.002625725 -0.005045265 -0.00729798 -0.009387929 -0.01134175 -0.01317474 -0.01491535 -0.01657771 -0.01818701
 -0.01975365 -0.02129153 -0.02280668 -0.02429513 -0.02575802 -0.02718141 -0.02856451 -0.0298941 -0.03116927 -0.03237252
 -0.03350123 -0.03452515 -0.0354417 -0.03622033 -0.03686538 -0.03737018 -0.0377482 -0.03802071 -0.03820432 -0.03832949
 -0.03841042 -0.03847033 -0.03852003 -0.03857225 -0.03863562 -0.03871594 -0.03882182 -0.03895621 -0.03912793 -0.03933902
 -0.03959595 -0.03989967 -0.04025511 -0.04066259 -0.04112877 -0.04165394 -0.04224342 -0.04289615 -0.04360635 -0.04436977
 -0.04516499 -0.04598497 -0.04679878 -0.04759886 -0.0483555 -0.049064 -0.04970492 -0.05027807 -0.05077604 -0.05120127
 -0.05155263 -0.05183477 -0.05204776 -0.05220224 -0.05229937 -0.05235718 -0.05237873 -0.05238161 -0.05236875 -0.05234915
 -0.05232391 -0.05229472 -0.05226171 -0.05222617 -0.05218862 -0.0521541 -0.05212378 -0.05210591 -0.05210164 -0.05211888
 -0.05215815 -0.05222413 -0.05231735 -0.05244024 -0.05259383 -0.05278013 -0.05299946 -0.05325336 -0.05353935 -0.05385744
 -0.05420238 -0.05457326 -0.05496277 -0.05536985 -0.05578586 -0.05620991 -0.05663264 -0.05705334 -0.05746289 -0.05786081
 -0.05823919 -0.0585979 -0.0589322 -0.05924264 -0.05952939 -0.05979302 -0.06003584 -0.06025702 -0.06045642 -0.06063188
 -0.06078043 -0.06089961 -0.06098611 -0.06103751 -0.06105129 -0.06102547 -0.06095809 -0.06084977 -0.06069961 -0.06051175
 -0.06028633 -0.06003009 -0.05974344 -0.05943578 -0.05910753 -0.0587723 -0.05843088 -0.05809975 -0.05777993 -0.05748785
 -0.05722451 -0.05700398 -0.05682639 -0.05670029 -0.05662369 -0.05659717 -0.05661692 -0.05667771 -0.05677606 -0.05690662
 -0.05706689 -0.05725381 -0.05746495 -0.05769863 -0.05795253 -0.05822555 -0.05851641 -0.05882461 -0.05914978 -0.05949195
 -0.05984994 -0.06022382 -0.06060962 -0.0610071 -0.06140896 -0.06181467 -0.06221577 -0.06261202 -0.06299755 -0.06337284
 -0.06373633 -0.06408875 -0.06443108 -0.0647637 -0.06508785 -0.06540301 -0.06570939 -0.0660054 -0.06628998 -0.06656186
 -0.0668196 -0.06706451 -0.06729631 -0.06751806 -0.06773038 -0.06793558 -0.06813408 -0.06832715 -0.0685149 -0.06869896
 -0.06887941 -0.06905659 -0.06923022 -0.0693971 -0.06955668 -0.06970407 -0.06983915 -0.06995901 -0.07006357 -0.07015155
 -0.07022199 -0.07027316 -0.07030338 -0.07031009 -0.07029245 -0.07024886 -0.07017966 -0.07008477 -0.06996404 -0.06981816
 -0.06964362 -0.06944054 -0.06920152 -0.06892566 -0.06860568 -0.06824052 -0.06782993 -0.06737384 -0.06688116 -0.06635273
 -0.06580149 -0.06522794 -0.06464208 -0.06404325 -0.06343485 -0.06281514 -0.06218185 -0.06153322 -0.06086516 -0.0601774
 -0.05946762 -0.05873753 -0.05798768 -0.05721959 -0.0564347 -0.05563207 -0.05481178 -0.0539722 -0.0531121 -0.05223497
 -0.05134014 -0.05043856 -0.0495308 -0.04863082 -0.04773945 -0.04686631 -0.04601137 -0.04517639 -0.04436018 -0.04355712
 -0.04276487 -0.04197286 -0.04117782 -0.04036712 -0.03953791 -0.03867951 -0.03779168 -0.03686904 -0.03591549 -0.03493156
 -0.03392341 -0.0328945 -0.03184889 -0.03078873 -0.02971643 -0.02863129 -0.02754352 -0.02645201 -0.02538437 -0.0243418
 -0.02336395 -0.02245316 -0.0216393 -0.02092211 -0.02030357 -0.01977997 -0.01932942 -0.01894851 -0.01861265 -0.01832173
 -0.01806316 -0.01783834 -0.01764465 -0.01748171 -0.01734874 -0.01724355 -0.01716451 -0.01710883 -0.01707553 -0.01705925
 -0.01705902 -0.01706572 -0.01707734 -0.0170852 -0.0170873 -0.0170805 -0.01706405 -0.01703937 -0.01700648 -0.01696636
 -0.01691891 -0.01686286 -0.01679835 -0.0167251 -0.01664452 -0.01656124 -0.01647779 -0.01640273 -0.01633776 -0.01628977
 -0.01625902 -0.01624798 -0.01625803 -0.01628967 -0.01634857 -0.01643692 -0.01656305 -0.01673076 -0.016945 -0.01720896
 -0.01751877 -0.01787562 -0.01826587 -0.01868893 -0.01912609 -0.01957621 -0.0200239 -0.02046877 -0.02090349 -0.02132831
 -0.02174154 -0.02214256 -0.02252883 -0.02289783 -0.02324246 -0.02355916 -0.0238382 -0.02407799 -0.02427153 -0.02442231
 -0.02452907 -0.02460153 -0.02464295 -0.02466772 -0.02468039 -0.0246982 -0.02472526 -0.02477958 -0.02486464 -0.02499405
 -0.02517021 -0.02539534 -0.02566993 -0.02598354 -0.0263352 -0.02670779 -0.02710005 -0.02749539 -0.02789278 -0.02827935
 -0.02865449 -0.02900975 -0.02934573 -0.02965895 -0.02995204 -0.03022673 -0.0304858 -0.0307323 -0.03096778 -0.03119276
 -0.03141244 -0.03162575 -0.0318503 -0.03208721 -0.03236732 -0.0326948 -0.03310154 -0.03359181 -0.0341842 -0.03488059
 -0.03567795 -0.03657498 -0.03754621 -0.03858766 -0.03965937 -0.04075693 -0.04184109 -0.04290964 -0.04393651 -0.04492208
 -0.04585465 -0.04673686 -0.04756666 -0.04834901 -0.04908724 -0.0497863 -0.05045074 -0.05108127 -0.05167977 -0.05224353
 -0.05277187 -0.05326388 -0.05371885 -0.05413952 -0.05452595 -0.05488207 -0.05520806 -0.05550963 -0.0557873 -0.05605107
 -0.05630171 -0.05655018 -0.05679576 -0.05704208 -0.05728608 -0.05752159 -0.05774531 -0.05794762 -0.05812834 -0.05828252
 -0.05841334 -0.05852192 -0.05861099 -0.05868353 -0.05873753 -0.05877388 -0.05878619 -0.0587732 -0.05872828 -0.05864918
 -0.05853682 -0.05838995 -0.05822153 -0.05803198 -0.05784339 -0.05765685 -0.05749198 -0.05734888 -0.05723714 -0.05715626
 -0.05710913 -0.0570954 -0.05711621 -0.05716974 -0.05725452 -0.05736488 -0.05749404 -0.05763369 -0.05777447 -0.05790899
 -0.05802988 -0.05813339 -0.05821604 -0.05827706 -0.05831589 -0.05833108 -0.05832287 -0.05828635 -0.05822111 -0.05812184
 -0.05798797 -0.0578199 -0.05761795 -0.05739119 -0.05714127 -0.05688488 -0.05662534 -0.0563853 -0.0561695 -0.05600301
 -0.05588918 -0.05584772 -0.05587601 -0.05598106 -0.05615205 -0.05638412 -0.05665933 -0.0569675 -0.05728673 -0.05760684
 -0.05790644 -0.05817754 -0.05840516 -0.0585843 -0.0587115 -0.05878501 -0.05881107 -0.05878989 -0.05872913 -0.0586291
 -0.0584939 -0.05832383 -0.05812253 -0.0578911 -0.0576364 -0.05735964 -0.05706797 -0.0567621 -0.05644613 -0.05612198
 -0.05579326 -0.05546341 -0.05513765 -0.05481607 -0.05450203 -0.05418851 -0.05387396 -0.05354966 -0.05321136 -0.05285971
 -0.05249233 -0.05212266 -0.05175151 -0.05139548 -0.05105612 -0.0507405 -0.05044874 -0.05017627 -0.04992254 -0.04968065
 -0.04945058 -0.0492293 -0.0490159 -0.04880707 -0.04859955 -0.04838551 -0.04816141 -0.04791858 -0.0476561 -0.04736961
 -0.04706035 -0.04672759 -0.04637383 -0.04599951 -0.04560871 -0.04520248 -0.04478519 -0.04435811 -0.04392276 -0.04347953
 -0.04302841 -0.04256917 -0.0421071 -0.04164265 -0.04118934 -0.040748 -0.04033289 -0.03994319 -0.03958302 -0.03924925
 -0.03893433 -0.03863563 -0.03834356 -0.03805817 -0.03777517 -0.03749621 -0.03722153 -0.03695241 -0.03668976 -0.0364346
 -0.03618743 -0.03594971 -0.03572203 -0.03550521 -0.03529956 -0.03510536 -0.03492288 -0.03475087 -0.0345895 -0.03443313
 -0.03428137 -0.03412367 -0.03395953 -0.03377963 -0.03358465 -0.03337258 -0.03314558 -0.03290902 -0.03266565 -0.03242406
 -0.03218552 -0.03195662 -0.03173447 -0.03151954 -0.03130581 -0.03108919 -0.03086534 -0.03063095 -0.0303845 -0.03012475
 -0.02985139 -0.02956367 -0.02926437 -0.02895307 -0.02863831 -0.02832065 -0.02800877 -0.02770307 -0.02740459 -0.02711258
 -0.02681941 -0.02652394 -0.02621585 -0.02589516 -0.02555555 -0.02519971 -0.02482978 -0.02444996 -0.024068 -0.02368539
 -0.02330695 -0.02293176 -0.0225594 -0.022193 -0.02183284 -0.02148584 -0.0211554 -0.02084153 -0.02054667 -0.02025874
 -0.01997665 -0.01968795 -0.01939094 -0.01908574 -0.0187724 -0.01846142 -0.01815319 -0.01785601 -0.01756856 -0.01728831
 -0.017013 -0.01673313 -0.01644879 -0.01615435 -0.01585396 -0.01555127 -0.01525099 -0.01496049 -0.01467996 -0.01441316
 -0.01415462 -0.01390315 -0.01365182 -0.01339745 -0.01313784 -0.01287075 -0.0126024 -0.01233279 -0.01207208 -0.01182138
 -0.01158495 -0.01136304 -0.01115035 -0.01094611 -0.01073975 -0.01053039 -0.01030766 -0.01007105 -0.009812966 -0.009534255
 -0.009232607 -0.008910283 -0.008570009 -0.008213108 -0.007842473 -0.007457478 -0.007058183 -0.006645102 -0.006216896 -0.005780192
 -0.005334869 -0.004895774 -0.004465207 -0.004060595 -0.003685538 -0.003346885 -0.003046612 -0.002773493 -0.002527001 -0.002285973
 -0.00204952 -0.001800813 -0.001540229 -0.001260767 -0.0009644047 -0.0006533234 -0.0003314947 -8.38851E-06 0.0003108912 0.0006139587
 0.0008975298 0.001152792 0.001379664 0.001574595 0.001740836 0.00187852 0.001992964 0.002085788 0.00216207 0.002222955
 0.002273369 0.002313063 0.002354228 0.00239717 0.002463125 0.002553317 0.002683465 0.002852931 0.003056458 0.00329122
 0.003536979 0.003792502 0.004041763 0.004287146 0.004525953 0.004761992 0.005000997 0.005243951 0.005495027 0.005751675
 0.006011805 0.006277948 0.006547088 0.006836191 0.007149662 0.007505922 0.00791584 0.008360238 0.008841516 0.009310537
 0.009760661 0.01018404 0.01057958 0.01097859 0.01138186 0.01180797 0.01225307 0.01270382 0.01315249 0.01356446
 0.01393198 0.01421873 0.01442093 0.01451404 0.01450291 0.01438087 0.01416253 0.01385434 0.0134784 0.01304502
 0.01258252 0.01210122 0.01163081 0.01118032 0.01077018 0.01040564 0.01009429 0.009837977 0.009633987 0.009482412
 0.009369415 0.009293656 0.009232133 0.009183436 0.009126493 0.009061784 0.008979459 0.008881723 0.008768073 0.008643049
 0.00851344 0.008384888 0.008270654 0.008162449 0.008067057 0.007945575 0.007781427 0.007532381 0.00716941 0.006705495
 0.006125925 0.005515555 0.004881041 0.004328244 0.003871002 0.003558912 0.003396943 0.003352118 0.00342149 0.003548758
 0.003734969 0.003961435 0.004230883 0.004547527 0.004905404 0.005292286 0.005699233 0.006102761 0.006502999 0.006889769
 0.007268532 0.007642558 0.00800988 0.008372195 0.008720223 0.009049762 0.00935792 0.009640303 0.009911007 0.01016998
 0.01044213 0.01073058 0.01104911 0.01139929 0.0117673 0.01215165 0.01252299 0.01288123 0.01321111 0.01351591
 0.01380161 0.01406973 0.01432854 0.01457503 0.01480759 0.01502328 0.01521745 0.01538912 0.01553586 0.01565759
 0.01575253 0.01582475 0.01587366 0.01591038 0.01593763 0.01596458 0.0159949 0.01602282 0.01604915 0.01605601
 0.01604222 0.01599608 0.01591794 0.01581685 0.01569496 0.01557321 0.01545169 0.01534258 0.01524271 0.01514962
 0.01506057 0.01496934 0.01487462 0.01477341 0.01466169 0.014536 0.01438994 0.01421843 0.01401814 0.01378503
 0.01352395 0.01323353 0.01292825 0.01260968 0.01229487 0.01198677 0.01168878 0.01140183 0.01110979 0.010812
 0.01049544 0.01016212 0.009821959 0.00947767 0.009147448 0.008829592 0.008528415 0.008241857 0.007966293 0.00770506
 0.007461114 0.00723733 0.007039029 0.006862299 0.006706238 0.006567324 0.006442954 0.00633487 0.00624404 0.006167282
 0.006105393 0.006047096 0.005990999 0.005930284 0.005864125 0.005796125 0.005726326</values></Ydata></AB><ScSm><Ydata ylabel="Single channel"><values byteorder="INTEL" format="FLOAT32" numvalues="1814"> 0.08619586 0.08629918 0.08641753 0.08656125 0.08672397 0.08688846 0.08703904 0.08717129 0.08728985 0.08739737
 0.08749438 0.0875925 0.08771455 0.08787225 0.08805038 0.08821683 0.0883473 0.08844647 0.08854864 0.08868512
 0.08884133 0.08895671 0.08897939 0.08892192 0.08885665 0.08885197 0.08892582 0.08907738 0.08932984 0.08966908
 0.0899538 0.09000605 0.08983567 0.08967043 0.08970435 0.08990303 0.09009913 0.09017706 0.09011701 0.08997758
 0.08992013 0.09016019 0.09077229 0.09152823 0.091967 0.09166263 0.09050894 0.08887045 0.08749279 0.08711313
 0.0879295 0.0893802 0.09056365 0.09096435 0.09073203 0.09029787 0.08992511 0.08970162 0.08973829 0.09015048
 0.09087142 0.09157601 0.09180702 0.09127627 0.09019025 0.08921169 0.08891742 0.08935007 0.09022191 0.09126319
 0.09196942 0.09134299 0.08877603 0.08539528 0.0837132 0.08530696 0.08916702 0.09274599 0.09427799 0.09371433
 0.09198709 0.09018634 0.0892708 0.08973996 0.09130828 0.0931887 0.09471865 0.09553601 0.09541062 0.09435167
 0.09282935 0.09157688 0.09118076 0.09190899 0.09360363 0.09551708 0.09660894 0.09636426 0.09518154 0.09385922
 0.09300697 0.09301211 0.09407267 0.09596261 0.0980521 0.09976915 0.1008972 0.1014551 0.1015579 0.1013875
 0.1011012 0.100813 0.1007192 0.1009974 0.1014585 0.1015843 0.101105 0.1003646 0.09997153 0.1001716
 0.1006387 0.1008715 0.1006906 0.1001435 0.09899333 0.09683584 0.09392637 0.09130846 0.08979671 0.08940506
 0.09000528 0.09167419 0.09389934 0.09533387 0.09514975 0.09415578 0.0939251 0.09509413 0.09696165 0.09850913
 0.09938894 0.09998034 0.1007945 0.1018977 0.1027647 0.1026669 0.1014201 0.09984946 0.09924164 0.1000992
 0.1016495 0.1027913 0.103251 0.103548 0.104081 0.1045504 0.1042207 0.1027083 0.1006384 0.09942451
 0.1001024 0.102306 0.1044606 0.1049773 0.1033818 0.1005662 0.09804153 0.09685522 0.09718221 0.0987511
 0.1012197 0.1040214 0.1062809 0.1072565 0.1068537 0.1055972 0.1040616 0.1023391 0.1002474 0.09816056
 0.09722868 0.09830308 0.1008441 0.1033509 0.1047502 0.104994 0.1044487 0.1031684 0.1009888 0.09826303
 0.09619029 0.09592979 0.09728387 0.0987439 0.09909315 0.09854415 0.09805667 0.09802559 0.09806655 0.09781265
 0.09746183 0.09749096 0.09804518 0.09875143 0.09911238 0.09896469 0.09851526 0.09804767 0.09765489 0.09718867
 0.09648912 0.09573758 0.09544636 0.09591942 0.09684475 0.09760964 0.09790564 0.09784974 0.09761599 0.09714266
 0.09624453 0.09498256 0.09384316 0.09339678 0.09374395 0.09443782 0.09495936 0.09510405 0.09493007 0.09456383
 0.09411746 0.09365858 0.09321849 0.0928629 0.09268587 0.09268116 0.09270478 0.09261741 0.09239675 0.09208493
 0.09169976 0.09123857 0.09073502 0.09027644 0.08994968 0.0897699 0.08967887 0.08960699 0.08950442 0.08932549
 0.0890414 0.08867866 0.08830303 0.08795954 0.0876559 0.08739525 0.08718984 0.08703686 0.08690313 0.08674704
 0.0865514 0.08632628 0.08608342 0.08582421 0.08555505 0.08529857 0.08508225 0.08491924 0.0847958 0.08467887
 0.08455121 0.08443312 0.08434388 0.08425245 0.08410347 0.08388871 0.08365878 0.08346708 0.08332781 0.08322256
 0.08312315 0.08300305 0.08284132 0.08263343 0.08241069 0.08223538 0.08215491 0.08216396 0.08222294 0.08229387
 0.08234442 0.08234726 0.08230166 0.08223666 0.08217575 0.08211474 0.08204238 0.08196752 0.08192013 0.08192876
 0.08199251 0.0820756 0.08213708 0.08216114 0.08215602 0.08214311 0.0821528 0.08220221 0.08226594 0.08229599
 0.08228216 0.08226728 0.08229373 0.08235507 0.08241076 0.08243476 0.08243997 0.08245891 0.0825082 0.08257739
 0.08264853 0.08271722 0.08279215 0.08287862 0.08296322 0.08301684 0.0830229 0.08300182 0.08299392 0.08301841
 0.08306471 0.08312104 0.08319114 0.08327734 0.08336377 0.0834267 0.08345871 0.08347649 0.08350164 0.08353537
 0.08355881 0.08355831 0.08354135 0.08352524 0.08351886 0.08351839 0.08351374 0.08349587 0.08346112 0.08341144
 0.0833507 0.08328129 0.08320384 0.08312012 0.08303885 0.08297496 0.08293395 0.08289628 0.08282758 0.08271116
 0.08256582 0.08242786 0.08231865 0.08223157 0.0821467 0.08205333 0.08195736 0.081871 0.08180138 0.08174926
 0.08171311 0.0816908 0.08168233 0.08169506 0.08174089 0.08182124 0.08191781 0.0820067 0.08208075 0.08215287
 0.08223891 0.08234429 0.08246598 0.08259921 0.08274141 0.0828933 0.08305469 0.08321799 0.08337198 0.08351566
 0.08366212 0.08382535 0.08401009 0.08421487 0.08443416 0.08465454 0.08486086 0.08505252 0.08524607 0.08545637
 0.0856828 0.08591807 0.08616178 0.08641908 0.08669128 0.08697584 0.08727363 0.08758979 0.08792729 0.08828209
 0.08864499 0.08900692 0.0893646 0.08972394 0.09009714 0.09049336 0.09090969 0.09133285 0.09175118 0.09216501
 0.09258308 0.09301001 0.09344169 0.09387505 0.09431738 0.09477921 0.0952601 0.09574746 0.09623007 0.09670809
 0.09718819 0.09767357 0.09816107 0.09864679 0.0991324 0.09962405 0.1001234 0.100622 0.1011083 0.1015812
 0.1020514 0.1025293 0.1030158 0.1035027 0.1039777 0.1044308 0.1048639 0.1052938 0.1057371 0.1061909
 0.1066385 0.1070734 0.1075078 0.1079531 0.108401 0.1088306 0.1092317 0.1096162 0.1100046 0.1104033
 0.1107977 0.1111681 0.11151 0.111837 0.1121655 0.1125022 0.1128479 0.1132048 0.1135701 0.1139297
 0.1142666 0.1145783 0.1148772 0.1151746 0.1154716 0.1157648 0.116053 0.1163381 0.1166231 0.1169087
 0.1171906 0.1174672 0.1177497 0.1180557 0.1183911 0.1187464 0.119115 0.1195028 0.1199133 0.120333
 0.1207446 0.121151 0.1215719 0.1220123 0.1224464 0.1228439 0.1232029 0.1235442 0.123884 0.1242278
 0.1245868 0.1249786 0.1254084 0.1258589 0.1263011 0.1267129 0.1270935 0.1274627 0.1278401 0.1282189
 0.1285699 0.1288715 0.1291315 0.1293769 0.1296313 0.1298998 0.1301679 0.1304119 0.1306116 0.1307525
 0.1308182 0.1307905 0.1306654 0.1304592 0.1301894 0.1298503 0.1294166 0.1288681 0.1282017 0.1274212
 0.1265256 0.1255177 0.1244236 0.123306 0.1222589 0.1213872 0.1207819 0.1205033 0.1205747 0.1209762
 0.1216347 0.1224217 0.1231736 0.1237306 0.1239759 0.1238569 0.1233858 0.1226211 0.1216412 0.120524
 0.1193406 0.1181546 0.1170205 0.1159851 0.1151025 0.1144487 0.1141177 0.1142165 0.1148743 0.1162326
 0.1183624 0.1211438 0.1242406 0.1272393 0.1298482 0.1319904 0.1337469 0.1352444 0.1365833 0.1378197
 0.1389748 0.1400513 0.1410477 0.141961 0.1427836 0.1435004 0.1440905 0.1445334 0.1448225 0.1449769
 0.1450421 0.1450772 0.145141 0.1452784 0.1454973 0.1457485 0.145935 0.1459553 0.1457457 0.1452941
 0.1446398 0.1438963 0.1433026 0.1432344 0.1440846 0.1460302 0.1488667 0.1520868 0.1551586 0.157762
 0.1598266 0.1614305 0.1626962 0.1637375 0.1646387 0.1654497 0.1661968 0.1668952 0.1675557 0.1681863
 0.168794 0.1693856 0.1699673 0.1705432 0.1711141 0.1716774 0.172233 0.1727855 0.1733399 0.1738953
 0.1744443 0.1749794 0.175502 0.1760226 0.1765497 0.1770793 0.1775991 0.1781009 0.1785873 0.1790664
 0.1795468 0.1800331 0.1805207 0.1809976 0.1814543 0.1818928 0.1823218 0.1827459 0.1831635 0.1835725
 0.1839753 0.1843757 0.184774 0.1851681 0.1855583 0.1859477 0.1863365 0.1867196 0.1870928 0.1874582
 0.1878224 0.1881903 0.1885636 0.1889424 0.1893259 0.1897134 0.1901052 0.1905018 0.1909019 0.1913001
 0.1916911 0.1920744 0.1924538 0.1928345 0.1932188 0.1936056 0.193992 0.1943765 0.1947598 0.1951417
 0.1955206 0.1958949 0.1962653 0.1966341 0.1970025 0.1973707 0.1977386 0.1981052 0.1984677 0.1988236
 0.1991746 0.1995261 0.199881 0.2002356 0.2005832 0.2009206 0.2012493 0.2015746 0.2019026 0.2022375
 0.2025797 0.2029263 0.2032743 0.2036229 0.2039726 0.2043213 0.2046649 0.2050025 0.205339 0.205681
 0.20603 0.2063808 0.2067278 0.2070684 0.2074061 0.2077465 0.2080916 0.2084384 0.2087835 0.2091266
 0.2094682 0.2098079 0.2101472 0.2104895 0.2108355 0.2111826 0.2115268 0.2118649 0.2121971 0.2125288
 0.2128643 0.2132013 0.2135344 0.2138645 0.2141977 0.2145376 0.2148813 0.2152231 0.2155604 0.2158958
 0.2162341 0.2165758 0.2169169 0.2172547 0.2175893 0.217922 0.2182554 0.2185926 0.2189336 0.2192737
 0.2196092 0.2199389 0.2202637 0.2205874 0.2209156 0.2212513 0.2215928 0.2219372 0.2222815 0.2226226
 0.22296 0.223296 0.2236317 0.2239676 0.224307 0.2246523 0.2249985 0.2253397 0.2256764 0.2260134
 0.2263545 0.2267013 0.2270513 0.2273978 0.2277358 0.2280651 0.2283869 0.2287048 0.2290258 0.2293541
 0.2296851 0.2300136 0.2303401 0.2306671 0.230996 0.2313299 0.2316694 0.2320086 0.2323427 0.2326742
 0.2330095 0.233353 0.2337055 0.2340623 0.2344168 0.2347692 0.2351233 0.2354774 0.2358289 0.2361831
 0.236546 0.2369142 0.2372814 0.2376451 0.238004 0.2383586 0.2387142 0.239073 0.2394294 0.2397817
 0.2401356 0.2404939 0.2408548 0.2412181 0.2415813 0.2419381 0.2422883 0.242638 0.2429892 0.2433409
 0.243695 0.2440499 0.2444001 0.244749 0.2451066 0.2454733 0.2458428 0.2462134 0.246582 0.2469416
 0.2472946 0.2476507 0.2480098 0.2483655 0.248718 0.2490662 0.2494048 0.2497382 0.2500741 0.2504025
 0.2506936 0.2508876 0.2508342 0.2502172 0.2485058 0.2449571 0.2387566 0.2293402 0.2167274 0.2016246
 0.1852322 0.1688729 0.153632 0.1402031 0.1289591 0.1200903 0.1137076 0.1099361 0.1089859 0.1112508
 0.1174436 0.1281732 0.1423886 0.1560375 0.1635849 0.1622008 0.1543202 0.1454334 0.1396204 0.1375517
 0.1378635 0.1391969 0.1410043 0.1434059 0.1467263 0.1510118 0.1559762 0.1614698 0.1677544 0.1750986
 0.1832519 0.1915336 0.1994025 0.206804 0.2139701 0.2210023 0.2277116 0.2338003 0.2390918 0.2435867
 0.2474025 0.2507037 0.2536405 0.2563114 0.2587753 0.2610624 0.2631333 0.2648601 0.2660995 0.2668076
 0.2670942 0.267172 0.2672405 0.2673997 0.2676611 0.2680106 0.2684391 0.2689375 0.2694982 0.2701141
 0.2707671 0.27143 0.2720852 0.2727269 0.2733498 0.27395 0.274527 0.2750771 0.2755963 0.2760897
 0.2765667 0.2770298 0.277479 0.2779184 0.2783518 0.2787809 0.2792089 0.2796347 0.2800481 0.2804394
 0.2808079 0.2811565 0.2814893 0.281814 0.2821383 0.2824633 0.2827877 0.2831115 0.2834318 0.2837462
 0.2840583 0.2843736 0.2846913 0.2850076 0.2853202 0.2856265 0.2859268 0.2862279 0.2865366 0.286851
 0.2871668 0.2874835 0.2878015 0.2881185 0.2884313 0.2887381 0.2890424 0.2893553 0.2896867 0.2900328
 0.2903824 0.2907324 0.291087 0.2914484 0.2918158 0.2921885 0.292562 0.292929 0.2932889 0.2936456
 0.293997 0.2943351 0.2946553 0.2949622 0.295267 0.2955812 0.2959085 0.2962425 0.2965767 0.2969103
 0.2972431 0.2975734 0.2979022 0.2982316 0.2985626 0.2989028 0.2992663 0.2996571 0.3000618 0.3004662
 0.3008678 0.3012694 0.3016724 0.3020783 0.3024859 0.3028867 0.3032727 0.3036494 0.3040364 0.3044549
 0.3049076 0.3053722 0.3058192 0.3062411 0.3066548 0.3070818 0.3075323 0.3079952 0.3084336 0.308809
 0.3091333 0.3094773 0.309907 0.3104207 0.3109627 0.3114827 0.311969 0.3124331 0.312883 0.3133133
 0.3137116 0.3140713 0.3144078 0.314767 0.3151993 0.3157092 0.3162436 0.3167452 0.3171996 0.3176208
 0.3180225 0.3184158 0.3187953 0.3191163 0.319339 0.31952 0.3198072 0.3203004 0.3209412 0.3215754
 0.3221075 0.3225583 0.3229855 0.3234055 0.323806 0.3241596 0.3243824 0.3243773 0.3242119 0.324183
 0.3245743 0.3253683 0.3262829 0.3270575 0.3276269 0.3280583 0.3284342 0.3287978 0.3291264 0.3293336
 0.3293595 0.3293049 0.3294177 0.329868 0.3305588 0.3312322 0.3317398 0.3321267 0.3324935 0.3328804
 0.3332445 0.3334345 0.3332581 0.332745 0.3323224 0.3325371 0.3335266 0.3348637 0.3359838 0.3366864
 0.3371377 0.3374785 0.3376154 0.3373941 0.3367886 0.3359119 0.335072 0.3348212 0.3355936 0.3371517
 0.3386837 0.3396168 0.3401096 0.3406419 0.3413894 0.3421495 0.3426732 0.3428884 0.342858 0.3426354
 0.3422379 0.3418153 0.3417476 0.3423779 0.3436124 0.3449444 0.3459317 0.3465469 0.3469695 0.3470697
 0.3462763 0.344251 0.341773 0.3405443 0.3416801 0.3445358 0.3474049 0.3492063 0.3500786 0.3505873
 0.3509869 0.3511464 0.3505334 0.3483928 0.3447748 0.3414314 0.3407527 0.343412 0.347612 0.3508253
 0.3517242 0.3504518 0.3479801 0.345665 0.3447668 0.3457623 0.348138 0.3509156 0.3532432 0.3546269
 0.354959 0.3544714 0.3536403 0.3530554 0.3530495 0.3532006 0.3525947 0.3510104 0.3493452 0.3482346
 0.3468863 0.3443766 0.3417087 0.3411905 0.343578 0.3469819 0.3490542 0.349389 0.3491092 0.3486086
 0.3466195 0.3418921 0.3355178 0.3309011 0.3308403 0.3347319 0.3391699 0.3412911 0.3410357 0.3401721
 0.3398035 0.3391973 0.3368739 0.3326931 0.3286567 0.3271163 0.328145 0.3294361 0.3288608 0.3259794
 0.3209351 0.3138844 0.306712 0.3034042 0.3065268 0.3140099 0.320967 0.3239118 0.3218603 0.3148697
 0.3043423 0.29448 0.2904046 0.2934438 0.2995815 0.3033401 0.3021073 0.2962612 0.2869126 0.2753631
 0.2642169 0.2570944 0.2563225 0.2610705 0.2675745 0.2708443 0.2672194 0.2572457 0.2463174 0.2406219
 0.2413951 0.244164 0.2440404 0.2403091 0.2354365 0.2316521 0.2296882 0.2292505 0.229382 0.2291924
 0.2285485 0.226909 0.222082 0.2126876 0.2019115 0.1958394 0.197162 0.202971 0.2094044 0.2154896
 0.2210644 0.2240354 0.222596 0.2188227 0.2173663 0.2205019 0.2259859 0.2299738 0.230971 0.2304356
 0.2301496 0.2300367 0.2290984 0.2278231 0.2282679 0.231392 0.235486 0.238014 0.2381782 0.2369232
 0.2352119 0.2332429 0.23092 0.2282325 0.2252229 0.2220066 0.2187625 0.2155429 0.2122476 0.2088446
 0.205314 0.2012137 0.1957456 0.1888843 0.1823086 0.1783025 0.1774457 0.1782502 0.1792939 0.1802835
 0.1803572 0.1773316 0.1706155 0.1638352 0.1623661 0.1681495 0.1781117 0.187498 0.1935212 0.1957113
 0.1943953 0.1906028 0.1874177 0.1894572 0.1993163 0.214889 0.2312773 0.2449326 0.2550065 0.2615191
 0.2641442 0.2632902 0.261259 0.2613499 0.2656486 0.2736868 0.2828214 0.2894062 0.2903566 0.2857405
 0.2806175 0.2819622 0.2916194 0.3037414 0.3112242 0.3131919 0.313911 0.3160795 0.3185093 0.3198905
 0.3214395 0.3247755 0.3291702 0.3321135 0.3315311 0.3266471 0.3179761 0.3079421 0.3005322 0.2982624
 0.2995998 0.3009053 0.3002686 0.2975886 0.2922611 0.2842097 0.2768652 0.2753286 0.2805448 0.2878988
 0.2924917 0.2937174 0.293819 0.2937958 0.2922131 0.2876127 0.2810801 0.2757672 0.2737644 0.2740816
 0.2741859 0.2727061 0.2696868 0.2650487 0.2584977 0.2510471 0.2452005 0.2428222 0.2433091 0.2443796
 0.2443871 0.2434616 0.2427155 0.2430169 0.2445595 0.2470369 0.2500557 0.2537184 0.2587107 0.2653293
 0.272582 0.2789353 0.2839722 0.2886859 0.2940317 0.2997173 0.3046113 0.3079974 0.3102452 0.3124304
 0.3154138 0.3191469 0.3227241 0.3251712 0.3263611 0.3271953 0.3287531 0.33124 0.3339097 0.3359649
 0.3372761 0.3382277 0.3392016 0.3403055 0.3413505 0.3420283 0.3423515 0.3429328 0.3445435 0.3473063
 0.3505106 0.3532726 0.3552076 0.3564408 0.3571845 0.3574829 0.3573205 0.3568236 0.3562667 0.3558865
 0.3557343 0.3557126 0.355709 0.3556792 0.3556475 0.3556802 0.3558494 0.3561924 0.3567025 0.3573562
 0.358127 0.3589671 0.3598106 0.3606196 0.3613994 0.362143 0.3627828 0.3632225 0.363393 0.3632527
 0.3627529 0.3618369 0.3604592 0.358577 0.3561519 0.3532607 0.3502809 0.347928 0.3469656 0.3477393
 0.3499295 0.3527557 0.3554407 0.3575519 0.3590317 0.3600251 0.3607098 0.3612162 0.3616183 0.3619492
 0.3622251 0.3624658 0.3626966 0.3629326 0.3631741 0.3634186 0.3636677 0.3639184 0.3641518 0.364336
 0.3644362 0.3644267 0.3642994 0.3640627 0.3637292 0.363297 0.362744 0.3620452 0.3612019 0.3602579
 0.3592818 0.3583272 0.357399 0.3564529 0.3554266 0.3542672 0.3529137 0.351283 0.3493382 0.3471956
 0.3450988 0.3432265 0.3415395 0.339848 0.337992 0.335925 0.3336684 0.3312569 0.3287287 0.3261195
 0.3234456 0.3206972 0.3178494 0.3148819 0.3118013 0.3086448 0.3054573 0.3022637 0.299068 0.2958597
 0.2925946 0.2891673 0.2854218 0.2811978 0.2763714 0.2708676 0.2646794 0.2579084 0.2507882 0.243634
 0.2367399 0.2303031 0.2244303 0.2191969 0.2146898 0.2110008 0.2081964 0.2063047 0.2053279 0.2052569
 0.2060671 0.2077064 0.2100877 0.2130882 0.21655 0.2202826 0.2240758 0.2277322 0.2311221 0.2342273
 0.2371242 0.2399017 0.2425888 0.2451573 0.2475728 0.2498198 0.2518812 0.2537247 0.2553256 0.2566954
 0.2578778 0.2589172 0.2598316 0.2606072 0.2612152 0.2616419 0.2619142 0.2621012 0.2622911 0.2625624
 0.262962 0.2634987 0.2641568 0.2649177 0.2657692 0.2666991 0.2676896 0.2687196 0.2697712 0.2708325
 0.2719077 0.273033 0.2742881 0.275789 0.2776517 0.279945 0.2826588 0.2856987 0.2889015 0.2920675
 0.2950061 0.2975799 0.2997257 0.3014439 0.3027664 0.3037255 0.3043467 0.3046611 0.3047116 0.3045439
 0.3042013 0.3037299 0.3031721 0.3025455 0.3018337 0.3010093 0.3000701 0.2990509 0.2979949 0.2969156
 0.2957952 0.2946171 0.2933927 0.2921573 0.2909557 0.2898279 0.2888016 0.2878917 0.2871054 0.2864348
 0.285844 0.2852703 0.2846408 0.2838838 0.282936 0.2817531 0.280314 0.278616 0.2766747 0.2745299
 0.2722443 0.2698936 0.2675539 0.2652791 0.2630785 0.2609147 0.2587182 0.2564112 0.2539499 0.2513664
 0.2487576 0.2462205 0.2437999 0.2414915 0.2392719 0.2371222 0.2350366 0.2330171 0.2310651 0.2291828
 0.2273736 0.2256314 0.2239439 0.2223174 0.2207862 0.2193916 0.21816 0.2170979 0.2161914 0.215409
 0.2147147 0.2140802 0.2134979 0.2129942 0.2126086 0.2123378 0.2121078 0.2118199 0.2114166 0.2109098
 0.2103665 0.2098676 0.2094621 0.2091524 0.2089047 0.2086497 0.2082779 0.2076705 0.2067356 0.205414
 0.2036776 0.2015497 0.1991197 0.1965296 0.1939513 0.1915523 0.1894545 0.1877187 0.1863525 0.1853062
 0.1844804 0.1837853 0.1832062 0.1828045 0.1826561 0.182762 0.1829872 0.183121 0.1830616 0.1829317
 0.1829732 0.1833411 0.1840091 0.1848244 0.1856164 0.186276 0.1867647 0.1870793 0.1872363 0.1872737
 0.1872199 0.1870666 0.1867945 0.1864017 0.1858924 0.1852714 0.1845572 0.183765 0.1828867 0.1819161
 0.1808637 0.1797312 0.1785088 0.1771925 0.1757614 0.1741783 0.1724915 0.170915 0.1697491 0.1692152
 0.1693414 0.1699539 0.1707959 0.1716925 0.1725692 0.1733304 0.1738665 0.1742493 0.1748132 0.1759336
 0.1777082 0.1798515 0.1818902 0.1834634 0.184444 0.1848413 0.1847089 0.1841308 0.1831655 0.1817957
 0.180022 0.1779482 0.1757083 0.1734059 0.1711616 0.1690944 0.1672618 0.1656979 0.1644219 0.1634255
 0.1627569 0.162151 0.1600914 0.1543232 0.1450426 0.1369898 0.1358807 0.142245 0.1506962 0.1557263
 0.1564004 0.1550497 0.1536267 0.1525819 0.1518716 0.151571 0.151715 0.1521694 0.1526802 0.1529809
 0.1529408 0.1525575 0.1517113 0.149934 0.1463937 0.1401923 0.1310382 0.1198707 0.1086589 0.09936222
 0.09297761 0.08934245 0.0875309 0.08648259 0.08560275 0.08498864 0.08511507 0.08632593 0.08861805 0.09177642
 0.09554399 0.09960713 0.1035314 0.1068867 0.1094806 0.1113855 0.1127305 0.1135653 0.1139147 0.113839
 0.11341 0.1126962 0.1117703 0.1106753 0.1093986 0.1079252 0.1063297 0.1048109 0.1036099 0.1028516
 0.1024644 0.1022827 0.1021995 0.1021909 0.1022511 0.1023687 0.1025371 0.1027543 0.1030275 0.1033721
 0.1037764 0.1041827 0.1045305 0.1047997 0.105002 0.1051438 0.105196 0.1051084 0.1048895 0.104639
 0.1044098 0.1040598 0.1033635 0.1023021 0.1011726 0.100389 0.1001952 0.1005277 0.1010923 0.101581
 0.1018619 0.1019921 0.1020709 0.1020928</values></Ydata></ScSm><ScRf><Ydata ylabel="Single channel"><values byteorder="INTEL" format="FLOAT32" numvalues="1820"> 0.06970339 0.0698387 0.06995805 0.0700573 0.07014085 0.07022464 0.07032671 0.07045215 0.07059073 0.07072671
 0.07084909 0.0709561 0.07105175 0.07113798 0.07121588 0.07129654 0.07139924 0.07153133 0.07167611 0.07180546
 0.07190287 0.07197849 0.07206368 0.07218136 0.07231371 0.0724078 0.07242289 0.07237256 0.07231683 0.07231042
 0.0723674 0.07248805 0.07269306 0.07297273 0.07321239 0.07326453 0.07313253 0.07299875 0.07302195 0.07317807
 0.07333495 0.07339974 0.07335454 0.07324508 0.07320177 0.07339805 0.07389127 0.07449568 0.07484178 0.07458859
 0.07364917 0.07231603 0.07119527 0.07088985 0.07156172 0.07275 0.07371774 0.07404718 0.0738633 0.07351605
 0.07321642 0.0730359 0.07306737 0.07340486 0.07399116 0.07456069 0.07474369 0.07430771 0.0734207 0.07262158
 0.07238024 0.07273315 0.07344902 0.07430894 0.07489619 0.07438917 0.07229113 0.06953014 0.06816536 0.06948299
 0.07264933 0.07557636 0.07682181 0.07635146 0.07493293 0.07345991 0.07271507 0.07310432 0.07439387 0.07594168
 0.07720466 0.07788135 0.07778014 0.07691169 0.07566576 0.07464364 0.0743238 0.0749248 0.07631665 0.07788565
 0.07878032 0.07858299 0.07762339 0.07655465 0.07587229 0.0758895 0.0767654 0.07831474 0.08002597 0.0814362
 0.08236825 0.08283234 0.08291914 0.08278087 0.08255236 0.08232862 0.08226652 0.08250567 0.08288792 0.08299121
 0.08260118 0.08200429 0.08169747 0.08187621 0.08226931 0.08246604 0.08232148 0.08187553 0.08093463 0.07916947
 0.07679267 0.07466023 0.0734358 0.07312794 0.07363525 0.07502484 0.07687193 0.07806361 0.07792056 0.0771144
 0.07694133 0.07792146 0.07947428 0.08076134 0.08149884 0.08200184 0.0826921 0.08362202 0.08435535 0.08429079
 0.08327894 0.08200561 0.08153612 0.08228335 0.08360389 0.08458599 0.08500621 0.08529654 0.08578524 0.08622119
 0.08599392 0.08478872 0.08313137 0.08219914 0.08284798 0.0847663 0.08664273 0.08715788 0.08591984 0.08367449
 0.08168289 0.08081681 0.08121989 0.0826682 0.08488145 0.08738796 0.08945034 0.09043797 0.09026174 0.08935924
 0.088218 0.08692126 0.08532059 0.08374334 0.08317587 0.08433965 0.08676121 0.08914886 0.09058259 0.09102181
 0.09077872 0.08989378 0.08822007 0.08607134 0.08450989 0.08455695 0.08602723 0.08757909 0.08813941 0.08790566
 0.08773363 0.08797243 0.08827642 0.08831827 0.0882802 0.08859501 0.08939141 0.09032628 0.09094501 0.09109795
 0.09097417 0.09083492 0.09076583 0.09062716 0.09027176 0.08987707 0.08992667 0.09069808 0.09188732 0.09291537
 0.0934981 0.09375502 0.09385379 0.09372723 0.09318525 0.0922825 0.09149641 0.09138831 0.09205849 0.09307043
 0.09391509 0.09438977 0.09455027 0.09452097 0.09441096 0.09428441 0.09417331 0.09414935 0.09431216 0.09465391
 0.09502176 0.0952691 0.0953746 0.09538434 0.09531558 0.09516418 0.09496868 0.09482417 0.09481918 0.09496441
 0.09519686 0.09544408 0.09565318 0.09577402 0.09577531 0.09568724 0.0955832 0.09551154 0.0954776 0.09548515
 0.09555331 0.09568258 0.09583278 0.09595177 0.09601659 0.09603649 0.09602589 0.09599161 0.09594519 0.09591109
 0.09591669 0.09597474 0.09607026 0.09616975 0.09625873 0.09636026 0.09649092 0.09661216 0.09666367 0.09663969
 0.09659825 0.09659705 0.09664755 0.09672637 0.09680373 0.09685299 0.09685104 0.09679416 0.09672217 0.09670761
 0.09679992 0.09698766 0.09722394 0.09746628 0.09768094 0.09784256 0.09795323 0.09804149 0.09812696 0.09820288
 0.09825944 0.09830956 0.09838782 0.09852596 0.09872235 0.09893639 0.09912153 0.09925811 0.09935295 0.09943049
 0.0995291 0.09967133 0.099825 0.09992938 0.09997354 0.1000159 0.10011 0.1002399 0.1003462 0.1003984
 0.1004234 0.1004697 0.1005571 0.1006664 0.1007709 0.100867 0.1009726 0.101099 0.1012237 0.1012991
 0.1012976 0.1012477 0.1012076 0.101207 0.101234 0.1012737 0.1013319 0.1014123 0.101492 0.1015374
 0.1015409 0.1015296 0.1015348 0.1015574 0.101569 0.1015467 0.1014959 0.1014404 0.1014005 0.1013807
 0.1013713 0.1013558 0.1013211 0.1012641 0.1011918 0.1011129 0.1010319 0.1009542 0.1008982 0.1008913
 0.1009348 0.1009761 0.1009388 0.1007939 0.1005889 0.1004016 0.1002723 0.100183 0.1000891 0.09996234
 0.09980866 0.09965399 0.09951819 0.0994018 0.09929299 0.09918346 0.09907918 0.09899962 0.09895964 0.09894438
 0.0989093 0.09881895 0.09868336 0.0985463 0.09844199 0.09837421 0.09832916 0.09829304 0.09826118 0.09824133
 0.09824256 0.09825559 0.0982551 0.09822965 0.09819826 0.09819204 0.09823111 0.09831887 0.09843857 0.09855145
 0.0986208 0.09864835 0.09867402 0.09873329 0.09882759 0.0989389 0.09905679 0.09918231 0.09931764 0.09946463
 0.09962894 0.09981673 0.1000268 0.1002497 0.1004737 0.1006903 0.1008982 0.1011068 0.1013319 0.1015847
 0.1018609 0.1021444 0.1024199 0.1026843 0.1029455 0.1032123 0.1034867 0.1037685 0.1040627 0.1043756
 0.1047039 0.1050349 0.1053575 0.1056704 0.10598 0.1062938 0.1066155 0.1069469 0.1072939 0.107663
 0.1080455 0.1084093 0.1087235 0.108992 0.1092522 0.1095425 0.1098734 0.1102259 0.1105652 0.1108653
 0.1111312 0.1113952 0.1116822 0.1119839 0.1122798 0.1125748 0.1129001 0.1132722 0.1136593 0.1140017
 0.1142654 0.1144738 0.1146821 0.1149216 0.1151766 0.1154149 0.11563 0.1158416 0.1160643 0.1162942
 0.1165282 0.1167776 0.1170493 0.1173269 0.1175843 0.1178134 0.1180245 0.1182251 0.1184081 0.1185588
 0.11867 0.1187541 0.1188422 0.1189606 0.1191062 0.1192549 0.1193947 0.1195375 0.1196985 0.1198792
 0.1200775 0.1202993 0.1205468 0.1208041 0.121053 0.1213011 0.1215768 0.1218838 0.1221815 0.1224263
 0.1226217 0.1228063 0.1230045 0.1232126 0.1234294 0.1236705 0.1239477 0.1242501 0.1245522 0.1248356
 0.1251046 0.1253842 0.1256931 0.126014 0.1263008 0.1265232 0.126699 0.1268748 0.1270856 0.1273358
 0.1276099 0.1278892 0.1281594 0.1284072 0.1286144 0.128765 0.1288628 0.1289333 0.1289957 0.1290352
 0.1290117 0.1288927 0.1286682 0.1283354 0.1278847 0.1273108 0.1266372 0.125927 0.1252719 0.1247652
 0.1244763 0.1244384 0.1246501 0.1250776 0.1256542 0.1262882 0.1268822 0.1273503 0.1276219 0.1276467
 0.1274094 0.1269394 0.1262966 0.1255461 0.1247419 0.1239231 0.1231189 0.1223685 0.1217506 0.1213884
 0.1214139 0.1219166 0.1229118 0.1243263 0.1259978 0.1277133 0.1292905 0.1306471 0.1317984 0.1327976
 0.1336879 0.1344998 0.1352616 0.1359935 0.1366961 0.1373597 0.1379816 0.1385658 0.1391099 0.1395996
 0.1400166 0.140347 0.1405864 0.1407454 0.1408446 0.1409011 0.1409232 0.1409212 0.1409071 0.1408732
 0.1407776 0.1405646 0.1402038 0.1397141 0.1391673 0.1386874 0.1384412 0.1385999 0.1392661 0.1404078
 0.1418606 0.1434064 0.1448658 0.1461344 0.1471705 0.1479789 0.1486039 0.1491105 0.1495547 0.1499678
 0.1503607 0.1507353 0.1510926 0.1514365 0.1517727 0.1521076 0.1524469 0.1527921 0.1531379 0.1534752
 0.1538014 0.1541243 0.1544554 0.1548003 0.1551545 0.155508 0.1558556 0.1562023 0.1565529 0.1569007
 0.1572319 0.1575436 0.1578479 0.1581596 0.1584858 0.1588261 0.1591726 0.1595096 0.1598234 0.1601138
 0.1603931 0.160673 0.1609563 0.161241 0.1615258 0.1618106 0.1620944 0.1623759 0.1626566 0.1629387
 0.1632198 0.1634913 0.1637464 0.1639886 0.1642292 0.1644764 0.1647296 0.1649848 0.1652405 0.1654989
 0.1657619 0.1660278 0.1662928 0.1665537 0.1668091 0.1670585 0.1673021 0.1675425 0.1677845 0.1680315
 0.1682826 0.168532 0.1687749 0.1690131 0.1692535 0.1695016 0.1697569 0.1700153 0.1702737 0.1705307
 0.1707846 0.1710331 0.1712763 0.171517 0.1717606 0.1720087 0.1722567 0.1724984 0.1727327 0.1729644
 0.1731971 0.1734311 0.1736663 0.1739045 0.174147 0.1743923 0.1746362 0.1748742 0.1751057 0.1753366
 0.1755732 0.1758164 0.1760613 0.1763039 0.1765451 0.1767885 0.1770345 0.1772792 0.1775189 0.177754
 0.1779871 0.1782187 0.1784496 0.1786817 0.1789155 0.1791489 0.1793815 0.1796161 0.1798547 0.1800963
 0.180338 0.1805774 0.1808134 0.1810467 0.1812778 0.1815059 0.1817317 0.1819584 0.1821883 0.1824212
 0.1826577 0.1828981 0.18314 0.1833799 0.1836162 0.18385 0.1840838 0.1843204 0.1845614 0.1848047
 0.185047 0.1852864 0.1855223 0.1857549 0.1859858 0.1862164 0.1864466 0.1866776 0.1869127 0.1871529
 0.1873966 0.1876417 0.1878861 0.1881281 0.1883696 0.1886167 0.1888712 0.1891285 0.1893832 0.1896342
 0.1898832 0.1901335 0.1903872 0.190644 0.1909024 0.1911618 0.1914192 0.1916686 0.1919086 0.1921441
 0.1923778 0.1926076 0.1928321 0.1930521 0.1932694 0.1934861 0.1937063 0.193932 0.1941637 0.194401
 0.1946411 0.1948801 0.1951193 0.1953637 0.1956125 0.1958616 0.1961122 0.1963671 0.1966246 0.1968825
 0.1971417 0.1974016 0.1976603 0.1979186 0.1981781 0.1984381 0.1986996 0.1989649 0.1992319 0.1994964
 0.1997591 0.2000219 0.2002842 0.200548 0.200816 0.2010855 0.2013518 0.2016175 0.2018865 0.2021562
 0.2024247 0.2026936 0.2029621 0.2032286 0.203495 0.2037616 0.2040251 0.2042876 0.2045561 0.204831
 0.2051092 0.2053913 0.205676 0.2059573 0.2062333 0.2065057 0.2067716 0.2070304 0.2072904 0.2075552
 0.2078189 0.2080805 0.2083433 0.2085988 0.2088248 0.208973 0.2089157 0.2083847 0.2069342 0.2039459
 0.1987449 0.1908638 0.1803177 0.1676947 0.1539991 0.1403395 0.1276219 0.1164194 0.1070382 0.09963796
 0.0943148 0.09117489 0.09039208 0.09229246 0.09746791 0.1064231 0.1182764 0.1296446 0.1359148 0.134739
 0.1281594 0.1207549 0.1159181 0.1141995 0.1144615 0.1155754 0.117086 0.119091 0.1218583 0.1254264
 0.1295601 0.1341372 0.1393757 0.1454968 0.1522907 0.1591913 0.1657483 0.1719133 0.1778764 0.1837214
 0.1892934 0.1943484 0.1987428 0.2024786 0.2056511 0.2083913 0.2108193 0.2130176 0.2150407 0.2169183
 0.2186192 0.2200375 0.2210549 0.2216347 0.2218651 0.2219194 0.2219614 0.2220753 0.2222741 0.2225499
 0.2228958 0.2233013 0.2237568 0.2242556 0.2247848 0.2253261 0.2258675 0.226402 0.2269191 0.2274116
 0.2278802 0.228326 0.2287489 0.2291524 0.2295405 0.2299118 0.2302673 0.2306157 0.2309649 0.231316
 0.2316672 0.2320133 0.2323441 0.2326535 0.2329444 0.2332217 0.2334873 0.2337439 0.2339958 0.234247
 0.2345012 0.234759 0.235015 0.2352649 0.2355119 0.23576 0.2360056 0.2362438 0.2364761 0.2367056
 0.2369338 0.2371631 0.2373955 0.2376305 0.2378679 0.2381095 0.2383547 0.2385987 0.2388368 0.2390686
 0.2393014 0.2395483 0.2398169 0.2400987 0.2403781 0.240649 0.2409147 0.2411784 0.2414421 0.2417098
 0.241983 0.2422593 0.2425368 0.2428134 0.2430813 0.2433311 0.243562 0.2437832 0.2440065 0.2442383
 0.244477 0.2447155 0.2449503 0.2451842 0.2454214 0.2456634 0.2459101 0.2461603 0.2464125 0.2466701
 0.2469399 0.2472231 0.2475119 0.2477993 0.2480845 0.2483692 0.2486555 0.2489456 0.2492378 0.2495241
 0.2497973 0.2500631 0.250341 0.2506506 0.2509919 0.2513421 0.2516758 0.2519881 0.2522913 0.2525986
 0.2529169 0.2532421 0.2535504 0.2538127 0.2540365 0.2542776 0.2545893 0.2549701 0.2553719 0.255751
 0.2560977 0.2564256 0.2567451 0.257052 0.2573328 0.2575814 0.2578135 0.258069 0.2583861 0.2587629
 0.2591542 0.2595172 0.2598445 0.2601482 0.2604369 0.2607167 0.2609812 0.2611938 0.2613246 0.2614247
 0.2616194 0.2619912 0.2624873 0.2629744 0.2633712 0.2636988 0.2640107 0.2643219 0.2646186 0.2648736
 0.2650201 0.2649851 0.2648285 0.2647915 0.2650995 0.2657336 0.2664619 0.267073 0.2675142 0.2678408
 0.2681206 0.2683902 0.2686333 0.2687805 0.2687824 0.2687197 0.2687937 0.269143 0.2696882 0.2702198
 0.2706179 0.2709187 0.271201 0.271497 0.2717763 0.2719199 0.2717698 0.2713457 0.2709938 0.2711594
 0.2719526 0.2730217 0.2739074 0.2744533 0.2748017 0.2750663 0.2751634 0.2749624 0.2744454 0.2737115
 0.273016 0.2728084 0.2734387 0.2747076 0.2759496 0.2766985 0.2770863 0.2775075 0.2781096 0.2787286
 0.279158 0.2793334 0.2793049 0.2791209 0.2788014 0.2784705 0.2784361 0.2789725 0.2799986 0.2810978
 0.281908 0.2824072 0.2827471 0.2828273 0.2821835 0.2805399 0.2785339 0.2775555 0.2785096 0.2808635
 0.283223 0.2847097 0.2854431 0.2858879 0.2862514 0.2864221 0.2859594 0.2842418 0.2813136 0.2786173
 0.2781149 0.2803522 0.2838467 0.2865226 0.2872946 0.2862858 0.2843009 0.2824554 0.2817778 0.2826488
 0.2846448 0.2869701 0.2889352 0.2901401 0.2904936 0.290176 0.2895707 0.2891663 0.2892451 0.2894622
 0.2890612 0.2878575 0.2865928 0.2857947 0.2848149 0.2828914 0.2808448 0.2805704 0.28269 0.2856502
 0.2875262 0.2879959 0.2879858 0.2878031 0.2863821 0.2826865 0.2776287 0.2740381 0.2742371 0.2777212
 0.2816615 0.2836871 0.2837588 0.2833475 0.2833666 0.2832068 0.2816401 0.2785571 0.2756398 0.2748592
 0.2762649 0.2779075 0.2779959 0.2761548 0.2724805 0.2670885 0.2615964 0.2594312 0.2628027 0.2699501
 0.2766974 0.2800571 0.2791631 0.274028 0.2658529 0.2583241 0.2559558 0.2599268 0.2667046 0.2714636
 0.2718869 0.2682686 0.2615547 0.2529324 0.2448418 0.2406652 0.2425749 0.2497853 0.2587026 0.2644744
 0.2634649 0.2561729 0.2479606 0.2450146 0.2485221 0.2538859 0.2561311 0.2545874 0.251838 0.2502063
 0.2504805 0.2523589 0.2547848 0.2567766 0.2581829 0.2582964 0.2544653 0.245028 0.2336827 0.2275217
 0.2297169 0.2369726 0.2449078 0.2524648 0.2594426 0.2633331 0.261992 0.2578773 0.2564726 0.2604316
 0.2670527 0.271731 0.2726339 0.271445 0.2703081 0.2692746 0.2673676 0.265337 0.2656925 0.2695769
 0.2749745 0.2788991 0.2803889 0.2805025 0.2803143 0.2800124 0.2794545 0.2786101 0.2775182 0.2763077
 0.2751911 0.2742279 0.2732773 0.2722761 0.2711677 0.269294 0.2654451 0.2594338 0.2534426 0.2505184
 0.2513738 0.2539397 0.2563416 0.2582564 0.2584282 0.2536467 0.2429417 0.2313399 0.2264062 0.2309335
 0.240719 0.249282 0.2529843 0.2514809 0.2455312 0.2366467 0.2286228 0.2268721 0.2342506 0.2480681
 0.2625145 0.273579 0.2805622 0.2838049 0.2831469 0.2790903 0.2740949 0.2715962 0.2736432 0.2795548
 0.2864407 0.2905453 0.2888793 0.2816821 0.2740577 0.2728873 0.2800057 0.2897631 0.2952643 0.295591
 0.2947794 0.295413 0.296413 0.2965946 0.2971509 0.2996519 0.3034734 0.3063203 0.3062867 0.302657
 0.2958911 0.2881749 0.2830746 0.2827146 0.2854295 0.2876739 0.2876617 0.2853954 0.2804356 0.2728723
 0.266116 0.2650649 0.2705362 0.2780255 0.2828423 0.2844783 0.2851458 0.2858023 0.2850232 0.2813831
 0.2759825 0.2719744 0.2714747 0.2735661 0.2758085 0.2768802 0.2767871 0.2753406 0.2721673 0.2683428
 0.2665317 0.2686189 0.2736886 0.2789134 0.2821501 0.2832443 0.2832062 0.2829078 0.2826193 0.2821733
 0.2813972 0.2807104 0.2811483 0.2832604 0.2861515 0.2882993 0.2893134 0.2902551 0.2921484 0.2947306
 0.2968587 0.2977724 0.2977605 0.2977868 0.2986206 0.3002058 0.301717 0.3022889 0.3018718 0.3013912
 0.301915 0.3036329 0.305783 0.3075272 0.3086523 0.3094454 0.310214 0.3110243 0.3116748 0.311864
 0.31159 0.3113937 0.311961 0.3134138 0.3151667 0.3165183 0.3172258 0.3174736 0.3174811 0.3172895
 0.3168719 0.3163075 0.3157864 0.3154668 0.315367 0.3153933 0.3154416 0.3154576 0.3154394 0.315423
 0.315457 0.3155655 0.3157342 0.3159383 0.3161605 0.3163744 0.3165436 0.3166602 0.3167552 0.3168479
 0.3169006 0.3168419 0.3166118 0.3161693 0.3154755 0.3144937 0.3131992 0.3115668 0.309571 0.3072761
 0.3049966 0.3033357 0.3029356 0.304068 0.3064166 0.3092575 0.3118705 0.3138507 0.3151464 0.3159038
 0.3163009 0.3164681 0.3164822 0.3163814 0.3161848 0.3159119 0.3155886 0.3152389 0.3148828 0.3145404
 0.3142287 0.3139488 0.3136814 0.3133954 0.3130623 0.312666 0.3122052 0.311685 0.3111076 0.3104649
 0.3097339 0.3088894 0.3079326 0.3069093 0.3058906 0.3049302 0.3040365 0.3031784 0.3023125 0.301399
 0.300386 0.2992026 0.297825 0.29637 0.295062 0.2940538 0.2932902 0.2925763 0.2917493 0.2907601
 0.2896329 0.2884084 0.2871237 0.2858047 0.2844591 0.2830783 0.2816424 0.2801238 0.2785007 0.276773
 0.2749581 0.2730755 0.2711445 0.2691842 0.2671879 0.2650866 0.2627454 0.2600027 0.2567173 0.2527961
 0.2482137 0.2430325 0.2374092 0.2315664 0.2257383 0.2201271 0.2148928 0.2101656 0.2060609 0.2026786
 0.2000905 0.1983332 0.197418 0.1973485 0.1981185 0.1996942 0.2019988 0.2049136 0.2082862 0.2119359
 0.2156608 0.2192608 0.2225921 0.2256209 0.2284118 0.2310427 0.2335246 0.2358069 0.2378408 0.2396155
 0.2411406 0.2424232 0.2434723 0.2443161 0.2450022 0.245582 0.2460925 0.2465463 0.2469332 0.2472359
 0.2474544 0.2476147 0.2477562 0.2479098 0.248088 0.2482927 0.2485296 0.2488165 0.2491776 0.2496302
 0.2501764 0.2508032 0.2514867 0.2522053 0.2529559 0.2537576 0.2546425 0.255646 0.2567998 0.25812
 0.2595965 0.2611928 0.2628461 0.2644652 0.2659431 0.2671898 0.268156 0.2688314 0.2692305 0.2693792
 0.2693077 0.2690481 0.268634 0.2680971 0.2674623 0.2667474 0.2659663 0.2651287 0.2642379 0.2632945
 0.2623076 0.261301 0.2603025 0.2593267 0.2583722 0.2574398 0.2565376 0.2556686 0.2548248 0.254
 0.2531976 0.252425 0.2516878 0.2509883 0.2503205 0.2496649 0.2489876 0.2482419 0.2473769 0.2463574
 0.2451745 0.2438353 0.2423505 0.240734 0.2390023 0.237171 0.2352513 0.2332504 0.2311713 0.2290132
 0.2267702 0.2244359 0.2220256 0.2196013 0.2172554 0.2150601 0.2130384 0.2111767 0.2094454 0.2078134
 0.2062613 0.2047808 0.2033626 0.2019964 0.2006813 0.199425 0.198234 0.1971149 0.1960773 0.1951309
 0.1942882 0.1935627 0.1929536 0.1924395 0.1919966 0.1916165 0.1913106 0.1911112 0.1910546 0.1911331
 0.1912732 0.1913774 0.1913901 0.1913205 0.1912199 0.1911402 0.1911048 0.191111 0.1911426 0.1911536
 0.1910511 0.1907243 0.1900847 0.1890744 0.1876634 0.1858707 0.1837777 0.1815178 0.1792586 0.1771708
 0.1753806 0.1739461 0.172865 0.1720775 0.1714821 0.1709986 0.170626 0.1704324 0.1704933 0.1708118
 0.1712585 0.1716246 0.171802 0.171904 0.1721692 0.1727593 0.1736592 0.1747202 0.1757672 0.1766873
 0.1774421 0.1780219 0.1784295 0.1786986 0.1788729 0.1789627 0.1789499 0.1788177 0.1785583 0.1781808
 0.1777174 0.177189 0.1765784 0.1758643 0.1750515 0.1741499 0.1731621 0.1720892 0.1709021 0.1695504
 0.1680748 0.1666913 0.1657086 0.1653592 0.1656831 0.1665149 0.1675999 0.1687627 0.1699298 0.1710064
 0.1718732 0.1725763 0.1734191 0.1747633 0.1767223 0.1790438 0.1812821 0.1830878 0.1843268 0.1849871
 0.1850945 0.184713 0.1838939 0.1826237 0.1809129 0.1788758 0.1766566 0.1743785 0.1721925 0.1702382
 0.1685641 0.1671752 0.1660694 0.1652369 0.1647373 0.1643093 0.1624117 0.1567522 0.1475391 0.1396053
 0.1387676 0.1455559 0.1544782 0.1599221 0.1609293 0.1598564 0.1586558 0.1577391 0.1570279 0.1565982
 0.156512 0.1566717 0.156865 0.156867 0.1565782 0.1560106 0.1550394 0.1531678 0.1495161 0.1431418
 0.1337396 0.1222761 0.1107758 0.1012481 0.09469756 0.09091627 0.08891785 0.0876265 0.08649953 0.08571173
 0.08577617 0.0870177 0.08939809 0.09269147 0.09664501 0.100934 0.1050978 0.1086884 0.1115097 0.1136299
 0.1151672 0.1161648 0.1166585 0.1167326 0.1164727 0.1159348 0.1151654 0.1141944 0.1130141 0.1116161
 0.1100749 0.1085907 0.1074111 0.1066659 0.1062858 0.1061103 0.1060379 0.1060395 0.1060944 0.106181
 0.1063004 0.1064685 0.106703 0.1070169 0.107391 0.1077604 0.1080554 0.108246 0.1083387 0.1083439
 0.1082454 0.1080079 0.1076446 0.1072449 0.1068531 0.1063332 0.1054713 0.1042532 0.10298 0.1020765
 0.1017942 0.1020642 0.102583 0.1030388 0.1032953 0.1034009 0.1034506 0.1034407 0.1032539 0.1027903
</values></Ydata></ScRf><Data_Parameters_AB><parameter name="DPF">1</parameter><parameter name="NPT">3497</parameter><parameter name="FXV">3996</parameter><parameter name="LXV">500</parameter><parameter name="CSF">1</parameter><parameter name="MXY">0.156260371208191</parameter><parameter name="MNY">-0.0895237401127815</parameter><parameter name="DAT">17/01/2024</parameter><parameter name="TIM">12:44:04.963 (GMT+1)</parameter><parameter name="DXU">WN</parameter></Data_Parameters_AB><AB__Qtest><MainReport name="Quality Test Report"><Header><Line><Legend>Test result ok/not ok [1/0]: </Legend><Value>0</Value></Line><Line><Legend>Method file: </Legend><Value>C:\Users\Public\Documents\Bruker\OPUS_8.2.28\QT\IRBT_v3_default.QT</Value></Line></Header><Matrix><Line><Legend></Legend><Legend>min</Legend><Legend>max</Legend><Legend>measured</Legend></Line><Line><Value>Absorption (X-Range 1):</Value><Value>0.400000</Value><Value>2.000000</Value><Value>0.173746</Value></Line><Line><Value>Noise (X-Range 4):</Value><Value></Value><Value>0.000300</Value><Value>0.000020</Value></Line><Line><Value>Signal/Noise (X-Range 2):</Value><Value>200.000000</Value><Value></Value><Value>160.702529</Value></Line><Line><Value>Signal/Noise (X-Range 3):</Value><Value>40.000000</Value><Value></Value><Value>108.838278</Value></Line><Line><Value>Water vapour (X-Range 5):</Value><Value></Value><Value>0.000300</Value><Value>0.000019</Value></Line><Line><Value>Signal/Water (X-Range 2):</Value><Value>100.000000</Value><Value></Value><Value>162.268125</Value></Line><Line><Value>Signal/Water (X-Range 3):</Value><Value>20.000000</Value><Value></Value><Value>109.898603</Value></Line><Line><Value>Fringes (X-Range 6):</Value><Value></Value><Value>0.000100</Value><Value>0.000028</Value></Line></Matrix></MainReport></AB__Qtest><Data_Parameters_ScSm><parameter name="DPF">1</parameter><parameter name="NPT">1814</parameter><parameter name="FXV">3996.63438082617</parameter><parameter name="LXV">499.579297603271</parameter><parameter name="CSF">1</parameter><parameter name="MXY">0.36443617939949</parameter><parameter name="MNY">0.0816823318600655</parameter><parameter name="DAT">17/01/2024</parameter><parameter name="TIM">12:44:04.963 (GMT+1)</parameter><parameter name="DXU">WN</parameter></Data_Parameters_ScSm><Data_Parameters_ScRf><parameter name="DPF">1</parameter><parameter name="NPT">1820</parameter><parameter name="FXV">4004.34989121387</parameter><parameter name="LXV">495.721542409425</parameter><parameter name="CSF">1</parameter><parameter name="MXY">0.317481100559235</parameter><parameter name="MNY">0.0681653618812561</parameter><parameter name="DAT">17/01/2024</parameter><parameter name="TIM">12:43:39.440 (GMT+1)</parameter><parameter name="DXU">WN</parameter></Data_Parameters_ScRf><Optic_Parameters_Rf><parameter name="APR">0</parameter><parameter name="APT">Open</parameter><parameter name="BMS">KBr</parameter><parameter name="DTC">RT-DLaTGS_IR-Biotyper [Microplate reader]</parameter><parameter name="HPF">0</parameter><parameter name="LPF">10.0</parameter><parameter name="LPV">4000</parameter><parameter name="PGR">0</parameter><parameter name="RCH">Module port</parameter><parameter name="RDX">0</parameter><parameter name="SRC">MIR</parameter><parameter name="VEL">10.0</parameter><parameter name="SON">Off</parameter></Optic_Parameters_Rf><Acquisition_Parameters_Rf><parameter name="ADT">1</parameter><parameter name="AQM">DD</parameter><parameter name="CFE">0</parameter><parameter name="COR">0</parameter><parameter name="DEL">0</parameter><parameter name="DLY">0</parameter><parameter name="HFW">8000</parameter><parameter name="LFW">0</parameter><parameter name="NSR">32</parameter><parameter name="PLF">AB</parameter><parameter name="RES">6</parameter><parameter name="RGN">-1</parameter><parameter name="STR">0</parameter><parameter name="TCL">MakeCompatibleScalar (0, {WSV=1.000000, ARV=0});</parameter><parameter name="TDL">37</parameter><parameter name="RPO">0</parameter></Acquisition_Parameters_Rf><FT_-_Parameters_Rf><parameter name="APF">B3</parameter><parameter name="HFQ">500</parameter><parameter name="LFQ">4000</parameter><parameter name="NLI">0</parameter><parameter name="PHR">24</parameter><parameter name="PHZ">ML</parameter><parameter name="SPZ">NO</parameter><parameter name="ZFF">1</parameter></FT_-_Parameters_Rf><Optic_Parameters_><parameter name="APR">0</parameter><parameter name="APT">Open</parameter><parameter name="BMS">KBr</parameter><parameter name="CHN">Module port</parameter><parameter name="DTC">RT-DLaTGS_IR-Biotyper [Microplate reader]</parameter><parameter name="HPF">0</parameter><parameter name="LPF">10.0</parameter><parameter name="LPV">4000</parameter><parameter name="PGN">0</parameter><parameter name="RDX">0</parameter><parameter name="SRC">MIR</parameter><parameter name="VEL">10.0</parameter><parameter name="SON">Off</parameter></Optic_Parameters_><FT_-_Parameters_><parameter name="APF">B3</parameter><parameter name="HFQ">500</parameter><parameter name="LFQ">4000</parameter><parameter name="NLI">0</parameter><parameter name="PHR">24</parameter><parameter name="PHZ">ML</parameter><parameter name="SPZ">NO</parameter><parameter name="ZFF">1</parameter></FT_-_Parameters_><Acquisition_Parameters_><parameter name="ADT">1</parameter><parameter name="AQM">DD</parameter><parameter name="CFE">0</parameter><parameter name="COR">0</parameter><parameter name="DEL">0</parameter><parameter name="DLY">0</parameter><parameter name="HFW">8000</parameter><parameter name="LFW">0</parameter><parameter name="NSS">32</parameter><parameter name="PLF">AB</parameter><parameter name="RES">6</parameter><parameter name="SOT">0</parameter><parameter name="TCL">MakeCompatibleScalar (0, {WSV=1.000000, ARV=0});</parameter><parameter name="TDL">37</parameter><parameter name="SPO">0</parameter><parameter name="SGN">-1</parameter></Acquisition_Parameters_><Instrument_Parameters_Rf><parameter name="HFL">15801.365274</parameter><parameter name="LFL">0</parameter><parameter name="LWN">15801.365274</parameter><parameter name="ABP">32157</parameter><parameter name="SSP">1</parameter><parameter name="ARG">2</parameter><parameter name="ASG">2</parameter><parameter name="ASS">32</parameter><parameter name="GFW">16</parameter><parameter name="GBW">16</parameter><parameter name="BFW">0</parameter><parameter name="BBW">0</parameter><parameter name="PKA">9114</parameter><parameter name="PKL">4987</parameter><parameter name="PRA">9127</parameter><parameter name="PRL">5010</parameter><parameter name="P2A">1</parameter><parameter name="P2L">1</parameter><parameter name="P2R">1</parameter><parameter name="P2K">1</parameter><parameter name="DAQ">0</parameter><parameter name="AG2">1</parameter><parameter name="SSM">1</parameter><parameter name="RSN">46258</parameter><parameter name="CRR">0</parameter><parameter name="SRT">1705495419.44</parameter><parameter name="DUR">19.6439971923828</parameter><parameter name="TSC">30.8</parameter><parameter name="MVD">0.292443782091141</parameter><parameter name="AN1">0.22601605964392</parameter><parameter name="AN2">0</parameter><parameter name="VSN">2.485 Apr  4 2017</parameter><parameter name="SRN">0085</parameter><parameter name="CAM">0</parameter><parameter name="INS">IR-Biotyper</parameter><parameter name="FOC">69</parameter><parameter name="RDY">1</parameter><parameter name="ARS">32</parameter></Instrument_Parameters_Rf><Sample_Parameters_><parameter name="BLD"></parameter><parameter name="CNM">Admin</parameter><parameter name="CPY"></parameter><parameter name="DPM"></parameter><parameter name="EXP">IRBT_v3_32Scans.XPM</parameter><parameter name="LCT"></parameter><parameter name="SFM">Microplate, HTS-XT</parameter><parameter name="SNM">240117-1222-Cdiff_SCFA_1_C8_232113452_H2_92f5061a-5b89-438c-9c08-0f55094d26e3.0</parameter><parameter name="XPP">C:\Users\Public\Documents\Bruker\OPUS_8.2.28\XPM</parameter><parameter name="IST">OK</parameter><parameter name="CPG">1252</parameter><parameter name="UID">7e3513f6-f282-4b00-b748-3fa307056888</parameter></Sample_Parameters_><Instrument_Parameters_><parameter name="HFL">15801.365274</parameter><parameter name="LFL">0</parameter><parameter name="LWN">15801.365274</parameter><parameter name="ABP">32157</parameter><parameter name="SSP">1</parameter><parameter name="ASG">2</parameter><parameter name="ARG">2</parameter><parameter name="ASS">32</parameter><parameter name="GFW">16</parameter><parameter name="GBW">16</parameter><parameter name="BFW">0</parameter><parameter name="BBW">0</parameter><parameter name="PKA">10018</parameter><parameter name="PKL">4979</parameter><parameter name="PRA">10109</parameter><parameter name="PRL">5002</parameter><parameter name="P2A">1</parameter><parameter name="P2L">1</parameter><parameter name="P2R">1</parameter><parameter name="P2K">1</parameter><parameter name="DAQ">0</parameter><parameter name="AG2">1</parameter><parameter name="SSM">1</parameter><parameter name="RSN">23822</parameter><parameter name="CRR">0</parameter><parameter name="SRT">1705495444.964</parameter><parameter name="DUR">19.6439971923828</parameter><parameter name="TSC">30.8</parameter><parameter name="MVD">0.579921960830688</parameter><parameter name="AN1">0.226015780759305</parameter><parameter name="AN2">0</parameter><parameter name="VSN">2.485 Apr  4 2017</parameter><parameter name="SRN">0085</parameter><parameter name="CAM">0</parameter><parameter name="INS">IR-Biotyper</parameter><parameter name="FOC">69</parameter><parameter name="RDY">1</parameter></Instrument_Parameters_><History/></OPUSDataFile>
