<?xml version="1.0" encoding="UTF-8" ?>
<OPUSDataFile><AB><Ydata ylabel="Absorbance Units"><values byteorder="INTEL" format="FLOAT32" numvalues="3497"> -0.09184548 -0.09186088 -0.09187406 -0.09188417 -0.09188798 -0.09188636 -0.09187965 -0.09186857 -0.09185415 -0.09183721
 -0.09181877 -0.09180003 -0.09178216 -0.0917658 -0.09175188 -0.09173922 -0.09172754 -0.09171618 -0.09170445 -0.09169501
 -0.09168788 -0.09168766 -0.09169488 -0.09170986 -0.09173254 -0.09175721 -0.09178338 -0.09180365 -0.09181838 -0.09182522
 -0.09182563 -0.09182318 -0.09181872 -0.09181634 -0.09181486 -0.09181447 -0.09181341 -0.0918093 -0.09180274 -0.09179253
 -0.09178246 -0.09177395 -0.09177021 -0.09177319 -0.09178209 -0.0917978 -0.09181474 -0.09183247 -0.09184463 -0.09185044
 -0.09184857 -0.09183898 -0.09182714 -0.09181347 -0.09180492 -0.09180123 -0.091805 -0.09181492 -0.09182832 -0.09184347
 -0.09185517 -0.09186254 -0.09186139 -0.09185342 -0.0918378 -0.09181967 -0.09180218 -0.0917903 -0.09178825 -0.09179516
 -0.09181261 -0.09183453 -0.09186014 -0.09188297 -0.09190191 -0.09191335 -0.09191675 -0.091912 -0.09189911 -0.09188207
 -0.0918614 -0.09184452 -0.09183179 -0.09182937 -0.09183647 -0.09185398 -0.0918802 -0.09191218 -0.09194747 -0.0919817
 -0.09201115 -0.0920305 -0.09203622 -0.09202271 -0.0919926 -0.09194349 -0.09188708 -0.09182593 -0.09177314 -0.09173303
 -0.09170917 -0.09170374 -0.0917094 -0.09172603 -0.09174224 -0.09175741 -0.09176493 -0.09176499 -0.09175825 -0.09174524
 -0.0917296 -0.09171109 -0.09169098 -0.09166849 -0.09164175 -0.09161191 -0.09157861 -0.09154673 -0.09152122 -0.09150666
 -0.0915099 -0.09152733 -0.09156105 -0.09159885 -0.09163706 -0.09166595 -0.09168132 -0.09168462 -0.091675 -0.09165882
 -0.09163669 -0.09161153 -0.09158351 -0.09155748 -0.091534 -0.09152202 -0.09152099 -0.09153383 -0.0915563 -0.09157547
 -0.0915862 -0.09156698 -0.09152245 -0.0914472 -0.09135647 -0.09126642 -0.09118564 -0.09112798 -0.09109079 -0.09107696
 -0.09108008 -0.09109917 -0.09112607 -0.09115966 -0.09118835 -0.09121016 -0.09121674 -0.09120639 -0.09118374 -0.09114893
 -0.09111387 -0.09107863 -0.09104639 -0.09101635 -0.09098453 -0.09095173 -0.09091842 -0.09088669 -0.09086258 -0.09084567
 -0.09083904 -0.09083871 -0.09084158 -0.09084346 -0.09083994 -0.0908286 -0.09080622 -0.09077445 -0.09073178 -0.09068606
 -0.09063809 -0.09059877 -0.09057046 -0.0905569 -0.09055933 -0.09057076 -0.09059092 -0.09060821 -0.09062225 -0.09062551
 -0.09061842 -0.0906 -0.09057112 -0.09053434 -0.09049024 -0.09044148 -0.09038831 -0.09033211 -0.09027366 -0.09021391
 -0.09015507 -0.09009881 -0.09004819 -0.09000573 -0.08997199 -0.08994869 -0.08993144 -0.08991989 -0.08990809 -0.08989476
 -0.08987755 -0.08985594 -0.08983067 -0.08980181 -0.0897681 -0.0897295 -0.08968417 -0.08963282 -0.08957879 -0.08952356
 -0.08947523 -0.08943355 -0.08940287 -0.08938023 -0.08936276 -0.0893472 -0.08932816 -0.08930472 -0.08927381 -0.08923714
 -0.08919463 -0.08914868 -0.08910006 -0.08905117 -0.08900242 -0.0889572 -0.08891577 -0.08888324 -0.08886038 -0.0888489
 -0.08884914 -0.08885307 -0.08885992 -0.08885519 -0.08883903 -0.08880465 -0.08875448 -0.08869505 -0.08862747 -0.08855814
 -0.08848654 -0.08841373 -0.08834142 -0.08827211 -0.08820724 -0.08815055 -0.08809714 -0.08804594 -0.08799015 -0.0879254
 -0.08785352 -0.0877729 -0.08769303 -0.08761577 -0.08754509 -0.08748222 -0.08742214 -0.08736464 -0.08730339 -0.08723819
 -0.0871659 -0.08708679 -0.08700102 -0.08690939 -0.08681507 -0.08671909 -0.08662581 -0.08653563 -0.08645193 -0.08637282
 -0.08629861 -0.0862235 -0.08614314 -0.08605125 -0.08594126 -0.08581534 -0.08567106 -0.08551902 -0.08536223 -0.08520565
 -0.08505183 -0.08489474 -0.08473422 -0.08456222 -0.08437805 -0.08418093 -0.08397119 -0.08375665 -0.083538 -0.08332516
 -0.08311686 -0.08291454 -0.08271352 -0.08250184 -0.08227588 -0.08202128 -0.08174235 -0.08143744 -0.08111527 -0.08078402
 -0.08044673 -0.08010816 -0.07976695 -0.07942375 -0.07907657 -0.07872608 -0.07836522 -0.07799356 -0.07760048 -0.0771843
 -0.07674203 -0.07627317 -0.07578265 -0.07527069 -0.07474109 -0.07419439 -0.07363618 -0.0730679 -0.07249965 -0.07193081
 -0.07136603 -0.07080143 -0.07023182 -0.06965411 -0.06906176 -0.06845409 -0.06782747 -0.06718452 -0.06652496 -0.06585446
 -0.06517661 -0.06449032 -0.06379917 -0.06308502 -0.06234518 -0.06156379 -0.06073589 -0.05988039 -0.05899758 -0.05812561
 -0.05726554 -0.05642887 -0.055613 -0.05480107 -0.05399129 -0.05316613 -0.05232742 -0.05147066 -0.05059978 -0.0497212
 -0.0488353 -0.04794863 -0.0470506 -0.04613502 -0.04518899 -0.04419591 -0.04317163 -0.04211218 -0.04106101 -0.04003327
 -0.03904447 -0.03810586 -0.03718491 -0.03627994 -0.03535388 -0.03440305 -0.03342386 -0.03241677 -0.03140315 -0.03038351
 -0.02937214 -0.02836619 -0.02736033 -0.02635134 -0.02532547 -0.02428491 -0.02322572 -0.0221557 -0.02108463 -0.02001653
 -0.01896059 -0.01791224 -0.01687138 -0.01583278 -0.01479372 -0.01375223 -0.01270764 -0.01165679 -0.01059862 -0.009533167
 -0.008459678 -0.007385433 -0.006311262 -0.005235183 -0.004156666 -0.003056157 -0.001933791 -0.000780357 0.0003985322 0.001580397
 0.002761087 0.003913312 0.005043645 0.006150897 0.007246338 0.008346708 0.009456052 0.0105869 0.01173184 0.01289136
 0.01405234 0.01520726 0.01635357 0.01748525 0.01862068 0.01976169 0.02092952 0.02212934 0.02335499 0.02460741
 0.02585707 0.02710267 0.02832437 0.02952311 0.03069979 0.03185617 0.03300051 0.03413502 0.03527001 0.03640848
 0.03756231 0.03873141 0.03992214 0.04112913 0.04234963 0.0435783 0.04481003 0.04604387 0.04727815 0.04851301
 0.04974898 0.05098228 0.05221275 0.05343398 0.05464482 0.05584304 0.05702809 0.05820485 0.05937358 0.0605394
 0.06170214 0.06286141 0.06401727 0.06516927 0.06631872 0.06747011 0.06862322 0.06978054 0.07093945 0.07209671
 0.07325161 0.07440184 0.07554875 0.07669334 0.07783417 0.07897111 0.08010168 0.08122451 0.08234055 0.08344987
 0.08455294 0.08565027 0.0867381 0.08781612 0.0888823 0.0899366 0.09098248 0.09202036 0.09305549 0.09408834
 0.09512446 0.09616336 0.09720775 0.09825388 0.09929527 0.100328 0.1013413 0.102339 0.10332 0.1042914
 0.1052597 0.106224 0.107187 0.1081418 0.1090859 0.1100189 0.1109398 0.1118522 0.1127566 0.1136534
 0.1145426 0.1154258 0.1163029 0.1171799 0.118057 0.1189372 0.1198201 0.1207037 0.1215863 0.1224622
 0.1233274 0.1241699 0.124988 0.1257701 0.1265258 0.1272581 0.1279845 0.1287204 0.1294722 0.1302509
 0.131044 0.1318508 0.1326539 0.1334488 0.134226 0.1349829 0.1357198 0.1364361 0.1371394 0.1378299
 0.1385158 0.1391969 0.1398752 0.1405507 0.1412225 0.1418916 0.142561 0.1432304 0.143902 0.1445713
 0.1452328 0.1458806 0.1465054 0.1471065 0.1476783 0.1482286 0.1487575 0.1492795 0.1497993 0.1503289
 0.1508736 0.1514319 0.1520057 0.1525808 0.1531562 0.1537184 0.1542667 0.1547984 0.1553137 0.1558179
 0.1563116 0.1568012 0.1572862 0.1577685 0.1582452 0.1587112 0.1591646 0.159599 0.1600172 0.1604195
 0.1608091 0.1611895 0.1615597 0.16192 0.1622694 0.1626064 0.1629356 0.1632575 0.1635775 0.1638972
 0.1642147 0.1645306 0.164837 0.1651337 0.165414 0.165678 0.1659256 0.1661578 0.1663808 0.1665947
 0.1668044 0.167007 0.1671988 0.1673771 0.1675347 0.1676741 0.1677945 0.1679019 0.1680009 0.1680952
 0.1681886 0.1682812 0.1683741 0.1684654 0.168555 0.1686396 0.1687183 0.1687915 0.1688587 0.1689282
 0.1690004 0.1690801 0.1691662 0.1692456 0.1693162 0.1693558 0.1693659 0.1693385 0.1692803 0.1692037
 0.1691152 0.1690329 0.168957 0.1688959 0.1688443 0.1688008 0.168761 0.1687217 0.1686817 0.1686408
 0.1685951 0.1685449 0.1684807 0.1684008 0.1683012 0.1681803 0.1680519 0.1679167 0.1677967 0.1676923
 0.167614 0.1675594 0.1675197 0.1674916 0.1674572 0.1674151 0.1673518 0.1672709 0.1671705 0.1670597
 0.1669472 0.166843 0.166759 0.1666985 0.1666683 0.1666624 0.1666815 0.1667141 0.1667578 0.1668021
 0.1668445 0.1668799 0.1669069 0.1669288 0.1669455 0.1669672 0.1669944 0.1670386 0.1671003 0.1671879
 0.1673013 0.1674448 0.167617 0.1678183 0.1680428 0.1682835 0.1685274 0.1687574 0.1689589 0.1691114
 0.1692161 0.1692619 0.169276 0.1692635 0.1692586 0.1692736 0.1693172 0.1693964 0.1694862 0.1695859
 0.1696606 0.1697078 0.1697092 0.1696649 0.1695795 0.1694552 0.1693089 0.1691419 0.168969 0.168789
 0.1686068 0.1684198 0.1682259 0.1680227 0.1678065 0.1675753 0.1673262 0.1670579 0.1667693 0.1664575
 0.1661228 0.1657548 0.1653524 0.1648992 0.1643912 0.1638232 0.1631923 0.1625195 0.1618058 0.1610868
 0.1603636 0.1596598 0.158974 0.1583085 0.1576606 0.1570215 0.1563887 0.1557514 0.1551093 0.1544554
 0.1537944 0.1531283 0.1524642 0.1518103 0.151167 0.150539 0.1499166 0.1492973 0.148673 0.1480396
 0.1473997 0.1467521 0.1461077 0.1454672 0.1448462 0.1442456 0.1436791 0.1431466 0.1426449 0.1421703
 0.1416953 0.1412164 0.1407021 0.1401568 0.1395739 0.1389646 0.1383473 0.1377286 0.1371266 0.1365375
 0.1359648 0.1354014 0.1348431 0.1342877 0.1337329 0.1331794 0.1326276 0.1320754 0.1315227 0.1309652
 0.130402 0.1298314 0.129253 0.1286701 0.1280831 0.1274969 0.1269113 0.1263278 0.1257456 0.1251619
 0.1245765 0.1239864 0.1233924 0.1227944 0.1221939 0.1215926 0.1209914 0.1203918 0.1197945 0.1192002
 0.11861 0.1180252 0.1174446 0.116869 0.1162914 0.1157111 0.1151173 0.114508 0.1138797 0.1132315
 0.1125748 0.1119102 0.1112538 0.1106051 0.1099687 0.1093422 0.1087168 0.1080912 0.1074566 0.1068159
 0.1061703 0.1055236 0.1048827 0.1042473 0.1036207 0.102998 0.1023766 0.1017532 0.1011243 0.1004925
 0.09985723 0.09922431 0.09859457 0.09797369 0.09736218 0.09676681 0.09618814 0.09563177 0.09509759 0.09457796
 0.09407042 0.09354959 0.0930137 0.09243853 0.09182922 0.09118593 0.09051999 0.08985388 0.08919629 0.08857073
 0.08797544 0.08741993 0.08689125 0.08638596 0.08588561 0.0853809 0.0848603 0.08431594 0.08375407 0.08317278
 0.08259083 0.08201054 0.08144423 0.08089345 0.08035575 0.07983106 0.07931682 0.07881449 0.07833642 0.07788479
 0.0774788 0.07711523 0.07679815 0.07651482 0.07624365 0.07596805 0.07565368 0.07529505 0.07486875 0.07439283
 0.0738676 0.07332637 0.07278507 0.07226466 0.0717786 0.07131973 0.07089014 0.07047249 0.07006369 0.06966139
 0.06926473 0.0688834 0.06851771 0.06816831 0.06783415 0.0675043 0.06717916 0.06685394 0.06653184 0.06622116
 0.06592242 0.06564275 0.06537637 0.06511864 0.06486253 0.06459828 0.06432446 0.064036 0.06373704 0.06342854
 0.06311312 0.06279325 0.06246361 0.06212477 0.06176425 0.0613804 0.06096385 0.06051296 0.0600353 0.05953152
 0.05902738 0.05852441 0.05804889 0.05759918 0.05718235 0.05679248 0.05641498 0.05604411 0.05565937 0.05526081
 0.05483801 0.05439776 0.05394265 0.05348052 0.0530187 0.05255894 0.05210513 0.05165244 0.05120032 0.0507434
 0.05027987 0.04980933 0.04933089 0.04884978 0.048366 0.04788992 0.04742211 0.04697415 0.04654575 0.04613886
 0.04575061 0.04536691 0.04498494 0.04458622 0.04417396 0.04374429 0.04330609 0.04287186 0.04244626 0.04204125
 0.04165095 0.04127572 0.04090661 0.04053804 0.0401688 0.03979636 0.03942561 0.03905751 0.03869418 0.03833625
 0.03798292 0.03763388 0.03729304 0.03696066 0.03664728 0.03635337 0.0360887 0.03585187 0.03564155 0.03545383
 0.03527507 0.03510199 0.03491893 0.03472865 0.03452633 0.0343219 0.03412345 0.0339412 0.03378604 0.03366135
 0.03357229 0.03351693 0.03349521 0.03350712 0.03355189 0.0336342 0.03375441 0.03391795 0.03412537 0.0343798
 0.03468139 0.03503164 0.0354307 0.0358807 0.03638248 0.03694157 0.0375595 0.03824473 0.03899769 0.03982485
 0.04072265 0.04168994 0.04271886 0.04380104 0.04492864 0.04609321 0.04728989 0.04851474 0.04976287 0.05103338
 0.05231589 0.05360875 0.05489942 0.05618571 0.05745986 0.05872093 0.05996501 0.06119183 0.06239099 0.06356099
 0.06468086 0.06574769 0.06673512 0.0676382 0.06842786 0.0690955 0.06960732 0.06995604 0.07011023 0.07008014
 0.06985411 0.06947803 0.06896999 0.06841101 0.06783989 0.06734435 0.06696408 0.06675416 0.06673972 0.06692299
 0.06731206 0.06786874 0.06859179 0.06942891 0.0703771 0.07138849 0.07246106 0.07355785 0.07467786 0.07579642
 0.07691269 0.07801072 0.07908978 0.08013876 0.08116123 0.08215503 0.08313259 0.08410541 0.08508912 0.08610337
 0.0871459 0.08823489 0.08931211 0.090387 0.09129611 0.09202898 0.09231021 0.09210235 0.09114377 0.08939318
 0.08682451 0.08343138 0.07952088 0.07512139 0.07070758 0.06629866 0.06226208 0.05857652 0.05536681 0.05258456
 0.05017661 0.04809954 0.04625635 0.04462164 0.0431298 0.04176475 0.04049484 0.03930621 0.03818343 0.03711854
 0.03610404 0.03514207 0.03423074 0.03337913 0.03258814 0.0318672 0.03121741 0.03064474 0.03014963 0.02973373
 0.0293968 0.02913583 0.02894998 0.02883308 0.028783 0.0287908 0.02884943 0.02894146 0.02904975 0.02914137
 0.02919136 0.02915673 0.02902187 0.02875374 0.02836601 0.02784947 0.02724844 0.02657271 0.02587749 0.02517682
 0.02451804 0.02391021 0.0233898 0.02296062 0.02265704 0.02248112 0.02247469 0.02263919 0.02300919 0.02357365
 0.0242938 0.02512094 0.02586328 0.02643554 0.02651779 0.02606359 0.02480664 0.0228433 0.02013842 0.01693523
 0.01340427 0.009802617 0.006333879 0.003122376 0.0002818864 -0.002218593 -0.004356535 -0.006228559 -0.007847424 -0.009290173
 -0.01056716 -0.01172025 -0.01275274 -0.01369234 -0.01454046 -0.01532204 -0.01603803 -0.01670724 -0.01733033 -0.01791957
 -0.01847619 -0.01900924 -0.01952063 -0.02001796 -0.02050239 -0.02097889 -0.02144619 -0.02190534 -0.02235318 -0.02278796
 -0.02320792 -0.02361075 -0.0240008 -0.02437792 -0.02475048 -0.02512013 -0.02549159 -0.02586623 -0.02623922 -0.02661046
 -0.0269702 -0.02731816 -0.02764949 -0.0279652 -0.02827037 -0.02856646 -0.02886278 -0.02915861 -0.02945765 -0.02975636
 -0.0300496 -0.03033536 -0.0306073 -0.03086965 -0.031123 -0.03137442 -0.03162951 -0.03188884 -0.03215577 -0.03242186
 -0.0326856 -0.0329394 -0.03318084 -0.03341061 -0.03362812 -0.03383873 -0.03404276 -0.03424425 -0.03444337 -0.03464271
 -0.0348423 -0.03504388 -0.0352469 -0.03545026 -0.03565288 -0.03585099 -0.0360442 -0.03622968 -0.03640814 -0.03657931
 -0.03674395 -0.03690278 -0.03705579 -0.03720313 -0.03734492 -0.03748096 -0.03761258 -0.03773971 -0.0378654 -0.03799012
 -0.0381167 -0.03824561 -0.03837751 -0.03851254 -0.03864904 -0.03878694 -0.03892534 -0.03906433 -0.0392044 -0.03934544
 -0.03948732 -0.03962973 -0.03977155 -0.03991309 -0.04005419 -0.04019575 -0.04033912 -0.04048443 -0.0406325 -0.04078254
 -0.04093417 -0.04108721 -0.04124125 -0.04139721 -0.04155539 -0.04171601 -0.04187935 -0.04204404 -0.04221 -0.04237554
 -0.04254048 -0.04270499 -0.04286915 -0.04303506 -0.04320277 -0.04337386 -0.04354797 -0.04372435 -0.04390242 -0.04408001
 -0.04425691 -0.04443173 -0.04460434 -0.04477416 -0.04494053 -0.04510273 -0.04525989 -0.04541083 -0.04555642 -0.04569625
 -0.04583328 -0.04596821 -0.04610367 -0.04624052 -0.04637887 -0.04651893 -0.04665942 -0.04680028 -0.0469407 -0.04708065
 -0.04721939 -0.04735676 -0.04749098 -0.04762188 -0.04774745 -0.04786817 -0.04798422 -0.04809643 -0.04820672 -0.04831525
 -0.04842316 -0.04853 -0.04863558 -0.04874005 -0.0488432 -0.04894615 -0.04904937 -0.04915356 -0.04925922 -0.04936581
 -0.0494734 -0.04958086 -0.04968807 -0.04979398 -0.04989848 -0.05000128 -0.05010238 -0.05020216 -0.05030065 -0.05039831
 -0.05049499 -0.05059021 -0.05068383 -0.05077507 -0.05086405 -0.05095042 -0.05103495 -0.05111839 -0.05120188 -0.05128676
 -0.051374 -0.05146489 -0.05155924 -0.05165761 -0.0517585 -0.05186176 -0.05196526 -0.05206861 -0.05216991 -0.05226878
 -0.05236451 -0.05245692 -0.05254718 -0.05263537 -0.05272424 -0.05281397 -0.05290729 -0.05300409 -0.05310546 -0.05321065
 -0.05331811 -0.0534267 -0.05353316 -0.05363702 -0.05373569 -0.05383071 -0.05392224 -0.05401311 -0.05410563 -0.05420076
 -0.05430006 -0.05440165 -0.05450545 -0.05460886 -0.05471116 -0.05481152 -0.05490967 -0.05500577 -0.05509981 -0.05519188
 -0.05528199 -0.05537081 -0.05545843 -0.0555459 -0.05563327 -0.05572137 -0.05581001 -0.05589894 -0.05598797 -0.0560764
 -0.05616457 -0.05625246 -0.05634124 -0.05643202 -0.05652611 -0.05662518 -0.05672865 -0.05683741 -0.05694774 -0.05705897
 -0.05716641 -0.05726882 -0.05736364 -0.05744996 -0.05752944 -0.05760196 -0.05767243 -0.05774112 -0.05781336 -0.05788914
 -0.05797044 -0.05805666 -0.05814571 -0.05823688 -0.0583264 -0.05841462 -0.05850019 -0.05858438 -0.05866864 -0.05875378
 -0.05884176 -0.05893112 -0.05902179 -0.059111 -0.05919721 -0.05927899 -0.05935502 -0.05942699 -0.05949489 -0.05956141
 -0.05962705 -0.05969245 -0.05975772 -0.05982272 -0.05988747 -0.05995291 -0.06001906 -0.06008662 -0.0601553 -0.06022387
 -0.06029215 -0.06035871 -0.06042401 -0.06048856 -0.0605525 -0.06061668 -0.06068001 -0.06074145 -0.06080057 -0.06085611
 -0.06090997 -0.06096262 -0.0610163 -0.06107241 -0.06112991 -0.06118907 -0.06124717 -0.06130368 -0.06135807 -0.06141011
 -0.06146169 -0.06151292 -0.06156507 -0.06161815 -0.06167213 -0.06172722 -0.06178454 -0.06184426 -0.06190791 -0.06197492
 -0.06204486 -0.06211672 -0.06218835 -0.06225995 -0.06233049 -0.06240153 -0.06247405 -0.06254882 -0.062627 -0.06270694
 -0.06278857 -0.06286935 -0.06294854 -0.06302506 -0.06309853 -0.06316946 -0.06323781 -0.06330469 -0.06337018 -0.06343575
 -0.06350147 -0.06356878 -0.06363751 -0.06370763 -0.06377856 -0.06384807 -0.06391609 -0.06398089 -0.0640436 -0.06410527
 -0.0641669 -0.0642305 -0.0642952 -0.06436114 -0.06442685 -0.0644912 -0.06455474 -0.06461737 -0.06468012 -0.06474354
 -0.06480645 -0.06486876 -0.0649292 -0.06498741 -0.06504561 -0.0651039 -0.06516561 -0.06523068 -0.06529877 -0.06536943
 -0.06543936 -0.06550864 -0.06557573 -0.06564096 -0.0657046 -0.06576629 -0.06582553 -0.06588204 -0.06593484 -0.06598523
 -0.06603359 -0.06608197 -0.06613178 -0.06618353 -0.06623803 -0.06629404 -0.06635154 -0.0664086 -0.06646495 -0.06651872
 -0.06656966 -0.06661658 -0.06665935 -0.066699 -0.06673568 -0.06677236 -0.06680913 -0.06684817 -0.06688925 -0.0669326
 -0.06697803 -0.06702527 -0.06707409 -0.06712429 -0.06717494 -0.067225 -0.06727328 -0.06731828 -0.06735989 -0.06739731
 -0.06743196 -0.06746417 -0.06749517 -0.0675255 -0.06755524 -0.06758446 -0.06761326 -0.06764165 -0.06767014 -0.0676988
 -0.06772797 -0.06775761 -0.06778707 -0.06781634 -0.06784487 -0.06787291 -0.06790114 -0.06793005 -0.06796128 -0.06799496
 -0.06803228 -0.06807274 -0.06811646 -0.0681622 -0.06820929 -0.0682558 -0.06830067 -0.0683418 -0.06837797 -0.06840858
 -0.06843279 -0.06845289 -0.06846881 -0.06848481 -0.0685014 -0.06852103 -0.06854395 -0.06856904 -0.06859617 -0.06862267
 -0.06864851 -0.06867217 -0.06869382 -0.06871345 -0.06873121 -0.06874732 -0.06876229 -0.06877674 -0.06879218 -0.06881037
 -0.06883346 -0.06886382 -0.06890293 -0.06895261 -0.06901228 -0.06908254 -0.069161 -0.06924748 -0.06933825 -0.0694329
 -0.06952671 -0.06961914 -0.06970639 -0.06978809 -0.06986489 -0.06993705 -0.07001051 -0.07008532 -0.07016546 -0.0702488
 -0.07032932 -0.07040349 -0.0704584 -0.07049296 -0.07049839 -0.07047748 -0.07043008 -0.07035941 -0.0702671 -0.07015923
 -0.07003703 -0.06991506 -0.06979827 -0.06970221 -0.06963334 -0.06959507 -0.06959055 -0.06960971 -0.06965267 -0.06970105
 -0.06975374 -0.06979292 -0.06981815 -0.06982395 -0.06981184 -0.06979129 -0.06976348 -0.06973904 -0.06971692 -0.06969988
 -0.06968591 -0.06967254 -0.06965847 -0.06964076 -0.06961947 -0.06959353 -0.06956368 -0.0695304 -0.06949316 -0.069452
 -0.06940588 -0.06935405 -0.06929832 -0.06923846 -0.06917915 -0.06912101 -0.06906626 -0.06901521 -0.06896597 -0.06891848
 -0.06887145 -0.06882524 -0.06878222 -0.0687428 -0.06871033 -0.06868422 -0.0686648 -0.0686504 -0.06863794 -0.06862622
 -0.06861199 -0.06859577 -0.06857651 -0.06855614 -0.06853558 -0.0685164 -0.06849976 -0.06848547 -0.06847395 -0.06846358
 -0.06845416 -0.06844406 -0.06843297 -0.06842045 -0.06840638 -0.06839189 -0.06837703 -0.06836331 -0.0683507 -0.06833982
 -0.06833047 -0.0683222 -0.06831494 -0.06830817 -0.06830205 -0.06829674 -0.06829229 -0.06828898 -0.06828645 -0.06828451
 -0.06828256 -0.06828004 -0.06827698 -0.06827307 -0.06826921 -0.0682657 -0.06826284 -0.06826102 -0.06825844 -0.06825509
 -0.06824785 -0.06823645 -0.0682195 -0.06819702 -0.06817067 -0.0681408 -0.06811099 -0.06808154 -0.06805584 -0.06803375
 -0.06801708 -0.06800471 -0.06799566 -0.06798811 -0.06797914 -0.06796759 -0.06795097 -0.06792984 -0.06790341 -0.06787396
 -0.06784198 -0.06781056 -0.06778056 -0.06775501 -0.06773482 -0.06772085 -0.06771366 -0.06771027 -0.06771058 -0.06770947
 -0.0677067 -0.06769823 -0.06768423 -0.06766409 -0.06763846 -0.06761004 -0.06757951 -0.06755062 -0.06752313 -0.0674987
 -0.06747591 -0.06745332 -0.06743013 -0.06740452 -0.06737772 -0.06734969 -0.06732289 -0.06729853 -0.06727788 -0.06726186
 -0.06724958 -0.06724127 -0.06723438 -0.06722866 -0.06722157 -0.06721286 -0.06720188 -0.06718861 -0.06717484 -0.0671607
 -0.06714848 -0.06713796 -0.06712944 -0.06712238 -0.06711514 -0.06710738 -0.06709746 -0.06708565 -0.06707155 -0.06705597
 -0.06703958 -0.06702302 -0.06700704 -0.06699155 -0.06697662 -0.06696236 -0.06694858 -0.06693655 -0.06692661 -0.06691927
 -0.06691494 -0.06691112 -0.06690773 -0.06690069 -0.06688985 -0.06687392 -0.06685327 -0.066831 -0.06680772 -0.06678837
 -0.06677278 -0.06676336 -0.06675898 -0.06675856 -0.06676067 -0.0667626 -0.06676382 -0.06676263 -0.06675944 -0.06675403
 -0.06674699 -0.0667384 -0.06672939 -0.06672002 -0.06671244 -0.06670702 -0.06670582 -0.06670944 -0.0667173 -0.06672958
 -0.06674193 -0.06675412 -0.06676134 -0.06676369 -0.06676027 -0.06675196 -0.06674287 -0.06673376 -0.0667296 -0.06672969
 -0.06673536 -0.06674452 -0.06675458 -0.06676401 -0.06676985 -0.06677252 -0.06677086 -0.06676749 -0.06676314 -0.06676091
 -0.06676225 -0.06676811 -0.06677957 -0.0667933 -0.06680916 -0.06682277 -0.06683359 -0.06684098 -0.06684492 -0.06684908
 -0.06685356 -0.06686109 -0.06687128 -0.06688319 -0.06689663 -0.06691023 -0.06692448 -0.06693994 -0.06695682 -0.06697603
 -0.06699657 -0.0670178 -0.06703859 -0.06705774 -0.06707505 -0.06708996 -0.06710316 -0.06711481 -0.06712541 -0.06713513
 -0.06714419 -0.06715257 -0.06716079 -0.0671688 -0.06717846 -0.06718985 -0.06720539 -0.06722507 -0.06724954 -0.06727837
 -0.06730939 -0.06734206 -0.06737331 -0.06740315 -0.06743004 -0.06745436 -0.06747613 -0.06749551 -0.06751263 -0.0675277
 -0.0675406 -0.06755245 -0.06756371 -0.06757551 -0.06758846 -0.06760273 -0.06761851 -0.06763569 -0.06765411 -0.06767507
 -0.06769869 -0.06772594 -0.06775688 -0.06778945 -0.06782339 -0.06785447 -0.06788282 -0.0679068 -0.06792723 -0.06794613
 -0.06796417 -0.06798416 -0.06800589 -0.06803036 -0.06805687 -0.06808505 -0.06811426 -0.06814399 -0.06817343 -0.06820201
 -0.06822935 -0.06825486 -0.06827984 -0.06830436 -0.06833032 -0.06835822 -0.06838787 -0.06841947 -0.06844995 -0.06847914
 -0.06850445 -0.06852605 -0.06854562 -0.06856354 -0.06858313 -0.06860399 -0.06862677 -0.06865027 -0.06867167 -0.0686909
 -0.06870595 -0.06871869 -0.06873052 -0.06874269 -0.06875721 -0.06877293 -0.06878997 -0.06880645 -0.06882133 -0.06883492
 -0.06884677 -0.06885935 -0.06887297 -0.06888956 -0.06890948 -0.0689318 -0.06895651 -0.06898033 -0.06900311 -0.06902167
 -0.06903628 -0.06904669 -0.06905354 -0.06905904 -0.06906342 -0.06906854 -0.06907363 -0.06907822 -0.06908153 -0.06908203
 -0.0690805 -0.06907675 -0.06907257 -0.06906898 -0.06906696 -0.06906739 -0.06906957 -0.06907354 -0.06907842 -0.06908402
 -0.0690902 -0.06909698 -0.0691039 -0.06911094 -0.06911629 -0.06911982 -0.06911933 -0.06911498 -0.06910633 -0.06909389
 -0.06907934 -0.06906311 -0.06904715 -0.06903159 -0.06901752 -0.06900493 -0.06899434 -0.06898534 -0.06897812 -0.06897125
 -0.06896407 -0.0689551 -0.06894325 -0.06892918 -0.06891258 -0.06889571 -0.06887899 -0.06886315 -0.06884839 -0.0688334
 -0.06881808 -0.06880195 -0.06878509 -0.06876919 -0.06875419 -0.0687407 -0.06872822 -0.06871488 -0.06870049 -0.0686833
 -0.06866409 -0.06864334 -0.06862213 -0.06860202 -0.06858354 -0.0685678 -0.06855445 -0.06854381 -0.06853477 -0.06852719
 -0.06851931 -0.06851067 -0.06849986 -0.06848638 -0.06847077 -0.06845287 -0.06843536 -0.06841841 -0.06840456 -0.06839382
 -0.06838637 -0.06838189 -0.06837826 -0.06837532 -0.06837124 -0.06836627 -0.0683602 -0.06835338 -0.06834641 -0.06833921
 -0.06833204 -0.06832438 -0.06831605 -0.06830604 -0.06829379 -0.06827835 -0.06825876 -0.06823629 -0.06821073 -0.06818516
 -0.06816017 -0.06813743 -0.06811736 -0.06809893 -0.06808211 -0.06806534 -0.06804857 -0.06803165 -0.06801451 -0.06799658
 -0.06797758 -0.06795591 -0.06793144 -0.06790278 -0.06787047 -0.06783464 -0.06779637 -0.06775694 -0.06771764 -0.06768025
 -0.06764478 -0.06761222 -0.06758038 -0.06754868 -0.06751496 -0.06747823 -0.0674387 -0.06739601 -0.06735221 -0.06730749
 -0.06726316 -0.06721935 -0.06717602 -0.06713314 -0.0670898 -0.06704602 -0.06700121 -0.06695584 -0.06691158 -0.06686899
 -0.06683104 -0.06679681 -0.06676653 -0.06673757 -0.06670633 -0.06667171 -0.06663066 -0.06658544 -0.06653634 -0.06648611
 -0.06643636 -0.06638712 -0.06633887 -0.06629054 -0.0662419 -0.06619301 -0.06614385 -0.06609464 -0.06604544 -0.06599491
 -0.06594292 -0.06588691 -0.06582696 -0.06576228 -0.06569348 -0.06562286 -0.06555078 -0.06547983 -0.06540907 -0.06533782
 -0.06526545 -0.06519006 -0.06511374 -0.06503771 -0.06496393 -0.06489491 -0.06482843 -0.06476457 -0.06469934 -0.06463108
 -0.06455953 -0.06448402 -0.06440715 -0.06432929 -0.06425128 -0.06417329 -0.06409366 -0.0640123 -0.06392733 -0.0638389
 -0.06374716 -0.06365271 -0.06355841 -0.06346474 -0.063375 -0.06328829 -0.06320468 -0.06312246 -0.06303901 -0.06295389
 -0.06286564 -0.06277446 -0.06268032 -0.06258243 -0.06248033 -0.06237395 -0.06226267 -0.06214925 -0.0620343 -0.06191894
 -0.06180375 -0.06168549 -0.06156396 -0.06143641 -0.06130285 -0.06116577 -0.0610254 -0.06088501 -0.06074386 -0.06060054
 -0.06045352 -0.06029725 -0.06013145 -0.05995189 -0.05976149 -0.05956212 -0.05935767 -0.05915363 -0.05894911 -0.05874642
 -0.05853951 -0.05832572 -0.05810243 -0.05786696 -0.05762483 -0.05737657 -0.05712781 -0.05688003 -0.05663006 -0.05637798
 -0.05611627 -0.05584466 -0.05556018 -0.05526353 -0.05496006 -0.05465098 -0.05434569 -0.05404356 -0.05374848 -0.0534571
 -0.05316452 -0.05286752 -0.05255875 -0.05223842 -0.0519038 -0.05155681 -0.05119853 -0.05082856 -0.05044774 -0.05005265
 -0.0496433 -0.04921284 -0.04876055 -0.04827685 -0.04775978 -0.04720777 -0.04661986 -0.04600972 -0.04537801 -0.04473803
 -0.04408928 -0.04343122 -0.04276355 -0.04208374 -0.04139381 -0.04070035 -0.04000164 -0.03929969 -0.0385859 -0.03784735
 -0.03708093 -0.03627434 -0.0354412 -0.0345867 -0.03372407 -0.03286482 -0.03200103 -0.03113439 -0.03024792 -0.02933731
 -0.02839676 -0.02742474 -0.0264212 -0.02538703 -0.02430362 -0.02316974 -0.02194837 -0.02064021 -0.01923544 -0.01774368
 -0.01621153 -0.01464405 -0.01308799 -0.01152852 -0.009958006 -0.008357293 -0.006692114 -0.004956859 -0.003134769 -0.001220076
 0.0007869267 0.002921924 0.005194611 0.007660746 0.01034707 0.01326124 0.01642421 0.01974534 0.02322203 0.02671854
 0.03022265 0.03364582 0.03698369 0.04022144 0.04336455 0.04646228 0.04952972 0.05267272 0.05590225 0.0593277
 0.06291083 0.06664007 0.07042745 0.07411958 0.07769434 0.08104408 0.08425631 0.08735731 0.09043596 0.09355621
 0.09672192 0.09995525 0.1032108 0.1064796 0.1097412 0.1129913 0.1162191 0.1194243 0.1225811 0.1256886
 0.1287473 0.1317576 0.1347306 0.1376546 0.1404726 0.14317 0.1456568 0.1479509 0.1500423 0.1519676
 0.1537908 0.1555061 0.1571431 0.1586526 0.159994 0.1611767 0.1621777 0.1630799 0.1639091 0.1647183
 0.1655326 0.1663308 0.1671142 0.1678496 0.1685317 0.169177 0.1697865 0.1704023 0.1710238 0.1716548
 0.1722863 0.1728682 0.1733937 0.1738121 0.1741238 0.1743084 0.1743599 0.1742623 0.1740035 0.1735578
 0.1729372 0.1721279 0.1711933 0.170149 0.1690947 0.1680613 0.1671499 0.1663885 0.1658471 0.1655439
 0.1654892 0.1656881 0.1661078 0.166747 0.1675821 0.168613 0.1698367 0.1712517 0.1728485 0.1746222
 0.1765502 0.1786283 0.1808358 0.1831701 0.1856181 0.1881784 0.1908436 0.1936167 0.1964971 0.1994905
 0.2026 0.2058283 0.209178 0.2126473 0.2162369 0.2199414 0.2237606 0.2276868 0.2317201 0.2358451
 0.2400613 0.2443276 0.2486406 0.2529431 0.2572346 0.2614877 0.2656984 0.2698546 0.2739153 0.2777866
 0.2814065 0.2846139 0.2874154 0.2897405 0.2916593 0.2932137 0.2944303 0.2953464 0.2959288 0.2961729
 0.2960526 0.2955647 0.2946705 0.2933724 0.2915713 0.2892548 0.2863779 0.2829357 0.2790813 0.2748255
 0.270364 0.2656916 0.2608665 0.2558816 0.2507336 0.2454378 0.2400275 0.2345247 0.2289907 0.2234157
 0.2178248 0.212164 0.2063886 0.2004858 0.1944006 0.1882687 0.1821177 0.1761042 0.1702918 0.1646763
 0.159272 0.1540109 0.1488823 0.1439026 0.1390717 0.1344569 0.1300586 0.1258884 0.1219389 0.1181635
 0.1145592 0.111089 0.1077564 0.1045558 0.1014808 0.09852649 0.09566381 0.09286147 0.09008049 0.08727546
 0.08443087 0.0815198 0.07856019 0.07555353 0.0725141 0.06944676 0.06635361 0.06322639 0.06013241 0.05707088
 0.05418514 0.05148503 0.04902878 0.04681205 0.0447525 0.04284137 0.0409758 0.0391608 0.03735994 0.03558714
 0.03386081 0.03218941 0.03059579 0.02908506 0.02766839 0.02636054 0.02517399 0.02413107 0.02324759 0.02253958
 0.02201759 0.02168731 0.02155181 0.02161492 0.02187634 0.02234795 0.02302967 0.02394656 0.02510026 0.02651316
 0.02818267 0.03006711 0.03214622 0.03425839 0.0363764 0.03829674 0.04001949 0.04143538 0.04257148 0.04342217
 0.04402538 0.04441801 0.04465416 0.04478325 0.0448742 0.04497993 0.0451491 0.04542509 0.04578313 0.04623564
 0.04669657 0.04714943 0.04755057 0.04788762 0.04820021 0.04848944 0.04881851 0.04918938 0.04963386 0.05014909
 0.05072778 0.05136744 0.05205085 0.05278421 0.05357157 0.05442932 0.05538834 0.05646462 0.05769324 0.05907744
 0.06063 0.06235646 0.06425451 0.06636078 0.06868473 0.07127538 0.07415335 0.07732446 0.08079816 0.08453529
 0.08853031 0.09277408 0.09726404 0.1020535 0.1071431 0.1125483 0.1182483 0.1240963 0.1300522 0.1358637
 0.1415077 0.1467959 0.1517133 0.1561623 0.1600887 0.1633969 0.1660031 0.1677954 0.1687314 0.1687373
 0.1678557 0.1660705 0.163495 0.1601436 0.1561746 0.151609 0.1466291 0.1412521 0.1356701 0.1298959
 0.1241201 0.1183515 0.1127362 0.1072726 0.1020155 0.09695645 0.0920843 0.08740032 0.08289864 0.07859387
 0.07451349 0.07066432 0.06707364 0.0637233 0.06061213 0.05770378 0.05497888 0.05239717 0.04993892 0.04756948
 0.04527504 0.04303416 0.04083957 0.03868574 0.03657053 0.03449773 0.03246703 0.03049152 0.02857269 0.02674596
 0.02501638 0.0234428 0.02202876 0.02082564 0.01982539 0.01903605 0.01843685 0.01799388 0.01768228 0.01745602
 0.01729275 0.01715658 0.01703028 0.01689294 0.01673397 0.01654437 0.01631706 0.01604894 0.01573263 0.01536667
 0.01494348 0.01446223 0.01391528 0.01330219 0.01261277 0.01184652 0.01099475 0.01005848 0.009041348 0.007948193
 0.006801425 0.005610083 0.004410475 0.003214155 0.00206048 0.000959615 -5.793268E-05 -0.0009865673 -0.001809667 -0.002526867
 -0.003131643 -0.003630647 -0.004022532 -0.004324387 -0.004538815 -0.004689864 -0.004782161 -0.004836381 -0.004855698 -0.004853785
 -0.004831759 -0.004802586 -0.004767045 -0.004740233 -0.004722781 -0.004726746 -0.00475207 -0.004804783 -0.004884696 -0.004994375
 -0.005133727 -0.005303545 -0.005504386 -0.005736627 -0.006002919 -0.006305158 -0.006648137 -0.0070356 -0.007471065 -0.007958191
 -0.008494421 -0.009081445 -0.009708364 -0.01037473 -0.01106286 -0.01177104 -0.0124804 -0.01318942 -0.01388269 -0.01455943
 -0.01520928 -0.0158321 -0.01642246 -0.01698067 -0.01750542 -0.01799686 -0.01845517 -0.01887938 -0.01926783 -0.01961888
 -0.01992949 -0.02019845 -0.02042375 -0.0206037 -0.02073731 -0.02082071 -0.02085213 -0.02082758 -0.02074465 -0.02060435
 -0.02040516 -0.02015631 -0.01985779 -0.01952598 -0.01916183 -0.01878452 -0.01839514 -0.01801271 -0.01763858 -0.01729298
 -0.01697804 -0.01671557 -0.01650719 -0.01637048 -0.01630384 -0.01631357 -0.01639432 -0.0165417 -0.01674865 -0.01700684
 -0.01730957 -0.01764974 -0.01802275 -0.01842439 -0.01885337 -0.01930826 -0.01978965 -0.02029764 -0.0208316 -0.02139182
 -0.02197479 -0.02258047 -0.02320265 -0.02384095 -0.0244857 -0.02513617 -0.0257811 -0.02642017 -0.02704528 -0.02765721
 -0.02825401 -0.02883707 -0.02940864 -0.02996929 -0.0305213 -0.03106366 -0.03159651 -0.03211767 -0.03262563 -0.03311858
 -0.03359484 -0.03405491 -0.03449802 -0.03492745 -0.03534329 -0.03575103 -0.0361513 -0.03654946 -0.03694617 -0.0373435
 -0.03774156 -0.03813718 -0.03852985 -0.03891307 -0.03928611 -0.03964166 -0.039979 -0.04029162 -0.0405794 -0.04083857
 -0.04107024 -0.04127456 -0.04145246 -0.04160572 -0.04173277 -0.04183365 -0.04190474 -0.04194447 -0.04194933 -0.04191837
 -0.04184676 -0.04173432 -0.04157134 -0.04135694 -0.0410792 -0.04073669 -0.04032424 -0.03984153 -0.03929634 -0.03868997
 -0.03804032 -0.03734899 -0.03663479 -0.0358977 -0.03514849 -0.03438436 -0.03360479 -0.03280548 -0.03197937 -0.03112338
 -0.03023102 -0.02930201 -0.02833379 -0.02732804 -0.02628469 -0.02520633 -0.02409303 -0.02295039 -0.02177841 -0.02058863
 -0.01938194 -0.01817369 -0.01696538 -0.01576837 -0.01458336 -0.01341374 -0.01225937 -0.01111906 -0.009992377 -0.00887702
 -0.007771425 -0.006670125 -0.005568838 -0.004455777 -0.003324999 -0.002161833 -0.0009617393 0.000286776 0.001583618 0.002933377
 0.004331357 0.005776488 0.007263927 0.008791243 0.01035745 0.01196273 0.01360271 0.01527959 0.01696855 0.01866981
 0.02033171 0.02195143 0.02346996 0.02488566 0.02616313 0.02730571 0.02831509 0.02919753 0.02997688 0.03065707
 0.03126007 0.03178539 0.03224185 0.03262796 0.03294403 0.03319265 0.03337396 0.03349676 0.03356424 0.03358902
 0.03357577 0.03353605 0.03347366 0.0333951 0.03330194 0.03319792 0.03308326 0.03296428 0.03284134 0.03272277
 0.03260879 0.03250379 0.03240709 0.03231633 0.03223057 0.03214512 0.03205932 0.03196982 0.03187475 0.03177077
 0.0316527 0.03151463 0.03134807 0.03114537 0.03089692 0.03059588 0.03023445 0.02980799 0.02931279 0.02874589
 0.02811163 0.0274085 0.02665367 0.02584763 0.02501746 0.02416477 0.02331426 0.02246662 0.02163439 0.02081733
 0.02001944 0.0192415 0.01848799 0.01776139 0.01706979 0.01641622 0.01580933 0.01525167 0.01475015 0.01430476
 0.01391953 0.013588 0.01331077 0.01307074 0.01286515 0.01266544 0.01246626 0.01223382 0.01196192 0.01162475
 0.01121785 0.01073656 0.01017996 0.009564731 0.008892206 0.008186673 0.007449394 0.006700311 0.005940511 0.005184519
 0.004433827 0.003699595 0.0029829 0.002290764 0.001623469 0.0009838588 0.0003725828 -0.0002083419 -0.0007603648 -0.001280882
 -0.001781904 -0.002262766 -0.002753282 -0.003256991 -0.003817992 -0.004442465 -0.005175846 -0.006023876 -0.007017128 -0.008158445
 -0.009449297 -0.01088805 -0.01244202 -0.01410566 -0.0158244 -0.01759192 -0.01935373 -0.02110585 -0.02280982 -0.02446522
 -0.02605278 -0.0275762 -0.02903158 -0.0304256 -0.03176294 -0.03304832 -0.03428714 -0.03547747 -0.03662067 -0.03771068
 -0.03874559 -0.03972339 -0.04064253 -0.04150804 -0.04231978 -0.04308747 -0.04381163 -0.04450398 -0.04516515 -0.04580657
 -0.04642848 -0.04703841 -0.04763532 -0.04821952 -0.04878817 -0.04933429 -0.04985416 -0.05033755 -0.05078238 -0.05118116
 -0.05153509 -0.05184212 -0.05210575 -0.05232787 -0.05251008 -0.0526546 -0.05275755 -0.05281891 -0.05283194 -0.0527946
 -0.05270711 -0.05256774 -0.0523929 -0.05218307 -0.05196799 -0.05174928 -0.05155636 -0.05138996 -0.05126939 -0.05119414
 -0.05117275 -0.05120363 -0.05128787 -0.05142159 -0.05159937 -0.05181444 -0.05205718 -0.05231815 -0.052587 -0.05285228
 -0.05310456 -0.05333448 -0.05353521 -0.05370444 -0.05383963 -0.05394359 -0.05401716 -0.05405851 -0.05406832 -0.05403644
 -0.05396223 -0.05383633 -0.05365878 -0.0534343 -0.0531658 -0.05287757 -0.05257582 -0.05229992 -0.05205728 -0.05188962
 -0.05180075 -0.05181966 -0.05194162 -0.05217501 -0.05250574 -0.05292662 -0.05341641 -0.05396283 -0.05453933 -0.05513474
 -0.05571849 -0.05628126 -0.05679387 -0.05724889 -0.05762921 -0.05793054 -0.05815547 -0.05830338 -0.05838951 -0.05841458
 -0.05839098 -0.05831862 -0.05820124 -0.05803919 -0.05783507 -0.05759148 -0.05731668 -0.05701477 -0.05669751 -0.05636841
 -0.0560375 -0.05570579 -0.0553785 -0.0550532 -0.05473064 -0.05440559 -0.05407614 -0.05373756 -0.05338738 -0.05302588
 -0.05265142 -0.05227293 -0.05189029 -0.0515206 -0.05116498 -0.05084045 -0.05054768 -0.0502935 -0.05007684 -0.04989136
 -0.04973451 -0.04959156 -0.04945934 -0.04932112 -0.04917421 -0.04900518 -0.04881285 -0.04858994 -0.04833635 -0.04804957
 -0.0477295 -0.047375 -0.04698741 -0.04656625 -0.04611604 -0.0456377 -0.04513648 -0.04461372 -0.044072 -0.04351158
 -0.04293583 -0.04234462 -0.04174833 -0.04114769 -0.04056133 -0.03999053 -0.03945521 -0.03895523 -0.03850135 -0.0380907
 -0.03772101 -0.03738724 -0.03707847 -0.03678938 -0.03650803 -0.03623024 -0.0359471 -0.03565797 -0.0353581 -0.03505397
 -0.03474595 -0.03444548 -0.03415635 -0.0338862 -0.03363825 -0.03341096 -0.03320518 -0.03301305 -0.03283416 -0.03265991
 -0.03248987 -0.03231712 -0.03214142 -0.0319579 -0.03176655 -0.03156446 -0.03135229 -0.03113017 -0.03089981 -0.03066482
 -0.03042674 -0.03019046 -0.02995379 -0.02971738 -0.02947561 -0.02922446 -0.02896079 -0.02868084 -0.02838808 -0.02808214
 -0.02776965 -0.02745201 -0.02713379 -0.02681614 -0.02649924 -0.02618352 -0.0258635 -0.02553888 -0.02520114 -0.02485009
 -0.02448026 -0.02409271 -0.02368943 -0.02327275 -0.0228511 -0.02242647 -0.02200844 -0.02159489 -0.0211886 -0.02078173
 -0.02036686 -0.01993865 -0.01948756 -0.01902267 -0.0185426 -0.01806901 -0.01760868 -0.01717791 -0.01678345 -0.01642341
 -0.01609994 -0.01579674 -0.01551284 -0.01523103 -0.0149504 -0.01466372 -0.01437149 -0.01407764 -0.01378251 -0.01349051
 -0.01319997 -0.01290745 -0.01261125 -0.01230495 -0.01199009 -0.01166552 -0.01133526 -0.01100284 -0.0106724 -0.01034789
 -0.01003244 -0.00972937 -0.00943747 -0.009158453 -0.008884185 -0.008613574 -0.008337555 -0.008053989 -0.007762241 -0.007461627
 -0.007159503 -0.006856239 -0.006558585 -0.006266232 -0.00597791 -0.005691858 -0.005397947 -0.005093751 -0.004765508 -0.004412062
 -0.004023858 -0.003601242 -0.003140405 -0.00264267 -0.002106952 -0.001537987 -0.0009369113 -0.0003144861 0.0003253846 0.0009678444
 0.001608621 0.002230004 0.002828571 0.003383955 0.003892096 0.004342676 0.004732735 0.005080171 0.005385832 0.005688755
 0.005990495 0.006321845 0.006680788 0.00707218 0.007491159 0.007923989 0.008365569 0.008797851 0.009216417 0.009606861
 0.009965052 0.01028166 0.01055223 0.01077039 0.01093383 0.01103758 0.01108893 0.01108596 0.01105052 0.01098482
 0.01092017 0.01086096 0.01083518 0.01084641 0.01090686 0.01101748 0.0111703 0.01136424 0.01158194 0.01182333
 0.01207885 0.01235028 0.01263961 0.0129471 0.01327525 0.01362126 0.01398219 0.01435387 0.01473065 0.0151089
 0.01548166 0.01585475 0.01622366 0.01661588 0.01703735 0.01752348 0.01809092 0.01872519 0.01943337 0.02014325
 0.02084644 0.02151615 0.02214996 0.02278312 0.02341666 0.02407407 0.02475001 0.02542399 0.02608655 0.02669276
 0.02723443 0.02767036 0.02799349 0.02817355 0.02820732 0.02807598 0.02778972 0.02734408 0.02677054 0.02607727
 0.02531746 0.0245075 0.02370742 0.02293427 0.02223264 0.02161341 0.02109554 0.02068335 0.02037163 0.02016063
 0.02002115 0.01995047 0.0199019 0.01987247 0.0198185 0.01974109 0.01961913 0.01945967 0.01926732 0.01905421
 0.01884346 0.01864341 0.01848056 0.018336 0.01821486 0.0180597 0.01784233 0.01751048 0.01702724 0.01640703
 0.01563369 0.01479626 0.01390091 0.01306287 0.01229504 0.01167646 0.0112135 0.0109186 0.0107903 0.0108014
 0.01094937 0.01120632 0.01156824 0.0120077 0.01251525 0.01305366 0.01361367 0.0141607 0.01469363 0.01519649
 0.01567406 0.01612522 0.0165544 0.01696407 0.01735672 0.01773418 0.01809657 0.01844488 0.0187754 0.01908772
 0.01937813 0.01964573 0.01989317 0.02012044 0.02033558 0.02053888 0.02073608 0.02092657 0.02110897 0.02128177
 0.02143787 0.02157658 0.02169123 0.02178486 0.0218582 0.02191868 0.02197495 0.02203557 0.02211167 0.02220603
 0.02232576 0.02246254 0.02261692 0.02277209 0.02292389 0.02305893 0.02317369 0.02326365 0.0233281 0.02336264
 0.02336697 0.02333518 0.02326769 0.02317332 0.02305493 0.0229394 0.0228269 0.02273499 0.02265656 0.02258171
 0.02250305 0.02240092 0.02227503 0.02211663 0.02192848 0.02171028 0.02146396 0.02119024 0.02089185 0.02057056
 0.02022623 0.01986055 0.01946556 0.01903998 0.01857777 0.01807694 0.01754622 0.01698578 0.01641313 0.01582897
 0.01524463 0.01465982 0.01407731 0.01349698 0.01291969 0.01234618 0.01177866 0.01121854 0.01066843 0.0101323
 0.009614615 0.009123771 0.008667826 0.008256052 0.007897876 0.007593646 0.007348175 0.007149669 0.006996964 0.006874265
 0.00677844 0.006698738 0.006633518 0.006576406 0.006526948 0.00647707 0.006426636</values></Ydata></AB><ScSm><Ydata ylabel="Single channel"><values byteorder="INTEL" format="FLOAT32" numvalues="1814"> 0.08668564 0.08679944 0.08692718 0.08707638 0.08724105 0.08740541 0.08755529 0.08768757 0.08780719 0.08791552
 0.08801267 0.08811237 0.08823915 0.08840224 0.08858167 0.08874405 0.08886892 0.08896545 0.08906834 0.08920537
 0.08935853 0.08946754 0.08948458 0.08942647 0.08936596 0.08936718 0.08944294 0.08959202 0.08984323 0.09018854
 0.09048676 0.0905534 0.09039041 0.09022241 0.09024705 0.09043704 0.09063037 0.09071153 0.09065744 0.09052353
 0.09046929 0.09070925 0.09131882 0.09207317 0.09251406 0.09221302 0.0910577 0.08940995 0.08802007 0.0876327
 0.08844882 0.08990325 0.09108964 0.09149146 0.09126081 0.09083035 0.09046216 0.09024214 0.09028041 0.09069154
 0.09140697 0.09210154 0.09232245 0.09178677 0.09070095 0.08972301 0.0894267 0.08985725 0.09073174 0.09178096
 0.09249403 0.09186372 0.08927864 0.08587456 0.08417985 0.08577979 0.08965741 0.09325095 0.09478623 0.09421541
 0.09247539 0.09066159 0.08973887 0.09021118 0.09179159 0.09368639 0.09522651 0.0960465 0.09591521 0.09484318
 0.09330425 0.09203668 0.09163105 0.09235758 0.09405732 0.0959778 0.09707357 0.0968297 0.09564781 0.09432654
 0.09347266 0.09347335 0.09453001 0.09641852 0.0985083 0.1002275 0.1013605 0.1019241 0.102028 0.1018513
 0.1015542 0.1012553 0.1011529 0.1014232 0.1018763 0.1019951 0.101511 0.1007674 0.1003728 0.1005724
 0.1010373 0.101263 0.1010706 0.1005112 0.09934997 0.09718243 0.09426387 0.0916374 0.09011527 0.08971071
 0.0902997 0.09196363 0.09418777 0.09561837 0.0954245 0.09441955 0.09418313 0.09535301 0.09722302 0.0987687
 0.0996406 0.1002209 0.1010236 0.1021148 0.1029665 0.1028497 0.1015831 0.09999623 0.09937717 0.1002268
 0.1017694 0.1029008 0.1033434 0.1036126 0.1041047 0.1045248 0.1041479 0.1025981 0.100499 0.09925529
 0.09989485 0.1020508 0.1041533 0.1046193 0.1029781 0.1001212 0.09755433 0.09631689 0.0965758 0.09805702
 0.1004248 0.103125 0.1052914 0.1061831 0.1056988 0.1043559 0.1027282 0.1009179 0.09875266 0.09659812
 0.09557724 0.09652269 0.09890598 0.1012555 0.1025162 0.1026378 0.101979 0.1005982 0.09834066 0.09555176
 0.09339735 0.09300621 0.09419042 0.09548569 0.09570622 0.09505233 0.09445227 0.09429046 0.09419801 0.09382135
 0.09334958 0.09324014 0.09363268 0.09417012 0.09437707 0.09409906 0.09353466 0.09295265 0.09244065 0.09186058
 0.0910622 0.09021318 0.08979358 0.09009142 0.09081496 0.09138587 0.09151135 0.09130269 0.09092908 0.09033864
 0.08935861 0.08803977 0.08682855 0.08625454 0.08641516 0.08690032 0.08723219 0.08722329 0.08692587 0.08645067
 0.0858947 0.08531953 0.08475944 0.08428065 0.08397025 0.08381958 0.08369479 0.08346873 0.08312161 0.08269322
 0.0822034 0.08165327 0.0810732 0.08053823 0.08012102 0.07983124 0.07961744 0.07942173 0.07920147 0.07891302
 0.07852918 0.07807801 0.07762386 0.07720727 0.0768298 0.07648816 0.07619185 0.07594268 0.07571582 0.07547377
 0.07519887 0.07490104 0.07459287 0.07427408 0.07394734 0.07363178 0.07335062 0.07311183 0.07290077 0.07269128
 0.07247626 0.07228251 0.0721301 0.07198487 0.07178622 0.07152037 0.07123447 0.07098165 0.07077837 0.07060988
 0.07045062 0.0702752 0.07006434 0.06981571 0.06955726 0.06934045 0.069204 0.06914639 0.06913927 0.06915058
 0.06914565 0.06909409 0.06899557 0.06888022 0.06877217 0.0686689 0.06855986 0.06844964 0.06835985 0.06831379
 0.06831411 0.06833506 0.06834487 0.06833033 0.0682958 0.06825568 0.06823373 0.0682445 0.06826606 0.06825716
 0.0682108 0.06816728 0.06816503 0.06819742 0.06822661 0.06822811 0.06821394 0.06821469 0.06824555 0.06829502
 0.06834407 0.06838764 0.06843519 0.06849615 0.06856384 0.06861421 0.06862818 0.06861591 0.06860767 0.06862126
 0.06865223 0.06869448 0.06875236 0.06882814 0.06890923 0.06897579 0.06901821 0.06904486 0.06907009 0.06909614
 0.06911194 0.06911027 0.06909819 0.0690883 0.06908563 0.06908523 0.06907748 0.06905508 0.06901754 0.06896929
 0.06891377 0.06885069 0.06877777 0.06869498 0.06861021 0.06853852 0.0684873 0.06844095 0.06836976 0.06825873
 0.06812283 0.0679924 0.0678874 0.06780625 0.06773498 0.06766348 0.06759335 0.06753302 0.06748845 0.06745961
 0.06744295 0.06743667 0.06744625 0.06748524 0.06756547 0.06768291 0.0678165 0.06794529 0.06806538 0.06818774
 0.06832309 0.06847318 0.06863477 0.06880608 0.06898762 0.06918005 0.06938079 0.06958173 0.06977405 0.06995738
 0.07014143 0.07033689 0.07054797 0.07077335 0.07100734 0.07123918 0.07145923 0.07167038 0.07188751 0.07212248
 0.07237331 0.07263143 0.07289419 0.07316566 0.07344899 0.07374406 0.07405166 0.07437538 0.07471784 0.07507621
 0.07544205 0.07580593 0.07616484 0.07652603 0.07690221 0.07730085 0.07771745 0.07814045 0.07856247 0.07898651
 0.07941878 0.07985727 0.08029359 0.0807274 0.08117241 0.08164158 0.08213088 0.08262378 0.08310935 0.08359007
 0.08407366 0.08456346 0.08505729 0.08555172 0.08604643 0.08654422 0.08704609 0.08754698 0.08803937 0.08852164
 0.0890003 0.08948323 0.08997297 0.09046471 0.09094804 0.09141338 0.09186223 0.09230938 0.09276835 0.0932357
 0.09369552 0.09413938 0.09457504 0.09501369 0.09545451 0.09588635 0.09630185 0.09670597 0.09710954 0.09751536
 0.09791322 0.09828998 0.09864396 0.09898637 0.0993285 0.09967287 0.1000194 0.1003729 0.1007356 0.1010973
 0.1014419 0.1017656 0.102079 0.1023929 0.1027091 0.1030243 0.1033365 0.1036469 0.103958 0.1042702
 0.1045782 0.1048792 0.1051837 0.10551 0.1058652 0.1062413 0.1066324 0.1070457 0.1074861 0.1079403
 0.1083898 0.1088345 0.1092898 0.1097573 0.1102134 0.1106353 0.1110256 0.1114015 0.1117719 0.11214
 0.1125188 0.1129276 0.1133707 0.1138318 0.1142869 0.1147184 0.1151222 0.1155089 0.1158924 0.1162706
 0.1166231 0.1169315 0.117198 0.1174425 0.1176839 0.1179263 0.1181567 0.118353 0.1184949 0.1185658
 0.118547 0.1184214 0.1181868 0.1178595 0.1174542 0.1169648 0.1163694 0.115654 0.114821 0.1138791
 0.1128336 0.1116931 0.1104854 0.1092705 0.1081363 0.1071807 0.1064886 0.1061207 0.1061112 0.1064567
 0.107094 0.1078889 0.1086582 0.1092186 0.1094366 0.109258 0.1087071 0.1078618 0.1068171 0.1056596
 0.1044593 0.1032703 0.1021315 0.101072 0.1001318 0.09938143 0.09892143 0.09887752 0.09941193 0.1007132
 0.1028976 0.1058606 0.1092338 0.1125404 0.1154327 0.1178103 0.1197571 0.1214101 0.1228788 0.1242275
 0.1254842 0.1266545 0.1277353 0.1287199 0.1295937 0.1303345 0.1309206 0.1313409 0.1315994 0.1317208
 0.1317528 0.131764 0.1318326 0.1320193 0.1323311 0.1327029 0.13302 0.1331683 0.1330738 0.1327115
 0.1321023 0.1313383 0.130652 0.1304599 0.1312525 0.1333111 0.1364654 0.1401433 0.1437004 0.1467331
 0.1491481 0.1510361 0.1525341 0.1537613 0.1548065 0.1557304 0.1565718 0.157356 0.1580996 0.1588137
 0.1595054 0.1601775 0.1608325 0.1614753 0.1621123 0.1627459 0.163374 0.1639932 0.1646027 0.1652043
 0.1657996 0.1663894 0.1669732 0.1675513 0.1681229 0.1686857 0.1692369 0.1697757 0.1703033 0.1708242
 0.1713456 0.1718711 0.1723949 0.1729048 0.1733925 0.1738598 0.1743136 0.1747602 0.1752013 0.1756359
 0.1760616 0.1764772 0.1768842 0.1772874 0.1776929 0.1781035 0.1785154 0.1789207 0.179315 0.1797009
 0.180086 0.1804765 0.1808733 0.181273 0.181672 0.1820734 0.1824855 0.1829123 0.1833468 0.183776
 0.1841938 0.1846053 0.1850184 0.1854356 0.185854 0.1862712 0.186687 0.1871005 0.1875083 0.1879084
 0.1883028 0.1886954 0.1890873 0.1894769 0.1898631 0.1902461 0.1906259 0.1910012 0.1913731 0.1917457
 0.1921221 0.1925005 0.1928736 0.1932354 0.193586 0.19393 0.1942717 0.1946146 0.1949623 0.1953151
 0.1956693 0.1960216 0.1963727 0.1967248 0.1970777 0.1974294 0.1977804 0.1981332 0.198489 0.1988454
 0.1991993 0.1995516 0.1999071 0.2002679 0.2006321 0.2009967 0.2013597 0.2017189 0.2020727 0.2024228
 0.2027719 0.2031211 0.2034702 0.2038205 0.2041735 0.2045295 0.2048872 0.205243 0.2055935 0.2059392
 0.2062835 0.2066286 0.2069754 0.2073259 0.2076813 0.2080405 0.2084 0.2087568 0.2091087 0.2094559
 0.2098006 0.2101449 0.21049 0.2108384 0.2111911 0.2115461 0.211901 0.2122555 0.2126078 0.2129541
 0.2132935 0.2136297 0.2139653 0.2143016 0.2146399 0.2149803 0.2153207 0.2156604 0.2160016 0.2163465
 0.216695 0.2170439 0.2173892 0.2177309 0.2180739 0.2184195 0.2187628 0.2191012 0.2194401 0.2197848
 0.2201354 0.2204904 0.2208467 0.2211987 0.2215431 0.2218828 0.2222221 0.2225624 0.2229027 0.223239
 0.2235667 0.2238876 0.2242097 0.2245386 0.2248743 0.2252166 0.2255643 0.2259138 0.2262629 0.2266118
 0.226958 0.2273008 0.2276465 0.228 0.2283565 0.2287126 0.2290734 0.2294417 0.2298132 0.2301841
 0.2305544 0.230923 0.2312886 0.2316513 0.2320109 0.2323689 0.2327306 0.2330967 0.2334612 0.2338212
 0.2341798 0.2345377 0.2348935 0.2352498 0.2356082 0.2359656 0.2363209 0.236676 0.2370298 0.2373817
 0.2377363 0.238092 0.2384415 0.2387863 0.2391354 0.2394887 0.2398411 0.2401949 0.2405524 0.2409094
 0.241267 0.2416303 0.241994 0.2423482 0.2426931 0.2430322 0.2433665 0.2437019 0.2440405 0.2443657
 0.2446479 0.2448335 0.2447785 0.2441718 0.2424918 0.2390151 0.2329524 0.2237569 0.2114477 0.1967118
 0.1807187 0.1647566 0.1498826 0.136774 0.1257996 0.1171495 0.1109295 0.1072544 0.1063256 0.1085304
 0.1145668 0.1250262 0.1388788 0.1521735 0.1595171 0.158153 0.1504557 0.1417788 0.1361012 0.1340764
 0.1343738 0.1356694 0.1374312 0.1397752 0.1430132 0.1471863 0.1520163 0.1573596 0.1634713 0.1706103
 0.1785309 0.1865721 0.194211 0.2013975 0.2083586 0.2151925 0.2217129 0.2276261 0.2327576 0.2371111
 0.2408064 0.2440053 0.2468479 0.2494235 0.2517909 0.2539868 0.2559785 0.2576402 0.258827 0.2594933
 0.2597471 0.2597975 0.2598382 0.2599657 0.260193 0.2605096 0.2609063 0.2613697 0.2618861 0.2624461
 0.263035 0.2636348 0.264237 0.2648369 0.2654222 0.2659798 0.2665048 0.2669945 0.2674498 0.2678832
 0.2683101 0.268734 0.2691499 0.2695554 0.2699485 0.2703289 0.2707026 0.2710734 0.2714325 0.2717677
 0.2720779 0.2723705 0.2726551 0.2729406 0.2732307 0.2735205 0.2738053 0.2740865 0.2743659 0.2746431
 0.274919 0.2751936 0.2754636 0.2757275 0.2759883 0.2762474 0.2765034 0.2767595 0.2770229 0.2772959
 0.2775753 0.2778546 0.2781269 0.278389 0.2786459 0.2789049 0.2791714 0.2794513 0.2797492 0.2800604
 0.2803738 0.2806839 0.280993 0.2813029 0.2816138 0.2819273 0.2822429 0.2825589 0.2828785 0.2832048
 0.2835293 0.2838341 0.2841106 0.2843688 0.2846303 0.2849098 0.2852033 0.2854954 0.2857791 0.2860636
 0.2863591 0.2866651 0.2869737 0.2872785 0.2875803 0.2878898 0.2882201 0.2885716 0.2889299 0.2892827
 0.2896298 0.2899765 0.2903269 0.2906855 0.2910524 0.2914183 0.2917722 0.292117 0.2924728 0.2928616
 0.2932839 0.293713 0.2941191 0.2944981 0.2948691 0.2952539 0.2956642 0.2960913 0.2964983 0.2968443
 0.2971387 0.2974505 0.2978442 0.2983185 0.2988189 0.2992952 0.2997333 0.3001457 0.3005471 0.3009392
 0.3013101 0.3016468 0.3019579 0.3022867 0.3026832 0.3031502 0.3036339 0.3040813 0.3044859 0.3048658
 0.305231 0.3055857 0.3059202 0.3061932 0.3063723 0.3065167 0.3067694 0.3072219 0.3078126 0.3083902
 0.3088628 0.3092536 0.3096222 0.3099881 0.3103408 0.3106526 0.3108402 0.3108075 0.3106175 0.3105543
 0.3108904 0.3116107 0.3124463 0.3131493 0.3136577 0.3140356 0.3143603 0.3146712 0.3149469 0.3151069
 0.3150975 0.3150142 0.3150884 0.3154767 0.3160866 0.3166779 0.3171145 0.3174406 0.3177503 0.3180803
 0.3183891 0.3185338 0.3183326 0.3178146 0.3173847 0.3175595 0.3184684 0.3197064 0.3207383 0.3213742
 0.3217715 0.3220624 0.322156 0.3219061 0.3212923 0.3204246 0.3195943 0.3193231 0.3200242 0.3214732
 0.3228965 0.3237468 0.3241746 0.3246388 0.3253066 0.325984 0.326434 0.3265907 0.3265166 0.3262636
 0.325847 0.325406 0.3253002 0.3258561 0.3269859 0.3282087 0.3291031 0.3296397 0.3299877 0.3300275
 0.3292221 0.3272519 0.3248527 0.3236384 0.324669 0.3273339 0.3300125 0.3316781 0.3324638 0.3329067
 0.3332455 0.3333509 0.3327156 0.3306244 0.3271285 0.3238934 0.3231909 0.3256646 0.3296078 0.3326143
 0.333418 0.3321565 0.3297583 0.3275101 0.3266022 0.3274831 0.3296682 0.3322346 0.3343794 0.3356359
 0.3359019 0.3353955 0.3345617 0.3339517 0.3338788 0.3339509 0.3333102 0.3317464 0.330104 0.3289829
 0.3276368 0.325193 0.3225963 0.3220212 0.3241789 0.3272873 0.3291349 0.3293419 0.3289686 0.3283871
 0.3264034 0.3218384 0.3157156 0.311236 0.3110351 0.3145538 0.3185945 0.3204592 0.3200811 0.3191205
 0.3186224 0.3179061 0.315578 0.3114918 0.30751 0.3058356 0.3065495 0.3075017 0.3066993 0.3037349
 0.2987575 0.2919217 0.2849703 0.2815956 0.2841794 0.2908022 0.2969261 0.2993153 0.2970667 0.2902488
 0.2801564 0.2706445 0.2664137 0.2686923 0.2738096 0.2767441 0.2750901 0.2691886 0.2600584 0.2488767
 0.2379815 0.2306291 0.228918 0.2321154 0.2368747 0.2387844 0.2346293 0.2248898 0.2142813 0.2082197
 0.2078244 0.2092418 0.2082219 0.2041116 0.1990262 0.1948847 0.1922997 0.191006 0.1902026 0.1891498
 0.1877413 0.1855761 0.1809245 0.1726779 0.1633891 0.1579633 0.1585814 0.1628885 0.1677309 0.1722901
 0.1764452 0.1785464 0.177149 0.1738878 0.1724646 0.1747152 0.1788854 0.1819368 0.1826922 0.1823235
 0.1822532 0.1823994 0.1819107 0.1811045 0.1815687 0.1840558 0.1872139 0.1890293 0.1888674 0.1874881
 0.1856738 0.1835999 0.1812056 0.1784912 0.1754897 0.1722865 0.169022 0.1657443 0.1623835 0.1589206
 0.1553504 0.1513612 0.1463816 0.140411 0.1347064 0.1309843 0.1297113 0.1298077 0.1302157 0.1307224
 0.1307277 0.1286406 0.1239718 0.1192976 0.1185359 0.1231773 0.1310626 0.1387413 0.1441277 0.146797
 0.1469072 0.1451719 0.1439239 0.1467388 0.1556744 0.16914 0.1833329 0.1954548 0.2047795 0.2112419
 0.2145147 0.2148913 0.2142261 0.215225 0.2196485 0.2271865 0.2357185 0.2422271 0.2440832 0.2412714
 0.2380198 0.2402321 0.2494777 0.2607639 0.2680132 0.2704862 0.27187 0.274497 0.2773231 0.2791826
 0.2811098 0.284505 0.2887205 0.2915386 0.2911208 0.2867722 0.2789251 0.2696772 0.2625236 0.259754
 0.2601926 0.2608093 0.2599855 0.2575835 0.2529834 0.2460227 0.2396207 0.2382104 0.2426629 0.2490101
 0.2529854 0.2540211 0.2540385 0.2539087 0.252401 0.2482496 0.2423706 0.2374609 0.2353072 0.2350382
 0.2344382 0.2322884 0.2286223 0.2234181 0.2164814 0.2086898 0.2021502 0.198451 0.1971618 0.196482
 0.1951459 0.1933612 0.1921308 0.1922094 0.193749 0.196466 0.1999857 0.2043103 0.2099068 0.2169401
 0.2245394 0.2313998 0.237147 0.2425828 0.2484775 0.2545574 0.2598509 0.2637545 0.2666042 0.2693486
 0.2727534 0.2767975 0.2807106 0.2836369 0.2854195 0.2867797 0.2886177 0.2911161 0.2936569 0.2955896
 0.2968473 0.2978035 0.2988102 0.2999652 0.3011001 0.3019421 0.302503 0.3033324 0.3051293 0.3080171
 0.3113647 0.3143631 0.3166295 0.3182327 0.3193283 0.3199366 0.3200405 0.3197636 0.3193662 0.3190731
 0.3189486 0.318936 0.3189661 0.3190126 0.3190916 0.3192516 0.3195496 0.3200154 0.3206478 0.3214428
 0.3223978 0.3234793 0.3246186 0.3257597 0.3268835 0.3279639 0.3289275 0.3296824 0.3301657 0.3303373
 0.3301468 0.3295378 0.328472 0.3269157 0.3248327 0.3222829 0.319601 0.3174417 0.316515 0.3171517
 0.3190732 0.3215818 0.3239892 0.3259236 0.327346 0.3283881 0.3292012 0.3298933 0.3305256 0.3311253
 0.3317005 0.3322576 0.3328072 0.333358 0.3339123 0.3344706 0.3350366 0.3356097 0.3361748 0.3366998
 0.3371449 0.3374787 0.3376893 0.3377827 0.3377713 0.3376621 0.3374472 0.3371086 0.3366417 0.3360765
 0.3354678 0.3348581 0.3342482 0.3335985 0.332857 0.3319756 0.3308923 0.3295209 0.3278213 0.3258964
 0.323965 0.3221813 0.3205009 0.3187537 0.3168153 0.314669 0.3123447 0.3098642 0.3072435 0.3045049
 0.301665 0.2987237 0.2956704 0.2925025 0.2892402 0.2859229 0.2825884 0.2792581 0.2759393 0.2726226
 0.2692596 0.2657421 0.2619132 0.2576119 0.2527145 0.2471537 0.2409314 0.2341472 0.2270239 0.2198757
 0.2130145 0.2066613 0.2009308 0.1958817 0.1915696 0.1880608 0.1854105 0.183643 0.1827531 0.1827172
 0.1834989 0.1850444 0.1872741 0.190073 0.1932915 0.1967561 0.2002846 0.2037053 0.2068968 0.2098344
 0.2125878 0.2152499 0.2178622 0.2204115 0.2228759 0.2252447 0.2274956 0.2295808 0.2314553 0.2331112
 0.2345785 0.2358965 0.2370857 0.2381353 0.239011 0.2396841 0.2401676 0.2405312 0.2408834 0.2413332
 0.2419523 0.2427567 0.2437208 0.2448082 0.2459927 0.2472551 0.2485753 0.2499307 0.2512971 0.2526524
 0.2539929 0.2553587 0.2568477 0.2586014 0.260763 0.2634273 0.2666025 0.2701968 0.2740336 0.277889
 0.2815418 0.2848252 0.2876601 0.2900497 0.2920358 0.2936524 0.2949147 0.2958399 0.2964626 0.296831
 0.2970003 0.2970259 0.2969479 0.296775 0.2964829 0.2960361 0.2954201 0.2946604 0.2938046 0.2928803
 0.2918764 0.2907709 0.2895704 0.28832 0.2870865 0.285935 0.2849132 0.2840486 0.2833503 0.2828056
 0.2823703 0.2819715 0.2815195 0.280923 0.2801099 0.2790431 0.2777112 0.2761063 0.2742256 0.2720968
 0.2697923 0.2674195 0.2650953 0.262907 0.2608786 0.2589671 0.2570839 0.255124 0.2530093 0.2507358
 0.2483757 0.2460244 0.243743 0.2415414 0.239396 0.2372832 0.235204 0.2331796 0.2312275 0.2293514
 0.2275456 0.2257971 0.2240941 0.2224454 0.2208889 0.2194738 0.2182399 0.2172035 0.2163481 0.2156299
 0.2149989 0.2144143 0.2138577 0.2133486 0.212929 0.2126036 0.2123046 0.2119313 0.2114215 0.2107883
 0.2101088 0.2094777 0.2089573 0.2085601 0.208259 0.2079831 0.2076136 0.2070132 0.2060719 0.2047245
 0.2029538 0.2008009 0.1983643 0.1957827 0.1932175 0.1908261 0.1887256 0.1869801 0.1856051 0.1845552
 0.183726 0.1830184 0.1824146 0.1819836 0.1818139 0.1819127 0.1821382 0.1822649 0.1821801 0.1820046
 0.1819839 0.1822795 0.1828758 0.183631 0.1843769 0.1849935 0.1854292 0.1856785 0.185769 0.1857519
 0.1856615 0.1854864 0.1852016 0.1848031 0.1842934 0.1836727 0.182954 0.1821514 0.1812592 0.1802711
 0.1791967 0.17804 0.1767953 0.1754594 0.1740077 0.172399 0.1706798 0.1690662 0.1678632 0.1672919
 0.1673708 0.1679132 0.1686548 0.1694205 0.1701421 0.1707372 0.1711138 0.1713598 0.171819 0.1728621
 0.1745655 0.1766187 0.1785399 0.1799841 0.1808488 0.1811605 0.1809765 0.1803772 0.1794188 0.1780892
 0.1763928 0.1744222 0.1722839 0.1700567 0.1678559 0.1658115 0.1639882 0.1624128 0.1610973 0.1600432
 0.1593159 0.1586631 0.1565937 0.1508923 0.1417423 0.1337655 0.13254 0.1385932 0.1466845 0.1514456
 0.1519591 0.1504993 0.1489858 0.1478794 0.1471514 0.1468848 0.1471236 0.1477383 0.1484575 0.1489738
 0.1491139 0.1488525 0.1480755 0.1463454 0.1428796 0.136828 0.1279149 0.1170435 0.1061137 0.09702912
 0.09077854 0.08723432 0.08551787 0.08459666 0.08386943 0.08339965 0.0836215 0.08485326 0.08709297 0.09014906
 0.09379333 0.09773179 0.1015396 0.104793 0.1073051 0.1091506 0.1104561 0.1112651 0.1116018 0.1115382
 0.111161 0.1105397 0.1097289 0.1087507 0.1075848 0.1062171 0.104717 0.1032662 0.102089 0.101311
 0.1008825 0.1006633 0.1005554 0.1005277 0.1005684 0.1006676 0.1008212 0.1010255 0.101287 0.1016246
 0.1020289 0.1024411 0.1028015 0.1030957 0.1033386 0.1035342 0.1036536 0.103655 0.103552 0.1034335
 0.1033363 0.103113 0.1025402 0.1015953 0.1005672 0.09986968 0.09975385 0.1001577 0.1007792 0.101301
 0.1015885 0.1017055 0.1017661 0.1017819</values></Ydata></ScSm><ScRf><Ydata ylabel="Single channel"><values byteorder="INTEL" format="FLOAT32" numvalues="1820"> 0.0697242 0.06985509 0.06997252 0.07007452 0.07016376 0.07025092 0.07035096 0.07047169 0.0706079 0.0707459
 0.07087307 0.07098559 0.0710867 0.07117806 0.07126023 0.0713428 0.07144304 0.07156821 0.07170546 0.07183199
 0.07193238 0.07201171 0.07209557 0.07220672 0.0723324 0.07242391 0.07243991 0.07239142 0.07233744 0.07233317
 0.07239281 0.07251624 0.07272366 0.07300454 0.07324323 0.07329246 0.07315762 0.07302326 0.0730487 0.07320744
 0.07336362 0.07342332 0.07337153 0.07325743 0.07321259 0.07341072 0.07391042 0.07452521 0.07488041 0.07462895
 0.0736828 0.07233928 0.0712107 0.07090373 0.07158041 0.07277632 0.07374866 0.07407553 0.07388384 0.07353075
 0.07323246 0.07305816 0.07309492 0.0734349 0.07402363 0.07459692 0.07478258 0.07434563 0.07345472 0.07265135
 0.07240728 0.07275909 0.0734743 0.07433291 0.07491793 0.07440823 0.07230808 0.06954721 0.06818545 0.06950742
 0.07267715 0.07560655 0.07685404 0.07638411 0.07496285 0.07348637 0.07274189 0.07313544 0.07442818 0.07597489
 0.07723501 0.07791115 0.07781138 0.0769427 0.07569338 0.07466732 0.07434672 0.0749506 0.07634538 0.07791315
 0.07880191 0.07859758 0.07763366 0.07656321 0.07587907 0.07589376 0.07676928 0.07832297 0.08004164 0.08145803
 0.08239324 0.08285935 0.08294824 0.08280983 0.08257626 0.08234386 0.08227462 0.08251291 0.08290155 0.08301423
 0.08262952 0.08203019 0.08171666 0.0818913 0.08228587 0.08248743 0.08234821 0.08190685 0.08096837 0.07920223
 0.07682203 0.07468663 0.07346126 0.07315262 0.07365604 0.07503745 0.07687514 0.07806191 0.07792195 0.07712421
 0.07695841 0.0779406 0.07949144 0.08077621 0.08151297 0.08201616 0.08270621 0.08363497 0.08436666 0.08430128
 0.08329073 0.08202067 0.08155487 0.0823056 0.08363048 0.08461838 0.08504376 0.08533512 0.08581967 0.08624916
 0.08601798 0.08481398 0.08316052 0.08222956 0.08287495 0.08478929 0.08666678 0.08718788 0.08595492 0.08370997
 0.08171581 0.0808474 0.08124866 0.08269435 0.08490418 0.0874075 0.08946785 0.09045599 0.09028383 0.08938816
 0.08825375 0.08696094 0.08535925 0.08377478 0.08319496 0.08434581 0.08675873 0.08914373 0.09057954 0.09102409
 0.09078842 0.08991106 0.08824246 0.08609453 0.08452983 0.08457153 0.08603626 0.08758351 0.08814181 0.0879107
 0.08774579 0.08799218 0.08830005 0.08834191 0.08830303 0.08861802 0.08941486 0.09034942 0.09096716 0.09111908
 0.09099443 0.09085473 0.09078586 0.09064782 0.09029251 0.08989709 0.0899462 0.09071862 0.09191024 0.09294098
 0.09352648 0.09378584 0.0938846 0.09375349 0.09320446 0.09229803 0.0915155 0.09141587 0.09209298 0.09310533
 0.09394391 0.0944101 0.0945648 0.09453498 0.09442882 0.094308 0.0942032 0.09418605 0.09435533 0.09470123
 0.09506942 0.0953131 0.09541111 0.09541097 0.09533423 0.09518124 0.09499012 0.09485003 0.09484439 0.0949847
 0.09521246 0.09545831 0.09566875 0.0957906 0.09578974 0.09569614 0.09558639 0.09551327 0.09548366 0.09549848
 0.09557126 0.09569802 0.09583884 0.09594756 0.0960094 0.09603781 0.09604327 0.09602414 0.09598614 0.09595474
 0.09596188 0.09602295 0.09612165 0.09622182 0.09630778 0.09640383 0.09652895 0.09664701 0.09669858 0.09667627
 0.09663475 0.09663047 0.09667707 0.09675437 0.0968333 0.09688514 0.09688484 0.09682868 0.09675749 0.09674342
 0.0968339 0.09701719 0.09724998 0.09749371 0.09771345 0.09787825 0.09798755 0.09807287 0.09815762 0.09823564
 0.0982959 0.09834999 0.09842982 0.09856376 0.09875055 0.09895469 0.09913434 0.09927031 0.09936787 0.09945156
 0.09956062 0.0997154 0.09987795 0.09998265 0.1000191 0.1000513 0.1001389 0.100268 0.1003765 0.1004295
 0.1004519 0.1004945 0.1005812 0.1006936 0.1008009 0.1008958 0.1009986 0.1011262 0.1012575 0.1013391
 0.1013377 0.1012817 0.1012342 0.1012289 0.1012558 0.1013003 0.1013665 0.101454 0.1015361 0.1015801
 0.1015832 0.1015755 0.1015861 0.1016101 0.1016151 0.1015789 0.101513 0.1014495 0.1014124 0.1014021
 0.1014009 0.1013875 0.1013508 0.1012921 0.1012188 0.1011389 0.1010589 0.1009859 0.1009348 0.1009263
 0.1009597 0.1009882 0.1009421 0.1007936 0.1005888 0.100406 0.100286 0.1002076 0.1001216 0.0999977
 0.09984192 0.09968118 0.09953676 0.09941235 0.09929986 0.09919194 0.0990926 0.09901907 0.09898496 0.09897439
 0.09894191 0.09885196 0.0987157 0.09857764 0.0984721 0.09840307 0.09835754 0.09832288 0.09829454 0.0982779
 0.09827929 0.09829031 0.09829049 0.09827131 0.09824751 0.09824307 0.0982766 0.09835666 0.09847134 0.09858227
 0.09865099 0.09867905 0.09870662 0.09876779 0.09886138 0.09896876 0.09908251 0.09920797 0.09934747 0.09949701
 0.09965586 0.09983128 0.1000305 0.1002505 0.1004776 0.1006968 0.1009045 0.1011126 0.1013399 0.1015974
 0.1018805 0.1021731 0.1024591 0.1027327 0.1029986 0.1032632 0.1035286 0.1037976 0.10408 0.104385
 0.1047096 0.10504 0.1053645 0.1056816 0.1059961 0.1063136 0.1066368 0.106967 0.10731 0.1076741
 0.1080526 0.1084164 0.1087357 0.1090122 0.1092803 0.1095763 0.1099107 0.1102647 0.110603 0.1108984
 0.1111562 0.1114112 0.1116918 0.1119929 0.1122945 0.1125988 0.1129322 0.1133077 0.113695 0.1140381
 0.1143037 0.1145126 0.114718 0.1149524 0.1152019 0.1154357 0.1156484 0.1158613 0.116088 0.1163217
 0.1165591 0.1168141 0.117095 0.1173815 0.1176412 0.1178632 0.1180631 0.1182565 0.1184407 0.1185993
 0.1187207 0.1188135 0.1189059 0.119023 0.1191643 0.1193093 0.1194468 0.1195873 0.1197458 0.1199253
 0.1201247 0.1203476 0.1205934 0.1208461 0.1210899 0.1213352 0.1216104 0.1219178 0.1222161 0.1224618
 0.1226566 0.1228372 0.1230281 0.1232291 0.123443 0.123687 0.1239701 0.1242769 0.1245812 0.1248679
 0.1251436 0.1254295 0.1257377 0.1260498 0.1263267 0.1265461 0.1267271 0.1269111 0.1271282 0.1273831
 0.1276618 0.1279457 0.1282191 0.1284676 0.128673 0.1288192 0.1289101 0.1289723 0.1290275 0.129063
 0.1290376 0.1289171 0.1286913 0.1283595 0.1279128 0.1273438 0.1266734 0.1259639 0.1253056 0.124791
 0.1244926 0.1244499 0.1246642 0.1250977 0.1256782 0.1263131 0.1269071 0.1273748 0.1276447 0.1276679
 0.1274331 0.1269709 0.126336 0.1255868 0.1247768 0.1239519 0.1231482 0.1224045 0.1217937 0.1214332
 0.1214543 0.1219518 0.1229472 0.124368 0.1260468 0.1277658 0.1293423 0.1306953 0.1318402 0.1328313
 0.1337161 0.1345286 0.1352957 0.1360328 0.1367381 0.1374023 0.1380235 0.1386065 0.1391494 0.1396379
 0.1400527 0.1403795 0.1406153 0.1407723 0.1408704 0.1409249 0.1409452 0.1409442 0.1409342 0.1409043
 0.1408101 0.1405978 0.1402399 0.1397543 0.1392104 0.1387332 0.1384935 0.1386623 0.1393357 0.1404752
 0.1419169 0.1434509 0.1449046 0.1461735 0.1472111 0.1480198 0.1486454 0.1491533 0.1495967 0.1500046
 0.1503915 0.1507653 0.1511291 0.1514819 0.1518231 0.1521557 0.1524868 0.1528252 0.1531717 0.1535176
 0.1538544 0.1541843 0.1545184 0.154864 0.1552162 0.1555636 0.1559024 0.1562416 0.1565889 0.1569371
 0.1572706 0.1575846 0.1578912 0.1582058 0.1585355 0.1588772 0.1592202 0.1595495 0.1598556 0.1601422
 0.1604214 0.1607029 0.1609886 0.161276 0.1615627 0.1618471 0.162129 0.1624082 0.1626862 0.1629645
 0.1632415 0.1635112 0.163769 0.1640179 0.164266 0.1645188 0.1647749 0.1650297 0.1652813 0.1655327
 0.1657904 0.1660576 0.1663295 0.1665968 0.1668536 0.1671018 0.1673468 0.167592 0.1678381 0.1680852
 0.1683348 0.1685878 0.1688437 0.1690995 0.1693527 0.1696024 0.1698491 0.1700927 0.1703336 0.1705732
 0.170814 0.1710576 0.1713044 0.1715546 0.1718095 0.1720676 0.1723221 0.172566 0.1727979 0.1730223
 0.1732448 0.1734702 0.173702 0.1739401 0.1741807 0.1744215 0.1746643 0.1749112 0.17516 0.1754056
 0.1756455 0.1758814 0.1761165 0.1763521 0.1765887 0.1768284 0.1770737 0.1773224 0.1775689 0.1778093
 0.1780449 0.1782795 0.1785155 0.1787524 0.1789863 0.1792149 0.1794403 0.179668 0.1799009 0.1801394
 0.1803821 0.1806248 0.180863 0.1810959 0.181327 0.1815592 0.1817926 0.1820257 0.1822562 0.1824828
 0.1827089 0.1829398 0.1831785 0.183423 0.1836682 0.1839077 0.18414 0.1843707 0.1846065 0.1848473
 0.1850877 0.1853244 0.1855577 0.18579 0.1860242 0.1862612 0.1864995 0.1867385 0.1869794 0.1872209
 0.1874603 0.1876992 0.1879413 0.1881878 0.1884376 0.1886904 0.1889445 0.189197 0.1894475 0.1896982
 0.1899489 0.1901987 0.1904493 0.1907035 0.1909611 0.1912187 0.1914716 0.1917162 0.1919536 0.1921875
 0.1924186 0.1926459 0.1928708 0.1930944 0.193315 0.1935337 0.1937556 0.193983 0.1942139 0.1944485
 0.1946896 0.1949362 0.1951841 0.1954294 0.1956707 0.1959104 0.1961538 0.1964032 0.1966562 0.1969118
 0.1971708 0.197431 0.1976892 0.1979474 0.1982079 0.1984698 0.1987331 0.1989992 0.1992653 0.199528
 0.1997898 0.2000532 0.2003164 0.2005803 0.2008496 0.2011233 0.2013954 0.2016644 0.2019314 0.2021944
 0.2024534 0.2027134 0.2029771 0.2032456 0.2035203 0.2037975 0.2040702 0.2043395 0.2046121 0.2048875
 0.2051624 0.2054393 0.2057187 0.205994 0.206264 0.2065335 0.2068012 0.2070639 0.2073269 0.207595
 0.2078655 0.208136 0.2084041 0.2086571 0.2088742 0.2090122 0.2089483 0.2084162 0.2069684 0.2039823
 0.198778 0.1908863 0.1803271 0.1676951 0.1539967 0.1403378 0.127622 0.1164224 0.1070453 0.09964836
 0.09432599 0.09118431 0.09039874 0.09229763 0.09747423 0.1064308 0.1182809 0.1296392 0.1358962 0.1347095
 0.128125 0.1207224 0.1158927 0.1141815 0.1144462 0.1155574 0.1170652 0.1190722 0.1218456 0.1254204
 0.1295607 0.1341461 0.1393929 0.1455176 0.1523079 0.1592017 0.1657539 0.1719178 0.177882 0.1837294
 0.1893065 0.1943686 0.1987679 0.2025036 0.2056741 0.2084168 0.2108538 0.2130645 0.2151001 0.2169901
 0.2187041 0.2201332 0.2211547 0.2217302 0.2219518 0.2219977 0.2220344 0.2221461 0.2223441 0.2226179
 0.222959 0.2233591 0.2238121 0.2243127 0.224845 0.225387 0.2259248 0.2264516 0.2269602 0.2274475
 0.2279153 0.2283621 0.2287838 0.2291837 0.2295684 0.2299383 0.2302947 0.2306451 0.2309953 0.2313459
 0.2316964 0.2320425 0.2323741 0.2326847 0.2329773 0.2332565 0.2335242 0.2337844 0.2340415 0.2342961
 0.2345493 0.2348037 0.2350575 0.2353063 0.2355505 0.2357938 0.2360367 0.2362785 0.2365193 0.236758
 0.2369928 0.2372264 0.2374621 0.2377009 0.2379447 0.2381957 0.2384502 0.238699 0.2389365 0.2391649
 0.2393923 0.2396306 0.2398883 0.2401617 0.2404397 0.2407151 0.240985 0.2412463 0.2415005 0.2417571
 0.2420247 0.2423034 0.242587 0.2428681 0.2431379 0.2433887 0.2436211 0.2438451 0.2440732 0.2443101
 0.2445492 0.2447831 0.2450149 0.2452538 0.245502 0.2457538 0.2460041 0.24625 0.2464908 0.2467341
 0.2469942 0.2472752 0.2475664 0.2478562 0.248143 0.2484307 0.2487217 0.2490159 0.2493087 0.2495911
 0.2498586 0.2501203 0.2503969 0.250707 0.2510505 0.2514039 0.2517388 0.2520482 0.2523477 0.2526559
 0.25298 0.253311 0.2536217 0.2538854 0.2541132 0.254359 0.2546718 0.2550483 0.2554436 0.2558171
 0.2561595 0.2564831 0.2567976 0.2571005 0.2573818 0.2576365 0.2578769 0.2581366 0.2584515 0.2588235
 0.2592134 0.2595796 0.2599112 0.2602181 0.2605104 0.2607962 0.2610676 0.2612841 0.2614137 0.2615089
 0.2616984 0.2620668 0.2625617 0.2630488 0.2634459 0.2637748 0.2640897 0.2644064 0.2647109 0.2649757
 0.2651309 0.2650964 0.2649264 0.2648646 0.2651473 0.2657662 0.2664925 0.2671107 0.267563 0.267901
 0.2681897 0.2684634 0.268708 0.2688594 0.268871 0.2688197 0.2689008 0.2692506 0.269791 0.2703139
 0.2707019 0.2709973 0.271284 0.2715912 0.2718782 0.2720194 0.2718597 0.2714267 0.2710706 0.2712365
 0.272034 0.2731115 0.2740062 0.2745557 0.274899 0.2751533 0.2752413 0.2750366 0.2745211 0.2737907
 0.2730976 0.2728906 0.2735206 0.2747889 0.2760301 0.2767779 0.2771644 0.2775824 0.2781768 0.2787855
 0.2792089 0.2793891 0.2793747 0.2792035 0.278887 0.2785496 0.2785053 0.2790341 0.280057 0.281159
 0.281979 0.2824937 0.2828486 0.2829367 0.2822906 0.280638 0.2786213 0.2776328 0.2785782 0.2809266
 0.2832862 0.2847776 0.2855145 0.2859577 0.2863152 0.2864815 0.2860217 0.2843144 0.2813967 0.2787029
 0.2781922 0.2804149 0.2838959 0.2865674 0.287348 0.2863569 0.2843877 0.2825469 0.2818658 0.2827365
 0.2847415 0.2870776 0.2890434 0.2902362 0.2905751 0.2902524 0.2896539 0.2892586 0.2893389 0.2895493
 0.2891425 0.287942 0.2866858 0.2858895 0.2848983 0.2829571 0.2809007 0.280632 0.2827661 0.2857366
 0.2876106 0.2880688 0.2880452 0.2878529 0.2864298 0.282742 0.2776979 0.2741163 0.2743136 0.2777901
 0.2817245 0.2837453 0.2838073 0.2833838 0.2833979 0.2832455 0.2816901 0.2786099 0.2756858 0.2749004
 0.2763132 0.27797 0.2780662 0.2762203 0.2725362 0.2671405 0.2616536 0.2594977 0.2628784 0.2700354
 0.2767926 0.2801583 0.2792617 0.2741149 0.2659243 0.2583842 0.2560151 0.2599961 0.2667881 0.2715573
 0.2719843 0.2683646 0.2616442 0.2530086 0.244902 0.2407189 0.2426379 0.2498667 0.2587971 0.2645686
 0.2635477 0.256241 0.2480171 0.2450657 0.248574 0.2539442 0.2561992 0.2546641 0.2519159 0.2502777
 0.2505437 0.2524193 0.2548513 0.2568569 0.2582796 0.2584038 0.2545713 0.2451213 0.2337586 0.2275834
 0.2297719 0.2370293 0.2449725 0.2525384 0.2595196 0.2634068 0.2620614 0.2579477 0.2565498 0.2605158
 0.2671396 0.2718171 0.2727179 0.2715255 0.2703832 0.2693453 0.2674391 0.265415 0.2657788 0.26967
 0.2750705 0.2789927 0.2804743 0.2805778 0.2803838 0.2800842 0.2795327 0.2786903 0.2775908 0.2763653
 0.2752339 0.274263 0.2733156 0.2723264 0.2712318 0.2693648 0.2655139 0.2594998 0.2535143 0.2506032
 0.2514693 0.2540375 0.2564355 0.2583454 0.2585147 0.2537342 0.2430313 0.2314273 0.2264849 0.2310008
 0.2407798 0.2493439 0.2530512 0.2515522 0.2456033 0.236714 0.2286804 0.2269202 0.2342973 0.2481247
 0.262586 0.2736598 0.2806437 0.2838842 0.2832266 0.279171 0.2741706 0.2716596 0.2736942 0.2796005
 0.2864878 0.2905934 0.288924 0.2817253 0.2741098 0.2729597 0.2801006 0.2898719 0.295373 0.2956877
 0.29486 0.295483 0.2964832 0.296672 0.2972331 0.2997317 0.3035463 0.3063871 0.3063503 0.3027207
 0.2959586 0.288248 0.2831515 0.2827918 0.2855056 0.287751 0.2877409 0.2854752 0.2805148 0.2729535
 0.2662052 0.2651679 0.2706536 0.2781516 0.2829686 0.2845987 0.2852587 0.2859078 0.2851209 0.2814727
 0.2760649 0.2720503 0.2715426 0.2736245 0.2758599 0.2769324 0.2768498 0.2754191 0.2722604 0.2684452
 0.2666385 0.2687278 0.2738 0.2790295 0.2822719 0.2833686 0.2833272 0.2830225 0.2827302 0.2822842
 0.2815068 0.2808131 0.2812387 0.2833376 0.2862191 0.2883633 0.2893788 0.2903235 0.292218 0.294799
 0.2969235 0.297832 0.2978168 0.2978477 0.2986957 0.3002965 0.301813 0.3023761 0.301943 0.3014494
 0.3019687 0.3036894 0.3058462 0.3075969 0.3087261 0.3095201 0.310288 0.3110994 0.3117541 0.3119471
 0.3116707 0.3114655 0.3120236 0.3134727 0.3152257 0.3165746 0.3172728 0.3175085 0.3175086 0.3173193
 0.316911 0.3163562 0.3158408 0.3155246 0.3154299 0.3154635 0.315517 0.3155318 0.315507 0.3154829
 0.3155125 0.315621 0.3157936 0.3160053 0.3162366 0.3164575 0.3166299 0.316748 0.3168458 0.3169408
 0.3169913 0.3169247 0.3166862 0.3162395 0.3155447 0.3145603 0.3132593 0.3116183 0.3096153 0.3073185
 0.3050428 0.3033867 0.3029876 0.3041179 0.3064666 0.3093125 0.3119327 0.3139176 0.315212 0.3159621
 0.3163511 0.3165185 0.3165471 0.3164714 0.3162997 0.3160401 0.3157125 0.3153425 0.3149584 0.3145905
 0.3142636 0.3139812 0.313722 0.3134499 0.3131302 0.3127425 0.3122841 0.3117612 0.3111771 0.3105236
 0.3097792 0.3089225 0.3079579 0.3069307 0.3059111 0.3049553 0.3040731 0.3032268 0.3023641 0.301445
 0.3004245 0.2992358 0.2978558 0.2964017 0.2951003 0.2941028 0.2933484 0.2926359 0.2918025 0.2908052
 0.2896746 0.2884519 0.2871712 0.2858581 0.284523 0.2831554 0.2817274 0.2802048 0.2785678 0.2768253
 0.2750048 0.27313 0.2712156 0.2692701 0.26728 0.2651792 0.2628398 0.2601015 0.2568168 0.2528877
 0.2482925 0.2431037 0.2374852 0.2316579 0.225847 0.2202446 0.2150058 0.2102642 0.2061414 0.20274
 0.2001334 0.198363 0.1974475 0.1973909 0.1981777 0.1997633 0.2020678 0.2049772 0.2083428 0.2119849
 0.215703 0.2193033 0.2226471 0.225696 0.228503 0.2311359 0.2336056 0.2358707 0.2378927 0.2396651
 0.2411968 0.242492 0.2435552 0.2444076 0.2450936 0.2456689 0.2461774 0.246633 0.2470205 0.2473187
 0.2475276 0.2476768 0.2478094 0.2479586 0.2481382 0.2483506 0.2486007 0.2489007 0.2492661 0.2497104
 0.2502393 0.2508477 0.2515199 0.2522392 0.253 0.2538132 0.2547046 0.2557087 0.2568577 0.258167
 0.2596292 0.2612154 0.2628694 0.2645006 0.2659954 0.2672518 0.2682109 0.2688653 0.2692428 0.2693818
 0.2693152 0.2690694 0.2686688 0.2681374 0.2674998 0.2667811 0.2660019 0.265172 0.26429 0.2633525
 0.2623668 0.2613584 0.2603599 0.2593893 0.2584434 0.2575167 0.2566138 0.2557388 0.2548869 0.2540531
 0.2532386 0.2524505 0.2516988 0.2509916 0.2503242 0.2496739 0.249004 0.248266 0.2474071 0.2463907
 0.2452098 0.2438761 0.2424029 0.2407997 0.2390741 0.2372336 0.2352907 0.2332644 0.2311713 0.2290162
 0.2267879 0.2244691 0.2220667 0.2196412 0.2172904 0.2150919 0.2130698 0.2112076 0.2094746 0.2078411
 0.2062881 0.2048075 0.203392 0.2020344 0.2007319 0.1994839 0.1982899 0.1971587 0.1961091 0.1951575
 0.1943128 0.1935802 0.1929576 0.1924331 0.1919932 0.1916271 0.191333 0.1911341 0.1910699 0.1911431
 0.191285 0.1913953 0.1914117 0.191339 0.191229 0.1911378 0.1910912 0.1910851 0.191102 0.1911005
 0.1909977 0.1906874 0.1900747 0.1890881 0.1876891 0.1858996 0.1838111 0.181564 0.1793215 0.1772406
 0.1754379 0.1739772 0.1728727 0.1720758 0.1714826 0.1710035 0.1706333 0.1704452 0.1705188 0.1708523
 0.1713055 0.171666 0.1718346 0.1719365 0.1722107 0.1728072 0.1736989 0.1747382 0.1757649 0.1766829
 0.1774586 0.1780744 0.1785191 0.1788103 0.1789795 0.1790381 0.1789872 0.1788334 0.1785736 0.1782024
 0.177738 0.1772035 0.1765924 0.1758887 0.1750896 0.1741908 0.1731868 0.1720862 0.1708783 0.1695241
 0.168059 0.166687 0.1657122 0.1653705 0.1657032 0.1665432 0.1676369 0.1688114 0.1699905 0.1710711
 0.1719323 0.1726299 0.1734768 0.1748324 0.1768003 0.1791229 0.1813574 0.1831594 0.184398 0.1850635
 0.1851815 0.1848094 0.1839868 0.1826926 0.1809433 0.1788717 0.1766383 0.1743674 0.1721944 0.1702398
 0.1685452 0.1671248 0.1659939 0.1651566 0.1646744 0.1642749 0.1624011 0.1567509 0.1475344 0.1395911
 0.1387442 0.1455306 0.1544647 0.1599297 0.1609511 0.1598741 0.1586592 0.1577348 0.1570253 0.156595
 0.1565007 0.1566552 0.156856 0.1568751 0.1566032 0.1560478 0.1550846 0.153217 0.1495641 0.1431823
 0.1337668 0.1222863 0.1107661 0.1012143 0.0946373 0.09083772 0.08884379 0.08758205 0.08649217 0.08572352
 0.08577666 0.08698533 0.08933158 0.09260525 0.09655753 0.100859 0.1050398 0.1086415 0.1114641 0.1135845
 0.1151335 0.1161541 0.1166654 0.1167368 0.1164601 0.1159146 0.1151621 0.1142238 0.1130711 0.1116837
 0.1101385 0.1086407 0.1074423 0.1066832 0.1063048 0.1061431 0.1060812 0.1060808 0.1061252 0.1061995
 0.1063083 0.1064708 0.1067074 0.1070261 0.1073965 0.1077471 0.1080154 0.1081884 0.1082853 0.1083106
 0.1082276 0.1079878 0.1076134 0.1072128 0.1068345 0.1063291 0.105469 0.1042363 0.1029335 0.1019911
 0.1016757 0.1019344 0.1024616 0.1029252 0.1031742 0.1032631 0.1033013 0.1032942 0.1031245 0.102684
</values></Ydata></ScRf><Data_Parameters_AB><parameter name="DPF">1</parameter><parameter name="NPT">3497</parameter><parameter name="FXV">3996</parameter><parameter name="LXV">500</parameter><parameter name="CSF">1</parameter><parameter name="MXY">0.296172946691513</parameter><parameter name="MNY">-0.0920362174510956</parameter><parameter name="DAT">17/01/2024</parameter><parameter name="TIM">12:51:09.042 (GMT+1)</parameter><parameter name="DXU">WN</parameter></Data_Parameters_AB><AB__Qtest><MainReport name="Quality Test Report"><Header><Line><Legend>Test result ok/not ok [1/0]: </Legend><Value>0</Value></Line><Line><Legend>Method file: </Legend><Value>C:\Users\Public\Documents\Bruker\OPUS_8.2.28\QT\IRBT_v3_default.QT</Value></Line></Header><Matrix><Line><Legend></Legend><Legend>min</Legend><Legend>max</Legend><Legend>measured</Legend></Line><Line><Value>Absorption (X-Range 1):</Value><Value>0.400000</Value><Value>2.000000</Value><Value>0.259963</Value></Line><Line><Value>Noise (X-Range 4):</Value><Value></Value><Value>0.000300</Value><Value>0.000032</Value></Line><Line><Value>Signal/Noise (X-Range 2):</Value><Value>200.000000</Value><Value></Value><Value>141.088837</Value></Line><Line><Value>Signal/Noise (X-Range 3):</Value><Value>40.000000</Value><Value></Value><Value>104.870962</Value></Line><Line><Value>Water vapour (X-Range 5):</Value><Value></Value><Value>0.000300</Value><Value>0.000006</Value></Line><Line><Value>Signal/Water (X-Range 2):</Value><Value>100.000000</Value><Value></Value><Value>795.386400</Value></Line><Line><Value>Signal/Water (X-Range 3):</Value><Value>20.000000</Value><Value></Value><Value>591.208621</Value></Line><Line><Value>Fringes (X-Range 6):</Value><Value></Value><Value>0.000100</Value><Value>0.000024</Value></Line></Matrix></MainReport></AB__Qtest><Data_Parameters_ScSm><parameter name="DPF">1</parameter><parameter name="NPT">1814</parameter><parameter name="FXV">3996.63438082617</parameter><parameter name="LXV">499.579297603271</parameter><parameter name="CSF">1</parameter><parameter name="MXY">0.337782680988312</parameter><parameter name="MNY">0.0674366652965546</parameter><parameter name="DAT">17/01/2024</parameter><parameter name="TIM">12:51:09.042 (GMT+1)</parameter><parameter name="DXU">WN</parameter></Data_Parameters_ScSm><Data_Parameters_ScRf><parameter name="DPF">1</parameter><parameter name="NPT">1820</parameter><parameter name="FXV">4004.34989121387</parameter><parameter name="LXV">495.721542409425</parameter><parameter name="CSF">1</parameter><parameter name="MXY">0.317508637905121</parameter><parameter name="MNY">0.0681854486465454</parameter><parameter name="DAT">17/01/2024</parameter><parameter name="TIM">12:50:42.931 (GMT+1)</parameter><parameter name="DXU">WN</parameter></Data_Parameters_ScRf><Optic_Parameters_Rf><parameter name="APR">0</parameter><parameter name="APT">Open</parameter><parameter name="BMS">KBr</parameter><parameter name="DTC">RT-DLaTGS_IR-Biotyper [Microplate reader]</parameter><parameter name="HPF">0</parameter><parameter name="LPF">10.0</parameter><parameter name="LPV">4000</parameter><parameter name="PGR">0</parameter><parameter name="RCH">Module port</parameter><parameter name="RDX">0</parameter><parameter name="SRC">MIR</parameter><parameter name="VEL">10.0</parameter><parameter name="SON">Off</parameter></Optic_Parameters_Rf><Acquisition_Parameters_Rf><parameter name="ADT">1</parameter><parameter name="AQM">DD</parameter><parameter name="CFE">0</parameter><parameter name="COR">0</parameter><parameter name="DEL">0</parameter><parameter name="DLY">0</parameter><parameter name="HFW">8000</parameter><parameter name="LFW">0</parameter><parameter name="NSR">32</parameter><parameter name="PLF">AB</parameter><parameter name="RES">6</parameter><parameter name="RGN">-1</parameter><parameter name="STR">0</parameter><parameter name="TCL">MakeCompatibleScalar (0, {WSV=1.000000, ARV=0});</parameter><parameter name="TDL">37</parameter><parameter name="RPO">0</parameter></Acquisition_Parameters_Rf><FT_-_Parameters_Rf><parameter name="APF">B3</parameter><parameter name="HFQ">500</parameter><parameter name="LFQ">4000</parameter><parameter name="NLI">0</parameter><parameter name="PHR">24</parameter><parameter name="PHZ">ML</parameter><parameter name="SPZ">NO</parameter><parameter name="ZFF">1</parameter></FT_-_Parameters_Rf><Optic_Parameters_><parameter name="APR">0</parameter><parameter name="APT">Open</parameter><parameter name="BMS">KBr</parameter><parameter name="CHN">Module port</parameter><parameter name="DTC">RT-DLaTGS_IR-Biotyper [Microplate reader]</parameter><parameter name="HPF">0</parameter><parameter name="LPF">10.0</parameter><parameter name="LPV">4000</parameter><parameter name="PGN">0</parameter><parameter name="RDX">0</parameter><parameter name="SRC">MIR</parameter><parameter name="VEL">10.0</parameter><parameter name="SON">Off</parameter></Optic_Parameters_><FT_-_Parameters_><parameter name="APF">B3</parameter><parameter name="HFQ">500</parameter><parameter name="LFQ">4000</parameter><parameter name="NLI">0</parameter><parameter name="PHR">24</parameter><parameter name="PHZ">ML</parameter><parameter name="SPZ">NO</parameter><parameter name="ZFF">1</parameter></FT_-_Parameters_><Acquisition_Parameters_><parameter name="ADT">1</parameter><parameter name="AQM">DD</parameter><parameter name="CFE">0</parameter><parameter name="COR">0</parameter><parameter name="DEL">0</parameter><parameter name="DLY">0</parameter><parameter name="HFW">8000</parameter><parameter name="LFW">0</parameter><parameter name="NSS">32</parameter><parameter name="PLF">AB</parameter><parameter name="RES">6</parameter><parameter name="SOT">0</parameter><parameter name="TCL">MakeCompatibleScalar (0, {WSV=1.000000, ARV=0});</parameter><parameter name="TDL">37</parameter><parameter name="SPO">0</parameter><parameter name="SGN">-1</parameter></Acquisition_Parameters_><Instrument_Parameters_Rf><parameter name="HFL">15801.365274</parameter><parameter name="LFL">0</parameter><parameter name="LWN">15801.365274</parameter><parameter name="ABP">32157</parameter><parameter name="SSP">1</parameter><parameter name="ARG">2</parameter><parameter name="ASG">2</parameter><parameter name="ASS">32</parameter><parameter name="GFW">16</parameter><parameter name="GBW">16</parameter><parameter name="BFW">0</parameter><parameter name="BBW">0</parameter><parameter name="PKA">9115</parameter><parameter name="PKL">4987</parameter><parameter name="PRA">9127</parameter><parameter name="PRL">5010</parameter><parameter name="P2A">1</parameter><parameter name="P2L">1</parameter><parameter name="P2R">1</parameter><parameter name="P2K">1</parameter><parameter name="DAQ">0</parameter><parameter name="AG2">1</parameter><parameter name="SSM">1</parameter><parameter name="RSN">46274</parameter><parameter name="CRR">0</parameter><parameter name="SRT">1705495842.932</parameter><parameter name="DUR">19.6439971923828</parameter><parameter name="TSC">30.8</parameter><parameter name="MVD">0.288112908601761</parameter><parameter name="AN1">0.226016608317884</parameter><parameter name="AN2">0</parameter><parameter name="VSN">2.485 Apr  4 2017</parameter><parameter name="SRN">0085</parameter><parameter name="CAM">0</parameter><parameter name="INS">IR-Biotyper</parameter><parameter name="FOC">69</parameter><parameter name="RDY">1</parameter><parameter name="ARS">32</parameter></Instrument_Parameters_Rf><Sample_Parameters_><parameter name="BLD"></parameter><parameter name="CNM">Admin</parameter><parameter name="CPY"></parameter><parameter name="DPM"></parameter><parameter name="EXP">IRBT_v3_32Scans.XPM</parameter><parameter name="LCT"></parameter><parameter name="SFM">Microplate, HTS-XT</parameter><parameter name="SNM">240117-1222-Cdiff_SCFA_1_C8_232113452_H3_14efb982-1e56-4245-844e-9599dd2cffa5.0</parameter><parameter name="XPP">C:\Users\Public\Documents\Bruker\OPUS_8.2.28\XPM</parameter><parameter name="IST">OK</parameter><parameter name="CPG">1252</parameter><parameter name="UID">a43615cc-b5dd-4310-bb55-5b6f84520866</parameter></Sample_Parameters_><Instrument_Parameters_><parameter name="HFL">15801.365274</parameter><parameter name="LFL">0</parameter><parameter name="LWN">15801.365274</parameter><parameter name="ABP">32157</parameter><parameter name="SSP">1</parameter><parameter name="ASG">2</parameter><parameter name="ARG">2</parameter><parameter name="ASS">32</parameter><parameter name="GFW">16</parameter><parameter name="GBW">16</parameter><parameter name="BFW">0</parameter><parameter name="BBW">0</parameter><parameter name="PKA">9348</parameter><parameter name="PKL">4979</parameter><parameter name="PRA">9491</parameter><parameter name="PRL">5002</parameter><parameter name="P2A">1</parameter><parameter name="P2L">1</parameter><parameter name="P2R">1</parameter><parameter name="P2K">1</parameter><parameter name="DAQ">0</parameter><parameter name="AG2">1</parameter><parameter name="SSM">1</parameter><parameter name="RSN">23830</parameter><parameter name="CRR">0</parameter><parameter name="SRT">1705495869.043</parameter><parameter name="DUR">19.6449890136719</parameter><parameter name="TSC">30.8</parameter><parameter name="MVD">0.297656327486038</parameter><parameter name="AN1">0.225992214859556</parameter><parameter name="AN2">0</parameter><parameter name="VSN">2.485 Apr  4 2017</parameter><parameter name="SRN">0085</parameter><parameter name="CAM">0</parameter><parameter name="INS">IR-Biotyper</parameter><parameter name="FOC">69</parameter><parameter name="RDY">1</parameter></Instrument_Parameters_><History/></OPUSDataFile>
