<?xml version="1.0" encoding="UTF-8" ?>
<OPUSDataFile><AB><Ydata ylabel="Absorbance Units"><values byteorder="INTEL" format="FLOAT32" numvalues="3497"> -0.08113839 -0.08113161 -0.081125 -0.08111843 -0.08111151 -0.08110442 -0.08109666 -0.08109027 -0.0810878 -0.08109137
 -0.08110511 -0.08112683 -0.08115759 -0.0811905 -0.08122266 -0.08124872 -0.08126535 -0.08127432 -0.08127464 -0.08127362
 -0.08127224 -0.08127488 -0.08128231 -0.08129114 -0.08130121 -0.08130793 -0.08131173 -0.08131524 -0.08131955 -0.0813325
 -0.08135302 -0.08138292 -0.0814181 -0.08145046 -0.08147722 -0.0814893 -0.08148962 -0.08147663 -0.08145729 -0.08143616
 -0.081418 -0.08140712 -0.08140264 -0.08140575 -0.08141208 -0.08142098 -0.08142837 -0.08143343 -0.08143494 -0.08143263
 -0.08142765 -0.08142008 -0.08141253 -0.08140533 -0.08140294 -0.08140558 -0.08141728 -0.08143691 -0.08146355 -0.08149425
 -0.08152197 -0.08154491 -0.08155612 -0.08155811 -0.08155028 -0.08153728 -0.08152271 -0.08150861 -0.0814973 -0.08148807
 -0.08148078 -0.08147649 -0.08147529 -0.08147904 -0.08148847 -0.08150098 -0.08151671 -0.08152833 -0.08153547 -0.08153304
 -0.08152131 -0.0815018 -0.0814755 -0.08144838 -0.0814216 -0.081402 -0.08139055 -0.08139326 -0.08140947 -0.08144195
 -0.08148652 -0.081541 -0.08159804 -0.08165162 -0.0816965 -0.08172737 -0.08174594 -0.08175072 -0.08174827 -0.0817399
 -0.08173028 -0.08172068 -0.08171045 -0.08169972 -0.08168624 -0.08166992 -0.081654 -0.08163899 -0.08163274 -0.08163499
 -0.08164919 -0.08167274 -0.08169845 -0.08172397 -0.08173923 -0.08174579 -0.08174071 -0.08172874 -0.08171432 -0.08170022
 -0.08169062 -0.08168446 -0.08168229 -0.08168261 -0.08168472 -0.08168878 -0.08169488 -0.08170257 -0.08171219 -0.08172007
 -0.0817259 -0.08172659 -0.08172195 -0.08171527 -0.08170713 -0.08170645 -0.08171314 -0.08173237 -0.08176097 -0.08179142
 -0.08181855 -0.0818245 -0.08181081 -0.08176856 -0.08171058 -0.08164819 -0.08159087 -0.08155194 -0.08152866 -0.08152445
 -0.08153013 -0.08154292 -0.08155677 -0.08156913 -0.08157965 -0.08158772 -0.08159533 -0.0816027 -0.08161028 -0.08161814
 -0.08162571 -0.08163293 -0.08163866 -0.08164285 -0.08164444 -0.08164369 -0.08164073 -0.08163642 -0.08163285 -0.08163095
 -0.08163372 -0.08164036 -0.08165205 -0.0816648 -0.08167665 -0.08168172 -0.08167574 -0.08165708 -0.08162254 -0.08157944
 -0.0815279 -0.08148001 -0.08143785 -0.08140902 -0.08139491 -0.08139478 -0.08140875 -0.0814296 -0.0814568 -0.08148102
 -0.08150199 -0.08151307 -0.08151498 -0.0815065 -0.0814892 -0.08146622 -0.08143883 -0.08141073 -0.08138219 -0.08135501
 -0.08132895 -0.08130381 -0.0812812 -0.08126137 -0.08124775 -0.08124197 -0.08124515 -0.08125901 -0.0812778 -0.0813015
 -0.08132027 -0.08133302 -0.08133348 -0.08132111 -0.08129838 -0.08126583 -0.08123223 -0.08119836 -0.08117411 -0.08115926
 -0.081159 -0.08117106 -0.08119328 -0.08122122 -0.08124643 -0.08126499 -0.08126768 -0.08125592 -0.08122592 -0.0811861
 -0.08113953 -0.08109515 -0.08105805 -0.0810298 -0.08101262 -0.08100155 -0.08099576 -0.08099336 -0.08099364 -0.08100155
 -0.08101741 -0.08104274 -0.081077 -0.08111061 -0.08114255 -0.08116063 -0.0811656 -0.08115398 -0.08112702 -0.08108594
 -0.08103205 -0.08096654 -0.08089501 -0.080824 -0.08076009 -0.08071302 -0.08068014 -0.08066493 -0.08065542 -0.08064746
 -0.08063294 -0.08060689 -0.08057549 -0.08053833 -0.08050657 -0.08048192 -0.08046591 -0.08045889 -0.08045277 -0.08044709
 -0.08043318 -0.08041162 -0.08038174 -0.08034554 -0.08031095 -0.08027934 -0.08025937 -0.08024897 -0.08024952 -0.08025567
 -0.08026165 -0.08026224 -0.08025032 -0.08022502 -0.08018238 -0.08012825 -0.08006322 -0.07999583 -0.07992885 -0.07986657
 -0.07981075 -0.07975982 -0.07971404 -0.07966894 -0.07962424 -0.07957675 -0.07952645 -0.07947438 -0.07942095 -0.07937014
 -0.07932159 -0.07927665 -0.0792331 -0.07918591 -0.07913253 -0.07906502 -0.0789843 -0.07888719 -0.07877846 -0.07866115
 -0.07853935 -0.07841644 -0.07829475 -0.07817605 -0.07806134 -0.07795171 -0.07784509 -0.07774176 -0.07763649 -0.07752885
 -0.0774136 -0.07729033 -0.07715631 -0.07701144 -0.07685452 -0.07668579 -0.0765063 -0.07631668 -0.07612029 -0.07591743
 -0.07571064 -0.07550007 -0.07528674 -0.07507193 -0.0748575 -0.07464519 -0.07443741 -0.07423455 -0.07403798 -0.07384609
 -0.07365931 -0.0734729 -0.07328685 -0.07309118 -0.07288429 -0.0726568 -0.07240642 -0.07213715 -0.07184879 -0.07155558
 -0.07125802 -0.07096289 -0.07066942 -0.07037368 -0.07007567 -0.06977259 -0.06946661 -0.06916263 -0.06886222 -0.06857221
 -0.06828919 -0.06801358 -0.06773555 -0.06744649 -0.06713805 -0.06679881 -0.0664374 -0.06605139 -0.0656634 -0.0652809
 -0.06491369 -0.06456744 -0.06422972 -0.06390019 -0.06356282 -0.06321608 -0.06285764 -0.06248771 -0.06211584 -0.06174231
 -0.06137428 -0.06101006 -0.06064597 -0.06027938 -0.05990015 -0.05950816 -0.05909701 -0.05867125 -0.058234 -0.0577908
 -0.0573485 -0.05690918 -0.0564767 -0.05604964 -0.05562873 -0.05521038 -0.05479408 -0.054375 -0.05395166 -0.05352378
 -0.05309061 -0.05265818 -0.05222702 -0.05179878 -0.05137325 -0.05094033 -0.0504996 -0.05004171 -0.04956898 -0.04908723
 -0.04859977 -0.04812047 -0.047649 -0.04719212 -0.04674619 -0.04630926 -0.04587727 -0.04544549 -0.04501151 -0.04457156
 -0.04412728 -0.04367773 -0.04322782 -0.04277954 -0.04233331 -0.04189084 -0.0414435 -0.04099056 -0.04052326 -0.04004041
 -0.03954614 -0.03904089 -0.03853945 -0.03804231 -0.03756034 -0.03709205 -0.0366362 -0.0361903 -0.03574581 -0.03530192
 -0.03485239 -0.03439868 -0.03394058 -0.03347876 -0.03301412 -0.03254614 -0.03207422 -0.03159968 -0.03112211 -0.03064618
 -0.03017307 -0.02970702 -0.0292494 -0.02880116 -0.02836287 -0.02793248 -0.02751001 -0.02709112 -0.02667553 -0.0262571
 -0.02583556 -0.02540554 -0.02496723 -0.02451824 -0.02405988 -0.02359444 -0.02312436 -0.02265576 -0.02219065 -0.02173511
 -0.02128853 -0.02085282 -0.02042592 -0.02000692 -0.01959432 -0.0191876 -0.0187841 -0.01838345 -0.0179809 -0.01757498
 -0.0171647 -0.01674912 -0.01633381 -0.01591912 -0.01551053 -0.01510822 -0.01471047 -0.01431687 -0.01392261 -0.01352778
 -0.01313008 -0.01273044 -0.01233067 -0.01193167 -0.01153643 -0.01114484 -0.01075859 -0.01037563 -0.009994337 -0.00961332
 -0.009230237 -0.008847299 -0.008464128 -0.008086143 -0.007714979 -0.007354908 -0.007007638 -0.006672953 -0.006351714 -0.006037648
 -0.005730617 -0.00541984 -0.005104772 -0.004778499 -0.004441582 -0.004097951 -0.003748887 -0.0034039 -0.003062555 -0.002728953
 -0.002400741 -0.002074533 -0.001748806 -0.001418778 -0.001086569 -0.0007515732 -0.0004193196 -9.349504E-05 0.0002213093 0.0005206304
 0.0008067398 0.00107821 0.001343469 0.001604144 0.00186673 0.002132886 0.002402384 0.002675445 0.002949732 0.003225143
 0.003502077 0.003780618 0.004062238 0.004346469 0.004631775 0.0049169 0.00519652 0.00547028 0.005733701 0.005989694
 0.0062399 0.00648969 0.006746467 0.007011051 0.007288463 0.007571121 0.007857289 0.008137552 0.008407494 0.00866452
 0.008906468 0.009137119 0.009356341 0.009570578 0.009780244 0.00999255 0.01020791 0.01043094 0.01066136 0.01089689
 0.01113658 0.0113736 0.01160775 0.01183453 0.0120549 0.01226878 0.01247732 0.01268225 0.01288458 0.01308604
 0.01328742 0.01349011 0.01369366 0.01389827 0.01410307 0.01430749 0.01451243 0.01471791 0.01492551 0.01513601
 0.01534635 0.01555678 0.01575793 0.01594931 0.01612199 0.01627629 0.01641418 0.01653747 0.01665837 0.01677741
 0.01690419 0.01703542 0.01716832 0.01729895 0.01741831 0.01752777 0.01762415 0.01771333 0.01779885 0.01788529
 0.01797677 0.01807314 0.01817569 0.01828162 0.0183907 0.01849946 0.01860711 0.01871265 0.01881545 0.01892146
 0.01903095 0.01915297 0.01928719 0.01943157 0.01958343 0.01972467 0.0198534 0.01995077 0.02002135 0.02006524
 0.02009137 0.02011589 0.02014187 0.02018126 0.02022797 0.02028041 0.02033494 0.02038679 0.0204429 0.02050493
 0.02057839 0.02066748 0.02076164 0.02086074 0.02094816 0.0210214 0.02107941 0.02112181 0.02116469 0.02120885
 0.02126914 0.02134466 0.02143737 0.02154484 0.02165931 0.02177822 0.02189136 0.02199744 0.02208837 0.02216768
 0.02223413 0.02229804 0.02236655 0.02245033 0.02255941 0.02269205 0.02285295 0.02302507 0.0232058 0.02337702
 0.023534 0.02367456 0.02379695 0.02391459 0.02402814 0.02415105 0.0242835 0.02442864 0.02458649 0.02475763
 0.02494451 0.02515725 0.02539773 0.02567966 0.02599442 0.02633858 0.02668906 0.02701782 0.02730353 0.02751321
 0.02765413 0.02771323 0.0277314 0.02771878 0.02771916 0.02774914 0.02782007 0.02794021 0.02808515 0.02825446
 0.02841267 0.02855746 0.02866548 0.02873659 0.0287686 0.0287637 0.02873594 0.02868733 0.0286341 0.02857502
 0.02851579 0.02845275 0.02838133 0.02830039 0.02820499 0.02810003 0.02798703 0.02787361 0.02776628 0.02766423
 0.02757239 0.02747264 0.02736339 0.02721795 0.02703006 0.02679021 0.02649442 0.0261639 0.02579938 0.02543606
 0.0250752 0.02473879 0.02442564 0.02413788 0.02387316 0.02362364 0.02338674 0.02315183 0.02291706 0.02267288
 0.02242206 0.02216273 0.02190256 0.02164831 0.0214034 0.02117437 0.02095286 0.02073801 0.02051806 0.02028815
 0.02004768 0.01979386 0.0195413 0.01929057 0.01906172 0.01885628 0.01868507 0.01854773 0.01843422 0.01834147
 0.01824114 0.01813139 0.01798698 0.01781316 0.01760923 0.01738612 0.01716448 0.01695071 0.01676395 0.01659942
 0.01646097 0.01633797 0.01622464 0.01611433 0.01600217 0.01588774 0.01576974 0.01565001 0.01552854 0.01540771
 0.01528762 0.01517191 0.01506082 0.01495784 0.01486301 0.01477613 0.01469662 0.01461972 0.0145447 0.01446543
 0.0143822 0.01429223 0.01419709 0.01409854 0.01399786 0.01389796 0.01379821 0.0136993 0.01359951 0.01349739
 0.01339374 0.01328779 0.01318365 0.01308229 0.01298728 0.01289995 0.01281943 0.01274615 0.0126754 0.01260692
 0.01253613 0.01246289 0.01238578 0.01230512 0.01222299 0.0121398 0.01205863 0.01197925 0.01190255 0.01182824
 0.01175583 0.01168596 0.01161934 0.01155646 0.01149875 0.01144401 0.01139146 0.01133847 0.01128261 0.01122664
 0.01117001 0.01111972 0.01107708 0.01104698 0.01103045 0.01102807 0.01104004 0.01106526 0.01110346 0.01114804
 0.01119753 0.01123611 0.01126268 0.01126201 0.0112375 0.01118968 0.01112599 0.01106174 0.01100173 0.01096054
 0.01093563 0.01093099 0.01093919 0.01095731 0.01097662 0.01099245 0.01099921 0.01099306 0.01097696 0.01094967
 0.01092215 0.01089562 0.01087874 0.01087258 0.01087547 0.01088734 0.01090422 0.01092704 0.01096272 0.0110131
 0.01109229 0.01119812 0.01133414 0.01149086 0.01165186 0.01180623 0.0119294 0.01202117 0.01206814 0.01208693
 0.01208197 0.01207662 0.01208409 0.01211423 0.01217594 0.01225764 0.01235944 0.01246408 0.01256841 0.01266869
 0.01276387 0.01286312 0.01296681 0.01308118 0.0132057 0.01333723 0.01347539 0.01361636 0.01376092 0.01391008
 0.01406342 0.01422126 0.01438102 0.01453878 0.01469333 0.01484107 0.01498463 0.01512493 0.0152637 0.01540339
 0.01553932 0.01567173 0.01579069 0.01589444 0.01597392 0.01602722 0.01605227 0.01604814 0.01602504 0.01598366
 0.0159457 0.01591218 0.01590276 0.01591527 0.01595054 0.01600261 0.01605289 0.01609713 0.01611568 0.01611117
 0.01607767 0.01602286 0.01595244 0.01587241 0.01578926 0.01570464 0.01562118 0.01553802 0.01545584 0.01537158
 0.01528522 0.01519105 0.01508817 0.01497299 0.01484463 0.01471016 0.01457003 0.01443985 0.01431969 0.01421678
 0.01412816 0.01404197 0.0139552 0.01384995 0.01372947 0.01359065 0.0134415 0.01329396 0.01315082 0.01302173
 0.01290018 0.01278478 0.01266861 0.01254681 0.01241928 0.01228496 0.01214489 0.01199989 0.01184595 0.01168236
 0.01150745 0.0113203 0.01113177 0.01094248 0.01077191 0.01062061 0.01050182 0.01041352 0.01035262 0.01031452
 0.01028226 0.0102523 0.01020685 0.01014867 0.01007211 0.009987148 0.009901434 0.009825774 0.009771338 0.009742002
 0.0097436 0.009773001 0.009830252 0.00991258 0.01001865 0.01015082 0.01030902 0.01049753 0.01071692 0.0109674
 0.01124898 0.01155699 0.01189145 0.01225045 0.01263572 0.01305555 0.01351256 0.01402101 0.01458038 0.01519837
 0.01586881 0.01658659 0.01734282 0.01812573 0.01892952 0.01974541 0.02057309 0.02140953 0.02225815 0.02311921
 0.02399694 0.02489235 0.02580851 0.02674614 0.02770615 0.02868891 0.02969193 0.03071511 0.03175008 0.03279568
 0.03383581 0.03486801 0.03587062 0.03683998 0.03775331 0.03860496 0.03937246 0.04004719 0.0406054 0.04104161
 0.04133602 0.04150108 0.0415316 0.04146787 0.04132292 0.04115233 0.04097742 0.04084121 0.04075953 0.04074795
 0.04081236 0.04094958 0.04116025 0.04143582 0.04177586 0.04216719 0.04260841 0.04307809 0.0435742 0.0440732
 0.04457438 0.04506196 0.0455377 0.04599715 0.0464441 0.04688172 0.04731597 0.04775433 0.04820291 0.0486707
 0.04915537 0.04966444 0.05017076 0.05067684 0.05111384 0.05147529 0.05165558 0.05163929 0.05133271 0.05072083
 0.04979507 0.04855318 0.04710176 0.04545099 0.04377006 0.04206732 0.04048286 0.03901125 0.03771038 0.0365633
 0.03555926 0.03468034 0.03389204 0.03318157 0.03252114 0.03190248 0.03131033 0.03074012 0.03018459 0.02964514
 0.0291194 0.02861537 0.02813404 0.0276848 0.0272694 0.02689352 0.02655794 0.02626535 0.02601593 0.02581405
 0.02566001 0.02555985 0.02551314 0.0255212 0.02558111 0.02568441 0.02582433 0.02598264 0.02614716 0.02629201
 0.02639968 0.02644104 0.0263988 0.02624817 0.02598287 0.02558943 0.02507905 0.02444932 0.02372649 0.02291378
 0.02204669 0.02112954 0.02020186 0.01926745 0.01836288 0.01749061 0.01667822 0.01592655 0.01525265 0.01465376
 0.01412585 0.0136541 0.01318679 0.01269215 0.01206414 0.01127619 0.0102205 0.008920058 0.00734023 0.00557011
 0.003660748 0.001722753 -0.000164271 -0.001936595 -0.003542699 -0.004988953 -0.00626243 -0.007405374 -0.008422649 -0.009350624
 -0.01019408 -0.01097289 -0.01168865 -0.01235368 -0.01296867 -0.0135453 -0.01408432 -0.01459633 -0.01508227 -0.01555151
 -0.01600498 -0.01645004 -0.0168868 -0.01731916 -0.01774586 -0.01816705 -0.01858099 -0.01898601 -0.01938156 -0.01976637
 -0.02014203 -0.0205083 -0.02086897 -0.02122475 -0.02157988 -0.02193541 -0.02229287 -0.02265284 -0.02301287 -0.02337292
 -0.02372783 -0.02407741 -0.02441772 -0.02474908 -0.02507169 -0.02538666 -0.02569883 -0.02600866 -0.02632053 -0.02663271
 -0.02694449 -0.02725299 -0.02755352 -0.02784614 -0.02812839 -0.02840392 -0.02867435 -0.02894215 -0.0292097 -0.02947414
 -0.02973575 -0.02998862 -0.03023146 -0.03046155 -0.03067796 -0.03088421 -0.03108035 -0.03127398 -0.03146545 -0.03166136
 -0.03186125 -0.03206497 -0.03227096 -0.03247217 -0.03266774 -0.03285096 -0.03302349 -0.03318505 -0.03333814 -0.0334866
 -0.03363004 -0.03376992 -0.03390388 -0.03403043 -0.03414942 -0.03425992 -0.03436433 -0.03446323 -0.03455811 -0.03464957
 -0.0347367 -0.03481934 -0.03489776 -0.03497185 -0.03504546 -0.03511881 -0.03519659 -0.03527883 -0.03536806 -0.03546379
 -0.03556538 -0.0356721 -0.03578152 -0.03589339 -0.03600585 -0.03611972 -0.03623502 -0.0363533 -0.03647634 -0.03660417
 -0.03673815 -0.0368752 -0.03701469 -0.0371528 -0.03728778 -0.03741974 -0.03754783 -0.03767651 -0.03780619 -0.03794068
 -0.03808038 -0.03822465 -0.03837339 -0.03852352 -0.03867505 -0.03882664 -0.03897849 -0.03913083 -0.03928358 -0.03943646
 -0.03958974 -0.03974349 -0.03989894 -0.04005803 -0.0402211 -0.04039019 -0.04056205 -0.040736 -0.04090641 -0.0410702
 -0.0412253 -0.04136944 -0.04150689 -0.04163758 -0.04176865 -0.04190105 -0.04203904 -0.04218316 -0.04233246 -0.04248683
 -0.04264189 -0.04279749 -0.04295017 -0.04310046 -0.04324888 -0.04339648 -0.04354694 -0.04370031 -0.0438589 -0.04402106
 -0.04418561 -0.04435048 -0.04451318 -0.04467242 -0.04482641 -0.04497518 -0.04511799 -0.04525638 -0.04539039 -0.0455227
 -0.04565398 -0.04578547 -0.0459177 -0.04604873 -0.04617853 -0.04630387 -0.0464246 -0.04653903 -0.04664716 -0.04674827
 -0.04684236 -0.04692882 -0.0470081 -0.04708093 -0.04714839 -0.04721322 -0.04727573 -0.04733821 -0.04739867 -0.04745628
 -0.04750827 -0.04755205 -0.04758736 -0.04761265 -0.04763141 -0.04764403 -0.04765517 -0.047666 -0.04767898 -0.0476949
 -0.0477121 -0.04773063 -0.04774644 -0.04775936 -0.04776685 -0.0477692 -0.04776813 -0.04776433 -0.0477623 -0.04776226
 -0.04776743 -0.04777714 -0.0477916 -0.04780997 -0.04783099 -0.04785439 -0.04787944 -0.04790604 -0.04793384 -0.04796296
 -0.04799306 -0.04802547 -0.04806015 -0.04810015 -0.04814611 -0.04820035 -0.0482635 -0.04833493 -0.04841475 -0.04850017
 -0.04859105 -0.04868437 -0.04878004 -0.04887601 -0.04897232 -0.04906779 -0.0491627 -0.04925718 -0.04935175 -0.0494476
 -0.04954511 -0.04964539 -0.04974856 -0.049855 -0.04996521 -0.0500796 -0.05019866 -0.05032306 -0.05045171 -0.05058471
 -0.05071954 -0.05085559 -0.05099143 -0.05112655 -0.05126224 -0.05139858 -0.05153655 -0.05167616 -0.05181549 -0.05195443
 -0.05209101 -0.05222579 -0.05236054 -0.05249616 -0.0526369 -0.05278257 -0.05293526 -0.05309334 -0.05325536 -0.05341956
 -0.05358355 -0.05374606 -0.05390552 -0.05406093 -0.05421132 -0.05435645 -0.05449563 -0.05463071 -0.05476167 -0.05489196
 -0.05502214 -0.05515397 -0.05528784 -0.05542189 -0.05555602 -0.05568636 -0.05581288 -0.05593384 -0.05604975 -0.05616236
 -0.05627224 -0.05638237 -0.05649253 -0.05660382 -0.05671571 -0.05682778 -0.05693987 -0.05705171 -0.05716307 -0.057274
 -0.05738335 -0.05749066 -0.05759462 -0.05769435 -0.05779058 -0.05788288 -0.0579746 -0.05806604 -0.05816078 -0.0582593
 -0.05836239 -0.0584701 -0.05858026 -0.05869278 -0.05880558 -0.05891883 -0.05903258 -0.05914695 -0.05926263 -0.05937912
 -0.05949552 -0.05961169 -0.05972639 -0.05984146 -0.05995816 -0.06007886 -0.06020628 -0.06034017 -0.0604818 -0.06062793
 -0.06077775 -0.06092846 -0.06107896 -0.06122921 -0.06137899 -0.0615292 -0.06167996 -0.061831 -0.0619823 -0.06213206
 -0.06228016 -0.06242485 -0.06256615 -0.06270327 -0.06283649 -0.06296629 -0.06309313 -0.06321829 -0.06334216 -0.06346586
 -0.06358978 -0.06371471 -0.06384112 -0.06396969 -0.06410038 -0.06423374 -0.06436812 -0.06450334 -0.06463677 -0.06476768
 -0.06489466 -0.06501716 -0.06513617 -0.06525165 -0.06536563 -0.06547823 -0.06559037 -0.06570201 -0.06581263 -0.06592214
 -0.0660295 -0.06613483 -0.06623783 -0.06633894 -0.06643909 -0.06653875 -0.0666393 -0.06674059 -0.06684325 -0.06694622
 -0.06704892 -0.06715041 -0.06724984 -0.06734735 -0.06744267 -0.06753658 -0.06762925 -0.06772102 -0.06781198 -0.06790207
 -0.06799123 -0.06807981 -0.06816781 -0.06825597 -0.06834432 -0.0684337 -0.06852416 -0.0686166 -0.06871094 -0.0688076
 -0.06890593 -0.06900468 -0.0691029 -0.06919828 -0.06929062 -0.06937827 -0.06946274 -0.06954444 -0.06962545 -0.06970727
 -0.06979037 -0.06987567 -0.06996145 -0.07004731 -0.07013252 -0.07021663 -0.07030159 -0.07038756 -0.07047659 -0.07056885
 -0.07066277 -0.07075814 -0.07085145 -0.07094282 -0.07103141 -0.07111774 -0.07120358 -0.07128892 -0.07137475 -0.07146051
 -0.07154543 -0.07162958 -0.0717126 -0.07179505 -0.07187758 -0.07195973 -0.07204167 -0.07212185 -0.07219966 -0.07227418
 -0.07234477 -0.07241255 -0.07247742 -0.07254206 -0.07260672 -0.07267401 -0.07274412 -0.07281737 -0.07289359 -0.07296982
 -0.0730458 -0.07311808 -0.07318699 -0.07325195 -0.0733136 -0.07337344 -0.07343176 -0.07348952 -0.07354759 -0.07360668
 -0.07366962 -0.07373892 -0.07381696 -0.07390659 -0.07400627 -0.07411674 -0.07423333 -0.07435479 -0.07447834 -0.0746029
 -0.07472982 -0.07485909 -0.0749924 -0.0751299 -0.07527011 -0.07541284 -0.0755549 -0.07569594 -0.07583223 -0.07596304
 -0.07608359 -0.07619306 -0.07628671 -0.07636464 -0.07642481 -0.07646765 -0.07649314 -0.07650077 -0.0764895 -0.07646108
 -0.07641415 -0.07635796 -0.07629459 -0.07623656 -0.07618786 -0.07615605 -0.07614362 -0.07615127 -0.07617968 -0.07622483
 -0.0762866 -0.076357 -0.07643551 -0.07651253 -0.07658795 -0.0766562 -0.07671815 -0.0767744 -0.07682579 -0.07687538
 -0.0769226 -0.07696839 -0.07701023 -0.07704532 -0.07707135 -0.07708448 -0.07708608 -0.07707484 -0.07705624 -0.07703203
 -0.07700733 -0.07698428 -0.07696416 -0.07694783 -0.07693365 -0.07692149 -0.07691053 -0.07690065 -0.07689414 -0.07689112
 -0.0768939 -0.07690222 -0.07691517 -0.07693198 -0.07694863 -0.07696483 -0.07697739 -0.07698713 -0.07699376 -0.07699884
 -0.07700422 -0.07701149 -0.07702284 -0.07703899 -0.07706163 -0.07708867 -0.07712029 -0.07715186 -0.0771822 -0.07720744
 -0.07722626 -0.07723905 -0.07724533 -0.07724969 -0.07725236 -0.07725836 -0.07726789 -0.07728309 -0.07730369 -0.07732833
 -0.07735657 -0.0773856 -0.07741544 -0.07744459 -0.07747361 -0.07750283 -0.0775329 -0.07756505 -0.07759898 -0.07763514
 -0.07767223 -0.07770983 -0.07774597 -0.07777974 -0.07780959 -0.07783468 -0.07785514 -0.07787053 -0.07788333 -0.07789362
 -0.07790492 -0.07791748 -0.07793352 -0.07795309 -0.07797562 -0.07800087 -0.07802629 -0.07805176 -0.07807513 -0.07809661
 -0.07811555 -0.07813233 -0.07814757 -0.07816112 -0.07817308 -0.07818312 -0.07819076 -0.07819639 -0.07819982 -0.07820258
 -0.07820531 -0.0782091 -0.07821465 -0.07822142 -0.07822959 -0.07823741 -0.07824464 -0.07825058 -0.0782551 -0.07825963
 -0.07826427 -0.07827152 -0.07828136 -0.0782947 -0.07831109 -0.07832891 -0.07834734 -0.07836302 -0.07837556 -0.07838235
 -0.07838405 -0.07838015 -0.0783723 -0.07836176 -0.07835028 -0.07833933 -0.07833037 -0.07832451 -0.0783221 -0.07832375
 -0.07832801 -0.07833497 -0.07834166 -0.07834768 -0.07835101 -0.07835138 -0.07834946 -0.07834532 -0.07834093 -0.07833635
 -0.07833294 -0.07833057 -0.07832938 -0.07832915 -0.07832935 -0.07832956 -0.07832877 -0.07832646 -0.07832135 -0.07831343
 -0.078302 -0.07828804 -0.07827187 -0.07825486 -0.07823776 -0.07822135 -0.07820618 -0.07819191 -0.07817868 -0.07816516
 -0.07815122 -0.07813548 -0.0781178 -0.07809766 -0.07807504 -0.07805069 -0.07802468 -0.07799822 -0.07797135 -0.07794503
 -0.07791917 -0.07789399 -0.07786941 -0.0778453 -0.07782176 -0.07779896 -0.07777673 -0.07775519 -0.07773336 -0.07771068
 -0.07768612 -0.0776587 -0.07762926 -0.07759748 -0.07756612 -0.07753567 -0.0775084 -0.07748493 -0.07746453 -0.07744731
 -0.07743008 -0.07741268 -0.07739145 -0.07736644 -0.07733626 -0.07730161 -0.07726528 -0.0772283 -0.07719566 -0.07716731
 -0.07714612 -0.07713021 -0.07711806 -0.07710775 -0.07709625 -0.07708367 -0.07706863 -0.07705352 -0.07703917 -0.07702756
 -0.07701991 -0.07701567 -0.07701527 -0.07701605 -0.07701775 -0.07701794 -0.07701628 -0.07701257 -0.07700679 -0.07700123
 -0.07699607 -0.07699468 -0.07699715 -0.07700596 -0.07702085 -0.07704256 -0.07707013 -0.07710207 -0.07713677 -0.07717118
 -0.07720401 -0.07723237 -0.07725672 -0.07727583 -0.07729266 -0.07730801 -0.0773255 -0.07734679 -0.07737304 -0.0774053
 -0.07744085 -0.07747953 -0.07751811 -0.07755615 -0.07759371 -0.07763077 -0.07767031 -0.07771232 -0.07775827 -0.07780761
 -0.07785801 -0.07790875 -0.07795584 -0.07799959 -0.07803832 -0.07807361 -0.07810709 -0.0781404 -0.07817632 -0.07821479
 -0.07825698 -0.07830138 -0.0783475 -0.07839417 -0.0784407 -0.07848718 -0.0785335 -0.07857992 -0.07862653 -0.07867291
 -0.07871904 -0.07876453 -0.07880934 -0.07885344 -0.07889683 -0.07893901 -0.07897995 -0.07901905 -0.07905666 -0.0790934
 -0.07913026 -0.07916974 -0.0792127 -0.07926212 -0.07931711 -0.07937849 -0.07944309 -0.07950903 -0.07957292 -0.07963193
 -0.07968609 -0.07973416 -0.0797796 -0.07982302 -0.07986718 -0.07991283 -0.07995962 -0.08000766 -0.080055 -0.08010154
 -0.08014669 -0.08019046 -0.08023281 -0.08027367 -0.08031247 -0.08034927 -0.08038381 -0.08041674 -0.08044938 -0.08048246
 -0.08051781 -0.08055571 -0.08059739 -0.08064245 -0.0806912 -0.08074241 -0.08079584 -0.08084937 -0.08090227 -0.08095277
 -0.08100007 -0.08104436 -0.08108537 -0.08112497 -0.08116333 -0.08120167 -0.08124007 -0.08127818 -0.08131596 -0.08135284
 -0.081389 -0.08142511 -0.0814615 -0.08149966 -0.08153962 -0.0815824 -0.08162738 -0.08167424 -0.08172155 -0.08176772
 -0.08181106 -0.08184957 -0.08188249 -0.08190831 -0.08192904 -0.08194461 -0.08195889 -0.08197281 -0.08198924 -0.08200911
 -0.08203182 -0.08205758 -0.08208352 -0.0821095 -0.08213343 -0.08215532 -0.0821749 -0.08219226 -0.0822079 -0.08222181
 -0.08223409 -0.08224476 -0.08225389 -0.08226164 -0.08226819 -0.08227419 -0.08228039 -0.08228765 -0.08229703 -0.08230864
 -0.08232317 -0.08233931 -0.08235675 -0.08237425 -0.08239122 -0.08240801 -0.08242454 -0.08244192 -0.08246034 -0.08247919
 -0.08249843 -0.08251639 -0.08253303 -0.08254793 -0.08256132 -0.08257442 -0.08258756 -0.08260271 -0.08261994 -0.08264056
 -0.08266418 -0.08269098 -0.08271973 -0.082749 -0.08277775 -0.0828042 -0.08282905 -0.08285182 -0.08287472 -0.08289863
 -0.08292459 -0.08295342 -0.08298343 -0.08301454 -0.0830446 -0.08307319 -0.08310093 -0.08312778 -0.08315648 -0.0831871
 -0.08322094 -0.08325759 -0.08329508 -0.08333293 -0.08336804 -0.08340051 -0.08342879 -0.08345368 -0.08347583 -0.08349618
 -0.08351619 -0.08353654 -0.08355842 -0.0835818 -0.08360713 -0.08363365 -0.0836611 -0.0836891 -0.08371748 -0.08374608
 -0.08377506 -0.0838028 -0.08382932 -0.08385123 -0.08386826 -0.08387934 -0.0838846 -0.08388693 -0.08388675 -0.08388877
 -0.08389284 -0.08390103 -0.08391242 -0.0839256 -0.08393965 -0.08395202 -0.08396266 -0.08397017 -0.0839757 -0.0839798
 -0.08398344 -0.08398771 -0.08399192 -0.08399609 -0.08399919 -0.08400063 -0.08400138 -0.08400135 -0.0840027 -0.08400576
 -0.08401099 -0.0840185 -0.08402701 -0.08403644 -0.08404537 -0.08405377 -0.08406098 -0.084067 -0.0840715 -0.08407445
 -0.08407556 -0.08407487 -0.08407222 -0.08406801 -0.08406262 -0.08405662 -0.0840508 -0.08404499 -0.08403952 -0.08403326
 -0.08402564 -0.08401655 -0.08400563 -0.08399409 -0.08398218 -0.0839701 -0.08395801 -0.08394488 -0.08393062 -0.08391463
 -0.08389695 -0.08387895 -0.08386078 -0.0838443 -0.08382948 -0.08381738 -0.0838075 -0.08379934 -0.08379161 -0.08378159
 -0.08376837 -0.08374904 -0.08372471 -0.08369487 -0.0836623 -0.08362874 -0.08359582 -0.0835648 -0.08353579 -0.0835091
 -0.0834844 -0.0834617 -0.08344045 -0.0834207 -0.08340099 -0.08338129 -0.08335927 -0.08333479 -0.08330466 -0.08326883
 -0.08322495 -0.08317386 -0.08311772 -0.08305798 -0.08300017 -0.08294473 -0.08289557 -0.08285133 -0.0828119 -0.08277553
 -0.08274057 -0.08270556 -0.08266921 -0.08263032 -0.08258797 -0.08254202 -0.08249195 -0.08243935 -0.0823845 -0.08232821
 -0.0822707 -0.08221126 -0.08214987 -0.08208589 -0.08201928 -0.08194994 -0.0818779 -0.08180363 -0.0817271 -0.08164872
 -0.08156804 -0.08148438 -0.08139643 -0.0813008 -0.08119776 -0.08108534 -0.08096688 -0.08084503 -0.08072213 -0.08060167
 -0.08048081 -0.08035956 -0.08023341 -0.08010017 -0.07996067 -0.07981419 -0.07966553 -0.07951523 -0.07936686 -0.07922085
 -0.07907688 -0.07893485 -0.07879096 -0.07864501 -0.07849337 -0.07833678 -0.07817677 -0.07801463 -0.07785584 -0.07769968
 -0.07754797 -0.07739776 -0.07724565 -0.07708917 -0.0769244 -0.07675087 -0.07656699 -0.07637337 -0.07617 -0.0759572
 -0.07573563 -0.07550281 -0.0752591 -0.07499766 -0.07471757 -0.07441406 -0.07408629 -0.07373895 -0.07337232 -0.07299393
 -0.07260361 -0.07220221 -0.07178966 -0.07136535 -0.07093094 -0.07049176 -0.07004838 -0.06960571 -0.06916063 -0.06871074
 -0.06825321 -0.06778326 -0.06730269 -0.0668113 -0.06631105 -0.06580397 -0.06528676 -0.06475911 -0.06421655 -0.06365765
 -0.06308205 -0.06248965 -0.06188017 -0.0612541 -0.06060151 -0.05992175 -0.05919523 -0.05842225 -0.05759684 -0.05672406
 -0.05582793 -0.05491108 -0.05399815 -0.05308041 -0.0521524 -0.05120201 -0.05020791 -0.04916481 -0.04806049 -0.04688993
 -0.04565122 -0.04432333 -0.04290031 -0.04134852 -0.03965372 -0.0378023 -0.03578216 -0.03362767 -0.03133763 -0.02897861
 -0.02655548 -0.02412838 -0.02170042 -0.0193047 -0.01693942 -0.01459948 -0.0122759 -0.009918897 -0.007519726 -0.005013741
 -0.002419976 0.0002626423 0.002984281 0.00566135 0.008280592 0.01078046 0.01321306 0.01559411 0.01797874 0.02040524
 0.02288103 0.02541967 0.0280042 0.03063127 0.03329856 0.03600648 0.03874505 0.04151469 0.04428495 0.04705434
 0.04981325 0.05256118 0.05529638 0.05800787 0.06063519 0.06316368 0.06550408 0.06766684 0.06962715 0.0714119
 0.07305825 0.07456934 0.07596745 0.07723491 0.07835614 0.07934913 0.08020916 0.08099061 0.08171214 0.08240835
 0.08309542 0.08376357 0.0844159 0.08502103 0.0855765 0.08605832 0.0864651 0.08678259 0.08701067 0.08714251
 0.08718055 0.08713433 0.08700793 0.08682184 0.08657555 0.08627933 0.08592765 0.08551477 0.08504027 0.08449633
 0.0838999 0.08325561 0.08259644 0.08193702 0.08131368 0.08073912 0.08025087 0.0798579 0.07959662 0.07947548
 0.07950509 0.07968973 0.07999738 0.08042648 0.08091781 0.08146698 0.08200407 0.08252421 0.08296097 0.0833156
 0.0835526 0.08368597 0.08372609 0.08369807 0.08364229 0.08359064 0.08359022 0.08367474 0.08388253 0.08424219
 0.08477844 0.08550753 0.08644406 0.0875802 0.08892456 0.09042503 0.09208343 0.09379306 0.09554847 0.0972083
 0.09876442 0.1000808 0.1011518 0.1018732 0.1022411 0.1021778 0.1016841 0.1007093 0.09928177 0.09742695
 0.09521451 0.09276605 0.09014776 0.08748447 0.08480924 0.08217918 0.07963658 0.07721071 0.07495769 0.07291263
 0.07107402 0.06946008 0.06799227 0.06666318 0.06539059 0.06416212 0.06296868 0.06180866 0.06072829 0.05972739
 0.05881178 0.05797416 0.05716858 0.05639218 0.05560759 0.05482201 0.05403354 0.05325216 0.05249684 0.0517663
 0.05107337 0.05039341 0.04971631 0.04900336 0.04822609 0.04737492 0.04642976 0.04543455 0.0443918 0.04336357
 0.04235823 0.04143453 0.04059787 0.03990726 0.03936661 0.03901516 0.03885248 0.03887553 0.03907891 0.03942863
 0.03991491 0.04049034 0.04113109 0.04176606 0.04234605 0.04276247 0.04295659 0.04281181 0.04230278 0.04135678
 0.04001249 0.03826084 0.03618208 0.03380499 0.03118725 0.02834857 0.02532221 0.02210214 0.01881155 0.01545216
 0.01225358 0.009231391 0.006495639 0.004041339 0.001772672 -0.0003230868 -0.002384064 -0.004403386 -0.006429983 -0.00844291
 -0.01040992 -0.0123219 -0.01414643 -0.01588549 -0.0175341 -0.0190797 -0.02051592 -0.02181379 -0.02295476 -0.02391931
 -0.02469275 -0.02527681 -0.0256683 -0.02587623 -0.02590161 -0.02575153 -0.02542621 -0.02493689 -0.02428379 -0.02349655
 -0.02257907 -0.02160116 -0.0205733 -0.01960531 -0.0187035 -0.01795779 -0.01735584 -0.01691497 -0.01661068 -0.01640832
 -0.01628467 -0.01619713 -0.01612993 -0.01605418 -0.01596551 -0.01584881 -0.01572149 -0.01557914 -0.0154711 -0.01540669
 -0.01543979 -0.01558549 -0.01585138 -0.01624379 -0.01672121 -0.01728217 -0.01786172 -0.01845636 -0.01900112 -0.01949607
 -0.01990775 -0.02024506 -0.02052421 -0.02076008 -0.02100115 -0.02125736 -0.02157539 -0.0219429 -0.02237459 -0.02282146
 -0.02325472 -0.02360487 -0.02382498 -0.02385751 -0.02366775 -0.02322313 -0.02250521 -0.02151187 -0.02023651 -0.01870592
 -0.01692217 -0.01491017 -0.0126723 -0.01020623 -0.007512377 -0.004594478 -0.001461153 0.001822143 0.0052381 0.00867774
 0.01212825 0.01550402 0.01878721 0.02191833 0.02484876 0.02750228 0.02980893 0.03167802 0.03306863 0.03391794
 0.03425146 0.03405248 0.03340292 0.03231439 0.03089141 0.02915106 0.0271927 0.02502749 0.02274681 0.02035682
 0.0179525 0.0155385 0.01319643 0.01092463 0.008749335 0.006659791 0.004622163 0.002627736 0.000629545 -0.001363947
 -0.003364092 -0.005345105 -0.007279831 -0.009139535 -0.01088847 -0.01250704 -0.01397052 -0.01527681 -0.01641445 -0.01740549
 -0.01824981 -0.01898728 -0.01962476 -0.02019648 -0.02070906 -0.02116909 -0.02157857 -0.02191355 -0.02217227 -0.02231415
 -0.02233734 -0.02220621 -0.02192453 -0.02148583 -0.02090497 -0.02021579 -0.01944468 -0.01865365 -0.01787714 -0.01718276
 -0.01660824 -0.01621094 -0.01601988 -0.01607361 -0.01637484 -0.01694168 -0.01773846 -0.01876715 -0.01995439 -0.02129302
 -0.02268557 -0.02412225 -0.02550379 -0.02682248 -0.02799626 -0.02902133 -0.02984456 -0.03046766 -0.0308791 -0.03109002
 -0.03114009 -0.03105242 -0.03091149 -0.03074534 -0.03065263 -0.03064477 -0.03078889 -0.03105667 -0.03145572 -0.0319221
 -0.03241933 -0.03288716 -0.03328419 -0.03359525 -0.03379956 -0.03393298 -0.03399491 -0.03404445 -0.03408886 -0.03417398
 -0.0343051 -0.03448958 -0.03472709 -0.03498597 -0.03526284 -0.03551255 -0.03573463 -0.03590135 -0.03601778 -0.03608339
 -0.03610667 -0.03610272 -0.03608336 -0.03606786 -0.03607608 -0.03613045 -0.0362578 -0.03648275 -0.03682307 -0.03729857
 -0.03789566 -0.0386219 -0.03942599 -0.04030317 -0.04118589 -0.04206506 -0.04288891 -0.04365177 -0.04433455 -0.04493651
 -0.04546385 -0.04591787 -0.04631356 -0.04665215 -0.04694725 -0.04720005 -0.04742109 -0.0476116 -0.04777902 -0.04792428
 -0.04805199 -0.04816206 -0.04825675 -0.04833349 -0.04839236 -0.04842714 -0.04843632 -0.04840983 -0.04834522 -0.04823029
 -0.04806239 -0.04783113 -0.04753419 -0.04716922 -0.046735 -0.04624473 -0.04569934 -0.04513007 -0.04454012 -0.04397322
 -0.04343338 -0.04296428 -0.04256827 -0.04227673 -0.04208803 -0.04201556 -0.04205234 -0.04219598 -0.04243347 -0.04275287
 -0.04313689 -0.04357092 -0.04403921 -0.04453025 -0.04503604 -0.0455507 -0.04607474 -0.04660678 -0.04715152 -0.04770967
 -0.04828325 -0.04887293 -0.04947251 -0.05008158 -0.05068425 -0.0512793 -0.05184751 -0.05238853 -0.05288979 -0.05335316
 -0.05377753 -0.05416646 -0.05452698 -0.05486238 -0.05518099 -0.05548393 -0.05577595 -0.05605568 -0.05632378 -0.0565781
 -0.05681762 -0.0570413 -0.05724846 -0.05743907 -0.05761309 -0.05777022 -0.05791048 -0.05803324 -0.05813847 -0.05822537
 -0.05829387 -0.0583427 -0.05837186 -0.0583807 -0.05836948 -0.05833914 -0.05829006 -0.05822395 -0.05814113 -0.05804274
 -0.05793004 -0.05780439 -0.05766984 -0.05753039 -0.05739179 -0.0572601 -0.05713725 -0.05702812 -0.05692415 -0.05682619
 -0.05671439 -0.05658593 -0.05641707 -0.05620392 -0.05592967 -0.0555918 -0.05518838 -0.05471924 -0.05419815 -0.05362666
 -0.05302768 -0.05240258 -0.05177196 -0.05113422 -0.05049669 -0.04985266 -0.04919229 -0.04850484 -0.0477698 -0.04697698
 -0.04610697 -0.04515488 -0.04410969 -0.04297401 -0.04174488 -0.04043122 -0.03903391 -0.03756693 -0.03603174 -0.03444917
 -0.03282075 -0.03117559 -0.02951564 -0.02787472 -0.0262548 -0.0246853 -0.02316693 -0.02171629 -0.02033201 -0.0190154
 -0.01776329 -0.01656602 -0.01541949 -0.01431011 -0.01323315 -0.01217566 -0.01113266 -0.01009396 -0.009055554 -0.00801107
 -0.006958731 -0.005895876 -0.004822354 -0.003738027 -0.002641053 -0.001531749 -0.0004044831 0.0007408389 0.001914088 0.003115951
 0.004357859 0.005640545 0.006967987 0.00833888 0.009737133 0.0111573 0.0125593 0.01393497 0.01523354 0.01644892
 0.01754053 0.01850753 0.01932996 0.02001094 0.02054636 0.02094005 0.02119319 0.0213106 0.02129322 0.02115192
 0.02088814 0.02052175 0.02005612 0.01951523 0.01890313 0.01823844 0.01752357 0.01676888 0.01597511 0.01515035
 0.01429525 0.01342075 0.01252751 0.01162607 0.01071529 0.009797379 0.008868953 0.007922716 0.006956116 0.005960462
 0.004937428 0.00388471 0.002807166 0.00170803 0.0005909877 -0.0005406179 -0.00168626 -0.002845036 -0.004016992 -0.005202306
 -0.006399373 -0.007608232 -0.00882568 -0.01005157 -0.01128148 -0.01251517 -0.01374686 -0.01497609 -0.01619536 -0.01740382
 -0.01859245 -0.01975986 -0.02089596 -0.02199933 -0.0230615 -0.02408115 -0.02505303 -0.02597419 -0.02684071 -0.02764534
 -0.02838212 -0.02904136 -0.02961546 -0.03010011 -0.03048941 -0.03079252 -0.03100772 -0.03115888 -0.03124787 -0.03130624
 -0.03133691 -0.03136918 -0.03140509 -0.03146493 -0.03154936 -0.03166925 -0.03182462 -0.03202058 -0.03225744 -0.03253877
 -0.03286582 -0.03324334 -0.0336731 -0.03416124 -0.03470675 -0.03531304 -0.03597196 -0.03668039 -0.03742288 -0.03819115
 -0.03896871 -0.03974745 -0.04051566 -0.04126887 -0.0419995 -0.04270585 -0.04338134 -0.04402503 -0.04463322 -0.04520553
 -0.04574314 -0.04624631 -0.04672007 -0.04716489 -0.04758619 -0.0479846 -0.04836528 -0.04872926 -0.04908153 -0.04942377
 -0.04976075 -0.05009513 -0.05043167 -0.05077374 -0.05112612 -0.05149011 -0.05186903 -0.05225874 -0.05265968 -0.05306266
 -0.05346578 -0.05385954 -0.05424176 -0.05460728 -0.05495487 -0.05528575 -0.0555998 -0.05590261 -0.05619447 -0.05648085
 -0.05676137 -0.05703603 -0.05730323 -0.05755651 -0.05779395 -0.05800699 -0.05819466 -0.05835121 -0.05847608 -0.05856699
 -0.05862137 -0.05863748 -0.05860922 -0.05853396 -0.05840167 -0.05820908 -0.05794309 -0.05759989 -0.05716801 -0.05664332
 -0.05602761 -0.05531838 -0.05454126 -0.05369695 -0.0528326 -0.05195103 -0.05110523 -0.0502978 -0.04957297 -0.04893192
 -0.04840406 -0.04798798 -0.04769664 -0.04752392 -0.04746651 -0.04751302 -0.04764906 -0.04785999 -0.04812926 -0.04844153
 -0.04878401 -0.0491423 -0.0495082 -0.04986977 -0.05022241 -0.05055717 -0.05087171 -0.05116021 -0.05142145 -0.05165407
 -0.05185771 -0.05203611 -0.05218953 -0.05232366 -0.05243855 -0.0525368 -0.0526183 -0.05268307 -0.0527327 -0.05277043
 -0.05280079 -0.05283313 -0.05287356 -0.05293386 -0.05301901 -0.05313842 -0.05329268 -0.05348669 -0.05371328 -0.05397274
 -0.05424976 -0.05454136 -0.05482917 -0.05510943 -0.05536779 -0.0556019 -0.05580397 -0.05597322 -0.05610524 -0.05619983
 -0.05625442 -0.05626936 -0.05624606 -0.05618597 -0.05609614 -0.05597847 -0.05584203 -0.05568821 -0.05552393 -0.05535016
 -0.05517073 -0.0549872 -0.05480186 -0.05461733 -0.05443549 -0.05425974 -0.0540918 -0.05393482 -0.05379021 -0.05365928
 -0.05354305 -0.05343897 -0.05334748 -0.05326058 -0.05317792 -0.05308827 -0.05299105 -0.052876 -0.05274285 -0.05258491
 -0.05240208 -0.05219 -0.05194908 -0.05167743 -0.05137744 -0.05105256 -0.05070618 -0.05034538 -0.04997005 -0.04958414
 -0.04918197 -0.04876165 -0.04831601 -0.047841 -0.04733308 -0.04679002 -0.04621163 -0.04559747 -0.04494796 -0.04426279
 -0.04354459 -0.0427929 -0.0420217 -0.04123227 -0.04046262 -0.03971778 -0.03906066 -0.03849662 -0.03808855 -0.03783233
 -0.03775431 -0.0378335 -0.03804461 -0.03835467 -0.03870726 -0.03907371 -0.03940187 -0.03968552 -0.03989881 -0.04006476
 -0.04018398 -0.04029236 -0.04040267 -0.04053408 -0.04069614 -0.04087824 -0.04108158 -0.04128294 -0.04148032 -0.04166083
 -0.04182393 -0.04197051 -0.04210063 -0.04221589 -0.04231507 -0.04239262 -0.04244725 -0.04247133 -0.04246597 -0.04242888
 -0.04236406 -0.04227561 -0.04216905 -0.04205102 -0.0419269 -0.0418026 -0.04168077 -0.04156506 -0.0414528 -0.04134473
 -0.04123411 -0.04111944 -0.04099676 -0.04086474 -0.04072647 -0.04058206 -0.04043558 -0.04028714 -0.0401328 -0.03997172
 -0.03979329 -0.03959719 -0.03937577 -0.0391305 -0.03886203 -0.03857219 -0.03826573 -0.0379428 -0.03760584 -0.03725401
 -0.03688707 -0.03650483 -0.03610732 -0.03569353 -0.03526303 -0.0348146 -0.03434554 -0.03386503 -0.03337039 -0.03289409
 -0.03243772 -0.03204894 -0.03173225 -0.03151911 -0.03141105 -0.03139808 -0.03147641 -0.03160023 -0.03176433 -0.03191613
 -0.03205411 -0.0321442 -0.0321905 -0.0321848 -0.0321334 -0.03204312 -0.03191693 -0.03176134 -0.03157537 -0.03135937
 -0.03111531 -0.03084168 -0.03054993 -0.03024157 -0.02993477 -0.02963366 -0.02935253 -0.02909486 -0.02886254 -0.02865652
 -0.02846964 -0.02830157 -0.02814797 -0.02800916 -0.02788844 -0.0277855 -0.02770187 -0.02763379 -0.0275704 -0.02750554
 -0.0274197 -0.0273091 -0.02715822 -0.02696847 -0.02673459 -0.02646197 -0.02615243 -0.02581246 -0.02544527 -0.02505737
 -0.02465036 -0.02423436 -0.02381058 -0.02339438 -0.02298842 -0.02260253 -0.02223892 -0.02188808 -0.02154959 -0.0212
 -0.02083863 -0.02044996 -0.02003622 -0.01960172 -0.01915069 -0.01869996 -0.01825288 -0.01782568 -0.01741969 -0.01704387
 -0.01669922 -0.01638891 -0.01611741 -0.01588741 -0.01570796 -0.01558431 -0.01552348 -0.01553213 -0.01560081 -0.01573299
 -0.01589473 -0.01608395 -0.01625388 -0.01639979 -0.01648904 -0.01651946 -0.0164891 -0.0163992 -0.01626769 -0.01609477
 -0.0158914 -0.01565457 -0.01537877 -0.01506219 -0.01469561 -0.0142839 -0.01382764 -0.01334094 -0.01283667 -0.01233643
 -0.01185983 -0.01142644 -0.01105265 -0.01074676 -0.01051756 -0.01035843 -0.01027315 -0.01023366 -0.0102375 -0.01025154
 -0.01027099 -0.01029071 -0.01031003 -0.01034045 -0.01038198 -0.01043655 -0.01050258 -0.01057043 -0.01063985 -0.01070422
 -0.01076569 -0.01082709 -0.01088828 -0.01095175 -0.01101298 -0.01106767 -0.01111213 -0.01114123 -0.01115532 -0.01115294
 -0.01113606 -0.01110535 -0.01106124 -0.0110041 -0.0109332 -0.01084834 -0.01074966 -0.01063672 -0.01051443 -0.0103829
 -0.01025759 -0.01014006 -0.01005683 -0.01000977 -0.01002541 -0.0101026 -0.01025351 -0.01047063 -0.01074483 -0.01106067
 -0.01139008 -0.01171451 -0.01199978 -0.01223711 -0.01240445 -0.01251109 -0.01255373 -0.01255166 -0.01251106 -0.01244804
 -0.01236857 -0.01227923 -0.01218315 -0.01207512 -0.01195555 -0.01181191 -0.01164344 -0.01144133 -0.01120574 -0.0109391
 -0.01064308 -0.01032999 -0.01000199 -0.009674557 -0.009348116 -0.009032463 -0.008724866 -0.008424823 -0.008130091 -0.007835869
 -0.007546399 -0.007261879 -0.006991996 -0.006742873 -0.006519559 -0.006327472 -0.006160138 -0.006018487 -0.005888029 -0.005766879
 -0.005641042 -0.00550865 -0.005361932 -0.005200137 -0.005024558 -0.004835658 -0.004642435 -0.004445672 -0.004255535 -0.004071663
 -0.003898507 -0.003734172 -0.003576334 -0.003422414 -0.003266752 -0.003107504 -0.002939623 -0.002763661 -0.002577659 -0.002385003
 -0.002186782 -0.001987024 -0.001787703 -0.001591026 -0.001398314 -0.001208976 -0.001023852 -0.0008372852 -0.0006496508 -0.000446471
 -0.0002270335 2.86102E-05 0.000321152 0.0006627626 0.001052048 0.001484979 0.001958593 0.00245899 0.002983118 0.003517281
 0.004056084 0.004585869 0.005095955 0.005568756 0.005992169 0.006349632 0.006633673 0.006835406 0.006950782 0.006976927
 0.006908666 0.006743251 0.006481142 0.006119485 0.005676264 0.005151259 0.004579399 0.00396267 0.003339645 0.002712041
 0.002109119 0.001530599 0.0009885749 0.0004804937 2.176962E-06 -0.0004490291 -0.0008830772 -0.001300061 -0.001705126 -0.002096567
 -0.002474516 -0.002836498 -0.003181227 -0.003503905 -0.003802025 -0.004069269 -0.004301081 -0.004498811 -0.004658929 -0.004798892
 -0.004919493 -0.00504762 -0.005187249 -0.005350908 -0.005540732 -0.005731898 -0.005924047</values></Ydata></AB><ScSm><Ydata ylabel="Single channel"><values byteorder="INTEL" format="FLOAT32" numvalues="1814"> 0.08456699 0.08468366 0.08481337 0.08496103 0.08512235 0.08528621 0.08544104 0.08558201 0.08570988 0.0858224
 0.08591777 0.08601061 0.08612844 0.0862836 0.08645809 0.08661984 0.08674821 0.08684905 0.08695282 0.08708678
 0.08723693 0.08734693 0.08736897 0.08731636 0.0872579 0.08725648 0.08732726 0.08747169 0.08771802 0.08805645
 0.08834727 0.08840968 0.08824667 0.08808076 0.08810782 0.08829957 0.08849148 0.08856602 0.08850295 0.08836427
 0.08831234 0.0885565 0.08916433 0.08990909 0.09033954 0.09003864 0.08890118 0.08728547 0.0859282 0.08555888
 0.08637238 0.0878104 0.08898006 0.08937442 0.08914587 0.08872221 0.08836226 0.0881509 0.0881957 0.08860685
 0.08931504 0.0900006 0.09021832 0.08968928 0.08861782 0.08765479 0.0873664 0.08779465 0.0886578 0.08969058
 0.09039282 0.08977764 0.08724636 0.08391388 0.08225953 0.08383638 0.08764605 0.09117609 0.09268621 0.09212834
 0.09042172 0.08864359 0.08774301 0.08821413 0.08977372 0.09164281 0.09316525 0.09398131 0.09386301 0.09282143
 0.09132252 0.09008908 0.08969779 0.09041314 0.09208117 0.09396598 0.09504325 0.09480815 0.09365393 0.09236258
 0.09152903 0.09153516 0.09258125 0.09444699 0.09650991 0.09820573 0.09932374 0.09988411 0.09999721 0.09983771
 0.09955861 0.09927367 0.09918049 0.0994581 0.09992062 0.1000539 0.09958827 0.09886263 0.09848023 0.09868577
 0.09915587 0.09939152 0.09921412 0.09867357 0.09754053 0.09541727 0.09255369 0.08997707 0.08848929 0.08810435
 0.0886993 0.09035322 0.09255761 0.09397733 0.09379442 0.0928138 0.0925955 0.09376881 0.09563553 0.09718216
 0.09806217 0.09865452 0.09947097 0.1005794 0.1014573 0.1013798 0.1001628 0.0986255 0.09804653 0.0989252
 0.1004929 0.1016548 0.102139 0.1024618 0.1030186 0.1035116 0.103212 0.1017424 0.0997296 0.09858074
 0.09932065 0.1015766 0.1037774 0.1043434 0.1028083 0.1000676 0.0976309 0.09653828 0.09695749 0.09861751
 0.1011826 0.1040891 0.106456 0.1075331 0.1072226 0.1060549 0.1046131 0.1029912 0.1010033 0.0990269
 0.09822482 0.09945604 0.1021709 0.1048491 0.1064044 0.1067881 0.10637 0.1052008 0.1031083 0.100455
 0.09847733 0.09836853 0.09991762 0.1015626 0.1020515 0.1016139 0.1012473 0.1013583 0.1015437 0.1014208
 0.1011969 0.1013705 0.1020927 0.1029728 0.1034916 0.1034787 0.1031492 0.1027978 0.1025209 0.1021635
 0.10156 0.1009048 0.1007412 0.1013915 0.1025243 0.1034862 0.103946 0.1040292 0.1039255 0.1035695
 0.1027591 0.1015571 0.1004859 0.1001576 0.1006787 0.1015694 0.1022748 0.1025781 0.1025442 0.1023091
 0.1019889 0.1016496 0.1013231 0.1010873 0.101053 0.101215 0.1014104 0.1014815 0.1014044 0.1012264
 0.1009638 0.1006082 0.1001964 0.09983027 0.09961176 0.09956141 0.09961519 0.09969169 0.0997286 0.09967083
 0.09948861 0.09921764 0.09893487 0.09868753 0.09847873 0.09831255 0.09820978 0.0981714 0.09815565 0.09810835
 0.09800781 0.09786846 0.09770911 0.09753561 0.09735397 0.09718248 0.09704527 0.0969573 0.0969094 0.0968709
 0.09682381 0.09678628 0.09677434 0.09675427 0.09667213 0.09652524 0.09636807 0.09625202 0.09618608 0.09614873
 0.09611098 0.09604403 0.09592335 0.09574644 0.09555539 0.09542375 0.09539951 0.09546858 0.09558456 0.09570994
 0.09581468 0.09587093 0.09587704 0.09586242 0.09584965 0.09583095 0.09579185 0.09574214 0.09571696 0.0957507
 0.09584446 0.0959598 0.09605157 0.09610171 0.09611838 0.09612389 0.09614913 0.09620978 0.09627701 0.09630198
 0.09628012 0.09626336 0.09629731 0.09636878 0.09642652 0.09643935 0.09642436 0.09642263 0.0964562 0.09651317
 0.09657095 0.0966232 0.09667982 0.0967457 0.09680338 0.0968209 0.09678417 0.0967177 0.09666257 0.09663759
 0.09663498 0.09664682 0.0966758 0.09671965 0.09676048 0.09677674 0.09676215 0.09673035 0.0966989 0.09666851
 0.09662351 0.09655397 0.09646983 0.09638941 0.09632029 0.09625524 0.09618231 0.09609513 0.09599508 0.09588592
 0.09576885 0.09564233 0.09550436 0.09535594 0.0952068 0.09507472 0.09496877 0.09487143 0.09474795 0.09457843
 0.09437779 0.09418094 0.09401195 0.09386834 0.09373239 0.09359294 0.0934542 0.09332715 0.09321837 0.09312829
 0.09305423 0.09299295 0.09294519 0.09292003 0.09292793 0.09296462 0.09300794 0.09303788 0.09305657 0.09308161
 0.09312363 0.09317793 0.09323547 0.09329423 0.09336055 0.0934435 0.0935442 0.09364916 0.09374109 0.09381888
 0.09389951 0.09399894 0.09412035 0.09425948 0.09440774 0.09454968 0.09467233 0.09478226 0.09490184 0.09504479
 0.09520338 0.09536345 0.09552275 0.09568972 0.09587061 0.09606464 0.09627001 0.09648889 0.09672496 0.0969775
 0.09723836 0.09749544 0.09774299 0.09798948 0.09825271 0.09854372 0.09885572 0.09917016 0.09947293 0.09976467
 0.1000564 0.1003557 0.1006606 0.1009673 0.1012813 0.1016123 0.1019597 0.1023099 0.1026504 0.1029815
 0.1033113 0.1036438 0.1039761 0.1043054 0.1046358 0.1049736 0.1053173 0.105654 0.10597 0.1062663
 0.1065585 0.1068634 0.1071861 0.1075161 0.1078341 0.1081252 0.1083935 0.1086607 0.1089435 0.1092355
 0.1095175 0.1097846 0.1100535 0.1103401 0.1106356 0.1109117 0.1111488 0.1113556 0.1115569 0.1117649
 0.111967 0.1121455 0.1123014 0.1124524 0.1126106 0.1127723 0.1129329 0.1131005 0.1132842 0.1134747
 0.1136493 0.1137961 0.1139237 0.1140472 0.1141723 0.114295 0.1144099 0.1145176 0.1146255 0.1147393
 0.1148564 0.1149728 0.1150979 0.115251 0.1154411 0.1156597 0.1158988 0.1161619 0.1164522 0.1167582
 0.1170642 0.1173716 0.1176958 0.1180378 0.118372 0.1186722 0.1189387 0.1191915 0.1194456 0.1197074
 0.1199888 0.1203073 0.1206681 0.1210561 0.1214438 0.1218078 0.1221419 0.1224614 0.1227853 0.1231118
 0.1234164 0.1236781 0.1239004 0.1241056 0.1243143 0.1245311 0.1247421 0.1249254 0.1250636 0.1251467
 0.1251629 0.125096 0.1249389 0.1247017 0.1243982 0.1240251 0.1235644 0.1230015 0.1223318 0.121549
 0.1206391 0.1195947 0.1184385 0.1172348 0.1160805 0.1150795 0.1143156 0.1138404 0.1136779 0.1138265
 0.114244 0.1148326 0.115451 0.1159523 0.1162224 0.116199 0.1158724 0.1152774 0.114479 0.1135547
 0.1125771 0.1116 0.1106571 0.1097779 0.1090163 0.1084636 0.1082341 0.1084372 0.1091595 0.1104428
 0.1122424 0.1143941 0.116647 0.1187621 0.1206033 0.1221556 0.1234778 0.1246458 0.1257202 0.1267351
 0.1276997 0.1286095 0.1294585 0.130241 0.1309459 0.1315531 0.1320387 0.1323834 0.1325832 0.1326591
 0.1326568 0.1326361 0.1326582 0.1327769 0.1330208 0.1333728 0.1337647 0.134104 0.1343137 0.1343649
 0.1342917 0.1341957 0.1342518 0.1347031 0.1357952 0.1376406 0.1401054 0.1428453 0.1454827 0.1477732
 0.1496456 0.151144 0.1523572 0.1533741 0.1542609 0.1550588 0.1557951 0.1564914 0.157163 0.1578175
 0.1584572 0.1590834 0.1597012 0.1603189 0.1609412 0.1615631 0.1621757 0.1627767 0.1633742 0.1639779
 0.1645888 0.1651975 0.1657951 0.1663826 0.1669641 0.167537 0.168093 0.16863 0.1691554 0.1696782
 0.170202 0.170726 0.1712451 0.1717503 0.1722341 0.1726956 0.1731403 0.1735733 0.1739951 0.1744035
 0.1747985 0.1751839 0.1755632 0.1759364 0.1763036 0.1766674 0.1770293 0.1773863 0.1777366 0.1780857
 0.1784426 0.1788101 0.1791838 0.1795596 0.1799384 0.1803237 0.1807173 0.1811182 0.1815225 0.1819239
 0.1823182 0.1827063 0.1830938 0.1834857 0.1838835 0.1842862 0.1846933 0.1851034 0.1855123 0.1859155
 0.186312 0.1867047 0.1870967 0.1874898 0.1878848 0.1882817 0.18868 0.1890793 0.1894817 0.1898902
 0.1903054 0.1907229 0.1911336 0.1915283 0.1919041 0.1922665 0.1926232 0.1929797 0.1933368 0.1936919
 0.1940417 0.1943837 0.1947177 0.1950445 0.1953648 0.1956771 0.1959792 0.1962712 0.196557 0.1968416
 0.1971264 0.1974083 0.1976832 0.19795 0.1982129 0.1984778 0.1987475 0.1990215 0.199301 0.1995883
 0.1998829 0.2001818 0.200485 0.2007955 0.2011143 0.2014402 0.2017728 0.202112 0.2024551 0.2027996
 0.2031462 0.2034975 0.2038565 0.2042241 0.2045992 0.2049802 0.205366 0.2057537 0.2061391 0.2065224
 0.2069079 0.2072975 0.2076894 0.208084 0.2084852 0.2088949 0.209311 0.2097294 0.2101455 0.2105561
 0.2109617 0.2113636 0.2117605 0.2121521 0.212541 0.2129291 0.2133164 0.2137046 0.2140947 0.2144832
 0.214867 0.2152477 0.2156288 0.2160116 0.2163965 0.2167835 0.2171717 0.2175617 0.2179553 0.2183527
 0.2187516 0.2191512 0.2195509 0.2199474 0.2203391 0.2207282 0.2211173 0.2215087 0.2219059 0.2223087
 0.222713 0.223117 0.2235229 0.2239301 0.2243356 0.2247417 0.2251531 0.2255693 0.2259874 0.2264057
 0.2268218 0.2272347 0.2276482 0.2280651 0.2284833 0.2289014 0.2293209 0.2297394 0.2301524 0.2305611
 0.2309692 0.2313766 0.2317831 0.2321897 0.232595 0.2329982 0.233403 0.2338105 0.2342165 0.2346209
 0.2350286 0.2354391 0.2358491 0.2362604 0.2366747 0.2370878 0.2374977 0.2379064 0.238313 0.238717
 0.2391227 0.239529 0.2399295 0.2403293 0.2407423 0.2411694 0.2415993 0.242026 0.2424476 0.2428615
 0.2432699 0.2436776 0.2440811 0.2444765 0.2448712 0.2452691 0.245664 0.2460537 0.2464405 0.2468143
 0.2471488 0.247387 0.2473793 0.2468079 0.245141 0.2416409 0.2355067 0.2261868 0.2137023 0.198753
 0.1825331 0.1663601 0.1513086 0.1380563 0.1269648 0.1182205 0.1119333 0.1082268 0.1073113 0.109581
 0.1157426 0.1263946 0.1404911 0.1540161 0.1614891 0.160115 0.152318 0.1435438 0.1378285 0.135823
 0.136167 0.1375163 0.1393344 0.1417427 0.1450591 0.1493252 0.1542596 0.1597216 0.1659776 0.1732936
 0.1814154 0.1896639 0.1975024 0.2048792 0.2120264 0.219045 0.2257461 0.2318337 0.2371334 0.2416475
 0.2454894 0.2488144 0.2517652 0.2544413 0.25691 0.2592078 0.2612954 0.2630397 0.2642929 0.2650115
 0.2653091 0.2654006 0.2654845 0.2656581 0.2659321 0.2662929 0.2667309 0.2672363 0.2678011 0.2684196
 0.2690756 0.2697453 0.2704132 0.2710707 0.2717068 0.2723134 0.2728907 0.273439 0.2739565 0.274447
 0.2749181 0.2753728 0.2758147 0.2762521 0.2766886 0.2771209 0.277547 0.2779638 0.2783626 0.2787357
 0.2790847 0.2794153 0.2797337 0.2800486 0.2803645 0.2806775 0.2809826 0.2812808 0.2815751 0.2818678
 0.2821614 0.2824544 0.2827397 0.2830144 0.2832824 0.2835473 0.2838098 0.2840728 0.2843389 0.284605
 0.2848675 0.2851276 0.2853863 0.2856416 0.285893 0.2861426 0.286396 0.286662 0.2869459 0.2872402
 0.287531 0.2878146 0.2880975 0.2883846 0.2886752 0.2889683 0.2892625 0.2895566 0.2898535 0.2901549
 0.2904513 0.2907271 0.2909774 0.2912153 0.2914626 0.2917326 0.29202 0.2923096 0.2925947 0.292881
 0.293175 0.2934775 0.2937874 0.294105 0.2944303 0.2947667 0.2951197 0.2954876 0.2958625 0.2962423
 0.2966302 0.297024 0.2974179 0.2978124 0.2982101 0.2986046 0.2989857 0.2993564 0.2997379 0.3001563
 0.3006176 0.3010974 0.3015621 0.3020004 0.3024265 0.302859 0.3033066 0.3037618 0.3041934 0.3045672
 0.3048941 0.3052428 0.3056798 0.3062057 0.3067629 0.3072935 0.3077772 0.3082274 0.3086638 0.3090916
 0.3094992 0.309873 0.3102221 0.3105901 0.3110258 0.311533 0.3120604 0.3125547 0.3130046 0.3134254
 0.3138319 0.3142346 0.3146246 0.3149524 0.3151767 0.3153563 0.3156423 0.3161367 0.3167819 0.3174227
 0.3179605 0.318414 0.3188416 0.319261 0.3196593 0.3200067 0.3202196 0.3202037 0.3200288 0.3199912
 0.3203735 0.3211582 0.3220633 0.3228276 0.3233851 0.3238057 0.324175 0.3245352 0.3248587 0.325056
 0.3250712 0.3250117 0.3251257 0.3255774 0.3262638 0.3269277 0.3274269 0.3278129 0.3281884 0.3285903
 0.3289699 0.3291723 0.3290074 0.3285115 0.3281152 0.3283587 0.3293688 0.3307155 0.3318426 0.3325604
 0.3330361 0.3334027 0.3335586 0.3333499 0.3327582 0.3319026 0.3310913 0.330871 0.3316704 0.3332485
 0.3347918 0.3357281 0.3362195 0.3367518 0.3375057 0.3382785 0.3388157 0.3390394 0.3390141 0.3388005
 0.3384221 0.3380248 0.3379812 0.3386296 0.3398787 0.3412251 0.3422259 0.3428482 0.3432694 0.3433649
 0.3425721 0.3405583 0.3381001 0.336891 0.3380366 0.34089 0.3437535 0.3455572 0.3464423 0.3469683
 0.3473846 0.3475613 0.3469713 0.3448634 0.3412852 0.3379773 0.3373158 0.3399708 0.344157 0.3473633
 0.3482696 0.3470168 0.3445729 0.3422871 0.34141 0.3424108 0.3447788 0.3475454 0.3498686 0.3512603
 0.3516147 0.3511596 0.3503621 0.3498043 0.3498176 0.3499839 0.3493946 0.3478333 0.3461975 0.3451189
 0.3438056 0.341338 0.3387165 0.3382353 0.3406422 0.344058 0.3461547 0.3465351 0.3463126 0.3458679
 0.3439319 0.339264 0.3329598 0.3284156 0.32842 0.3323729 0.3368808 0.3390871 0.3389262 0.3381584
 0.3378875 0.3373898 0.3351903 0.3311441 0.3272431 0.3258313 0.3269777 0.3283753 0.3278971 0.325106
 0.3201457 0.3131767 0.3060979 0.3029123 0.3061879 0.3138404 0.320968 0.3240796 0.3221882 0.3153458
 0.3049628 0.2952758 0.2914465 0.2948098 0.301315 0.305436 0.3045245 0.2989377 0.2897778 0.278364
 0.2673484 0.2603951 0.259824 0.2647429 0.2713101 0.2744854 0.2706122 0.2603039 0.2490611 0.2431446
 0.2437662 0.2463557 0.2459497 0.241835 0.2365182 0.2322421 0.2297162 0.2286247 0.2280152 0.22702
 0.2255411 0.2231069 0.2176335 0.2078122 0.1967685 0.1904225 0.1913535 0.1966865 0.2026455 0.2082825
 0.213444 0.2161241 0.2146269 0.2110201 0.2098174 0.2131738 0.2188372 0.2230088 0.2241891 0.2237662
 0.2234698 0.2232592 0.2222244 0.2208953 0.2212943 0.2243543 0.2284352 0.2311493 0.2318443 0.2315488
 0.2312275 0.2309943 0.2306019 0.2298668 0.2286828 0.2270644 0.2251455 0.2229933 0.220599 0.2181167
 0.2157624 0.2132579 0.2098309 0.2054479 0.2018594 0.2013786 0.2043531 0.2088853 0.2132872 0.2171412
 0.2192117 0.2166708 0.2087275 0.1998089 0.1965304 0.2013681 0.2107289 0.2190181 0.2230653 0.2225138
 0.2179491 0.2106707 0.2041151 0.2032519 0.2107646 0.2242613 0.2384042 0.2493795 0.2563533 0.2595067
 0.2586858 0.2544435 0.2491781 0.2462332 0.2477692 0.253509 0.2610766 0.2670478 0.2684141 0.265067
 0.2615776 0.2643307 0.2749056 0.2876861 0.2959604 0.2989748 0.3008302 0.3040664 0.307497 0.3098588
 0.3123392 0.3164949 0.3215852 0.3251343 0.3251053 0.3207578 0.3126544 0.3032576 0.2965482 0.294997
 0.2970164 0.2989091 0.2986977 0.2962397 0.2909724 0.2829516 0.2757668 0.2746305 0.2805263 0.2888212
 0.2945569 0.2970375 0.2984037 0.2995706 0.2990817 0.2955684 0.2903086 0.2866257 0.2865956 0.2890029
 0.2910415 0.2911802 0.2894092 0.2856159 0.2795254 0.2723233 0.2667786 0.264868 0.265796 0.2669407
 0.2664636 0.2645697 0.2625822 0.2615305 0.2616484 0.2625899 0.2639334 0.2658276 0.2690562 0.2739769
 0.2795845 0.284337 0.2879025 0.2914218 0.2959301 0.3010631 0.3055018 0.3083327 0.3097992 0.3109505
 0.3127017 0.3150889 0.3172588 0.3182285 0.3178332 0.3169643 0.3167531 0.3175208 0.318683 0.3196223
 0.3203657 0.3213928 0.3230899 0.3254575 0.3280835 0.330357 0.3319693 0.333255 0.3348078 0.3367362
 0.3385356 0.3397319 0.3404093 0.3409901 0.3416696 0.3422313 0.3423683 0.3420573 0.3415925 0.3413271
 0.3414235 0.3418046 0.3422689 0.3426321 0.3428154 0.3428609 0.3428807 0.3429941 0.3433144 0.3439593
 0.3450031 0.3463855 0.3479064 0.3493515 0.3506041 0.3516296 0.3524008 0.3528801 0.3530427 0.3528739
 0.3523499 0.3514446 0.3501398 0.3484009 0.3461737 0.3434931 0.3406727 0.3383577 0.3372609 0.3377205
 0.3394638 0.3418018 0.3440641 0.3459068 0.347319 0.3484428 0.3494069 0.3502707 0.3510491 0.351748
 0.3523821 0.3529769 0.3535545 0.354115 0.3546334 0.3550828 0.3554568 0.3557663 0.35602 0.3562082
 0.3563036 0.3562777 0.3561182 0.3558297 0.3554216 0.3548909 0.3542151 0.3533639 0.3523303 0.351157
 0.3499255 0.3487097 0.3475318 0.3463613 0.345158 0.3438999 0.3425487 0.3410132 0.3392161 0.3372219
 0.3352346 0.3334166 0.3317372 0.3300339 0.3281778 0.3261313 0.3238847 0.3214103 0.318682 0.3156971
 0.312468 0.3090084 0.3053376 0.3014938 0.2975466 0.2935908 0.2897143 0.2859676 0.2823624 0.2788829
 0.275476 0.2720298 0.2683778 0.2643403 0.2597705 0.2545794 0.2487452 0.2423262 0.2354666 0.2283764
 0.2212949 0.2144597 0.2080953 0.2024044 0.1975522 0.1936535 0.1907696 0.188919 0.1880933 0.1882667
 0.1893954 0.1914138 0.1942296 0.197719 0.2017222 0.2060505 0.2105034 0.2148976 0.2191098 0.2231136
 0.2269629 0.2307169 0.2343744 0.237883 0.241197 0.2443078 0.2472192 0.249919 0.2523862 0.2546216
 0.2566578 0.2585339 0.2602643 0.26183 0.2631914 0.2643099 0.2651655 0.265771 0.2661761 0.266459
 0.2667048 0.2669854 0.2673535 0.2678522 0.2685204 0.2693878 0.2704699 0.2717685 0.2732664 0.2749228
 0.2766848 0.2785127 0.2803974 0.2823575 0.284422 0.2866085 0.2889084 0.291283 0.293665 0.2959621
 0.2980722 0.2999136 0.3014509 0.3026915 0.3036599 0.304372 0.3048337 0.3050553 0.3050605 0.3048818
 0.304553 0.3041065 0.3035661 0.3029349 0.3021935 0.3013168 0.3002943 0.2991374 0.2978616 0.2964596
 0.2948948 0.2931329 0.2911818 0.2891088 0.2870262 0.2850617 0.2833288 0.2819066 0.2808283 0.2800711
 0.2795568 0.2791784 0.2788315 0.2784232 0.2778684 0.2771013 0.2760915 0.2748413 0.2733696 0.271699
 0.2698517 0.2678502 0.265723 0.263507 0.2612412 0.2589573 0.2566619 0.2543268 0.2519197 0.2494596
 0.2470245 0.2446941 0.2424966 0.2404114 0.2384011 0.2364394 0.2345218 0.2326567 0.2308505 0.2291073
 0.2274389 0.2258606 0.2243818 0.2230079 0.2217422 0.2205826 0.2195254 0.2185683 0.2176982 0.2168867
 0.2161083 0.2153589 0.2146601 0.2140534 0.2135733 0.2131989 0.212837 0.2123718 0.2117347 0.2109398
 0.210081 0.2093005 0.2087398 0.2084924 0.2085603 0.2088166 0.2090271 0.2089507 0.2084389 0.2074515
 0.2060145 0.2041878 0.2020564 0.1997409 0.1974092 0.195244 0.1933746 0.1918477 0.1906493 0.1897221
 0.1889777 0.1883487 0.1878439 0.1875404 0.1875193 0.187777 0.188163 0.1884481 0.1885205 0.1885024
 0.1886367 0.1890818 0.1898191 0.1906991 0.1915412 0.1922212 0.1926916 0.1929404 0.1929767 0.1928573
 0.192676 0.1925097 0.1923874 0.1922849 0.1921302 0.1918488 0.191413 0.1908241 0.1900738 0.1891574
 0.1880909 0.1868907 0.1855721 0.1841599 0.1826518 0.181015 0.1792997 0.1777321 0.1766309 0.1762246
 0.1765248 0.1773213 0.1783245 0.17935 0.1803328 0.181183 0.1817835 0.1822012 0.1827818 0.1839183
 0.1857118 0.1878614 0.1898777 0.1914011 0.1923172 0.1926432 0.1924311 0.1917664 0.1907208 0.1893038
 0.1875436 0.1855431 0.1833888 0.1811255 0.1788554 0.1767211 0.1748028 0.1731333 0.1717232 0.1705688
 0.1697373 0.1689675 0.1666957 0.1606085 0.1509674 0.1427515 0.1419023 0.1489163 0.1581272 0.1637644
 0.1648356 0.1637551 0.1625416 0.1616406 0.1609739 0.1605964 0.160548 0.1607212 0.160903 0.1608723
 0.1605371 0.1599126 0.1588666 0.1568965 0.1531305 0.1466361 0.1371025 0.1254836 0.1138052 0.1040969
 0.09739105 0.09349926 0.09143879 0.09011944 0.08897288 0.08814952 0.08815213 0.08931445 0.09161751 0.09484943
 0.09875685 0.103002 0.1071069 0.1106126 0.1133297 0.1153483 0.1168055 0.1177432 0.1181785 0.1181759
 0.1178187 0.1171806 0.1163284 0.1152938 0.114052 0.1125785 0.1109448 0.1093534 0.108055 0.1071885
 0.1066981 0.1064246 0.1062517 0.1061379 0.106064 0.1060118 0.1059725 0.1059475 0.1059533 0.1060184
 0.1061463 0.1062955 0.1064224 0.1065257 0.1066339 0.1067583 0.106859 0.1068669 0.1067721 0.1066523
 0.1065338 0.1062563 0.1055971 0.1045573 0.1034567 0.1027229 0.1026 0.1030121 0.1036471 0.1041832
 0.1044885 0.1046347 0.1047374 0.1047877</values></Ydata></ScSm><ScRf><Ydata ylabel="Single channel"><values byteorder="INTEL" format="FLOAT32" numvalues="1820"> 0.06971624 0.06984317 0.06995642 0.07005841 0.07015492 0.07025383 0.07036349 0.0704882 0.07062421 0.07075992
 0.07088286 0.07098982 0.07108641 0.07117507 0.07125399 0.07133112 0.07142659 0.07155228 0.07169558 0.07182819
 0.07192862 0.07200157 0.07207836 0.07218762 0.07231726 0.07241488 0.07243598 0.07239114 0.07234 0.07233739
 0.0723968 0.07251883 0.07272519 0.07300509 0.07324043 0.07328264 0.0731395 0.07300002 0.07302584 0.07318944
 0.07335196 0.07341585 0.07336361 0.07324556 0.0731978 0.07339808 0.07390539 0.07453087 0.07489648 0.07465155
 0.0737048 0.07235263 0.07120988 0.07088806 0.07155359 0.07274391 0.0737156 0.07404549 0.07385979 0.07351391
 0.07322027 0.07304473 0.07307503 0.07340745 0.07399097 0.0745619 0.07474704 0.07431143 0.0734241 0.07262533
 0.07238434 0.07273623 0.07344966 0.07430662 0.07489072 0.07437906 0.07227357 0.0695045 0.06813625 0.06945822
 0.07263395 0.07557021 0.07682212 0.07635538 0.07493699 0.07346069 0.07271196 0.07309985 0.07438988 0.07593723
 0.07719883 0.07787637 0.07777919 0.07691438 0.07566821 0.07464321 0.07432248 0.07492742 0.0763267 0.07790267
 0.0788004 0.07860101 0.07763531 0.07655779 0.0758656 0.07587565 0.07675157 0.07830817 0.08002804 0.08144295
 0.08237655 0.08284247 0.08293091 0.08279053 0.08255506 0.08232318 0.08225714 0.0824994 0.08288909 0.0829965
 0.08260079 0.08199111 0.08167566 0.08185862 0.08226527 0.08247339 0.08233205 0.08188545 0.08094466 0.07917701
 0.07678975 0.07464173 0.07340515 0.07309321 0.07360294 0.07499839 0.07685123 0.07804418 0.07789683 0.07708589
 0.07691379 0.07790063 0.07945982 0.08074781 0.08148149 0.0819812 0.08267228 0.08360544 0.08434023 0.08427435
 0.08326145 0.08199006 0.08152573 0.08228028 0.08360858 0.08459593 0.08501635 0.08530223 0.08578482 0.08621559
 0.08598471 0.08477705 0.08311885 0.08218884 0.08284371 0.08477035 0.08665414 0.08717224 0.08593132 0.08367927
 0.08168115 0.08081152 0.08121455 0.0826664 0.08488722 0.08740367 0.08947427 0.09046561 0.09028987 0.08938818
 0.08824926 0.08695316 0.08534648 0.0837549 0.08316948 0.08431919 0.08673494 0.08912478 0.09056653 0.0910164
 0.09078149 0.08989763 0.08821788 0.08606149 0.08449757 0.08454911 0.08602497 0.08757557 0.08812708 0.0878847
 0.08771096 0.08795254 0.08825646 0.0882932 0.08825022 0.0885667 0.08937238 0.0903196 0.0909483 0.09110682
 0.09098519 0.09084623 0.09077564 0.09063251 0.09026818 0.08986159 0.08990323 0.09067889 0.09188513 0.09293278
 0.09352586 0.09378083 0.09387131 0.09373672 0.09318839 0.09228013 0.0914917 0.09138854 0.0920693 0.09308879
 0.09393146 0.09439801 0.09455322 0.09452604 0.09442297 0.09430386 0.09419861 0.09417871 0.09434397 0.0946867
 0.09505402 0.09529956 0.09540349 0.09541473 0.09535214 0.09520888 0.0950167 0.0948658 0.0948478 0.0949817
 0.09520893 0.09545389 0.0956596 0.09577708 0.09577835 0.09569313 0.09559122 0.09551945 0.09548471 0.09549269
 0.09556213 0.09569165 0.09583978 0.09595588 0.09602076 0.09604676 0.09604724 0.09602365 0.09598158 0.09594398
 0.09594311 0.09599908 0.09609981 0.09620763 0.09630187 0.09640399 0.09653403 0.09665719 0.09671307 0.09669265
 0.09665109 0.0966469 0.09669513 0.09677479 0.09685521 0.09690756 0.09690779 0.09685153 0.09677657 0.09675436
 0.09683718 0.09701948 0.09725806 0.09750856 0.09773077 0.09789239 0.09799401 0.09807086 0.09815194 0.0982329
 0.09829686 0.09834822 0.09841944 0.09854622 0.09873189 0.09893916 0.09912314 0.09926507 0.09937255 0.0994692
 0.09958822 0.09974338 0.09989735 0.0999925 0.100026 0.1000619 0.100155 0.1002878 0.1003986 0.1004533
 0.100476 0.1005158 0.100597 0.100705 0.1008134 0.1009144 0.1010233 0.1011519 0.1012792 0.1013561
 0.1013529 0.1012979 0.1012515 0.1012447 0.101266 0.1013025 0.1013623 0.1014486 0.1015347 0.1015842
 0.1015892 0.1015765 0.1015767 0.1015917 0.1015973 0.1015731 0.1015225 0.1014671 0.1014281 0.1014125
 0.1014094 0.1013974 0.1013612 0.1013016 0.10123 0.1011557 0.10108 0.1010056 0.1009521 0.100948
 0.1009915 0.1010259 0.100975 0.1008141 0.1005969 0.100405 0.1002791 0.1001988 0.1001161 0.09999952
 0.09985186 0.09969695 0.09955545 0.09943198 0.09931894 0.09920927 0.09910842 0.0990352 0.09900192 0.09898864
 0.09894817 0.09884988 0.09871224 0.09858201 0.09848834 0.09842774 0.09838326 0.09834258 0.09830409 0.0982779
 0.09827455 0.09828601 0.09828785 0.09826794 0.09824224 0.09823875 0.09827695 0.09836081 0.09847252 0.09857249
 0.09862754 0.09864721 0.0986765 0.0987483 0.09885541 0.0989723 0.09908792 0.09920898 0.09934306 0.09949142
 0.09965526 0.0998396 0.1000479 0.1002753 0.1005083 0.1007322 0.1009432 0.1011529 0.1013799 0.1016338
 0.101908 0.1021869 0.1024596 0.1027265 0.1029953 0.1032697 0.1035466 0.103824 0.10411 0.1044153
 0.1047393 0.1050689 0.1053922 0.1057074 0.1060197 0.1063351 0.1066571 0.1069878 0.1073324 0.1076964
 0.1080717 0.1084304 0.1087458 0.1090216 0.1092915 0.1095884 0.10992 0.1102676 0.1106 0.1108944
 0.1111565 0.1114183 0.1117054 0.1120104 0.112311 0.1126093 0.112935 0.1133045 0.1136872 0.1140247
 0.1142854 0.1144954 0.1147101 0.1149578 0.1152174 0.1154541 0.1156641 0.1158734 0.1160999 0.1163373
 0.1165773 0.1168292 0.1171017 0.1173799 0.1176366 0.1178616 0.1180663 0.1182618 0.1184433 0.1185968
 0.1187142 0.1188062 0.1189013 0.1190242 0.1191705 0.1193154 0.1194474 0.1195823 0.1197395 0.1199216
 0.120125 0.1203534 0.1206069 0.1208676 0.1211156 0.1213595 0.1216297 0.1219333 0.1222311 0.1224779
 0.1226738 0.1228553 0.1230487 0.123255 0.1234768 0.1237299 0.12402 0.1243275 0.124623 0.1248931
 0.1251515 0.1254269 0.1257339 0.1260507 0.1263326 0.1265547 0.1267365 0.1269215 0.1271413 0.1273991
 0.1276782 0.1279582 0.1282257 0.1284709 0.1286772 0.1288269 0.1289222 0.128989 0.1290477 0.1290841
 0.1290586 0.1289398 0.1287175 0.1283867 0.1279359 0.1273593 0.1266803 0.1259631 0.1253017 0.1247914
 0.1245009 0.1244627 0.1246766 0.1251111 0.1256985 0.1263406 0.1269345 0.1273938 0.1276534 0.1276699
 0.1274321 0.1269679 0.1263322 0.1255851 0.1247805 0.1239609 0.1231602 0.1224182 0.1218085 0.1214469
 0.1214634 0.1219529 0.1229372 0.1243454 0.1260154 0.1277347 0.1293201 0.1306832 0.1318334 0.1328259
 0.133714 0.134534 0.1353091 0.1360489 0.1367502 0.1374073 0.1380237 0.138606 0.1391509 0.139642
 0.1400601 0.1403922 0.1406344 0.1407954 0.1408943 0.1409497 0.1409729 0.1409734 0.1409592 0.1409208
 0.1408197 0.1406045 0.1402457 0.1397601 0.1392175 0.1387417 0.1384996 0.138662 0.1393311 0.1404747
 0.1419276 0.1434719 0.1449288 0.1461952 0.1472306 0.1480413 0.1486733 0.1491896 0.1496399 0.1500502
 0.1504337 0.1507989 0.1511506 0.1514912 0.1518235 0.1521523 0.1524846 0.1528267 0.1531776 0.1535266
 0.1538627 0.1541868 0.1545128 0.154855 0.1552134 0.1555726 0.1559191 0.1562564 0.1565962 0.1569388
 0.1572714 0.1575871 0.1578963 0.1582151 0.1585514 0.1589003 0.1592472 0.1595757 0.1598795 0.1601679
 0.1604548 0.1607443 0.1610306 0.1613102 0.1615868 0.161865 0.1621448 0.1624241 0.1627036 0.1629853
 0.1632654 0.163535 0.1637892 0.1640343 0.1642819 0.1645375 0.1647958 0.1650496 0.1652986 0.1655503
 0.1658127 0.1660858 0.1663599 0.1666244 0.1668757 0.1671186 0.1673602 0.1676048 0.1678539 0.1681059
 0.1683567 0.1686029 0.1688458 0.1690918 0.1693451 0.1696031 0.1698585 0.1701064 0.1703485 0.1705908
 0.1708372 0.1710863 0.1713344 0.1715812 0.1718305 0.1720843 0.1723385 0.1725859 0.1728219 0.1730472
 0.1732668 0.173488 0.1737158 0.173951 0.1741914 0.1744356 0.1746816 0.1749255 0.175165 0.1754021
 0.1756414 0.175885 0.1761313 0.1763774 0.1766201 0.1768587 0.177095 0.1773317 0.1775695 0.177807
 0.1780421 0.1782742 0.1785068 0.1787437 0.178985 0.1792281 0.1794706 0.1797105 0.1799446 0.1801724
 0.1803976 0.1806244 0.1808538 0.1810851 0.1813184 0.1815538 0.1817918 0.1820322 0.1822723 0.1825097
 0.1827449 0.1829794 0.183212 0.1834414 0.1836702 0.1839027 0.1841397 0.1843785 0.1846156 0.1848502
 0.1850842 0.1853197 0.1855573 0.1857972 0.1860409 0.1862868 0.1865284 0.1867625 0.1869939 0.18723
 0.1874733 0.1877221 0.1879728 0.1882205 0.1884635 0.1887038 0.1889454 0.1891916 0.1894455 0.1897064
 0.1899683 0.1902259 0.1904792 0.1907315 0.1909839 0.1912358 0.1914857 0.1917325 0.1919759 0.1922137
 0.1924412 0.1926594 0.1928763 0.1930974 0.1933198 0.1935408 0.193763 0.1939884 0.1942174 0.1944531
 0.1946985 0.1949508 0.1952048 0.195457 0.1957036 0.1959435 0.1961827 0.1964286 0.1966821 0.1969408
 0.197203 0.1974649 0.1977237 0.1979818 0.1982426 0.1985043 0.1987639 0.1990216 0.1992786 0.1995365
 0.1997988 0.2000655 0.200332 0.2005985 0.2008684 0.2011403 0.2014096 0.2016767 0.2019426 0.2022067
 0.202472 0.202743 0.2030161 0.203286 0.2035542 0.2038226 0.2040869 0.2043485 0.204616 0.2048926
 0.2051745 0.2054575 0.2057373 0.20601 0.206279 0.2065488 0.2068151 0.2070754 0.207339 0.2076114
 0.2078855 0.2081549 0.2084172 0.2086632 0.2088758 0.2090126 0.2089479 0.2084108 0.20695 0.2039399
 0.1986983 0.1907559 0.1801373 0.1674454 0.1536951 0.1399965 0.1272526 0.116034 0.1066451 0.09924227
 0.09391755 0.09077404 0.08998622 0.09188288 0.09705745 0.1060136 0.1178692 0.1292417 0.1355181 0.1343474
 0.1277708 0.1203696 0.1155386 0.1138254 0.114087 0.1151928 0.1166933 0.1186942 0.1214671 0.1250471
 0.1291932 0.1337809 0.1390307 0.1451668 0.1519767 0.1588887 0.1654498 0.1716174 0.1775915 0.1834615
 0.1890693 0.1941624 0.198589 0.2023476 0.2055359 0.208293 0.2107466 0.2129804 0.2150435 0.2169575
 0.2186855 0.2201186 0.2211383 0.221711 0.2219305 0.2219745 0.2220086 0.2221172 0.2223142 0.2225921
 0.2229433 0.223355 0.2238141 0.2243117 0.2248353 0.2253696 0.2259056 0.2264373 0.2269544 0.22745
 0.2279254 0.2283802 0.2288092 0.229213 0.2295983 0.2299708 0.2303351 0.2306952 0.2310498 0.2313947
 0.2317318 0.2320659 0.2323951 0.2327128 0.2330157 0.2333022 0.233573 0.2338336 0.2340904 0.234346
 0.2346003 0.2348533 0.2351036 0.2353506 0.2355963 0.2358407 0.2360808 0.2363171 0.2365542 0.2367928
 0.2370297 0.2372651 0.2375015 0.2377389 0.2379771 0.238218 0.2384614 0.2387031 0.2389407 0.2391756
 0.2394127 0.239659 0.2399194 0.2401904 0.2404636 0.2407345 0.2410029 0.2412679 0.24153 0.2417945
 0.2420674 0.2423497 0.2426376 0.2429218 0.2431893 0.2434321 0.2436547 0.2438703 0.2440919 0.2443254
 0.2445665 0.2448076 0.2450483 0.2452939 0.2455454 0.2457965 0.2460412 0.246279 0.2465145 0.2467594
 0.2470259 0.2473139 0.24761 0.2479029 0.2481914 0.2484786 0.2487661 0.2490545 0.2493406 0.2496166
 0.2498792 0.2501394 0.2504175 0.2507299 0.2510738 0.2514264 0.2517627 0.2520765 0.2523802 0.2526889
 0.2530106 0.2533399 0.253651 0.2539163 0.254146 0.254395 0.254712 0.2550906 0.2554833 0.2558511
 0.2561886 0.2565093 0.2568226 0.2571262 0.2574107 0.2576684 0.2579085 0.2581674 0.2584868 0.2588698
 0.2592701 0.2596384 0.2599621 0.260254 0.2605296 0.2608036 0.2610732 0.2612976 0.2614389 0.2615433
 0.2617367 0.2621043 0.2625968 0.2630818 0.2634758 0.2637964 0.264098 0.264403 0.2647047 0.2649743
 0.2651334 0.2650963 0.2649216 0.2648604 0.265151 0.2657795 0.2665116 0.2671309 0.2675824 0.267923
 0.2682206 0.2685063 0.2687559 0.2688983 0.2688907 0.2688214 0.2688938 0.2692447 0.2697923 0.2703249
 0.2707216 0.2710207 0.2713039 0.2716025 0.2718811 0.2720173 0.2718535 0.2714142 0.2710518 0.2712158
 0.2720157 0.2730947 0.2739881 0.2745367 0.2748836 0.2751457 0.2752426 0.2750446 0.2745318 0.2737985
 0.273098 0.2728828 0.2735076 0.274774 0.276015 0.2767663 0.2771641 0.2776021 0.2782188 0.2788429
 0.2792687 0.279439 0.2794101 0.2792293 0.2789121 0.27858 0.2785424 0.2790763 0.2801016 0.2812021
 0.2820153 0.2825176 0.2828569 0.2829313 0.2822782 0.2806233 0.2786048 0.2776156 0.2785668 0.2809283
 0.283302 0.2848036 0.2855487 0.2860005 0.2863658 0.2865342 0.286067 0.2843423 0.281402 0.2786893
 0.278171 0.2803992 0.2838939 0.2865774 0.2873586 0.2863535 0.284362 0.2825009 0.2818081 0.2826787
 0.2846963 0.2870555 0.2890463 0.2902556 0.2905971 0.2902661 0.2896549 0.2892497 0.2893257 0.289534
 0.2891207 0.2879074 0.2866381 0.2858361 0.2848447 0.282901 0.2808363 0.2805621 0.2827039 0.285694
 0.2875891 0.2880623 0.2880497 0.2878671 0.2864461 0.2827417 0.2776636 0.2740519 0.2742451 0.2777449
 0.2817082 0.283743 0.283803 0.2833725 0.2833817 0.2832239 0.2816584 0.2785644 0.2756294 0.2748403
 0.2762548 0.2779152 0.2780171 0.2761797 0.2725002 0.2670947 0.2615844 0.2594088 0.262791 0.2699704
 0.2767545 0.280136 0.2792375 0.2740717 0.2658517 0.2582879 0.2559173 0.2599199 0.2667385 0.2715201
 0.27194 0.2683011 0.2615569 0.2528969 0.24477 0.2405776 0.2425053 0.2497603 0.2587247 0.2645212
 0.2635021 0.2561727 0.247919 0.2449571 0.2484861 0.2538919 0.2561693 0.254632 0.251871 0.2502283
 0.2505044 0.2523955 0.2548357 0.2568386 0.2582547 0.2583725 0.2545255 0.2450442 0.2336461 0.2274551
 0.2296537 0.2369297 0.2448855 0.2524618 0.2594581 0.2633555 0.2620021 0.2578676 0.2564586 0.260437
 0.2670852 0.2717763 0.2726722 0.2714697 0.2703274 0.2692986 0.2673978 0.2653702 0.265732 0.2696317
 0.2750466 0.2789768 0.2804576 0.2805612 0.2803758 0.2800891 0.279546 0.278705 0.2776044 0.276381
 0.2752559 0.2742925 0.2733483 0.2723559 0.2712561 0.2693894 0.265544 0.259531 0.2535335 0.2505997
 0.2514405 0.2539861 0.2563686 0.2582754 0.2584482 0.253658 0.242921 0.2312769 0.22632 0.2308575
 0.2406758 0.2492723 0.2529943 0.2514919 0.2455232 0.2366022 0.2285362 0.2267587 0.2341417 0.2479923
 0.2624788 0.2735676 0.280553 0.2837833 0.2831058 0.2790253 0.2740035 0.271485 0.2735291 0.2794574
 0.2863709 0.2904965 0.2888279 0.2816046 0.2739541 0.2727879 0.2799445 0.2897463 0.2952703 0.2955982
 0.2947816 0.2954089 0.2963966 0.2965633 0.2971165 0.299635 0.3034866 0.3063594 0.306334 0.3026912
 0.2958968 0.2881527 0.2830439 0.2827014 0.2854463 0.2877135 0.2877089 0.2854381 0.280464 0.2728788
 0.2661039 0.265053 0.2705438 0.2780552 0.2828842 0.284527 0.2852049 0.2858718 0.2850892 0.2814251
 0.2759907 0.2719566 0.2714486 0.2735478 0.2758071 0.2769005 0.2768292 0.2753967 0.2722228 0.2683863
 0.266567 0.2686633 0.2737591 0.2790126 0.2822646 0.2833541 0.2832974 0.2829806 0.2826841 0.2822395
 0.2814647 0.2807724 0.2812007 0.2833057 0.2861957 0.2883485 0.2893725 0.2903255 0.292224 0.2948
 0.2969097 0.2978 0.2977691 0.2977888 0.2986306 0.3002323 0.3017587 0.3023377 0.301919 0.3014345
 0.3019612 0.3036937 0.3058664 0.3076298 0.3087602 0.3095428 0.3102946 0.3110945 0.3117442 0.3119331
 0.3116503 0.3114408 0.3119997 0.3134485 0.3151918 0.3165243 0.3172129 0.3174564 0.3174795 0.3173157
 0.3169233 0.3163711 0.3158509 0.3155295 0.31543 0.3154581 0.3155085 0.3155286 0.3155173 0.3155073
 0.3155443 0.3156533 0.3158244 0.3160371 0.3162717 0.3164917 0.3166516 0.3167453 0.3168153 0.3168896
 0.3169323 0.3168711 0.3166463 0.3162136 0.3155285 0.3145528 0.3132651 0.3116413 0.3096532 0.3073624
 0.3050837 0.3034217 0.3030229 0.3041632 0.3065251 0.3093775 0.3119944 0.3139716 0.3152596 0.3160048
 0.3163856 0.316537 0.3165424 0.316445 0.3162633 0.3160099 0.3156998 0.3153499 0.3149804 0.3146183
 0.3142901 0.3140057 0.3137488 0.3134829 0.3131687 0.3127812 0.3123163 0.3117826 0.3111891 0.3105341
 0.3097996 0.3089611 0.3080153 0.3070005 0.3059846 0.3050269 0.3041416 0.3032933 0.3024266 0.3014957
 0.3004545 0.2992441 0.2978503 0.2963928 0.2950944 0.2941025 0.2933556 0.2926531 0.29183 0.2908388
 0.2897061 0.2884743 0.2871843 0.2858666 0.2845287 0.2831539 0.2817148 0.2801864 0.2785569 0.2768321
 0.2750271 0.2731561 0.2712342 0.2692776 0.2672774 0.2651664 0.2628159 0.2600695 0.2567872 0.2528747
 0.2483046 0.2431361 0.2375225 0.2316872 0.2258685 0.2202699 0.215045 0.2103166 0.2061986 0.2027959
 0.2001881 0.1984176 0.1974961 0.1974214 0.1981818 0.1997449 0.2020395 0.2049467 0.208307 0.2119375
 0.2156456 0.2192438 0.2225906 0.225642 0.2284514 0.2310911 0.2335723 0.2358478 0.2378753 0.239652
 0.2411915 0.2424942 0.2435558 0.2443973 0.2450739 0.245649 0.2461598 0.2466062 0.2469707 0.2472472
 0.2474521 0.2476165 0.2477712 0.2479383 0.2481288 0.248346 0.2485949 0.2488911 0.2492584 0.2497141
 0.2502589 0.2508784 0.2515523 0.2522649 0.253013 0.2538092 0.2546798 0.2556632 0.2568014 0.2581192
 0.2596066 0.2612188 0.2628837 0.2645065 0.2659836 0.2672284 0.2681937 0.2688702 0.2692719 0.2694228
 0.2693521 0.2690946 0.2686858 0.2681534 0.2675156 0.26679 0.265999 0.2651616 0.2642825 0.2633547
 0.2623773 0.2613709 0.2603683 0.2593912 0.2584408 0.2575131 0.2566098 0.2557321 0.254876 0.25404
 0.2532305 0.252457 0.2517282 0.2510439 0.2503871 0.249727 0.2490309 0.2482644 0.2473873 0.2463655
 0.2451863 0.2438557 0.2423826 0.2407759 0.2390489 0.2372193 0.2353009 0.2333001 0.2312187 0.2290595
 0.2268209 0.2244932 0.2220826 0.2196454 0.2172795 0.2150699 0.213048 0.2111978 0.209481 0.207859
 0.2063088 0.2048227 0.2033966 0.2020267 0.2007154 0.1994681 0.1982863 0.1971723 0.1961333 0.1951809
 0.1943306 0.1935969 0.1929795 0.19246 0.1920172 0.1916389 0.1913301 0.191123 0.1910592 0.1911363
 0.1912803 0.1913891 0.1913992 0.191317 0.1912016 0.1911179 0.1910928 0.1911137 0.1911508 0.1911546
 0.1910407 0.1907101 0.1900789 0.1890808 0.1876738 0.1858734 0.1837692 0.1815063 0.1792573 0.1771874
 0.175412 0.1739807 0.1728911 0.1720918 0.1714916 0.1710128 0.1706479 0.1704589 0.1705224 0.1708451
 0.1712971 0.1716664 0.1718461 0.171953 0.1722239 0.172814 0.1737063 0.1747573 0.1757983 0.1767159
 0.1774667 0.1780407 0.1784475 0.1787245 0.1789079 0.178997 0.1789718 0.1788251 0.17856 0.1781885
 0.1777371 0.1772174 0.1766072 0.1758888 0.175074 0.1741731 0.1731804 0.1720885 0.1708719 0.1694955
 0.1680154 0.1666499 0.1656951 0.1653671 0.1656966 0.1665195 0.16759 0.1687433 0.1699111 0.1709962
 0.1718749 0.1725923 0.173452 0.1748129 0.1767862 0.1791206 0.1813728 0.1831907 0.1844337 0.185086
 0.1851766 0.1847758 0.1839387 0.1826544 0.1809359 0.1788978 0.176678 0.1743909 0.1721822 0.1701906
 0.1684673 0.1670287 0.165893 0.1650676 0.1646089 0.1642289 0.162351 0.1566655 0.1473981 0.1394243
 0.1385936 0.1454321 0.1544131 0.1598887 0.1608891 0.1597858 0.1585578 0.157636 0.1569424 0.1565398
 0.1564769 0.156651 0.1568523 0.1568643 0.1565978 0.1560668 0.1551347 0.1532887 0.1496421 0.1432541
 0.1338224 0.1223179 0.1107732 0.101206 0.09462716 0.09083515 0.08885181 0.08760139 0.08652465 0.08577082
 0.08583823 0.08706016 0.08942052 0.09270819 0.09666738 0.1009618 0.1051239 0.1087055 0.1115135 0.1136206
 0.1151505 0.1161471 0.1166403 0.1167075 0.1164384 0.1159039 0.1151608 0.1142303 0.1130837 0.1116998
 0.110156 0.1086589 0.1074589 0.1066913 0.1062969 0.1061149 0.10603 0.1060062 0.1060376 0.106123
 0.1062643 0.1064588 0.1067093 0.1070299 0.1074059 0.1077708 0.1080552 0.1082414 0.1083498 0.1083857
 0.1083081 0.1080638 0.1076756 0.1072576 0.1068628 0.106341 0.1054662 0.1042318 0.102953 0.102055
 0.1017814 0.1020604 0.1025887 0.1030478 0.1032927 0.1033715 0.1033871 0.1033486 0.1031487 0.1026872
</values></Ydata></ScRf><Data_Parameters_AB><parameter name="DPF">1</parameter><parameter name="NPT">3497</parameter><parameter name="FXV">3996</parameter><parameter name="LXV">500</parameter><parameter name="CSF">1</parameter><parameter name="MXY">0.102241076529026</parameter><parameter name="MNY">-0.0840755552053452</parameter><parameter name="DAT">17/01/2024</parameter><parameter name="TIM">13:28:11.969 (GMT+1)</parameter><parameter name="DXU">WN</parameter></Data_Parameters_AB><AB__Qtest><MainReport name="Quality Test Report"><Header><Line><Legend>Test result ok/not ok [1/0]: </Legend><Value>0</Value></Line><Line><Legend>Method file: </Legend><Value>C:\Users\Public\Documents\Bruker\OPUS_8.2.28\QT\IRBT_v3_default.QT</Value></Line></Header><Matrix><Line><Legend></Legend><Legend>min</Legend><Legend>max</Legend><Legend>measured</Legend></Line><Line><Value>Absorption (X-Range 1):</Value><Value>0.400000</Value><Value>2.000000</Value><Value>0.171256</Value></Line><Line><Value>Noise (X-Range 4):</Value><Value></Value><Value>0.000300</Value><Value>0.000043</Value></Line><Line><Value>Signal/Noise (X-Range 2):</Value><Value>200.000000</Value><Value></Value><Value>77.884196</Value></Line><Line><Value>Signal/Noise (X-Range 3):</Value><Value>40.000000</Value><Value></Value><Value>65.817740</Value></Line><Line><Value>Water vapour (X-Range 5):</Value><Value></Value><Value>0.000300</Value><Value>0.000017</Value></Line><Line><Value>Signal/Water (X-Range 2):</Value><Value>100.000000</Value><Value></Value><Value>204.103423</Value></Line><Line><Value>Signal/Water (X-Range 3):</Value><Value>20.000000</Value><Value></Value><Value>172.482052</Value></Line><Line><Value>Fringes (X-Range 6):</Value><Value></Value><Value>0.000100</Value><Value>0.000029</Value></Line></Matrix></MainReport></AB__Qtest><Data_Parameters_ScSm><parameter name="DPF">1</parameter><parameter name="NPT">1814</parameter><parameter name="FXV">3996.63438082617</parameter><parameter name="LXV">499.579297603271</parameter><parameter name="CSF">1</parameter><parameter name="MXY">0.356303572654724</parameter><parameter name="MNY">0.0822595283389091</parameter><parameter name="DAT">17/01/2024</parameter><parameter name="TIM">13:28:11.969 (GMT+1)</parameter><parameter name="DXU">WN</parameter></Data_Parameters_ScSm><Data_Parameters_ScRf><parameter name="DPF">1</parameter><parameter name="NPT">1820</parameter><parameter name="FXV">4004.34989121387</parameter><parameter name="LXV">495.721542409425</parameter><parameter name="CSF">1</parameter><parameter name="MXY">0.317479461431503</parameter><parameter name="MNY">0.0681362524628639</parameter><parameter name="DAT">17/01/2024</parameter><parameter name="TIM">13:27:45.957 (GMT+1)</parameter><parameter name="DXU">WN</parameter></Data_Parameters_ScRf><Optic_Parameters_Rf><parameter name="APR">0</parameter><parameter name="APT">Open</parameter><parameter name="BMS">KBr</parameter><parameter name="DTC">RT-DLaTGS_IR-Biotyper [Microplate reader]</parameter><parameter name="HPF">0</parameter><parameter name="LPF">10.0</parameter><parameter name="LPV">4000</parameter><parameter name="PGR">0</parameter><parameter name="RCH">Module port</parameter><parameter name="RDX">0</parameter><parameter name="SRC">MIR</parameter><parameter name="VEL">10.0</parameter><parameter name="SON">Off</parameter></Optic_Parameters_Rf><Acquisition_Parameters_Rf><parameter name="ADT">1</parameter><parameter name="AQM">DD</parameter><parameter name="CFE">0</parameter><parameter name="COR">0</parameter><parameter name="DEL">0</parameter><parameter name="DLY">0</parameter><parameter name="HFW">8000</parameter><parameter name="LFW">0</parameter><parameter name="NSR">32</parameter><parameter name="PLF">AB</parameter><parameter name="RES">6</parameter><parameter name="RGN">-1</parameter><parameter name="STR">0</parameter><parameter name="TCL">MakeCompatibleScalar (0, {WSV=1.000000, ARV=0});</parameter><parameter name="TDL">37</parameter><parameter name="RPO">0</parameter></Acquisition_Parameters_Rf><FT_-_Parameters_Rf><parameter name="APF">B3</parameter><parameter name="HFQ">500</parameter><parameter name="LFQ">4000</parameter><parameter name="NLI">0</parameter><parameter name="PHR">24</parameter><parameter name="PHZ">ML</parameter><parameter name="SPZ">NO</parameter><parameter name="ZFF">1</parameter></FT_-_Parameters_Rf><Optic_Parameters_><parameter name="APR">0</parameter><parameter name="APT">Open</parameter><parameter name="BMS">KBr</parameter><parameter name="CHN">Module port</parameter><parameter name="DTC">RT-DLaTGS_IR-Biotyper [Microplate reader]</parameter><parameter name="HPF">0</parameter><parameter name="LPF">10.0</parameter><parameter name="LPV">4000</parameter><parameter name="PGN">0</parameter><parameter name="RDX">0</parameter><parameter name="SRC">MIR</parameter><parameter name="VEL">10.0</parameter><parameter name="SON">Off</parameter></Optic_Parameters_><FT_-_Parameters_><parameter name="APF">B3</parameter><parameter name="HFQ">500</parameter><parameter name="LFQ">4000</parameter><parameter name="NLI">0</parameter><parameter name="PHR">24</parameter><parameter name="PHZ">ML</parameter><parameter name="SPZ">NO</parameter><parameter name="ZFF">1</parameter></FT_-_Parameters_><Acquisition_Parameters_><parameter name="ADT">1</parameter><parameter name="AQM">DD</parameter><parameter name="CFE">0</parameter><parameter name="COR">0</parameter><parameter name="DEL">0</parameter><parameter name="DLY">0</parameter><parameter name="HFW">8000</parameter><parameter name="LFW">0</parameter><parameter name="NSS">32</parameter><parameter name="PLF">AB</parameter><parameter name="RES">6</parameter><parameter name="SOT">0</parameter><parameter name="TCL">MakeCompatibleScalar (0, {WSV=1.000000, ARV=0});</parameter><parameter name="TDL">37</parameter><parameter name="SPO">0</parameter><parameter name="SGN">-1</parameter></Acquisition_Parameters_><Instrument_Parameters_Rf><parameter name="HFL">15801.365274</parameter><parameter name="LFL">0</parameter><parameter name="LWN">15801.365274</parameter><parameter name="ABP">32157</parameter><parameter name="SSP">1</parameter><parameter name="ARG">2</parameter><parameter name="ASG">2</parameter><parameter name="ASS">32</parameter><parameter name="GFW">16</parameter><parameter name="GBW">16</parameter><parameter name="BFW">0</parameter><parameter name="BBW">0</parameter><parameter name="PKA">9115</parameter><parameter name="PKL">4987</parameter><parameter name="PRA">9129</parameter><parameter name="PRL">5010</parameter><parameter name="P2A">1</parameter><parameter name="P2L">1</parameter><parameter name="P2R">1</parameter><parameter name="P2K">1</parameter><parameter name="DAQ">0</parameter><parameter name="AG2">1</parameter><parameter name="SSM">1</parameter><parameter name="RSN">46356</parameter><parameter name="CRR">0</parameter><parameter name="SRT">1705498065.958</parameter><parameter name="DUR">19.6439971923828</parameter><parameter name="TSC">30.9</parameter><parameter name="MVD">0.334922909736633</parameter><parameter name="AN1">0.225988356938062</parameter><parameter name="AN2">0</parameter><parameter name="VSN">2.485 Apr  4 2017</parameter><parameter name="SRN">0085</parameter><parameter name="CAM">0</parameter><parameter name="INS">IR-Biotyper</parameter><parameter name="FOC">69</parameter><parameter name="RDY">1</parameter><parameter name="ARS">32</parameter></Instrument_Parameters_Rf><Sample_Parameters_><parameter name="BLD"></parameter><parameter name="CNM">Admin</parameter><parameter name="CPY"></parameter><parameter name="DPM"></parameter><parameter name="EXP">IRBT_v3_32Scans.XPM</parameter><parameter name="LCT"></parameter><parameter name="SFM">Microplate, HTS-XT</parameter><parameter name="SNM">240117-1222-Cdiff_SCFA_1_C9_232112557_A9_2e4a3bc9-cd38-4a13-9df7-b559069a90c1.0</parameter><parameter name="XPP">C:\Users\Public\Documents\Bruker\OPUS_8.2.28\XPM</parameter><parameter name="IST">OK</parameter><parameter name="CPG">1252</parameter><parameter name="UID">b595ef3c-33c7-4594-bf07-8b41612bf3dd</parameter></Sample_Parameters_><Instrument_Parameters_><parameter name="HFL">15801.365274</parameter><parameter name="LFL">0</parameter><parameter name="LWN">15801.365274</parameter><parameter name="ABP">32157</parameter><parameter name="SSP">1</parameter><parameter name="ASG">2</parameter><parameter name="ARG">2</parameter><parameter name="ASS">32</parameter><parameter name="GFW">16</parameter><parameter name="GBW">16</parameter><parameter name="BFW">0</parameter><parameter name="BBW">0</parameter><parameter name="PKA">9958</parameter><parameter name="PKL">4979</parameter><parameter name="PRA">10036</parameter><parameter name="PRL">5011</parameter><parameter name="P2A">1</parameter><parameter name="P2L">1</parameter><parameter name="P2R">1</parameter><parameter name="P2K">1</parameter><parameter name="DAQ">0</parameter><parameter name="AG2">1</parameter><parameter name="SSM">1</parameter><parameter name="RSN">23871</parameter><parameter name="CRR">0</parameter><parameter name="SRT">1705498091.969</parameter><parameter name="DUR">19.6449890136719</parameter><parameter name="TSC">30.9</parameter><parameter name="MVD">0.303740441799164</parameter><parameter name="AN1">0.226011913956969</parameter><parameter name="AN2">0</parameter><parameter name="VSN">2.485 Apr  4 2017</parameter><parameter name="SRN">0085</parameter><parameter name="CAM">0</parameter><parameter name="INS">IR-Biotyper</parameter><parameter name="FOC">69</parameter><parameter name="RDY">1</parameter></Instrument_Parameters_><History/></OPUSDataFile>
