<?xml version="1.0" encoding="UTF-8" ?>
<OPUSDataFile><AB><Ydata ylabel="Absorbance Units"><values byteorder="INTEL" format="FLOAT32" numvalues="3497"> -0.08493819 -0.0849183 -0.08490661 -0.0849041 -0.08491444 -0.08493666 -0.08497182 -0.08501524 -0.08506144 -0.08510429
 -0.08513439 -0.08515177 -0.08515154 -0.08514227 -0.0851265 -0.08511227 -0.08510364 -0.08510078 -0.08510492 -0.08511182
 -0.08512092 -0.08513018 -0.08513936 -0.08514757 -0.0851547 -0.08515848 -0.08515889 -0.08515474 -0.08514649 -0.08513582
 -0.08512317 -0.08511086 -0.08509902 -0.08508892 -0.08508094 -0.08507617 -0.08507492 -0.08507831 -0.08508508 -0.08509508
 -0.08510572 -0.08511554 -0.08512349 -0.08512846 -0.08513234 -0.08513514 -0.08513971 -0.08514668 -0.0851562 -0.08516856
 -0.08517966 -0.08518926 -0.08519312 -0.08519143 -0.085185 -0.08517454 -0.08516442 -0.08515476 -0.08514838 -0.08514465
 -0.08514314 -0.08514418 -0.08514787 -0.08515514 -0.0851676 -0.08518401 -0.08520483 -0.0852259 -0.08524527 -0.08525998
 -0.08526784 -0.08527086 -0.08526856 -0.08526622 -0.08526462 -0.0852669 -0.08527368 -0.08528274 -0.08529393 -0.08530209
 -0.08530723 -0.08530771 -0.08530434 -0.08530065 -0.08529759 -0.08530046 -0.08530931 -0.08532713 -0.08535282 -0.08538664
 -0.08542543 -0.08546688 -0.08550528 -0.0855357 -0.08555429 -0.08555642 -0.08554592 -0.08552191 -0.08549374 -0.0854634
 -0.08543753 -0.08541778 -0.08540469 -0.08539861 -0.0853968 -0.08539913 -0.08540139 -0.08540333 -0.08540072 -0.08539377
 -0.08538116 -0.08536418 -0.08534639 -0.08532931 -0.08531838 -0.08531372 -0.08531822 -0.08533061 -0.08535118 -0.08537685
 -0.08540621 -0.08543408 -0.0854573 -0.08547282 -0.08547742 -0.08547638 -0.08546949 -0.08546644 -0.08546935 -0.08547945
 -0.08549759 -0.08551518 -0.08553179 -0.08554405 -0.08555262 -0.08556625 -0.08558531 -0.08561813 -0.08566069 -0.08570436
 -0.08574238 -0.08575191 -0.08573536 -0.08568218 -0.08560877 -0.08553006 -0.08545763 -0.08540826 -0.08537806 -0.08537085
 -0.08537562 -0.08538942 -0.08540301 -0.08541321 -0.08541661 -0.08541179 -0.08540057 -0.08538275 -0.0853634 -0.08534279
 -0.08532556 -0.08531167 -0.08530115 -0.08529368 -0.0852871 -0.08528189 -0.08527865 -0.08527817 -0.08528306 -0.08529282
 -0.08530811 -0.08532742 -0.0853493 -0.08537241 -0.08539577 -0.08541683 -0.08543473 -0.08544492 -0.08544529 -0.0854338
 -0.08540826 -0.08537499 -0.08533404 -0.08529554 -0.08526062 -0.08523477 -0.08521841 -0.08521082 -0.08521166 -0.08521606
 -0.08522318 -0.08522528 -0.08522172 -0.08520494 -0.08517688 -0.08513729 -0.08509136 -0.08504802 -0.08501061 -0.08498812
 -0.08497737 -0.08497966 -0.08498859 -0.08500058 -0.08501255 -0.0850222 -0.08502967 -0.08503498 -0.08503634 -0.0850338
 -0.08502339 -0.08500451 -0.08497676 -0.08494 -0.08490034 -0.08485831 -0.08482336 -0.08479587 -0.08478366 -0.08478571
 -0.08480337 -0.08483329 -0.08486851 -0.08490466 -0.08493039 -0.08494481 -0.08494037 -0.08492371 -0.08489662 -0.0848688
 -0.08484719 -0.08483478 -0.08483581 -0.0848443 -0.08485976 -0.08487531 -0.08488903 -0.08490147 -0.08491221 -0.08492582
 -0.08494265 -0.08496165 -0.08498248 -0.08499841 -0.08500946 -0.08501268 -0.08500871 -0.08499936 -0.08498341 -0.08495836
 -0.08492336 -0.08487345 -0.08481462 -0.08475106 -0.08469161 -0.08464693 -0.08461696 -0.08460711 -0.08460642 -0.08461238
 -0.08461386 -0.0846061 -0.0845889 -0.08456064 -0.08452875 -0.08449398 -0.08446065 -0.08442913 -0.08439938 -0.08437136
 -0.08434402 -0.08431718 -0.08428906 -0.0842595 -0.08422637 -0.08419073 -0.08415367 -0.08411761 -0.08408807 -0.08406499
 -0.08405224 -0.08404388 -0.08403687 -0.0840237 -0.08399726 -0.08395938 -0.08390728 -0.08385171 -0.08379542 -0.08374488
 -0.08370264 -0.08366547 -0.08363346 -0.08360149 -0.08356916 -0.08353553 -0.08350062 -0.0834656 -0.08343019 -0.08339301
 -0.08335307 -0.08330528 -0.08324887 -0.08317848 -0.08309567 -0.08299973 -0.08289523 -0.08278757 -0.08268075 -0.08258066
 -0.08248772 -0.08240427 -0.08232817 -0.08225986 -0.08219407 -0.08213036 -0.08205982 -0.08198053 -0.08188756 -0.08177932
 -0.08166204 -0.08153597 -0.0814091 -0.08128141 -0.08114983 -0.08101362 -0.08086485 -0.08070435 -0.08053113 -0.0803471
 -0.08015703 -0.0799624 -0.07976799 -0.07957503 -0.07938721 -0.07920473 -0.07902972 -0.07885975 -0.07869437 -0.07852995
 -0.07836538 -0.07819612 -0.0780216 -0.07783396 -0.07763155 -0.07740904 -0.07716442 -0.07690714 -0.07663739 -0.07637345
 -0.07611588 -0.07587214 -0.0756411 -0.07541676 -0.07519784 -0.0749754 -0.07474948 -0.07451522 -0.07427413 -0.07402686
 -0.07377476 -0.07352126 -0.07326323 -0.07300031 -0.07272533 -0.07243181 -0.07212134 -0.0717899 -0.07145317 -0.07111533
 -0.07078645 -0.0704712 -0.07016161 -0.06985766 -0.06954785 -0.06923103 -0.06890805 -0.06857914 -0.06825193 -0.06792609
 -0.06760219 -0.06727869 -0.06694835 -0.06661095 -0.06626122 -0.06590196 -0.06553574 -0.06516633 -0.06480058 -0.06443924
 -0.06408638 -0.06373876 -0.06339583 -0.06305353 -0.06270993 -0.06236228 -0.06200924 -0.06164993 -0.06128347 -0.06091269
 -0.06053762 -0.060163 -0.05978944 -0.0594142 -0.05903692 -0.05864649 -0.0582431 -0.05782274 -0.05738869 -0.05695456
 -0.0565231 -0.05611135 -0.05571602 -0.05533985 -0.05497557 -0.05461399 -0.05424988 -0.05387359 -0.05348647 -0.05308498
 -0.0526771 -0.05226504 -0.05185739 -0.05145841 -0.05106793 -0.05068799 -0.05030826 -0.04992776 -0.04953704 -0.04913492
 -0.04872286 -0.04830111 -0.04788017 -0.04746055 -0.0470516 -0.04665243 -0.04626416 -0.04588418 -0.04550507 -0.04512474
 -0.04473456 -0.04433557 -0.04392514 -0.0435062 -0.04308079 -0.04265091 -0.04221817 -0.04178498 -0.04135177 -0.04092438
 -0.04050453 -0.04009744 -0.03970549 -0.03932577 -0.03895899 -0.03859485 -0.03823261 -0.03786407 -0.03748894 -0.03710805
 -0.03672192 -0.0363366 -0.0359518 -0.03556934 -0.03518806 -0.03480456 -0.03441957 -0.03403202 -0.03364539 -0.03326486
 -0.03289153 -0.03253001 -0.0321753 -0.03182597 -0.03147549 -0.0311194 -0.03075731 -0.030387 -0.03001479 -0.02964145
 -0.02927342 -0.02891218 -0.02855759 -0.02821005 -0.02786371 -0.0275183 -0.02716947 -0.02681757 -0.02646498 -0.02611215
 -0.0257628 -0.0254165 -0.02507349 -0.02473393 -0.02439752 -0.02406649 -0.02374435 -0.02343201 -0.02313309 -0.02284342
 -0.02256209 -0.02228219 -0.02199979 -0.02171156 -0.02141467 -0.02111184 -0.02080267 -0.02049294 -0.02018352 -0.01987793
 -0.01957678 -0.01927771 -0.01898057 -0.01868082 -0.01837865 -0.01807445 -0.01776909 -0.01746803 -0.01717112 -0.01688144
 -0.01659672 -0.0163134 -0.01602957 -0.01573971 -0.01544591 -0.01514712 -0.01484932 -0.0145563 -0.0142733 -0.01400473
 -0.01375034 -0.01351181 -0.01328428 -0.01306727 -0.01285503 -0.01264691 -0.01243707 -0.01222505 -0.01200493 -0.0117764
 -0.01153758 -0.01128902 -0.01103629 -0.01078033 -0.01052945 -0.01028337 -0.01004586 -0.009815204 -0.00958951 -0.009366916
 -0.009143686 -0.00891863 -0.008688955 -0.008454436 -0.008213635 -0.00796807 -0.007717758 -0.007465496 -0.007212021 -0.006960348
 -0.006711087 -0.006467402 -0.006229626 -0.006001706 -0.005784035 -0.005579527 -0.005388355 -0.005209452 -0.005042251 -0.004879569
 -0.004720256 -0.004553601 -0.004379609 -0.004191556 -0.0039925 -0.003785604 -0.003575174 -0.003370066 -0.003171529 -0.002985334
 -0.002808305 -0.002640152 -0.002476904 -0.00231634 -0.002156083 -0.001995218 -0.001830622 -0.001661694 -0.001484443 -0.001297463
 -0.001103419 -0.0009016084 -0.000706627 -0.0005192491 -0.0003558118 -0.0002159951 -9.97638E-05 -4.403497E-06 8.709849E-05 0.0001756749
 0.0002753406 0.0003816176 0.0004910321 0.000598671 0.0006930666 0.0007764798 0.0008453723 0.0009080027 0.0009698772 0.00103666
 0.001114066 0.001200414 0.001297286 0.001398137 0.001501817 0.001602339 0.001697947 0.001789616 0.001876652 0.001969071
 0.002067402 0.002182141 0.002312812 0.002455317 0.002606692 0.002746027 0.002871494 0.002963158 0.003025718 0.003058834
 0.003072055 0.003081665 0.003093331 0.003121865 0.00316388 0.003221953 0.003290364 0.00336563 0.003447483 0.003535064
 0.003628989 0.00373092 0.003832145 0.003932404 0.004017545 0.004085558 0.004133374 0.004160521 0.004182338 0.004199968
 0.004234201 0.004284424 0.00435809 0.004451324 0.004553718 0.0046614 0.004758392 0.004845646 0.004915928 0.004975958
 0.005029995 0.005086453 0.005154287 0.005236764 0.005339969 0.005457873 0.005590953 0.005727525 0.00586441 0.005994705
 0.006115672 0.006231688 0.0063424 0.00645863 0.006581046 0.00671614 0.00686387 0.007023324 0.007194474 0.007376188
 0.007569795 0.007780254 0.008008112 0.008259878 0.008528985 0.008810575 0.009088684 0.009342565 0.009558834 0.009714582
 0.009818688 0.009863681 0.009882946 0.00988631 0.009905261 0.009953091 0.01003252 0.01014907 0.01027848 0.01041948
 0.01054416 0.01065058 0.01072417 0.01076498 0.01077409 0.01075313 0.01071385 0.01065788 0.01059822 0.01053478
 0.01047439 0.01041489 0.01035536 0.01029449 0.01022934 0.01016212 0.01009323 0.01002628 0.009965455 0.009905983
 0.009850698 0.009779035 0.009687765 0.009551898 0.009364563 0.009122616 0.0088226 0.008491913 0.008131787 0.007778348
 0.007432731 0.007113755 0.006820247 0.006552818 0.00630961 0.006084068 0.0058739 0.005670034 0.005470286 0.005265389
 0.005057322 0.004843845 0.004630402 0.004422239 0.004219372 0.00402559 0.003831462 0.00363386 0.003426051 0.003203304
 0.002973536 0.002735786 0.002508708 0.002294219 0.002107204 0.001949081 0.001820308 0.001720149 0.001631856 0.001553119
 0.001458004 0.001346128 0.001200029 0.001025085 0.000825434 0.0006101426 0.0003984532 0.000195554 1.769073E-05 -0.0001382065
 -0.0002680944 -0.0003799099 -0.0004770924 -0.0005667704 -0.0006528823 -0.0007391365 -0.0008275622 -0.0009188124 -0.001013546 -0.00111026
 -0.001209041 -0.001306597 -0.00140272 -0.001494389 -0.00158155 -0.001663732 -0.001741478 -0.001818783 -0.001896466 -0.001980621
 -0.002070849 -0.002169895 -0.002275272 -0.002383899 -0.002492669 -0.002595855 -0.002692479 -0.002779136 -0.002857439 -0.002927054
 -0.0029909 -0.003049784 -0.00310728 -0.003164151 -0.003224977 -0.003290798 -0.003364468 -0.003446877 -0.00353548 -0.003630353
 -0.00372366 -0.003815032 -0.00389758 -0.003971762 -0.004038033 -0.004097853 -0.004158087 -0.004219669 -0.004289345 -0.004366045
 -0.004451324 -0.004542634 -0.004637301 -0.004732923 -0.004826483 -0.004915961 -0.004999715 -0.005074774 -0.005139589 -0.005191659
 -0.005229106 -0.005254674 -0.005267925 -0.005275937 -0.005279852 -0.005281758 -0.005282157 -0.005274746 -0.005259389 -0.00523475
 -0.005202605 -0.00517812 -0.005163339 -0.005177869 -0.005218149 -0.0052862 -0.005372191 -0.005457435 -0.00553451 -0.005583021
 -0.005606072 -0.005596649 -0.005568092 -0.005525776 -0.005484826 -0.005454087 -0.005440122 -0.005448753 -0.005472532 -0.005512183
 -0.005552613 -0.005591786 -0.005620635 -0.005637969 -0.005646201 -0.00564543 -0.005639188 -0.005626683 -0.005602069 -0.005563944
 -0.005501174 -0.005415642 -0.005305214 -0.005177104 -0.005043987 -0.004914308 -0.004806752 -0.004722415 -0.004672232 -0.004644836
 -0.004637926 -0.004634534 -0.004625228 -0.004602965 -0.004561202 -0.0045091 -0.004446919 -0.004386536 -0.004330619 -0.004277346
 -0.004227266 -0.004167353 -0.004097091 -0.004010425 -0.00390832 -0.003798228 -0.003680924 -0.003564965 -0.003448494 -0.003330121
 -0.003207952 -0.003075952 -0.002936804 -0.00279084 -0.002643673 -0.00250171 -0.002366919 -0.002243764 -0.002128569 -0.002020505
 -0.001917046 -0.001815605 -0.00172245 -0.001637413 -0.001572375 -0.001529217 -0.001514123 -0.001528402 -0.001563598 -0.001619094
 -0.00167416 -0.00172768 -0.001759929 -0.001771983 -0.001757546 -0.001721251 -0.001673558 -0.001620348 -0.00157969 -0.001553909
 -0.001555595 -0.001580843 -0.0016312 -0.001699572 -0.001781418 -0.001871622 -0.001966385 -0.002063715 -0.002162184 -0.002261046
 -0.00235975 -0.002459005 -0.002558732 -0.002660777 -0.002765508 -0.002870381 -0.002975216 -0.003072451 -0.003162221 -0.003242402
 -0.003315276 -0.00339201 -0.003474508 -0.003576664 -0.003694847 -0.003829335 -0.003972371 -0.004111356 -0.004243416 -0.004358552
 -0.004463399 -0.004558736 -0.004653743 -0.004754104 -0.004862187 -0.004981013 -0.005106144 -0.005237176 -0.005369917 -0.005503547
 -0.00563697 -0.005770184 -0.005900141 -0.006026625 -0.006140265 -0.006240567 -0.006317845 -0.006373597 -0.006409575 -0.00643051
 -0.0064529 -0.00648097 -0.006534134 -0.006609401 -0.006713486 -0.006834114 -0.006962424 -0.007082946 -0.007181233 -0.007248328
 -0.007274361 -0.007261904 -0.007208462 -0.007123739 -0.007009458 -0.006873374 -0.006717331 -0.006542348 -0.006348901 -0.006133563
 -0.005896172 -0.005634551 -0.005348573 -0.005036593 -0.004697793 -0.004327058 -0.003922781 -0.003476209 -0.002987413 -0.002450863
 -0.001870818 -0.001250182 -0.0005966608 8.072334E-05 0.0007748286 0.001476681 0.002184817 0.002894755 0.003612356 0.004337803
 0.005080273 0.005842128 0.0066288 0.007442096 0.00827991 0.009142615 0.01002239 0.01091882 0.0118206 0.01272681
 0.01362335 0.01450867 0.01536734 0.01619671 0.0169808 0.01771447 0.01837963 0.018968 0.01945843 0.0198451
 0.02010942 0.02026161 0.02029585 0.02024846 0.02013031 0.01999404 0.01985954 0.01976797 0.01973521 0.01977166
 0.01988308 0.02005715 0.02029356 0.02057769 0.0209087 0.02127669 0.02168091 0.02211001 0.02256238 0.02302246
 0.02348877 0.02394732 0.0243983 0.02483409 0.02525824 0.02567117 0.02608192 0.0264996 0.02693538 0.02740304
 0.02790276 0.02844568 0.02900164 0.02957353 0.03008674 0.03053369 0.03080349 0.0308798 0.03066486 0.03014311
 0.02930445 0.02814651 0.02677912 0.02521279 0.02362209 0.02201484 0.02053129 0.01916387 0.01796258 0.01690853
 0.01598105 0.01516423 0.01442084 0.01374502 0.01311548 0.01253104 0.01198567 0.01147445 0.01099425 0.01053775
 0.01010069 0.009682052 0.009279363 0.008900964 0.00854742 0.008228725 0.007946126 0.007704248 0.007503472 0.007343863
 0.00722535 0.007146972 0.007108383 0.007107398 0.007142759 0.00720988 0.007304722 0.007417648 0.007538583 0.00764923
 0.007732712 0.007763431 0.007724509 0.007592461 0.007361608 0.007019137 0.006576676 0.006032448 0.005411593 0.004717593
 0.00398283 0.003211605 0.002437954 0.001665314 0.0009235927 0.0002148003 -0.0004376297 -0.001032833 -0.001553544 -0.002002143
 -0.002379907 -0.002701364 -0.003015495 -0.00335415 -0.003822125 -0.004446393 -0.005334795 -0.006465 -0.00787227 -0.00946869
 -0.01120389 -0.01296982 -0.01468804 -0.01629844 -0.01775114 -0.01905505 -0.0201986 -0.02122336 -0.02213449 -0.02296599
 -0.02372249 -0.02442122 -0.02506357 -0.0256592 -0.02620862 -0.02672012 -0.02719438 -0.02764014 -0.02805832 -0.02845727
 -0.02883775 -0.02920592 -0.02956221 -0.02990994 -0.03024989 -0.03058434 -0.03091387 -0.03124009 -0.03156197 -0.03187934
 -0.0321913 -0.03249655 -0.03279855 -0.03309727 -0.03339951 -0.03370687 -0.03402153 -0.03434465 -0.03466872 -0.03499345
 -0.0353075 -0.03561058 -0.03589733 -0.03616879 -0.03642989 -0.03668202 -0.03693402 -0.03718568 -0.03744148 -0.0376992
 -0.0379568 -0.03821221 -0.03846131 -0.03870486 -0.03894135 -0.03917447 -0.03940617 -0.03963883 -0.03987486 -0.04011155
 -0.04034946 -0.0405818 -0.04080752 -0.04102084 -0.04122065 -0.04140657 -0.04157839 -0.04174067 -0.04189372 -0.04204367
 -0.04219064 -0.04233852 -0.04248687 -0.04263605 -0.04278531 -0.04293275 -0.04307793 -0.04321903 -0.04335625 -0.04348918
 -0.04361809 -0.04374328 -0.04386432 -0.0439814 -0.04409287 -0.04419824 -0.04429566 -0.0443843 -0.04446397 -0.04453402
 -0.04459777 -0.04465521 -0.04471229 -0.04476938 -0.04483149 -0.04489875 -0.04497268 -0.04505293 -0.04513741 -0.0452256
 -0.04531402 -0.04540255 -0.04548874 -0.04557329 -0.04565598 -0.04573848 -0.04582286 -0.04591069 -0.04600447 -0.04610407
 -0.04621067 -0.04632192 -0.0464371 -0.04655422 -0.04667232 -0.04679146 -0.0469115 -0.04703273 -0.0471554 -0.04727707
 -0.04739761 -0.04751369 -0.04762531 -0.04773458 -0.04784216 -0.04795513 -0.04807352 -0.04820202 -0.04833874 -0.04848085
 -0.04862629 -0.0487692 -0.04890953 -0.04904429 -0.04917537 -0.0493035 -0.04943029 -0.0495572 -0.04968445 -0.04981286
 -0.04994086 -0.05006842 -0.05019294 -0.05031377 -0.05042975 -0.05054033 -0.05064829 -0.05075368 -0.05086214 -0.05097394
 -0.05109286 -0.0512186 -0.05135025 -0.05148707 -0.05162506 -0.05176387 -0.05190016 -0.05203444 -0.05216601 -0.05229577
 -0.05242482 -0.0525535 -0.05268267 -0.05281193 -0.05294126 -0.05307023 -0.05319861 -0.05332629 -0.05345351 -0.05357875
 -0.05370215 -0.05381972 -0.05393102 -0.05403248 -0.05412364 -0.05420532 -0.05427762 -0.05434539 -0.05440892 -0.05447309
 -0.05453762 -0.0546039 -0.05467127 -0.05473845 -0.05480509 -0.05486991 -0.05493256 -0.05499225 -0.05504814 -0.05509921
 -0.05514444 -0.05518251 -0.05521397 -0.05523834 -0.05525797 -0.05527355 -0.05528656 -0.0552977 -0.05530614 -0.05531189
 -0.05531381 -0.05531167 -0.05530755 -0.05530161 -0.05529851 -0.05529831 -0.05530361 -0.05531365 -0.05532602 -0.05533992
 -0.05535119 -0.05536052 -0.05536682 -0.05537243 -0.05538039 -0.05539221 -0.05541116 -0.05543585 -0.05546664 -0.05550092
 -0.05553725 -0.05557494 -0.0556131 -0.05565337 -0.05569588 -0.05574244 -0.05579338 -0.05584909 -0.05590969 -0.05597399
 -0.05604191 -0.05611091 -0.05618093 -0.0562502 -0.0563191 -0.05638859 -0.05645923 -0.05653355 -0.05661136 -0.05669362
 -0.05677972 -0.05686888 -0.05696144 -0.0570573 -0.05715738 -0.05726273 -0.05737258 -0.05748748 -0.05760398 -0.05772123
 -0.05783591 -0.05794682 -0.05805382 -0.05815651 -0.0582571 -0.05835573 -0.05845415 -0.05855245 -0.05865105 -0.05875007
 -0.05885075 -0.0589534 -0.05906056 -0.05917225 -0.05929016 -0.0594135 -0.05954148 -0.05967316 -0.05980669 -0.05994177
 -0.0600776 -0.06021367 -0.06034967 -0.06048416 -0.06061638 -0.06074517 -0.06086978 -0.06099051 -0.0611073 -0.06122058
 -0.06133052 -0.06143652 -0.06153854 -0.06163634 -0.06172991 -0.06182081 -0.06190921 -0.06199772 -0.06208645 -0.06217742
 -0.06227042 -0.06236596 -0.06246333 -0.06256124 -0.06265883 -0.06275396 -0.06284662 -0.06293552 -0.06302226 -0.06310753
 -0.06319297 -0.06327991 -0.06336821 -0.06345847 -0.06354869 -0.06363852 -0.06372641 -0.06381194 -0.06389532 -0.06397648
 -0.06405652 -0.0641355 -0.06421461 -0.06429397 -0.0643753 -0.06445866 -0.06454544 -0.06463515 -0.06472708 -0.0648204
 -0.06491249 -0.06500376 -0.0650931 -0.06518277 -0.06527472 -0.06537115 -0.06547485 -0.06558536 -0.06570374 -0.06582693
 -0.06595429 -0.06608248 -0.06621054 -0.06633659 -0.06646016 -0.06658045 -0.0666973 -0.06681072 -0.06692069 -0.06702867
 -0.06713483 -0.06724187 -0.06734984 -0.0674606 -0.06757365 -0.06768837 -0.0678039 -0.06791779 -0.06802996 -0.06813905
 -0.06824578 -0.06835055 -0.06845374 -0.06855585 -0.06865678 -0.06875619 -0.06885561 -0.06895512 -0.0690578 -0.0691647
 -0.0692763 -0.0693934 -0.0695115 -0.06963043 -0.06974398 -0.06985176 -0.06995125 -0.0700426 -0.0701277 -0.0702069
 -0.07028338 -0.07035726 -0.07043069 -0.07050385 -0.07057822 -0.070654 -0.0707322 -0.07081271 -0.07089608 -0.07098123
 -0.07106761 -0.0711538 -0.07123876 -0.07132204 -0.07140288 -0.07148276 -0.07156181 -0.07164177 -0.07172311 -0.07180588
 -0.07189031 -0.07197392 -0.07205658 -0.07213507 -0.07220938 -0.07227895 -0.07234433 -0.07240881 -0.072473 -0.07254139
 -0.07261334 -0.07269001 -0.07276954 -0.07284918 -0.07292762 -0.07300164 -0.07307232 -0.07313906 -0.07320455 -0.07327022
 -0.07333773 -0.07340848 -0.07348137 -0.07355665 -0.0736317 -0.07370607 -0.07377803 -0.07384724 -0.07391397 -0.07397819
 -0.07404156 -0.07410416 -0.0741673 -0.07423089 -0.07429515 -0.07435973 -0.07442352 -0.07448632 -0.07454684 -0.07460552
 -0.07466228 -0.07471827 -0.07477476 -0.07483298 -0.07489453 -0.07495958 -0.07502906 -0.07510129 -0.07517599 -0.07525098
 -0.07532554 -0.07539885 -0.0754705 -0.07554154 -0.07561207 -0.07568262 -0.07575326 -0.07582198 -0.07588859 -0.07594991
 -0.07600602 -0.07605564 -0.07609955 -0.07614009 -0.07617841 -0.07621877 -0.07626178 -0.07631075 -0.07636498 -0.07642514
 -0.0764899 -0.07655814 -0.07662952 -0.07670305 -0.07678057 -0.07686248 -0.07695062 -0.07704592 -0.07714757 -0.07725587
 -0.07736768 -0.07748265 -0.07759871 -0.07771569 -0.07783394 -0.07795342 -0.07807394 -0.07819511 -0.07831401 -0.07843006
 -0.07853934 -0.07864148 -0.07873366 -0.07881523 -0.07888423 -0.07893883 -0.07897671 -0.07899431 -0.07898691 -0.07895493
 -0.07889378 -0.07881757 -0.07872839 -0.07864826 -0.07858416 -0.07854841 -0.07854573 -0.07857287 -0.07863096 -0.07870522
 -0.07879493 -0.07888123 -0.07896339 -0.07902939 -0.07908018 -0.07911738 -0.07914272 -0.07916446 -0.07918306 -0.07920432
 -0.07922699 -0.07925181 -0.07927635 -0.07929781 -0.07931424 -0.07932256 -0.07932296 -0.07931425 -0.07929848 -0.07927595
 -0.07924946 -0.07921939 -0.07919012 -0.07916225 -0.0791405 -0.07912566 -0.07911887 -0.07912041 -0.07912656 -0.07913707
 -0.07914682 -0.07915576 -0.07916109 -0.07916316 -0.07916198 -0.07915787 -0.07915174 -0.07914375 -0.07913437 -0.07912423
 -0.07911398 -0.07910514 -0.07909931 -0.07909761 -0.07910161 -0.07911023 -0.07912377 -0.07913949 -0.07915652 -0.07917353
 -0.07918986 -0.07920655 -0.07922363 -0.07924229 -0.07926267 -0.07928402 -0.07930623 -0.07932662 -0.07934513 -0.07935996
 -0.07937162 -0.07938135 -0.07939002 -0.07940096 -0.07941432 -0.07943223 -0.07945359 -0.07947775 -0.07950363 -0.07952981
 -0.07955618 -0.07958224 -0.07960825 -0.07963449 -0.07966013 -0.07968505 -0.0797084 -0.07973002 -0.07974944 -0.07976658
 -0.07978104 -0.07979276 -0.07980157 -0.0798075 -0.07981174 -0.07981455 -0.0798187 -0.07982432 -0.07983367 -0.07984641
 -0.07986289 -0.07988215 -0.0799026 -0.0799232 -0.07994168 -0.07995775 -0.07997014 -0.07997936 -0.07998517 -0.07998887
 -0.0799909 -0.07999264 -0.07999458 -0.07999775 -0.08000256 -0.08000868 -0.08001621 -0.08002371 -0.08003107 -0.08003698
 -0.08004137 -0.0800444 -0.08004618 -0.08004799 -0.08004986 -0.08005279 -0.0800566 -0.08006129 -0.08006655 -0.08007172
 -0.08007669 -0.08008081 -0.08008476 -0.08008885 -0.08009398 -0.08010123 -0.08010975 -0.08011997 -0.08012873 -0.08013511
 -0.08013682 -0.0801328 -0.08012454 -0.08011183 -0.0800988 -0.08008577 -0.08007541 -0.0800678 -0.08006275 -0.08006008
 -0.08005807 -0.08005659 -0.08005419 -0.0800509 -0.08004587 -0.08003954 -0.08003224 -0.08002476 -0.08001848 -0.08001363
 -0.08001141 -0.08001055 -0.08001097 -0.08001026 -0.08000718 -0.08000049 -0.0799892 -0.07997429 -0.07995567 -0.07993516
 -0.079913 -0.0798903 -0.07986719 -0.07984433 -0.07982179 -0.079801 -0.07978199 -0.07976567 -0.07975177 -0.07973958
 -0.07972865 -0.07971711 -0.07970514 -0.07969201 -0.07967845 -0.07966539 -0.07965293 -0.07964203 -0.07963101 -0.0796193
 -0.07960451 -0.07958497 -0.07956068 -0.0795306 -0.07949845 -0.07946467 -0.0794334 -0.07940547 -0.07938182 -0.07936271
 -0.07934613 -0.07933197 -0.07931792 -0.07930388 -0.07928818 -0.07927072 -0.07925005 -0.07922632 -0.07919896 -0.07916894
 -0.07913785 -0.07910693 -0.07907894 -0.07905397 -0.0790334 -0.07901616 -0.07900187 -0.07898971 -0.07897889 -0.07896999
 -0.07896296 -0.07895883 -0.07895806 -0.07896009 -0.07896508 -0.07897109 -0.07897796 -0.07898419 -0.07898971 -0.07899455
 -0.07899883 -0.07900368 -0.07900912 -0.0790158 -0.07902327 -0.07903039 -0.07903675 -0.0790404 -0.07904217 -0.079042
 -0.07904202 -0.07904445 -0.07905107 -0.07906436 -0.07908349 -0.07910921 -0.07913847 -0.07917058 -0.0792024 -0.07923296
 -0.07926098 -0.07928593 -0.07930879 -0.07932951 -0.07935028 -0.07937123 -0.07939428 -0.07941945 -0.07944734 -0.07947784
 -0.0795108 -0.079546 -0.07958273 -0.07962055 -0.07965822 -0.07969519 -0.0797298 -0.0797625 -0.07979286 -0.07982241
 -0.07985216 -0.07988306 -0.0799162 -0.07995052 -0.07998598 -0.08002109 -0.08005517 -0.080089 -0.08012239 -0.08015796
 -0.080196 -0.08023744 -0.08028235 -0.08032782 -0.08037363 -0.08041585 -0.08045481 -0.08049023 -0.08052287 -0.08055543
 -0.08058802 -0.08062243 -0.08065786 -0.0806936 -0.08072951 -0.08076497 -0.08080067 -0.08083708 -0.08087435 -0.08091298
 -0.08095195 -0.08099082 -0.0810296 -0.08106808 -0.08110727 -0.08114738 -0.08118849 -0.08123077 -0.08127178 -0.08131137
 -0.08134673 -0.08137791 -0.08140486 -0.08142815 -0.08145093 -0.08147372 -0.08150019 -0.08153006 -0.08156478 -0.08160315
 -0.08164394 -0.08168593 -0.08172702 -0.08176723 -0.08180575 -0.08184344 -0.08188068 -0.08191765 -0.08195473 -0.08199082
 -0.08202575 -0.08205833 -0.08208827 -0.08211534 -0.08213941 -0.08216153 -0.08218176 -0.08220241 -0.08222361 -0.08224764
 -0.0822743 -0.08230381 -0.08233562 -0.08236782 -0.08240014 -0.08243088 -0.0824602 -0.08248774 -0.08251327 -0.08253641
 -0.08255695 -0.08257411 -0.08258939 -0.08260293 -0.08261769 -0.08263495 -0.08265617 -0.08268254 -0.08271154 -0.08274332
 -0.08277263 -0.0827989 -0.08281903 -0.08283277 -0.08284128 -0.08284474 -0.08284639 -0.08284626 -0.0828463 -0.08284639
 -0.08284691 -0.0828483 -0.08285178 -0.08285793 -0.08286864 -0.08288317 -0.08290186 -0.08292238 -0.082943 -0.0829618
 -0.08297675 -0.08298843 -0.08299631 -0.08300244 -0.08300734 -0.08301204 -0.08301697 -0.08302134 -0.08302511 -0.08302779
 -0.08302932 -0.08303093 -0.08303273 -0.08303655 -0.08304241 -0.08305156 -0.08306381 -0.08307911 -0.08309709 -0.08311692
 -0.083138 -0.0831589 -0.08317934 -0.08319812 -0.08321608 -0.08323333 -0.08325111 -0.08327035 -0.08329108 -0.08331379
 -0.08333721 -0.08336111 -0.08338434 -0.08340659 -0.08342776 -0.0834478 -0.08346722 -0.08348603 -0.08350488 -0.08352377
 -0.08354285 -0.08356208 -0.08358124 -0.08360038 -0.08361956 -0.08363905 -0.08365983 -0.08368162 -0.08370457 -0.08372772
 -0.08374994 -0.08377058 -0.08378854 -0.08380424 -0.08381771 -0.08382912 -0.08383857 -0.08384603 -0.08385129 -0.08385546
 -0.08385844 -0.08386279 -0.08386882 -0.08387799 -0.08389046 -0.08390545 -0.08392284 -0.08394014 -0.08395712 -0.08397081
 -0.08398125 -0.08398671 -0.08398806 -0.08398657 -0.08398336 -0.08398143 -0.08398063 -0.08398225 -0.08398505 -0.08398823
 -0.08399123 -0.08399303 -0.08399498 -0.08399756 -0.08400133 -0.08400705 -0.08401242 -0.08401729 -0.08401845 -0.08401531
 -0.08400785 -0.08399595 -0.08398346 -0.08397055 -0.08396016 -0.08395204 -0.08394559 -0.08394053 -0.08393509 -0.0839296
 -0.08392412 -0.08391901 -0.0839153 -0.08391231 -0.08390966 -0.08390635 -0.08390124 -0.08389395 -0.08388378 -0.08387115
 -0.08385605 -0.08383895 -0.08381996 -0.08379957 -0.08377792 -0.08375533 -0.08373185 -0.08370774 -0.08368301 -0.08365797
 -0.08363263 -0.08360753 -0.08358275 -0.08355913 -0.08353689 -0.08351762 -0.08350108 -0.08348806 -0.08347677 -0.08346422
 -0.08344852 -0.08342505 -0.08339516 -0.08335751 -0.08331672 -0.0832755 -0.08323665 -0.08320258 -0.08317224 -0.083146
 -0.08312167 -0.08309892 -0.08307603 -0.08305283 -0.08302755 -0.08300006 -0.08296929 -0.08293525 -0.08289836 -0.08285868
 -0.0828169 -0.08277296 -0.08272688 -0.08267861 -0.08262788 -0.08257493 -0.08251997 -0.0824637 -0.08240709 -0.08235095
 -0.0822967 -0.08224394 -0.08219322 -0.08214269 -0.08209159 -0.08203887 -0.08198373 -0.08192737 -0.08186996 -0.08181218
 -0.08175434 -0.08169471 -0.08163317 -0.08156854 -0.08150083 -0.08143151 -0.08136068 -0.08129009 -0.08121919 -0.08114652
 -0.08107126 -0.08099008 -0.08090299 -0.08080783 -0.08070634 -0.08059996 -0.08049019 -0.08037981 -0.08026719 -0.08015263
 -0.08003279 -0.07990542 -0.07977144 -0.07962964 -0.07948647 -0.07934302 -0.07920431 -0.07907166 -0.07894316 -0.07881897
 -0.07869302 -0.07856502 -0.07842959 -0.07828686 -0.07813537 -0.07797616 -0.07781341 -0.07764824 -0.07748681 -0.0773285
 -0.07717545 -0.07702548 -0.07687657 -0.07672633 -0.07657181 -0.07641119 -0.07624239 -0.07606437 -0.07587606 -0.07567729
 -0.07546818 -0.07524702 -0.07501408 -0.07476418 -0.07449653 -0.07420824 -0.07389867 -0.07357369 -0.07323363 -0.07288618
 -0.07253116 -0.07216919 -0.07180005 -0.07142231 -0.07103707 -0.07064761 -0.07025363 -0.06985722 -0.06945476 -0.06904143
 -0.06861552 -0.06817169 -0.0677152 -0.06724785 -0.06677496 -0.06630117 -0.06582301 -0.06534091 -0.06484848 -0.06434377
 -0.06382658 -0.06329656 -0.06275577 -0.06220501 -0.06163394 -0.06104185 -0.06040514 -0.05972391 -0.05898825 -0.05820383
 -0.05739591 -0.05656809 -0.05574898 -0.05493007 -0.05410827 -0.05327118 -0.05239777 -0.05148309 -0.05051501 -0.04948974
 -0.04840616 -0.04724446 -0.0459997 -0.04463819 -0.04314593 -0.04150884 -0.03971449 -0.03779851 -0.03575974 -0.0336669
 -0.03152525 -0.02939345 -0.02727447 -0.02519453 -0.02315143 -0.02113306 -0.01913107 -0.0170949 -0.01501775 -0.01284135
 -0.01058521 -0.008253823 -0.005892883 -0.003582278 -0.001330994 0.0008066688 0.002881166 0.004910016 0.006943543 0.00901794
 0.0111377 0.01331474 0.01553161 0.01778448 0.02007128 0.02239202 0.02474005 0.02711596 0.02949344 0.03187119
 0.03423898 0.03659625 0.0389395 0.04125929 0.04350239 0.04565658 0.04764562 0.04947875 0.05113597 0.05263919
 0.05401953 0.05527742 0.05642827 0.05745823 0.05835233 0.05913215 0.05979669 0.0603958 0.06094851 0.0614801
 0.06200432 0.06250679 0.06298874 0.06342363 0.06380901 0.0641292 0.06438328 0.06456167 0.06466407 0.06468263
 0.06461935 0.06448048 0.06427043 0.06400867 0.06369604 0.06334527 0.06295231 0.06251531 0.06203334 0.0615008
 0.06092971 0.06032287 0.05970536 0.0590877 0.05849933 0.05795004 0.0574715 0.05707123 0.05677943 0.05660322
 0.0565508 0.05662561 0.05680204 0.05707885 0.05741045 0.05779349 0.0581747 0.05855002 0.05886695 0.05912556
 0.05929458 0.05938425 0.05939868 0.0593586 0.05929513 0.05923566 0.05921969 0.05927526 0.05943498 0.05972056
 0.06015178 0.06074006 0.06149614 0.06241435 0.06350128 0.0647174 0.06606431 0.06745932 0.06889823 0.0702716
 0.07157313 0.07269718 0.07363889 0.07431226 0.07471254 0.07476639 0.07447167 0.07377187 0.07268829 0.07122876
 0.06945194 0.06745342 0.06529196 0.06307331 0.06082893 0.0586097 0.05645463 0.05439022 0.05246844 0.05072027
 0.04915069 0.0477765 0.0465377 0.04542936 0.04438569 0.04339722 0.04245209 0.04154881 0.04071578 0.03995266
 0.03925979 0.03863201 0.03803491 0.03746657 0.03689986 0.03633982 0.03578459 0.03524142 0.0347242 0.03423122
 0.0337731 0.03332451 0.03287662 0.03238168 0.03180877 0.03113324 0.03032719 0.02943138 0.02844368 0.02743903
 0.02642686 0.02547945 0.02460421 0.02386295 0.02325999 0.02282809 0.02256649 0.02246508 0.02251923 0.02269552
 0.0229872 0.02335721 0.02378737 0.02422439 0.02462706 0.02490788 0.02501552 0.02485155 0.02439159 0.02357201
 0.0224226 0.02093318 0.01917086 0.0171583 0.014948 0.01255693 0.01001847 0.007329206 0.004591412 0.001807241
 -0.0008404159 -0.003339044 -0.00560349 -0.00763787 -0.009521125 -0.01126356 -0.01297767 -0.01465797 -0.016345 -0.01802132
 -0.01966044 -0.02125351 -0.02277157 -0.02421484 -0.02557632 -0.02684571 -0.0280167 -0.02906635 -0.02997992 -0.03074112
 -0.03133832 -0.03177089 -0.03203566 -0.03213898 -0.03208105 -0.03186988 -0.03150564 -0.03100119 -0.03035689 -0.02959996
 -0.02873389 -0.02782117 -0.02687158 -0.02598623 -0.02517121 -0.02451075 -0.023993 -0.02363367 -0.02340879 -0.02328406
 -0.02323623 -0.02322307 -0.0232281 -0.02322238 -0.02319955 -0.02314425 -0.02306899 -0.022968 -0.02288434 -0.02282481
 -0.02284206 -0.02294971 -0.02316139 -0.02348363 -0.02388296 -0.02435838 -0.0248524 -0.0253619 -0.02582869 -0.02625275
 -0.02660382 -0.0268896 -0.02712359 -0.02731849 -0.02751542 -0.02772303 -0.02798088 -0.02827978 -0.02863316 -0.02900235
 -0.029366 -0.0296666 -0.0298669 -0.02991571 -0.02978372 -0.02943897 -0.02886454 -0.02805607 -0.02700687 -0.02574111
 -0.02426035 -0.02258939 -0.02073052 -0.01868372 -0.01644938 -0.01402992 -0.01143244 -0.008710256 -0.00587787 -0.003026215
 -0.000165361 0.002634218 0.005360106 0.007967567 0.01041863 0.01265639 0.0146202 0.0162367 0.01746241 0.01824075
 0.01858243 0.01846712 0.01796059 0.01706905 0.01588684 0.01442835 0.01278705 0.01097367 0.009070508 0.007083426
 0.005090486 0.003095438 0.001162267 -0.0007103372 -0.00250173 -0.00422055 -0.005893743 -0.007529311 -0.009167284 -0.01080282
 -0.01245027 -0.01408927 -0.0157017 -0.01726104 -0.01873756 -0.02010971 -0.0213537 -0.02246374 -0.02342723 -0.02426237
 -0.02496784 -0.02558024 -0.02610561 -0.02657604 -0.02699771 -0.02737684 -0.02771534 -0.02799012 -0.02819945 -0.02830326
 -0.02829983 -0.0281547 -0.02787226 -0.0274495 -0.02690172 -0.02626697 -0.02556911 -0.02486912 -0.02419381 -0.02360165
 -0.02311925 -0.02279051 -0.02263616 -0.02268429 -0.02293779 -0.0234107 -0.02407587 -0.02493574 -0.02592994 -0.02705294
 -0.02822264 -0.02943068 -0.03059507 -0.0317094 -0.03270713 -0.03358512 -0.0342981 -0.03484697 -0.03521669 -0.03541627
 -0.03547417 -0.03541066 -0.03529673 -0.03515708 -0.03507726 -0.03506668 -0.03518296 -0.03540097 -0.03572607 -0.0361041
 -0.0365035 -0.03687461 -0.03718303 -0.0374163 -0.03755749 -0.03763508 -0.03764816 -0.03764604 -0.03763426 -0.03765589
 -0.03771552 -0.03782659 -0.03798908 -0.03817884 -0.03839249 -0.03858778 -0.03876384 -0.03889275 -0.03897925 -0.03902227
 -0.03902912 -0.03901294 -0.03898274 -0.03895336 -0.03894134 -0.0389642 -0.03904682 -0.03921101 -0.03947388 -0.03985396
 -0.04033864 -0.04093486 -0.04159533 -0.04231538 -0.04303455 -0.04374437 -0.0444014 -0.04500058 -0.04552998 -0.04598921
 -0.04638987 -0.04673327 -0.04703672 -0.04730075 -0.04753692 -0.047745 -0.04793016 -0.0480924 -0.04823392 -0.04835563
 -0.04845967 -0.04854707 -0.04862033 -0.04867781 -0.04872039 -0.04874211 -0.04874172 -0.04870944 -0.04864296 -0.04853034
 -0.04836904 -0.04814852 -0.04786637 -0.04752098 -0.04711109 -0.04665281 -0.04614721 -0.04562649 -0.04509329 -0.04458574
 -0.04410671 -0.04369085 -0.04334013 -0.04307985 -0.0429088 -0.04283845 -0.04286174 -0.04297508 -0.04316627 -0.04342274
 -0.04373131 -0.04407926 -0.04445677 -0.0448558 -0.04527153 -0.04570023 -0.04614221 -0.0465965 -0.04706674 -0.04755346
 -0.0480586 -0.04858289 -0.04911893 -0.04966622 -0.05020543 -0.05073521 -0.05123365 -0.05170099 -0.05212624 -0.05251261
 -0.05286446 -0.0531855 -0.05348641 -0.0537685 -0.05403875 -0.05429613 -0.05454217 -0.05477541 -0.05499531 -0.05520059
 -0.05539052 -0.05556412 -0.0557206 -0.05586077 -0.05598422 -0.05609437 -0.05619157 -0.05627925 -0.05635798 -0.05642631
 -0.05648416 -0.05652469 -0.05654747 -0.05654519 -0.05651839 -0.05646573 -0.05638911 -0.05629418 -0.05618247 -0.05606045
 -0.05592826 -0.05578863 -0.05564205 -0.05548897 -0.05533317 -0.05517691 -0.05502522 -0.05488263 -0.05474682 -0.05462087
 -0.05448874 -0.05434943 -0.05417826 -0.05397171 -0.05370995 -0.05339016 -0.05300899 -0.05256617 -0.05207554 -0.05153863
 -0.05097817 -0.05039546 -0.04981049 -0.04922166 -0.04863579 -0.0480467 -0.0474452 -0.04682158 -0.04615718 -0.04544277
 -0.04466074 -0.04380655 -0.04287016 -0.04185362 -0.04075396 -0.03957969 -0.03833132 -0.03702365 -0.03565836 -0.03425648
 -0.0328199 -0.03137555 -0.02992554 -0.02849762 -0.02709344 -0.02573423 -0.02442035 -0.02316137 -0.02195627 -0.02080419
 -0.01970342 -0.0186482 -0.01763587 -0.01665839 -0.01571137 -0.01478521 -0.01387361 -0.01296631 -0.01205758 -0.01113926
 -0.01020969 -0.009265259 -0.008308138 -0.007338788 -0.006357423 -0.005365793 -0.004354872 -0.003324686 -0.002258716 -0.001155323
 -2.368407E-06 0.001201039 0.002449259 0.003740388 0.005047195 0.006365011 0.007652652 0.008904071 0.01007586 0.01116316
 0.01213214 0.01298201 0.01369526 0.01427626 0.0147226 0.01504106 0.01523612 0.0153134 0.01527641 0.01513122
 0.01487877 0.01453192 0.01409159 0.01358028 0.01300068 0.01237683 0.01171143 0.01102049 0.01030517 0.00957339
 0.008825457 0.00806696 0.007297926 0.006522111 0.005738138 0.004943483 0.00413533 0.003305272 0.002451678 0.001566944
 0.0006534264 -0.0002901574 -0.001257889 -0.002245769 -0.003247968 -0.004259713 -0.005279155 -0.006303885 -0.007336357 -0.008376824
 -0.009427265 -0.01048863 -0.011558 -0.01263564 -0.01371324 -0.01479036 -0.01585739 -0.01691398 -0.01795372 -0.01897674
 -0.01998112 -0.02096687 -0.02193373 -0.02288 -0.02380228 -0.02469648 -0.02555461 -0.02637177 -0.02713927 -0.02785282
 -0.02850673 -0.02909627 -0.02961781 -0.0300664 -0.03043833 -0.03073491 -0.03095335 -0.03110841 -0.03120004 -0.03125488
 -0.03127493 -0.03128936 -0.03130009 -0.03133022 -0.0313806 -0.03146583 -0.03158591 -0.03174802 -0.03195184 -0.03219992
 -0.0324923 -0.03283039 -0.0332146 -0.03364687 -0.03412581 -0.03465221 -0.03521946 -0.03582419 -0.03645477 -0.03710458
 -0.03776161 -0.03841967 -0.03907111 -0.03971304 -0.04033988 -0.04095083 -0.04153824 -0.04210143 -0.0426321 -0.04312957
 -0.04359145 -0.04401793 -0.04441379 -0.04477989 -0.04512452 -0.04544874 -0.04576088 -0.04606229 -0.04636059 -0.04665696
 -0.04695731 -0.04726146 -0.04757191 -0.04788705 -0.0482064 -0.04852835 -0.0488519 -0.04917569 -0.04949939 -0.04982036
 -0.0501384 -0.0504487 -0.05075037 -0.05103991 -0.05131646 -0.05158189 -0.05183617 -0.05208522 -0.05232923 -0.05257146
 -0.0528113 -0.05304569 -0.05327348 -0.05348806 -0.05368884 -0.05387095 -0.05403389 -0.05417526 -0.05429288 -0.05438429
 -0.05444396 -0.05446741 -0.05444649 -0.05437576 -0.05424695 -0.05405562 -0.05379568 -0.05346439 -0.0530592 -0.05257841
 -0.05202602 -0.05140104 -0.05071966 -0.04998228 -0.04922091 -0.04843787 -0.04767852 -0.04694637 -0.04628976 -0.04571076
 -0.04524588 -0.04489168 -0.04465996 -0.04454014 -0.04451931 -0.04458435 -0.04471269 -0.04489539 -0.04511666 -0.04537162
 -0.04565442 -0.04595743 -0.04627846 -0.04660271 -0.04692679 -0.04723403 -0.04752056 -0.04777657 -0.04799987 -0.04819049
 -0.04834807 -0.04847975 -0.04858601 -0.04867657 -0.04875189 -0.04882045 -0.04888204 -0.04894032 -0.04899452 -0.04904363
 -0.04908863 -0.04912957 -0.04917127 -0.04921932 -0.04928041 -0.04936328 -0.04947056 -0.04960815 -0.04977067 -0.04995897
 -0.05016086 -0.05037406 -0.05058409 -0.05078821 -0.05097394 -0.05113934 -0.05127733 -0.05138714 -0.0514672 -0.05151746
 -0.05153928 -0.05153281 -0.05150004 -0.05144126 -0.05135845 -0.05125238 -0.05112594 -0.05098071 -0.05082082 -0.05064841
 -0.050468 -0.05028143 -0.05009145 -0.0499011 -0.04971194 -0.04953039 -0.04935911 -0.04920481 -0.04907114 -0.04895705
 -0.04886427 -0.04878225 -0.04871031 -0.04863616 -0.04855881 -0.04846993 -0.04836911 -0.04825037 -0.04811356 -0.04795444
 -0.0477736 -0.04757144 -0.04734913 -0.04711081 -0.04685653 -0.04658877 -0.04630624 -0.046008 -0.04569332 -0.0453608
 -0.04501102 -0.04464443 -0.04425982 -0.04385816 -0.04343265 -0.04298266 -0.04249686 -0.04197275 -0.04140251 -0.04078378
 -0.04012073 -0.0394126 -0.03868105 -0.03792772 -0.03719502 -0.03648759 -0.03586608 -0.03533529 -0.03495415 -0.03471844
 -0.03465223 -0.03473459 -0.03493889 -0.03523307 -0.03556042 -0.03589613 -0.0361911 -0.03644421 -0.03663476 -0.03678639
 -0.03690254 -0.03701348 -0.0371312 -0.03726842 -0.03743298 -0.03761128 -0.03780387 -0.03798591 -0.03815514 -0.03829868
 -0.03841604 -0.03851155 -0.03858584 -0.03864737 -0.03869523 -0.03872917 -0.0387474 -0.0387434 -0.03871775 -0.03866757
 -0.03859662 -0.03850873 -0.03840837 -0.03830128 -0.0381912 -0.03808247 -0.03797718 -0.03787801 -0.03778335 -0.03769417
 -0.03760425 -0.03751256 -0.0374134 -0.03730559 -0.03718762 -0.03705927 -0.03692007 -0.03676996 -0.03660698 -0.03643122
 -0.03624313 -0.03604326 -0.03583514 -0.03561853 -0.03539499 -0.03516272 -0.03491858 -0.03466121 -0.03438717 -0.03409595
 -0.03378591 -0.03345633 -0.03310601 -0.0327353 -0.0323427 -0.031934 -0.03150854 -0.03108119 -0.03065278 -0.03024777
 -0.02986834 -0.02954425 -0.02927834 -0.02909199 -0.02898625 -0.0289571 -0.02900166 -0.02908674 -0.02920728 -0.02931804
 -0.02941712 -0.02947281 -0.02948955 -0.0294608 -0.02939397 -0.02929851 -0.02917768 -0.02903976 -0.02888206 -0.02870511
 -0.02850613 -0.0282824 -0.02803753 -0.02777058 -0.02749211 -0.02720326 -0.02691802 -0.02663816 -0.02637685 -0.02613545
 -0.02592247 -0.0257384 -0.02558607 -0.0254651 -0.02537256 -0.02530658 -0.02525641 -0.02521793 -0.02517194 -0.02511404
 -0.02502391 -0.02490147 -0.02473605 -0.02453395 -0.02429672 -0.02403415 -0.0237538 -0.02346349 -0.02316969 -0.02287477
 -0.0225812 -0.02228837 -0.02199654 -0.02170514 -0.02141449 -0.0211213 -0.02082567 -0.02051922 -0.02020149 -0.01986512
 -0.01951043 -0.01913946 -0.01875369 -0.01836265 -0.01796778 -0.01757884 -0.01719717 -0.01683037 -0.0164799 -0.0161513
 -0.01584566 -0.01556537 -0.0153139 -0.01509225 -0.01491108 -0.014775 -0.01469647 -0.01468381 -0.01473225 -0.01484715
 -0.0149948 -0.01517355 -0.01533526 -0.01547513 -0.01555914 -0.01558504 -0.0155458 -0.01544234 -0.015286 -0.01507825
 -0.01483321 -0.01455202 -0.0142458 -0.01391584 -0.01357063 -0.01321112 -0.01284193 -0.01246535 -0.01208353 -0.01170499
 -0.01133483 -0.01098696 -0.01066925 -0.01039454 -0.01016962 -0.0100007 -0.00989324 -0.009835171 -0.009827814 -0.009841249
 -0.009872261 -0.009904429 -0.009936508 -0.009972412 -0.01001222 -0.01005862 -0.01010998 -0.01015716 -0.01019834 -0.01022041
 -0.01022583 -0.0102124 -0.01018718 -0.01016107 -0.01013951 -0.01013535 -0.01014447 -0.01017021 -0.01019972 -0.01022701
 -0.01024182 -0.01023729 -0.01021493 -0.01017279 -0.01011957 -0.01005661 -0.009989159 -0.009918092 -0.009843741 -0.0097661
 -0.009690045 -0.009616578 -0.009561954 -0.00952814 -0.009536757 -0.009587737 -0.009694059 -0.009850712 -0.01005415 -0.01029355
 -0.0105512 -0.010812 -0.01105264 -0.01125768 -0.01140481 -0.0114915 -0.01150385 -0.01146772 -0.01138504 -0.01129846
 -0.01122214 -0.01117109 -0.0111557 -0.01113953 -0.01112135 -0.01105166 -0.01092682 -0.0107407 -0.01049486 -0.01021938
 -0.009914637 -0.009597401 -0.009265443 -0.008915907 -0.008552965 -0.008184052 -0.007818433 -0.007477858 -0.007163306 -0.006887609
 -0.006640109 -0.006416139 -0.00620642 -0.006001593 -0.005806128 -0.005618131 -0.005449328 -0.005304059 -0.005182613 -0.005087932
 -0.005002602 -0.004925567 -0.004837035 -0.004735493 -0.00461526 -0.004476624 -0.004326097 -0.004164361 -0.003998966 -0.003830471
 -0.003664842 -0.003502904 -0.003350697 -0.003206671 -0.003072382 -0.002941821 -0.002808559 -0.002666438 -0.002506726 -0.002329818
 -0.00213226 -0.001920314 -0.001695929 -0.001463132 -0.001224097 -0.0009772663 -0.0007224971 -0.0004591513 -0.0001863224 8.684567E-05
 0.0003599176 0.0006203004 0.0008680892 0.001106307 0.001337705 0.001585005 0.001849424 0.002150388 0.002482378 0.002841396
 0.003219442 0.003599422 0.003977307 0.004342393 0.004689065 0.005013005 0.005296827 0.00553175 0.005695034 0.00577372
 0.005759915 0.005645614 0.005445496 0.005159656 0.004810049 0.004399528 0.003939474 0.003430828 0.002880158 0.002288643
 0.001680109 0.001058675 0.0004679828 -8.958761E-05 -0.0005781333 -0.001003111 -0.001359323 -0.001657411 -0.001915273 -0.002140034
 -0.002349254 -0.002543672 -0.002729565 -0.002907178 -0.003077006 -0.003243746 -0.003409045 -0.003578122 -0.003753785 -0.003934348
 -0.004121358 -0.004303328 -0.004479804 -0.004634345 -0.004765742 -0.004862424 -0.004924187</values></Ydata></AB><ScSm><Ydata ylabel="Single channel"><values byteorder="INTEL" format="FLOAT32" numvalues="1814"> 0.08531414 0.08541931 0.08554517 0.08570133 0.08587807 0.08605251 0.08620442 0.0863308 0.08644323 0.08654979
 0.08664989 0.08675094 0.08687404 0.08703195 0.0872094 0.08737269 0.08749711 0.08758938 0.08768629 0.0878195
 0.08797318 0.08808644 0.08810958 0.08805697 0.08799891 0.08799939 0.08807404 0.08822381 0.08847507 0.08881566
 0.08910424 0.08916119 0.08899376 0.0888282 0.0888592 0.08905427 0.08924765 0.089324 0.08926302 0.08912337
 0.08906761 0.08931156 0.08992767 0.09068562 0.09112541 0.09082468 0.08967973 0.08805396 0.086689 0.08631743
 0.08713467 0.08857951 0.08975343 0.09014582 0.08991149 0.0894838 0.08912253 0.08890824 0.08894625 0.08935138
 0.09006049 0.09075436 0.09098209 0.09045826 0.08938536 0.08841838 0.0881297 0.08856364 0.08943589 0.09047783
 0.09118697 0.09057182 0.08802821 0.08467358 0.08300181 0.08458085 0.08841231 0.09196924 0.09349708 0.09294392
 0.09123217 0.0894434 0.08853173 0.08899701 0.09055868 0.0924353 0.09396615 0.09478827 0.09467124 0.09362456
 0.09211604 0.0908742 0.09048177 0.09120557 0.09288882 0.09478876 0.09587388 0.09563652 0.09447406 0.09317595
 0.09234177 0.092353 0.09340666 0.0952801 0.09735055 0.09905458 0.1001812 0.1007486 0.1008648 0.1007039
 0.1004205 0.1001313 0.1000365 0.1003156 0.100781 0.1009156 0.1004484 0.09971983 0.09933737 0.09954887
 0.1000296 0.1002752 0.1001035 0.09956291 0.09842191 0.09627992 0.09339069 0.09079288 0.08929686 0.08891463
 0.08951762 0.0911835 0.09340273 0.09483424 0.09465514 0.09367435 0.09345996 0.09464309 0.09652033 0.09807448
 0.09896117 0.09956294 0.1003914 0.1015107 0.1023938 0.102313 0.1010851 0.09953476 0.09894805 0.09982838
 0.1014049 0.1025778 0.1030728 0.1034055 0.103971 0.1044706 0.1041725 0.1026954 0.1006669 0.0995035
 0.1002429 0.1025171 0.1047462 0.1053347 0.1038048 0.1010535 0.09860142 0.09750134 0.09792697 0.09960676
 0.1022016 0.1051431 0.1075437 0.1086468 0.1083514 0.1071895 0.1057475 0.1041203 0.1021217 0.1001338
 0.09933303 0.1005905 0.1033537 0.106086 0.1076854 0.1080975 0.1076932 0.1065246 0.1044213 0.1017521
 0.09976716 0.099672 0.1012555 0.1029412 0.1034627 0.1030484 0.1027052 0.1028447 0.103059 0.1029596
 0.1027564 0.1029547 0.1037075 0.1046184 0.1051617 0.1051667 0.1048547 0.104527 0.1042811 0.1039557
 0.1033776 0.1027414 0.1025997 0.1032834 0.1044588 0.1054631 0.1059579 0.1060683 0.1059864 0.1056458
 0.1048408 0.1036375 0.102572 0.1022708 0.1028407 0.103788 0.1045435 0.1048855 0.10488 0.1046644
 0.1043572 0.104028 0.1037132 0.1034952 0.1034889 0.1036882 0.1039215 0.1040217 0.1039633 0.1038004
 0.1035554 0.1032213 0.1028329 0.1024905 0.1022971 0.1022743 0.1023569 0.1024609 0.1025229 0.102489
 0.10233 0.1020801 0.1018154 0.101586 0.1013974 0.101252 0.1011672 0.1011448 0.1011484 0.1011275
 0.1010578 0.1009475 0.1008115 0.1006549 0.1004851 0.1003229 0.1001954 0.1001187 0.1000832 0.1000582
 0.1000268 0.1000071 0.1000138 0.1000124 0.09994744 0.09981339 0.09966422 0.09955578 0.09950235 0.09948206
 0.09946045 0.09940529 0.09929395 0.09912755 0.09894923 0.09883209 0.09882466 0.09891371 0.09905082 0.0991937
 0.09930938 0.09937209 0.09938434 0.09937841 0.09937826 0.09937716 0.0993598 0.09933221 0.09932543 0.09937286
 0.09947785 0.09960477 0.09970946 0.09977178 0.09979644 0.09980434 0.0998293 0.09989247 0.09996897 0.100009
 0.1000028 0.09999702 0.1000376 0.1001159 0.1001841 0.1002104 0.1002101 0.1002232 0.1002697 0.1003345
 0.1003941 0.1004439 0.1004968 0.1005606 0.1006203 0.1006442 0.1006162 0.100559 0.1005135 0.1004964
 0.1004955 0.100501 0.1005207 0.1005596 0.1006025 0.1006251 0.1006177 0.1005923 0.1005655 0.1005375
 0.1004928 0.1004236 0.1003407 0.1002614 0.1001926 0.1001301 0.1000664 0.09999483 0.09991018 0.09980763
 0.09968469 0.0995436 0.09939036 0.09923288 0.0990843 0.0989627 0.09887488 0.09879813 0.09868997 0.098525
 0.09831918 0.0981148 0.09794369 0.09780587 0.09767938 0.09754589 0.09740597 0.09727313 0.09715922 0.09706602
 0.09698687 0.09691375 0.09684705 0.09680094 0.09679305 0.09682333 0.09686704 0.09689622 0.0969066 0.09691646
 0.09694223 0.09698354 0.09703153 0.09708243 0.09714095 0.09721483 0.09730551 0.09740254 0.09749179 0.09757081
 0.09765109 0.09774471 0.09785643 0.09798697 0.09813133 0.09827383 0.09839875 0.09851011 0.09862947 0.09877032
 0.09892489 0.09907999 0.09923589 0.09940325 0.09958795 0.09978722 0.09999779 0.1002219 0.100464 0.1007237
 0.1009921 0.1012566 0.1015108 0.1017624 0.102028 0.102318 0.1026279 0.1029433 0.1032539 0.1035597
 0.1038669 0.1041784 0.1044919 0.1048084 0.1051361 0.1054813 0.105839 0.1061976 0.1065511 0.1069017
 0.1072511 0.1075968 0.1079374 0.1082769 0.1086238 0.108984 0.1093532 0.1097159 0.1100567 0.1103742
 0.1106825 0.1109982 0.1113284 0.1116669 0.1119966 0.1123006 0.1125796 0.1128555 0.1131487 0.1134554
 0.1137563 0.1140462 0.1143418 0.1146568 0.1149779 0.1152737 0.115525 0.1157427 0.1159538 0.1161722
 0.1163879 0.1165842 0.11676 0.1169296 0.1171037 0.117282 0.1174639 0.1176563 0.1178627 0.1180708
 0.1182616 0.1184294 0.1185832 0.1187325 0.1188779 0.119015 0.1191417 0.1192612 0.1193812 0.1195064
 0.1196316 0.1197505 0.1198732 0.1200228 0.1202126 0.1204365 0.1206859 0.1209619 0.1212638 0.1215762
 0.1218825 0.1221879 0.122513 0.1228612 0.1232053 0.1235153 0.1237895 0.1240473 0.1243024 0.1245617
 0.1248406 0.1251597 0.1255233 0.1259106 0.1262927 0.1266495 0.1269793 0.1272976 0.1276229 0.1279555
 0.1282739 0.1285568 0.1288029 0.1290282 0.1292493 0.1294722 0.1296901 0.1298884 0.130052 0.130167
 0.1302155 0.1301779 0.130048 0.1298402 0.1295711 0.1292363 0.1288138 0.1282878 0.1276557 0.1269123
 0.1260403 0.1250279 0.1238976 0.1227179 0.1215891 0.1206157 0.1198812 0.1194387 0.1193133 0.1194994
 0.1199475 0.1205568 0.1211882 0.1216967 0.1219646 0.1219261 0.1215747 0.1209531 0.1201307 0.1191829
 0.1181778 0.1171678 0.1161876 0.1152689 0.1144675 0.1138782 0.1136194 0.1138053 0.1145287 0.1158371
 0.117686 0.119901 0.1222141 0.1243735 0.1262427 0.1278151 0.129157 0.1303445 0.1314337 0.1324551
 0.133419 0.1343255 0.1351729 0.1359565 0.1366618 0.137267 0.1377516 0.1381023 0.1383182 0.1384172
 0.1384387 0.1384366 0.1384684 0.1385852 0.1388125 0.1391265 0.139454 0.1397054 0.1398158 0.139768
 0.1395985 0.1394061 0.1393686 0.1397398 0.1407762 0.1425904 0.1450369 0.1477584 0.150371 0.1526318
 0.1544741 0.1559436 0.1571295 0.1581217 0.1589881 0.1597695 0.1604893 0.1611637 0.1618048 0.1624219
 0.1630242 0.1636206 0.164216 0.1648112 0.1654041 0.1659937 0.1665804 0.1671659 0.167752 0.1683399
 0.1689269 0.1695057 0.1700724 0.1706322 0.171192 0.1717478 0.1722896 0.1728144 0.1733295 0.1738414
 0.1743509 0.1748562 0.1753542 0.1758385 0.1763031 0.1767485 0.1771807 0.1776032 0.1780149 0.178415
 0.178806 0.1791904 0.1795685 0.1799401 0.1803067 0.1806709 0.1810328 0.1813896 0.1817389 0.1820823
 0.1824262 0.1827765 0.1831356 0.1835024 0.1838756 0.1842556 0.1846439 0.1850409 0.1854418 0.1858366
 0.1862174 0.1865868 0.1869574 0.1873392 0.1877303 0.1881221 0.1885097 0.1888949 0.1892806 0.1896664
 0.1900505 0.1904322 0.1908123 0.191193 0.1915772 0.1919674 0.192362 0.1927563 0.193147 0.1935356
 0.1939261 0.1943193 0.1947091 0.195088 0.1954539 0.19581 0.1961595 0.1965033 0.1968417 0.1971762
 0.1975082 0.1978389 0.1981682 0.1984947 0.1988158 0.1991281 0.1994286 0.199717 0.1999973 0.2002755
 0.2005557 0.2008388 0.2011233 0.2014054 0.2016819 0.2019525 0.2022205 0.2024906 0.2027677 0.2030561
 0.2033553 0.2036606 0.2039682 0.2042779 0.2045917 0.2049114 0.2052371 0.2055668 0.2058985 0.2062329
 0.2065714 0.2069142 0.2072629 0.2076219 0.2079928 0.20837 0.2087449 0.2091119 0.2094707 0.2098265
 0.2101858 0.210552 0.2109253 0.2113057 0.2116937 0.2120873 0.2124833 0.212879 0.2132715 0.2136592
 0.2140447 0.214431 0.2148163 0.2151967 0.2155705 0.2159398 0.2163081 0.2166794 0.2170545 0.2174288
 0.2177983 0.2181643 0.2185307 0.2188991 0.2192693 0.2196396 0.2200093 0.2203813 0.2207581 0.2211368
 0.2215134 0.2218896 0.2222689 0.2226486 0.223026 0.223403 0.2237816 0.2241613 0.2245419 0.2249234
 0.2253044 0.2256848 0.2260668 0.2264505 0.2268352 0.2272232 0.2276156 0.2280095 0.2284046 0.2288037
 0.2292048 0.2296027 0.229999 0.2304002 0.2308066 0.2312131 0.2316143 0.2320073 0.2323945 0.2327831
 0.2331751 0.2335656 0.233954 0.2343463 0.2347422 0.2351359 0.2355258 0.235915 0.2363058 0.2367001
 0.2370978 0.2374921 0.2378796 0.2382677 0.2386621 0.2390575 0.23945 0.2398423 0.2402357 0.2406298
 0.2410275 0.2414276 0.2418237 0.2422166 0.2426134 0.2430139 0.2434138 0.2438161 0.2442202 0.2446175
 0.2450064 0.2453942 0.2457835 0.2461731 0.2465661 0.2469608 0.2473482 0.2477271 0.2481004 0.2484584
 0.248778 0.2490066 0.2489947 0.248421 0.2467491 0.2432357 0.2370716 0.2276993 0.2151438 0.200114
 0.1838105 0.1675523 0.1524163 0.1390854 0.1279258 0.1191267 0.1127992 0.1090665 0.1081384 0.1104116
 0.1165982 0.1273001 0.1414648 0.1550569 0.1625707 0.1611966 0.1533657 0.144546 0.1387926 0.1367615
 0.1370902 0.1384319 0.1402508 0.1426682 0.1460015 0.1502898 0.1552457 0.1607238 0.1669933 0.1743295
 0.1824838 0.1907718 0.1986458 0.2060468 0.213209 0.2202386 0.2269491 0.2330422 0.2383408 0.2428484
 0.2466835 0.2500068 0.2529619 0.2556445 0.2581177 0.260416 0.2624999 0.264237 0.2654823 0.2661957
 0.2664917 0.2665824 0.2666621 0.2668273 0.267092 0.2674476 0.2678878 0.2683998 0.2689669 0.2695756
 0.2702122 0.270864 0.2715247 0.2721858 0.2728285 0.273437 0.2740102 0.274552 0.2750645 0.2755536
 0.2760258 0.276483 0.2769275 0.2773643 0.2777945 0.2782175 0.2786373 0.2790543 0.2794566 0.2798325
 0.2801839 0.2805198 0.2808458 0.2811637 0.2814723 0.2817708 0.2820649 0.2823639 0.2826684 0.2829709
 0.2832665 0.2835538 0.2838323 0.2841063 0.2843837 0.2846647 0.2849415 0.2852103 0.2854738 0.2857347
 0.2859942 0.2862554 0.2865213 0.2867914 0.2870621 0.2873294 0.2875937 0.2878644 0.2881496 0.2884432
 0.2887322 0.2890141 0.2892973 0.289587 0.289883 0.2901852 0.2904927 0.2908013 0.2911077 0.2914084
 0.2916984 0.2919723 0.2922298 0.2924777 0.2927289 0.2929972 0.2932857 0.2935833 0.293878 0.2941685
 0.2944606 0.2947595 0.2950665 0.2953781 0.2956891 0.2960055 0.2963417 0.2967016 0.2970727 0.2974429
 0.297812 0.2981841 0.2985617 0.2989467 0.2993382 0.2997269 0.3001048 0.3004771 0.300864 0.3012837
 0.3017341 0.3021896 0.302623 0.3030322 0.3034368 0.3038571 0.3043016 0.3047591 0.3051916 0.3055589
 0.3058719 0.3062038 0.3066244 0.3071336 0.3076737 0.3081893 0.3086634 0.3091075 0.3095363 0.3099511
 0.3103417 0.3106984 0.3110327 0.311388 0.3118126 0.3123087 0.3128226 0.313301 0.3137361 0.3141482
 0.3145523 0.3149518 0.3153287 0.3156316 0.3158261 0.3159823 0.3162577 0.3167501 0.3173906 0.3180154
 0.3185282 0.3189563 0.3193625 0.3197649 0.3201532 0.3205014 0.3207234 0.320715 0.3205372 0.3204849
 0.3208452 0.3216069 0.3224937 0.3232479 0.3238038 0.3242269 0.324596 0.3249494 0.3252629 0.3254541
 0.3254683 0.3254053 0.3255075 0.3259414 0.3266113 0.3272644 0.3277586 0.328142 0.328513 0.3289054
 0.3292733 0.3294681 0.3293006 0.3288001 0.3283907 0.3286167 0.3296147 0.3309577 0.3320813 0.3327849
 0.3332349 0.3335742 0.3337124 0.3334959 0.332897 0.3320276 0.3311937 0.3309439 0.3317105 0.3332612
 0.3347933 0.3357372 0.3362453 0.3367882 0.3375357 0.338285 0.3387941 0.3390026 0.3389805 0.3387768
 0.3383994 0.3379925 0.3379345 0.3385654 0.3397909 0.3411109 0.3420922 0.3427064 0.3431258 0.343218
 0.3424201 0.340405 0.3379509 0.3367444 0.3378833 0.3407214 0.3435663 0.3453514 0.3462194 0.3467308
 0.3471354 0.3473015 0.3467043 0.3445973 0.3410277 0.3377258 0.3370575 0.339694 0.3438599 0.3470525
 0.3479525 0.3466977 0.3442514 0.34196 0.3410742 0.3420663 0.3444272 0.3471866 0.3494999 0.3508792
 0.3512211 0.3507555 0.3499505 0.349389 0.3494023 0.3495719 0.3489883 0.3474299 0.3457895 0.3447018
 0.3433862 0.3409293 0.3383247 0.3378547 0.3402624 0.3436714 0.3457588 0.3461314 0.3459089 0.345478
 0.3435714 0.3389418 0.3326723 0.3281472 0.328151 0.3320909 0.3365887 0.3387989 0.3386553 0.3379078
 0.3376526 0.3371692 0.334992 0.3309788 0.3271138 0.3257328 0.3269072 0.3283396 0.3279105 0.3251821
 0.3202925 0.3133948 0.3063792 0.3032446 0.3065661 0.3142727 0.3214692 0.3246621 0.3228605 0.3161144
 0.305829 0.2962362 0.2925027 0.2959771 0.3026173 0.3068938 0.3061487 0.3007312 0.2917391 0.2804912
 0.2696513 0.2629128 0.2626311 0.2679276 0.274931 0.2785295 0.2749896 0.2649083 0.2538641 0.248232
 0.2492571 0.2522863 0.2522528 0.2484223 0.243353 0.2393444 0.2371358 0.2364112 0.2361891 0.2355707
 0.2344479 0.2323094 0.2269589 0.2170176 0.2057479 0.199342 0.2005084 0.2062556 0.2126504 0.2187182
 0.2243041 0.2272896 0.22587 0.2222017 0.2210317 0.2246397 0.2306667 0.2351121 0.236383 0.2359305
 0.2355831 0.23532 0.2342049 0.2328129 0.2332887 0.2366251 0.2410887 0.2441357 0.245036 0.2448372
 0.2445455 0.2442997 0.2438738 0.2431085 0.2419181 0.2403349 0.2385081 0.2365027 0.2342849 0.2319706
 0.2297267 0.2271978 0.2235277 0.2186831 0.2145566 0.2136526 0.2163853 0.2207722 0.2250369 0.2287493
 0.2306298 0.2277155 0.2191609 0.2095864 0.2059162 0.2107449 0.2203076 0.2287422 0.232732 0.2319181
 0.2269322 0.2191421 0.2121266 0.2110551 0.2187256 0.2326663 0.2473375 0.2587703 0.266091 0.2694936
 0.2688264 0.2646533 0.2594281 0.2565753 0.2582901 0.2642395 0.2719242 0.27779 0.2787511 0.2747353
 0.2704964 0.2726575 0.2828972 0.2954742 0.3034814 0.3061078 0.3075407 0.3103964 0.31348 0.3155019
 0.3176693 0.3215746 0.3264781 0.3298779 0.3297194 0.3252638 0.3170799 0.3076415 0.3009517 0.2994899
 0.3016349 0.3036382 0.3035033 0.301095 0.2958392 0.2877726 0.2805153 0.2793497 0.2852812 0.2936176
 0.2993359 0.3017461 0.3030416 0.3041608 0.3036158 0.2999955 0.2945806 0.2907504 0.2906449 0.2930759
 0.2952299 0.2955658 0.2940694 0.290612 0.2848974 0.2781191 0.2730922 0.2718253 0.2734854 0.2753482
 0.2754661 0.2739767 0.2721881 0.2711522 0.2711421 0.2718471 0.2728716 0.2743946 0.277242 0.2818044
 0.2870732 0.2914734 0.2946529 0.2977716 0.3019057 0.3067163 0.3108817 0.313475 0.3147365 0.3157215
 0.3173486 0.3196459 0.3217452 0.322654 0.3222109 0.3213263 0.3211563 0.3220326 0.3233481 0.3244327
 0.3252555 0.3262606 0.3278289 0.3299769 0.3323218 0.3342941 0.3356364 0.3367307 0.3381951 0.3401295
 0.3419918 0.3432531 0.3439428 0.3444522 0.3449884 0.3453831 0.3453801 0.3449733 0.3444362 0.3440902
 0.3440838 0.3443519 0.3447137 0.3449984 0.3451321 0.3451542 0.3451637 0.3452553 0.3455161 0.3460491
 0.346927 0.3480986 0.3493812 0.3505828 0.3516086 0.352439 0.3530531 0.3534093 0.3534741 0.3532272
 0.352644 0.3516976 0.3503653 0.3486069 0.3463663 0.3436806 0.3408674 0.3385743 0.3375171 0.3380383
 0.3398639 0.3422908 0.3446271 0.3465116 0.3479235 0.3489997 0.3498715 0.3506132 0.3512588 0.3518236
 0.352323 0.352784 0.3532361 0.3536833 0.3540974 0.3544456 0.354721 0.3549392 0.3551099 0.3552173
 0.3552282 0.3551156 0.3548716 0.3545036 0.3540242 0.3534362 0.3527189 0.3518349 0.3507686 0.349562
 0.3483014 0.3470634 0.345868 0.34468 0.3434544 0.3421679 0.3407883 0.3392348 0.3374372 0.3354592
 0.3335019 0.3317277 0.3301077 0.3284783 0.3267063 0.3247508 0.3226048 0.3202477 0.3176609 0.3148461
 0.3118152 0.3085802 0.3051583 0.3015813 0.2979051 0.2942054 0.2905563 0.2870077 0.2835817 0.2802736
 0.2770331 0.2737433 0.2702305 0.2663099 0.2618363 0.2567269 0.2509639 0.2446002 0.2377725 0.2306964
 0.2236297 0.216826 0.2105101 0.2048751 0.200077 0.1962241 0.1933719 0.1915349 0.1907049 0.190863
 0.1919753 0.1939818 0.1967896 0.2002691 0.2042535 0.2085474 0.212948 0.2172745 0.2214088 0.2253284
 0.2290887 0.2327478 0.2363013 0.2396958 0.2428878 0.2458667 0.2486294 0.2511597 0.2534429 0.2554911
 0.2573433 0.2590439 0.2606172 0.2620546 0.2633208 0.2643731 0.2651845 0.2657617 0.2661487 0.2664165
 0.2666427 0.2668956 0.2672292 0.2676884 0.2683109 0.269124 0.2701419 0.2713634 0.272766 0.2743052
 0.2759328 0.277621 0.2793735 0.2812144 0.2831685 0.2852447 0.2874295 0.2896868 0.2919589 0.294164
 0.2962042 0.2979906 0.2994705 0.3006358 0.301506 0.3021052 0.3024527 0.3025709 0.3024904 0.3022457
 0.3018684 0.3013837 0.3008068 0.3001374 0.2993604 0.2984588 0.2974274 0.2962753 0.295011 0.2936255
 0.2920952 0.2904055 0.2885715 0.2866433 0.2847059 0.2828721 0.2812563 0.2799354 0.2789243 0.2781788
 0.2776231 0.2771789 0.2767716 0.2763175 0.2757242 0.2749195 0.2738736 0.2725904 0.2710896 0.269397
 0.2675408 0.2655456 0.2634333 0.2612281 0.2589577 0.2566469 0.2543027 0.2519075 0.2494467 0.2469506
 0.2444924 0.2421395 0.2399169 0.2378131 0.2358009 0.2338547 0.2319631 0.2301269 0.2283469 0.2266254
 0.224976 0.2234184 0.2219649 0.2206185 0.219377 0.2182353 0.2171906 0.2162424 0.2153814 0.2145888
 0.2138506 0.2131632 0.2125329 0.2119874 0.2115631 0.2112516 0.2109657 0.2105847 0.2100336 0.2093251
 0.20855 0.2078395 0.2073199 0.2070763 0.2071148 0.207324 0.2074897 0.2073887 0.2068776 0.2059056
 0.2044824 0.2026601 0.2005261 0.1982037 0.1958591 0.1936745 0.1917845 0.1902426 0.1890391 0.1881158
 0.1873797 0.1867592 0.1862614 0.1859643 0.1859492 0.1862111 0.1865985 0.1868815 0.1869495 0.1869304
 0.1870761 0.1875486 0.1883262 0.189255 0.190152 0.1908877 0.1914051 0.1916916 0.1917695 0.1917063
 0.1915843 0.1914532 0.1913268 0.1911915 0.190999 0.1906899 0.1902384 0.1896444 0.188901 0.1880048
 0.1869692 0.1858055 0.1845227 0.1831398 0.1816525 0.1800316 0.1783326 0.1767821 0.1756944 0.1752933
 0.17559 0.1763797 0.1773804 0.1784152 0.1794236 0.1803178 0.1809787 0.181463 0.1820987 0.1832657
 0.185071 0.1872352 0.1892857 0.1908621 0.1918384 0.1922237 0.1920658 0.1914421 0.1904131 0.1889852
 0.1871962 0.1851653 0.1829926 0.1807267 0.1784626 0.1763306 0.1744063 0.1727341 0.1713421 0.1702321
 0.1694604 0.1687526 0.1665404 0.1605084 0.1509079 0.1427055 0.1418422 0.1488277 0.1580121 0.1636352
 0.1647056 0.163628 0.1624052 0.1614747 0.1607675 0.1603575 0.1602946 0.1604679 0.1606549 0.160626
 0.160284 0.1596462 0.1585893 0.1566165 0.1528525 0.1463571 0.1368177 0.1251945 0.113523 0.1038382
 0.09716369 0.0932917 0.09122971 0.08990023 0.08875279 0.08793817 0.08794791 0.08911378 0.09142202 0.09465472
 0.098545 0.1027583 0.106841 0.1103543 0.1131035 0.1151563 0.1166332 0.1175756 0.1180075 0.1179997
 0.1176386 0.1170003 0.1161536 0.1151305 0.1139058 0.1124556 0.1108509 0.1092916 0.1080216 0.1071713
 0.1066789 0.1063869 0.1061872 0.1060491 0.1059664 0.1059353 0.1059538 0.1060114 0.1061011 0.106233
 0.1064045 0.1065769 0.1067128 0.1068169 0.1069162 0.1070146 0.1070692 0.1070223 0.1068835 0.1067442
 0.1066284 0.1063573 0.1056843 0.1045985 0.1034291 0.1026253 0.1024471 0.1028224 0.1034376 0.1039673
 0.1042703 0.1044053 0.1044837 0.10451</values></Ydata></ScSm><ScRf><Ydata ylabel="Single channel"><values byteorder="INTEL" format="FLOAT32" numvalues="1820"> 0.0697074 0.06983554 0.06995393 0.07006068 0.07015614 0.0702493 0.07035423 0.07047686 0.07060958 0.070739
 0.07085628 0.07096139 0.07105858 0.07114841 0.07122932 0.07130957 0.07140791 0.07153554 0.07168122 0.0718178
 0.07192391 0.07200357 0.07208605 0.07219648 0.07232121 0.07241101 0.07242708 0.07238229 0.07233351 0.07233156
 0.07238915 0.07250935 0.07271621 0.07299919 0.07323951 0.07328779 0.07315014 0.07301222 0.07303303 0.07318655
 0.07333969 0.07340027 0.07335079 0.07323629 0.07318832 0.07338539 0.07388993 0.07451352 0.07487583 0.07462636
 0.07367815 0.07233068 0.07119676 0.07088355 0.07155536 0.07274987 0.07372348 0.07405196 0.07386149 0.07350963
 0.07321239 0.07303843 0.07307478 0.07341319 0.07399809 0.07456525 0.07474467 0.07430482 0.07341682 0.07262154
 0.07238621 0.07274132 0.07345217 0.07430258 0.07488166 0.07437027 0.07226886 0.06950277 0.06813271 0.06944893
 0.07261942 0.07555484 0.07681105 0.07635207 0.07494307 0.07347548 0.07273215 0.07312083 0.07440858 0.07595325
 0.077213 0.07788897 0.07779003 0.07692397 0.07567695 0.0746493 0.07432196 0.0749175 0.07630923 0.07788376
 0.07878707 0.07859775 0.07764255 0.07657368 0.07588911 0.07590672 0.07678762 0.07834165 0.08004992 0.08144922
 0.08237123 0.08283445 0.0829284 0.08279759 0.08257177 0.08234708 0.08228394 0.08252367 0.08290678 0.08300784
 0.08261044 0.08200428 0.08169367 0.08187763 0.08227967 0.08248062 0.08233383 0.08188429 0.08094177 0.07917435
 0.07679166 0.07465181 0.07342256 0.0731129 0.07361906 0.07500746 0.07685407 0.0780452 0.07790007 0.07709141
 0.07691839 0.07790187 0.07945909 0.08074979 0.08149008 0.08199547 0.08268858 0.08362348 0.08436453 0.08430765
 0.08329967 0.08202557 0.08155318 0.08229807 0.08361799 0.08460087 0.08502138 0.08530813 0.08578794 0.08621377
 0.08598292 0.08478424 0.08313856 0.08221463 0.08286507 0.0847815 0.086656 0.08716905 0.08592816 0.08368111
 0.08168989 0.08082334 0.08122234 0.08266567 0.08487882 0.087392 0.08946401 0.09045941 0.0902876 0.08938794
 0.08825006 0.08695631 0.08535464 0.08376977 0.08319028 0.08434328 0.08675906 0.0891449 0.0905776 0.09101528
 0.09077108 0.08988597 0.08821132 0.08605903 0.08449271 0.08453697 0.08600792 0.08756214 0.08812536 0.08789614
 0.087731 0.08797741 0.0882877 0.08833425 0.08829941 0.08861466 0.08940683 0.0903326 0.09093995 0.09108374
 0.0909567 0.09082036 0.0907575 0.09062481 0.09027253 0.08987741 0.0899253 0.09069807 0.0918936 0.09292921
 0.09351572 0.09377185 0.09386775 0.09373677 0.09318668 0.09227297 0.09147963 0.09137415 0.09205489 0.09307577
 0.09392026 0.09438766 0.09454218 0.09451382 0.09441028 0.09429137 0.09418693 0.09416912 0.09433771 0.09468319
 0.09505124 0.0952967 0.09540196 0.09541545 0.09535307 0.09520669 0.09501053 0.09485708 0.0948366 0.09496646
 0.09519094 0.09543931 0.09565434 0.0957808 0.09578542 0.09569933 0.09559809 0.09553164 0.09550365 0.09551376
 0.09557827 0.09569855 0.09583667 0.09594228 0.09599572 0.0960122 0.09600995 0.09599243 0.09596191 0.09593535
 0.09594023 0.09599541 0.09609132 0.09619443 0.09628662 0.09638898 0.09652065 0.09664731 0.09670852 0.09669201
 0.09664865 0.09663637 0.09667422 0.09674612 0.09682339 0.09687593 0.09687696 0.09682073 0.09674651 0.09672806
 0.09681715 0.09700431 0.09724358 0.09749245 0.09771582 0.09788521 0.09799996 0.09808837 0.09817169 0.09824435
 0.09829739 0.09834553 0.09842435 0.09856284 0.0987553 0.09896109 0.09913819 0.0992709 0.09936692 0.09945025
 0.09955803 0.09970929 0.0998676 0.09997049 0.1000086 0.1000429 0.1001298 0.1002564 0.100364 0.1004196
 0.1004477 0.1004968 0.1005871 0.100698 0.1008004 0.1008902 0.1009881 0.1011101 0.1012367 0.101318
 0.1013217 0.1012732 0.1012321 0.1012308 0.101258 0.1012985 0.1013586 0.1014434 0.1015303 0.101583
 0.1015889 0.1015725 0.1015675 0.1015791 0.1015816 0.1015524 0.1014975 0.1014421 0.1014059 0.1013915
 0.1013871 0.1013754 0.1013439 0.1012904 0.1012212 0.1011439 0.1010643 0.10099 0.1009388 0.1009328
 0.1009687 0.1009957 0.1009448 0.1007921 0.1005855 0.100401 0.1002777 0.1001972 0.1001136 0.09999583
 0.09984536 0.09968632 0.09954213 0.09942025 0.09931258 0.0992085 0.09911025 0.09903648 0.09900163 0.09898734
 0.09894574 0.09884404 0.0986992 0.09855889 0.09845537 0.09838869 0.09834355 0.09830721 0.09827617 0.09825765
 0.09825943 0.09827273 0.09827507 0.09825696 0.0982355 0.09823795 0.09828147 0.09836712 0.09847586 0.0985707
 0.09862273 0.09864241 0.09867138 0.0987393 0.09884042 0.09895392 0.09907166 0.09919945 0.09934187 0.09949721
 0.09966487 0.09984954 0.1000558 0.1002796 0.1005072 0.1007242 0.1009283 0.1011336 0.1013603 0.101618
 0.1018992 0.1021861 0.1024636 0.1027294 0.1029913 0.1032587 0.1035349 0.1038201 0.1041161 0.1044234
 0.1047362 0.1050466 0.1053534 0.1056623 0.105979 0.1063043 0.1066347 0.1069682 0.1073113 0.1076744
 0.1080533 0.108419 0.1087393 0.1090144 0.1092799 0.1095746 0.1099096 0.1102643 0.1106022 0.1108965
 0.1111529 0.111407 0.111688 0.1119907 0.112294 0.1125984 0.1129304 0.113303 0.1136865 0.1140271
 0.1142957 0.1145138 0.1147296 0.1149682 0.1152129 0.1154357 0.1156368 0.1158411 0.116065 0.1163013
 0.1165419 0.1167956 0.1170714 0.1173546 0.1176167 0.1178463 0.1180552 0.1182558 0.1184429 0.1186001
 0.118719 0.1188108 0.1189032 0.1190201 0.1191609 0.1193064 0.1194452 0.1195865 0.1197442 0.1199219
 0.1201192 0.1203412 0.1205886 0.1208455 0.1210938 0.1213413 0.1216154 0.1219204 0.1222174 0.1224632
 0.122659 0.1228405 0.123033 0.1232376 0.123457 0.1237065 0.1239936 0.1243026 0.1246064 0.1248891
 0.1251585 0.1254391 0.1257455 0.1260581 0.1263341 0.1265489 0.1267208 0.1268942 0.1271045 0.1273585
 0.1276398 0.1279249 0.1281972 0.1284459 0.1286561 0.1288106 0.1289093 0.1289759 0.1290315 0.1290641
 0.1290346 0.1289104 0.128682 0.1283484 0.1279016 0.1273351 0.1266684 0.1259617 0.125305 0.1247917
 0.1244924 0.1244454 0.1246554 0.1250894 0.1256749 0.1263129 0.1269047 0.1273688 0.1276394 0.1276666
 0.1274332 0.126967 0.1263279 0.1255804 0.1247783 0.1239609 0.123158 0.1224077 0.121787 0.1214193
 0.121438 0.1219354 0.1229292 0.1243473 0.1260262 0.12775 0.1293333 0.130692 0.1318409 0.1328348
 0.1337198 0.1345278 0.1352869 0.1360175 0.1367206 0.1373858 0.1380091 0.138595 0.1391416 0.1396334
 0.1400509 0.1403798 0.1406164 0.1407711 0.1408668 0.1409242 0.1409541 0.1409634 0.1409572 0.1409214
 0.1408141 0.1405875 0.1402208 0.1397351 0.1391965 0.1387217 0.1384769 0.1386385 0.1393125 0.140464
 0.1419214 0.1434646 0.144917 0.1461787 0.1472097 0.148016 0.148643 0.1491547 0.1496038 0.1500189
 0.1504111 0.1507845 0.1511422 0.1514876 0.1518254 0.1521615 0.1525015 0.1528474 0.1531931 0.1535285
 0.1538509 0.1541704 0.1545029 0.1548559 0.1552203 0.155578 0.15592 0.1562553 0.1565965 0.1569411
 0.157274 0.1575878 0.1578917 0.1582012 0.158525 0.1588629 0.1592061 0.159541 0.1598572 0.160155
 0.1604426 0.160726 0.161005 0.1612786 0.1615496 0.1618229 0.1621021 0.1623875 0.1626764 0.162963
 0.1632406 0.1635048 0.1637562 0.1640013 0.1642489 0.164504 0.1647641 0.1650234 0.1652794 0.1655359
 0.1657976 0.1660654 0.1663348 0.1666002 0.1668584 0.1671088 0.1673532 0.1675947 0.1678371 0.1680818
 0.1683289 0.1685774 0.1688263 0.1690741 0.1693212 0.1695709 0.169826 0.1700844 0.1703413 0.1705935
 0.1708412 0.1710863 0.1713304 0.1715756 0.1718235 0.1720731 0.1723193 0.1725565 0.1727829 0.1730039
 0.1732282 0.1734617 0.1737039 0.1739492 0.1741921 0.1744318 0.1746703 0.1749088 0.1751468 0.1753843
 0.1756214 0.1758575 0.1760926 0.1763292 0.1765718 0.1768226 0.1770771 0.1773257 0.177562 0.1777897
 0.1780178 0.1782509 0.1784869 0.1787235 0.1789613 0.1792007 0.1794404 0.1796782 0.1799131 0.1801457
 0.180378 0.1806118 0.1808478 0.1810848 0.1813202 0.1815528 0.1817853 0.182021 0.1822594 0.1824964
 0.1827303 0.1829619 0.1831924 0.183423 0.1836568 0.1838958 0.1841379 0.1843792 0.184618 0.1848543
 0.1850889 0.1853216 0.1855517 0.1857809 0.186014 0.1862536 0.1864977 0.1867435 0.1869899 0.1872363
 0.1874816 0.1877262 0.1879704 0.1882128 0.1884541 0.1886972 0.1889425 0.1891876 0.1894316 0.1896763
 0.1899237 0.1901761 0.1904343 0.1906936 0.1909478 0.1911965 0.1914443 0.1916934 0.191942 0.1921862
 0.1924208 0.1926446 0.1928624 0.1930808 0.1933022 0.1935282 0.1937609 0.1939979 0.1942343 0.1944693
 0.1947054 0.1949447 0.1951891 0.1954399 0.1956942 0.1959473 0.196198 0.196446 0.1966905 0.1969339
 0.1971816 0.1974353 0.1976942 0.1979592 0.1982281 0.1984936 0.1987535 0.1990122 0.1992721 0.1995315
 0.1997908 0.2000505 0.2003092 0.2005686 0.2008324 0.2010998 0.2013686 0.2016393 0.2019093 0.2021734
 0.2024343 0.2027008 0.2029736 0.2032467 0.2035182 0.2037881 0.2040555 0.2043243 0.2046005 0.204881
 0.2051603 0.2054405 0.2057234 0.2060038 0.2062797 0.2065537 0.2068234 0.2070864 0.2073482 0.2076116
 0.2078712 0.2081243 0.2083729 0.2086121 0.208828 0.2089778 0.2089316 0.2084111 0.2069606 0.2039571
 0.198727 0.1908069 0.1802186 0.1675567 0.1538315 0.1401534 0.1274263 0.1162195 0.1068372 0.09943731
 0.09411213 0.09096342 0.09016518 0.09204932 0.09721489 0.1061692 0.1180276 0.1294005 0.1356699 0.1344887
 0.127906 0.1205072 0.1156835 0.1139764 0.1142403 0.115347 0.1168497 0.1188538 0.1216282 0.1252069
 0.1293493 0.1339312 0.1391719 0.1452948 0.1520903 0.1589912 0.165547 0.1717128 0.1776842 0.1835485
 0.1891494 0.1942358 0.1986556 0.2024075 0.205591 0.2083451 0.2107923 0.2130113 0.2150526 0.2169465
 0.2186645 0.2200995 0.2211278 0.2217096 0.2219364 0.2219872 0.2220277 0.2221395 0.2223341 0.222606
 0.2229514 0.2233609 0.2238212 0.2243215 0.224848 0.2253849 0.2259227 0.2264543 0.2269683 0.2274571
 0.2279229 0.2283685 0.2287928 0.2291972 0.2295849 0.2299577 0.2303201 0.2306788 0.2310345 0.2313843
 0.2317298 0.2320713 0.2324007 0.2327091 0.2329966 0.2332679 0.233529 0.233788 0.2340495 0.2343105
 0.2345681 0.2348248 0.2350813 0.2353346 0.2355837 0.2358289 0.2360682 0.236302 0.2365343 0.236768
 0.2370028 0.2372392 0.2374783 0.2377186 0.2379587 0.2381997 0.2384412 0.2386812 0.2389185 0.2391535
 0.2393878 0.2396267 0.2398757 0.240134 0.2403971 0.2406644 0.2409355 0.241206 0.2414732 0.2417406
 0.242012 0.2422878 0.2425678 0.2428499 0.243125 0.2433818 0.2436169 0.2438381 0.2440585 0.244289
 0.2445298 0.2447726 0.245011 0.2452472 0.2454859 0.2457292 0.2459773 0.2462299 0.2464865 0.2467503
 0.2470257 0.2473085 0.2475883 0.2478617 0.2481362 0.248419 0.2487103 0.2490075 0.2493058 0.2495962
 0.2498724 0.2501408 0.2504215 0.2507334 0.251075 0.2514202 0.2517433 0.2520441 0.2523425 0.252654
 0.2529804 0.2533108 0.2536193 0.25388 0.2541023 0.2543413 0.2546509 0.2550332 0.2554413 0.2558276
 0.2561771 0.2565014 0.2568131 0.2571113 0.2573875 0.2576385 0.2578796 0.2581465 0.2584721 0.25885
 0.2592334 0.2595819 0.2598954 0.2601928 0.2604845 0.2607727 0.261045 0.2612615 0.2613946 0.2614999
 0.2617028 0.2620797 0.2625732 0.2630525 0.2634417 0.2637649 0.2640752 0.2643887 0.2646933 0.2649595
 0.2651115 0.2650682 0.2648913 0.2648318 0.2651246 0.2657536 0.2664862 0.267108 0.2675611 0.2678954
 0.2681769 0.2684451 0.2686877 0.2688369 0.2688426 0.2687849 0.268865 0.2692213 0.2697722 0.2703048
 0.2706989 0.270995 0.2712764 0.2715756 0.2718573 0.271997 0.2718348 0.271394 0.2710276 0.2711875
 0.271987 0.2730722 0.2739763 0.2745333 0.2748812 0.2751373 0.2752251 0.2750183 0.2744983 0.2737608
 0.2730579 0.2728412 0.273467 0.2747412 0.2759963 0.2767593 0.2771573 0.2775842 0.2781868 0.2788012
 0.279224 0.2793974 0.2793764 0.2792047 0.2788913 0.2785523 0.2784977 0.2790127 0.280027 0.2811291
 0.2819534 0.2824702 0.2828227 0.2829056 0.2822545 0.2805975 0.2785783 0.2775912 0.2785438 0.280903
 0.2832727 0.2847722 0.2855177 0.2859708 0.2863365 0.286505 0.2860408 0.2843242 0.2813939 0.2786872
 0.2781689 0.2803935 0.283883 0.2865606 0.2873369 0.2863298 0.2843393 0.2824815 0.2817922 0.2826611
 0.2846671 0.2870085 0.2889878 0.2902002 0.2905558 0.2902396 0.2896386 0.2892402 0.2893224 0.2895368
 0.2891281 0.287916 0.2866424 0.2858303 0.2848291 0.2828851 0.2808303 0.2805635 0.2826988 0.2856724
 0.2875564 0.2880319 0.2880281 0.2878511 0.2864309 0.2827283 0.2776574 0.2740535 0.2742485 0.2777438
 0.2817047 0.2837449 0.2838131 0.2833846 0.2833875 0.283223 0.2816596 0.2785777 0.2756554 0.2748691
 0.2762752 0.2779225 0.2780133 0.2761699 0.2724918 0.2670978 0.2616063 0.2594477 0.2628371 0.2700139
 0.2767926 0.2801721 0.2792756 0.274113 0.265896 0.2583326 0.2559555 0.2599427 0.2667429 0.271513
 0.2719337 0.2683051 0.2615751 0.2529292 0.2448135 0.2406279 0.2425557 0.2498022 0.2587509 0.2645329
 0.263512 0.2561967 0.2479616 0.2450041 0.2485179 0.2539023 0.2561681 0.2546307 0.2518698 0.2502191
 0.2504814 0.2523613 0.2547987 0.2568057 0.2582271 0.2583497 0.2545145 0.2450585 0.2336902 0.2275153
 0.2297085 0.236968 0.2449103 0.2524799 0.2594728 0.2633693 0.2620187 0.2578866 0.2564716 0.2604347
 0.2670694 0.2717604 0.272669 0.271481 0.2703459 0.2693169 0.2674127 0.2653802 0.2657353 0.269629
 0.2750429 0.2789792 0.2804697 0.2805775 0.2803837 0.2800768 0.2795117 0.2786576 0.2775553 0.2763358
 0.2752133 0.2742494 0.2733051 0.2723163 0.2712233 0.2693628 0.2655205 0.2595083 0.2535132 0.2505877
 0.2514445 0.2540103 0.2564082 0.2583183 0.2584863 0.2536958 0.2429696 0.2313385 0.2263815 0.2309012
 0.2406932 0.2492695 0.2529849 0.251488 0.245532 0.2366271 0.2285767 0.2268067 0.2341841 0.248021
 0.2624978 0.2735887 0.2805847 0.2838272 0.2831617 0.2790939 0.2740833 0.2715676 0.2736029 0.2795159
 0.2864159 0.2905366 0.288875 0.2816685 0.2740341 0.2728697 0.2800131 0.289801 0.2953209 0.2956486
 0.2948263 0.2954457 0.2964332 0.2966084 0.2971672 0.2996775 0.3035079 0.3063577 0.3063211 0.3026845
 0.29591 0.2881883 0.2830934 0.2827495 0.2854778 0.2877198 0.2876931 0.285414 0.2804482 0.2728771
 0.266107 0.2650468 0.2705235 0.2780268 0.2828549 0.2844995 0.2851809 0.2858538 0.2850792 0.2814239
 0.2759981 0.2719712 0.2714666 0.2735636 0.2758174 0.2769053 0.276832 0.2754011 0.2722286 0.2683901
 0.2665645 0.2686532 0.2737427 0.278993 0.282247 0.283346 0.2833023 0.2829911 0.2826844 0.2822183
 0.2814249 0.280728 0.2811646 0.2832826 0.2861832 0.2883404 0.2893613 0.290306 0.2921969 0.2947703
 0.296883 0.2977786 0.2977534 0.2977785 0.2986247 0.3002285 0.3017538 0.3023296 0.3019084 0.3014242
 0.3019536 0.303688 0.3058579 0.3076133 0.3087341 0.3095114 0.3102626 0.3110634 0.3117137 0.3119063
 0.3116334 0.3114368 0.3120079 0.3134689 0.3152265 0.3165709 0.3172597 0.3174879 0.3174868 0.3173021
 0.3168997 0.3163488 0.3158363 0.3155233 0.315428 0.3154533 0.3154956 0.3155081 0.3154949 0.3154892
 0.3155326 0.3156449 0.3158127 0.3160141 0.3162336 0.3164423 0.3166013 0.316706 0.3167958 0.3168922
 0.3169498 0.3168868 0.3166422 0.316183 0.3154798 0.3145005 0.3132176 0.3115985 0.3096111 0.3073186
 0.3050379 0.3033761 0.3029799 0.3041214 0.3064805 0.3093282 0.3119441 0.3139257 0.3152217 0.3159769
 0.3163697 0.3165337 0.3165472 0.3164482 0.3162538 0.3159804 0.3156502 0.3152872 0.3149171 0.3145678
 0.3142596 0.3139915 0.3137394 0.3134677 0.3131436 0.3127471 0.3122765 0.311742 0.3111531 0.3105035
 0.3097662 0.3089117 0.3079435 0.3069158 0.3059052 0.3049621 0.3040851 0.3032339 0.302363 0.3014372
 0.300409 0.2992101 0.2978197 0.2963582 0.2950535 0.2940579 0.2933118 0.2926135 0.2917954 0.290808
 0.2896773 0.2884464 0.2871571 0.2858416 0.2845089 0.2831427 0.2817134 0.280191 0.278557 0.2768142
 0.2749833 0.2730923 0.2711688 0.2692283 0.2672503 0.2651553 0.2628102 0.2600613 0.2567725 0.252852
 0.2482724 0.2430939 0.2374744 0.2316408 0.2258297 0.2202385 0.2150194 0.2102978 0.2061879 0.2027906
 0.2001823 0.1984076 0.1974814 0.1974002 0.1981505 0.1997032 0.2019963 0.2049171 0.2083026 0.2119582
 0.2156799 0.2192768 0.2226118 0.2256474 0.2284411 0.2310673 0.2335404 0.2358171 0.2378533 0.2396372
 0.241174 0.2424675 0.2435266 0.2443795 0.2450718 0.2456507 0.2461525 0.2465946 0.2469729 0.2472717
 0.2474864 0.2476402 0.247775 0.2479268 0.2481115 0.2483303 0.2485839 0.2488823 0.2492443 0.2496885
 0.2502231 0.2508419 0.2515259 0.2522538 0.2530162 0.2538239 0.2547034 0.2556921 0.2568301 0.2581434
 0.2596253 0.2612337 0.2628983 0.2645258 0.2660092 0.267254 0.2682083 0.2688689 0.2692599 0.2694084
 0.2693402 0.2690874 0.2686864 0.2681652 0.2675396 0.2668256 0.2660447 0.265212 0.2643267 0.2633816
 0.2623841 0.2613636 0.2603557 0.2593779 0.2584265 0.257494 0.2565828 0.2556992 0.2548467 0.2540271
 0.2532394 0.2524784 0.2517418 0.2510347 0.2503581 0.2496948 0.2490063 0.2482429 0.2473591 0.2463303
 0.2451535 0.2438339 0.2423742 0.2407776 0.2390514 0.2372105 0.2352751 0.2332628 0.2311791 0.2290206
 0.2267803 0.2244526 0.2220512 0.2196343 0.217292 0.2150972 0.2130741 0.2112086 0.2094717 0.2078351
 0.2062814 0.2048008 0.2033826 0.2020199 0.2007155 0.1994726 0.1982883 0.1971658 0.1961204 0.1951683
 0.1943215 0.1935896 0.1929705 0.1924458 0.1919962 0.1916144 0.1913086 0.1911064 0.1910409 0.1911069
 0.1912384 0.1913456 0.1913739 0.191327 0.191251 0.1911949 0.1911758 0.19118 0.1911856 0.191158
 0.1910283 0.1907017 0.1900841 0.1890944 0.1876845 0.1858747 0.1837634 0.1815012 0.1792598 0.1771996
 0.1754312 0.1740041 0.172918 0.1721216 0.1715203 0.1710348 0.1706603 0.1704621 0.1705161 0.1708272
 0.1712657 0.1716238 0.1718008 0.1719165 0.1722016 0.1728011 0.1736947 0.1747471 0.1757966 0.1767272
 0.1774888 0.1780689 0.178478 0.1787537 0.1789331 0.1790162 0.1789836 0.17883 0.1785622 0.1781943
 0.1777502 0.1772366 0.176628 0.1759052 0.1750809 0.1741697 0.1731745 0.1720959 0.1709077 0.1695621
 0.1680991 0.1667295 0.165756 0.1654087 0.1657292 0.1665564 0.1676399 0.1688052 0.169974 0.1710444
 0.1718951 0.1725787 0.1734075 0.1747495 0.176721 0.1790681 0.1813371 0.183167 0.1844178 0.1850809
 0.1851882 0.1848051 0.183979 0.1826931 0.1809603 0.1789021 0.1766683 0.174379 0.1721756 0.1701922
 0.1684837 0.1670704 0.1659618 0.1651464 0.1646706 0.1642601 0.1623668 0.1566962 0.1474603 0.1395058
 0.1386663 0.1454767 0.1544321 0.1598996 0.16091 0.1598276 0.1586262 0.157732 0.1570577 0.1566554
 0.1565748 0.1567283 0.1569177 0.1569201 0.1566298 0.156056 0.1550756 0.153195 0.1495361 0.1431543
 0.133739 0.1222542 0.110729 0.1011822 0.09462759 0.09085873 0.0888831 0.087615 0.08650392 0.08572073
 0.08577846 0.08700769 0.08938001 0.09267575 0.09663862 0.1009346 0.1050966 0.1086785 0.1114936 0.1136187
 0.115169 0.1161716 0.1166475 0.1166815 0.1163775 0.1158164 0.1150598 0.1141311 0.1129987 0.1116328
 0.1101044 0.1086219 0.1074395 0.1066899 0.1063068 0.1061293 0.1060506 0.1060406 0.1060855 0.1061717
 0.106301 0.1064828 0.1067261 0.1070352 0.1073886 0.1077326 0.1080168 0.108222 0.1083467 0.108382
 0.1082955 0.1080494 0.1076661 0.1072463 0.1068377 0.1063009 0.1054214 0.1041912 0.1029175 0.1020265
 0.1017669 0.1020633 0.102598 0.1030425 0.1032579 0.1033124 0.103331 0.1033279 0.1031783 0.1027538
</values></Ydata></ScRf><Data_Parameters_AB><parameter name="DPF">1</parameter><parameter name="NPT">3497</parameter><parameter name="FXV">3996</parameter><parameter name="LXV">500</parameter><parameter name="CSF">1</parameter><parameter name="MXY">0.0747663900256157</parameter><parameter name="MNY">-0.0857519134879112</parameter><parameter name="DAT">17/01/2024</parameter><parameter name="TIM">13:13:43.339 (GMT+1)</parameter><parameter name="DXU">WN</parameter></Data_Parameters_AB><AB__Qtest><MainReport name="Quality Test Report"><Header><Line><Legend>Test result ok/not ok [1/0]: </Legend><Value>0</Value></Line><Line><Legend>Method file: </Legend><Value>C:\Users\Public\Documents\Bruker\OPUS_8.2.28\QT\IRBT_v3_default.QT</Value></Line></Header><Matrix><Line><Legend></Legend><Legend>min</Legend><Legend>max</Legend><Legend>measured</Legend></Line><Line><Value>Absorption (X-Range 1):</Value><Value>0.400000</Value><Value>2.000000</Value><Value>0.148701</Value></Line><Line><Value>Noise (X-Range 4):</Value><Value></Value><Value>0.000300</Value><Value>0.000026</Value></Line><Line><Value>Signal/Noise (X-Range 2):</Value><Value>200.000000</Value><Value></Value><Value>115.116092</Value></Line><Line><Value>Signal/Noise (X-Range 3):</Value><Value>40.000000</Value><Value></Value><Value>97.297377</Value></Line><Line><Value>Water vapour (X-Range 5):</Value><Value></Value><Value>0.000300</Value><Value>0.000018</Value></Line><Line><Value>Signal/Water (X-Range 2):</Value><Value>100.000000</Value><Value></Value><Value>166.434945</Value></Line><Line><Value>Signal/Water (X-Range 3):</Value><Value>20.000000</Value><Value></Value><Value>140.672632</Value></Line><Line><Value>Fringes (X-Range 6):</Value><Value></Value><Value>0.000100</Value><Value>0.000019</Value></Line></Matrix></MainReport></AB__Qtest><Data_Parameters_ScSm><parameter name="DPF">1</parameter><parameter name="NPT">1814</parameter><parameter name="FXV">3996.63438082617</parameter><parameter name="LXV">499.579297603271</parameter><parameter name="CSF">1</parameter><parameter name="MXY">0.355228185653687</parameter><parameter name="MNY">0.0830018073320389</parameter><parameter name="DAT">17/01/2024</parameter><parameter name="TIM">13:13:43.339 (GMT+1)</parameter><parameter name="DXU">WN</parameter></Data_Parameters_ScSm><Data_Parameters_ScRf><parameter name="DPF">1</parameter><parameter name="NPT">1820</parameter><parameter name="FXV">4004.34989121387</parameter><parameter name="LXV">495.721542409425</parameter><parameter name="CSF">1</parameter><parameter name="MXY">0.317487865686417</parameter><parameter name="MNY">0.0681327134370804</parameter><parameter name="DAT">17/01/2024</parameter><parameter name="TIM">13:13:17.479 (GMT+1)</parameter><parameter name="DXU">WN</parameter></Data_Parameters_ScRf><Optic_Parameters_Rf><parameter name="APR">0</parameter><parameter name="APT">Open</parameter><parameter name="BMS">KBr</parameter><parameter name="DTC">RT-DLaTGS_IR-Biotyper [Microplate reader]</parameter><parameter name="HPF">0</parameter><parameter name="LPF">10.0</parameter><parameter name="LPV">4000</parameter><parameter name="PGR">0</parameter><parameter name="RCH">Module port</parameter><parameter name="RDX">0</parameter><parameter name="SRC">MIR</parameter><parameter name="VEL">10.0</parameter><parameter name="SON">Off</parameter></Optic_Parameters_Rf><Acquisition_Parameters_Rf><parameter name="ADT">1</parameter><parameter name="AQM">DD</parameter><parameter name="CFE">0</parameter><parameter name="COR">0</parameter><parameter name="DEL">0</parameter><parameter name="DLY">0</parameter><parameter name="HFW">8000</parameter><parameter name="LFW">0</parameter><parameter name="NSR">32</parameter><parameter name="PLF">AB</parameter><parameter name="RES">6</parameter><parameter name="RGN">-1</parameter><parameter name="STR">0</parameter><parameter name="TCL">MakeCompatibleScalar (0, {WSV=1.000000, ARV=0});</parameter><parameter name="TDL">37</parameter><parameter name="RPO">0</parameter></Acquisition_Parameters_Rf><FT_-_Parameters_Rf><parameter name="APF">B3</parameter><parameter name="HFQ">500</parameter><parameter name="LFQ">4000</parameter><parameter name="NLI">0</parameter><parameter name="PHR">24</parameter><parameter name="PHZ">ML</parameter><parameter name="SPZ">NO</parameter><parameter name="ZFF">1</parameter></FT_-_Parameters_Rf><Optic_Parameters_><parameter name="APR">0</parameter><parameter name="APT">Open</parameter><parameter name="BMS">KBr</parameter><parameter name="CHN">Module port</parameter><parameter name="DTC">RT-DLaTGS_IR-Biotyper [Microplate reader]</parameter><parameter name="HPF">0</parameter><parameter name="LPF">10.0</parameter><parameter name="LPV">4000</parameter><parameter name="PGN">0</parameter><parameter name="RDX">0</parameter><parameter name="SRC">MIR</parameter><parameter name="VEL">10.0</parameter><parameter name="SON">Off</parameter></Optic_Parameters_><FT_-_Parameters_><parameter name="APF">B3</parameter><parameter name="HFQ">500</parameter><parameter name="LFQ">4000</parameter><parameter name="NLI">0</parameter><parameter name="PHR">24</parameter><parameter name="PHZ">ML</parameter><parameter name="SPZ">NO</parameter><parameter name="ZFF">1</parameter></FT_-_Parameters_><Acquisition_Parameters_><parameter name="ADT">1</parameter><parameter name="AQM">DD</parameter><parameter name="CFE">0</parameter><parameter name="COR">0</parameter><parameter name="DEL">0</parameter><parameter name="DLY">0</parameter><parameter name="HFW">8000</parameter><parameter name="LFW">0</parameter><parameter name="NSS">32</parameter><parameter name="PLF">AB</parameter><parameter name="RES">6</parameter><parameter name="SOT">0</parameter><parameter name="TCL">MakeCompatibleScalar (0, {WSV=1.000000, ARV=0});</parameter><parameter name="TDL">37</parameter><parameter name="SPO">0</parameter><parameter name="SGN">-1</parameter></Acquisition_Parameters_><Instrument_Parameters_Rf><parameter name="HFL">15801.365274</parameter><parameter name="LFL">0</parameter><parameter name="LWN">15801.365274</parameter><parameter name="ABP">32157</parameter><parameter name="SSP">1</parameter><parameter name="ARG">2</parameter><parameter name="ASG">2</parameter><parameter name="ASS">32</parameter><parameter name="GFW">16</parameter><parameter name="GBW">16</parameter><parameter name="BFW">0</parameter><parameter name="BBW">0</parameter><parameter name="PKA">9114</parameter><parameter name="PKL">4987</parameter><parameter name="PRA">9131</parameter><parameter name="PRL">5010</parameter><parameter name="P2A">1</parameter><parameter name="P2L">1</parameter><parameter name="P2R">1</parameter><parameter name="P2K">1</parameter><parameter name="DAQ">0</parameter><parameter name="AG2">1</parameter><parameter name="SSM">1</parameter><parameter name="RSN">46324</parameter><parameter name="CRR">0</parameter><parameter name="SRT">1705497197.479</parameter><parameter name="DUR">19.6449890136719</parameter><parameter name="TSC">30.9</parameter><parameter name="MVD">0.324511408805847</parameter><parameter name="AN1">0.226024131582678</parameter><parameter name="AN2">0</parameter><parameter name="VSN">2.485 Apr  4 2017</parameter><parameter name="SRN">0085</parameter><parameter name="CAM">0</parameter><parameter name="INS">IR-Biotyper</parameter><parameter name="FOC">69</parameter><parameter name="RDY">1</parameter><parameter name="ARS">32</parameter></Instrument_Parameters_Rf><Sample_Parameters_><parameter name="BLD"></parameter><parameter name="CNM">Admin</parameter><parameter name="CPY"></parameter><parameter name="DPM"></parameter><parameter name="EXP">IRBT_v3_32Scans.XPM</parameter><parameter name="LCT"></parameter><parameter name="SFM">Microplate, HTS-XT</parameter><parameter name="SNM">240117-1222-Cdiff_SCFA_1_C9_232112557_A7_29ccd1a8-33dd-4aa1-9ee2-27b0b60aa023.0</parameter><parameter name="XPP">C:\Users\Public\Documents\Bruker\OPUS_8.2.28\XPM</parameter><parameter name="IST">OK</parameter><parameter name="CPG">1252</parameter><parameter name="UID">f649c951-1b31-4700-89ff-a8aa14fbdd52</parameter></Sample_Parameters_><Instrument_Parameters_><parameter name="HFL">15801.365274</parameter><parameter name="LFL">0</parameter><parameter name="LWN">15801.365274</parameter><parameter name="ABP">32157</parameter><parameter name="SSP">1</parameter><parameter name="ASG">2</parameter><parameter name="ARG">2</parameter><parameter name="ASS">32</parameter><parameter name="GFW">16</parameter><parameter name="GBW">16</parameter><parameter name="BFW">0</parameter><parameter name="BBW">0</parameter><parameter name="PKA">10080</parameter><parameter name="PKL">4979</parameter><parameter name="PRA">10165</parameter><parameter name="PRL">5011</parameter><parameter name="P2A">1</parameter><parameter name="P2L">1</parameter><parameter name="P2R">1</parameter><parameter name="P2K">1</parameter><parameter name="DAQ">0</parameter><parameter name="AG2">1</parameter><parameter name="SSM">1</parameter><parameter name="RSN">23855</parameter><parameter name="CRR">0</parameter><parameter name="SRT">1705497223.34</parameter><parameter name="DUR">19.6449890136719</parameter><parameter name="TSC">30.9</parameter><parameter name="MVD">0.351327478885651</parameter><parameter name="AN1">0.226022227902343</parameter><parameter name="AN2">0</parameter><parameter name="VSN">2.485 Apr  4 2017</parameter><parameter name="SRN">0085</parameter><parameter name="CAM">0</parameter><parameter name="INS">IR-Biotyper</parameter><parameter name="FOC">69</parameter><parameter name="RDY">1</parameter></Instrument_Parameters_><History/></OPUSDataFile>
