<?xml version="1.0" encoding="UTF-8" ?>
<OPUSDataFile><AB><Ydata ylabel="Absorbance Units"><values byteorder="INTEL" format="FLOAT32" numvalues="3497"> -0.08324481 -0.08324186 -0.08324341 -0.08324902 -0.08325787 -0.08326857 -0.08327723 -0.08328437 -0.08328845 -0.08329201
 -0.08329735 -0.08330549 -0.08331908 -0.08333419 -0.08335036 -0.08336149 -0.08336507 -0.08335914 -0.08334202 -0.08331845
 -0.08328844 -0.08325993 -0.08323354 -0.08321558 -0.08320633 -0.08320843 -0.08322164 -0.08324461 -0.08327655 -0.08331279
 -0.08335235 -0.08338964 -0.0834241 -0.08345152 -0.08347251 -0.08348586 -0.0834932 -0.0834954 -0.08349483 -0.08349329
 -0.08349282 -0.08349504 -0.08350032 -0.08350938 -0.0835209 -0.08353483 -0.08354924 -0.0835638 -0.08357772 -0.08359087
 -0.08360392 -0.08361692 -0.08363059 -0.08364489 -0.08365954 -0.08367448 -0.08368885 -0.08370301 -0.08371764 -0.08373335
 -0.08375228 -0.08377352 -0.08379731 -0.0838207 -0.08384067 -0.08385506 -0.08386041 -0.08385898 -0.08385015 -0.08383954
 -0.08382895 -0.0838223 -0.08382124 -0.08382531 -0.08383504 -0.08384667 -0.08386001 -0.08387046 -0.08387778 -0.08387886
 -0.08387392 -0.083864 -0.08385015 -0.08383826 -0.08382962 -0.08383185 -0.08384493 -0.08387354 -0.08391453 -0.08396631
 -0.08402259 -0.0840767 -0.08412186 -0.08415006 -0.0841605 -0.08414873 -0.08412327 -0.08408493 -0.08404608 -0.08400997
 -0.08398362 -0.08396935 -0.08396453 -0.08396946 -0.08397651 -0.08398528 -0.08399175 -0.08399617 -0.08400064 -0.08400525
 -0.08401201 -0.08401985 -0.08402593 -0.08402979 -0.08402774 -0.084023 -0.08401825 -0.08401833 -0.08403067 -0.08405504
 -0.08409603 -0.08414422 -0.08419748 -0.08424243 -0.08427314 -0.08428429 -0.084272 -0.0842431 -0.08419742 -0.08414627
 -0.08409058 -0.0840401 -0.08399542 -0.08396579 -0.08395145 -0.08395872 -0.08398622 -0.08403035 -0.08408702 -0.08414046
 -0.08418633 -0.08420438 -0.08419823 -0.08416212 -0.08410826 -0.08404861 -0.08399128 -0.08394751 -0.08391766 -0.08390506
 -0.08390773 -0.08392636 -0.08395601 -0.08399691 -0.08403816 -0.08407865 -0.08410589 -0.08411808 -0.08411298 -0.08409031
 -0.08406054 -0.0840243 -0.08399287 -0.08396591 -0.08394703 -0.0839352 -0.08392867 -0.0839266 -0.0839261 -0.08392683
 -0.08392672 -0.08392647 -0.08392616 -0.08392613 -0.08392755 -0.08392756 -0.08392548 -0.08391702 -0.08389943 -0.08387451
 -0.083841 -0.08380783 -0.08377624 -0.08375303 -0.08373936 -0.08373474 -0.08373921 -0.08374897 -0.08376379 -0.08378017
 -0.08379763 -0.08381163 -0.08382123 -0.08381981 -0.08380785 -0.08378222 -0.08374623 -0.08370385 -0.08365858 -0.08361658
 -0.08357847 -0.08354693 -0.08352124 -0.08350136 -0.08348788 -0.08348115 -0.08348101 -0.08348826 -0.08349835 -0.08351104
 -0.0835196 -0.08352314 -0.08351914 -0.08350734 -0.0834903 -0.08346824 -0.08344472 -0.08341986 -0.08339581 -0.08337267
 -0.0833518 -0.08333343 -0.083319 -0.08330815 -0.08330113 -0.08329682 -0.08329401 -0.08329146 -0.08328751 -0.08328208
 -0.08327446 -0.08326548 -0.08325536 -0.08324443 -0.08323272 -0.08322088 -0.08320885 -0.08319831 -0.08318947 -0.08318332
 -0.08317998 -0.08317629 -0.08317211 -0.08316463 -0.08315458 -0.08314595 -0.08313894 -0.08313795 -0.08313975 -0.08313812
 -0.08313042 -0.08310664 -0.08307241 -0.08302931 -0.08298685 -0.08295549 -0.08293542 -0.08293224 -0.0829347 -0.08294018
 -0.08293731 -0.08292121 -0.08289193 -0.08284777 -0.08279727 -0.08274119 -0.08268605 -0.08263238 -0.08258142 -0.08253314
 -0.08248671 -0.08244224 -0.08240019 -0.08236094 -0.0823265 -0.08229674 -0.08227277 -0.08225322 -0.08223686 -0.08222071
 -0.08220108 -0.08217397 -0.08213403 -0.08208087 -0.08201057 -0.08193181 -0.08184625 -0.08176509 -0.08169295 -0.08163074
 -0.08158065 -0.08153263 -0.08148597 -0.08143082 -0.08136634 -0.0812908 -0.08120442 -0.08111288 -0.08101664 -0.08092227
 -0.08082913 -0.08073864 -0.08064862 -0.08055369 -0.0804526 -0.08033941 -0.08021671 -0.0800853 -0.07994822 -0.07980938
 -0.07966778 -0.07952368 -0.07937665 -0.0792257 -0.07907444 -0.07892421 -0.07877541 -0.0786296 -0.07847778 -0.07831948
 -0.07814336 -0.07794848 -0.0777308 -0.07749037 -0.07722957 -0.07694916 -0.07665554 -0.07635013 -0.07604249 -0.07573351
 -0.07543085 -0.07513387 -0.07484521 -0.07456309 -0.07428659 -0.07401319 -0.07374045 -0.07346606 -0.07318765 -0.07290486
 -0.07261778 -0.0723231 -0.07202176 -0.07170135 -0.07135969 -0.07098689 -0.07057966 -0.07015134 -0.06970219 -0.0692581
 -0.06881984 -0.06839626 -0.06798582 -0.06757937 -0.06717618 -0.06676802 -0.06635597 -0.06593915 -0.06551807 -0.06509422
 -0.06466532 -0.06423039 -0.06378311 -0.06331766 -0.06282822 -0.06230595 -0.06176022 -0.06118933 -0.06061702 -0.06005122
 -0.05950253 -0.05897725 -0.05846076 -0.05795268 -0.05743396 -0.05690281 -0.0563554 -0.05579191 -0.05522184 -0.05464566
 -0.05407177 -0.05349896 -0.05292636 -0.05235172 -0.05176747 -0.05117331 -0.05056365 -0.04994282 -0.04931397 -0.04868241
 -0.04805512 -0.04743291 -0.04681952 -0.04621037 -0.04560504 -0.04499676 -0.04438368 -0.04375977 -0.04312277 -0.04247386
 -0.04181223 -0.04114639 -0.04047705 -0.03980809 -0.03913947 -0.03846443 -0.03778291 -0.03709054 -0.0363895 -0.03568808
 -0.03498793 -0.03429931 -0.0336201 -0.03295123 -0.0322893 -0.03162998 -0.03097062 -0.03030706 -0.02963799 -0.02896043
 -0.02827701 -0.02758746 -0.0268972 -0.02620866 -0.02552178 -0.02483802 -0.02414968 -0.02345562 -0.02275285 -0.02204058
 -0.02132791 -0.02061533 -0.01991439 -0.01922469 -0.01854767 -0.01788129 -0.01721649 -0.0165515 -0.01587523 -0.01518908
 -0.01448952 -0.01378129 -0.01306989 -0.01235853 -0.01165364 -0.010953 -0.01025743 -0.00956302 -0.008867687 -0.008170468
 -0.007470254 -0.006768617 -0.006065388 -0.005363806 -0.004663977 -0.003971159 -0.003285815 -0.002611319 -0.001947743 -0.001292218
 -0.0006440617 4.739115E-06 0.0006545743 0.001312094 0.001976181 0.002647533 0.003323225 0.003997575 0.004667922 0.005326909
 0.005976107 0.006613329 0.007244039 0.007871382 0.008499519 0.009131914 0.009768116 0.01040925 0.01105168 0.01169518
 0.01233471 0.01296954 0.01359632 0.01421449 0.01482596 0.01543084 0.01603321 0.01663303 0.01723123 0.0178275
 0.01842061 0.01901075 0.01959805 0.02018246 0.02076399 0.02134247 0.0219172 0.02248941 0.02306036 0.02363032
 0.02420117 0.02476833 0.02533025 0.02588247 0.02642205 0.02695162 0.02747082 0.02798498 0.02849505 0.02900251
 0.02950749 0.03001187 0.0305158 0.03102572 0.03154169 0.03206706 0.03260038 0.03313555 0.03367084 0.0341969
 0.03471381 0.03521682 0.03570746 0.03618591 0.03665381 0.03711272 0.03756462 0.03801097 0.03845447 0.03889657
 0.03933997 0.03978631 0.04023538 0.0406881 0.04113987 0.04159016 0.04203542 0.042475 0.04291162 0.04334541
 0.04378047 0.04421648 0.044651 0.04508338 0.04550815 0.04592615 0.04633721 0.04674274 0.04714632 0.04754781
 0.04794872 0.04834821 0.04874548 0.04914131 0.04953588 0.04993039 0.05032589 0.05072168 0.05111819 0.05151268
 0.05190469 0.05229158 0.0526727 0.05304788 0.05341686 0.05378274 0.05414566 0.05450876 0.05487211 0.05523732
 0.05560428 0.05597335 0.05634411 0.05671574 0.05708696 0.05745423 0.05781691 0.05817176 0.05852038 0.05886331
 0.05920214 0.05953916 0.05987233 0.06020131 0.06052386 0.06083798 0.06114743 0.06145188 0.0617597 0.06207279
 0.06239223 0.06271926 0.06303991 0.06335346 0.06364152 0.06390428 0.0641394 0.0643502 0.06455599 0.06475856
 0.064977 0.06520557 0.06544125 0.0656753 0.06588993 0.06608518 0.06625131 0.06639946 0.06653436 0.06666801
 0.06680891 0.06696133 0.06712963 0.06731097 0.06750592 0.06770882 0.06791884 0.06813207 0.06834777 0.06856766
 0.06879179 0.06902343 0.06926206 0.06950186 0.06974053 0.06996024 0.07015988 0.07032385 0.07045693 0.07056107
 0.07064577 0.0707283 0.07081414 0.07091827 0.07103703 0.07117303 0.07131962 0.0714727 0.07163184 0.07179566
 0.07196609 0.07214463 0.07232565 0.07250921 0.07268477 0.07285088 0.07300512 0.07314717 0.07328764 0.07342723
 0.07357915 0.0737427 0.0739207 0.07410995 0.07429971 0.07448753 0.0746602 0.0748211 0.07496794 0.07511022
 0.07525806 0.07541966 0.07560641 0.07581849 0.07606082 0.07632522 0.07661106 0.07690566 0.07720622 0.07750079
 0.07778607 0.07806065 0.07832289 0.07858793 0.07885653 0.07914734 0.07946043 0.07979835 0.08015943 0.08053236
 0.08091843 0.08131564 0.08172871 0.08217168 0.08264096 0.08314308 0.08365564 0.08415718 0.0846203 0.08500987
 0.08532562 0.08554845 0.08571872 0.08584336 0.08597413 0.0861287 0.08632703 0.0865799 0.08686216 0.08717452
 0.08746831 0.08774054 0.0879523 0.08810326 0.08818721 0.08820837 0.08819258 0.08814444 0.08809748 0.08805024
 0.0880174 0.08799183 0.08796728 0.08793843 0.08789484 0.08783739 0.08776296 0.08767458 0.08757512 0.08745988
 0.08733094 0.08716998 0.08697416 0.08672065 0.08640327 0.08601826 0.08556205 0.08506255 0.0845209 0.08397871
 0.0834375 0.08292358 0.08243552 0.08197571 0.08154149 0.08112363 0.0807198 0.08031875 0.07992045 0.079518
 0.07911679 0.07871991 0.07833504 0.07797262 0.07762901 0.07730883 0.07699354 0.07667667 0.07634407 0.07598715
 0.07561555 0.0752271 0.07484899 0.07448374 0.07415511 0.07386521 0.0736189 0.07341537 0.07323527 0.07307532
 0.07290073 0.07271063 0.0724799 0.07221573 0.071923 0.07161333 0.07131168 0.07102332 0.07076725 0.07053911
 0.07034226 0.0701691 0.0700163 0.06987677 0.06974798 0.0696203 0.06949113 0.06935079 0.06919621 0.06902706
 0.06884193 0.06865244 0.0684591 0.06827616 0.06810409 0.06795002 0.06781332 0.06769253 0.06758629 0.06748825
 0.06739699 0.06730535 0.06721225 0.0671121 0.06700493 0.06688783 0.06676329 0.06663169 0.06649809 0.06636548
 0.06623837 0.06612014 0.06601027 0.06591021 0.06581403 0.06572109 0.06562492 0.06552445 0.06541722 0.06530286
 0.06518329 0.06505869 0.06493355 0.06480815 0.06468718 0.06457074 0.064462 0.06436069 0.06426779 0.06418271
 0.06410477 0.06403334 0.06396741 0.06390613 0.06384868 0.06379332 0.06373869 0.06368354 0.06362647 0.06356895
 0.06351044 0.06345579 0.06340529 0.06336623 0.06333929 0.06333254 0.0633468 0.06338408 0.06344402 0.06351344
 0.06359009 0.06364813 0.06368657 0.06368494 0.06364845 0.06357951 0.06348893 0.06339903 0.06331865 0.06327169
 0.06325579 0.0632809 0.06333049 0.06339898 0.06346497 0.0635161 0.06354421 0.06354102 0.06351994 0.06348091
 0.06344467 0.06341466 0.06339794 0.06339575 0.06340112 0.06341391 0.06343279 0.06345931 0.0635077 0.06357943
 0.06369099 0.06383876 0.06402291 0.06423336 0.06445091 0.06466445 0.06484857 0.06500117 0.06510703 0.06518027
 0.06522249 0.06525794 0.06529862 0.06535912 0.06544945 0.06556233 0.06569915 0.06584395 0.06599402 0.06614523
 0.06629661 0.06645587 0.06662326 0.06680085 0.06698789 0.06717697 0.06736856 0.06756041 0.06775542 0.0679622
 0.06818108 0.06841876 0.06866951 0.06892847 0.06918877 0.06944073 0.06968315 0.06991158 0.07012902 0.07033636
 0.070534 0.07072371 0.07089844 0.07105817 0.07119007 0.07129245 0.07135531 0.07137699 0.07136408 0.07131726
 0.0712643 0.07120723 0.07117819 0.07117553 0.07120999 0.07127393 0.07134972 0.07142907 0.0714845 0.071515
 0.07150539 0.07146305 0.07138924 0.07129311 0.07118218 0.07106025 0.07093193 0.07079501 0.07064998 0.07049324
 0.07032389 0.07014038 0.06994179 0.06973218 0.0695113 0.06929199 0.06907498 0.06887677 0.06869712 0.06854033
 0.06840298 0.06826931 0.06813616 0.06798295 0.06781314 0.06762294 0.06742021 0.06721671 0.06701395 0.06682024
 0.06662767 0.06643281 0.06623003 0.06601331 0.06578893 0.06555714 0.06532647 0.06510035 0.06487565 0.06465302
 0.06442322 0.06418486 0.06394159 0.06369371 0.06346402 0.06325378 0.06308632 0.06295897 0.06287142 0.06281583
 0.06276597 0.06271572 0.06263564 0.06253088 0.06239276 0.06223881 0.06208295 0.06194416 0.06184212 0.06178392
 0.06178044 0.06182444 0.06191634 0.06204614 0.06221033 0.06240963 0.06264247 0.06292059 0.06324479 0.06362572
 0.06406393 0.06455937 0.06511163 0.06571475 0.06636964 0.06707755 0.06784156 0.0686733 0.0695743 0.07055594
 0.07161292 0.07274438 0.07393818 0.0751818 0.07646264 0.07776637 0.07908846 0.08042113 0.08177028 0.08313514
 0.08452662 0.08594719 0.08740424 0.08889987 0.09043372 0.09200659 0.09360804 0.09523753 0.09687523 0.09851951
 0.1001455 0.1017509 0.1033113 0.1048214 0.1062537 0.1075953 0.1088061 0.1098684 0.1107334 0.1113968
 0.1118258 0.112052 0.1120765 0.11197 0.1117615 0.1115334 0.1113202 0.1111804 0.1111366 0.1112076
 0.1114018 0.1117081 0.1121272 0.1126354 0.1132316 0.1138895 0.1146074 0.115357 0.116136 0.1169162
 0.1176962 0.1184542 0.1191931 0.1199066 0.1206036 0.1212947 0.1219923 0.1227152 0.1234705 0.1242739
 0.1251133 0.1259968 0.1268746 0.1277465 0.1285039 0.1291356 0.1294774 0.1295053 0.1290722 0.1281545
 0.1267398 0.1248247 0.1225837 0.1200329 0.117445 0.1148319 0.1124106 0.1101702 0.1081903 0.1064437
 0.1049046 0.1035486 0.1023231 0.1012134 0.1001833 0.09922273 0.09831335 0.09744551 0.09660877 0.09579989
 0.09501316 0.09425766 0.09353276 0.09285641 0.09223089 0.09167328 0.0911857 0.09077736 0.09044898 0.09020262
 0.09003817 0.089954 0.08994912 0.09001748 0.09015562 0.09034982 0.09059104 0.09085427 0.09112116 0.09135405
 0.09152538 0.09159028 0.09152191 0.09128185 0.09086052 0.09023709 0.08942924 0.08843341 0.08729052 0.08600578
 0.08463369 0.08318117 0.08170725 0.08021757 0.07876703 0.07735921 0.07604202 0.07481738 0.07372329 0.07275512
 0.07191161 0.07116613 0.07042704 0.06964134 0.06862684 0.06734645 0.06562971 0.06352388 0.06098887 0.05816958
 0.05515845 0.05212008 0.04917927 0.04642167 0.04392138 0.04166309 0.03966298 0.03786032 0.03624756 0.03477457
 0.0334347 0.03220056 0.03107002 0.03002404 0.02906151 0.02816314 0.02732752 0.02653546 0.02578576 0.02506332
 0.0243679 0.02369114 0.02303357 0.02239279 0.0217682 0.02115879 0.020562 0.01997568 0.01939669 0.01882267
 0.01825139 0.0176815 0.01711129 0.01653996 0.01596685 0.01539117 0.01481639 0.01424248 0.01367577 0.01311668
 0.01256965 0.01203466 0.01151061 0.01099696 0.01048901 0.009986572 0.009485831 0.008987979 0.008493867 0.008005656
 0.007528147 0.007061697 0.006609656 0.00616891 0.005738063 0.005313767 0.004892467 0.004476245 0.004064229 0.00366245
 0.003272664 0.002898032 0.002539983 0.002196213 0.001866826 0.00154763 0.001238396 0.0009344416 0.0006355207 0.0003369942
 3.905429E-05 -0.0002594837 -0.0005572746 -0.0008492035 -0.001134011 -0.00140496 -0.001663062 -0.001906726 -0.002138269 -0.002360612
 -0.002573948 -0.002780076 -0.002976742 -0.003162675 -0.003337457 -0.003499739 -0.003653216 -0.003798526 -0.003939427 -0.004077198
 -0.004211026 -0.004341127 -0.00446454 -0.004580941 -0.004691851 -0.004797566 -0.004905642 -0.005016456 -0.005136774 -0.005265856
 -0.00540402 -0.005550277 -0.005701636 -0.005858396 -0.006019549 -0.006186136 -0.006359306 -0.006539395 -0.006727388 -0.006922495
 -0.007124797 -0.007332542 -0.007545535 -0.007760252 -0.007975825 -0.008188751 -0.008397917 -0.008603022 -0.008803597 -0.009002828
 -0.009200864 -0.009401524 -0.009604961 -0.009813345 -0.01002663 -0.01024548 -0.01046962 -0.01069818 -0.01093065 -0.01116511
 -0.01140119 -0.01163723 -0.01187321 -0.01210848 -0.01234298 -0.01257643 -0.01280886 -0.01304 -0.01327071 -0.0135014
 -0.01373231 -0.01396401 -0.01419434 -0.01442311 -0.01464752 -0.01486692 -0.01508212 -0.01529298 -0.01550454 -0.01571705
 -0.01593501 -0.01615831 -0.01638779 -0.01662302 -0.01686252 -0.01710597 -0.01735184 -0.0175996 -0.0178478 -0.0180952
 -0.01833954 -0.01857972 -0.01881361 -0.01904139 -0.01926236 -0.01947772 -0.01968807 -0.0198934 -0.02009404 -0.02028878
 -0.02047742 -0.02065894 -0.02083304 -0.02100047 -0.02116125 -0.02131669 -0.02146682 -0.02161206 -0.02175234 -0.02188726
 -0.02201679 -0.02214071 -0.02225865 -0.02236961 -0.02247262 -0.02256516 -0.02264684 -0.02271548 -0.02277272 -0.02281886
 -0.02285718 -0.0228899 -0.02291968 -0.02294866 -0.02297692 -0.0230053 -0.02303163 -0.02305579 -0.02307485 -0.0230883
 -0.02309494 -0.02309447 -0.02308935 -0.02307978 -0.02307119 -0.02306378 -0.0230615 -0.02306394 -0.02307126 -0.02308278
 -0.02309632 -0.0231118 -0.02312779 -0.02314514 -0.02316424 -0.02318655 -0.02321346 -0.0232467 -0.023288 -0.02333805
 -0.02339815 -0.02346631 -0.02354249 -0.02362336 -0.023708 -0.0237952 -0.0238844 -0.02397778 -0.02407542 -0.02418005
 -0.02429176 -0.02441089 -0.02453724 -0.02466903 -0.02480595 -0.02494554 -0.02508759 -0.02523 -0.02537308 -0.02551607
 -0.02566049 -0.02580808 -0.0259606 -0.02612089 -0.02628886 -0.02646605 -0.0266495 -0.0268384 -0.02702931 -0.02722074
 -0.02741132 -0.02760026 -0.02778851 -0.02797603 -0.02816422 -0.02835324 -0.02854348 -0.02873495 -0.02892723 -0.02912033
 -0.02931422 -0.02950915 -0.02970646 -0.02990645 -0.03011088 -0.03031969 -0.0305337 -0.03075242 -0.03097555 -0.03120243
 -0.03143263 -0.03166454 -0.03189731 -0.03212828 -0.03235607 -0.0325783 -0.03279367 -0.0330018 -0.03320206 -0.03339651
 -0.03358521 -0.03377106 -0.03395435 -0.03413695 -0.03431895 -0.03450052 -0.03468148 -0.03485987 -0.03503537 -0.03520511
 -0.03536921 -0.03552616 -0.03567711 -0.03582357 -0.03596726 -0.03611167 -0.03625755 -0.03640747 -0.0365602 -0.03671583
 -0.03687249 -0.03702912 -0.03718488 -0.03733917 -0.03749213 -0.03764363 -0.03779422 -0.03794397 -0.03809334 -0.03824238
 -0.03839187 -0.03854187 -0.03869215 -0.03884259 -0.03899141 -0.03913864 -0.0392832 -0.03942584 -0.03956832 -0.03971183
 -0.03986021 -0.04001372 -0.04017497 -0.04034251 -0.04051583 -0.04069339 -0.04087329 -0.04105656 -0.04124278 -0.04143489
 -0.0416344 -0.04184093 -0.04205551 -0.04227246 -0.04249123 -0.04270598 -0.04291583 -0.04312072 -0.04332059 -0.04351997
 -0.04371902 -0.04392124 -0.04412633 -0.04433454 -0.04454526 -0.04475661 -0.04496792 -0.04517665 -0.04538235 -0.04558302
 -0.04577897 -0.04596975 -0.04615587 -0.04633781 -0.04651523 -0.04668816 -0.04685593 -0.0470178 -0.04717563 -0.04732916
 -0.04748331 -0.04763875 -0.04779987 -0.04796751 -0.04813981 -0.04831674 -0.04849079 -0.04866163 -0.04882307 -0.04897575
 -0.04912058 -0.04925877 -0.04939556 -0.04953099 -0.04966798 -0.04980553 -0.04994305 -0.05008017 -0.05021594 -0.05035099
 -0.05048552 -0.05061996 -0.05075463 -0.05088967 -0.05102518 -0.05116139 -0.05129858 -0.05143574 -0.05157303 -0.05170743
 -0.05183862 -0.05196459 -0.05208518 -0.0522019 -0.05231495 -0.05242749 -0.05253952 -0.05265255 -0.05276646 -0.05288138
 -0.0529976 -0.05311591 -0.05323668 -0.0533612 -0.05348879 -0.05361959 -0.05375152 -0.05388311 -0.05401225 -0.05413704
 -0.05425748 -0.05437271 -0.05448512 -0.054595 -0.05470508 -0.05481595 -0.05492877 -0.05504387 -0.05516006 -0.0552773
 -0.05539366 -0.05550909 -0.05562253 -0.05573425 -0.05584539 -0.05595632 -0.05606927 -0.05618387 -0.05630071 -0.05641835
 -0.0565345 -0.05664804 -0.05675615 -0.05686003 -0.05695913 -0.05705669 -0.05715453 -0.05725451 -0.0573584 -0.05746447
 -0.05757304 -0.05768006 -0.05778484 -0.05788474 -0.05797914 -0.05806926 -0.05815506 -0.05824 -0.0583242 -0.05840997
 -0.05849713 -0.05858533 -0.05867441 -0.05876347 -0.05885289 -0.05894323 -0.05903494 -0.05912925 -0.05922582 -0.0593247
 -0.05942546 -0.05952732 -0.0596314 -0.05973753 -0.05984884 -0.0599665 -0.06009286 -0.06022928 -0.06037436 -0.06052866
 -0.06068634 -0.06084695 -0.06100432 -0.06115796 -0.06130606 -0.0614487 -0.0615878 -0.06172352 -0.06185801 -0.06199102
 -0.06212307 -0.06225289 -0.0623784 -0.06249592 -0.06259855 -0.06268147 -0.06273486 -0.06275876 -0.06274726 -0.06271026
 -0.06264944 -0.062582 -0.06251469 -0.06246175 -0.06242903 -0.06242171 -0.06244244 -0.0624878 -0.06255842 -0.06264304
 -0.06274119 -0.06283553 -0.06292535 -0.06299778 -0.06305382 -0.06309459 -0.0631221 -0.06314562 -0.06316593 -0.06319004
 -0.06321719 -0.06324963 -0.06328514 -0.06332194 -0.06335767 -0.06338933 -0.06341634 -0.06343739 -0.06345275 -0.0634627
 -0.06346558 -0.06346092 -0.06344764 -0.06342465 -0.0633969 -0.06336441 -0.06333618 -0.06331292 -0.06329885 -0.06329389
 -0.06329397 -0.06329858 -0.06330145 -0.06330288 -0.06330059 -0.06329563 -0.06328983 -0.06328399 -0.06328063 -0.06327982
 -0.06328284 -0.06328906 -0.06329861 -0.06331012 -0.06332289 -0.06333554 -0.06334697 -0.0633577 -0.0633674 -0.06337829
 -0.06339087 -0.06340618 -0.06342459 -0.06344459 -0.06346609 -0.06348752 -0.06350891 -0.0635316 -0.06355582 -0.0635841
 -0.06361608 -0.06365185 -0.0636903 -0.06372848 -0.06376522 -0.06379657 -0.0638227 -0.06384156 -0.06385559 -0.06386583
 -0.063876 -0.06388903 -0.0639065 -0.0639305 -0.06395856 -0.06399079 -0.06402276 -0.06405355 -0.06408038 -0.06410266
 -0.06412 -0.06413226 -0.06414065 -0.06414526 -0.06414853 -0.06415073 -0.06415533 -0.06416232 -0.06417377 -0.06418873
 -0.06420574 -0.06422335 -0.06423765 -0.06424865 -0.06425411 -0.0642562 -0.06425607 -0.06425609 -0.0642588 -0.06426338
 -0.06427065 -0.06427731 -0.06428229 -0.06428423 -0.06428216 -0.06427877 -0.06427416 -0.06427186 -0.06427223 -0.06427548
 -0.06428154 -0.06428707 -0.06429192 -0.06429313 -0.06429094 -0.06428488 -0.06427557 -0.06426458 -0.06425253 -0.06424133
 -0.06423152 -0.06422488 -0.06422111 -0.06422105 -0.06422267 -0.06422531 -0.0642257 -0.06422213 -0.06421263 -0.0641957
 -0.06417295 -0.06414404 -0.06411315 -0.06408072 -0.06405059 -0.06402315 -0.06400031 -0.06398208 -0.06396745 -0.06395612
 -0.06394509 -0.0639341 -0.06392004 -0.06390326 -0.06388288 -0.06386006 -0.06383683 -0.06381399 -0.06379398 -0.06377598
 -0.06376058 -0.06374519 -0.0637283 -0.06370772 -0.06368165 -0.06365053 -0.06361381 -0.06357369 -0.0635305 -0.06348604
 -0.06344052 -0.06339536 -0.06335064 -0.06330822 -0.06326816 -0.0632311 -0.06319674 -0.06316224 -0.06312709 -0.06308672
 -0.06304153 -0.06298999 -0.06293376 -0.06287561 -0.06281674 -0.06276064 -0.06270618 -0.06265375 -0.06260119 -0.06254672
 -0.06249014 -0.06243033 -0.0623697 -0.06230866 -0.06224969 -0.06219363 -0.06214074 -0.06209132 -0.06204396 -0.06199862
 -0.06195292 -0.06190674 -0.06185833 -0.06180782 -0.06175581 -0.06170285 -0.06165223 -0.06160412 -0.06156106 -0.06152215
 -0.06148686 -0.06145391 -0.0614211 -0.06138783 -0.06135257 -0.06131556 -0.06127613 -0.06123589 -0.06119497 -0.0611566
 -0.0611219 -0.06109301 -0.06107108 -0.0610543 -0.06104275 -0.06103309 -0.06102494 -0.0610178 -0.06101164 -0.06100801
 -0.06100684 -0.06100797 -0.06101116 -0.06101487 -0.06101947 -0.06102524 -0.06103286 -0.06104426 -0.06105929 -0.06107881
 -0.06110176 -0.06112748 -0.06115476 -0.06118236 -0.06121006 -0.06123723 -0.06126481 -0.06129295 -0.06132263 -0.0613542
 -0.06138771 -0.06142322 -0.06146055 -0.06149964 -0.06154134 -0.06158569 -0.06163326 -0.06168395 -0.06173685 -0.06179182
 -0.06184758 -0.06190414 -0.061961 -0.06201785 -0.06207382 -0.06212853 -0.0621807 -0.06223102 -0.06227939 -0.06232767
 -0.06237749 -0.06242924 -0.06248398 -0.06253998 -0.06259683 -0.06265327 -0.06270857 -0.06276418 -0.06282009 -0.06287856
 -0.06293989 -0.06300411 -0.06307125 -0.06313869 -0.06320629 -0.06327122 -0.06333365 -0.06339291 -0.06344946 -0.06350469
 -0.06355876 -0.06361275 -0.06366648 -0.06371992 -0.06377334 -0.06382676 -0.06388126 -0.06393772 -0.06399665 -0.06405891
 -0.06412317 -0.06418925 -0.06425553 -0.06432137 -0.06438699 -0.06445216 -0.06451867 -0.06458675 -0.06465655 -0.06472808
 -0.06479836 -0.06486719 -0.06493107 -0.06499025 -0.06504416 -0.06509371 -0.0651418 -0.06518918 -0.06523937 -0.06529205
 -0.06534848 -0.06540726 -0.06546734 -0.06552739 -0.06558585 -0.06564256 -0.06569684 -0.06574957 -0.06580081 -0.06585186
 -0.06590297 -0.06595553 -0.0660098 -0.06606653 -0.06612594 -0.0661872 -0.06625028 -0.06631255 -0.06637387 -0.06643158
 -0.06648573 -0.0665352 -0.06658037 -0.06662196 -0.06666043 -0.06669728 -0.06673276 -0.06676804 -0.06680296 -0.0668378
 -0.06687237 -0.06690649 -0.06694029 -0.06697373 -0.06700701 -0.06704038 -0.06707306 -0.067105 -0.06713492 -0.06716255
 -0.06718722 -0.06720874 -0.06722771 -0.06724415 -0.0672593 -0.06727325 -0.0672878 -0.06730298 -0.06732022 -0.06733925
 -0.06735992 -0.06738164 -0.06740285 -0.06742318 -0.06744096 -0.06745694 -0.06747113 -0.067485 -0.06749987 -0.06751642
 -0.06753589 -0.06755676 -0.06757899 -0.06760018 -0.06761958 -0.06763616 -0.06764927 -0.06766119 -0.06767197 -0.06768525
 -0.06770127 -0.06772199 -0.06774732 -0.06777573 -0.0678069 -0.06783766 -0.06786816 -0.06789717 -0.06792546 -0.06795436
 -0.06798452 -0.06801792 -0.06805418 -0.06809385 -0.0681357 -0.06817918 -0.06822231 -0.06826378 -0.0683025 -0.06833728
 -0.06836961 -0.06839922 -0.06842995 -0.06846248 -0.06849924 -0.06854084 -0.06858537 -0.06863277 -0.06867983 -0.06872647
 -0.06877183 -0.06881618 -0.06886114 -0.0689068 -0.06895455 -0.06900381 -0.06905384 -0.06910373 -0.06915128 -0.06919631
 -0.06923724 -0.06927559 -0.06931193 -0.06934824 -0.06938634 -0.06942567 -0.0694669 -0.0695072 -0.06954578 -0.06958137
 -0.06961323 -0.06964356 -0.06967254 -0.06970181 -0.06973156 -0.06975961 -0.06978582 -0.06980705 -0.0698237 -0.06983696
 -0.0698478 -0.06986123 -0.06987713 -0.06989828 -0.06992272 -0.06994803 -0.06997257 -0.06999255 -0.07000927 -0.07002214
 -0.07003403 -0.07004691 -0.07006135 -0.07007868 -0.07009625 -0.07011373 -0.07012831 -0.07013916 -0.07014635 -0.07014956
 -0.07015171 -0.07015295 -0.07015601 -0.07016087 -0.07016712 -0.07017445 -0.07017991 -0.0701839 -0.07018628 -0.07018822
 -0.07019324 -0.07020135 -0.07021497 -0.07023174 -0.07024963 -0.0702664 -0.07027893 -0.0702873 -0.07029045 -0.07028972
 -0.07028558 -0.07027833 -0.07026806 -0.07025529 -0.07023985 -0.07022374 -0.07020705 -0.07019261 -0.07018064 -0.07017221
 -0.07016725 -0.07016393 -0.07016201 -0.07015858 -0.0701538 -0.07014678 -0.07013776 -0.07012725 -0.07011478 -0.07009982
 -0.07008176 -0.07005917 -0.07003303 -0.07000353 -0.06997222 -0.06994029 -0.06990822 -0.06987649 -0.06984527 -0.06981466
 -0.06978495 -0.06975652 -0.06972751 -0.06969783 -0.06966496 -0.06962863 -0.06958967 -0.06954819 -0.06950689 -0.06946559
 -0.0694239 -0.06938147 -0.06933613 -0.0692884 -0.06923862 -0.0691876 -0.06913745 -0.06908805 -0.06904034 -0.06899349
 -0.06894717 -0.06890019 -0.0688518 -0.06880084 -0.06874628 -0.0686889 -0.06862843 -0.06856725 -0.06850612 -0.06844463
 -0.06838304 -0.06831842 -0.06825048 -0.06817921 -0.06810468 -0.06803022 -0.06795564 -0.06788078 -0.0678046 -0.06772211
 -0.06763265 -0.06753129 -0.06741907 -0.06729525 -0.06716251 -0.06702429 -0.06688247 -0.06674104 -0.06659794 -0.06645385
 -0.06630363 -0.06614448 -0.06597529 -0.06579368 -0.06560701 -0.06541593 -0.06522942 -0.06504925 -0.06487652 -0.06471182
 -0.06454688 -0.06438124 -0.06420349 -0.06401387 -0.06380901 -0.0635914 -0.06337145 -0.06315097 -0.06294244 -0.06274264
 -0.06255182 -0.06236419 -0.06217083 -0.06196988 -0.06175532 -0.06152989 -0.06129384 -0.06104928 -0.06079834 -0.06053795
 -0.06026895 -0.05998215 -0.05967662 -0.05933996 -0.05896981 -0.05856262 -0.05811724 -0.05764625 -0.05715027 -0.05664245
 -0.05612232 -0.05558962 -0.0550441 -0.05448361 -0.0539103 -0.05333101 -0.05274493 -0.05215587 -0.05155659 -0.05093701
 -0.0502947 -0.04961956 -0.04892397 -0.048213 -0.0474984 -0.04679079 -0.04608191 -0.04537323 -0.04464722 -0.04389946
 -0.04312329 -0.04231677 -0.04148182 -0.04061916 -0.03971709 -0.03877475 -0.03776244 -0.03668062 -0.03551982 -0.0342881
 -0.03302407 -0.0317319 -0.03045091 -0.02916745 -0.02787299 -0.02654942 -0.02516445 -0.02371087 -0.02217179 -0.02053762
 -0.01880625 -0.01693814 -0.01492188 -0.01269642 -0.01023516 -0.007516431 -0.004518223 -0.001309012 0.002112164 0.005622617
 0.009212566 0.01278342 0.01633018 0.01981194 0.02323282 0.02661792 0.02998291 0.03342319 0.03695322 0.04068807
 0.04459332 0.0486699 0.05282838 0.05691888 0.06091586 0.06470727 0.06838449 0.07197326 0.07557246 0.07924975
 0.08302046 0.08690971 0.09088721 0.09494735 0.0990838 0.1032967 0.1075689 0.111901 0.1162435 0.1205939
 0.1249424 0.1292886 0.133638 0.1379715 0.1421877 0.1462607 0.1500341 0.1535305 0.1567149 0.1596414
 0.1623948 0.1649703 0.1674114 0.1696514 0.1716353 0.1733768 0.1748441 0.1761545 0.1773438 0.1784898
 0.179629 0.1807344 0.1818101 0.1827991 0.1836942 0.1844895 0.1851842 0.1858043 0.186349 0.1868174
 0.1872041 0.1874754 0.1876314 0.1876529 0.1875468 0.1873214 0.1869764 0.1865171 0.1859361 0.1852234
 0.1843863 0.1834163 0.1823572 0.181218 0.1800759 0.1789515 0.1779368 0.1770546 0.1763798 0.175931
 0.1757213 0.1757575 0.1759875 0.1764087 0.1769464 0.1775953 0.1782714 0.1789664 0.1795861 0.1801271
 0.1805207 0.180782 0.1809047 0.1809237 0.1808854 0.180838 0.1808468 0.1809638 0.1812464 0.1817371
 0.1824737 0.1834769 0.1847669 0.1863329 0.188185 0.1902609 0.1925632 0.1949624 0.1974527 0.1998501
 0.202144 0.2041401 0.2058296 0.2070545 0.2078099 0.2079849 0.2075806 0.2065298 0.2048633 0.2025996
 0.1998217 0.1966643 0.1932204 0.1896473 0.186008 0.182392 0.1788658 0.1754798 0.1723039 0.1693833
 0.1667206 0.1643363 0.1621555 0.1601709 0.1583078 0.1565557 0.1548992 0.1533367 0.1518767 0.1505168
 0.1492222 0.1479871 0.1467541 0.1455245 0.14427 0.1430006 0.1417261 0.1404573 0.1392204 0.1380137
 0.1368536 0.1357116 0.1345788 0.1334028 0.1321496 0.1307946 0.1293072 0.1277377 0.1260841 0.1244385
 0.1228117 0.121299 0.1199097 0.1187303 0.1177667 0.1170674 0.1166316 0.1164505 0.1165187 0.1167985
 0.1172808 0.1179219 0.1186897 0.119502 0.120282 0.1208742 0.1211814 0.1210209 0.120346 0.1190381
 0.1171495 0.1146606 0.1116902 0.1082785 0.1045174 0.1004374 0.09609278 0.0914784 0.0867593 0.0819383
 0.07731913 0.07292238 0.06889943 0.06524424 0.06183993 0.05867008 0.05555987 0.05251795 0.04948254 0.04647974
 0.04354987 0.04070304 0.0379775 0.03536959 0.03288244 0.0305333 0.02832923 0.02631168 0.02450582 0.02294289
 0.02164392 0.020613 0.01985589 0.01936711 0.01914629 0.01919071 0.01950071 0.02006834 0.02089382 0.02194356
 0.0232121 0.02460224 0.02609692 0.02752612 0.02887756 0.03000158 0.03091593 0.03158531 0.03204657 0.03234836
 0.0325237 0.03263186 0.03269798 0.03276177 0.03284265 0.03296814 0.03312859 0.03334178 0.03352978 0.03368414
 0.03369448 0.03353361 0.03316825 0.03258443 0.03184804 0.03096108 0.03003193 0.02906615 0.0281656 0.02733001
 0.02660969 0.02599196 0.02545474 0.02497757 0.02449383 0.02399038 0.02340418 0.02275222 0.02201571 0.02125907
 0.0205199 0.01989087 0.01943238 0.0192282 0.0193246 0.01978053 0.02062396 0.02187367 0.02354235 0.02560133
 0.02804939 0.03085437 0.03401321 0.03753187 0.04140975 0.04564225 0.05021601 0.05503007 0.06005792 0.06513123
 0.07023253 0.07523397 0.08011492 0.08479691 0.08921494 0.09327036 0.09686067 0.09986025 0.1021985 0.1037818
 0.1046286 0.1047072 0.1041199 0.1028765 0.1011222 0.09887867 0.09629254 0.09338019 0.09027358 0.08698185
 0.08363537 0.08024065 0.07691137 0.07364623 0.07048994 0.06742875 0.06442563 0.06146805 0.05849473 0.05551616
 0.05251504 0.04952876 0.04659508 0.04375958 0.04107664 0.03857955 0.03630858 0.03426786 0.03247614 0.03089887
 0.02953584 0.02832734 0.02726284 0.02629279 0.02540763 0.02459715 0.02385845 0.02322491 0.02269918 0.02234299
 0.02215979 0.0222088 0.02248511 0.02300483 0.02374608 0.02466191 0.02571447 0.02681521 0.02791551 0.02892051
 0.02977392 0.03039429 0.03073108 0.03072504 0.03035995 0.0296039 0.0284981 0.02703535 0.02531616 0.02334883
 0.02127303 0.0191021 0.01698336 0.01492785 0.01306416 0.01139842 0.01002177 0.008932753 0.008162957 0.007696934
 0.007488508 0.007503853 0.007626073 0.007812136 0.007918273 0.007922053 0.007718863 0.007341366 0.006767804 0.006085025
 0.005337332 0.004614597 0.003974076 0.003448353 0.003069481 0.002797273 0.002635485 0.002505145 0.002397325 0.002246033
 0.002044008 0.001775691 0.001441273 0.001078918 0.0006930797 0.0003419669 2.625572E-05 -0.0002179521 -0.0003975809 -0.0005129044
 -0.0005755521 -0.0006067007 -0.0006224347 -0.0006492469 -0.0007140328 -0.0008470652 -0.001085478 -0.001463257 -0.002004618 -0.002737272
 -0.003640077 -0.004722771 -0.005912823 -0.007202666 -0.008501259 -0.009795927 -0.01102014 -0.01216653 -0.01321069 -0.01415166
 -0.01499614 -0.01574583 -0.01641948 -0.01701879 -0.01756173 -0.01804954 -0.01849507 -0.01889955 -0.01927122 -0.01961207
 -0.0199286 -0.02022158 -0.02049559 -0.02074599 -0.02097315 -0.02116527 -0.02131907 -0.02141732 -0.02145573 -0.02141358
 -0.02128654 -0.02105546 -0.02071615 -0.0202641 -0.01969713 -0.01903859 -0.01829006 -0.01750192 -0.01667876 -0.01588492
 -0.01512627 -0.01446642 -0.01391009 -0.01350706 -0.01325628 -0.01318269 -0.01327504 -0.01353132 -0.01392942 -0.01444918
 -0.01506303 -0.01574646 -0.0164775 -0.01723802 -0.0180215 -0.01882037 -0.01964148 -0.02048501 -0.02135793 -0.02226233
 -0.02319402 -0.02415359 -0.0251242 -0.02610489 -0.02707151 -0.02802268 -0.02893502 -0.02980843 -0.03062909 -0.03139957
 -0.03212005 -0.03279534 -0.03343587 -0.03404595 -0.0346373 -0.03521065 -0.03577221 -0.03631805 -0.03684765 -0.03735603
 -0.03784 -0.03829827 -0.03872893 -0.0391354 -0.03951803 -0.03988036 -0.04022324 -0.04054651 -0.04085043 -0.04113131
 -0.04138897 -0.0416187 -0.04182035 -0.04199079 -0.04213025 -0.04223821 -0.04231541 -0.04236379 -0.04238442 -0.04238022
 -0.04235314 -0.04230661 -0.04224456 -0.04217163 -0.0420934 -0.04201562 -0.04194141 -0.0418757 -0.04181246 -0.04175378
 -0.04168012 -0.04158996 -0.04145365 -0.04126742 -0.04100314 -0.04065738 -0.04021806 -0.03968442 -0.03906832 -0.03837185
 -0.0376246 -0.03682888 -0.03601455 -0.03517973 -0.03433648 -0.0334756 -0.03258474 -0.03164878 -0.03063975 -0.02954248
 -0.02832962 -0.02699191 -0.02551273 -0.02389143 -0.02212164 -0.02021199 -0.01816134 -0.01598963 -0.01369775 -0.01132042
 -0.0088599 -0.006365539 -0.003840763 -0.001341132 0.001130097 0.003525656 0.005844356 0.008059287 0.01017223 0.01217876
 0.01408331 0.01589779 0.01762862 0.01929524 0.02090593 0.02248136 0.02403086 0.02557212 0.02711313 0.02866565
 0.03023401 0.03182324 0.03343615 0.03507306 0.03674304 0.03844592 0.04020185 0.04201289 0.04390256 0.04587391
 0.04793673 0.05009192 0.05232175 0.05462311 0.05694982 0.05929496 0.0615947 0.0638398 0.06596421 0.06795861
 0.06976847 0.07138668 0.07277686 0.07393702 0.07484887 0.0755197 0.07594579 0.07614668 0.07612856 0.07591892
 0.07552738 0.07498093 0.07428681 0.07346848 0.07252958 0.07149366 0.07036266 0.06916265 0.06789523 0.06658497
 0.0652328 0.0638561 0.06245451 0.06103493 0.05959561 0.0581343 0.05664838 0.05513059 0.05357841 0.05198412
 0.05034687 0.04866163 0.04693158 0.04515584 0.04334345 0.04149795 0.03963069 0.03774695 0.03585325 0.03395288
 0.03204538 0.03013103 0.02820928 0.02627957 0.02434788 0.02241448 0.02048977 0.01857425 0.01667648 0.01479667
 0.01294012 0.01110777 0.009305136 0.007535207 0.005806835 0.00412615 0.002505877 0.0009558389 -0.0005086447 -0.001876069
 -0.003132372 -0.004268616 -0.005275041 -0.006150339 -0.006889755 -0.007502859 -0.00798843 -0.008369121 -0.00864567 -0.008855378
 -0.009000461 -0.009129217 -0.009244602 -0.009393595 -0.009577939 -0.009828513 -0.01014454 -0.01053575 -0.01100044 -0.01153639
 -0.01214413 -0.01282342 -0.01357677 -0.01440966 -0.015321 -0.01631474 -0.01737977 -0.0185115 -0.01968946 -0.02090242
 -0.02212908 -0.02335871 -0.02457701 -0.02577818 -0.02695428 -0.02810346 -0.02921869 -0.03029931 -0.03133702 -0.03233125
 -0.03327516 -0.03416867 -0.03501024 -0.03580088 -0.03654628 -0.03724878 -0.03792017 -0.03856378 -0.03919412 -0.03981426
 -0.04043626 -0.04106227 -0.04169998 -0.04234985 -0.04301571 -0.04369453 -0.04438679 -0.0450852 -0.04578779 -0.04648535
 -0.04717492 -0.04785069 -0.04851061 -0.04915538 -0.0497845 -0.05040318 -0.05101174 -0.05161443 -0.05221121 -0.0528004
 -0.05338114 -0.05394607 -0.05449419 -0.05501739 -0.05551527 -0.05598292 -0.05641961 -0.0568229 -0.05718901 -0.057514
 -0.05778909 -0.05800708 -0.05815519 -0.0582254 -0.05820289 -0.05808139 -0.05784424 -0.05748664 -0.05699197 -0.05635509
 -0.05557334 -0.05464284 -0.05359359 -0.05242597 -0.05120679 -0.04994044 -0.04871184 -0.04752589 -0.04645963 -0.0455153
 -0.0447452 -0.04414612 -0.04373898 -0.04351253 -0.04345811 -0.0435582 -0.04378795 -0.04412922 -0.04455838 -0.04505942
 -0.04561827 -0.0462167 -0.04684699 -0.04748445 -0.04812222 -0.04873518 -0.04931682 -0.04985496 -0.05034617 -0.05079645
 -0.05120571 -0.05158775 -0.05194304 -0.05227809 -0.05259229 -0.05288288 -0.05315001 -0.0533919 -0.05361132 -0.05381418
 -0.05400549 -0.05419656 -0.05439414 -0.05461054 -0.05485455 -0.0551382 -0.05546851 -0.05585561 -0.05629511 -0.0567916
 -0.05732318 -0.05788742 -0.05845208 -0.05901129 -0.05953732 -0.06002561 -0.0604626 -0.06084671 -0.06117533 -0.06144837
 -0.06166631 -0.06182938 -0.06193915 -0.06199665 -0.06200676 -0.06197192 -0.06190083 -0.06179746 -0.06167307 -0.06153231
 -0.06138627 -0.06123784 -0.06109397 -0.06095491 -0.06082196 -0.06069769 -0.06058197 -0.06048319 -0.06040389 -0.0603503
 -0.06032584 -0.06032309 -0.06034291 -0.06036558 -0.06038985 -0.06039691 -0.06038591 -0.06034594 -0.06027677 -0.0601721
 -0.06003139 -0.05984836 -0.05962289 -0.05935053 -0.05903343 -0.05867296 -0.05827349 -0.05784187 -0.05738102 -0.05689748
 -0.05638861 -0.05585627 -0.05529161 -0.0546923 -0.05404662 -0.0533512 -0.05259465 -0.05177397 -0.05088209 -0.04991664
 -0.04888232 -0.04777807 -0.04663173 -0.04544557 -0.0442818 -0.04314778 -0.04213725 -0.04125883 -0.04060812 -0.04018229
 -0.04003121 -0.04012784 -0.04044912 -0.04094651 -0.04154435 -0.04219507 -0.04282093 -0.04340251 -0.04389628 -0.04432222
 -0.04467346 -0.04499336 -0.04529372 -0.04560939 -0.04595252 -0.0463275 -0.0467389 -0.04716437 -0.04760303 -0.04802611
 -0.04843227 -0.04880474 -0.04914387 -0.04944732 -0.04971547 -0.04994931 -0.05014774 -0.05030694 -0.05042734 -0.05050613
 -0.05054908 -0.05056218 -0.05055408 -0.05053645 -0.05051314 -0.05049195 -0.05046873 -0.05044442 -0.05041094 -0.05036543
 -0.05030392 -0.050224 -0.05013013 -0.05002197 -0.04990924 -0.04979289 -0.04967739 -0.04956289 -0.04944224 -0.04931447
 -0.04916661 -0.04899792 -0.04879778 -0.04856607 -0.04829686 -0.04799049 -0.04764424 -0.04726004 -0.04683888 -0.04638457
 -0.04590148 -0.04539214 -0.04486065 -0.04430481 -0.04372459 -0.04311751 -0.04247941 -0.04182376 -0.04114712 -0.04049373
 -0.03986569 -0.03932827 -0.03888727 -0.03859201 -0.03844497 -0.03844465 -0.03858617 -0.03881518 -0.03912284 -0.03943296
 -0.03974048 -0.03998661 -0.04017515 -0.04028412 -0.04032376 -0.04030045 -0.04022242 -0.04010203 -0.03994088 -0.03974409
 -0.03951096 -0.03924119 -0.03893838 -0.03860186 -0.03824272 -0.03786151 -0.03747699 -0.0370906 -0.03672701 -0.03638815
 -0.0360988 -0.03586037 -0.03568823 -0.03558135 -0.03553348 -0.03553912 -0.0355656 -0.03560528 -0.03561381 -0.03558864
 -0.03550021 -0.03535455 -0.03514732 -0.03488765 -0.03458381 -0.0342431 -0.03387318 -0.0334797 -0.03306769 -0.03263949
 -0.03219766 -0.03173971 -0.03126537 -0.03077301 -0.0302617 -0.02973602 -0.02919628 -0.02864658 -0.02808717 -0.02751441
 -0.0269281 -0.02632358 -0.02570228 -0.02506957 -0.02442886 -0.02379451 -0.02317011 -0.0225708 -0.02199944 -0.02146653
 -0.02097568 -0.02053294 -0.02014659 -0.01982167 -0.01957475 -0.01941422 -0.01935765 -0.01941686 -0.01958632 -0.01987463
 -0.02023097 -0.02065425 -0.02106108 -0.02144407 -0.02173302 -0.02192345 -0.02199487 -0.02194904 -0.02180722 -0.02157221
 -0.02127181 -0.02090581 -0.02048767 -0.02001665 -0.01949633 -0.01892926 -0.01831802 -0.01767376 -0.0170054 -0.01633644
 -0.01568576 -0.01507802 -0.01453216 -0.0140601 -0.01367105 -0.01336696 -0.01315112 -0.01301699 -0.01296633 -0.01297536
 -0.01304257 -0.01314105 -0.01326909 -0.01341353 -0.01357397 -0.01374307 -0.01392014 -0.01409658 -0.01427223 -0.01444153
 -0.01460558 -0.01476465 -0.01491887 -0.01506902 -0.01521368 -0.01535139 -0.01548136 -0.01560222 -0.01571444 -0.0158183
 -0.01591301 -0.01599927 -0.01607227 -0.01613164 -0.01616971 -0.01618504 -0.0161727 -0.01613122 -0.01606725 -0.01598085
 -0.01589628 -0.01581584 -0.0157788 -0.01578794 -0.01588232 -0.0160608 -0.01634306 -0.01671938 -0.01718037 -0.01770478
 -0.01825625 -0.01880644 -0.0193072 -0.01974005 -0.02006835 -0.02030256 -0.02043208 -0.02049443 -0.02049938 -0.02048548
 -0.02046724 -0.02045499 -0.02045637 -0.02044686 -0.02042593 -0.02035812 -0.02024101 -0.0200579 -0.01980904 -0.01949917
 -0.01912981 -0.01871244 -0.01824957 -0.01775567 -0.01723542 -0.01670782 -0.0161767 -0.01565798 -0.01515213 -0.01466535
 -0.01419888 -0.01375426 -0.01333726 -0.01295153 -0.01260136 -0.0122913 -0.01201474 -0.01177277 -0.01154886 -0.01134062
 -0.01113373 -0.01092583 -0.01071386 -0.01049731 -0.01028326 -0.01007218 -0.009873288 -0.009686526 -0.009516227 -0.00936133
 -0.009220319 -0.009091271 -0.008969169 -0.008850728 -0.008729024 -0.008598263 -0.00844965 -0.00827554 -0.008066204 -0.007817485
 -0.007522088 -0.007186363 -0.006808642 -0.006405772 -0.005981409 -0.005551143 -0.005119576 -0.004687957 -0.00425815 -0.003815667
 -0.00335983 -0.002872887 -0.002354261 -0.001794477 -0.001194176 -0.0005532902 0.0001267692 0.0008411 0.001586944 0.002356792
 0.003142855 0.003931688 0.004705518 0.005441024 0.00611074 0.006684806 0.007137617 0.007443997 0.007594806 0.007578237
 0.007401586 0.007063191 0.006577661 0.005945514 0.005189599 0.004310287 0.003348171 0.002305289 0.001237083 0.0001463012
 -0.0009180184 -0.001955779 -0.002943126 -0.00388281 -0.004773721 -0.005618406 -0.006423226 -0.007189488 -0.00792293 -0.008623063
 -0.009293314 -0.0099276 -0.01052348 -0.01106988 -0.01155757 -0.01198507 -0.01234543 -0.0126569 -0.01292148 -0.01316334
 -0.01338828 -0.01360622 -0.01381977 -0.01402557 -0.01422345 -0.01441357 -0.01459594</values></Ydata></AB><ScSm><Ydata ylabel="Single channel"><values byteorder="INTEL" format="FLOAT32" numvalues="1814"> 0.08496946 0.08508478 0.08521583 0.08536875 0.08553693 0.08570507 0.08585832 0.08599189 0.08610992 0.08621419
 0.08630472 0.08639467 0.08651014 0.08666549 0.08684605 0.08701828 0.08715466 0.08725627 0.08735641 0.08748915
 0.08764337 0.08775935 0.08778405 0.08772938 0.08766776 0.08766675 0.08774254 0.08789408 0.08814701 0.0884902
 0.08878294 0.0888452 0.08868398 0.08852455 0.0885596 0.08875492 0.08894523 0.08901779 0.08895525 0.08881724
 0.08876349 0.08900498 0.08961286 0.09036119 0.09079626 0.09049831 0.08936112 0.08774284 0.08638069 0.08600616
 0.08681731 0.08825713 0.08943038 0.08982707 0.08959951 0.08917721 0.08881854 0.0886061 0.08864743 0.08905604
 0.08976558 0.09045616 0.09067971 0.09015412 0.08908186 0.08811441 0.08782058 0.08824489 0.0891073 0.09014402
 0.09085391 0.09024308 0.08770406 0.08435318 0.08268481 0.08426668 0.08809792 0.09164964 0.09316876 0.09260802
 0.09089395 0.08910871 0.08820334 0.08867408 0.09023936 0.09211935 0.09365383 0.09447622 0.09435187 0.09329152
 0.09177084 0.09052528 0.09013711 0.09086713 0.09255395 0.09445402 0.09553626 0.09529324 0.09412321 0.09281731
 0.09197645 0.09198315 0.09303626 0.09491475 0.09699427 0.09870617 0.09983413 0.1003953 0.1005021 0.1003354
 0.1000534 0.09977175 0.0996853 0.09996779 0.1004285 0.1005525 0.1000743 0.09933903 0.09895389 0.09916273
 0.09963828 0.09987733 0.09969862 0.09915053 0.0980018 0.09585401 0.09296194 0.09036265 0.08886486 0.08848117
 0.08908407 0.0907506 0.09297037 0.09440258 0.09422394 0.09324057 0.09301832 0.09419004 0.09605724 0.09760514
 0.09848667 0.09908076 0.09990023 0.1010137 0.1018953 0.1018136 0.1005818 0.09902488 0.09843184 0.09930752
 0.1008805 0.1020488 0.1025363 0.102858 0.1034084 0.1038871 0.1035634 0.1020621 0.1000167 0.09884211
 0.09956707 0.1018156 0.1040078 0.1045566 0.1029947 0.1002226 0.09775379 0.09662886 0.09701282 0.09863259
 0.1011545 0.1040207 0.1063544 0.1074036 0.1070631 0.1058577 0.1043698 0.1026968 0.1006552 0.09862095
 0.09775539 0.09891985 0.1015701 0.1041889 0.1056882 0.106014 0.1055326 0.1042971 0.1021414 0.09942822
 0.09738324 0.09718874 0.09863947 0.1001931 0.1006094 0.1001087 0.0996713 0.09969781 0.09979331 0.09958401
 0.09927532 0.09935624 0.09997352 0.1007437 0.1011589 0.1010538 0.1006401 0.1002054 0.09984177 0.09939612
 0.09870675 0.0979661 0.09770655 0.09824082 0.09924173 0.1000721 0.1004143 0.1003941 0.1001949 0.09975055
 0.09886527 0.09760128 0.09646416 0.09604573 0.09645028 0.09721598 0.09780597 0.09800693 0.09787716 0.09754761
 0.0971351 0.09670886 0.09630089 0.09598237 0.09585474 0.09591014 0.0959925 0.0959534 0.09577316 0.09550067
 0.09515414 0.09472676 0.09425208 0.0938236 0.09353463 0.09340161 0.09336267 0.09334262 0.09328625 0.09314377
 0.09288636 0.0925464 0.09219712 0.0918854 0.09161425 0.09138335 0.09120736 0.09108715 0.09098803 0.0908635
 0.09069487 0.09049597 0.09028246 0.09005505 0.08981592 0.08958354 0.08938359 0.08922978 0.08911124 0.08900003
 0.08888403 0.0887851 0.08871925 0.08865039 0.08852017 0.08832021 0.08810236 0.08792129 0.0877918 0.08769488
 0.08760022 0.08747907 0.08731103 0.08709621 0.086871 0.08669862 0.08662283 0.08663453 0.08669236 0.08675767
 0.08679862 0.08679105 0.08673781 0.08666728 0.08659849 0.08652461 0.08643536 0.08634107 0.08627135 0.08625418
 0.086289 0.08634118 0.08637162 0.0863664 0.08633345 0.08629096 0.0862653 0.08627231 0.0862893 0.08627309
 0.08621684 0.08616333 0.08615279 0.08617768 0.0861977 0.08618699 0.08615755 0.08614033 0.0861493 0.08617015
 0.08618233 0.08618329 0.08618713 0.08620346 0.08621947 0.08620577 0.08614673 0.08606255 0.08599021 0.08594565
 0.08591826 0.08589774 0.08588748 0.08588942 0.08589016 0.08586998 0.08582276 0.08576204 0.08570465 0.08565013
 0.08558285 0.08549322 0.0853883 0.08528078 0.08517615 0.08507089 0.08495758 0.08483037 0.0846886 0.08453441
 0.08436802 0.08418844 0.08399728 0.0838002 0.08360702 0.08342968 0.08327171 0.0831183 0.08294508 0.08274166
 0.08252241 0.08231231 0.08212535 0.08195758 0.08179821 0.081644 0.08150136 0.08137748 0.0812736 0.08118701
 0.08111368 0.08104976 0.08099733 0.0809701 0.08098575 0.08104679 0.08113386 0.08122249 0.08130421 0.08138661
 0.08147718 0.08157478 0.08167605 0.08178328 0.08190223 0.08203513 0.08217575 0.08231147 0.08243351 0.08254619
 0.08266277 0.08279185 0.08293292 0.08308339 0.08324072 0.08339626 0.08353846 0.08366713 0.08379686 0.0839406
 0.08409556 0.08425074 0.08440341 0.08456226 0.08473648 0.0849276 0.08513248 0.08534932 0.08557777 0.0858148
 0.08605292 0.08628374 0.0865057 0.08672895 0.08696956 0.08723577 0.08751988 0.08780557 0.08808266 0.08835366
 0.08862684 0.08890572 0.08918686 0.08946796 0.08975416 0.09005246 0.09036149 0.09067151 0.09097467 0.09127186
 0.09156869 0.09186794 0.09216714 0.09246247 0.09275433 0.09304804 0.0933461 0.09364142 0.09392347 0.09419107
 0.09445398 0.09472177 0.09499682 0.09527566 0.09555022 0.09581007 0.09605223 0.09628852 0.0965336 0.09678584
 0.09702916 0.09725574 0.09747747 0.09770948 0.09794799 0.09817158 0.09836435 0.09853201 0.09869281 0.09885539
 0.0990109 0.0991466 0.09926258 0.09937149 0.09948415 0.09960055 0.09971696 0.09983543 0.0999593 0.1000823
 0.1001922 0.1002855 0.100371 0.1004573 0.1005453 0.1006327 0.1007214 0.1008157 0.1009174 0.1010213
 0.1011179 0.1012062 0.1013039 0.1014355 0.1016102 0.1018178 0.1020481 0.1023041 0.1025894 0.1028938
 0.1032024 0.1035138 0.1038375 0.1041715 0.1044929 0.1047803 0.1050366 0.1052818 0.1055313 0.1057932
 0.1060789 0.1064003 0.1067556 0.1071286 0.1075001 0.1078558 0.1081881 0.1085008 0.1088055 0.1091071
 0.1093938 0.1096493 0.1098702 0.1100664 0.1102498 0.110424 0.1105808 0.1107035 0.1107731 0.1107727
 0.1106861 0.1104991 0.1102099 0.1098325 0.1093819 0.1088557 0.1082375 0.1075164 0.1066931 0.1057664
 0.1047252 0.1035613 0.1022947 0.1009854 0.09972349 0.09860373 0.09770355 0.09707806 0.09676547 0.09678023
 0.09708863 0.09759237 0.09814506 0.09859353 0.0988169 0.09874868 0.0983824 0.09776166 0.09695755 0.09604611
 0.09509483 0.09415399 0.09325182 0.09240551 0.09164985 0.09105711 0.09072779 0.09076893 0.09128365 0.09235484
 0.09399229 0.09607091 0.09833775 0.1005149 0.1024227 0.1040241 0.1053781 0.1065658 0.1076498 0.1086659
 0.1096275 0.110534 0.1113787 0.1121501 0.1128304 0.1133967 0.1138281 0.1141119 0.1142502 0.1142675
 0.1142135 0.1141572 0.1141752 0.1143361 0.1146753 0.1151724 0.1157529 0.1163185 0.1167849 0.1171074
 0.1172919 0.1174068 0.1176094 0.1181609 0.119361 0.1213791 0.1241006 0.1271505 0.1300977 0.1326613
 0.1347651 0.1364642 0.1378552 0.1390275 0.1400482 0.1409631 0.1418057 0.1426001 0.1433595 0.1440891
 0.1447944 0.1454857 0.1461751 0.1468713 0.1475753 0.1482807 0.1489797 0.1496704 0.1503583 0.151049
 0.1517399 0.1524209 0.1530839 0.1537303 0.1543673 0.1549968 0.1556136 0.1562126 0.1567941 0.1573626
 0.1579234 0.1584809 0.1590346 0.1595763 0.1600955 0.1605886 0.1610596 0.1615143 0.1619545 0.16238
 0.1627921 0.1631939 0.1635874 0.1639723 0.1643472 0.1647126 0.1650711 0.1654263 0.165781 0.1661384
 0.1665033 0.1668804 0.1672702 0.1676696 0.1680763 0.1684921 0.1689191 0.1693536 0.1697869 0.1702121
 0.1706299 0.1710455 0.1714642 0.1718884 0.1723178 0.1727512 0.173187 0.173624 0.1740609 0.1744964
 0.1749296 0.1753599 0.1757885 0.1762179 0.1766504 0.1770866 0.1775253 0.1779659 0.1784085 0.1788542
 0.1793031 0.1797516 0.1801916 0.1806156 0.1810229 0.1814182 0.1818049 0.182183 0.1825522 0.1829135
 0.1832677 0.1836155 0.1839547 0.1842798 0.1845865 0.1848767 0.1851569 0.1854326 0.1857065 0.1859774
 0.1862425 0.1865007 0.1867552 0.1870094 0.1872632 0.1875149 0.1877663 0.1880231 0.1882909 0.1885718
 0.1888645 0.189166 0.1894744 0.1897888 0.1901098 0.1904404 0.1907831 0.1911375 0.1915002 0.1918679
 0.1922383 0.19261 0.1929855 0.1933708 0.193769 0.1941772 0.1945902 0.1950045 0.1954198 0.195838
 0.1962613 0.1966886 0.1971175 0.1975494 0.1979881 0.198434 0.1988855 0.1993413 0.1997977 0.2002482
 0.2006887 0.2011201 0.2015457 0.2019688 0.2023922 0.2028142 0.2032305 0.2036393 0.2040424 0.2044429
 0.2048451 0.2052528 0.2056648 0.2060763 0.2064865 0.2068971 0.2073087 0.2077207 0.2081353 0.208553
 0.2089713 0.2093885 0.2098061 0.2102272 0.210654 0.2110849 0.2115151 0.2119442 0.2123794 0.2128242
 0.2132706 0.2137109 0.214148 0.2145889 0.2150369 0.2154928 0.2159547 0.216417 0.2168761 0.217333
 0.2177874 0.2182364 0.2186802 0.2191212 0.2195602 0.2199989 0.2204387 0.2208767 0.2213101 0.2217423
 0.2221767 0.2226097 0.2230392 0.2234682 0.2238976 0.2243259 0.2247553 0.2251879 0.2256188 0.2260434
 0.226463 0.2268801 0.2272966 0.227717 0.2281427 0.228571 0.2290029 0.2294411 0.2298803 0.2303131
 0.2307408 0.2311666 0.2315894 0.2320127 0.2324432 0.2328787 0.2333115 0.2337405 0.234167 0.234589
 0.2350095 0.2354327 0.2358544 0.2362697 0.2366831 0.2370947 0.2374959 0.2378865 0.238274 0.2386535
 0.2390016 0.2392614 0.2392841 0.2387598 0.2371723 0.2338038 0.2278717 0.2188403 0.2067409 0.1922648
 0.1765711 0.1609248 0.1463561 0.1335212 0.1227759 0.1143048 0.1082154 0.104628 0.103745 0.1059442
 0.1119068 0.1222164 0.1358687 0.1489816 0.1562463 0.154946 0.1474162 0.1389243 0.1333814 0.1314245
 0.1317439 0.1330424 0.1348029 0.1371419 0.1403643 0.1445066 0.1492928 0.1545843 0.16064 0.1677236
 0.1755953 0.1835964 0.1911997 0.1983496 0.2052736 0.2120761 0.2185772 0.224487 0.2296317 0.2340107
 0.2377357 0.2409618 0.2438294 0.2464313 0.2488276 0.251054 0.2530789 0.2547796 0.2560123 0.2567271
 0.2570255 0.2571127 0.2571841 0.2573407 0.2575972 0.2579415 0.2583641 0.2588544 0.2594008 0.2599931
 0.2606153 0.2612501 0.2618887 0.2625225 0.263135 0.263715 0.2642645 0.2647869 0.26528 0.2657455
 0.2661908 0.2666218 0.2670436 0.2674612 0.2678739 0.2682776 0.2686729 0.2690608 0.2694355 0.2697914
 0.2701274 0.2704425 0.2707366 0.271017 0.2712936 0.2715701 0.2718471 0.2721246 0.2723988 0.272665
 0.2729248 0.2731823 0.2734376 0.2736903 0.2739412 0.2741859 0.2744183 0.2746421 0.2748667 0.2750949
 0.2753236 0.2755517 0.2757788 0.276001 0.2762152 0.2764235 0.276634 0.2768568 0.2770946 0.2773381
 0.2775776 0.2778149 0.2780578 0.2783074 0.2785597 0.2788124 0.2790648 0.2793174 0.2795745 0.2798377
 0.2800983 0.2803434 0.2805675 0.2807766 0.2809864 0.2812142 0.2814662 0.2817321 0.2819995 0.2822685
 0.2825447 0.2828293 0.28312 0.2834156 0.283718 0.2840343 0.2843718 0.284729 0.2850958 0.2854667
 0.2858427 0.2862231 0.2866068 0.2869988 0.287401 0.287803 0.288192 0.28857 0.2889555 0.2893702
 0.2898189 0.2902825 0.2907341 0.2911648 0.2915875 0.29202 0.2924718 0.2929346 0.2933742 0.2937537
 0.2940848 0.2944379 0.2948765 0.2953964 0.2959396 0.2964559 0.2969361 0.2973965 0.2978505 0.2982943
 0.2987129 0.299095 0.2994512 0.2998223 0.3002562 0.3007598 0.3012866 0.301785 0.3022426 0.302672
 0.303084 0.3034852 0.3038678 0.3041905 0.3044196 0.3046134 0.3049142 0.3054142 0.3060518 0.3066761
 0.3071972 0.3076396 0.3080602 0.3084728 0.3088632 0.3092039 0.3094156 0.3094075 0.3092461 0.3092159
 0.3095879 0.3103468 0.3112246 0.3119726 0.3125238 0.3129385 0.3132946 0.3136355 0.3139429 0.3141366
 0.3141598 0.3141074 0.3142155 0.3146487 0.3153167 0.3159734 0.3164765 0.3168709 0.3172533 0.3176602
 0.318047 0.3182668 0.318132 0.3176696 0.3172938 0.3175373 0.3185333 0.3198638 0.3209794 0.3216895
 0.3221606 0.3225303 0.3227053 0.3225325 0.3219858 0.3211777 0.3204098 0.320214 0.3210028 0.3225407
 0.3240448 0.3249689 0.3254702 0.3260109 0.3267581 0.3275152 0.3280414 0.3282664 0.3282523 0.3280561
 0.3277003 0.3273278 0.3272982 0.3279367 0.329154 0.330465 0.3314422 0.3320518 0.3324621 0.3325534
 0.3317871 0.3298458 0.3274805 0.3263272 0.3274541 0.3302318 0.3330105 0.3347521 0.3356028 0.3361178
 0.336541 0.3367342 0.3361733 0.3341274 0.3306486 0.3274308 0.3267842 0.3293633 0.3334344 0.336553
 0.3374327 0.3362126 0.3338352 0.3316103 0.3307524 0.3317201 0.3340187 0.3367056 0.3389598 0.3403046
 0.3406345 0.3401715 0.339374 0.3388131 0.3388135 0.3389689 0.3383931 0.3368709 0.3352737 0.3342191
 0.332938 0.3305299 0.3279589 0.3274543 0.32975 0.3330252 0.3350152 0.335327 0.3350434 0.3345475
 0.3326215 0.3280614 0.3219137 0.3174532 0.3173805 0.321129 0.3254271 0.3275076 0.3272958 0.3264897
 0.3261599 0.3256078 0.3234018 0.3193901 0.3154872 0.3139589 0.3148869 0.3160556 0.3154119 0.3125333
 0.3075646 0.3006604 0.2936316 0.2903162 0.2931931 0.3002753 0.3068532 0.3095628 0.3074587 0.300608
 0.2903619 0.2807425 0.2766542 0.2793817 0.2850925 0.2885328 0.2871698 0.2813362 0.272077 0.2606147
 0.2493997 0.2418411 0.2401168 0.2434268 0.2482493 0.2499835 0.2453099 0.2347771 0.2233376 0.2166468
 0.2158578 0.2169323 0.2154219 0.2106329 0.2047553 0.199763 0.1962652 0.1939846 0.192121 0.1899378
 0.1873567 0.1840688 0.1784751 0.1695372 0.1597532 0.1539046 0.1540979 0.1579899 0.1624507 0.1666493
 0.1704738 0.1723559 0.1709326 0.1678162 0.1666027 0.1690546 0.1734283 0.1767164 0.1777195 0.1775455
 0.1775842 0.1777912 0.1773777 0.1766776 0.1772462 0.1798225 0.1831128 0.1852217 0.1856511 0.1852708
 0.184902 0.1846566 0.1843208 0.1837073 0.1826815 0.1812136 0.1793895 0.1772638 0.1748527 0.1723245
 0.1699172 0.167489 0.1645016 0.1609718 0.1582891 0.1582697 0.1611682 0.1654393 0.1696753 0.1734746
 0.1757967 0.1743304 0.1683971 0.1615488 0.159171 0.1633544 0.171259 0.1783604 0.1820522 0.182002
 0.1786492 0.1730319 0.167976 0.1676204 0.1742503 0.1859281 0.1982051 0.2078381 0.2140548 0.216961
 0.2164153 0.2128796 0.208369 0.2057304 0.2068881 0.2117723 0.218529 0.2243217 0.22654 0.2249616
 0.2233708 0.227174 0.2377057 0.2501035 0.2585409 0.262362 0.2651544 0.2691436 0.2732694 0.2763907
 0.2795365 0.284067 0.2892851 0.292929 0.2931311 0.2892064 0.2816692 0.2727772 0.2661993 0.2642829
 0.2657125 0.2672025 0.2669381 0.2647304 0.2600214 0.2528094 0.246288 0.245184 0.2504944 0.2581436
 0.2636569 0.2663114 0.2679402 0.2693304 0.269187 0.2663156 0.2618998 0.2589387 0.2592652 0.2617011
 0.2636116 0.2635327 0.2614287 0.2572221 0.2507045 0.2429665 0.2365144 0.2331651 0.2322874 0.2316384
 0.22968 0.2266957 0.2239523 0.2224199 0.2223159 0.2233063 0.224958 0.2273156 0.2309837 0.2362226
 0.2421228 0.2473136 0.2514986 0.2556933 0.2608171 0.2665175 0.2715524 0.2750271 0.277115 0.2787696
 0.2808626 0.2834728 0.2858452 0.2870645 0.2869185 0.2861508 0.2857703 0.2861185 0.2867595 0.2872375
 0.2876785 0.2886072 0.2904302 0.29315 0.2963389 0.2993451 0.3017661 0.3037834 0.3058402 0.3079876
 0.3097859 0.3108953 0.3115287 0.3121848 0.3130676 0.3139126 0.3143404 0.3142689 0.3139715 0.3138178
 0.3140072 0.3144929 0.3150759 0.3155508 0.3158205 0.3159288 0.3160044 0.3161872 0.3166154 0.3174418
 0.3187739 0.3205562 0.3225554 0.3245029 0.3262374 0.3277026 0.3288682 0.3297029 0.3301949 0.3303458
 0.3301449 0.3295723 0.3286085 0.3272112 0.32531 0.3229119 0.3202868 0.3180264 0.3168046 0.3169629
 0.3182845 0.3201728 0.3220582 0.3236741 0.3250418 0.3262886 0.3275006 0.3286893 0.3298349 0.33093
 0.3319932 0.3330543 0.3341291 0.3352016 0.3362296 0.3371711 0.338008 0.3387469 0.3394027 0.3399794
 0.340461 0.3408199 0.3410361 0.3411089 0.3410484 0.3408539 0.3404993 0.3399482 0.3391894 0.3382645
 0.337255 0.336237 0.3352377 0.3342316 0.3331795 0.3320589 0.3308353 0.3294242 0.3277462 0.3258452
 0.323895 0.322037 0.320242 0.3183666 0.3163061 0.3140372 0.3115453 0.3087771 0.3056716 0.3021988
 0.2983609 0.2941815 0.289705 0.2850067 0.2801993 0.2754214 0.2707991 0.2664085 0.2622715 0.2583657
 0.2546169 0.2508842 0.2469779 0.2427109 0.2379448 0.2326017 0.2266568 0.2201449 0.2131823 0.205972
 0.1987704 0.1918401 0.1854187 0.1797107 0.1748801 0.1710403 0.1682476 0.1665058 0.1657827 0.1660322
 0.1672051 0.1692419 0.1720552 0.1755202 0.1794802 0.1837606 0.1881832 0.192586 0.1968608 0.2009905
 0.2050351 0.2090546 0.21304 0.2169239 0.220648 0.2241987 0.2275797 0.230778 0.2337703 0.2365529
 0.2391523 0.241605 0.2439249 0.2460839 0.2480158 0.2496477 0.2509359 0.2518857 0.2525484 0.2530088
 0.2533723 0.2537464 0.2542232 0.2548706 0.2557342 0.2568427 0.2582138 0.2598532 0.2617441 0.2638378
 0.2660678 0.268381 0.2707589 0.2732114 0.2757555 0.2783952 0.2811112 0.2838616 0.2865852 0.289205
 0.291638 0.2938159 0.2957056 0.2973103 0.2986493 0.2997357 0.3005745 0.3011778 0.301572 0.3017918
 0.3018689 0.3018257 0.3016711 0.3013977 0.3009877 0.3004218 0.2996875 0.2987788 0.2976835 0.2963651
 0.2947643 0.2928349 0.2905883 0.2881145 0.2855739 0.2831644 0.2810711 0.2794189 0.2782495 0.2775255
 0.2771525 0.2770089 0.2769685 0.2769047 0.2766963 0.2762521 0.2755331 0.2745451 0.2733145 0.2718701
 0.2702371 0.2684381 0.2664983 0.2644514 0.2623439 0.2602297 0.2581435 0.2560707 0.2539652 0.2518113
 0.249651 0.2475434 0.2455148 0.2435519 0.2416262 0.2397192 0.2378345 0.2359914 0.2342063 0.2324884
 0.2308483 0.2293005 0.2278616 0.2265466 0.2253589 0.2242836 0.2233003 0.2223936 0.2215439 0.2207239
 0.2199146 0.2191168 0.2183502 0.2176526 0.2170583 0.2165447 0.2160095 0.2153229 0.2144082 0.2132835
 0.2120594 0.2109125 0.2100416 0.2096089 0.2096636 0.2100745 0.2105474 0.2107585 0.2104973 0.2097063
 0.2084332 0.2067713 0.2048214 0.2026911 0.2005224 0.1984856 0.1967188 0.1952822 0.1941663 0.1933129
 0.192638 0.1920817 0.1916525 0.1914185 0.1914532 0.1917561 0.1921856 0.1925165 0.1926315 0.1926449
 0.1927983 0.1932516 0.193985 0.1948426 0.1956365 0.1962381 0.1965993 0.1967124 0.1965945 0.1963137
 0.1959821 0.1957051 0.1955425 0.1954849 0.1954457 0.1953094 0.1950014 0.1944931 0.1937725 0.1928502
 0.1917594 0.1905214 0.1891432 0.1876421 0.1860242 0.1842826 0.182498 0.1809151 0.1798483 0.1794997
 0.1798449 0.1806517 0.1816327 0.182622 0.183569 0.1843837 0.1849379 0.1852859 0.1857699 0.1867907
 0.1884587 0.1904738 0.1923427 0.1937093 0.1944725 0.1946611 0.1943316 0.1935696 0.1924515 0.1910027
 0.1892732 0.1873746 0.1853705 0.1832536 0.1810746 0.1789555 0.176989 0.175234 0.1737176 0.172438
 0.1714612 0.1705309 0.1680896 0.1618274 0.1520197 0.1436853 0.1428098 0.1498928 0.1592219 0.1649759
 0.1661467 0.1651566 0.1640242 0.1631856 0.1625641 0.162231 0.1622403 0.1624863 0.1627488 0.1627941
 0.1625153 0.161917 0.1608686 0.1588807 0.1550942 0.1485777 0.1390127 0.1273504 0.1156276 0.1058891
 0.09916954 0.09526934 0.09319448 0.09185468 0.0906899 0.08986005 0.08987373 0.09106295 0.0933966 0.09664429
 0.1005404 0.1047506 0.1088125 0.1122812 0.1149708 0.1169671 0.1184032 0.1193202 0.1197333 0.119703
 0.1193102 0.1186313 0.1177407 0.1166784 0.1154227 0.1139442 0.1123042 0.1106954 0.1093626 0.1084431
 0.1078811 0.1075188 0.107244 0.1070234 0.1068471 0.1067009 0.1065702 0.1064452 0.1063354 0.1062701
 0.1062604 0.1062814 0.1063146 0.1063793 0.1065072 0.1067028 0.1069239 0.1071037 0.107223 0.107334
 0.1074371 0.1073583 0.1068684 0.1059666 0.1049803 0.1043557 0.1043497 0.1048819 0.1056252 0.1062479
 0.1066129 0.1067884 0.1068956 0.1069488</values></Ydata></ScSm><ScRf><Ydata ylabel="Single channel"><values byteorder="INTEL" format="FLOAT32" numvalues="1820"> 0.06969848 0.06982747 0.0699456 0.07005122 0.07014778 0.07024413 0.0703509 0.07047401 0.07061042 0.07074805
 0.07087247 0.07097825 0.07107113 0.07115686 0.07123727 0.07132068 0.07142395 0.07155508 0.07170034 0.07183295
 0.07193325 0.07200586 0.072081 0.07218732 0.07231431 0.07241036 0.07242969 0.07238148 0.07232618 0.07232073
 0.07237901 0.07249979 0.07270382 0.07298209 0.07321888 0.07326521 0.07312564 0.07298652 0.07300979 0.07316998
 0.07332993 0.07339279 0.07334125 0.07322435 0.07317597 0.0733728 0.07387532 0.07449643 0.07485808 0.07460912
 0.07365967 0.07230826 0.07116993 0.07085478 0.07152823 0.07272676 0.07370456 0.07403584 0.07384695 0.07349625
 0.07319909 0.07302248 0.07305412 0.07338943 0.07397537 0.07454518 0.07472338 0.07427572 0.07337596 0.07257099
 0.07233391 0.072698 0.07342605 0.07429456 0.07488455 0.07437313 0.07226364 0.06948806 0.06811294 0.06943034
 0.07260599 0.07554586 0.07680053 0.07633101 0.07490484 0.07342143 0.07267199 0.07306665 0.07436775 0.07592625
 0.0771956 0.07787467 0.07777207 0.07689812 0.07564471 0.07461775 0.07429923 0.0749075 0.0763092 0.07788606
 0.07878302 0.07858126 0.07761163 0.0765291 0.0758324 0.07584098 0.0767203 0.07828469 0.08001409 0.0814368
 0.08237384 0.08283865 0.08292402 0.08278219 0.08254862 0.08232042 0.08225685 0.08249891 0.08288768 0.08299698
 0.0826067 0.08200178 0.08168481 0.08185887 0.08225441 0.08245553 0.08231226 0.081864 0.08091861 0.07914655
 0.07676011 0.07461692 0.07338244 0.07306534 0.07356507 0.07495125 0.07679924 0.0779915 0.07784431 0.07703098
 0.0768539 0.07783736 0.07939984 0.08069845 0.08144482 0.08195236 0.08264473 0.08357736 0.08431466 0.08425315
 0.0832424 0.08197059 0.08150625 0.08226202 0.08359088 0.08457801 0.08500038 0.0852917 0.0857805 0.08621398
 0.08598089 0.08476851 0.08310628 0.08217365 0.08282579 0.08474897 0.08662957 0.08714503 0.08590042 0.08364323
 0.08164133 0.08077213 0.08117922 0.08263634 0.08486314 0.08738729 0.08946651 0.09046338 0.09028674 0.08937872
 0.08823214 0.08692955 0.08531749 0.08372239 0.08313801 0.08429487 0.08672149 0.08912075 0.0905657 0.09101096
 0.09076673 0.08987427 0.08818933 0.08602859 0.08445826 0.08450355 0.08597893 0.08753699 0.08810053 0.08786954
 0.08770412 0.08795162 0.08826022 0.08830011 0.08825779 0.08857191 0.08937208 0.09031093 0.09092982 0.09108038
 0.09095608 0.09082057 0.09075713 0.09062082 0.0902603 0.08985448 0.08989502 0.09066802 0.0918697 0.09291226
 0.09350329 0.09376146 0.09385839 0.09372886 0.09318137 0.0922704 0.09147745 0.09136872 0.09204372 0.09305947
 0.09390282 0.0943743 0.09453574 0.09451288 0.09441108 0.09429069 0.09418321 0.09416232 0.09433014 0.09467967
 0.09505537 0.09530592 0.09540798 0.09541149 0.09534024 0.09519172 0.09499875 0.09484949 0.09483226 0.09496443
 0.09518982 0.09543758 0.095652 0.09577877 0.0957832 0.09569497 0.09559059 0.09552169 0.09549247 0.09550208
 0.09556625 0.09568632 0.09582589 0.09593749 0.09600192 0.09602933 0.09603152 0.09601051 0.0959727 0.09593946
 0.09594022 0.09599479 0.09609384 0.09620211 0.09629866 0.09640329 0.09653418 0.09665457 0.0967036 0.09667499
 0.0966282 0.09662349 0.09667391 0.09675597 0.09683818 0.09689155 0.09689127 0.09683313 0.0967576 0.09673829
 0.09682564 0.09700943 0.09724443 0.09748882 0.09770647 0.09786765 0.09797297 0.09805396 0.09813441 0.09820914
 0.09826778 0.09832215 0.09840487 0.09854461 0.09873834 0.09894773 0.09913018 0.09926813 0.0993683 0.09945431
 0.09956348 0.09971529 0.09987265 0.09997122 0.100002 0.1000307 0.1001187 0.100252 0.1003661 0.1004236
 0.1004491 0.1004938 0.100581 0.1006931 0.1008013 0.1008993 0.1010045 0.1011301 0.1012554 0.1013306
 0.1013251 0.1012673 0.1012201 0.1012178 0.1012487 0.1012944 0.1013568 0.1014396 0.1015223 0.1015728
 0.1015818 0.1015736 0.1015788 0.1015982 0.1016031 0.1015711 0.1015114 0.1014532 0.1014177 0.101405
 0.1013996 0.1013821 0.1013402 0.1012745 0.1011972 0.1011219 0.1010524 0.1009871 0.1009375 0.1009295
 0.1009662 0.1009965 0.1009462 0.1007898 0.1005799 0.1003977 0.1002832 0.1002139 0.1001369 0.1000163
 0.09985571 0.09968653 0.09953874 0.09942031 0.09931861 0.09921801 0.09911831 0.0990386 0.09899652 0.09897861
 0.09894054 0.09884799 0.09871259 0.09857705 0.09847184 0.09839737 0.09834112 0.09829573 0.09826319 0.09825192
 0.09826571 0.09828892 0.09829397 0.09827118 0.0982421 0.09823877 0.09828025 0.09836744 0.09848101 0.09858225
 0.09863847 0.09865727 0.09868138 0.09874469 0.09884529 0.09896272 0.09908538 0.09921351 0.0993486 0.09949126
 0.09964676 0.09982452 0.10003 0.1002583 0.1004948 0.1007229 0.1009352 0.1011413 0.1013621 0.1016135
 0.1018921 0.1021796 0.1024592 0.1027281 0.1029935 0.1032608 0.1035299 0.1038023 0.1040867 0.1043919
 0.1047158 0.1050454 0.1053702 0.1056887 0.1060055 0.1063249 0.1066485 0.1069789 0.1073238 0.1076909
 0.1080709 0.1084322 0.1087455 0.1090151 0.1092785 0.1095735 0.1099096 0.1102653 0.1106045 0.1109018
 0.1111639 0.1114236 0.1117059 0.112004 0.1122992 0.1125959 0.1129222 0.1132924 0.1136775 0.1140217
 0.1142915 0.1145063 0.1147173 0.1149552 0.1152062 0.1154409 0.1156543 0.1158673 0.1160942 0.1163287
 0.1165654 0.1168155 0.1170882 0.1173677 0.1176258 0.1178525 0.1180599 0.1182588 0.1184431 0.118597
 0.1187126 0.1188019 0.1188938 0.119013 0.1191564 0.1193016 0.1194378 0.1195782 0.1197392 0.1199223
 0.1201235 0.1203456 0.1205889 0.1208397 0.1210843 0.1213339 0.1216156 0.12193 0.1222332 0.1224797
 0.1226713 0.1228468 0.1230324 0.1232292 0.1234418 0.1236887 0.1239773 0.1242865 0.1245858 0.1248625
 0.1251309 0.125418 0.1257343 0.1260543 0.1263317 0.126544 0.1267155 0.1268944 0.1271131 0.1273715
 0.1276495 0.1279274 0.128195 0.128444 0.1286558 0.1288081 0.1289008 0.128963 0.1290224 0.1290688
 0.1290574 0.1289465 0.128722 0.1283844 0.1279296 0.1273539 0.1266783 0.1259632 0.1252988 0.1247786
 0.1244764 0.1244324 0.1246479 0.1250835 0.1256651 0.1262993 0.1268936 0.1273659 0.1276442 0.1276746
 0.1274396 0.1269685 0.1263216 0.1255638 0.1247508 0.1239254 0.1231218 0.1223813 0.1217795 0.1214327
 0.1214676 0.121974 0.12297 0.1243839 0.1260535 0.1277665 0.1293415 0.1306947 0.131838 0.1328255
 0.1337076 0.1345206 0.1352901 0.1360276 0.1367284 0.137384 0.137996 0.1385736 0.1391171 0.1396121
 0.1400374 0.1403763 0.1406229 0.140786 0.1408854 0.1409396 0.1409607 0.1409596 0.1409448 0.1409049
 0.1407995 0.1405794 0.140219 0.1397355 0.1391961 0.1387237 0.1384869 0.1386548 0.1393242 0.1404616
 0.1419091 0.1434554 0.1449196 0.1461902 0.1472224 0.1480257 0.1486506 0.1491624 0.1496114 0.1500242
 0.1504128 0.1507838 0.1511403 0.1514841 0.1518186 0.152149 0.1524815 0.1528203 0.1531633 0.1535028
 0.1538347 0.1541653 0.1545058 0.1548606 0.1552213 0.155573 0.1559099 0.1562411 0.156578 0.156918
 0.1572493 0.1575683 0.157884 0.1582061 0.1585381 0.158879 0.1592219 0.1595529 0.1598606 0.1601492
 0.1604319 0.160716 0.1609983 0.1612766 0.1615556 0.1618395 0.1621257 0.1624082 0.1626862 0.1629635
 0.1632406 0.1635111 0.1637689 0.1640169 0.1642641 0.164516 0.1647709 0.165024 0.1652742 0.1655261
 0.1657874 0.16606 0.1663364 0.166606 0.1668638 0.1671122 0.1673554 0.1675971 0.1678401 0.168086
 0.1683344 0.1685846 0.1688355 0.1690846 0.1693303 0.1695752 0.1698244 0.1700793 0.1703354 0.170587
 0.1708319 0.1710717 0.171309 0.1715481 0.1717938 0.1720469 0.1723005 0.1725459 0.1727822 0.1730156
 0.1732508 0.1734872 0.1737228 0.1739578 0.1741937 0.1744318 0.1746722 0.1749142 0.1751568 0.1753991
 0.1756403 0.1758795 0.1761175 0.1763564 0.1765979 0.1768431 0.1770911 0.1773377 0.1775771 0.1778075
 0.1780342 0.1782643 0.1785017 0.1787443 0.1789861 0.179222 0.1794525 0.1796824 0.1799145 0.1801486
 0.1803834 0.1806178 0.1808513 0.1810849 0.1813194 0.181554 0.1817865 0.1820168 0.1822462 0.1824764
 0.1827093 0.1829448 0.1831816 0.1834195 0.1836597 0.1839019 0.1841434 0.1843835 0.1846227 0.1848603
 0.1850957 0.1853295 0.1855625 0.1857944 0.1860268 0.1862618 0.1864996 0.1867389 0.1869791 0.1872186
 0.1874566 0.1876958 0.1879397 0.1881876 0.1884363 0.1886845 0.1889322 0.1891789 0.1894258 0.189675
 0.1899259 0.1901774 0.1904301 0.190685 0.1909425 0.191202 0.1914614 0.1917165 0.1919651 0.192208
 0.1924447 0.1926739 0.1928969 0.1931166 0.1933347 0.1935537 0.1937768 0.1940038 0.1942322 0.1944625
 0.1946965 0.1949342 0.195176 0.1954236 0.1956756 0.1959301 0.1961883 0.1964496 0.1967063 0.1969526
 0.1971924 0.1974348 0.1976869 0.19795 0.198218 0.1984832 0.1987449 0.1990075 0.1992708 0.1995324
 0.199794 0.2000567 0.2003179 0.2005786 0.2008432 0.2011114 0.2013802 0.2016507 0.2019238 0.2021951
 0.2024636 0.2027327 0.203003 0.2032739 0.2035479 0.2038238 0.2040957 0.2043643 0.2046372 0.2049156
 0.2051942 0.2054701 0.2057407 0.2060041 0.2062682 0.2065425 0.206822 0.2070955 0.2073616 0.2076226
 0.2078781 0.2081329 0.208392 0.2086455 0.2088692 0.2090137 0.2089506 0.2084083 0.2069347 0.2039052
 0.1986409 0.1906765 0.180038 0.1673288 0.1535652 0.1398584 0.1271104 0.1158895 0.1064986 0.09909187
 0.09375864 0.09060214 0.08980121 0.09168924 0.09685954 0.1058126 0.1176651 0.1290363 0.1353138 0.1341457
 0.1275726 0.1201768 0.1153521 0.1136442 0.1139095 0.1150188 0.1165231 0.1185258 0.1212948 0.1248639
 0.1289951 0.1335712 0.1388181 0.1449594 0.1517778 0.1586978 0.1652675 0.1714465 0.1774347 0.1833193
 0.1889405 0.1940449 0.1984827 0.2022563 0.2054656 0.2082444 0.2107104 0.2129414 0.2149918 0.2168946
 0.2186204 0.220059 0.2210867 0.2216674 0.2218973 0.2219566 0.2220083 0.2221289 0.2223254 0.2225909
 0.2229261 0.2233276 0.2237868 0.2242926 0.2248266 0.2253676 0.2259044 0.2264336 0.2269496 0.2274461
 0.2279202 0.2283673 0.2287855 0.2291827 0.2295689 0.2299446 0.2303079 0.2306624 0.2310136 0.2313635
 0.2317131 0.2320596 0.2323935 0.2327057 0.2329947 0.2332647 0.2335241 0.233785 0.2340536 0.2343253
 0.2345923 0.2348511 0.2351003 0.2353418 0.235583 0.2358283 0.2360728 0.2363108 0.2365436 0.2367741
 0.237004 0.2372368 0.2374765 0.2377214 0.2379659 0.2382055 0.2384388 0.2386684 0.2389005 0.2391388
 0.2393832 0.2396347 0.2398964 0.2401662 0.2404377 0.2407078 0.2409776 0.2412467 0.2415144 0.2417834
 0.2420563 0.2423319 0.2426073 0.242879 0.2431418 0.2433902 0.2436238 0.2438485 0.244074 0.2443078
 0.2445496 0.2447932 0.2450345 0.2452747 0.2455163 0.2457606 0.2460083 0.2462573 0.2465052 0.2467564
 0.2470206 0.2473004 0.247589 0.2478797 0.2481709 0.2484617 0.2487513 0.2490424 0.2493356 0.249624
 0.2498989 0.2501635 0.2504363 0.2507388 0.2510737 0.2514189 0.2517483 0.2520578 0.2523615 0.2526724
 0.2529942 0.2533195 0.253624 0.2538813 0.2541029 0.2543464 0.2546644 0.2550529 0.2554607 0.2558411
 0.2561838 0.2565057 0.2568223 0.2571301 0.257413 0.2576609 0.2578893 0.2581403 0.2584557 0.2588343
 0.2592281 0.2595903 0.2599145 0.260217 0.2605091 0.2607946 0.2610636 0.2612773 0.2614051 0.2614988
 0.2616861 0.2620517 0.262545 0.2630345 0.2634393 0.2637776 0.2640975 0.2644114 0.2647067 0.2649597
 0.2651042 0.2650652 0.2649018 0.2648563 0.2651582 0.2657901 0.2665199 0.267135 0.2675825 0.2679177
 0.2682059 0.2684791 0.2687185 0.2688581 0.2688557 0.2687951 0.268874 0.2692251 0.2697669 0.2702921
 0.2706859 0.2709888 0.2712801 0.2715856 0.2718671 0.2720026 0.2718385 0.2714023 0.271045 0.2712128
 0.2720132 0.2730924 0.2739883 0.2745401 0.2748864 0.2751422 0.2752305 0.2750267 0.2745124 0.2737793
 0.273078 0.2728615 0.2734877 0.2747592 0.2760047 0.2767557 0.2771507 0.2775898 0.2782116 0.2788371
 0.2792562 0.2794169 0.2793822 0.2791999 0.2788804 0.2785419 0.2784962 0.2790267 0.2800582 0.2811716
 0.2819971 0.282507 0.2828507 0.2829257 0.2822648 0.2805939 0.2785603 0.2775662 0.2785226 0.2808916
 0.2832687 0.2847696 0.2855138 0.2859668 0.2863337 0.286501 0.2860297 0.2842997 0.2813544 0.2786371
 0.2781172 0.28035 0.2838556 0.2865506 0.2873384 0.2863359 0.2843495 0.2824999 0.2818204 0.2826968
 0.2847094 0.2870597 0.2890465 0.2902573 0.2905996 0.2902647 0.2896477 0.2892402 0.2893184 0.2895297
 0.2891178 0.2879043 0.2866334 0.2858265 0.2848275 0.2828778 0.2808131 0.2805421 0.2826849 0.285673
 0.287567 0.2880423 0.2880322 0.2878481 0.2864189 0.2827004 0.2776089 0.2739919 0.2741903 0.2776996
 0.2816697 0.2837083 0.2837735 0.2833509 0.2833659 0.2832057 0.2816296 0.278522 0.2755768 0.2747842
 0.2762009 0.2778655 0.2779697 0.2761308 0.2724465 0.2670358 0.2615259 0.259361 0.2627614 0.2699563
 0.2767462 0.2801262 0.2792249 0.2740558 0.265829 0.2582537 0.2558721 0.2598718 0.266699 0.2714954
 0.2719252 0.2682826 0.2615203 0.2528362 0.2446903 0.2404934 0.2424321 0.2497069 0.2586899 0.2644956
 0.2634729 0.256128 0.2478541 0.2448773 0.2484028 0.2538149 0.256101 0.2545673 0.2518013 0.2501479
 0.2504157 0.2523075 0.2547563 0.2567692 0.2581939 0.2583207 0.2544823 0.2450045 0.2336025 0.2274058
 0.2296039 0.2368867 0.2448554 0.2524488 0.2594599 0.2633611 0.2619987 0.2578519 0.2564383 0.260421
 0.2670774 0.2717772 0.2726801 0.2714783 0.2703248 0.2692742 0.2673507 0.2653111 0.2656751 0.2695868
 0.2750164 0.2789615 0.2804572 0.2805719 0.2803861 0.2800844 0.2795197 0.2786644 0.2775646 0.2763525
 0.2752371 0.2742738 0.2733233 0.2723281 0.2712328 0.2693706 0.2655208 0.2594958 0.2534889 0.2505556
 0.2514058 0.2539647 0.2563602 0.2582752 0.2584441 0.2536331 0.242862 0.2311838 0.2262064 0.2307417
 0.240569 0.2491768 0.2529095 0.251417 0.2454523 0.236523 0.2284414 0.2266555 0.234046 0.2479125
 0.2624111 0.2735059 0.2804965 0.2837324 0.2830569 0.2789727 0.2739466 0.2714273 0.2734751 0.2794099
 0.2863311 0.2904631 0.2887959 0.2815664 0.2739057 0.2727337 0.2798942 0.2897035 0.2952271 0.2955453
 0.2947233 0.2953619 0.2963718 0.2965565 0.297118 0.2996415 0.3034989 0.3063734 0.3063406 0.3026834
 0.2958738 0.2881177 0.2830028 0.2826622 0.2854166 0.2876967 0.2877018 0.2854305 0.2804415 0.2728306
 0.2660326 0.264975 0.2704773 0.2780075 0.2828496 0.2844955 0.2851722 0.2858393 0.2850584 0.2813947
 0.2759612 0.2719355 0.2714437 0.273554 0.275807 0.2768793 0.276789 0.2753496 0.272175 0.2683338
 0.2665066 0.2686013 0.2737049 0.2789683 0.2822253 0.2833172 0.2832664 0.2829585 0.282667 0.2822186
 0.2814317 0.280724 0.2811386 0.2832367 0.286129 0.2882907 0.2893249 0.2902864 0.2921937 0.2947811
 0.2969034 0.2978026 0.2977738 0.2977897 0.2986266 0.3002279 0.3017605 0.3023477 0.3019317 0.30144
 0.3019535 0.3036756 0.3058475 0.3076199 0.3087641 0.3095593 0.3103172 0.311114 0.3117526 0.3119263
 0.3116294 0.3114107 0.3119693 0.3134295 0.3151943 0.3165509 0.3172572 0.3175058 0.3175191 0.3173338
 0.316917 0.3163477 0.3158205 0.3154974 0.3153974 0.3154272 0.3154838 0.3155125 0.3155084 0.3155048
 0.31555 0.3156672 0.3158396 0.3160415 0.3162587 0.3164673 0.3166301 0.3167381 0.316826 0.3169169
 0.3169708 0.3169107 0.316677 0.3162348 0.3155479 0.3145761 0.3132903 0.3116631 0.3096667 0.3073618
 0.3050642 0.303387 0.3029847 0.3041317 0.3065025 0.3093611 0.3119821 0.3139607 0.3152454 0.3159841
 0.3163618 0.31652 0.3165414 0.3164589 0.3162797 0.3160146 0.3156888 0.3153314 0.3149675 0.3146197
 0.3143071 0.3140314 0.3137721 0.3134947 0.3131673 0.3127731 0.3123118 0.3117903 0.3112111 0.3105638
 0.3098248 0.3089702 0.3080019 0.3069654 0.3059347 0.3049719 0.3040907 0.3032526 0.3023997 0.3014849
 0.3004606 0.2992638 0.2978741 0.2964091 0.2950976 0.2940975 0.2933509 0.2926523 0.2918314 0.2908418
 0.289715 0.2884938 0.2872128 0.2858974 0.284556 0.2831784 0.2817415 0.280217 0.2785852 0.2768471
 0.275021 0.2731304 0.2712009 0.2692536 0.2672759 0.2651893 0.2628529 0.2601066 0.2568148 0.2528908
 0.2483123 0.2431406 0.2375294 0.2316995 0.225884 0.2202817 0.2150484 0.210315 0.2062 0.202803
 0.2001935 0.1984105 0.1974728 0.1973881 0.1981484 0.1997172 0.2020185 0.2049337 0.2083074 0.2119558
 0.2156778 0.2192784 0.2226176 0.225659 0.2284604 0.2310928 0.2335677 0.2358415 0.2378727 0.2396531
 0.2411918 0.2424921 0.2435561 0.2444041 0.2450823 0.2456477 0.2461442 0.2465867 0.2469653 0.2472647
 0.2474853 0.2476484 0.2477893 0.2479436 0.2481342 0.2483642 0.2486244 0.2489159 0.2492607 0.249688
 0.2502106 0.2508182 0.2514894 0.2522067 0.2529662 0.2537802 0.2546738 0.2556792 0.2568301 0.2581484
 0.2596317 0.2612447 0.2629187 0.2645552 0.2660427 0.2672873 0.2682381 0.2688904 0.2692695 0.2694091
 0.2693413 0.2690949 0.2686958 0.2681652 0.2675236 0.2667961 0.266008 0.2651724 0.2642864 0.2633433
 0.2623509 0.2613386 0.2603403 0.2593691 0.2584169 0.2574804 0.2565717 0.2556994 0.2548571 0.2540367
 0.2532393 0.2524697 0.2517329 0.2510352 0.2503759 0.2497327 0.2490605 0.2483053 0.2474248 0.2463997
 0.2452267 0.2439024 0.242424 0.2408043 0.2390696 0.2372403 0.2353217 0.2333122 0.2312157 0.229042
 0.226795 0.2244679 0.2220666 0.2196452 0.217296 0.2150967 0.2130735 0.2112111 0.2094785 0.2078464
 0.2062973 0.2048208 0.2034046 0.2020398 0.2007298 0.1994815 0.1982937 0.1971679 0.1961186 0.1951648
 0.1943198 0.1935884 0.1929644 0.192434 0.1919865 0.1916169 0.1913265 0.1911353 0.1910755 0.1911446
 0.1912758 0.1913757 0.1913876 0.1913173 0.1912144 0.1911331 0.1910999 0.191111 0.1911451 0.1911544
 0.1910509 0.1907285 0.1900978 0.1890963 0.1876931 0.1859077 0.1838189 0.1815569 0.1792925 0.1772021
 0.1754111 0.1739704 0.1728746 0.1720716 0.1714699 0.1709903 0.170625 0.1704375 0.1705062 0.1708383
 0.1713029 0.1716861 0.1718769 0.1719872 0.1722513 0.1728287 0.1737122 0.1747672 0.1758222 0.1767517
 0.1775034 0.178071 0.1784724 0.1787474 0.1789292 0.1790147 0.1789849 0.178835 0.1785706 0.178205
 0.1777621 0.1772473 0.176633 0.1759019 0.1750717 0.1741586 0.1731618 0.172078 0.1708829 0.1695331
 0.1680679 0.1666939 0.1657152 0.1653691 0.1656992 0.1665347 0.1676154 0.1687697 0.1699313 0.1710023
 0.1718567 0.1725461 0.1733913 0.1747626 0.1767622 0.1791176 0.1813724 0.1831794 0.1844137 0.1850698
 0.1851748 0.1847891 0.1839602 0.1826757 0.1809493 0.1788966 0.1766593 0.1743574 0.1721413 0.170153
 0.1684468 0.1670366 0.1659264 0.1651073 0.1646322 0.1642265 0.162331 0.1566442 0.1473892 0.1394317
 0.1386094 0.1454415 0.1544075 0.1598751 0.1608846 0.1598013 0.158589 0.1576689 0.156966 0.1565512
 0.1564788 0.1566461 0.1568419 0.1568478 0.1565717 0.1560244 0.1550708 0.1532056 0.1495498 0.143163
 0.1337387 0.122246 0.1107217 0.1011862 0.09464429 0.09087959 0.08890009 0.08762833 0.08651809 0.08573753
 0.08579654 0.0870262 0.08939933 0.0926941 0.09665053 0.100935 0.1050873 0.108667 0.111484 0.1136076
 0.1151559 0.116171 0.1166815 0.1167603 0.1164885 0.1159337 0.1151594 0.1142005 0.113038 0.1116495
 0.1101046 0.1086052 0.1074056 0.1066495 0.1062783 0.1061215 0.1060533 0.1060387 0.1060802 0.1061791
 0.1063299 0.1065226 0.1067617 0.1070666 0.1074283 0.1077852 0.1080683 0.1082529 0.1083515 0.1083712
 0.1082825 0.1080407 0.1076652 0.1072597 0.106869 0.1063416 0.1054543 0.1042031 0.1029066 0.1019987
 0.1017334 0.1020414 0.102607 0.1030926 0.1033435 0.1034159 0.1034289 0.1033965 0.1032023 0.1027354
</values></Ydata></ScRf><Data_Parameters_AB><parameter name="DPF">1</parameter><parameter name="NPT">3497</parameter><parameter name="FXV">3996</parameter><parameter name="LXV">500</parameter><parameter name="CSF">1</parameter><parameter name="MXY">0.207984894514084</parameter><parameter name="MNY">-0.0842842906713486</parameter><parameter name="DAT">17/01/2024</parameter><parameter name="TIM">13:42:53.155 (GMT+1)</parameter><parameter name="DXU">WN</parameter></Data_Parameters_AB><AB__Qtest><MainReport name="Quality Test Report"><Header><Line><Legend>Test result ok/not ok [1/0]: </Legend><Value>0</Value></Line><Line><Legend>Method file: </Legend><Value>C:\Users\Public\Documents\Bruker\OPUS_8.2.28\QT\IRBT_v3_default.QT</Value></Line></Header><Matrix><Line><Legend></Legend><Legend>min</Legend><Legend>max</Legend><Legend>measured</Legend></Line><Line><Value>Absorption (X-Range 1):</Value><Value>0.400000</Value><Value>2.000000</Value><Value>0.257943</Value></Line><Line><Value>Noise (X-Range 4):</Value><Value></Value><Value>0.000300</Value><Value>0.000037</Value></Line><Line><Value>Signal/Noise (X-Range 2):</Value><Value>200.000000</Value><Value></Value><Value>143.987053</Value></Line><Line><Value>Signal/Noise (X-Range 3):</Value><Value>40.000000</Value><Value></Value><Value>117.100641</Value></Line><Line><Value>Water vapour (X-Range 5):</Value><Value></Value><Value>0.000300</Value><Value>0.000014</Value></Line><Line><Value>Signal/Water (X-Range 2):</Value><Value>100.000000</Value><Value></Value><Value>394.532349</Value></Line><Line><Value>Signal/Water (X-Range 3):</Value><Value>20.000000</Value><Value></Value><Value>320.862120</Value></Line><Line><Value>Fringes (X-Range 6):</Value><Value></Value><Value>0.000100</Value><Value>0.000028</Value></Line></Matrix></MainReport></AB__Qtest><Data_Parameters_ScSm><parameter name="DPF">1</parameter><parameter name="NPT">1814</parameter><parameter name="FXV">3996.63438082617</parameter><parameter name="LXV">499.579297603271</parameter><parameter name="CSF">1</parameter><parameter name="MXY">0.341108858585358</parameter><parameter name="MNY">0.0809701010584831</parameter><parameter name="DAT">17/01/2024</parameter><parameter name="TIM">13:42:53.155 (GMT+1)</parameter><parameter name="DXU">WN</parameter></Data_Parameters_ScSm><Data_Parameters_ScRf><parameter name="DPF">1</parameter><parameter name="NPT">1820</parameter><parameter name="FXV">4004.34989121387</parameter><parameter name="LXV">495.721542409425</parameter><parameter name="CSF">1</parameter><parameter name="MXY">0.317519128322601</parameter><parameter name="MNY">0.0681129395961761</parameter><parameter name="DAT">17/01/2024</parameter><parameter name="TIM">13:42:26.474 (GMT+1)</parameter><parameter name="DXU">WN</parameter></Data_Parameters_ScRf><Optic_Parameters_Rf><parameter name="APR">0</parameter><parameter name="APT">Open</parameter><parameter name="BMS">KBr</parameter><parameter name="DTC">RT-DLaTGS_IR-Biotyper [Microplate reader]</parameter><parameter name="HPF">0</parameter><parameter name="LPF">10.0</parameter><parameter name="LPV">4000</parameter><parameter name="PGR">0</parameter><parameter name="RCH">Module port</parameter><parameter name="RDX">0</parameter><parameter name="SRC">MIR</parameter><parameter name="VEL">10.0</parameter><parameter name="SON">Off</parameter></Optic_Parameters_Rf><Acquisition_Parameters_Rf><parameter name="ADT">1</parameter><parameter name="AQM">DD</parameter><parameter name="CFE">0</parameter><parameter name="COR">0</parameter><parameter name="DEL">0</parameter><parameter name="DLY">0</parameter><parameter name="HFW">8000</parameter><parameter name="LFW">0</parameter><parameter name="NSR">32</parameter><parameter name="PLF">AB</parameter><parameter name="RES">6</parameter><parameter name="RGN">-1</parameter><parameter name="STR">0</parameter><parameter name="TCL">MakeCompatibleScalar (0, {WSV=1.000000, ARV=0});</parameter><parameter name="TDL">37</parameter><parameter name="RPO">0</parameter></Acquisition_Parameters_Rf><FT_-_Parameters_Rf><parameter name="APF">B3</parameter><parameter name="HFQ">500</parameter><parameter name="LFQ">4000</parameter><parameter name="NLI">0</parameter><parameter name="PHR">24</parameter><parameter name="PHZ">ML</parameter><parameter name="SPZ">NO</parameter><parameter name="ZFF">1</parameter></FT_-_Parameters_Rf><Optic_Parameters_><parameter name="APR">0</parameter><parameter name="APT">Open</parameter><parameter name="BMS">KBr</parameter><parameter name="CHN">Module port</parameter><parameter name="DTC">RT-DLaTGS_IR-Biotyper [Microplate reader]</parameter><parameter name="HPF">0</parameter><parameter name="LPF">10.0</parameter><parameter name="LPV">4000</parameter><parameter name="PGN">0</parameter><parameter name="RDX">0</parameter><parameter name="SRC">MIR</parameter><parameter name="VEL">10.0</parameter><parameter name="SON">Off</parameter></Optic_Parameters_><FT_-_Parameters_><parameter name="APF">B3</parameter><parameter name="HFQ">500</parameter><parameter name="LFQ">4000</parameter><parameter name="NLI">0</parameter><parameter name="PHR">24</parameter><parameter name="PHZ">ML</parameter><parameter name="SPZ">NO</parameter><parameter name="ZFF">1</parameter></FT_-_Parameters_><Acquisition_Parameters_><parameter name="ADT">1</parameter><parameter name="AQM">DD</parameter><parameter name="CFE">0</parameter><parameter name="COR">0</parameter><parameter name="DEL">0</parameter><parameter name="DLY">0</parameter><parameter name="HFW">8000</parameter><parameter name="LFW">0</parameter><parameter name="NSS">32</parameter><parameter name="PLF">AB</parameter><parameter name="RES">6</parameter><parameter name="SOT">0</parameter><parameter name="TCL">MakeCompatibleScalar (0, {WSV=1.000000, ARV=0});</parameter><parameter name="TDL">37</parameter><parameter name="SPO">0</parameter><parameter name="SGN">-1</parameter></Acquisition_Parameters_><Instrument_Parameters_Rf><parameter name="HFL">15801.365274</parameter><parameter name="LFL">0</parameter><parameter name="LWN">15801.365274</parameter><parameter name="ABP">32157</parameter><parameter name="SSP">1</parameter><parameter name="ARG">2</parameter><parameter name="ASG">2</parameter><parameter name="ASS">32</parameter><parameter name="GFW">16</parameter><parameter name="GBW">16</parameter><parameter name="BFW">0</parameter><parameter name="BBW">0</parameter><parameter name="PKA">9116</parameter><parameter name="PKL">4987</parameter><parameter name="PRA">9128</parameter><parameter name="PRL">5010</parameter><parameter name="P2A">1</parameter><parameter name="P2L">1</parameter><parameter name="P2R">1</parameter><parameter name="P2K">1</parameter><parameter name="DAQ">0</parameter><parameter name="AG2">1</parameter><parameter name="SSM">1</parameter><parameter name="RSN">46388</parameter><parameter name="CRR">0</parameter><parameter name="SRT">1705498946.475</parameter><parameter name="DUR">19.6439971923828</parameter><parameter name="TSC">30.9</parameter><parameter name="MVD">0.704152524471283</parameter><parameter name="AN1">0.226026384293329</parameter><parameter name="AN2">0</parameter><parameter name="VSN">2.485 Apr  4 2017</parameter><parameter name="SRN">0085</parameter><parameter name="CAM">0</parameter><parameter name="INS">IR-Biotyper</parameter><parameter name="FOC">69</parameter><parameter name="RDY">1</parameter><parameter name="ARS">32</parameter></Instrument_Parameters_Rf><Sample_Parameters_><parameter name="BLD"></parameter><parameter name="CNM">Admin</parameter><parameter name="CPY"></parameter><parameter name="DPM"></parameter><parameter name="EXP">IRBT_v3_32Scans.XPM</parameter><parameter name="LCT"></parameter><parameter name="SFM">Microplate, HTS-XT</parameter><parameter name="SNM">240117-1222-Cdiff_SCFA_1_C9_232112557_A11_2c31806d-1652-4207-b775-1cd136445807.0</parameter><parameter name="XPP">C:\Users\Public\Documents\Bruker\OPUS_8.2.28\XPM</parameter><parameter name="IST">OK</parameter><parameter name="CPG">1252</parameter><parameter name="UID">7d3dc7b8-10bf-4f81-8f90-b9681a6496d6</parameter></Sample_Parameters_><Instrument_Parameters_><parameter name="HFL">15801.365274</parameter><parameter name="LFL">0</parameter><parameter name="LWN">15801.365274</parameter><parameter name="ABP">32157</parameter><parameter name="SSP">1</parameter><parameter name="ASG">2</parameter><parameter name="ARG">2</parameter><parameter name="ASS">32</parameter><parameter name="GFW">16</parameter><parameter name="GBW">16</parameter><parameter name="BFW">0</parameter><parameter name="BBW">0</parameter><parameter name="PKA">9397</parameter><parameter name="PKL">4979</parameter><parameter name="PRA">9495</parameter><parameter name="PRL">5011</parameter><parameter name="P2A">1</parameter><parameter name="P2L">1</parameter><parameter name="P2R">1</parameter><parameter name="P2K">1</parameter><parameter name="DAQ">0</parameter><parameter name="AG2">1</parameter><parameter name="SSM">1</parameter><parameter name="RSN">23887</parameter><parameter name="CRR">0</parameter><parameter name="SRT">1705498973.156</parameter><parameter name="DUR">19.6449890136719</parameter><parameter name="TSC">30.9</parameter><parameter name="MVD">0.42118889093399</parameter><parameter name="AN1">0.226010452393475</parameter><parameter name="AN2">0</parameter><parameter name="VSN">2.485 Apr  4 2017</parameter><parameter name="SRN">0085</parameter><parameter name="CAM">0</parameter><parameter name="INS">IR-Biotyper</parameter><parameter name="FOC">69</parameter><parameter name="RDY">1</parameter></Instrument_Parameters_><History/></OPUSDataFile>
