<?xml version="1.0" encoding="UTF-8" ?>
<OPUSDataFile><AB><Ydata ylabel="Absorbance Units"><values byteorder="INTEL" format="FLOAT32" numvalues="3497"> -0.07635269 -0.076377 -0.07640582 -0.07643692 -0.07646301 -0.07648391 -0.07649525 -0.07649907 -0.07649638 -0.07648945
 -0.07648127 -0.07647233 -0.07646406 -0.07645576 -0.07644738 -0.07643848 -0.0764286 -0.07641899 -0.07640972 -0.07640245
 -0.07639738 -0.07639601 -0.07639849 -0.07640558 -0.0764173 -0.07643372 -0.07645466 -0.07647878 -0.07650556 -0.07653176
 -0.07655674 -0.07657664 -0.07659142 -0.07659894 -0.07659999 -0.07659453 -0.07658422 -0.07657024 -0.07655533 -0.07654122
 -0.07653173 -0.07652929 -0.07653587 -0.07655362 -0.07657857 -0.07661118 -0.07664217 -0.07667026 -0.07668895 -0.07669727
 -0.07669621 -0.07668585 -0.0766722 -0.07665554 -0.07664049 -0.07662701 -0.07661723 -0.07661118 -0.07661005 -0.07661372
 -0.07662289 -0.07663631 -0.07665286 -0.0766703 -0.07668614 -0.07669795 -0.07670285 -0.07670055 -0.07668918 -0.0766729
 -0.07665186 -0.07663329 -0.07661889 -0.07661353 -0.07661878 -0.07663203 -0.0766535 -0.07667558 -0.07669788 -0.07671478
 -0.07672644 -0.07673261 -0.07673402 -0.07673451 -0.07673463 -0.07673846 -0.07674566 -0.07675786 -0.07677365 -0.07679187
 -0.07681052 -0.07682694 -0.07683992 -0.07684715 -0.07684997 -0.07684786 -0.07684463 -0.07684156 -0.0768411 -0.07684468
 -0.07684974 -0.07685639 -0.07685992 -0.07685971 -0.07685571 -0.07684792 -0.07684226 -0.0768389 -0.07684146 -0.07684909
 -0.0768587 -0.07686922 -0.07687509 -0.07687636 -0.07686993 -0.07685745 -0.07683942 -0.0768194 -0.07680126 -0.07678842
 -0.07678577 -0.07679161 -0.07680801 -0.0768264 -0.07684398 -0.07685526 -0.07685707 -0.0768544 -0.07684728 -0.07684279
 -0.076842 -0.07684404 -0.07684892 -0.07685332 -0.07685757 -0.07686562 -0.0768778 -0.07689957 -0.0769283 -0.07695852
 -0.07698551 -0.07699358 -0.07698407 -0.07694948 -0.07690018 -0.07684565 -0.07679237 -0.07675003 -0.07671633 -0.0766927
 -0.07667552 -0.07666327 -0.07665563 -0.07665236 -0.07665305 -0.07665791 -0.07666404 -0.07667112 -0.07667778 -0.07668393
 -0.07669189 -0.07670166 -0.07671395 -0.07672809 -0.07674023 -0.07674999 -0.07675364 -0.07675181 -0.07674427 -0.07673151
 -0.07671427 -0.07669289 -0.07666754 -0.07663998 -0.07661099 -0.07658408 -0.0765615 -0.07654498 -0.07653635 -0.07653324
 -0.07653584 -0.07653944 -0.07654325 -0.07654427 -0.07654196 -0.07653674 -0.07652859 -0.07652082 -0.07651363 -0.0765108
 -0.07651201 -0.07651764 -0.07652622 -0.07653255 -0.07653514 -0.07652696 -0.07650919 -0.07647972 -0.07644269 -0.07640196
 -0.07636137 -0.07632576 -0.07629588 -0.07627382 -0.07625787 -0.07624794 -0.07624213 -0.07624002 -0.07623993 -0.07624181
 -0.0762424 -0.07624152 -0.07623489 -0.07622223 -0.07620221 -0.07617513 -0.07614508 -0.07611285 -0.07608613 -0.07606478
 -0.07605299 -0.07604898 -0.07605082 -0.07605577 -0.07605797 -0.07605629 -0.07604635 -0.07602999 -0.07600661 -0.07598025
 -0.07595284 -0.07592799 -0.07590783 -0.07589322 -0.07588495 -0.07588227 -0.07588496 -0.07589401 -0.07590953 -0.07593229
 -0.07596248 -0.07599369 -0.07602527 -0.07604463 -0.07605199 -0.07604211 -0.07601757 -0.07598657 -0.07594988 -0.07591464
 -0.07587793 -0.07583673 -0.0757914 -0.07573928 -0.07568697 -0.07563937 -0.07560088 -0.07557725 -0.07556379 -0.0755614
 -0.07555933 -0.0755544 -0.07554145 -0.07551804 -0.07548932 -0.07545536 -0.07542352 -0.07539439 -0.0753678 -0.07534342
 -0.0753144 -0.07528068 -0.075238 -0.07518815 -0.07513601 -0.07508358 -0.07503923 -0.07500224 -0.0749758 -0.07495663
 -0.07494219 -0.07492872 -0.07491217 -0.07489009 -0.0748594 -0.07482088 -0.07477366 -0.07472093 -0.07466335 -0.07460346
 -0.07454201 -0.07447918 -0.07441518 -0.07434856 -0.07427925 -0.07420553 -0.07412741 -0.0740455 -0.07396039 -0.07387703
 -0.07379539 -0.07371911 -0.07364556 -0.07356983 -0.07348856 -0.07339156 -0.0732815 -0.07315564 -0.07302342 -0.0728929
 -0.07276915 -0.07265977 -0.07255886 -0.07246723 -0.07237303 -0.07227322 -0.0721586 -0.07202604 -0.07187665 -0.07170953
 -0.07153449 -0.07135225 -0.07116745 -0.07097994 -0.07078441 -0.0705807 -0.07036462 -0.07013748 -0.06990301 -0.06966199
 -0.06941856 -0.06917271 -0.06892569 -0.06867887 -0.06843472 -0.06819376 -0.06795878 -0.06772522 -0.06749196 -0.067252
 -0.06700188 -0.0667381 -0.0664589 -0.06616298 -0.06584961 -0.06551929 -0.0651712 -0.06481429 -0.06444895 -0.06408793
 -0.06373154 -0.06338201 -0.06303836 -0.0626931 -0.06234583 -0.0619905 -0.06162831 -0.06125937 -0.06088517 -0.06050921
 -0.06013082 -0.05975203 -0.05936757 -0.05897394 -0.05856473 -0.05813216 -0.05768202 -0.05721162 -0.05674059 -0.05627504
 -0.05582516 -0.05539653 -0.05497708 -0.05456674 -0.05414722 -0.05371685 -0.05327056 -0.05280845 -0.05233889 -0.05186225
 -0.05138559 -0.05090763 -0.05042603 -0.04993942 -0.04944179 -0.04893435 -0.04841594 -0.04788999 -0.04736098 -0.04683072
 -0.0463029 -0.04577702 -0.04525376 -0.04473275 -0.04421439 -0.04369668 -0.04317968 -0.04265872 -0.04213241 -0.04160014
 -0.04106098 -0.04052198 -0.03998378 -0.03944868 -0.03891645 -0.03837585 -0.03782639 -0.03725756 -0.03667202 -0.0360766
 -0.03547492 -0.03488276 -0.03429884 -0.03372919 -0.03316848 -0.03261168 -0.0320547 -0.0314904 -0.03092092 -0.03034423
 -0.02976766 -0.02919449 -0.02862834 -0.02807301 -0.02752018 -0.02696958 -0.02640892 -0.02583564 -0.02524994 -0.02465118
 -0.02405123 -0.0234506 -0.02285655 -0.02226848 -0.02168339 -0.02110081 -0.02051657 -0.01993146 -0.01934583 -0.01876052
 -0.01817794 -0.01759734 -0.0170192 -0.01644112 -0.01586096 -0.01527666 -0.01468541 -0.01408874 -0.01348554 -0.01288194
 -0.0122793 -0.01168378 -0.0110974 -0.01052115 -0.009956096 -0.009396095 -0.008840966 -0.008280904 -0.007715497 -0.007140658
 -0.006557203 -0.005971847 -0.005385646 -0.00480807 -0.00423815 -0.003678204 -0.003125811 -0.002576522 -0.002029658 -0.001481921
 -0.0009344842 -0.000387364 0.0001583504 0.0007017009 0.001242617 0.001780714 0.002316565 0.002850357 0.003382218 0.003912596
 0.004439052 0.0049613 0.005477299 0.005986576 0.006493 0.006996799 0.007504986 0.008017455 0.008535876 0.009059084
 0.009581719 0.01010305 0.01061774 0.0111262 0.01162684 0.0121202 0.01260642 0.01308597 0.01355921 0.01402701
 0.01448961 0.01494941 0.01540713 0.01586653 0.01632932 0.01679647 0.01726945 0.01774268 0.01821592 0.01868143
 0.01913831 0.01958439 0.02001955 0.02044665 0.02086593 0.02128055 0.02169097 0.02210128 0.02251219 0.02292902
 0.02335053 0.02377745 0.02420606 0.02463078 0.02504943 0.02545669 0.02585465 0.02624254 0.02662468 0.02700286
 0.02738086 0.02776057 0.02814324 0.02853023 0.02891747 0.02930494 0.02968596 0.03005978 0.03042427 0.03077934
 0.03113002 0.03147672 0.03182565 0.03217668 0.03253266 0.03289251 0.03325444 0.03361673 0.0339742 0.03432667
 0.03467048 0.03500907 0.03534436 0.03568067 0.03602286 0.03637021 0.03672474 0.03708065 0.03743668 0.03778682
 0.03812927 0.03846123 0.03878173 0.03909181 0.03939119 0.0396852 0.03997413 0.04026617 0.04056168 0.04086754
 0.0411832 0.0415097 0.04184468 0.04218098 0.04251553 0.04283692 0.04314539 0.0434348 0.04371075 0.04397679
 0.04423875 0.04450338 0.04477025 0.0450418 0.04531305 0.04558227 0.04584762 0.04610774 0.04636542 0.04662104
 0.04687605 0.04713104 0.04738101 0.04762572 0.04785755 0.04807667 0.04828354 0.04847967 0.04867523 0.04886995
 0.04906965 0.04926978 0.04946221 0.04964378 0.04980331 0.04994614 0.05007269 0.05019232 0.05031349 0.0504393
 0.05057488 0.05071614 0.0508627 0.05101081 0.05115907 0.05130719 0.05145444 0.05160458 0.05175742 0.05192273
 0.05210106 0.05230154 0.05252346 0.05275937 0.05300564 0.05323548 0.05344661 0.05361406 0.05374309 0.05383201
 0.05389169 0.05394012 0.05398383 0.05403901 0.05410363 0.05418088 0.05426897 0.05436599 0.05447719 0.05460456
 0.05475045 0.05491848 0.05509486 0.0552792 0.05545011 0.05560465 0.05573735 0.05584753 0.05595183 0.05605135
 0.05616659 0.05629643 0.05644475 0.0566076 0.05677202 0.05693516 0.05708201 0.0572152 0.05733072 0.0574368
 0.05754067 0.05765197 0.05778116 0.05793364 0.05811687 0.05832693 0.05856616 0.05882086 0.05908894 0.05935465
 0.05961443 0.05986222 0.0600962 0.06032328 0.06054369 0.06076751 0.06099506 0.06123197 0.0614788 0.06174092
 0.06202094 0.06233209 0.06267603 0.0630675 0.06349712 0.06396143 0.06443436 0.06488503 0.06528731 0.06560251
 0.06583752 0.06597544 0.06606576 0.06612048 0.06619298 0.06630421 0.06646363 0.06668108 0.06692031 0.06717993
 0.06741365 0.06761833 0.06776696 0.06785954 0.06789681 0.06788211 0.06783849 0.06776939 0.06770212 0.06763531
 0.06758054 0.06753184 0.06748313 0.06743152 0.06736927 0.0673005 0.0672259 0.06715021 0.06707897 0.06700576
 0.0669333 0.06683852 0.06671744 0.06654353 0.06630941 0.06601191 0.06564727 0.06524593 0.06480928 0.06437521
 0.06394469 0.06353272 0.0631379 0.06275649 0.06238827 0.06203092 0.06168446 0.06134902 0.06102183 0.06069731
 0.06037491 0.06004965 0.05972804 0.05941456 0.05911284 0.0588294 0.0585545 0.05828676 0.05801323 0.05772793
 0.05743323 0.05712643 0.05682644 0.05653461 0.05627131 0.05603822 0.0558426 0.05568391 0.0555482 0.05543247
 0.05530696 0.05517028 0.05499847 0.05479697 0.05456669 0.05431735 0.05406828 0.05382439 0.05360171 0.05339664
 0.05321204 0.05304177 0.05288237 0.05273122 0.05258612 0.05244719 0.05231417 0.0521868 0.05206513 0.05194821
 0.05183596 0.05172741 0.05162251 0.05151948 0.05141822 0.05131722 0.05121661 0.05111679 0.05101796 0.05092141
 0.05082671 0.05073344 0.05064095 0.05054725 0.05045337 0.05035928 0.05026774 0.05018155 0.05010192 0.05003144
 0.04996686 0.04990801 0.04984961 0.04978984 0.04972634 0.04965797 0.0495863 0.04951133 0.04943517 0.04935808
 0.04927896 0.04919774 0.04911182 0.04902165 0.04892925 0.04883632 0.04875191 0.04867693 0.04861991 0.04857777
 0.04854945 0.04852948 0.0485093 0.04848722 0.04845705 0.04842363 0.04838757 0.0483556 0.04833172 0.04831681
 0.04831327 0.04831403 0.04831821 0.04831909 0.04831468 0.04831104 0.04830804 0.0483225 0.04835489 0.04841115
 0.04848856 0.04856622 0.04864046 0.04868061 0.04869024 0.04866078 0.04860475 0.04854264 0.04848541 0.04845975
 0.04846293 0.04850554 0.04857047 0.04865134 0.04872841 0.04878966 0.04882902 0.04883898 0.04883398 0.04881414
 0.04880168 0.04880007 0.04881887 0.04885967 0.0489141 0.04898172 0.04905234 0.04912687 0.04920952 0.04930263
 0.04942083 0.04956343 0.04973856 0.04993831 0.05015236 0.05036875 0.05056497 0.05073647 0.05086654 0.05096783
 0.05104098 0.05110754 0.05117923 0.05126422 0.05137046 0.05148593 0.05160946 0.05173008 0.05184446 0.0519622
 0.05208341 0.05222531 0.05238843 0.05257271 0.05277649 0.05298264 0.05319107 0.05339134 0.0535871 0.05378493
 0.05398666 0.05420126 0.05442397 0.05465235 0.05488005 0.05509828 0.05530755 0.0555042 0.05569453 0.05588133
 0.05606668 0.05625402 0.05643366 0.05660551 0.05675301 0.05687372 0.05695692 0.05700073 0.05701288 0.05699401
 0.05696983 0.05694193 0.05693722 0.056954 0.05699953 0.05706719 0.05714032 0.05721228 0.05725935 0.05728187
 0.0572683 0.05722651 0.05716008 0.05707667 0.05698367 0.05688278 0.05677704 0.05666505 0.05654662 0.05642204
 0.0562914 0.05615457 0.05601168 0.05586098 0.05570201 0.05553888 0.05537187 0.05521327 0.05506303 0.05492657
 0.05480089 0.05467258 0.05453914 0.05438272 0.05420847 0.05401731 0.05381916 0.05363157 0.05345565 0.05330247
 0.05315999 0.05302335 0.0528813 0.05272476 0.052556 0.05237269 0.05218403 0.05199243 0.05180025 0.05160861
 0.05141414 0.05121629 0.05101774 0.05081867 0.05063165 0.05045746 0.05030979 0.05018765 0.05009395 0.05002464
 0.0499683 0.04992036 0.04986393 0.04979932 0.04971731 0.04962655 0.0495312 0.04944387 0.04937521 0.0493334
 0.04932613 0.04935401 0.04941893 0.04951941 0.04965485 0.04982719 0.05003634 0.05028639 0.0505777 0.05091278
 0.05129175 0.05171566 0.05218469 0.05270119 0.05326571 0.05388242 0.0545519 0.05527878 0.05606244 0.05690462
 0.05780236 0.05875288 0.05975047 0.06078862 0.06186092 0.06296046 0.06408341 0.06522524 0.06638734 0.06756824
 0.06877435 0.07000636 0.07127237 0.072574 0.07391473 0.0752957 0.07670923 0.07815493 0.07961284 0.08108132
 0.08253469 0.08397074 0.08536496 0.08671299 0.08798978 0.08918504 0.09026562 0.09121609 0.09199603 0.09259836
 0.09299198 0.0931996 0.0932169 0.09310483 0.09288552 0.0926367 0.09238912 0.09220178 0.09209638 0.09209563
 0.0922079 0.0924292 0.09276076 0.09318645 0.09370548 0.09429231 0.09494476 0.09562772 0.09633832 0.09704087
 0.09773455 0.09839632 0.09902921 0.09962758 0.1001981 0.1007481 0.1012862 0.1018248 0.1023704 0.1029346
 0.1035121 0.104111 0.1046962 0.1052699 0.1057469 0.1061193 0.1062554 0.1061361 0.1056447 0.1047622
 0.1034825 0.1018029 0.09986639 0.09768617 0.09548318 0.09326715 0.09121442 0.08931581 0.08763546 0.08615024
 0.084837 0.08367456 0.08261642 0.08165106 0.08074749 0.07989939 0.07909301 0.07832212 0.07757978 0.07686292
 0.0761673 0.07549877 0.07485618 0.07425494 0.07369667 0.07319834 0.07276199 0.07239738 0.0721053 0.07188568
 0.07173813 0.07165651 0.07163998 0.07168088 0.07177734 0.07192056 0.07210425 0.07231244 0.07252977 0.07272754
 0.07288074 0.07295132 0.07291301 0.072731 0.07239247 0.07187655 0.07119498 0.07034206 0.06935393 0.06823403
 0.06703495 0.06576322 0.0644756 0.06317779 0.06191959 0.06070438 0.05957131 0.05852155 0.05757979 0.0567412
 0.05599399 0.05531621 0.05462515 0.05388074 0.0529376 0.05177059 0.05025167 0.04842157 0.04625582 0.04386936
 0.04133794 0.03879134 0.03632822 0.03401767 0.031919 0.03002026 0.02833496 0.02681231 0.02544626 0.02419296
 0.02304652 0.02198416 0.02100402 0.0200943 0.01925432 0.01847296 0.01774892 0.01706799 0.01642828 0.0158146
 0.01522561 0.01464997 0.01408747 0.01353244 0.01298572 0.01244584 0.01191464 0.01139316 0.01088305 0.01038659
 0.009901029 0.009427386 0.008956377 0.008486106 0.00800736 0.007517292 0.007016238 0.006503037 0.005988972 0.005474614
 0.004972975 0.004484371 0.004013778 0.003560104 0.003117643 0.002685097 0.002253294 0.001823334 0.001392784 0.0009649982
 0.0005454402 0.0001356196 -0.0002591425 -0.0006419086 -0.001013214 -0.001377046 -0.001736623 -0.0020922 -0.00244516 -0.002792825
 -0.003134755 -0.003468628 -0.003794027 -0.004108884 -0.004412871 -0.004704856 -0.004984606 -0.00525588 -0.005519004 -0.005781125
 -0.006042116 -0.006304808 -0.006567608 -0.006825163 -0.007076033 -0.007312995 -0.007536689 -0.007744568 -0.007938758 -0.008120762
 -0.008293079 -0.008458321 -0.008618681 -0.008776358 -0.008932201 -0.009087764 -0.009240374 -0.009390085 -0.009531986 -0.009664956
 -0.009786784 -0.009896535 -0.009998695 -0.01009335 -0.01018908 -0.01028622 -0.01039079 -0.01050241 -0.01062095 -0.0107457
 -0.01087322 -0.01100363 -0.01113516 -0.01126915 -0.01140738 -0.01155097 -0.01170253 -0.01186155 -0.01202903 -0.01220251
 -0.01238084 -0.01256172 -0.01274355 -0.01292638 -0.01310962 -0.01329517 -0.01348351 -0.0136748 -0.01386937 -0.0140644
 -0.01425972 -0.0144531 -0.01464456 -0.0148357 -0.0150269 -0.01522218 -0.01542153 -0.0156273 -0.01583872 -0.01605498
 -0.01627483 -0.01649543 -0.01671583 -0.01693342 -0.01714821 -0.0173592 -0.01756695 -0.01777158 -0.01797351 -0.01817288
 -0.01837029 -0.01856574 -0.01876065 -0.01895526 -0.01915081 -0.01934765 -0.0195449 -0.01974251 -0.01993952 -0.02013594
 -0.02033326 -0.02053169 -0.02073408 -0.02094022 -0.02115078 -0.02136493 -0.02158059 -0.02179702 -0.02201157 -0.02222418
 -0.0224334 -0.02264002 -0.02284406 -0.02304694 -0.0232497 -0.02345299 -0.02365796 -0.02386244 -0.02406647 -0.02426599
 -0.02446015 -0.02464627 -0.02482378 -0.02499238 -0.02515197 -0.02530338 -0.02544664 -0.02558157 -0.02570816 -0.02582618
 -0.02593579 -0.02603752 -0.02613166 -0.0262193 -0.02630078 -0.02637731 -0.02644899 -0.02651642 -0.02657964 -0.02663887
 -0.02669413 -0.02674554 -0.02679291 -0.02683633 -0.02687499 -0.02690873 -0.02693643 -0.02695766 -0.02697259 -0.02698095
 -0.02698507 -0.02698508 -0.02698323 -0.02697962 -0.02697461 -0.02696819 -0.02696019 -0.02695108 -0.026943 -0.02693669
 -0.0269358 -0.0269404 -0.02695272 -0.0269717 -0.02699686 -0.02702682 -0.0270599 -0.0270956 -0.02713262 -0.02717244
 -0.02721505 -0.02726318 -0.02731783 -0.02738017 -0.02745105 -0.02752839 -0.02761214 -0.02769941 -0.02778984 -0.02788316
 -0.02797936 -0.02807999 -0.028185 -0.02829461 -0.02840862 -0.02852589 -0.02864664 -0.02877076 -0.02889898 -0.02903284
 -0.02917293 -0.02932106 -0.02947668 -0.02964049 -0.02980992 -0.02998372 -0.03015868 -0.03033264 -0.03050478 -0.03067368
 -0.03084249 -0.03101142 -0.03118446 -0.03136249 -0.03154566 -0.03173424 -0.03192475 -0.03211701 -0.03230686 -0.03249437
 -0.03267838 -0.03285958 -0.03304107 -0.03322377 -0.03341271 -0.0336076 -0.03381072 -0.03402029 -0.03423457 -0.03445206
 -0.03467027 -0.03488913 -0.03510806 -0.03532651 -0.03554475 -0.03575968 -0.03597049 -0.03617412 -0.03636936 -0.03655655
 -0.03673529 -0.03690881 -0.03707734 -0.03724376 -0.03740825 -0.03757194 -0.03773483 -0.03789741 -0.03805963 -0.03822155
 -0.03838295 -0.03854309 -0.03870162 -0.03885727 -0.03901008 -0.03915932 -0.03930582 -0.03945015 -0.03959336 -0.03973661
 -0.03987987 -0.04002377 -0.04016677 -0.04030848 -0.04044759 -0.04058341 -0.04071692 -0.04084801 -0.04097903 -0.04111023
 -0.04124267 -0.04137643 -0.041511 -0.04164637 -0.04178242 -0.04191925 -0.04205741 -0.04219681 -0.04233743 -0.04247913
 -0.04262121 -0.04276453 -0.0429098 -0.04305879 -0.04321371 -0.04337579 -0.04354689 -0.04372677 -0.04391621 -0.04411305
 -0.04431719 -0.04452479 -0.04473514 -0.04494426 -0.04515132 -0.04535462 -0.04555379 -0.04574964 -0.04594219 -0.04613101
 -0.04631599 -0.04649518 -0.04666888 -0.04683763 -0.04700265 -0.04716878 -0.04733659 -0.04751047 -0.04768885 -0.04787146
 -0.0480559 -0.04823912 -0.04842027 -0.0485976 -0.04877126 -0.04894111 -0.04910648 -0.04926712 -0.0494225 -0.04957202
 -0.04971765 -0.04985934 -0.05000071 -0.0501422 -0.05028516 -0.05042971 -0.05057457 -0.0507197 -0.05086393 -0.05100743
 -0.05115089 -0.05129432 -0.0514385 -0.05158272 -0.05172588 -0.05186686 -0.05200311 -0.05213443 -0.05225898 -0.05237877
 -0.05249425 -0.05260907 -0.05272555 -0.05284543 -0.0529706 -0.05309845 -0.05322898 -0.05335803 -0.05348461 -0.05360812
 -0.05372819 -0.05384761 -0.05396654 -0.05408598 -0.05420576 -0.05432325 -0.05443839 -0.05454917 -0.05465636 -0.05476167
 -0.05486608 -0.05497312 -0.0550828 -0.05519697 -0.05531463 -0.05543557 -0.05555823 -0.05568136 -0.05580362 -0.05592385
 -0.05604163 -0.05615637 -0.0562688 -0.05637893 -0.05648777 -0.05659555 -0.05670239 -0.05680833 -0.05691313 -0.05701678
 -0.05712016 -0.05722336 -0.05732815 -0.05743443 -0.05754258 -0.05765219 -0.05776186 -0.0578713 -0.05797905 -0.05808516
 -0.05818919 -0.05829105 -0.05839044 -0.0584873 -0.05858112 -0.05867314 -0.05876359 -0.05885459 -0.05894729 -0.05904206
 -0.05913956 -0.05923783 -0.05933668 -0.05943403 -0.05952955 -0.05962311 -0.05971465 -0.05980504 -0.05989434 -0.05998345
 -0.06007246 -0.06016249 -0.06025342 -0.06034556 -0.06043822 -0.06052972 -0.06061931 -0.0607043 -0.0607859 -0.06086365
 -0.06094148 -0.0610222 -0.06111013 -0.06120908 -0.06131971 -0.06144416 -0.06157792 -0.06172079 -0.06186589 -0.06201183
 -0.06215482 -0.06229393 -0.06243118 -0.06256656 -0.06270485 -0.06284612 -0.06299149 -0.06314023 -0.06328752 -0.06343224
 -0.06356724 -0.06369203 -0.06380187 -0.06389633 -0.06397287 -0.06403015 -0.06406549 -0.06407791 -0.06406405 -0.06402876
 -0.06397113 -0.06390579 -0.06383698 -0.06378157 -0.06374548 -0.06373703 -0.06375974 -0.06381051 -0.06389029 -0.0639861
 -0.06409737 -0.06420463 -0.06430709 -0.06439107 -0.06445761 -0.06450806 -0.06454408 -0.06457357 -0.06459674 -0.06461792
 -0.06463715 -0.06465639 -0.06467588 -0.06469715 -0.06471886 -0.06474089 -0.06476032 -0.06477533 -0.06478397 -0.06478447
 -0.06477794 -0.06476395 -0.06474578 -0.06472377 -0.06470166 -0.06467996 -0.06466065 -0.06464392 -0.06463034 -0.06461994
 -0.06461285 -0.06460906 -0.06460847 -0.06461111 -0.06461703 -0.06462625 -0.06463899 -0.06465503 -0.06467429 -0.06469601
 -0.06471946 -0.06474327 -0.06476598 -0.06478653 -0.06480359 -0.06481745 -0.06482752 -0.06483603 -0.06484319 -0.06485238
 -0.06486434 -0.064881 -0.06490295 -0.06492872 -0.06495832 -0.06498832 -0.06501858 -0.06504684 -0.06507313 -0.06509691
 -0.06511825 -0.0651371 -0.06515371 -0.06516837 -0.06518213 -0.06519698 -0.06521422 -0.06523684 -0.06526447 -0.06529865
 -0.06533613 -0.06537578 -0.06541324 -0.065446 -0.06547273 -0.06549183 -0.06550649 -0.06551675 -0.06552723 -0.06553867
 -0.06555248 -0.06556892 -0.0655858 -0.06560303 -0.06561831 -0.0656318 -0.06564375 -0.06565456 -0.06566632 -0.06567904
 -0.06569414 -0.06571078 -0.06572818 -0.06574506 -0.06575925 -0.0657701 -0.06577576 -0.06577762 -0.06577574 -0.06577257
 -0.06576942 -0.06576725 -0.06576689 -0.06576727 -0.06576817 -0.06576923 -0.06577016 -0.06577288 -0.06577757 -0.06578526
 -0.06579591 -0.06580644 -0.06581655 -0.065822 -0.06582313 -0.0658192 -0.06581128 -0.0658024 -0.06579273 -0.06578439
 -0.06577632 -0.06576785 -0.06575809 -0.06574547 -0.06573091 -0.0657142 -0.06569752 -0.06568184 -0.06566854 -0.06565853
 -0.06565098 -0.06564612 -0.06564159 -0.06563709 -0.06563105 -0.06562325 -0.06561439 -0.06560449 -0.06559514 -0.06558628
 -0.06557801 -0.06556997 -0.06556038 -0.06554913 -0.06553487 -0.06551801 -0.06549872 -0.06547748 -0.06545518 -0.06543187
 -0.06540791 -0.06538315 -0.06535749 -0.06533122 -0.06530442 -0.06527751 -0.06525081 -0.06522379 -0.06519657 -0.06516755
 -0.0651365 -0.06510261 -0.06506572 -0.06502728 -0.06498739 -0.06494821 -0.06490968 -0.0648721 -0.06483511 -0.06479714
 -0.06475797 -0.06471588 -0.06467117 -0.06462331 -0.06457348 -0.0645229 -0.06447326 -0.06442693 -0.06438441 -0.06434748
 -0.06431378 -0.06428315 -0.06425142 -0.0642171 -0.06417778 -0.06413224 -0.06408188 -0.06402637 -0.06397043 -0.06391434
 -0.0638632 -0.06381724 -0.06377845 -0.06374652 -0.06371875 -0.06369445 -0.06366851 -0.06364078 -0.06360785 -0.06357061
 -0.06352908 -0.06348491 -0.06344052 -0.0633973 -0.06335771 -0.06332211 -0.06329185 -0.06326568 -0.06324353 -0.0632236
 -0.06320508 -0.06318773 -0.06317106 -0.06315686 -0.06314526 -0.06313806 -0.06313547 -0.06313742 -0.06314389 -0.06315343
 -0.06316591 -0.06317975 -0.06319495 -0.06321064 -0.06322695 -0.06324399 -0.0632619 -0.06328113 -0.06330155 -0.0633234
 -0.06334593 -0.06336839 -0.06339018 -0.06341042 -0.06342956 -0.06344734 -0.06346514 -0.06348336 -0.06350297 -0.06352419
 -0.06354796 -0.06357431 -0.0636048 -0.06363957 -0.06368 -0.06372616 -0.06377631 -0.06383012 -0.06388323 -0.06393559
 -0.06398438 -0.06403044 -0.0640751 -0.06411929 -0.06416619 -0.06421517 -0.06426699 -0.06431992 -0.06437217 -0.06442285
 -0.06447004 -0.06451555 -0.06455947 -0.0646048 -0.06465288 -0.06470471 -0.06476118 -0.06482028 -0.06488198 -0.06494333
 -0.06500401 -0.06506259 -0.06511896 -0.06517327 -0.06522559 -0.0652767 -0.06532685 -0.06537776 -0.06542975 -0.06548495
 -0.06554304 -0.06560469 -0.06566869 -0.06573347 -0.06579779 -0.06585935 -0.06591826 -0.06597345 -0.06602679 -0.06607889
 -0.06613148 -0.06618562 -0.06624089 -0.06629774 -0.06635355 -0.0664079 -0.06645948 -0.06650786 -0.06655587 -0.06660362
 -0.06665593 -0.06671278 -0.06677539 -0.066843 -0.06691162 -0.06698051 -0.06704451 -0.06710431 -0.06715871 -0.06720937
 -0.06725881 -0.06730749 -0.06735745 -0.06740709 -0.06745563 -0.06750233 -0.06754594 -0.06758858 -0.06763057 -0.06767463
 -0.06772196 -0.06777178 -0.06782448 -0.06787662 -0.06792787 -0.06797643 -0.06802218 -0.06806649 -0.06810946 -0.06815293
 -0.06819676 -0.06824105 -0.06828558 -0.0683295 -0.06837271 -0.06841464 -0.06845524 -0.06849419 -0.06853137 -0.06856639
 -0.06859951 -0.06863054 -0.06866076 -0.06869072 -0.06872184 -0.06875509 -0.06878977 -0.06882634 -0.0688616 -0.0688952
 -0.06892406 -0.06894766 -0.06896631 -0.06897997 -0.06899224 -0.0690033 -0.06901615 -0.06903059 -0.06904674 -0.06906437
 -0.06908256 -0.06910181 -0.06912304 -0.06914656 -0.06917387 -0.06920338 -0.06923424 -0.06926376 -0.06928903 -0.06930966
 -0.06932368 -0.06933492 -0.06934411 -0.06935555 -0.06937098 -0.06939059 -0.06941509 -0.06944106 -0.06946821 -0.0694941
 -0.06951853 -0.06954196 -0.06956445 -0.06958722 -0.0696103 -0.06963436 -0.06965951 -0.06968652 -0.06971554 -0.06974763
 -0.06978218 -0.06981879 -0.06985655 -0.06989404 -0.06993112 -0.06996704 -0.07000239 -0.07003734 -0.07007229 -0.07010748
 -0.07014289 -0.07017849 -0.07021454 -0.07025106 -0.07028831 -0.0703264 -0.07036453 -0.07040264 -0.07044031 -0.07047762
 -0.07051574 -0.07055489 -0.07059711 -0.07064231 -0.07069136 -0.07074369 -0.07079837 -0.07085469 -0.07091098 -0.07096686
 -0.07102118 -0.07107373 -0.07112405 -0.07117161 -0.07121592 -0.07125685 -0.07129376 -0.07132876 -0.07136206 -0.07139672
 -0.0714336 -0.07147287 -0.07151488 -0.07155622 -0.07159668 -0.07163265 -0.07166403 -0.07168971 -0.07170986 -0.07172496
 -0.07173553 -0.07174365 -0.0717502 -0.07175864 -0.07176931 -0.07178485 -0.07180421 -0.07182717 -0.07185255 -0.07187904
 -0.07190639 -0.07193414 -0.07196201 -0.0719901 -0.07201677 -0.07204152 -0.07206357 -0.0720825 -0.07209933 -0.07211407
 -0.07212839 -0.07214244 -0.07215642 -0.07217034 -0.07218385 -0.07219702 -0.07221031 -0.07222397 -0.07223944 -0.07225662
 -0.07227619 -0.07229711 -0.07231789 -0.07233725 -0.07235264 -0.07236418 -0.07237057 -0.0723739 -0.0723749 -0.07237579
 -0.07237776 -0.07238197 -0.07238913 -0.07239908 -0.07241208 -0.07242653 -0.07244233 -0.07245736 -0.07247145 -0.07248337
 -0.0724931 -0.07250075 -0.07250638 -0.07251061 -0.07251349 -0.07251567 -0.07251698 -0.0725174 -0.07251618 -0.0725117
 -0.07250386 -0.07249121 -0.07247566 -0.0724583 -0.07244112 -0.07242627 -0.07241288 -0.07240133 -0.07238944 -0.07237646
 -0.07236178 -0.07234494 -0.07232726 -0.07230879 -0.07229094 -0.07227384 -0.07225788 -0.07224297 -0.07222724 -0.07221048
 -0.07218969 -0.07216528 -0.07213715 -0.0721064 -0.07207649 -0.07204735 -0.07202089 -0.07199547 -0.07196942 -0.07194192
 -0.07191127 -0.0718783 -0.07184312 -0.0718064 -0.07176849 -0.07172971 -0.0716901 -0.07165072 -0.07161192 -0.07157366
 -0.07153628 -0.07149656 -0.07145432 -0.07140611 -0.07135185 -0.07129163 -0.07122578 -0.07115733 -0.07108641 -0.07101565
 -0.07094435 -0.07087208 -0.07079758 -0.07071779 -0.07063281 -0.07054107 -0.07044411 -0.07034326 -0.0702384 -0.07013053
 -0.07001694 -0.06989606 -0.06976838 -0.06963277 -0.06949475 -0.06935532 -0.06921836 -0.06908502 -0.0689527 -0.06882143
 -0.06868539 -0.06854434 -0.06839462 -0.06823662 -0.0680723 -0.06790286 -0.06773524 -0.06756977 -0.06741191 -0.06725937
 -0.06711035 -0.06696197 -0.06680894 -0.06665058 -0.06648434 -0.06631029 -0.06612844 -0.06593665 -0.06573433 -0.06551846
 -0.06528833 -0.06504028 -0.06477391 -0.06448353 -0.06416809 -0.06382545 -0.06345495 -0.06306416 -0.06265344 -0.0622301
 -0.06179373 -0.06134234 -0.06087611 -0.06039403 -0.05989862 -0.0593983 -0.05889267 -0.05838702 -0.05787467 -0.05734743
 -0.05680194 -0.05622839 -0.05563636 -0.05502895 -0.05441622 -0.05380681 -0.05319436 -0.05258026 -0.05195004 -0.05130007
 -0.05062497 -0.04992307 -0.04919666 -0.04844636 -0.04766361 -0.04684774 -0.04597392 -0.0450424 -0.04404363 -0.04298443
 -0.04189642 -0.04078369 -0.03968067 -0.03857641 -0.03746595 -0.03633326 -0.03515127 -0.03391201 -0.03259933 -0.03120379
 -0.02972132 -0.0281205 -0.02639157 -0.02448687 -0.02238569 -0.02007026 -0.01752355 -0.01479636 -0.01188742 -0.008891975
 -0.005817242 -0.002745871 0.0003179185 0.00333315 0.006302893 0.009241653 0.01216264 0.01514278 0.01819445 0.02141321
 0.02477043 0.02826675 0.03182795 0.03532941 0.03875075 0.04199969 0.04515306 0.04823317 0.05132277 0.05447869
 0.05771369 0.06104873 0.06445876 0.06793913 0.07148494 0.07509644 0.07875922 0.08247384 0.08619669 0.08992565
 0.09364823 0.09736402 0.1010746 0.1047648 0.1083524 0.1118171 0.1150339 0.1180209 0.1207496 0.1232626
 0.1256254 0.1278356 0.1299272 0.131852 0.1335699 0.1350953 0.1364064 0.1375936 0.1386852 0.1397404
 0.140787 0.1418055 0.1427995 0.1437242 0.1445749 0.1453394 0.1460171 0.1466172 0.1471389 0.1475767
 0.147928 0.1481728 0.1483126 0.1483403 0.1482603 0.1480805 0.1478004 0.1474228 0.1469463 0.1463655
 0.1456943 0.1449325 0.1441213 0.1432734 0.1424517 0.1416747 0.1410132 0.1404859 0.1401476 0.1400131
 0.1400863 0.1403721 0.1408207 0.1414295 0.1421249 0.1429013 0.14367 0.1444229 0.1450645 0.1455939
 0.145951 0.1461547 0.146212 0.1461601 0.146055 0.1459453 0.1459009 0.1459737 0.1462225 0.1466896
 0.1474129 0.1484127 0.1497102 0.1512896 0.1531627 0.1552497 0.1575531 0.1599096 0.1623112 0.1645368
 0.1665738 0.1682124 0.1694453 0.1701304 0.1702681 0.1697833 0.1686865 0.1669588 0.1646465 0.1618296
 0.1585994 0.1551385 0.1515232 0.1479152 0.1443441 0.1408759 0.1375477 0.1343876 0.1314489 0.1287658
 0.1263327 0.124167 0.1221855 0.1203798 0.1186658 0.117031 0.1154615 0.1139557 0.1125439 0.1112247
 0.1099827 0.1088102 0.1076466 0.1064901 0.1052984 0.1040808 0.1028379 0.1015825 0.100339 0.09911045
 0.09791397 0.09673788 0.09557901 0.09442467 0.09326199 0.09210153 0.09093898 0.08980823 0.08871462 0.0876959
 0.0867566 0.08593999 0.08524943 0.08473486 0.08439957 0.08427491 0.08436028 0.08464909 0.08513639 0.08579059
 0.08660046 0.08751793 0.08850954 0.08948514 0.09037367 0.09102348 0.09135087 0.09119005 0.09050742 0.08920097
 0.08732978 0.08488291 0.08197989 0.07866292 0.07502311 0.07109084 0.06692167 0.06251098 0.05802327 0.05346218
 0.04912036 0.04501782 0.04129053 0.03793204 0.03481823 0.03193317 0.02910205 0.02633364 0.02356664 0.02082669
 0.01815313 0.01555567 0.01307199 0.01069697 0.008432758 0.00629232 0.004279664 0.002430304 0.0007650819 -0.0006883534
 -0.001911812 -0.002900872 -0.003650367 -0.00416417 -0.004442482 -0.004486693 -0.004296583 -0.003876322 -0.003225657 -0.002366399
 -0.001302763 -0.0001087177 0.001200462 0.002480193 0.003716227 0.004765807 0.005640677 0.006292462 0.00675519 0.007065165
 0.007258237 0.007393058 0.007495773 0.00760963 0.007745064 0.007926626 0.00813254 0.008372145 0.008571741 0.008718835
 0.008727307 0.008573864 0.008242473 0.007722999 0.007075621 0.006302482 0.005496337 0.004662021 0.003888802 0.003176244
 0.002567636 0.002050602 0.001600262 0.001197118 0.0007750849 0.0003232725 -0.0002174607 -0.000827044 -0.00151835 -0.002225968
 -0.002908 -0.003476324 -0.003870005 -0.004016663 -0.003873192 -0.00339472 -0.002557744 -0.00135313 0.000228503 0.002158853
 0.004435833 0.007034437 0.009952018 0.01320089 0.01678078 0.02069215 0.02492252 0.02937992 0.03403883 0.03874086
 0.04346706 0.04809166 0.05258955 0.05687455 0.06087877 0.06449451 0.06762432 0.07014057 0.07198893 0.07308194
 0.07346183 0.07310694 0.07214147 0.07058376 0.06859127 0.06619039 0.06352793 0.06062173 0.05759481 0.05445618
 0.05131739 0.04818366 0.04514336 0.04219394 0.0393584 0.03662327 0.03394086 0.03130014 0.02863852 0.02596804
 0.0232741 0.02059419 0.01796813 0.01543904 0.01306051 0.01086131 0.008878545 0.007113521 0.005582146 0.004252068
 0.003122625 0.002138995 0.001292 0.000532561 -0.0001478907 -0.0007674185 -0.001329177 -0.001813063 -0.002217129 -0.00249214
 -0.002634678 -0.002591641 -0.002366284 -0.00193902 -0.001328223 -0.0005694625 0.0003032222 0.001213695 0.002116896 0.00292665
 0.003592632 0.004040327 0.004228645 0.004105666 0.003663993 0.002877917 0.001791503 0.0004008366 -0.001198732 -0.002998238
 -0.004869825 -0.006800672 -0.008660703 -0.01043993 -0.01202888 -0.01342241 -0.01454551 -0.01540004 -0.01596472 -0.01625527
 -0.01632495 -0.01620745 -0.01602435 -0.01581526 -0.01572149 -0.01575647 -0.01601229 -0.01644626 -0.01706489 -0.01777853
 -0.01853426 -0.01925025 -0.01986933 -0.02037196 -0.02072992 -0.02099333 -0.02116165 -0.02131648 -0.02146815 -0.02167748
 -0.02195171 -0.02229618 -0.02271017 -0.02314597 -0.02359904 -0.02400637 -0.02436786 -0.02464755 -0.02485292 -0.02498596
 -0.02505845 -0.02509252 -0.02510473 -0.02512243 -0.02517354 -0.02528971 -0.0255087 -0.02586589 -0.02638382 -0.02709036
 -0.02796048 -0.02900278 -0.03014157 -0.0313679 -0.03259212 -0.03380097 -0.03493486 -0.03598681 -0.0369405 -0.0377953
 -0.03856046 -0.03923718 -0.03984022 -0.04037071 -0.04084144 -0.0412539 -0.04161892 -0.04193874 -0.04222239 -0.04247371
 -0.04270167 -0.04291012 -0.04310733 -0.04329186 -0.04346792 -0.04362375 -0.04375774 -0.04384921 -0.04389307 -0.04386596
 -0.04376229 -0.04356475 -0.04326904 -0.04287456 -0.04237964 -0.04180748 -0.04115958 -0.04047948 -0.03977104 -0.03908821
 -0.03843622 -0.0378699 -0.03739368 -0.0370519 -0.03684346 -0.03679039 -0.03688221 -0.03711597 -0.03747286 -0.03793482
 -0.03848005 -0.03908885 -0.03974314 -0.04042906 -0.04113736 -0.0418613 -0.04260068 -0.04335407 -0.04412442 -0.04491241
 -0.04571687 -0.04653832 -0.04736597 -0.04819916 -0.04901925 -0.04982514 -0.05059793 -0.05133787 -0.05203554 -0.05269338
 -0.05331398 -0.05390064 -0.05446194 -0.05499989 -0.05552176 -0.05602701 -0.05651835 -0.05699289 -0.05744964 -0.05788529
 -0.05829752 -0.05868582 -0.05904884 -0.05938985 -0.05970925 -0.06001046 -0.06029448 -0.06056011 -0.06080762 -0.06103135
 -0.06123099 -0.06140076 -0.06154078 -0.06165064 -0.06173138 -0.06178864 -0.06182328 -0.06184163 -0.06184294 -0.06182861
 -0.06179759 -0.06174765 -0.06168142 -0.06159918 -0.06150882 -0.06141588 -0.06132755 -0.061251 -0.06118236 -0.06112541
 -0.06105953 -0.06098356 -0.06086503 -0.06069981 -0.06045754 -0.06013445 -0.05971853 -0.059209 -0.05862001 -0.05795382
 -0.05724259 -0.05648854 -0.05572228 -0.05494151 -0.05415686 -0.05335952 -0.0525368 -0.05167527 -0.05074919 -0.04974574
 -0.04864096 -0.04742736 -0.04609073 -0.04463143 -0.04304425 -0.04133803 -0.0395122 -0.03758544 -0.03555889 -0.03346372
 -0.03130216 -0.02911726 -0.02691209 -0.02473469 -0.02258791 -0.02051135 -0.01850575 -0.01659056 -0.01476362 -0.01302291
 -0.01136453 -0.00977431 -0.008248257 -0.006770913 -0.005337673 -0.00393583 -0.002558017 -0.001192506 0.000170048 0.001540709
 0.002924939 0.004329782 0.005752678 0.007194248 0.008651108 0.01012043 0.01161147 0.01312316 0.0146799 0.0162837
 0.01795699 0.01970132 0.02151348 0.02339085 0.02529662 0.0272242 0.02911587 0.03096376 0.03270951 0.03434629
 0.03582897 0.03715342 0.03829215 0.03924579 0.04000339 0.04057065 0.04094755 0.04114272 0.04115958 0.04100914
 0.04069391 0.0402313 0.03962342 0.03889677 0.03805434 0.03712642 0.03611587 0.0350492 0.03392811 0.03277486
 0.03159041 0.03039291 0.02918195 0.02796549 0.02674016 0.02549805 0.02423495 0.02293545 0.02159943 0.02021831
 0.01879751 0.01733976 0.01585114 0.01433822 0.01280263 0.01124775 0.009671083 0.008072257 0.006449683 0.004801999
 0.003132936 0.001441948 -0.0002608256 -0.001974845 -0.003687017 -0.005396528 -0.007092813 -0.00877548 -0.01043788 -0.01207957
 -0.01369467 -0.01528195 -0.01683395 -0.01834862 -0.01981783 -0.02123805 -0.02260095 -0.02390005 -0.02512596 -0.02626891
 -0.02731847 -0.02826558 -0.02910138 -0.029824 -0.0304284 -0.03092474 -0.03131191 -0.03161326 -0.03183023 -0.03199657
 -0.03211477 -0.03222336 -0.03232476 -0.03245324 -0.03261002 -0.03281677 -0.03307324 -0.03338793 -0.03376075 -0.03419507
 -0.03469298 -0.03526127 -0.03590279 -0.0366271 -0.03743211 -0.03832236 -0.03928503 -0.04031467 -0.0413881 -0.04249262
 -0.04360379 -0.04470909 -0.04579294 -0.046848 -0.04787019 -0.0488576 -0.04980982 -0.05072696 -0.05160495 -0.05244359
 -0.05323632 -0.05398303 -0.0546819 -0.05533412 -0.05594674 -0.0565223 -0.05707435 -0.05760597 -0.05813184 -0.0586548
 -0.05918657 -0.059729 -0.06028952 -0.06086754 -0.06146625 -0.06208064 -0.06271008 -0.06334519 -0.06398274 -0.06461286
 -0.0652319 -0.06583513 -0.06642042 -0.06699012 -0.06754392 -0.06808786 -0.06862237 -0.06915104 -0.06967381 -0.070188
 -0.07069265 -0.07117939 -0.07164709 -0.0720865 -0.07249718 -0.0728732 -0.07321468 -0.07351983 -0.07378681 -0.07401412
 -0.07419557 -0.07432715 -0.07439764 -0.07440076 -0.07432276 -0.07415764 -0.07389165 -0.07352005 -0.07303251 -0.07242507
 -0.07169969 -0.07085376 -0.06991409 -0.06888121 -0.06781016 -0.06670459 -0.06563579 -0.06460819 -0.06368911 -0.06288055
 -0.06222888 -0.06173047 -0.06140171 -0.06123171 -0.0612099 -0.06132058 -0.06154033 -0.06185306 -0.06223764 -0.06267888
 -0.06316364 -0.06367505 -0.06420521 -0.06473427 -0.06525613 -0.06575232 -0.06621801 -0.0666438 -0.06702715 -0.06737126
 -0.06767593 -0.06795183 -0.06819946 -0.06842769 -0.06863637 -0.06882808 -0.06900246 -0.06915868 -0.06929787 -0.06942158
 -0.06953423 -0.06964322 -0.06975726 -0.06988986 -0.07005115 -0.0702559 -0.07050847 -0.07081882 -0.07117765 -0.071587
 -0.07202315 -0.07248217 -0.07293334 -0.07337078 -0.07376856 -0.07412221 -0.07442026 -0.07466114 -0.07484744 -0.07497939
 -0.07506391 -0.07510122 -0.07509565 -0.07504773 -0.0749614 -0.07483904 -0.07468896 -0.07451481 -0.07432768 -0.07413035
 -0.07393125 -0.07373146 -0.0735345 -0.07334185 -0.07315457 -0.07297681 -0.07281013 -0.07265972 -0.07252803 -0.07241585
 -0.07232486 -0.07224785 -0.07218491 -0.07212282 -0.07206086 -0.07198367 -0.07189044 -0.07176794 -0.07161595 -0.071427
 -0.07120176 -0.07093941 -0.07064084 -0.07030813 -0.06994189 -0.06954378 -0.0691155 -0.06865961 -0.068179 -0.06767805
 -0.06715661 -0.06661812 -0.06605393 -0.06546309 -0.06483006 -0.06415032 -0.06341065 -0.06260641 -0.06173671 -0.06079907
 -0.05980997 -0.05876922 -0.05771477 -0.05664927 -0.05563731 -0.05468515 -0.05387812 -0.05322124 -0.0527894 -0.05257369
 -0.05259461 -0.05282046 -0.05320228 -0.05369536 -0.05421472 -0.05472924 -0.05517089 -0.05554445 -0.05582516 -0.05605183
 -0.05623339 -0.05641392 -0.05661181 -0.05684403 -0.05712138 -0.05742574 -0.05775787 -0.0580848 -0.05840373 -0.05869404
 -0.05895488 -0.05918642 -0.05938913 -0.05956902 -0.05972452 -0.0598508 -0.05994518 -0.05999488 -0.06000209 -0.05996307
 -0.05988656 -0.05978338 -0.05966208 -0.05953623 -0.05940839 -0.05928476 -0.05916462 -0.05904903 -0.05893721 -0.05882961
 -0.0587233 -0.05861836 -0.05850864 -0.05839346 -0.058267 -0.05812877 -0.05797412 -0.05780278 -0.0576099 -0.05739527
 -0.05715475 -0.05688853 -0.05659529 -0.05627559 -0.05593045 -0.05556061 -0.05516801 -0.05475364 -0.05432024 -0.05386729
 -0.05339634 -0.05290321 -0.0523861 -0.05183923 -0.05125778 -0.05064381 -0.04999221 -0.0493276 -0.04864861 -0.04800951
 -0.04741498 -0.04692975 -0.04656068 -0.0463412 -0.04627288 -0.04633009 -0.04650735 -0.0467347 -0.04700576 -0.04724896
 -0.04746325 -0.04760607 -0.0476825 -0.04768199 -0.04761272 -0.04748209 -0.04729825 -0.04707209 -0.04681079 -0.04652237
 -0.04621305 -0.04588802 -0.04555041 -0.04520242 -0.04484493 -0.04447733 -0.04410636 -0.0437311 -0.04337166 -0.04302913
 -0.04272871 -0.04247177 -0.04226985 -0.04212164 -0.04201525 -0.04194664 -0.04188755 -0.04183365 -0.04175492 -0.04164976
 -0.04149862 -0.0413048 -0.0410637 -0.04078251 -0.04046749 -0.0401241 -0.0397597 -0.03937293 -0.03896547 -0.03853325
 -0.03807365 -0.03759064 -0.03708291 -0.03656458 -0.03603765 -0.03551266 -0.03499153 -0.03446958 -0.03394666 -0.03341197
 -0.0328656 -0.03230569 -0.03173376 -0.03115763 -0.03057903 -0.03000762 -0.0294455 -0.02890151 -0.02837894 -0.02788599
 -0.02742755 -0.02701031 -0.02664331 -0.02633285 -0.02609436 -0.02593745 -0.02587281 -0.02591119 -0.02603658 -0.02625373
 -0.02651075 -0.02680363 -0.02706701 -0.02729408 -0.02744117 -0.02750537 -0.02748005 -0.02736649 -0.02718144 -0.02692627
 -0.02661777 -0.02625529 -0.02584519 -0.02538657 -0.02487902 -0.02432558 -0.02372682 -0.02309743 -0.02244885 -0.0218099
 -0.02120484 -0.0206607 -0.02020055 -0.01983188 -0.01956595 -0.01938846 -0.01930205 -0.01927092 -0.0192911 -0.01932498
 -0.01936707 -0.01941103 -0.01945608 -0.01951525 -0.01958865 -0.01968116 -0.01979067 -0.01990642 -0.02002592 -0.02013329
 -0.02022938 -0.02030775 -0.02037148 -0.0204235 -0.02046472 -0.02049823 -0.02052161 -0.02053358 -0.02053326 -0.02051854
 -0.02049395 -0.02046069 -0.02042253 -0.02038237 -0.02033293 -0.0202746 -0.02019182 -0.02008229 -0.01994333 -0.0197743
 -0.01960223 -0.0194299 -0.01930523 -0.01923065 -0.01924758 -0.01935286 -0.01956 -0.01985707 -0.02022582 -0.02064454
 -0.02107071 -0.02148028 -0.02182546 -0.02209899 -0.02227283 -0.02236824 -0.02238536 -0.0223593 -0.02230285 -0.02224391
 -0.02219344 -0.02216123 -0.02215323 -0.02215425 -0.02216523 -0.02214968 -0.02210553 -0.0219971 -0.02182363 -0.02157132
 -0.02124187 -0.02083945 -0.02036691 -0.01983539 -0.01925119 -0.01863338 -0.0179933 -0.01735845 -0.01673971 -0.01616242
 -0.01562902 -0.01515178 -0.0147238 -0.01434512 -0.01400678 -0.01370507 -0.01343473 -0.01319434 -0.01297785 -0.01278533
 -0.01260336 -0.01243098 -0.01225271 -0.01206735 -0.01186992 -0.01166089 -0.01144994 -0.01123837 -0.01104075 -0.0108564
 -0.01069196 -0.01054265 -0.01040083 -0.01025859 -0.01009844 -0.009914224 -0.009689508 -0.009426413 -0.009118498 -0.00877817
 -0.00840907 -0.008027925 -0.00764224 -0.007263488 -0.006897785 -0.006543381 -0.006202577 -0.005860567 -0.005516347 -0.005154002
 -0.00477227 -0.00436584 -0.0039347 -0.0034805 -0.003002932 -0.002500165 -0.001971831 -0.001413998 -0.0008294787 -0.0002211739
 0.000401676 0.001024278 0.001629738 0.002193725 0.002694552 0.003105539 0.003410722 0.003591304 0.003645787 0.003567648
 0.003365591 0.003039656 0.002602696 0.002054866 0.001419786 0.0006981588 -7.132492E-05 -0.0008864072 -0.001704426 -0.00252346
 -0.003310824 -0.004066645 -0.004775689 -0.00544104 -0.00606672 -0.006657569 -0.007229651 -0.007784443 -0.008334047 -0.008873126
 -0.009400466 -0.009908444 -0.01039002 -0.01083893 -0.01125042 -0.01161691 -0.01193407 -0.0121972 -0.01240098 -0.01255896
 -0.01266981 -0.01276558 -0.01284984 -0.01294701 -0.01305975 -0.01318218 -0.01331424</values></Ydata></AB><ScSm><Ydata ylabel="Single channel"><values byteorder="INTEL" format="FLOAT32" numvalues="1814"> 0.08362535 0.08373961 0.0838709 0.08402295 0.08418828 0.08435202 0.08449943 0.08462546 0.08473544 0.08483484
 0.08492701 0.08502455 0.08514892 0.08530918 0.08548808 0.08565295 0.08577929 0.08587153 0.08596508 0.08609366
 0.08624457 0.08635787 0.08638276 0.08633204 0.08627421 0.08627103 0.08633748 0.0864769 0.08672009 0.08705804
 0.08734985 0.08741356 0.08725198 0.08708721 0.08711414 0.08730445 0.08749554 0.0875716 0.08751103 0.08737202
 0.08731473 0.08755045 0.08815044 0.08889006 0.0893188 0.08902142 0.08789508 0.08629657 0.08495428 0.08458716
 0.08538752 0.08680633 0.08796294 0.0883538 0.0881262 0.08770408 0.08734696 0.08713922 0.08718401 0.08758897
 0.08828765 0.08896598 0.08918388 0.08866493 0.08760987 0.08665916 0.08637041 0.08678752 0.08763754 0.08866137
 0.08936217 0.08875932 0.08625862 0.08296469 0.08133224 0.08289641 0.08666556 0.09015201 0.09163658 0.09107676
 0.08938499 0.08762603 0.08673604 0.08720237 0.0887453 0.09059492 0.09210122 0.09290655 0.09278397 0.09174475
 0.0902525 0.08902629 0.08863956 0.08935368 0.09101322 0.09288579 0.09395431 0.09371787 0.09256842 0.09128506
 0.09045869 0.09046359 0.09149356 0.0933326 0.0953716 0.09705576 0.09817195 0.09873161 0.09883978 0.09867285
 0.09838952 0.09810667 0.09801789 0.09829483 0.09875055 0.09887799 0.09841372 0.09769426 0.0973153 0.09751709
 0.09797893 0.09820858 0.09803188 0.09749924 0.09638185 0.0942831 0.09144897 0.08889669 0.08742151 0.08703893
 0.08762791 0.08926561 0.09144741 0.09285261 0.09267348 0.0917062 0.09149063 0.09264613 0.09448355 0.09600637
 0.09687656 0.09746732 0.0982787 0.09937371 0.1002364 0.1001534 0.09894454 0.09742012 0.09684289 0.09770474
 0.09924482 0.1003823 0.1008517 0.1011651 0.1017112 0.1021924 0.1018881 0.1004271 0.09842872 0.09728117
 0.09799805 0.1002163 0.1023872 0.102946 0.1014248 0.09870487 0.09627961 0.09518026 0.09557328 0.09718973
 0.09969798 0.1025446 0.1048636 0.1059159 0.1056014 0.1044369 0.1029925 0.1013611 0.0993651 0.0973821
 0.09656113 0.09774871 0.1004013 0.1030174 0.1045224 0.1048658 0.1044127 0.1032174 0.1011156 0.09846547
 0.09647991 0.09632824 0.09780475 0.09938093 0.09983036 0.09937476 0.09898674 0.09906077 0.09920065 0.09903294
 0.09876411 0.09888504 0.09954348 0.1003555 0.1008133 0.1007528 0.1003861 0.09999952 0.09968461 0.09928942
 0.09865338 0.09796716 0.0977598 0.09834334 0.09939313 0.1002731 0.1006631 0.1006876 0.1005321 0.1001333
 0.09929455 0.0980761 0.09698497 0.09661652 0.09707533 0.0978947 0.09853239 0.09877515 0.09868653 0.09840159
 0.09803553 0.09765366 0.09728758 0.09701192 0.09693117 0.0970373 0.09717125 0.0971801 0.09704045 0.09680134
 0.09648615 0.09609421 0.0956611 0.09527643 0.09502834 0.09493262 0.09493168 0.09495422 0.09494339 0.09484404
 0.09462415 0.09431711 0.09399798 0.09371342 0.09346637 0.09325962 0.09311268 0.09302865 0.09297132 0.09289083
 0.09276402 0.09259897 0.09240789 0.09219453 0.0919684 0.09175405 0.09157966 0.09145936 0.09137991 0.09130721
 0.09122302 0.0911479 0.09110107 0.09105002 0.09093942 0.09076339 0.09057361 0.09042082 0.09031624 0.09024226
 0.09017251 0.09007831 0.08993363 0.08973375 0.08951759 0.08935652 0.08930029 0.08933926 0.08942781 0.08952348
 0.08959192 0.08960791 0.08957599 0.08952843 0.08948579 0.08943705 0.08936583 0.08928181 0.08922134 0.08922
 0.08927926 0.08936046 0.08941846 0.08943477 0.08941712 0.08938839 0.08938126 0.08941299 0.08945509 0.08945727
 0.08941139 0.08936591 0.0893681 0.08941193 0.08945193 0.08945581 0.08943486 0.08942494 0.08944513 0.08948225
 0.08951396 0.08953463 0.0895543 0.08957911 0.0895966 0.08958229 0.08952659 0.08945259 0.08939535 0.08936638
 0.08935212 0.08934256 0.08934268 0.08935459 0.08936411 0.08935161 0.08931154 0.08925752 0.08920613 0.08915752
 0.08909678 0.08901469 0.08891901 0.08882371 0.08873414 0.08864497 0.08854753 0.0884366 0.0883121 0.0881756
 0.08802719 0.0878666 0.087695 0.08751572 0.08733684 0.08717157 0.08702715 0.08689182 0.08674072 0.08655883
 0.08635519 0.08615391 0.08597286 0.08581194 0.08566065 0.08551406 0.0853776 0.08525804 0.08515619 0.08506926
 0.0849946 0.08492965 0.08487545 0.08484229 0.08484475 0.08488563 0.08494833 0.08500996 0.08506113 0.08511055
 0.08517146 0.08524765 0.08533315 0.08542229 0.08551721 0.08562391 0.08574057 0.08585444 0.08595508 0.08604831
 0.08614974 0.08626659 0.08639485 0.08653077 0.08667291 0.0868127 0.08693825 0.08705152 0.08717072 0.08730973
 0.08746395 0.08762102 0.08777735 0.08793788 0.08810626 0.08828308 0.08847097 0.08867501 0.08889686 0.08913136
 0.08936874 0.08960012 0.08982334 0.09004579 0.09028023 0.0905354 0.09080969 0.0910929 0.09137398 0.09164872
 0.0919208 0.09219573 0.09247504 0.09275828 0.09304734 0.09334435 0.09364662 0.09394815 0.09424589 0.09454112
 0.09483492 0.09512636 0.09541535 0.09570478 0.09599923 0.09630099 0.09660549 0.09690218 0.09718262 0.09744898
 0.09771197 0.09798131 0.09825978 0.09854303 0.0988207 0.09908134 0.09932293 0.09955722 0.09979722 0.1000413
 0.1002779 0.1005046 0.1007342 0.1009768 0.1012218 0.1014449 0.1016315 0.1017908 0.1019456 0.1021098
 0.1022759 0.102426 0.1025518 0.1026624 0.1027725 0.1028888 0.1030117 0.1031433 0.1032849 0.1034271
 0.1035545 0.1036597 0.1037495 0.1038343 0.1039192 0.1040046 0.104091 0.1041802 0.1042741 0.1043712
 0.1044666 0.1045609 0.1046674 0.1048044 0.1049774 0.1051798 0.1054073 0.1056643 0.1059489 0.1062448
 0.1065368 0.1068291 0.1071383 0.107466 0.1077894 0.1080845 0.10835 0.1086002 0.1088463 0.1090953
 0.1093626 0.1096668 0.110012 0.1103821 0.1107528 0.1111039 0.1114286 0.1117357 0.11204 0.1123417
 0.112623 0.1128673 0.113077 0.1132693 0.1134588 0.1136466 0.11382 0.1139604 0.1140521 0.1140824
 0.1140339 0.1138881 0.1136418 0.1133124 0.1129183 0.112456 0.1119051 0.1112502 0.1104889 0.109619
 0.1086292 0.1075125 0.1062903 0.1050241 0.103804 0.1027249 0.1018655 0.1012818 0.1010094 0.1010583
 0.1013942 0.1019235 0.1025051 0.1029877 0.1032476 0.1032124 0.1028685 0.1022554 0.1014469 0.1005274
 0.09957188 0.09863333 0.09774046 0.09691444 0.09619835 0.09567216 0.09543897 0.09560195 0.09625144 0.09744545
 0.09916197 0.1012545 0.1034759 0.1055778 0.1074134 0.1089628 0.1102844 0.1114521 0.112523 0.113531
 0.1144894 0.1153975 0.1162476 0.1170261 0.1177129 0.1182859 0.1187275 0.1190271 0.1191854 0.119224
 0.119189 0.1191431 0.1191554 0.1192905 0.1195873 0.1200311 0.1205481 0.121037 0.121415 0.1216454
 0.1217458 0.1217977 0.1219701 0.1225211 0.1237185 0.1256834 0.1282739 0.1311343 0.1338818 0.1362733
 0.1382413 0.139832 0.1411342 0.1422352 0.1432002 0.1440693 0.1448675 0.1456141 0.1463253 0.1470141
 0.1476897 0.1483561 0.1490148 0.14967 0.150328 0.150991 0.1516545 0.1523126 0.1529641 0.153613
 0.1542627 0.1549103 0.155549 0.1561747 0.1567888 0.1573916 0.1579791 0.1585487 0.1591049 0.1596551
 0.1602035 0.1607482 0.1612837 0.1618027 0.1622983 0.1627687 0.1632178 0.1636511 0.1640718 0.164483
 0.1648895 0.1652941 0.1656922 0.1660768 0.1664463 0.1668066 0.1671631 0.1675158 0.1678636 0.1682114
 0.1685679 0.1689382 0.1693201 0.1697075 0.1700968 0.1704907 0.1708959 0.171315 0.1717408 0.1721605
 0.172568 0.1729696 0.1733772 0.1737972 0.1742261 0.1746568 0.1750848 0.1755093 0.1759295 0.1763442
 0.1767552 0.1771676 0.1775858 0.1780082 0.1784295 0.1788473 0.1792651 0.1796879 0.1801174 0.1805512
 0.180986 0.1814191 0.1818469 0.1822642 0.182668 0.1830595 0.1834418 0.183817 0.1841851 0.1845443
 0.1848925 0.1852289 0.1855541 0.1858693 0.1861765 0.1864781 0.1867749 0.1870662 0.1873496 0.1876224
 0.1878846 0.1881411 0.1883977 0.1886542 0.1889066 0.1891556 0.1894073 0.1896675 0.1899376 0.1902172
 0.190505 0.1908002 0.1911027 0.1914125 0.1917285 0.1920516 0.1923854 0.1927307 0.1930831 0.1934383
 0.1937972 0.1941641 0.1945424 0.194932 0.1953276 0.1957239 0.196121 0.1965238 0.1969346 0.1973507
 0.1977677 0.1981828 0.1985963 0.199014 0.1994421 0.199882 0.2003292 0.2007783 0.2012261 0.2016707
 0.2021108 0.202544 0.2029676 0.2033839 0.2037984 0.2042131 0.2046269 0.2050402 0.2054529 0.2058617
 0.2062644 0.2066644 0.2070646 0.2074641 0.2078617 0.2082591 0.2086587 0.2090635 0.2094744 0.2098879
 0.2102993 0.2107084 0.2111171 0.2115254 0.2119341 0.2123475 0.2127686 0.2131964 0.213629 0.2140637
 0.2144974 0.2149312 0.2153679 0.2158052 0.2162392 0.2166727 0.2171111 0.2175543 0.2179984 0.2184418
 0.218883 0.219321 0.2197572 0.2201914 0.2206216 0.2210491 0.2214785 0.2219093 0.2223386 0.2227677
 0.2231973 0.2236246 0.224049 0.2244736 0.2248982 0.225321 0.225744 0.226167 0.2265854 0.2270008
 0.2274199 0.2278426 0.2282629 0.228681 0.2291 0.2295199 0.2299421 0.2303693 0.2307959 0.2312149
 0.2316302 0.2320483 0.2324686 0.2328904 0.2333153 0.2337415 0.2341674 0.2345963 0.2350267 0.2354501
 0.2358655 0.2362798 0.2366927 0.237101 0.2375091 0.2379176 0.2383192 0.2387131 0.2391033 0.239481
 0.2398232 0.2400776 0.2400978 0.239569 0.2379678 0.2345754 0.2286161 0.2195594 0.2074327 0.1929195
 0.1771766 0.1614775 0.1468641 0.133997 0.123228 0.1147358 0.1086259 0.1050207 0.1041258 0.1063237
 0.1123011 0.1226426 0.1363368 0.1494867 0.1567682 0.1554587 0.1479026 0.1393864 0.1338358 0.1318891
 0.1322255 0.133536 0.1352997 0.1376383 0.1408644 0.145017 0.1498163 0.1551207 0.1611904 0.1682919
 0.1761834 0.1842034 0.1918257 0.1989987 0.2059509 0.2127834 0.2193116 0.225243 0.2304022 0.234789
 0.2385175 0.2417473 0.2446228 0.2472395 0.2496561 0.2519017 0.2539366 0.2556344 0.2568538 0.2575519
 0.2578378 0.2579229 0.258003 0.2581716 0.2584334 0.2587723 0.2591838 0.259666 0.2602137 0.2608181
 0.2614592 0.2621118 0.262761 0.2633988 0.2640135 0.2645955 0.2651451 0.2656655 0.2661583 0.2666291
 0.2670831 0.2675225 0.2679522 0.2683793 0.2688019 0.2692123 0.2696098 0.2699971 0.2703685 0.270717
 0.2710431 0.2713513 0.2716457 0.2719328 0.2722189 0.2725043 0.2727876 0.2730691 0.2733467 0.2736181
 0.2738854 0.2741506 0.2744113 0.2746661 0.2749181 0.2751678 0.2754126 0.2756534 0.2758926 0.2761296
 0.2763654 0.2766038 0.276844 0.2770792 0.2773053 0.2775242 0.2777411 0.2779653 0.278206 0.2784613
 0.2787203 0.2789751 0.2792254 0.2794737 0.2797239 0.279982 0.2802495 0.2805225 0.2807977 0.281073
 0.2813408 0.2815911 0.28182 0.2820362 0.2822568 0.2824973 0.28276 0.2830349 0.2833139 0.2835981
 0.2838908 0.2841904 0.2844942 0.2848009 0.2851112 0.2854307 0.2857669 0.2861187 0.2864773 0.2868394
 0.2872096 0.2875898 0.2879772 0.2883714 0.2887696 0.2891607 0.2895354 0.2899025 0.290288 0.2907141
 0.291177 0.2916449 0.2920879 0.2925056 0.2929205 0.2933514 0.2938028 0.2942632 0.2946998 0.2950776
 0.2954074 0.2957584 0.296196 0.2967177 0.2972643 0.2977817 0.2982586 0.2987123 0.299157 0.2995881
 0.2999916 0.3003615 0.3007147 0.3010926 0.301535 0.3020392 0.3025564 0.3030411 0.3034865 0.3039055
 0.3043069 0.3046981 0.3050732 0.3053894 0.30561 0.3057931 0.306085 0.3065816 0.3072208 0.3078474
 0.3083681 0.3088071 0.3092238 0.3096347 0.3100275 0.310376 0.3105985 0.3105972 0.3104339 0.3103961
 0.3107646 0.3115298 0.3124205 0.3131801 0.3137387 0.3141582 0.3145184 0.3148614 0.3151678 0.31536
 0.3153861 0.3153437 0.3154657 0.31591 0.3165804 0.3172308 0.3177248 0.3181139 0.3184974 0.3189083
 0.3192973 0.3195146 0.3193752 0.3189104 0.3185362 0.3187823 0.3197801 0.3211123 0.3222312 0.3229446
 0.3234172 0.3237872 0.3239629 0.3237928 0.3232517 0.3224496 0.321683 0.3214829 0.3222695 0.323816
 0.325338 0.3262795 0.3267922 0.3273408 0.3280953 0.3288575 0.3293871 0.3296179 0.3296158 0.3294353
 0.3290926 0.3287292 0.3287084 0.3293588 0.3305896 0.3319134 0.3329042 0.3335329 0.3339694 0.3340872
 0.3333374 0.3313982 0.3290263 0.3278694 0.3290046 0.3318048 0.3346178 0.3363998 0.3372878 0.3378289
 0.3382673 0.3384729 0.3379261 0.3358911 0.3324151 0.3291989 0.3285664 0.3311777 0.3352913 0.3384502
 0.3393593 0.3381556 0.335788 0.3335772 0.3327448 0.3337468 0.3360815 0.3388034 0.3410943 0.3424785
 0.3428473 0.3424194 0.3416535 0.3411239 0.341158 0.3413488 0.3408081 0.3393179 0.3377468 0.3367105
 0.3354422 0.333049 0.3305086 0.3300595 0.3324298 0.3357803 0.3378326 0.338199 0.3379769 0.3375487
 0.3356744 0.3311297 0.324973 0.3205221 0.3205125 0.3243693 0.3287781 0.3309405 0.3307854 0.3300328
 0.3297629 0.3292665 0.3270985 0.3231143 0.3192585 0.3178244 0.3188871 0.3201941 0.319661 0.3168589
 0.3119356 0.3050501 0.2980416 0.2948041 0.2978506 0.3051648 0.3119706 0.3148575 0.312864 0.3060507
 0.2957895 0.286183 0.2822341 0.2852486 0.2913122 0.2950681 0.2939402 0.2882677 0.2791108 0.2677248
 0.2566388 0.2493641 0.2481345 0.2521139 0.2576552 0.2599819 0.2556339 0.2451798 0.2337936 0.2273827
 0.2271345 0.2288007 0.2277209 0.2231838 0.2174996 0.2127485 0.2095824 0.2077136 0.2062867 0.2045144
 0.202308 0.1992918 0.1936784 0.1843273 0.1739818 0.1678646 0.1682634 0.1726269 0.1775728 0.1822241
 0.1864582 0.1885486 0.187011 0.1836271 0.1823318 0.1850335 0.1898055 0.1933533 0.1943658 0.1940456
 0.1938978 0.1938732 0.1931339 0.1920796 0.1924339 0.1950124 0.198411 0.2005779 0.2009813 0.2005645
 0.2002031 0.1999962 0.1996925 0.1990743 0.1979884 0.196402 0.1944133 0.1920956 0.1894983 0.1868527
 0.1844633 0.1821897 0.1794139 0.1760887 0.1736508 0.1740046 0.1773715 0.1820584 0.1865774 0.1905571
 0.1929038 0.1911135 0.1844702 0.1768826 0.174237 0.1787853 0.1873897 0.1951014 0.1990925 0.1990199
 0.19537 0.189265 0.1837483 0.183257 0.1901969 0.2024205 0.2151279 0.2248923 0.2309788 0.2335707
 0.2325426 0.2284006 0.2233202 0.2203594 0.2215581 0.2267919 0.2340192 0.2401639 0.2424215 0.2405641
 0.2386452 0.2424353 0.2533534 0.266225 0.2748652 0.2785914 0.2812198 0.2851145 0.2891632 0.2921787
 0.2952692 0.2998843 0.3052995 0.3091421 0.3094492 0.3054872 0.2977668 0.2886238 0.2818827 0.2799907
 0.2815606 0.283149 0.2828586 0.2804858 0.2754384 0.2677426 0.260814 0.2596498 0.2652564 0.2732773
 0.2789786 0.2816284 0.2831972 0.2845359 0.2842853 0.2811846 0.2764698 0.2732833 0.2735456 0.2760261
 0.2779852 0.2779234 0.2758261 0.2716048 0.2650147 0.2571824 0.2507371 0.2475865 0.247058 0.2467828
 0.245144 0.242449 0.2400317 0.238891 0.2392107 0.2405863 0.2425233 0.2450631 0.2488649 0.2542307
 0.2602218 0.2654141 0.2695246 0.2736473 0.2787507 0.2844443 0.2894105 0.2927244 0.2945985 0.2960521
 0.2979966 0.3005027 0.3027804 0.3038974 0.3036745 0.3029231 0.3026966 0.3033116 0.3042578 0.3050174
 0.3056958 0.3068172 0.3087793 0.3115631 0.3147157 0.3175704 0.3197471 0.3214944 0.3233307 0.3253428
 0.3270851 0.3282065 0.3289141 0.3296841 0.3306736 0.3315738 0.331999 0.3319018 0.3316063 0.3315181
 0.3318351 0.332476 0.3331974 0.3337657 0.3340802 0.3341965 0.3342615 0.3344336 0.334865 0.3357124
 0.3370743 0.3388796 0.340881 0.3428056 0.3444983 0.345914 0.3470277 0.3478032 0.348216 0.3482556
 0.3479096 0.3471704 0.3460372 0.3444805 0.3424334 0.3399074 0.3371881 0.3348931 0.3337218 0.3340257
 0.3355713 0.3377181 0.3398408 0.3416314 0.3430986 0.3443801 0.3455797 0.3467268 0.3478141 0.3488368
 0.3498058 0.3507441 0.3516698 0.3525764 0.3534322 0.354206 0.3548931 0.3555114 0.3560746 0.3565731
 0.3569758 0.3572485 0.3573717 0.3573451 0.3571787 0.3568738 0.3564072 0.3557416 0.354864 0.3538206
 0.3527052 0.3516032 0.3505371 0.3494665 0.3483417 0.3471421 0.3458413 0.3443598 0.3426195 0.3406648
 0.3386686 0.3367698 0.33494 0.333041 0.3309699 0.3286953 0.3261931 0.323412 0.3203053 0.3168586
 0.3130845 0.3090101 0.3046767 0.3001468 0.2955146 0.2909018 0.2864235 0.2821475 0.2780848 0.2742051
 0.2704393 0.2666645 0.262704 0.2583662 0.2535014 0.2480324 0.2419527 0.2353155 0.2282397 0.2209166
 0.2135929 0.2065314 0.1999766 0.1941352 0.1891685 0.1851894 0.1822604 0.1804006 0.1795986 0.1798257
 0.1810363 0.1831593 0.1860934 0.1897068 0.1938366 0.1982936 0.202881 0.2074269 0.2118238 0.2160558
 0.2201763 0.2242386 0.228237 0.2321182 0.2358357 0.239375 0.2427299 0.2458796 0.2488022 0.2515012
 0.2540078 0.2563548 0.2585489 0.2605602 0.2623333 0.2638103 0.2649583 0.2657892 0.2663621 0.2667682
 0.2671067 0.2674675 0.2679256 0.2685428 0.2693693 0.2704421 0.271784 0.2733984 0.2752602 0.2773155
 0.2794992 0.28176 0.2840761 0.2864544 0.288913 0.2914604 0.2940853 0.2967584 0.2994306 0.3020258
 0.3044498 0.3066218 0.3085042 0.3100995 0.3114222 0.3124759 0.3132583 0.3137824 0.3140832 0.3142026
 0.3141735 0.3140168 0.3137412 0.3133404 0.3127954 0.3120872 0.311208 0.3101598 0.3089376 0.3075123
 0.3058376 0.3038812 0.3016579 0.2992471 0.2967935 0.2944818 0.2924851 0.2909119 0.2897867 0.289061
 0.2886391 0.2884079 0.2882547 0.2880643 0.2877184 0.2871225 0.2862347 0.2850631 0.2836405 0.282003
 0.2801797 0.2781938 0.2760726 0.2738582 0.2716042 0.2693556 0.2671206 0.2648612 0.2625312 0.2601337
 0.2577301 0.2553905 0.2531468 0.2509902 0.2488935 0.2468372 0.2448233 0.2428656 0.2409707 0.2391416
 0.2373929 0.235747 0.234218 0.2328078 0.2315098 0.2303115 0.2292029 0.22818 0.2272312 0.226332
 0.2254601 0.2246089 0.2237951 0.2230598 0.2224416 0.2219166 0.2213775 0.2206934 0.2197951 0.2187162
 0.2175854 0.2165882 0.2159081 0.2156642 0.2158491 0.2162876 0.2166777 0.2167293 0.2162868 0.2153343
 0.2139259 0.2121326 0.2100329 0.207734 0.2053963 0.2032048 0.2012962 0.1997226 0.1984766 0.1975099
 0.1967392 0.1960919 0.1955659 0.1952353 0.1951902 0.1954374 0.1958252 0.1961097 0.1961658 0.1961182
 0.1962227 0.1966405 0.1973419 0.1981693 0.1989477 0.1995585 0.199944 0.2000772 0.1999706 0.1997065
 0.1994112 0.1991863 0.1990688 0.1990189 0.1989302 0.1986943 0.1982672 0.1976506 0.1968441 0.1958544
 0.1947083 0.1934262 0.1920159 0.1904914 0.1888503 0.187078 0.1852527 0.1836187 0.1824899 0.1820762
 0.1823721 0.1831583 0.1841419 0.1851399 0.1860874 0.1868879 0.1874162 0.1877423 0.1882281 0.1892795
 0.1909941 0.1930588 0.1949771 0.1963936 0.1972034 0.1974303 0.1971281 0.1963831 0.1952706 0.1938092
 0.1920363 0.1900535 0.1879278 0.185674 0.1833713 0.1811559 0.1791181 0.1773128 0.1757703 0.1744907
 0.1735344 0.1726375 0.1702257 0.163959 0.1541018 0.1457183 0.1448599 0.152029 0.161441 0.1672087
 0.1683273 0.1672616 0.1660548 0.1651416 0.1644436 0.1640403 0.1639919 0.1641886 0.1643989 0.1643816
 0.1640315 0.1633606 0.1622437 0.1601883 0.1563239 0.1497052 0.140008 0.1281924 0.1163127 0.1064319
 0.09960118 0.09563012 0.09351727 0.09215216 0.09096062 0.09010497 0.09010363 0.09129418 0.09364662 0.09692778
 0.1008607 0.1050946 0.1091598 0.1126226 0.1153135 0.1173217 0.1187707 0.1196948 0.1201127 0.1200904
 0.1197074 0.1190344 0.1181408 0.1170648 0.115786 0.1142765 0.1126003 0.1109561 0.1095972 0.1086652
 0.1081015 0.1077448 0.1074844 0.1072894 0.107148 0.1070443 0.1069673 0.1069092 0.1068735 0.106882
 0.1069472 0.10705 0.107166 0.1072939 0.1074483 0.107633 0.1078144 0.1079266 0.1079463 0.1079326
 0.1079052 0.1077081 0.1071201 0.1061402 0.1050883 0.104398 0.1043205 0.1047829 0.1054684 0.1060451
 0.1063694 0.1065071 0.1065802 0.1066017</values></Ydata></ScSm><ScRf><Ydata ylabel="Single channel"><values byteorder="INTEL" format="FLOAT32" numvalues="1820"> 0.0697189 0.06984554 0.06995787 0.07005648 0.07014535 0.07023379 0.07033448 0.07045498 0.07059151 0.0707304
 0.07085671 0.07096499 0.07105992 0.07114635 0.07122643 0.07130964 0.07141306 0.07154378 0.07168734 0.07181728
 0.07191522 0.07198734 0.07206465 0.07217506 0.07230622 0.07240515 0.07242583 0.07237704 0.0723184 0.07230732
 0.07236046 0.07248029 0.07268922 0.07297686 0.0732237 0.07327639 0.07313709 0.07299343 0.07301147 0.07317034
 0.07333471 0.07340501 0.07335822 0.07323974 0.07318507 0.07337566 0.07387456 0.07449358 0.07485273 0.07460144
 0.07365282 0.07230739 0.071178 0.07086872 0.07154006 0.07272951 0.07369734 0.0740229 0.07383236 0.07348095
 0.07318276 0.07300657 0.07304086 0.07337931 0.07396802 0.07454269 0.07473046 0.07429531 0.0734057 0.07260408
 0.07236178 0.07271322 0.07342561 0.07428195 0.07486752 0.07435849 0.07225491 0.06948727 0.06812099 0.06944437
 0.07261935 0.07555372 0.07680517 0.07633969 0.07492249 0.07344657 0.07269838 0.07308714 0.07437712 0.07592271
 0.07718163 0.0778566 0.07775764 0.07689342 0.07565163 0.07463312 0.07431565 0.07491675 0.0763073 0.07787623
 0.07877295 0.07857737 0.07761595 0.07653967 0.07584421 0.07584718 0.07671565 0.07826943 0.07999384 0.08141844
 0.08236206 0.08283482 0.08292624 0.0827857 0.08254866 0.08231608 0.0822511 0.08249491 0.08288555 0.0829948
 0.08260372 0.08199985 0.08168657 0.08186494 0.08226232 0.08246189 0.0823161 0.08186749 0.08092345 0.07915109
 0.07676163 0.07461647 0.07338513 0.07307529 0.07358161 0.07497132 0.0768216 0.07801719 0.07787357 0.07706165
 0.07688291 0.07786217 0.079418 0.08070844 0.08144915 0.08195803 0.08265796 0.08359824 0.08433877 0.08427716
 0.08326507 0.08198911 0.08151548 0.08225875 0.08357688 0.0845579 0.08497763 0.0852681 0.08575796 0.08619594
 0.08597046 0.08476579 0.0831084 0.0821777 0.08283087 0.08475386 0.0866306 0.08713935 0.08589128 0.08363818
 0.08164357 0.08077647 0.08117778 0.08262527 0.0848423 0.08735746 0.08943032 0.09042686 0.09025548 0.08935316
 0.08820964 0.08691063 0.08530647 0.0837215 0.08314406 0.08430256 0.08672741 0.08912368 0.09056529 0.09100841
 0.09076519 0.0898767 0.08819592 0.08603735 0.08446705 0.08451056 0.08598189 0.08753374 0.08809116 0.08785743
 0.08769351 0.08794449 0.08825578 0.0882968 0.08825457 0.08856814 0.08936789 0.09030803 0.09093067 0.09108554
 0.09096311 0.09082533 0.0907561 0.09061249 0.09024578 0.08983707 0.08987898 0.09065649 0.09186316 0.09290898
 0.09350128 0.09375968 0.09385496 0.09371997 0.09316435 0.09224755 0.09145438 0.09134892 0.09202743 0.09304725
 0.09389632 0.0943725 0.09453328 0.09450403 0.09439451 0.09427021 0.09416465 0.09414974 0.09432261 0.0946713
 0.09504023 0.09528421 0.09538671 0.09539789 0.09533477 0.09518886 0.09499362 0.09484211 0.09482549 0.09496017
 0.09518826 0.09543836 0.09565376 0.09577863 0.09577808 0.09568365 0.09557398 0.09550168 0.09547099 0.09548064
 0.09554651 0.09567084 0.09581701 0.09593436 0.09599994 0.09602442 0.09602393 0.09600353 0.09596881 0.09593923
 0.09594239 0.09599543 0.0960875 0.0961865 0.09627729 0.09638104 0.09651199 0.0966306 0.0966786 0.09665367
 0.09661473 0.09661756 0.0966714 0.09675236 0.09683055 0.09687893 0.09687422 0.0968131 0.09673531 0.0967133
 0.09679887 0.09698559 0.0972303 0.09748787 0.09771598 0.09788115 0.09798512 0.09806359 0.09814335 0.09821898
 0.09827783 0.0983306 0.09841019 0.09854566 0.09873456 0.09894025 0.09912129 0.09925894 0.09935759 0.09944031
 0.09954534 0.09969308 0.09984797 0.09994809 0.09998497 0.1000208 0.1001121 0.1002437 0.1003553 0.1004145
 0.1004458 0.1004961 0.1005843 0.1006923 0.1007943 0.100887 0.1009897 0.1011161 0.1012447 0.1013246
 0.1013245 0.1012723 0.101228 0.1012221 0.1012428 0.1012779 0.1013378 0.1014273 0.1015195 0.1015739
 0.1015792 0.101564 0.1015633 0.1015797 0.101584 0.1015526 0.101493 0.1014325 0.1013929 0.1013778
 0.1013759 0.1013688 0.1013419 0.1012906 0.1012199 0.1011377 0.1010506 0.1009683 0.1009121 0.1009076
 0.1009508 0.1009851 0.100935 0.1007774 0.1005678 0.1003881 0.100274 0.1001983 0.1001103 0.0999815
 0.09981947 0.09965224 0.09950386 0.09937987 0.09927044 0.09916566 0.09906928 0.09899889 0.09896661 0.09895506
 0.09892072 0.0988325 0.09870303 0.09857263 0.09846936 0.09839518 0.09834113 0.09829966 0.0982677 0.09824903
 0.09824827 0.09825636 0.09825373 0.09823486 0.09821793 0.098226 0.09827106 0.09835462 0.0984631 0.09856221
 0.09861986 0.09864198 0.09866916 0.09873285 0.09882907 0.09893787 0.09905137 0.0991745 0.09931102 0.09946083
 0.09962597 0.09981072 0.1000157 0.1002355 0.10046 0.1006786 0.1008873 0.1010955 0.1013213 0.1015768
 0.101858 0.102148 0.1024319 0.1027057 0.1029753 0.1032459 0.1035176 0.1037922 0.10408 0.1043905
 0.1047177 0.105045 0.1053631 0.105677 0.1059955 0.1063199 0.1066444 0.1069661 0.1072952 0.107648
 0.1080233 0.1083899 0.1087117 0.1089869 0.1092523 0.1095484 0.1098858 0.1102415 0.1105786 0.1108737
 0.1111358 0.1113988 0.1116873 0.1119932 0.1122953 0.1125953 0.1129212 0.1132895 0.1136732 0.1140164
 0.1142852 0.1145002 0.1147131 0.114953 0.1152026 0.115431 0.1156367 0.115845 0.1160722 0.1163106
 0.1165515 0.1168045 0.1170789 0.117359 0.1176153 0.1178364 0.1180361 0.1182296 0.1184135 0.1185715
 0.1186928 0.1187871 0.1188814 0.1189994 0.1191407 0.1192861 0.1194246 0.1195653 0.119723 0.1199025
 0.1201044 0.120333 0.1205864 0.120846 0.1210928 0.1213361 0.1216059 0.1219082 0.1222027 0.1224455
 0.1226397 0.122824 0.1230215 0.1232271 0.1234409 0.1236829 0.1239666 0.1242776 0.1245857 0.1248713
 0.1251396 0.1254144 0.1257138 0.1260238 0.1263047 0.1265298 0.1267132 0.1268962 0.1271113 0.1273638
 0.1276392 0.1279187 0.1281892 0.128439 0.1286502 0.1288043 0.1289019 0.1289667 0.1290199 0.1290506
 0.1290216 0.1289001 0.1286729 0.1283353 0.1278786 0.127301 0.1266287 0.1259241 0.1252732 0.1247641
 0.1244678 0.1244258 0.1246419 0.1250793 0.125663 0.1262976 0.1268893 0.1273576 0.1276329 0.1276615
 0.1274259 0.1269561 0.1263124 0.1255589 0.1247494 0.1239258 0.123121 0.1223753 0.1217637 0.1214046
 0.1214282 0.121929 0.1229278 0.124351 0.1260301 0.1277468 0.1293183 0.1306645 0.1318039 0.1327932
 0.1336798 0.1344939 0.1352594 0.1359925 0.1366946 0.1373588 0.1379825 0.1385691 0.1391167 0.139613
 0.140039 0.1403759 0.1406152 0.140768 0.1408603 0.1409139 0.1409386 0.1409419 0.1409314 0.1408955
 0.1407914 0.1405683 0.1402031 0.1397177 0.1391815 0.1387136 0.1384797 0.1386513 0.1393293 0.1404768
 0.1419267 0.1434636 0.1449122 0.1461709 0.1471984 0.1480005 0.1486227 0.1491307 0.1495795 0.1499981
 0.150395 0.1507704 0.1511257 0.1514665 0.151801 0.1521366 0.1524783 0.1528273 0.1531771 0.153517
 0.1538415 0.1541581 0.1544819 0.1548231 0.1551777 0.1555315 0.1558757 0.1562154 0.1565593 0.1569046
 0.15724 0.157561 0.1578752 0.1581937 0.1585238 0.1588649 0.159207 0.159534 0.1598364 0.1601201
 0.1603993 0.1606826 0.1609692 0.1612558 0.1615417 0.1618269 0.1621104 0.1623922 0.1626744 0.162957
 0.1632342 0.1634981 0.1637479 0.1639927 0.164243 0.1645005 0.1647586 0.1650106 0.1652575 0.1655063
 0.1657642 0.1660314 0.1663004 0.1665626 0.1668147 0.1670606 0.1673066 0.1675555 0.167806 0.1680562
 0.1683064 0.1685575 0.1688084 0.1690571 0.1693041 0.1695523 0.169804 0.1700587 0.1703123 0.1705606
 0.170803 0.1710439 0.1712883 0.1715381 0.1717926 0.1720482 0.1722984 0.1725368 0.1727636 0.1729859
 0.1732114 0.1734428 0.1736794 0.1739197 0.1741619 0.1744044 0.1746457 0.1748853 0.1751237 0.1753627
 0.175603 0.1758441 0.1760854 0.1763261 0.1765661 0.176807 0.1770509 0.1772968 0.1775409 0.1777801
 0.1780144 0.1782458 0.1784776 0.1787131 0.1789532 0.1791951 0.179434 0.1796674 0.179897 0.1801277
 0.1803636 0.1806033 0.1808426 0.1810789 0.1813125 0.1815447 0.1817755 0.1820047 0.182233 0.1824622
 0.1826952 0.1829323 0.1831692 0.1834028 0.1836341 0.1838662 0.1841011 0.1843386 0.1845768 0.1848137
 0.1850495 0.1852845 0.1855173 0.1857481 0.1859809 0.1862193 0.186461 0.1867034 0.186947 0.1871919
 0.1874361 0.18768 0.1879251 0.1881703 0.1884148 0.1886597 0.1889048 0.1891486 0.1893925 0.1896405
 0.1898936 0.190151 0.1904116 0.1906729 0.1909306 0.1911839 0.1914345 0.191683 0.1919277 0.1921669
 0.1923985 0.1926211 0.1928363 0.1930487 0.1932627 0.1934824 0.1937098 0.1939437 0.1941831 0.1944288
 0.1946774 0.1949217 0.1951603 0.195399 0.1956409 0.195886 0.1961369 0.1963946 0.1966541 0.1969112
 0.1971672 0.1974236 0.1976794 0.1979347 0.1981895 0.1984439 0.1987027 0.1989714 0.1992458 0.1995161
 0.1997789 0.2000377 0.2002957 0.2005556 0.2008197 0.2010862 0.201354 0.201626 0.2019015 0.2021738
 0.2024412 0.2027076 0.2029722 0.203233 0.2034949 0.2037627 0.2040343 0.2043084 0.2045868 0.2048664
 0.2051429 0.205419 0.2056959 0.2059688 0.2062381 0.2065104 0.2067858 0.2070591 0.2073295 0.2075962
 0.2078556 0.208111 0.2083664 0.2086127 0.208828 0.2089653 0.2088971 0.2083535 0.2068847 0.203865
 0.1986119 0.1906564 0.1800244 0.1673225 0.1535694 0.1398756 0.1271402 0.1159284 0.1065416 0.09913562
 0.09380348 0.09065007 0.0898516 0.09173863 0.09690619 0.1058584 0.1177121 0.1290823 0.1353537 0.1341755
 0.1275927 0.1201921 0.1153707 0.1136727 0.11395 0.1150691 0.1165789 0.1185825 0.1213507 0.124921
 0.1290563 0.1336344 0.1388767 0.1450088 0.1518197 0.1587381 0.1653097 0.1714896 0.1774742 0.1833497
 0.1889576 0.1940476 0.1984731 0.2022377 0.2054405 0.2082151 0.2106797 0.2129124 0.2149657 0.2168704
 0.2185967 0.2200369 0.2210696 0.2216565 0.2218866 0.2219349 0.2219686 0.2220754 0.2222701 0.2225436
 0.2228869 0.2232898 0.2237448 0.2242476 0.2247851 0.225335 0.2258805 0.2264127 0.2269238 0.2274115
 0.2278799 0.2283296 0.228756 0.2291608 0.2295501 0.2299264 0.2302907 0.2306474 0.2310007 0.2313515
 0.2317001 0.2320426 0.2323702 0.2326792 0.2329734 0.2332556 0.2335241 0.2337808 0.2340319 0.2342823
 0.234534 0.234786 0.235034 0.235276 0.2355172 0.2357621 0.2360077 0.2362509 0.2364932 0.2367352
 0.236974 0.2372095 0.2374445 0.2376817 0.2379235 0.2381705 0.2384182 0.2386602 0.2388964 0.2391315
 0.2393706 0.2396172 0.2398721 0.2401302 0.2403868 0.2406447 0.2409102 0.2411833 0.2414584 0.2417303
 0.2419966 0.2422596 0.2425269 0.2428034 0.2430814 0.2433449 0.2435836 0.2438014 0.2440153 0.2442429
 0.2444874 0.244737 0.2449808 0.2452198 0.2454598 0.2457026 0.2459475 0.2461934 0.2464397 0.2466915
 0.2469578 0.2472402 0.2475304 0.2478228 0.2481186 0.2484171 0.2487128 0.2490027 0.2492878 0.2495675
 0.2498391 0.2501065 0.2503854 0.2506946 0.2510362 0.2513877 0.2517199 0.2520249 0.2523186 0.2526209
 0.2529418 0.2532747 0.2535913 0.2538595 0.2540846 0.2543218 0.2546268 0.2550021 0.2554035 0.2557862
 0.2561364 0.256464 0.2567814 0.25709 0.2573805 0.2576423 0.2578804 0.2581282 0.2584288 0.2587909
 0.2591741 0.2595329 0.2598568 0.2601604 0.2604539 0.2607393 0.2610049 0.2612147 0.2613444 0.2614476
 0.2616469 0.2620204 0.2625149 0.2629997 0.2633964 0.263727 0.2640429 0.2643577 0.2646574 0.2649153
 0.2650627 0.2650232 0.2648565 0.2648076 0.2651083 0.2657443 0.2664836 0.2671091 0.2675585 0.2678822
 0.2681533 0.268418 0.2686636 0.2688155 0.2688182 0.2687529 0.268825 0.2691743 0.2697183 0.2702447
 0.2706355 0.2709326 0.2712187 0.2715236 0.2718097 0.2719516 0.2717908 0.2713528 0.2709913 0.2711565
 0.2719594 0.2730463 0.273952 0.2745107 0.2748579 0.2751095 0.2751907 0.2749777 0.2744531 0.2737123
 0.2730094 0.2727955 0.2734219 0.2746885 0.2759287 0.2766783 0.2770743 0.2775138 0.278139 0.2787764
 0.2792129 0.2793865 0.2793547 0.2791683 0.2788435 0.2785014 0.278454 0.2789818 0.2800059 0.2811095
 0.2819313 0.2824471 0.2827995 0.2828782 0.2822177 0.280551 0.2785265 0.277541 0.2785008 0.2808678
 0.2832391 0.2847309 0.2854629 0.2859033 0.2862619 0.2864283 0.2859615 0.2842375 0.2812969 0.2785833
 0.2780657 0.2802972 0.2837968 0.2864854 0.2872721 0.2862746 0.2842933 0.2824428 0.2817571 0.2826269
 0.284634 0.2869774 0.2889556 0.2901614 0.2905084 0.2901867 0.2895837 0.2891839 0.2892635 0.289475
 0.2890653 0.2878562 0.2865922 0.2857953 0.2848076 0.2828651 0.2807996 0.2805213 0.2826546 0.2856337
 0.2875201 0.2879892 0.2879739 0.2877864 0.2863581 0.2826471 0.2775662 0.2739553 0.2741517 0.2776548
 0.2816216 0.283661 0.2837244 0.2832925 0.2832946 0.2831281 0.2815576 0.2784634 0.2755302 0.2747441
 0.2761641 0.2778324 0.2779417 0.2761077 0.2724266 0.267017 0.2615054 0.2593348 0.2627252 0.2699077
 0.2766868 0.280061 0.2791603 0.2739961 0.2657743 0.2582034 0.2558271 0.2598317 0.2666592 0.2714493
 0.2718726 0.2682319 0.261483 0.2528167 0.2446827 0.2404845 0.2424108 0.2496713 0.2586472 0.2644552
 0.2634393 0.2561008 0.2478297 0.2448502 0.2483683 0.2537733 0.2560581 0.2545296 0.2517704 0.2501207
 0.2503877 0.2522772 0.2547252 0.2567383 0.2581599 0.2582788 0.2544323 0.2449525 0.2335548 0.227365
 0.2295692 0.2368542 0.244816 0.2523918 0.2593835 0.263276 0.2619184 0.2577821 0.2563764 0.2603635
 0.2670212 0.2717184 0.2726162 0.271412 0.2702639 0.269226 0.2673171 0.2652868 0.2656513 0.2695572
 0.2749808 0.278921 0.2804093 0.2805123 0.2803159 0.2800112 0.2794508 0.2786005 0.2775005 0.276283
 0.2751621 0.2742005 0.2732622 0.2722845 0.271202 0.2693412 0.2654833 0.2594476 0.2534336 0.2504986
 0.2513499 0.253909 0.2563016 0.2582114 0.2583767 0.2535672 0.2428036 0.2311347 0.2261642 0.2307034
 0.240534 0.2491448 0.2528782 0.2513857 0.2454255 0.2365073 0.228437 0.2266537 0.2340365 0.2478918
 0.2623837 0.2734777 0.2804694 0.2837061 0.283031 0.2789463 0.2739151 0.2713864 0.2734261 0.2793583
 0.2862782 0.2904047 0.2887297 0.2814975 0.2738416 0.2726775 0.2798447 0.2896603 0.2951912 0.2955135
 0.294685 0.2953056 0.296297 0.2964744 0.2970385 0.2995629 0.3034146 0.3062856 0.306261 0.3026209
 0.295825 0.2880701 0.2829444 0.2825899 0.2853372 0.2876197 0.2876319 0.2853675 0.2803854 0.2727819
 0.2659887 0.2649308 0.2704307 0.2779607 0.2828051 0.2844534 0.2851307 0.2857966 0.2850147 0.281352
 0.2759205 0.271892 0.2713894 0.2734858 0.2757306 0.2768041 0.2767204 0.2752889 0.2721238 0.2682936
 0.2664734 0.2685658 0.2736613 0.2789214 0.2821834 0.2832815 0.2832289 0.2829111 0.2826083 0.2821538
 0.2813704 0.2806761 0.2811075 0.2832158 0.2861075 0.2882646 0.2892984 0.2902636 0.2921706 0.2947468
 0.2968487 0.2977268 0.2976851 0.2977005 0.2985454 0.300153 0.301682 0.3022578 0.3018335 0.3013459
 0.3018739 0.3036098 0.3057854 0.3075507 0.3086852 0.309477 0.3102393 0.311044 0.311688 0.3118624
 0.3115623 0.311339 0.311895 0.3133569 0.3151251 0.3164827 0.3171862 0.3174315 0.3174453 0.3172644
 0.3168528 0.3162872 0.3157638 0.3154483 0.3153604 0.315402 0.3154638 0.3154884 0.3154724 0.3154532
 0.3154856 0.315599 0.3157765 0.3159838 0.3161969 0.3163923 0.316543 0.3166478 0.3167385 0.3168297
 0.3168812 0.3168231 0.316598 0.3161644 0.3154806 0.3145069 0.3132143 0.3115728 0.3095571 0.3072409
 0.3049495 0.303288 0.3028927 0.3040302 0.3063865 0.3092405 0.3118685 0.3138579 0.3151537 0.3159066
 0.3163002 0.3164666 0.316483 0.3163889 0.3162031 0.315941 0.3156231 0.3152723 0.31491 0.3145579
 0.3142357 0.3139493 0.3136842 0.313409 0.3130902 0.3127065 0.3122535 0.3117353 0.3111532 0.3104991
 0.3097554 0.3089037 0.3079467 0.3069243 0.3059022 0.3049377 0.3040467 0.3031977 0.3023379 0.3014186
 0.3003878 0.2991812 0.2977844 0.2963206 0.295017 0.2940235 0.293279 0.2925823 0.2917678 0.2907863
 0.289661 0.2884306 0.287133 0.2858002 0.2844463 0.283065 0.2816337 0.280121 0.2785016 0.2767727
 0.2749534 0.2730711 0.2711514 0.2692096 0.2672271 0.2651265 0.2627755 0.2600212 0.2567293 0.252809
 0.2482328 0.2430592 0.237444 0.2316123 0.2257991 0.2202024 0.2149757 0.2102459 0.2061269 0.2027187
 0.2001 0.1983209 0.1974013 0.1973378 0.1981095 0.1996759 0.2019657 0.2048682 0.208234 0.2118819
 0.2156084 0.2192114 0.2225463 0.2255813 0.2283839 0.2310297 0.2335227 0.235806 0.237831 0.2395932
 0.2411107 0.2423941 0.2434493 0.2443001 0.2449961 0.2455912 0.2461173 0.2465755 0.2469515 0.2472362
 0.2474378 0.2475832 0.2477102 0.2478538 0.2480332 0.2482497 0.2485 0.2487948 0.2491601 0.2496186
 0.2501712 0.2507963 0.2514657 0.2521653 0.2529045 0.2537096 0.2546083 0.255623 0.2567734 0.2580764
 0.2595358 0.2611297 0.2627986 0.2644439 0.2659464 0.2672045 0.2681656 0.2688281 0.2692186 0.2693687
 0.2693065 0.2690596 0.2686561 0.2681205 0.2674741 0.2667419 0.2659513 0.265119 0.2642433 0.2633145
 0.2623355 0.261331 0.2603334 0.2593589 0.258405 0.2574679 0.2565525 0.2556633 0.2548011 0.2539696
 0.2531739 0.2524136 0.2516859 0.2509913 0.2503253 0.2496687 0.2489882 0.2482395 0.2473755 0.2463615
 0.2451859 0.2438514 0.242365 0.2407398 0.2389948 0.2371494 0.2352195 0.2332168 0.2311458 0.2290016
 0.2267696 0.2244352 0.2220114 0.219566 0.2172029 0.2150026 0.2129861 0.2111312 0.2094046 0.2077787
 0.2062356 0.2047622 0.2033448 0.2019761 0.2006627 0.1994143 0.1982325 0.1971169 0.196074 0.1951154
 0.194258 0.1935198 0.1929027 0.1923866 0.1919483 0.1915778 0.1912819 0.1910864 0.1910218 0.1910837
 0.1912093 0.1913109 0.1913306 0.1912688 0.1911732 0.1910996 0.1910724 0.1910829 0.1911105 0.191116
 0.1910208 0.1907189 0.1901107 0.1891206 0.1877105 0.1859046 0.1837965 0.1815311 0.17928 0.1772051
 0.1754166 0.173967 0.1728661 0.1720718 0.1714867 0.1710189 0.1706528 0.1704509 0.1704928 0.1707893
 0.1712174 0.1715727 0.1717528 0.1718737 0.1721657 0.1727726 0.1736681 0.1747112 0.1757437 0.1766607
 0.1774186 0.1780045 0.178427 0.1787199 0.1789109 0.1789921 0.178946 0.1787756 0.1784918 0.1781076
 0.1776491 0.177131 0.1765341 0.1758366 0.1750386 0.1741405 0.17314 0.1720461 0.1708452 0.169495
 0.168032 0.1666639 0.1656961 0.1653624 0.1657032 0.1665494 0.1676401 0.1687952 0.169941 0.1709878
 0.1718263 0.1725148 0.1733655 0.1747383 0.1767325 0.1790765 0.1813138 0.1830999 0.1843164 0.1849636
 0.1850693 0.1846916 0.183874 0.1825987 0.1808784 0.1788346 0.176613 0.174328 0.1721178 0.1701177
 0.168386 0.1669483 0.1658231 0.165009 0.1645547 0.1641736 0.1622972 0.1566193 0.1473612 0.139392
 0.1385595 0.1453903 0.1543591 0.1598219 0.1608153 0.1597137 0.1584917 0.1575718 0.156874 0.1564694
 0.1564186 0.1566189 0.1568437 0.1568569 0.1565668 0.156004 0.1550506 0.153199 0.1495545 0.1431664
 0.1337316 0.122228 0.1106957 0.101153 0.09460251 0.09083012 0.08884551 0.08756638 0.08643725 0.08562257
 0.08564056 0.0868383 0.0892022 0.09251536 0.09651281 0.1008468 0.1050392 0.1086388 0.1114598 0.1135842
 0.1151365 0.1161538 0.1166588 0.1167278 0.1164518 0.1159036 0.1151409 0.1141868 0.1130165 0.1116137
 0.1100617 0.1085724 0.1073964 0.1066599 0.1062874 0.1061077 0.1060123 0.1059836 0.1060242 0.106124
 0.1062715 0.106461 0.1066987 0.1070003 0.1073573 0.1077146 0.1080057 0.1081985 0.1082983 0.1083154
 0.1082284 0.1079946 0.1076273 0.1072252 0.1068379 0.106324 0.1054619 0.1042372 0.1029554 0.1020443
 0.1017573 0.1020295 0.1025602 0.1030324 0.1032965 0.1033896 0.1034089 0.1033692 0.1031718 0.1027141
</values></Ydata></ScRf><Data_Parameters_AB><parameter name="DPF">1</parameter><parameter name="NPT">3497</parameter><parameter name="FXV">3996</parameter><parameter name="LXV">500</parameter><parameter name="CSF">1</parameter><parameter name="MXY">0.170268103480339</parameter><parameter name="MNY">-0.0769935771822929</parameter><parameter name="DAT">17/01/2024</parameter><parameter name="TIM">13:35:32.538 (GMT+1)</parameter><parameter name="DXU">WN</parameter></Data_Parameters_AB><AB__Qtest><MainReport name="Quality Test Report"><Header><Line><Legend>Test result ok/not ok [1/0]: </Legend><Value>0</Value></Line><Line><Legend>Method file: </Legend><Value>C:\Users\Public\Documents\Bruker\OPUS_8.2.28\QT\IRBT_v3_default.QT</Value></Line></Header><Matrix><Line><Legend></Legend><Legend>min</Legend><Legend>max</Legend><Legend>measured</Legend></Line><Line><Value>Absorption (X-Range 1):</Value><Value>0.400000</Value><Value>2.000000</Value><Value>0.220858</Value></Line><Line><Value>Noise (X-Range 4):</Value><Value></Value><Value>0.000300</Value><Value>0.000033</Value></Line><Line><Value>Signal/Noise (X-Range 2):</Value><Value>200.000000</Value><Value></Value><Value>137.360686</Value></Line><Line><Value>Signal/Noise (X-Range 3):</Value><Value>40.000000</Value><Value></Value><Value>118.119654</Value></Line><Line><Value>Water vapour (X-Range 5):</Value><Value></Value><Value>0.000300</Value><Value>0.000008</Value></Line><Line><Value>Signal/Water (X-Range 2):</Value><Value>100.000000</Value><Value></Value><Value>575.853306</Value></Line><Line><Value>Signal/Water (X-Range 3):</Value><Value>20.000000</Value><Value></Value><Value>495.189675</Value></Line><Line><Value>Fringes (X-Range 6):</Value><Value></Value><Value>0.000100</Value><Value>0.000027</Value></Line></Matrix></MainReport></AB__Qtest><Data_Parameters_ScSm><parameter name="DPF">1</parameter><parameter name="NPT">1814</parameter><parameter name="FXV">3996.63438082617</parameter><parameter name="LXV">499.579297603271</parameter><parameter name="CSF">1</parameter><parameter name="MXY">0.357371717691422</parameter><parameter name="MNY">0.0813322439789772</parameter><parameter name="DAT">17/01/2024</parameter><parameter name="TIM">13:35:32.538 (GMT+1)</parameter><parameter name="DXU">WN</parameter></Data_Parameters_ScSm><Data_Parameters_ScRf><parameter name="DPF">1</parameter><parameter name="NPT">1820</parameter><parameter name="FXV">4004.34989121387</parameter><parameter name="LXV">495.721542409425</parameter><parameter name="CSF">1</parameter><parameter name="MXY">0.317445337772369</parameter><parameter name="MNY">0.0681209862232208</parameter><parameter name="DAT">17/01/2024</parameter><parameter name="TIM">13:35:05.444 (GMT+1)</parameter><parameter name="DXU">WN</parameter></Data_Parameters_ScRf><Optic_Parameters_Rf><parameter name="APR">0</parameter><parameter name="APT">Open</parameter><parameter name="BMS">KBr</parameter><parameter name="DTC">RT-DLaTGS_IR-Biotyper [Microplate reader]</parameter><parameter name="HPF">0</parameter><parameter name="LPF">10.0</parameter><parameter name="LPV">4000</parameter><parameter name="PGR">0</parameter><parameter name="RCH">Module port</parameter><parameter name="RDX">0</parameter><parameter name="SRC">MIR</parameter><parameter name="VEL">10.0</parameter><parameter name="SON">Off</parameter></Optic_Parameters_Rf><Acquisition_Parameters_Rf><parameter name="ADT">1</parameter><parameter name="AQM">DD</parameter><parameter name="CFE">0</parameter><parameter name="COR">0</parameter><parameter name="DEL">0</parameter><parameter name="DLY">0</parameter><parameter name="HFW">8000</parameter><parameter name="LFW">0</parameter><parameter name="NSR">32</parameter><parameter name="PLF">AB</parameter><parameter name="RES">6</parameter><parameter name="RGN">-1</parameter><parameter name="STR">0</parameter><parameter name="TCL">MakeCompatibleScalar (0, {WSV=1.000000, ARV=0});</parameter><parameter name="TDL">37</parameter><parameter name="RPO">0</parameter></Acquisition_Parameters_Rf><FT_-_Parameters_Rf><parameter name="APF">B3</parameter><parameter name="HFQ">500</parameter><parameter name="LFQ">4000</parameter><parameter name="NLI">0</parameter><parameter name="PHR">24</parameter><parameter name="PHZ">ML</parameter><parameter name="SPZ">NO</parameter><parameter name="ZFF">1</parameter></FT_-_Parameters_Rf><Optic_Parameters_><parameter name="APR">0</parameter><parameter name="APT">Open</parameter><parameter name="BMS">KBr</parameter><parameter name="CHN">Module port</parameter><parameter name="DTC">RT-DLaTGS_IR-Biotyper [Microplate reader]</parameter><parameter name="HPF">0</parameter><parameter name="LPF">10.0</parameter><parameter name="LPV">4000</parameter><parameter name="PGN">0</parameter><parameter name="RDX">0</parameter><parameter name="SRC">MIR</parameter><parameter name="VEL">10.0</parameter><parameter name="SON">Off</parameter></Optic_Parameters_><FT_-_Parameters_><parameter name="APF">B3</parameter><parameter name="HFQ">500</parameter><parameter name="LFQ">4000</parameter><parameter name="NLI">0</parameter><parameter name="PHR">24</parameter><parameter name="PHZ">ML</parameter><parameter name="SPZ">NO</parameter><parameter name="ZFF">1</parameter></FT_-_Parameters_><Acquisition_Parameters_><parameter name="ADT">1</parameter><parameter name="AQM">DD</parameter><parameter name="CFE">0</parameter><parameter name="COR">0</parameter><parameter name="DEL">0</parameter><parameter name="DLY">0</parameter><parameter name="HFW">8000</parameter><parameter name="LFW">0</parameter><parameter name="NSS">32</parameter><parameter name="PLF">AB</parameter><parameter name="RES">6</parameter><parameter name="SOT">0</parameter><parameter name="TCL">MakeCompatibleScalar (0, {WSV=1.000000, ARV=0});</parameter><parameter name="TDL">37</parameter><parameter name="SPO">0</parameter><parameter name="SGN">-1</parameter></Acquisition_Parameters_><Instrument_Parameters_Rf><parameter name="HFL">15801.365274</parameter><parameter name="LFL">0</parameter><parameter name="LWN">15801.365274</parameter><parameter name="ABP">32157</parameter><parameter name="SSP">1</parameter><parameter name="ARG">2</parameter><parameter name="ASG">2</parameter><parameter name="ASS">32</parameter><parameter name="GFW">16</parameter><parameter name="GBW">16</parameter><parameter name="BFW">0</parameter><parameter name="BBW">0</parameter><parameter name="PKA">9112</parameter><parameter name="PKL">4987</parameter><parameter name="PRA">9128</parameter><parameter name="PRL">5010</parameter><parameter name="P2A">1</parameter><parameter name="P2L">1</parameter><parameter name="P2R">1</parameter><parameter name="P2K">1</parameter><parameter name="DAQ">0</parameter><parameter name="AG2">1</parameter><parameter name="SSM">1</parameter><parameter name="RSN">46372</parameter><parameter name="CRR">0</parameter><parameter name="SRT">1705498505.444</parameter><parameter name="DUR">19.6449890136719</parameter><parameter name="TSC">30.9</parameter><parameter name="MVD">0.30083104968071</parameter><parameter name="AN1">0.226014361193943</parameter><parameter name="AN2">0</parameter><parameter name="VSN">2.485 Apr  4 2017</parameter><parameter name="SRN">0085</parameter><parameter name="CAM">0</parameter><parameter name="INS">IR-Biotyper</parameter><parameter name="FOC">69</parameter><parameter name="RDY">1</parameter><parameter name="ARS">32</parameter></Instrument_Parameters_Rf><Sample_Parameters_><parameter name="BLD"></parameter><parameter name="CNM">Admin</parameter><parameter name="CPY"></parameter><parameter name="DPM"></parameter><parameter name="EXP">IRBT_v3_32Scans.XPM</parameter><parameter name="LCT"></parameter><parameter name="SFM">Microplate, HTS-XT</parameter><parameter name="SNM">240117-1222-Cdiff_SCFA_1_C9_232112557_A10_710238fa-4209-4972-9734-34a797ce0318.0</parameter><parameter name="XPP">C:\Users\Public\Documents\Bruker\OPUS_8.2.28\XPM</parameter><parameter name="IST">OK</parameter><parameter name="CPG">1252</parameter><parameter name="UID">12ed3eec-402d-4718-95ec-6cb103a831ab</parameter></Sample_Parameters_><Instrument_Parameters_><parameter name="HFL">15801.365274</parameter><parameter name="LFL">0</parameter><parameter name="LWN">15801.365274</parameter><parameter name="ABP">32157</parameter><parameter name="SSP">1</parameter><parameter name="ASG">2</parameter><parameter name="ARG">2</parameter><parameter name="ASS">32</parameter><parameter name="GFW">16</parameter><parameter name="GBW">16</parameter><parameter name="BFW">0</parameter><parameter name="BBW">0</parameter><parameter name="PKA">9605</parameter><parameter name="PKL">4979</parameter><parameter name="PRA">9697</parameter><parameter name="PRL">5011</parameter><parameter name="P2A">1</parameter><parameter name="P2L">1</parameter><parameter name="P2R">1</parameter><parameter name="P2K">1</parameter><parameter name="DAQ">0</parameter><parameter name="AG2">1</parameter><parameter name="SSM">1</parameter><parameter name="RSN">23879</parameter><parameter name="CRR">0</parameter><parameter name="SRT">1705498532.538</parameter><parameter name="DUR">19.6449890136719</parameter><parameter name="TSC">30.9</parameter><parameter name="MVD">0.438429683446884</parameter><parameter name="AN1">0.226007624695877</parameter><parameter name="AN2">0</parameter><parameter name="VSN">2.485 Apr  4 2017</parameter><parameter name="SRN">0085</parameter><parameter name="CAM">0</parameter><parameter name="INS">IR-Biotyper</parameter><parameter name="FOC">69</parameter><parameter name="RDY">1</parameter></Instrument_Parameters_><History/></OPUSDataFile>
