<?xml version="1.0" encoding="UTF-8" ?>
<OPUSDataFile><AB><Ydata ylabel="Absorbance Units"><values byteorder="INTEL" format="FLOAT32" numvalues="3497"> -0.0125502 -0.01253868 -0.01252615 -0.01251384 -0.01250619 -0.01250227 -0.01250248 -0.01250504 -0.01250749 -0.01250872
 -0.01250647 -0.01250097 -0.01249131 -0.01247935 -0.01246535 -0.01245241 -0.01244145 -0.01243528 -0.01243517 -0.01243972
 -0.01244943 -0.01245817 -0.01246551 -0.01246645 -0.01246081 -0.01244972 -0.01243366 -0.01241837 -0.01240384 -0.01239324
 -0.0123856 -0.01237928 -0.01237387 -0.01236722 -0.0123605 -0.01235442 -0.01235045 -0.01235084 -0.01235506 -0.0123639
 -0.01237509 -0.0123878 -0.01240012 -0.01241106 -0.01242046 -0.01242813 -0.01243421 -0.01243881 -0.01244114 -0.01244119
 -0.01243761 -0.01243034 -0.01241937 -0.01240481 -0.01238813 -0.01236942 -0.01234991 -0.0123297 -0.01230961 -0.01229009
 -0.01227257 -0.0122574 -0.01224576 -0.01223771 -0.01223376 -0.01223383 -0.01223819 -0.01224617 -0.01225815 -0.01227098
 -0.01228412 -0.01229304 -0.01229636 -0.01229255 -0.01228071 -0.01226453 -0.01224418 -0.01222418 -0.01220479 -0.01218842
 -0.01217514 -0.01216631 -0.01216187 -0.01216243 -0.01216734 -0.01217491 -0.01218408 -0.01219143 -0.01219679 -0.01219818
 -0.01219645 -0.01219175 -0.0121849 -0.01217651 -0.01216722 -0.01215714 -0.01214797 -0.01214013 -0.01213567 -0.01213541
 -0.01213928 -0.01214784 -0.01215693 -0.01216638 -0.01217052 -0.01216905 -0.01216036 -0.0121448 -0.01212622 -0.01210507
 -0.0120861 -0.01206881 -0.01205371 -0.01204056 -0.01202847 -0.01201889 -0.01201395 -0.0120143 -0.01202272 -0.01203548
 -0.01205123 -0.012065 -0.01207285 -0.01207565 -0.01207198 -0.01206729 -0.01206323 -0.0120602 -0.01205913 -0.01205417
 -0.01204457 -0.01202952 -0.01200895 -0.01199174 -0.01197821 -0.01197541 -0.01198204 -0.01199432 -0.01200995 -0.01201823
 -0.01201913 -0.01200606 -0.01198313 -0.0119536 -0.01192243 -0.01189713 -0.01187883 -0.01187131 -0.01187283 -0.01188395
 -0.01190108 -0.01192375 -0.01194612 -0.01196688 -0.01198086 -0.01198665 -0.0119841 -0.01197275 -0.01195723 -0.01193778
 -0.01191934 -0.01190199 -0.01188747 -0.01187575 -0.0118673 -0.01186247 -0.01186282 -0.01186847 -0.01188112 -0.01189913
 -0.01192145 -0.01194405 -0.01196215 -0.01197199 -0.01196793 -0.01195167 -0.01192093 -0.01188427 -0.01184381 -0.01180841
 -0.01178135 -0.01176441 -0.01175904 -0.01176028 -0.01176792 -0.01177614 -0.01178455 -0.01179041 -0.01179372 -0.01179444
 -0.01179265 -0.01178889 -0.01178327 -0.01177641 -0.0117687 -0.01176141 -0.01175499 -0.01175103 -0.01174894 -0.011749
 -0.01174953 -0.01174912 -0.01174708 -0.01174218 -0.01173598 -0.01172853 -0.01172226 -0.01171798 -0.01171636 -0.01171789
 -0.01172085 -0.01172518 -0.01172904 -0.01173232 -0.01173417 -0.01173455 -0.01173277 -0.01172874 -0.01172128 -0.0117105
 -0.01169587 -0.01167831 -0.01165966 -0.01164126 -0.01162654 -0.01161559 -0.01161053 -0.01160917 -0.01161039 -0.01161237
 -0.01161295 -0.01161424 -0.01161596 -0.01162278 -0.01163655 -0.01165692 -0.01168525 -0.0117123 -0.01173752 -0.01174999
 -0.0117489 -0.01173208 -0.01170003 -0.01166204 -0.01161914 -0.01158355 -0.01155453 -0.01153617 -0.01152598 -0.01151939
 -0.01151499 -0.01150754 -0.01149828 -0.01148639 -0.01147397 -0.01146276 -0.01145349 -0.01144737 -0.01144346 -0.01144173
 -0.01144092 -0.01144059 -0.01144044 -0.01144033 -0.01144032 -0.01144046 -0.01143999 -0.01143887 -0.01143657 -0.01143315
 -0.01142988 -0.01142691 -0.01142599 -0.01142706 -0.01143094 -0.01143717 -0.01144513 -0.01145394 -0.01146189 -0.0114679
 -0.01146964 -0.01146728 -0.01145957 -0.01144901 -0.01143653 -0.01142492 -0.01141612 -0.01140919 -0.01140471 -0.01139904
 -0.01139138 -0.01138059 -0.01136622 -0.01135042 -0.01133326 -0.01131795 -0.01130455 -0.0112942 -0.01128681 -0.01128236
 -0.01128084 -0.01128219 -0.01128631 -0.01129321 -0.01130219 -0.01131224 -0.01132198 -0.01132914 -0.01133304 -0.01133169
 -0.01132694 -0.01131905 -0.01131074 -0.01130364 -0.01129771 -0.0112938 -0.01128848 -0.01128121 -0.01126927 -0.01125181
 -0.01123215 -0.01121033 -0.0111936 -0.01118216 -0.01117848 -0.01118182 -0.0111874 -0.01119441 -0.01119622 -0.01119359
 -0.01118484 -0.01117183 -0.01115737 -0.01114257 -0.01113038 -0.01112034 -0.01111303 -0.01110779 -0.01110428 -0.01110229
 -0.01110183 -0.01110219 -0.01110355 -0.01110343 -0.01110148 -0.0110953 -0.01108426 -0.01106982 -0.01105192 -0.01103532
 -0.01102019 -0.01100938 -0.01100259 -0.01099849 -0.01099655 -0.01099341 -0.01098922 -0.01098234 -0.01097376 -0.01096471
 -0.01095584 -0.01094881 -0.01094313 -0.01093898 -0.01093569 -0.01093244 -0.01093042 -0.01093 -0.01093204 -0.01093735
 -0.01094399 -0.01095208 -0.01095766 -0.01096023 -0.01095731 -0.01094857 -0.01093573 -0.01091899 -0.0109034 -0.01088911
 -0.01087982 -0.01087486 -0.01087325 -0.0108738 -0.01087227 -0.01086875 -0.01086083 -0.01085051 -0.01083972 -0.0108297
 -0.01082308 -0.01081799 -0.01081446 -0.01080902 -0.01079977 -0.01078583 -0.01076576 -0.0107433 -0.01071856 -0.01069706
 -0.01067969 -0.01066874 -0.01066464 -0.01066449 -0.01066808 -0.01066983 -0.01066971 -0.01066498 -0.01065631 -0.01064548
 -0.01063306 -0.01062188 -0.01061158 -0.01060261 -0.0105949 -0.01058835 -0.01058338 -0.01058073 -0.01057958 -0.01058018
 -0.01057963 -0.01057647 -0.01056935 -0.01055675 -0.01054199 -0.01052517 -0.01051119 -0.01050089 -0.01049588 -0.01049646
 -0.01050066 -0.01050838 -0.01051742 -0.01052765 -0.01053696 -0.010545 -0.01054868 -0.01054798 -0.01054074 -0.01052817
 -0.01051135 -0.01049232 -0.01047448 -0.0104592 -0.01044926 -0.01044471 -0.0104469 -0.01045377 -0.01046533 -0.01047731
 -0.01048865 -0.01049483 -0.01049435 -0.01048643 -0.0104704 -0.01044955 -0.010424 -0.01039773 -0.01037095 -0.01034611
 -0.01032323 -0.0103032 -0.01028606 -0.0102726 -0.01026264 -0.01025615 -0.01025264 -0.01025127 -0.01025123 -0.01025121
 -0.01025006 -0.01024618 -0.01023853 -0.0102254 -0.0102081 -0.01018596 -0.01016383 -0.01014293 -0.01012791 -0.01012066
 -0.01012002 -0.01012676 -0.01013323 -0.01013894 -0.01013644 -0.01012544 -0.01010619 -0.01007938 -0.01005246 -0.01002614
 -0.01000829 -0.009998157 -0.009998085 -0.01000569 -0.01001711 -0.0100301 -0.01003931 -0.01004431 -0.01004234 -0.01003472
 -0.01002128 -0.01000425 -0.009984348 -0.009964413 -0.009945304 -0.009929986 -0.009919506 -0.009914344 -0.009915161 -0.00991799
 -0.00992265 -0.009924112 -0.009922139 -0.009915623 -0.009904844 -0.009892776 -0.009879532 -0.009867339 -0.009855809 -0.00984466
 -0.009833854 -0.009823019 -0.009812643 -0.009803534 -0.009795466 -0.009788909 -0.009782272 -0.009774594 -0.009764489 -0.009750498
 -0.009733916 -0.009714534 -0.009695169 -0.009676467 -0.009660165 -0.009646681 -0.009636345 -0.009629227 -0.009625508 -0.009625193
 -0.009627648 -0.009632599 -0.009636644 -0.009639395 -0.009636594 -0.00962868 -0.009614615 -0.009595666 -0.009574376 -0.009551268
 -0.009528416 -0.009505534 -0.009482703 -0.009460739 -0.009439781 -0.009422152 -0.009409315 -0.009401943 -0.009401425 -0.009404033
 -0.009409679 -0.00941225 -0.009410688 -0.0094017 -0.009384622 -0.009361471 -0.009332335 -0.009303532 -0.009275421 -0.009254412
 -0.009240218 -0.009234908 -0.009237074 -0.009243237 -0.009251529 -0.009255568 -0.009255094 -0.00924618 -0.0092312 -0.009210888
 -0.009188686 -0.009167832 -0.009149393 -0.00913542 -0.009123596 -0.009113727 -0.009102945 -0.009090271 -0.009075297 -0.009057683
 -0.009038595 -0.009018114 -0.008997073 -0.008975523 -0.008954017 -0.008932552 -0.008911246 -0.008889986 -0.008868244 -0.008845731
 -0.00882103 -0.008794123 -0.008763965 -0.008731401 -0.008696857 -0.008662487 -0.008630556 -0.008603744 -0.008585234 -0.00857546
 -0.008576633 -0.008584164 -0.008597772 -0.008609697 -0.008618006 -0.008617187 -0.008605506 -0.008584191 -0.008552852 -0.008517603
 -0.008478765 -0.008442867 -0.00841001 -0.008382892 -0.008361045 -0.008343108 -0.008328295 -0.008313085 -0.008296833 -0.008275993
 -0.008250873 -0.008219896 -0.008184985 -0.008147368 -0.008109865 -0.008075564 -0.008044871 -0.008019558 -0.007996634 -0.007975395
 -0.007953299 -0.007929021 -0.007904131 -0.007878509 -0.007855186 -0.00783469 -0.00781606 -0.007799304 -0.00778026 -0.007758795
 -0.007732098 -0.007700528 -0.007664891 -0.0076259 -0.007586666 -0.007547623 -0.007511677 -0.007478253 -0.007448053 -0.007419384
 -0.00739029 -0.00736012 -0.007327057 -0.007293053 -0.00725871 -0.007225694 -0.007195521 -0.007165901 -0.007137022 -0.007104119
 -0.007066166 -0.007021623 -0.006969898 -0.006914339 -0.006855076 -0.006797579 -0.006742049 -0.006692342 -0.006648159 -0.006609577
 -0.006575793 -0.00654382 -0.0065129 -0.006479635 -0.006443594 -0.006402604 -0.006356221 -0.006302886 -0.006242919 -0.006175143
 -0.006103085 -0.006027688 -0.005954488 -0.005886214 -0.005825017 -0.005772823 -0.005725854 -0.005684008 -0.00564215 -0.005599567
 -0.005554607 -0.005507098 -0.005457468 -0.005405677 -0.005351003 -0.005293317 -0.00523124 -0.005164926 -0.005094065 -0.005019302
 -0.004942024 -0.004863083 -0.004784618 -0.004707202 -0.004632506 -0.00456045 -0.004491749 -0.004425436 -0.004361422 -0.004297878
 -0.004234337 -0.004168279 -0.004098856 -0.004024756 -0.003945182 -0.003862541 -0.003776786 -0.003692595 -0.003610302 -0.003532162
 -0.003458095 -0.003386014 -0.003315661 -0.00324408 -0.003171433 -0.003096965 -0.003020711 -0.002942629 -0.002862065 -0.00277765
 -0.002689262 -0.002595832 -0.00249853 -0.002397741 -0.00229536 -0.002192689 -0.002090774 -0.001990382 -0.001891848 -0.001795511
 -0.001700914 -0.001608108 -0.001516126 -0.001424885 -0.001333397 -0.001241569 -0.00114948 -0.001057189 -0.0009660714 -0.0008761727
 -0.0007885632 -0.000703004 -0.0006191164 -0.0005364981 -0.0004537915 -0.0003708932 -0.0002869824 -0.0002020926 -0.0001161838 -2.857691E-05
 6.115071E-05 0.0001541689 0.000251718 0.0003530821 0.0004588879 0.0005656931 0.0006728836 0.0007766256 0.0008758046 0.0009700031
 0.001058847 0.001144522 0.001227135 0.001308914 0.00138996 0.001471839 0.001554675 0.00164029 0.001728637 0.001820664
 0.001915879 0.002013449 0.002112804 0.00221225 0.002312032 0.002411614 0.002511842 0.002613327 0.002716658 0.002822596
 0.002930686 0.003041138 0.003152545 0.003264507 0.003376123 0.00348686 0.003598186 0.003710062 0.003825387 0.003944402
 0.004068292 0.004197029 0.004329063 0.004464157 0.004599653 0.004735459 0.004869791 0.005002659 0.005133091 0.005261327
 0.005387382 0.005511484 0.005634234 0.005754919 0.005873461 0.005988006 0.006097231 0.006200225 0.006295878 0.006385467
 0.006469185 0.006548024 0.006622571 0.00669107 0.006753549 0.006806717 0.006850268 0.006883372 0.006906055 0.006920168
 0.006925874 0.006925467 0.006918839 0.006906724 0.006888867 0.00686496 0.006834697 0.006797549 0.006752718 0.006699085
 0.006635454 0.006560381 0.00647276 0.006371231 0.006255965 0.006126433 0.005984105 0.005829011 0.005663835 0.00548903
 0.005307057 0.005118321 0.004924113 0.004724609 0.004519507 0.004308783 0.004091727 0.003868231 0.003637079 0.003398049
 0.003149301 0.00289095 0.002621795 0.002343441 0.002058073 0.001768429 0.001479433 0.001192591 0.0009116876 0.0006355697
 0.0003644809 9.749051E-05 -0.0001666546 -0.0004250046 -0.0006776158 -0.0009185912 -0.001146785 -0.001357605 -0.001550042 -0.001723549
 -0.001877812 -0.002016687 -0.002140418 -0.002255014 -0.002360728 -0.002462621 -0.002560199 -0.002654148 -0.002742884 -0.002822147
 -0.00289006 -0.002940212 -0.002972684 -0.002983743 -0.002977336 -0.00295523 -0.002923433 -0.00288693 -0.002848624 -0.00281216
 -0.002774436 -0.002735521 -0.002690935 -0.002639209 -0.002580586 -0.002514696 -0.00244441 -0.002370154 -0.002290001 -0.002203746
 -0.002102484 -0.001985552 -0.001842736 -0.001674072 -0.001474207 -0.001243994 -0.0009830272 -0.0006927645 -0.0003753617 -3.384247E-05
 0.000327751 0.0007032997 0.001086348 0.001468506 0.001842836 0.002200874 0.002537414 0.002845291 0.003121801 0.003359545
 0.003556933 0.003706473 0.003806961 0.003853026 0.003843935 0.003779116 0.003658599 0.003488017 0.003268372 0.003011886
 0.002720284 0.002408998 0.002079185 0.001742827 0.001399899 0.001055847 0.000710939 0.0003671241 2.673733E-05 -0.0003073354
 -0.0006325508 -0.0009455912 -0.001247093 -0.00153593 -0.0018155 -0.002086862 -0.002351859 -0.002611475 -0.00286434 -0.003110481
 -0.003347775 -0.003575926 -0.003795285 -0.004005875 -0.004210124 -0.004408155 -0.004602199 -0.004792104 -0.004978433 -0.005160477
 -0.005336116 -0.005504877 -0.005664246 -0.005815171 -0.005957569 -0.006093712 -0.006226065 -0.006356124 -0.006486249 -0.006615498
 -0.006744296 -0.006870446 -0.006993207 -0.007111363 -0.007224394 -0.007332298 -0.007434928 -0.007533018 -0.007626557 -0.007717086
 -0.00780469 -0.007891386 -0.007977162 -0.008062538 -0.008147225 -0.008229723 -0.008310028 -0.008387118 -0.008461657 -0.008534763
 -0.008606782 -0.008679098 -0.008750841 -0.008821798 -0.008890484 -0.008955495 -0.009016555 -0.009072701 -0.009125759 -0.009175948
 -0.009225703 -0.009275606 -0.009327501 -0.009381874 -0.009438923 -0.009498889 -0.00955913 -0.009619514 -0.009675444 -0.009726861
 -0.009771463 -0.009810002 -0.00984565 -0.009879321 -0.009916243 -0.009956102 -0.01000117 -0.01004972 -0.01009975 -0.01015049
 -0.01019982 -0.01024894 -0.01029805 -0.01034834 -0.01040103 -0.01045471 -0.01050965 -0.01056228 -0.01061188 -0.01065544
 -0.01069221 -0.01072167 -0.01074355 -0.01075994 -0.01077093 -0.01078015 -0.0107877 -0.01079584 -0.01080415 -0.01081138
 -0.01081683 -0.01081718 -0.01081237 -0.01080041 -0.01078193 -0.01075722 -0.01072654 -0.01069057 -0.01064862 -0.01060004
 -0.01054538 -0.0104838 -0.01041943 -0.01035258 -0.0102908 -0.01023546 -0.01019489 -0.01017067 -0.01016795 -0.01018772
 -0.01022913 -0.01029222 -0.0103692 -0.01045929 -0.01054965 -0.01063945 -0.01071665 -0.01078166 -0.01082902 -0.01086086
 -0.01087932 -0.01088692 -0.01088904 -0.0108868 -0.01088383 -0.01087966 -0.0108752 -0.01086941 -0.01086196 -0.01085212
 -0.01083957 -0.01082378 -0.0108045 -0.01078161 -0.01075502 -0.01072499 -0.01069152 -0.01065498 -0.01061538 -0.01057358
 -0.01052972 -0.01048619 -0.01044328 -0.01040444 -0.01036949 -0.01033998 -0.01031458 -0.01029094 -0.01026737 -0.01023967
 -0.0102074 -0.01016778 -0.01012281 -0.01007264 -0.01002098 -0.009969885 -0.009922191 -0.009879815 -0.009842727 -0.009811788
 -0.009783757 -0.009758458 -0.009731595 -0.009702733 -0.009668558 -0.009628852 -0.009580518 -0.009523441 -0.009455148 -0.009376192
 -0.009288176 -0.009193501 -0.00910184 -0.009016592 -0.008952078 -0.008908584 -0.008894744 -0.00890517 -0.008937707 -0.008984414
 -0.009037737 -0.009092657 -0.00914376 -0.009190295 -0.009230761 -0.009265457 -0.009294335 -0.00931702 -0.009333299 -0.009343863
 -0.009348542 -0.009350548 -0.009350051 -0.009350888 -0.009353145 -0.009358356 -0.009366162 -0.009374718 -0.009383718 -0.009390595
 -0.009396061 -0.00940037 -0.00940506 -0.009413223 -0.009425437 -0.009444234 -0.009467977 -0.009496188 -0.009527132 -0.009559067
 -0.00959303 -0.009628231 -0.009669225 -0.009716821 -0.009775926 -0.009847776 -0.009934034 -0.0100354 -0.01014845 -0.01027309
 -0.01040215 -0.01053525 -0.01066594 -0.01079424 -0.01091727 -0.01103529 -0.01114797 -0.01125503 -0.01135571 -0.01144916
 -0.01153344 -0.01160787 -0.01167047 -0.01172201 -0.01176195 -0.01179286 -0.01181563 -0.01183399 -0.01184976 -0.0118652
 -0.0118818 -0.01189819 -0.01191464 -0.01192761 -0.01193664 -0.01194017 -0.01193801 -0.01193227 -0.01192313 -0.0119139
 -0.01190458 -0.01189675 -0.01189021 -0.01188497 -0.01188102 -0.01187841 -0.01187717 -0.01187752 -0.01187912 -0.01188177
 -0.01188454 -0.01188647 -0.01188699 -0.01188527 -0.01188182 -0.01187644 -0.0118706 -0.01186467 -0.01185971 -0.01185613
 -0.01185367 -0.01185249 -0.01185084 -0.01184865 -0.01184334 -0.01183486 -0.01182218 -0.01180555 -0.01178648 -0.01176534
 -0.01174469 -0.01172452 -0.01170605 -0.01168919 -0.01167411 -0.01166131 -0.01165153 -0.0116453 -0.01164403 -0.01164582
 -0.01165059 -0.01165416 -0.01165449 -0.0116495 -0.01163739 -0.01162128 -0.01160111 -0.01158221 -0.01156539 -0.01155271
 -0.01154451 -0.01153863 -0.01153494 -0.01153082 -0.01152629 -0.01152049 -0.01151349 -0.01150524 -0.01149575 -0.01148494
 -0.01147305 -0.01146042 -0.01144768 -0.01143579 -0.0114254 -0.01141756 -0.01141234 -0.01141047 -0.01141051 -0.01141239
 -0.01141334 -0.01141254 -0.01140782 -0.01139833 -0.0113845 -0.01136601 -0.01134609 -0.01132493 -0.01130594 -0.01128924
 -0.01127575 -0.01126526 -0.01125629 -0.01124868 -0.01124091 -0.01123317 -0.01122528 -0.01121727 -0.01120925 -0.01120077
 -0.01119134 -0.0111804 -0.01116694 -0.01115162 -0.01113418 -0.01111652 -0.01109928 -0.0110844 -0.01107272 -0.01106491
 -0.01106152 -0.01106114 -0.01106386 -0.0110664 -0.01106852 -0.01106749 -0.01106323 -0.01105554 -0.01104476 -0.0110339
 -0.0110232 -0.01101554 -0.01101055 -0.01100889 -0.01100948 -0.01101059 -0.01101108 -0.01100836 -0.01100248 -0.01099192
 -0.01097915 -0.01096503 -0.01095283 -0.01094463 -0.01094101 -0.01094354 -0.01094738 -0.01095207 -0.01095184 -0.01094549
 -0.01093251 -0.01091252 -0.01089118 -0.01086876 -0.01085106 -0.0108379 -0.01083007 -0.0108269 -0.01082536 -0.01082526
 -0.01082427 -0.01082298 -0.01082154 -0.01082036 -0.01082043 -0.01082112 -0.0108224 -0.0108229 -0.01082157 -0.0108178
 -0.01081068 -0.01080151 -0.01079019 -0.01077936 -0.01076965 -0.01076256 -0.01075868 -0.01075619 -0.01075508 -0.01075183
 -0.01074631 -0.0107368 -0.01072352 -0.01070799 -0.01069062 -0.01067428 -0.01065922 -0.01064772 -0.01063983 -0.01063694
 -0.01063856 -0.01064506 -0.01065436 -0.01066488 -0.01067367 -0.01067787 -0.01067652 -0.01066754 -0.01065426 -0.01063691
 -0.01062033 -0.01060589 -0.01059545 -0.01058978 -0.01058682 -0.01058651 -0.01058591 -0.01058488 -0.01058191 -0.01057702
 -0.01056964 -0.01055995 -0.0105483 -0.01053531 -0.0105231 -0.01051246 -0.01050659 -0.01050488 -0.01050847 -0.01051464
 -0.0105211 -0.01052514 -0.01052341 -0.01051663 -0.01050348 -0.01048838 -0.01047242 -0.01045957 -0.01045139 -0.01044742
 -0.01044816 -0.01044967 -0.01045167 -0.01045094 -0.0104473 -0.01043989 -0.01042882 -0.01041529 -0.01039955 -0.01038363
 -0.0103678 -0.0103542 -0.01034251 -0.01033322 -0.01032553 -0.0103182 -0.01031122 -0.01030386 -0.01029706 -0.01029138
 -0.01028722 -0.01028532 -0.01028426 -0.0102837 -0.01028236 -0.01027958 -0.01027629 -0.0102725 -0.01026933 -0.01026701
 -0.01026456 -0.01026194 -0.01025642 -0.01024802 -0.01023574 -0.01022001 -0.01020287 -0.01018476 -0.01016852 -0.01015394
 -0.01014214 -0.01013224 -0.01012323 -0.01011464 -0.01010525 -0.01009584 -0.01008652 -0.01007837 -0.01007223 -0.01006778
 -0.01006541 -0.0100633 -0.01006102 -0.01005755 -0.01005251 -0.01004644 -0.01003934 -0.01003184 -0.01002399 -0.01001529
 -0.0100057 -0.009994455 -0.009981775 -0.009968549 -0.009955173 -0.009943624 -0.009933941 -0.009927324 -0.009923337 -0.009921941
 -0.009922327 -0.009923534 -0.00992507 -0.00992622 -0.009926812 -0.009926563 -0.009925473 -0.009923606 -0.009920434 -0.009915851
 -0.009909343 -0.009900605 -0.009890934 -0.009880323 -0.009871335 -0.009864123 -0.009859231 -0.009856472 -0.009853119 -0.009848967
 -0.009841076 -0.00983004 -0.009816347 -0.009800977 -0.009786721 -0.009773785 -0.009763964 -0.009756568 -0.009751575 -0.009748067
 -0.009745263 -0.009742669 -0.009739796 -0.009736445 -0.009732338 -0.009727869 -0.009723065 -0.009718387 -0.009713971 -0.009709681
 -0.009705549 -0.009701013 -0.009696037 -0.009690709 -0.00968508 -0.009680001 -0.009675381 -0.009671023 -0.009666786 -0.009661828
 -0.009656518 -0.00965128 -0.009646654 -0.009644052 -0.009642994 -0.009643862 -0.0096449 -0.009644788 -0.00964227 -0.00963586
 -0.009626535 -0.009614015 -0.009600674 -0.009587009 -0.009575062 -0.009565344 -0.009558422 -0.009554525 -0.009552455 -0.009552174
 -0.009551095 -0.009549102 -0.009544002 -0.009535938 -0.009524733 -0.009510712 -0.009495102 -0.009477969 -0.009459924 -0.00944134
 -0.009422825 -0.009405566 -0.009391279 -0.009380711 -0.009375636 -0.00937444 -0.009377101 -0.009380632 -0.00938365 -0.009385024
 -0.009383912 -0.009381451 -0.009377725 -0.009373628 -0.009369309 -0.009364705 -0.009359813 -0.0093548 -0.009349695 -0.009345164
 -0.009341159 -0.009337742 -0.009334696 -0.009331184 -0.00932703 -0.009321278 -0.009314015 -0.009304911 -0.00929422 -0.009282009
 -0.009268845 -0.009255069 -0.009241648 -0.009229243 -0.009218474 -0.009209908 -0.009203153 -0.009198492 -0.009194051 -0.009189722
 -0.009182747 -0.009172735 -0.009158511 -0.009139905 -0.009119152 -0.009096435 -0.009075611 -0.009056475 -0.009039425 -0.009023887
 -0.009007315 -0.008990165 -0.008972233 -0.008954471 -0.008939001 -0.008925184 -0.008913007 -0.008901922 -0.008890408 -0.008881573
 -0.008876855 -0.008878641 -0.008889328 -0.008905556 -0.008927328 -0.008949297 -0.0089705 -0.00898718 -0.008998671 -0.009004024
 -0.009003056 -0.008998219 -0.008989656 -0.008980618 -0.008970669 -0.008957981 -0.008941886 -0.008917731 -0.008886961 -0.008850534
 -0.008811515 -0.008776377 -0.008746448 -0.008726979 -0.008715564 -0.008712372 -0.008713408 -0.008715903 -0.008718451 -0.008719334
 -0.00872015 -0.008720978 -0.008723536 -0.00872847 -0.008734765 -0.008742521 -0.008749219 -0.008754674 -0.008757567 -0.008757888
 -0.008755986 -0.008751925 -0.008746304 -0.008739254 -0.00873158 -0.008723566 -0.008716444 -0.008710343 -0.008706192 -0.008703742
 -0.008702969 -0.008703862 -0.008706287 -0.008710624 -0.008717263 -0.008725815 -0.00873669 -0.00874748 -0.008757689 -0.008764927
 -0.008768461 -0.008768095 -0.008763582 -0.008756508 -0.00874698 -0.008735845 -0.008723116 -0.008708458 -0.008691983 -0.008674244
 -0.00865579 -0.008639403 -0.008625538 -0.008617255 -0.008613937 -0.008616223 -0.008622328 -0.008630293 -0.008638153 -0.008643115
 -0.008644838 -0.008641832 -0.008635923 -0.008627335 -0.00861853 -0.008610466 -0.00860391 -0.008599496 -0.008595289 -0.008591199
 -0.008584881 -0.008576092 -0.008564672 -0.008550685 -0.008536696 -0.008522841 -0.008511538 -0.008502444 -0.008495274 -0.008489553
 -0.00848359 -0.008477483 -0.008470451 -0.008463221 -0.008456533 -0.008450811 -0.008447025 -0.008444401 -0.008442974 -0.008441151
 -0.008438245 -0.008433053 -0.008424705 -0.008414324 -0.008401619 -0.008390094 -0.008380144 -0.00837461 -0.008373862 -0.008376925
 -0.008383698 -0.008390835 -0.008398231 -0.008403474 -0.008406779 -0.008407988 -0.008407168 -0.008404396 -0.008399739 -0.008393251
 -0.008385277 -0.008376291 -0.008366658 -0.008357092 -0.008347202 -0.008337016 -0.008325879 -0.008313287 -0.008299618 -0.008284614
 -0.008269978 -0.008255921 -0.008244316 -0.008235501 -0.008230156 -0.008228437 -0.008229163 -0.008232252 -0.008235349 -0.008238361
 -0.008239464 -0.008238674 -0.00823519 -0.008228922 -0.008219029 -0.008205747 -0.008188739 -0.008169376 -0.008149197 -0.008130141
 -0.008115077 -0.008104065 -0.008098662 -0.008096199 -0.008095971 -0.008095212 -0.00809257 -0.00808788 -0.008080645 -0.008072601
 -0.008063946 -0.008055756 -0.008048184 -0.008040931 -0.008033979 -0.008026609 -0.008018839 -0.008010521 -0.008001806 -0.007993388
 -0.007985408 -0.0079788 -0.007973323 -0.00796901 -0.007965362 -0.007961556 -0.007957518 -0.007952744 -0.007947662 -0.007942523
 -0.007937327 -0.00793231 -0.007926716 -0.007920233 -0.007912831 -0.007904254 -0.007895791 -0.007887548 -0.007880902 -0.007876027
 -0.007872965 -0.007871713 -0.007871369 -0.007871887 -0.007872574 -0.007873349 -0.007873461 -0.007872772 -0.007870349 -0.007866307
 -0.007860314 -0.00785286 -0.007844549 -0.007835747 -0.007827221 -0.00781866 -0.007810059 -0.007801141 -0.007791541 -0.007781988
 -0.007772494 -0.007764394 -0.007758122 -0.007753812 -0.007751699 -0.007750371 -0.007749768 -0.007748028 -0.007745058 -0.007740035
 -0.007733029 -0.007724535 -0.007714706 -0.00770464 -0.007694396 -0.007684822 -0.007675734 -0.007667173 -0.007658849 -0.00765031
 -0.007641421 -0.007631704 -0.007621648 -0.007611381 -0.007601595 -0.007592709 -0.007585044 -0.007578983 -0.007573801 -0.00756957
 -0.007564678 -0.00755896 -0.007550691 -0.00753964 -0.007525512 -0.007508295 -0.007489942 -0.007470684 -0.007453898 -0.007439666
 -0.007430426 -0.00742559 -0.007424675 -0.007426534 -0.007428281 -0.007429216 -0.007426688 -0.007421238 -0.007412162 -0.007401055
 -0.007388884 -0.007376901 -0.00736627 -0.007356629 -0.007348216 -0.007340013 -0.007331813 -0.007322907 -0.007313078 -0.007302564
 -0.007291316 -0.007280403 -0.007269883 -0.007260708 -0.007252851 -0.007246255 -0.00724072 -0.007234995 -0.007228981 -0.007221502
 -0.007212947 -0.007203613 -0.007193963 -0.007185104 -0.007176686 -0.007169073 -0.007160822 -0.007150836 -0.007138385 -0.007122193
 -0.00710428 -0.007084638 -0.007067045 -0.00705261 -0.007042838 -0.007038522 -0.007037152 -0.007038693 -0.007039127 -0.007038219
 -0.007034592 -0.007028396 -0.0070215 -0.007014111 -0.007008538 -0.007004539 -0.007002553 -0.00700203 -0.007001843 -0.007001677
 -0.007000419 -0.006998216 -0.00699478 -0.006990406 -0.006985271 -0.006979489 -0.006973216 -0.006966311 -0.006958684 -0.006950529
 -0.006941751 -0.006933244 -0.006925149 -0.006918042 -0.006912034 -0.006906895 -0.006902617 -0.006898668 -0.00689505 -0.006891783
 -0.006888872 -0.006886384 -0.006884255 -0.006882272 -0.006880378 -0.006878216 -0.006876047 -0.006874139 -0.006872757 -0.00687245
 -0.006872959 -0.006874389 -0.006876037 -0.006877638 -0.006878329 -0.006877635 -0.006875426 -0.006871449 -0.006866464 -0.006860483
 -0.006854683 -0.006849176 -0.006844891 -0.00684189 -0.006840816 -0.006841678 -0.006844768 -0.006849941 -0.006856533 -0.006864142
 -0.006870785 -0.006876354 -0.006879393 -0.006880444 -0.006879738 -0.006877898 -0.006876013 -0.006873726 -0.00687117 -0.006867728
 -0.0068629 -0.006856953 -0.006849704 -0.006842203 -0.006834734 -0.006827795 -0.006821576 -0.006815846 -0.006810587 -0.006805728
 -0.006801256 -0.006797536 -0.006794567 -0.006792407 -0.006790972 -0.006789733 -0.006788587 -0.006786876 -0.0067845 -0.006780822
 -0.006775906 -0.006769525 -0.006761901 -0.006753117 -0.006743656 -0.006733865 -0.00672437 -0.006715605 -0.006708027 -0.006701958
 -0.006697447 -0.00669462 -0.006693169 -0.006693146 -0.006693658 -0.006694657 -0.00669499 -0.006694581 -0.006692487 -0.006688709
 -0.006683268 -0.006676339 -0.006669155 -0.006661922 -0.006656297 -0.006652022 -0.006649453 -0.006647795 -0.006645763 -0.006642809
 -0.006637503 -0.006630289 -0.006620879 -0.006610375 -0.006599303 -0.006588638 -0.00657894 -0.006570586 -0.006563864 -0.006558502
 -0.006554584 -0.006551204 -0.00654829 -0.006544954 -0.006541134 -0.006536234 -0.006530236 -0.006522934 -0.006514325 -0.006504212
 -0.006492727 -0.006480178 -0.006466995 -0.006454533 -0.006443008 -0.006433628 -0.006425924 -0.006419945 -0.006414736 -0.006409312
 -0.006403518 -0.006396819 -0.006389859 -0.006382879 -0.006375986 -0.006369446 -0.006362244 -0.006354186 -0.006344827 -0.006333998
 -0.006322528 -0.006310448 -0.006299017 -0.006288263 -0.006278459 -0.006269549 -0.006261197 -0.006253384 -0.006245903 -0.006238654
 -0.00623141 -0.006223706 -0.006214456 -0.006203587 -0.006190209 -0.006175442 -0.006159692 -0.006144857 -0.006132512 -0.006122864
 -0.006116936 -0.006112156 -0.006108139 -0.006102058 -0.006093081 -0.006081002 -0.006065543 -0.006048534 -0.006030068 -0.006012025
 -0.005994479 -0.005978533 -0.005964192 -0.005952107 -0.005942117 -0.005934066 -0.005927374 -0.005920236 -0.005912417 -0.005902407
 -0.005890778 -0.005877743 -0.005863638 -0.005849169 -0.005833478 -0.005816008 -0.005796838 -0.005775231 -0.005754051 -0.005733814
 -0.005717669 -0.005706852 -0.005699764 -0.005696678 -0.005692649 -0.005687314 -0.005677594 -0.005663455 -0.00564605 -0.005625561
 -0.005603957 -0.005581333 -0.005559022 -0.00553725 -0.005517328 -0.005499513 -0.005485316 -0.005473807 -0.005464618 -0.005456075
 -0.005446245 -0.00543469 -0.005420103 -0.005404109 -0.005387076 -0.005370503 -0.005355206 -0.005340641 -0.005326964 -0.00531267
 -0.005297488 -0.005281305 -0.005264038 -0.00524712 -0.005230624 -0.005215934 -0.005202999 -0.005191987 -0.005182682 -0.005174267
 -0.005166388 -0.005157597 -0.005147622 -0.005135011 -0.005120249 -0.005103217 -0.005084952 -0.005066411 -0.00504837 -0.005031681
 -0.005016544 -0.005003228 -0.004991852 -0.004982455 -0.004975346 -0.004970706 -0.004968015 -0.004967251 -0.004967769 -0.004969494
 -0.004972524 -0.004976857 -0.004982478 -0.004989262 -0.004995973 -0.005002559 -0.005007876 -0.00501245 -0.005017267 -0.005022896
 -0.005031357 -0.005041972 -0.00505489 -0.005068627 -0.005081637 -0.005093269 -0.005102182 -0.005109696 -0.005115856 -0.005122778
 -0.005131323 -0.005142044 -0.005155516 -0.005169897 -0.005185135 -0.005198595 -0.00521003 -0.005218263 -0.005223253 -0.005225391
 -0.005224699 -0.005221464 -0.005215771 -0.005207917 -0.005198521 -0.005189596 -0.005181827 -0.005177818 -0.005177413 -0.005181619
 -0.00518971 -0.005201251 -0.00521583 -0.005233077 -0.005252603 -0.005274421 -0.005297137 -0.00532042 -0.005342734 -0.005363571
 -0.005382742 -0.005400128 -0.005416062 -0.005430603 -0.005443204 -0.005453828 -0.005461107 -0.005465228 -0.005467424 -0.005468325
 -0.005472067 -0.005478641 -0.005490694 -0.005506713 -0.005524877 -0.005543456 -0.005558706 -0.005570675 -0.00557759 -0.005581307
 -0.005582693 -0.005582932 -0.00558332 -0.005582453 -0.005580137 -0.005575078 -0.005566409 -0.005556646 -0.00554577 -0.005538251
 -0.005534604 -0.005535671 -0.005541466 -0.005548428 -0.005556311 -0.005561185 -0.005563112 -0.005560181 -0.005553031 -0.005542482
 -0.005529721 -0.005517867 -0.005507444 -0.005501007 -0.005497454 -0.005496687 -0.00549727 -0.00549799 -0.005498356 -0.005497791
 -0.005496256 -0.005493725 -0.005489746 -0.005484233 -0.005476676 -0.00546677 -0.005456124 -0.005444791 -0.005435177 -0.005427397
 -0.005421741 -0.005418002 -0.005413741 -0.00540884 -0.0054012 -0.005391283 -0.00537952 -0.005366439 -0.0053535 -0.005340845
 -0.005329167 -0.00531891 -0.005310749 -0.00530517 -0.005303065 -0.005303594 -0.005306854 -0.005310957 -0.00531526 -0.005318472
 -0.005320046 -0.005320059 -0.005318468 -0.005315317 -0.005310644 -0.005303849 -0.005294899 -0.005283348 -0.005269263 -0.005253271
 -0.005235635 -0.005218156 -0.005201128 -0.005186539 -0.005174481 -0.005166227 -0.005161528 -0.005160734 -0.005163017 -0.005167837
 -0.005173778 -0.005179647 -0.005184321 -0.005186844 -0.005186857 -0.00518385 -0.00517858 -0.005171005 -0.005162525 -0.005153327
 -0.005144564 -0.005136392 -0.005129145 -0.005122851 -0.005116979 -0.005111431 -0.005104799 -0.005096982 -0.005086458 -0.005073612
 -0.005058794 -0.005042916 -0.005028292 -0.005015597 -0.005007291 -0.005002719 -0.005002412 -0.005004623 -0.005008452 -0.005011628
 -0.005012746 -0.005010218 -0.005002975 -0.00499102 -0.004973815 -0.004953573 -0.00493042 -0.004907242 -0.004884393 -0.004862993
 -0.00484313 -0.004824294 -0.00480644 -0.004788814 -0.0047714 -0.004753709 -0.004735801 -0.004717498 -0.004699171 -0.004681623
 -0.004665171 -0.004651006 -0.004638422 -0.004627191 -0.004616269 -0.004604509 -0.004592043 -0.004578364 -0.004564823 -0.00455209
 -0.004539928 -0.004528812 -0.004516021 -0.004501066 -0.004482662 -0.00446029 -0.00443793 -0.004415769 -0.004399538 -0.004389157
 -0.004384335 -0.004384282 -0.004383628 -0.004382079 -0.004375512 -0.004364533 -0.004348555 -0.004328309 -0.004305006 -0.004278511
 -0.004249 -0.004216671 -0.004180721 -0.004144757 -0.004109534 -0.004081691 -0.004064669 -0.004059583 -0.00406868 -0.004084537
 -0.004106659 -0.00412608 -0.004141643 -0.004149495 -0.004149274 -0.00414315 -0.004131366 -0.004118232 -0.004103852 -0.004091078
 -0.004079654 -0.004070274 -0.004062305 -0.004054584 -0.004046421 -0.00403579 -0.004023139 -0.004007817 -0.003991593 -0.003975834
 -0.003961502 -0.003950012 -0.003939944 -0.003931433 -0.003921593 -0.00390957 -0.003893976 -0.003874097 -0.00385178 -0.003826984
 -0.003803402 -0.003781301 -0.003761274 -0.00374319 -0.003724522 -0.003705161 -0.003682979 -0.003658383 -0.003631847 -0.00360387
 -0.003576152 -0.003548544 -0.003521637 -0.003494929 -0.003467971 -0.003440551 -0.003412325 -0.003383245 -0.003353192 -0.003322161
 -0.003290129 -0.003257083 -0.003223052 -0.003187857 -0.003151561 -0.003113405 -0.003073365 -0.003030251 -0.002983984 -0.002933708
 -0.002879441 -0.00282145 -0.002760045 -0.002697635 -0.002634437 -0.00257287 -0.002512404 -0.002453001 -0.002393739 -0.002332806
 -0.002269884 -0.002204132 -0.002134616 -0.002061332 -0.001980017 -0.00188887 -0.001782082 -0.001655559 -0.001511181 -0.001346462
 -0.001175479 -0.0009998358 -0.0008339843 -0.000680099 -0.0005434623 -0.0004246394 -0.0003238969 -0.0002412301 -0.0001764955 -0.0001294478
 -9.864375E-05 -8.306126E-05 -7.82866E-05 -8.209661E-05 -8.693122E-05 -8.9479E-05 -8.053405E-05 -5.68602E-05 -1.032127E-05 6.003814E-05
 0.0001583656 0.0002828041 0.0004335038 0.0006081823 0.000805512 0.001025684 0.001268247 0.001534952 0.001826107 0.002142675
 0.002484907 0.002852204 0.003244566 0.003660823 0.004100859 0.004562231 0.00504469 0.005544562 0.006062663 0.006600069
 0.007158816 0.007747572 0.008361896 0.00900531 0.009651863 0.01028125 0.01083553 0.01126638 0.01149596 0.01146373
 0.01111485 0.01039948 0.009340764 0.007916423 0.006250539 0.004348972 0.002399202 0.0004200909 -0.001412733 -0.003084459
 -0.004501341 -0.005661835 -0.006575594 -0.007250578 -0.007754944 -0.008095519 -0.008337912 -0.008484622 -0.008575407 -0.008612125
 -0.008615879 -0.008589786 -0.008546094 -0.008487865 -0.008422149 -0.008350303 -0.008275057 -0.008197051 -0.008116725 -0.008036141
 -0.007955662 -0.007878422 -0.007805369 -0.007736803 -0.007673226 -0.007610843 -0.007549417 -0.007485717 -0.007419713 -0.007352876
 -0.00728552 -0.007221161 -0.007159614 -0.007101954 -0.007047592 -0.006995299 -0.006944798 -0.006894857 -0.006845681 -0.006797128
 -0.00674919 -0.00670178 -0.006654989 -0.006608578 -0.006563628 -0.006520441 -0.006480353 -0.006444162 -0.00641107 -0.006381348
 -0.006352206 -0.006323293 -0.006292804 -0.006260486 -0.006227309 -0.006193343 -0.006160556 -0.006128953 -0.006099259 -0.006071497
 -0.006046189 -0.006023327 -0.006003438 -0.005985847 -0.005969528 -0.005953655 -0.005936321 -0.00591794 -0.005897951 -0.005877791
 -0.00585856 -0.005840233 -0.005823407 -0.005806445 -0.005788802 -0.005769998 -0.005749624 -0.00572895 -0.005708102 -0.005688035
 -0.005668889 -0.005650074 -0.005631556 -0.005612405 -0.005592699 -0.005572735 -0.005552833 -0.005534764 -0.005518682 -0.005506304
 -0.005496879 -0.005490028 -0.005484092 -0.005476373 -0.005466117 -0.005451129 -0.005432652 -0.005410558 -0.00538714 -0.005363543
 -0.00534093 -0.005320054 -0.00530075 -0.005283154 -0.005266695 -0.005251291 -0.005236735 -0.005222981 -0.005210403 -0.005199011
 -0.005188779 -0.005179647 -0.00517103 -0.005162841 -0.005154319 -0.005145459 -0.005135877 -0.005125546 -0.005114285 -0.005101932
 -0.005087963 -0.005072876 -0.005056852 -0.005040763 -0.005025347 -0.005010933 -0.004998074 -0.004986017 -0.004974661 -0.00496321
 -0.004951327 -0.004939427 -0.004927491 -0.004916258 -0.004905829 -0.004895989 -0.004886719 -0.004877063 -0.004867015 -0.004856145
 -0.004844623 -0.004833131 -0.004821815 -0.004811589 -0.004802316 -0.004794196 -0.004786921 -0.004780088 -0.004773554 -0.004767114
 -0.00476041 -0.004753347 -0.004744908 -0.004734611 -0.004721565 -0.00470495 -0.004686256 -0.004665346 -0.004645454 -0.004627004
 -0.004612569 -0.004602556 -0.004596107 -0.004593169 -0.004590637 -0.004588379 -0.004583843 -0.004577191 -0.004567784 -0.004556201
 -0.004543951 -0.004531653 -0.004521594 -0.004513622 -0.004508916 -0.00450593 -0.00450365 -0.004500211 -0.00449358 -0.004483809
 -0.004469869 -0.004454252 -0.004437447 -0.00442207 -0.00440901 -0.004398728 -0.004391568 -0.004386284 -0.004382847 -0.004379454
 -0.004376004 -0.004370688 -0.004363478 -0.004353369 -0.004340589 -0.004325762 -0.004309398 -0.004293683 -0.004278671 -0.00426572
 -0.004254246 -0.004243905 -0.004234209 -0.004224266 -0.004214497 -0.004204777 -0.004196077 -0.004188947 -0.004183753 -0.004181013
 -0.004179616 -0.004179609 -0.004178803 -0.004176836 -0.004172415 -0.004165261 -0.004156543 -0.004146319 -0.0041371 -0.004128963
 -0.004123609 -0.004120863 -0.00412065 -0.004122672 -0.004125903 -0.004130074 -0.004134123 -0.004137755 -0.004139964 -0.004140799
 -0.004139834 -0.0041375 -0.004133963 -0.004129687 -0.004124979 -0.004120042 -0.004115017 -0.004109979 -0.004104988 -0.004099985
 -0.004094994 -0.004089742 -0.004084196 -0.004078244 -0.004071876 -0.004065534 -0.004059219 -0.004053115 -0.004047081 -0.004040407
 -0.004032851 -0.004023138 -0.004011199 -0.003996059 -0.003978233 -0.003957875 -0.003936178 -0.00391451 -0.00389391 -0.003875806
 -0.003860193 -0.003847859 -0.003836982 -0.003827307 -0.003816324 -0.003803259 -0.003787047 -0.003767207 -0.003744758 -0.003719662
 -0.003694101 -0.003668202 -0.00364297 -0.003618317 -0.003593098 -0.003567145 -0.00353863 -0.003507901 -0.003475079 -0.003441057
 -0.003407993 -0.00337673 -0.00334969 -0.003327189 -0.003310766 -0.003299719 -0.003294581 -0.003292646 -0.003293141 -0.003291907
 -0.003287099 -0.003276462 -0.003258328 -0.003235765 -0.003208433 -0.003183571 -0.003161785 -0.003149714 -0.003147829 -0.00315708
 -0.003177124 -0.003202738 -0.003233196 -0.003261013 -0.003286211 -0.003304562 -0.003317247 -0.003325003 -0.0033291 -0.003332336
 -0.003334682 -0.003337344 -0.003339566 -0.003341028 -0.003341378 -0.003340264 -0.003337745 -0.003333741 -0.003328447 -0.003321708
 -0.003314669 -0.003307197 -0.003302423 -0.003300606 -0.003304837 -0.003315364 -0.003331766 -0.003353787 -0.003376966 -0.003400927
 -0.00342069 -0.00343666 -0.003447437 -0.003454345 -0.003460051 -0.003465598 -0.003474473 -0.003485929 -0.003500941 -0.003517048
 -0.003532609 -0.003545428 -0.003553237 -0.003556866 -0.003555689 -0.00355263 -0.003548352 -0.003545014 -0.003543356 -0.003542741
 -0.003543303 -0.003542786 -0.003541036 -0.003537315 -0.003531696 -0.003525484 -0.003518965 -0.003514807 -0.003513106 -0.00351585
 -0.003522572 -0.003533323 -0.003546992 -0.003561762 -0.003576413 -0.003588583 -0.003597901 -0.003603055 -0.003604698 -0.003602703
 -0.003598261 -0.003591795 -0.003584248 -0.003575971 -0.003567435 -0.003558835 -0.003549971 -0.003540841 -0.003531236 -0.003521122
 -0.003511264 -0.003501736 -0.00349412 -0.003488287 -0.003484225 -0.003481358 -0.003477157 -0.003471432 -0.003462009 -0.003449883
 -0.003435823 -0.003420888 -0.0034071 -0.003394021 -0.003382034 -0.003370316 -0.003358001 -0.003346248 -0.003334925 -0.003326804
 -0.003323 -0.003323544 -0.003329125 -0.003335855 -0.003343482 -0.003347654 -0.003347997 -0.003343725 -0.003334926 -0.00332402
 -0.003311137 -0.003298538 -0.003285856 -0.003272801 -0.003258771 -0.00324154 -0.00322175 -0.003198975 -0.003175571 -0.00315447
 -0.003137354 -0.00312765 -0.003123227 -0.00312453 -0.003126687 -0.00312757 -0.003124501 -0.003115565 -0.003103238 -0.003087321
 -0.003072566 -0.003059564 -0.003051216 -0.003047862 -0.003048433 -0.003052768 -0.003057022 -0.003060847 -0.003059587 -0.003053322
 -0.003039453 -0.003019258 -0.002994499 -0.002967482 -0.002943401 -0.002923945 -0.002914225 -0.002912809 -0.002921164 -0.002934393
 -0.002950176 -0.002963644 -0.002971721 -0.002973262 -0.002966688 -0.002955145 -0.00293871 -0.002921863 -0.002905204 -0.002891341
 -0.002880561 -0.002872964 -0.002868538 -0.002866629 -0.002867237 -0.002870226 -0.002875444 -0.002882403 -0.002890375 -0.002897121
 -0.002901783 -0.002901398 -0.00289609 -0.002884385 -0.00286788 -0.002847166 -0.002824826 -0.002802562 -0.002782575 -0.002766512
 -0.002754504 -0.002747394 -0.002742505 -0.002739604 -0.002735494 -0.002729528 -0.00272174 -0.002711987 -0.002703081 -0.002695128
 -0.002689698 -0.002686593 -0.002684716 -0.002683786 -0.002681764 -0.002678854 -0.002674452 -0.002669238 -0.002664115 -0.002660058
 -0.002658932 -0.002660982 -0.002667768 -0.002677099 -0.002688678 -0.002698252 -0.002703731 -0.002702621 -0.002693111 -0.002677027
 -0.002653894 -0.002629035 -0.002603014 -0.002580397 -0.0025617 -0.002547234 -0.002536952 -0.002527999 -0.002520348 -0.002512312
 -0.002504616 -0.002500041 -0.002498971 -0.002504823 -0.002515676 -0.002529863 -0.002543905 -0.002551662 -0.00255217 -0.002540963
 -0.002522263 -0.002496674 -0.002471032 -0.002449024 -0.002433693 -0.0024277 -0.002427655 -0.002433729 -0.002440058 -0.002445692
 -0.002448344 -0.002447631 -0.002445033 -0.002440592 -0.00243465 -0.002427031 -0.002415782 -0.002401259 -0.002383721 -0.002364682
 -0.002349214 -0.002337986 -0.002335627 -0.002340093 -0.002350956 -0.002364595 -0.002377212 -0.002386229 -0.002388262 -0.002383616
 -0.002371087 -0.002353503 -0.002331195 -0.002307963 -0.002284743 -0.002263674 -0.00224537 -0.002229147 -0.002215022 -0.002201782
 -0.002189391 -0.00217838 -0.002168846 -0.002162114 -0.00215802 -0.002156571 -0.002157188 -0.00215802 -0.002158653 -0.002157142
 -0.002153774 -0.002147782 -0.002140599 -0.002133244 -0.002127407 -0.002125022 -0.002125647 -0.002130455 -0.002135189 -0.002139187
 -0.002136845 -0.002126422 -0.002106539 -0.002076109 -0.002040497 -0.001999795 -0.001963148 -0.001931024 -0.001910461 -0.001901248
 -0.001903798 -0.001917014 -0.001935278 -0.001957828 -0.001979004 -0.001999199 -0.002016697 -0.002031686 -0.002044206 -0.002052972
 -0.002056451 -0.002054277 -0.002044637 -0.002031262 -0.002015059 -0.002000861 -0.001991321 -0.001985633 -0.001984936 -0.001982667
 -0.00197789 -0.001966727 -0.001948379 -0.001926826 -0.001902285 -0.001883186 -0.001869655 -0.001866186 -0.001871711 -0.00188306
 -0.001898418 -0.001909906 -0.001916723 -0.001912427 -0.001899073 -0.001876007 -0.001848258 -0.001820618 -0.001798032 -0.001786621
 -0.00178591 -0.001798824 -0.001817727 -0.001841291 -0.00186042 -0.001872124 -0.001874331 -0.00186563 -0.001851354 -0.001831742
 -0.001812918 -0.001795213 -0.001780735 -0.001769323 -0.001759705 -0.001751437 -0.001741308 -0.001729164 -0.001712046 -0.0016917
 -0.001669788 -0.001650176 -0.00164024 -0.001641227 -0.001659257 -0.001688279 -0.001727264 -0.001765569 -0.001797064 -0.001815935
 -0.001817253 -0.001805388 -0.001779255 -0.001750316 -0.001720004 -0.001698142 -0.001686179 -0.001684728 -0.001693891 -0.001706124
 -0.001721048 -0.001731673 -0.001738412 -0.001740186 -0.001737622 -0.001732505 -0.001724792 -0.001714988 -0.001703526 -0.001690813
 -0.001678665 -0.001669229 -0.001664003 -0.001665566 -0.001672209 -0.001684588 -0.001697652 -0.001709812 -0.001716985 -0.001717266
 -0.001711737 -0.001699601 -0.001687812 -0.001676881 -0.001673511 -0.001678135 -0.001689084 -0.001705795 -0.001719565 -0.001730306
 -0.001732511 -0.001727842 -0.001719392 -0.001708828 -0.001702409 -0.001699146 -0.001700559 -0.001704294 -0.001707647 -0.001710615
 -0.001711461 -0.001713463 -0.001717743 -0.001727625 -0.00174588 -0.001768849 -0.001798131 -0.001818834 -0.001828246 -0.00181933
 -0.001789943 -0.001752558 -0.001707763 -0.001669327 -0.00163748 -0.001617888 -0.00160965 -0.001610415 -0.001618456 -0.001626
 -0.001632178 -0.001630492 -0.001622079 -0.001605788 -0.001583373 -0.001556666 -0.001526335 -0.001493144 -0.00145862 -0.00142272
 -0.001390593 -0.001363614 -0.001347995 -0.001346397 -0.001358312 -0.001385052 -0.001417807 -0.001456019 -0.001490146 -0.001519528
 -0.001541391 -0.001555917 -0.001566047 -0.001572093 -0.001577654 -0.001582445 -0.001587715 -0.001592081 -0.001593041 -0.001588619
 -0.001573347 -0.001548543 -0.001511541 -0.001470411 -0.001430442 -0.001399486 -0.00138595 -0.00138488 -0.001398034 -0.00141234
 -0.001423549 -0.001428529 -0.001424486 -0.001422941 -0.001424819 -0.001439771 -0.001468715 -0.001502706 -0.001540748 -0.001563598
 -0.001571762 -0.001558473 -0.001527289 -0.001488972 -0.00144583 -0.001410125 -0.001380236 -0.00135879 -0.001343877 -0.001333638
 -0.001328276 -0.001327762 -0.001331056 -0.001338364 -0.001345834 -0.00135153 -0.001354734 -0.001353994 -0.001354187 -0.001355989
 -0.001362982 -0.001375996 -0.001392718 -0.001413048 -0.001435109 -0.001458989 -0.001487259 -0.001519398 -0.00155375 -0.001587869
 -0.00161042 -0.001620395 -0.001607465 -0.001576493 -0.001530314 -0.001476817 -0.001427886 -0.001386462 -0.001360723 -0.001346035
 -0.001342578 -0.001343548 -0.001346058 -0.001346174 -0.001341984 -0.001332832 -0.001317749 -0.001300559 -0.001281056 -0.001268351
 -0.00126301 -0.001273427 -0.001299501 -0.001338401 -0.001388099 -0.001432261 -0.001468845 -0.001479667 -0.001466121 -0.001421356
 -0.001350809 -0.001260305 -0.001157121 -0.001051809 -0.0009527145 -0.0008696116 -0.0008115083 -0.0007872074 -0.0007995867 -0.0008551906
 -0.0009404079 -0.001055875 -0.001173932 -0.001290023 -0.001381366 -0.001443711 -0.00147436 -0.001472412 -0.001451965 -0.001413925
 -0.001376513 -0.001340048 -0.001316224 -0.001302943 -0.001298667 -0.001298631 -0.001288399 -0.001265712 -0.001216614 -0.001148803
 -0.001063874 -0.0009774484 -0.0009051698 -0.0008550521 -0.0008406059 -0.0008502341 -0.0008851064 -0.0009223382 -0.0009546145 -0.0009706154
 -0.0009641964 -0.00094888 -0.0009243475 -0.0009157616 -0.0009252945 -0.0009576487 -0.001012936</values></Ydata></AB><ScSm><Ydata ylabel="Single channel"><values byteorder="INTEL" format="FLOAT32" numvalues="1814"> 0.07312594 0.07322313 0.07333135 0.07345717 0.07359624 0.07373585 0.07386348 0.07397512 0.07407396 0.0741619
 0.07424081 0.07432313 0.07442868 0.07456423 0.07471341 0.0748494 0.07495443 0.07503381 0.07511654 0.07522993
 0.07536332 0.07546539 0.0754901 0.07544602 0.07539339 0.07539015 0.07545228 0.07557976 0.07579191 0.0760767
 0.07631678 0.07636429 0.07622601 0.07608919 0.07611546 0.07627967 0.07644583 0.07651705 0.07647361 0.07636215
 0.07631647 0.07651445 0.07701682 0.07763676 0.07799865 0.07775458 0.07681529 0.07547627 0.07434824 0.07403804
 0.07471041 0.07590528 0.07688284 0.07722037 0.07704002 0.07669349 0.0763954 0.0762188 0.07625594 0.07659987
 0.07719345 0.0777714 0.07796299 0.07753348 0.07664941 0.07585209 0.07561565 0.0759764 0.07669734 0.07755607
 0.07813931 0.07762832 0.07552193 0.07274384 0.07136028 0.0726721 0.07585314 0.07881036 0.08009069 0.07964998
 0.07824869 0.07677944 0.07603233 0.07642244 0.0777172 0.07926876 0.0805321 0.08121236 0.08112407 0.08027416
 0.0790412 0.07801802 0.07768409 0.07826686 0.07964732 0.08121859 0.08212815 0.08195068 0.0810068 0.07994343
 0.07925548 0.07926194 0.0801307 0.08168045 0.08339536 0.08480691 0.08573891 0.08620634 0.08630061 0.08617081
 0.08595028 0.08573456 0.08567926 0.08592204 0.08630648 0.08641399 0.08602953 0.08543535 0.08512771 0.08530731
 0.08570812 0.08591908 0.08579095 0.08535844 0.08442156 0.0826437 0.08023231 0.07804164 0.07673191 0.07630199
 0.07663888 0.07780439 0.07937871 0.08026339 0.07979889 0.07867328 0.07818937 0.07887523 0.08018196 0.08132739
 0.08207596 0.08275298 0.08375649 0.08509827 0.08627717 0.08658837 0.08576763 0.08444166 0.08371728 0.08412529
 0.08514566 0.08593612 0.08627741 0.08657014 0.0871156 0.08765939 0.08760132 0.08662389 0.0852215 0.0845245
 0.08535853 0.08741826 0.08942196 0.09007214 0.08897443 0.08685724 0.08496693 0.08417238 0.08462393 0.08610682
 0.08834712 0.09087581 0.09295769 0.09396419 0.09380595 0.09291899 0.09179161 0.09050842 0.08891586 0.08732789
 0.08671874 0.08780849 0.09012996 0.09239464 0.09367766 0.09393163 0.09346988 0.09234668 0.09043649 0.08807063
 0.0863214 0.08622511 0.08762886 0.08922794 0.08996031 0.08999657 0.0901436 0.09069221 0.09122649 0.09134997
 0.0912191 0.09131207 0.09184702 0.0925574 0.09302227 0.09309259 0.09294614 0.09283324 0.09283274 0.0928009
 0.09258296 0.09234272 0.09255044 0.09347701 0.09481496 0.09597778 0.09667183 0.09701239 0.09717043 0.09708502
 0.09657225 0.09569336 0.09493195 0.0948521 0.09555206 0.09659065 0.0974559 0.09794658 0.09812301 0.09811197
 0.09802081 0.09791119 0.09781551 0.09780662 0.09798276 0.09833337 0.09870511 0.09895338 0.09905919 0.09907099
 0.09900793 0.09886495 0.09867558 0.09853011 0.0985181 0.09865578 0.09888381 0.09912907 0.09933717 0.0994579
 0.09945941 0.09937012 0.09926382 0.09919238 0.09916316 0.09917776 0.09925172 0.09938368 0.09953324 0.09964885
 0.09970992 0.09972961 0.09972458 0.09970042 0.09966503 0.0996397 0.09965087 0.09971195 0.09980837 0.0999061
 0.09999116 0.1000892 0.1002194 0.1003429 0.1003964 0.1003715 0.1003257 0.1003189 0.1003655 0.1004441
 0.1005251 0.1005806 0.1005849 0.1005305 0.100454 0.1004284 0.1005079 0.1006885 0.1009286 0.1011843
 0.1014134 0.1015802 0.1016831 0.1017561 0.101828 0.1018974 0.1019545 0.1020085 0.1020893 0.1022246
 0.1024127 0.1026174 0.1027967 0.1029317 0.1030273 0.103107 0.1032095 0.1033561 0.1035115 0.1036129
 0.1036504 0.1036854 0.1037738 0.1038992 0.1039999 0.1040451 0.1040645 0.1041089 0.1041969 0.1043041
 0.1044002 0.1044835 0.1045793 0.1047037 0.1048318 0.1049076 0.1048989 0.1048359 0.1047812 0.104767
 0.1047817 0.1048109 0.1048613 0.1049369 0.1050142 0.1050578 0.1050571 0.1050373 0.1050297 0.1050359
 0.1050283 0.1049857 0.1049157 0.1048454 0.1047962 0.1047722 0.1047598 0.1047371 0.1046887 0.1046141
 0.1045248 0.1044325 0.1043419 0.1042567 0.1041931 0.1041758 0.1042028 0.104219 0.1041494 0.1039711
 0.1037402 0.103539 0.1034047 0.1033122 0.1032116 0.1030723 0.1028989 0.1027167 0.1025476 0.1023971
 0.102257 0.1021193 0.10199 0.1018893 0.1018308 0.1017938 0.1017282 0.1016008 0.1014293 0.1012611
 0.1011277 0.1010286 0.1009499 0.1008795 0.1008124 0.1007546 0.1007159 0.1006918 0.1006607 0.1006096
 0.1005516 0.1005139 0.1005168 0.1005656 0.1006431 0.1007095 0.1007309 0.1007144 0.1007034 0.1007307
 0.1007919 0.1008645 0.1009399 0.1010248 0.1011245 0.1012372 0.101363 0.1015062 0.1016694 0.1018476
 0.1020295 0.1022037 0.1023665 0.1025278 0.102706 0.1029122 0.1031399 0.1033702 0.103589 0.1037967
 0.1040033 0.1042154 0.1044304 0.1046453 0.1048662 0.1051032 0.1053562 0.1056144 0.1058701 0.1061268
 0.1063921 0.1066686 0.1069535 0.1072478 0.1075625 0.1079089 0.1082781 0.1086362 0.1089515 0.1092284
 0.1095049 0.1098198 0.110184 0.110579 0.1109712 0.1113357 0.1116783 0.11203 0.1124137 0.1128202
 0.1132281 0.1136417 0.1140927 0.1145991 0.1151304 0.1156233 0.1160373 0.1163899 0.1167328 0.1170951
 0.1174583 0.1177889 0.1180823 0.118362 0.1186455 0.1189292 0.1192088 0.1194939 0.1197894 0.1200769
 0.1203307 0.1205457 0.1207374 0.1209174 0.1210789 0.1212044 0.1212811 0.1213149 0.1213314 0.121355
 0.1213826 0.1213874 0.1213533 0.1212947 0.1212409 0.1212134 0.1212278 0.1213018 0.1214469 0.1216547
 0.1219115 0.1222242 0.1226135 0.1230696 0.123536 0.1239567 0.1243289 0.1246897 0.1250615 0.1254391
 0.1258211 0.126224 0.1266568 0.1271034 0.1275359 0.1279407 0.1283283 0.1287243 0.129142 0.1295589
 0.1299298 0.1302308 0.1304837 0.130735 0.1310184 0.131339 0.1316808 0.1320225 0.1323487 0.1326493
 0.1329098 0.1331122 0.1332556 0.1333639 0.1334603 0.1335342 0.133545 0.1334563 0.1332545 0.1329369
 0.1324966 0.1319311 0.1312638 0.1305571 0.1299016 0.1293917 0.1291015 0.1290713 0.1293043 0.1297648
 0.1303797 0.1310527 0.1316862 0.1321943 0.1325022 0.1325525 0.132326 0.1318539 0.1312004 0.1304332
 0.129608 0.1287675 0.1279464 0.1271867 0.1265665 0.1262072 0.126241 0.1267602 0.1277821 0.129233
 0.1309486 0.1327125 0.1343374 0.1357349 0.136916 0.1379347 0.1388406 0.1396698 0.140451 0.1412008
 0.1419176 0.1425905 0.1432151 0.1437939 0.1443262 0.1448013 0.1452027 0.145516 0.1457367 0.1458751
 0.1459511 0.1459807 0.1459732 0.1459411 0.1458972 0.1458331 0.1457072 0.1454678 0.1450882 0.1445873
 0.144033 0.1435468 0.1432979 0.1434626 0.1441457 0.1453125 0.1467939 0.1483691 0.1498571 0.1511509
 0.152205 0.1530236 0.1536551 0.1541691 0.1546228 0.1550465 0.1554511 0.1558396 0.1562131 0.1565749
 0.1569317 0.1572904 0.1576571 0.1580353 0.1584241 0.1588195 0.1592205 0.1596331 0.1600643 0.1605142
 0.1609704 0.1614136 0.1618322 0.1622318 0.1626235 0.1630065 0.1633691 0.1637087 0.1640377 0.1643712
 0.1647159 0.1650704 0.1654256 0.1657659 0.1660801 0.1663728 0.1666599 0.166952 0.1672476 0.1675412
 0.1678315 0.1681198 0.1684067 0.1686926 0.1689794 0.1692672 0.1695491 0.1698155 0.1700647 0.1703067
 0.1705539 0.17081 0.1710698 0.1713268 0.1715788 0.1718295 0.1720867 0.1723552 0.1726303 0.1728995
 0.1731546 0.173398 0.1736378 0.1738795 0.1741244 0.1743723 0.1746233 0.1748767 0.1751307 0.1753839
 0.1756362 0.175887 0.1761345 0.1763784 0.1766212 0.176866 0.1771137 0.1773633 0.177614 0.1778655
 0.1781176 0.1783691 0.1786173 0.1788595 0.1790953 0.1793265 0.179555 0.1797839 0.1800167 0.1802548
 0.1804968 0.1807408 0.1809857 0.1812302 0.1814727 0.1817129 0.1819525 0.1821936 0.182438 0.182684
 0.182928 0.1831687 0.1834098 0.1836543 0.1839004 0.1841443 0.1843851 0.1846244 0.1848644 0.1851061
 0.1853478 0.1855857 0.1858187 0.1860503 0.1862845 0.1865236 0.1867657 0.1870062 0.1872406 0.1874697
 0.1876991 0.1879332 0.1881734 0.1884168 0.1886576 0.1888911 0.1891206 0.1893527 0.1895896 0.1898287
 0.1900672 0.1903044 0.1905403 0.190778 0.1910208 0.1912679 0.1915135 0.1917529 0.1919857 0.1922163
 0.1924515 0.1926939 0.192939 0.1931814 0.1934207 0.1936582 0.1938944 0.1941314 0.1943722 0.1946167
 0.1948632 0.1951118 0.1953623 0.1956131 0.1958646 0.1961184 0.1963752 0.1966347 0.1968969 0.1971591
 0.1974176 0.1976717 0.1979219 0.1981662 0.1984028 0.1986337 0.198861 0.1990864 0.1993116 0.1995366
 0.1997594 0.1999811 0.2002056 0.2004326 0.2006596 0.2008885 0.2011231 0.2013627 0.2016072 0.2018587
 0.2021159 0.202374 0.2026318 0.2028893 0.2031442 0.2033971 0.2036514 0.2039058 0.204157 0.204408
 0.2046647 0.2049268 0.2051916 0.2054588 0.2057264 0.2059919 0.2062581 0.2065278 0.2067984 0.207068
 0.2073371 0.2076038 0.2078667 0.2081306 0.2083997 0.2086725 0.2089484 0.2092282 0.2095058 0.2097755
 0.2100408 0.2103049 0.2105661 0.2108287 0.2111014 0.2113825 0.2116639 0.2119442 0.212222 0.2124912
 0.2127544 0.213021 0.2132914 0.2135606 0.2138312 0.2141039 0.2143714 0.2146316 0.2148883 0.2151318
 0.2153293 0.215391 0.215071 0.2138501 0.2108883 0.2051308 0.1956559 0.1821777 0.1653491 0.146581
 0.1275155 0.1095298 0.09350459 0.07986951 0.06877894 0.06023999 0.05417846 0.05053329 0.04935932 0.05094072
 0.05593247 0.06501013 0.07742336 0.08961287 0.09645759 0.09519918 0.08801753 0.08005214 0.0751133 0.07371244
 0.07442127 0.0758988 0.07766111 0.07989684 0.08299665 0.08707189 0.09189725 0.09739898 0.1039445 0.1118661
 0.1208234 0.1299177 0.1384619 0.1464998 0.1545379 0.1628761 0.1712703 0.1791756 0.1861815 0.1922072
 0.1974152 0.2020392 0.2062618 0.2101859 0.2138724 0.217342 0.2204993 0.223095 0.2248497 0.2256664
 0.225741 0.2254606 0.2251799 0.2250738 0.2251659 0.2254325 0.2258536 0.2264075 0.2270715 0.2278244
 0.2286378 0.2294779 0.2303195 0.2311445 0.2319347 0.2326786 0.2333751 0.234022 0.2346146 0.2351564
 0.2356576 0.2361268 0.2365712 0.2369982 0.2374099 0.2378061 0.2381912 0.2385663 0.2389221 0.2392497
 0.2395498 0.2398272 0.2400871 0.2403381 0.2405885 0.2408399 0.2410919 0.2413462 0.2416014 0.2418542
 0.2421039 0.2423503 0.2425917 0.24283 0.2430695 0.2433086 0.2435427 0.2437732 0.2440059 0.2442428
 0.2444829 0.2447255 0.2449673 0.2452045 0.2454378 0.2456707 0.2459065 0.2461506 0.2464072 0.2466718
 0.2469369 0.2472022 0.2474723 0.2477469 0.2480237 0.2483035 0.2485871 0.2488723 0.2491558 0.2494337
 0.249699 0.2499443 0.2501679 0.2503769 0.2505859 0.2508088 0.2510476 0.2512923 0.2515351 0.2517763
 0.2520181 0.2522596 0.2524998 0.2527378 0.2529747 0.253218 0.2534788 0.2537581 0.2540448 0.2543305
 0.2546155 0.2549023 0.2551897 0.2554767 0.2557632 0.2560467 0.2563243 0.2565985 0.2568805 0.2571848
 0.2575147 0.2578513 0.2581679 0.2584568 0.2587374 0.2590368 0.2593666 0.259712 0.2600349 0.2603018
 0.2605245 0.2607621 0.2610703 0.2614494 0.2618513 0.2622278 0.2625656 0.2628809 0.2631925 0.2635017
 0.2637942 0.2640567 0.2642976 0.2645545 0.2648686 0.2652416 0.2656291 0.265987 0.2663084 0.2666082
 0.2668979 0.267183 0.2674544 0.267674 0.2678122 0.2679189 0.2681167 0.2684863 0.2689769 0.2694595
 0.2698554 0.2701848 0.2704994 0.2708143 0.2711182 0.2713866 0.2715501 0.2715289 0.2713779 0.271338
 0.2716397 0.2722697 0.2729992 0.2736153 0.274063 0.274397 0.2746856 0.2749633 0.2752109 0.2753604
 0.2753677 0.275315 0.2753978 0.2757486 0.2762895 0.2768166 0.2772145 0.2775199 0.2778103 0.2781138
 0.2783954 0.2785362 0.2783837 0.2779611 0.2776116 0.2777759 0.2785653 0.2796345 0.2805259 0.2810762
 0.2814208 0.2816765 0.2817693 0.281574 0.2810698 0.2803497 0.2796627 0.2794521 0.2800667 0.2813151
 0.2825434 0.2832905 0.2836834 0.2841078 0.2847039 0.2853076 0.285721 0.2858909 0.2858716 0.2857042
 0.2853987 0.2850736 0.2850338 0.2855514 0.2865487 0.2876209 0.2884175 0.2889169 0.2892615 0.2893471
 0.2887181 0.2871059 0.2851351 0.2841673 0.2850925 0.2873932 0.2897044 0.2911636 0.291885 0.2923226
 0.2926778 0.2928419 0.2923869 0.2907066 0.2878396 0.2851912 0.2846831 0.2868583 0.2902712 0.2928905
 0.2936541 0.2926827 0.2907581 0.2889604 0.2882903 0.2891288 0.2910734 0.293348 0.2952698 0.2964419
 0.2967787 0.2964641 0.2958742 0.2954812 0.2955549 0.295756 0.2953498 0.294166 0.2929356 0.292168
 0.2912155 0.2893255 0.2873061 0.2870221 0.2890889 0.2919883 0.2938375 0.2943211 0.2943418 0.2941949
 0.2928353 0.2892509 0.2843314 0.2808361 0.2810352 0.2844509 0.2883324 0.2903556 0.2904605 0.2900754
 0.2901011 0.2899498 0.2884187 0.2854013 0.2825562 0.2818226 0.283242 0.2848907 0.285008 0.2832233
 0.2796201 0.274304 0.2688835 0.2667706 0.270169 0.2773377 0.2841304 0.2875732 0.2867969 0.2818063
 0.2737886 0.2664016 0.2641326 0.2681612 0.2749864 0.2798179 0.2803527 0.2768756 0.2703138 0.2618344
 0.2538554 0.2497459 0.2516885 0.2589299 0.2679013 0.2737467 0.2728133 0.2655907 0.2574412 0.254552
 0.2581163 0.2635495 0.2658834 0.2644398 0.2617863 0.2602332 0.2605617 0.2624751 0.2649335 0.2669655
 0.2684103 0.2685439 0.2647082 0.2552469 0.2438706 0.2376916 0.2398926 0.2471556 0.2550549 0.2625135
 0.2693638 0.2731511 0.2717512 0.2675916 0.2661105 0.2699494 0.2764409 0.2810239 0.2818763 0.2806532
 0.2794673 0.2783654 0.2763839 0.2742768 0.2745439 0.2783249 0.2836172 0.2874464 0.2888463 0.2888651
 0.2885772 0.2881774 0.2875261 0.2865925 0.2854165 0.2841237 0.2829193 0.2818623 0.2808224 0.2797448
 0.2785751 0.2766614 0.2728104 0.2668417 0.2609168 0.2580509 0.2589464 0.2615437 0.2639648 0.2658708
 0.2660177 0.2612424 0.2505961 0.2390558 0.2341087 0.2385278 0.2481708 0.2566378 0.2603269 0.258879
 0.2530213 0.2442283 0.2362441 0.2344342 0.2416629 0.2553096 0.2696267 0.2806054 0.287522 0.290725
 0.2900833 0.2860951 0.2811682 0.2786797 0.2806556 0.2864326 0.2931654 0.2971604 0.2954865 0.2883856
 0.2808711 0.2797035 0.2866923 0.2962863 0.3016908 0.3019828 0.3011349 0.301717 0.3026899 0.3028761
 0.3034159 0.3058329 0.3095221 0.3122506 0.3121594 0.3085468 0.3018594 0.2942348 0.2891631 0.2887268
 0.2913016 0.2934189 0.293322 0.2909994 0.2860065 0.2784204 0.2715822 0.2703128 0.2754504 0.2826115
 0.2872086 0.2887388 0.2893682 0.2900355 0.2893332 0.2858319 0.2805693 0.276605 0.2759995 0.2778515
 0.2797727 0.2804775 0.2799879 0.2781362 0.274566 0.2703253 0.2680051 0.2694302 0.27369 0.2780162
 0.2803529 0.2806811 0.2802311 0.2801489 0.2809094 0.282335 0.2839616 0.2857296 0.2882285 0.2917911
 0.2955617 0.2981887 0.2994443 0.3004845 0.302372 0.3048638 0.3068454 0.3075955 0.307431 0.3073222
 0.3080326 0.3094995 0.3108956 0.3113578 0.3108397 0.3102672 0.3107068 0.3123518 0.3144472 0.3161552
 0.3172532 0.3180177 0.3187524 0.3195258 0.3201377 0.320285 0.3199624 0.3197081 0.320205 0.3215741
 0.323235 0.3244976 0.3251271 0.3253106 0.3252679 0.3250399 0.3245952 0.3240046 0.3234529 0.3231
 0.3229685 0.3229679 0.3229943 0.3229915 0.3229561 0.3229245 0.3229444 0.3230355 0.3231806 0.323357
 0.3235509 0.3237377 0.3238826 0.3239817 0.3240696 0.3241629 0.3242184 0.3241636 0.3239444 0.3235252
 0.3228633 0.3219114 0.3206343 0.3190001 0.3169795 0.3146383 0.3122998 0.3105801 0.3101338 0.3112398
 0.3135817 0.3164279 0.3190478 0.3210276 0.3223104 0.3230439 0.323415 0.3235653 0.3235748 0.3234752
 0.323278 0.3229987 0.3226629 0.322296 0.3219203 0.3215584 0.3212285 0.3209349 0.3206609 0.320373
 0.3200343 0.3196202 0.319127 0.3185652 0.3179464 0.3172694 0.3165124 0.315645 0.3146629 0.3136109
 0.3125655 0.3115864 0.3106812 0.3098091 0.3089173 0.3079636 0.3069002 0.3056619 0.3042284 0.3027161
 0.3013513 0.3002936 0.2994934 0.2987517 0.2978958 0.2968704 0.2957 0.294427 0.2930943 0.2917363
 0.2903627 0.288955 0.2874812 0.2859132 0.2842383 0.282464 0.2806094 0.2786914 0.2767252 0.2747258
 0.2726861 0.2705407 0.2681595 0.2653809 0.2620587 0.2580951 0.2534627 0.2482218 0.242526 0.2365975
 0.2306738 0.224959 0.2196113 0.214761 0.2105279 0.2070164 0.2043031 0.2024302 0.2014142 0.2012578
 0.2019516 0.2034643 0.2057298 0.2086387 0.2120361 0.2157288 0.2195029 0.2231563 0.2265471 0.229637
 0.2324813 0.2351528 0.2376669 0.2399806 0.2420493 0.2438629 0.2454317 0.2467622 0.2478579 0.248737
 0.249443 0.2500335 0.2505566 0.2510296 0.2514402 0.2517694 0.2520159 0.2522027 0.2523643 0.2525324
 0.2527271 0.2529548 0.2532146 0.2535104 0.2538609 0.2542925 0.2548224 0.2554446 0.2561316 0.2568519
 0.2575915 0.258367 0.2592174 0.2601884 0.261317 0.2626226 0.2641015 0.2657194 0.2674043 0.26905
 0.2705405 0.2717847 0.2727389 0.2734029 0.2737979 0.2739466 0.2738724 0.2736073 0.2731904 0.272653
 0.272013 0.271287 0.2704965 0.269657 0.2687663 0.267817 0.2668177 0.2658014 0.2648039 0.2638385
 0.2628974 0.2619765 0.2610847 0.2602295 0.2594054 0.2586029 0.257817 0.2570491 0.2563069 0.2555999
 0.2549263 0.2542625 0.253567 0.2527895 0.2518847 0.2508261 0.2496085 0.2482364 0.2467202 0.2450783
 0.2433303 0.2414867 0.2395511 0.2375262 0.235415 0.23322 0.23094 0.2285694 0.2261193 0.2236473
 0.2212468 0.2189964 0.216926 0.2150235 0.2132549 0.2115829 0.2099844 0.2084512 0.2069792 0.2055666
 0.2042174 0.2029327 0.2017093 0.2005523 0.1994774 0.1984975 0.1976201 0.1968535 0.1961993 0.1956479
 0.1951866 0.1948023 0.1944885 0.1942661 0.1941779 0.1942318 0.1943617 0.1944676 0.1944844 0.1944124
 0.1943002 0.1942031 0.1941459 0.1941253 0.1941275 0.1941117 0.1939887 0.193649 0.1930023 0.1919826
 0.1905514 0.1887265 0.1865941 0.1842918 0.1819916 0.1798682 0.1780451 0.1765737 0.1754535 0.1746373
 0.1740336 0.1735605 0.1732071 0.1730325 0.1731085 0.1734394 0.1738963 0.1742704 0.1744586 0.174579
 0.1748623 0.1754534 0.1763297 0.1773496 0.178351 0.1792324 0.1799617 0.180532 0.180949 0.1812439
 0.1814429 0.181534 0.1814996 0.1813477 0.1810881 0.180723 0.1802675 0.1797312 0.1790993 0.1783663
 0.1775503 0.1766512 0.1756485 0.1745346 0.1732902 0.1718756 0.1703389 0.1689032 0.1678803 0.1675044
 0.1678191 0.1686596 0.1697708 0.1709836 0.1722043 0.1732351 0.1738272 0.174051 0.1744716 0.1757489
 0.178028 0.1807825 0.1832693 0.1850621 0.1861169 0.1864901 0.1862052 0.1853154 0.1838662 0.1818273
 0.1792071 0.1761503 0.1728356 0.1694216 0.1661139 0.1631065 0.160487 0.1583059 0.1566133 0.1554565
 0.1549534 0.1547075 0.1525993 0.1457122 0.1346277 0.1257605 0.1262041 0.1358927 0.1474063 0.1538553
 0.1545666 0.1528604 0.1512493 0.1501948 0.1495744 0.1495211 0.1501674 0.1513702 0.1527333 0.1538321
 0.1544861 0.1547277 0.1544533 0.1531646 0.1499845 0.1439635 0.1347739 0.1233741 0.1117917 0.1020321
 0.09514207 0.09105642 0.08895587 0.0878011 0.08691791 0.08631125 0.08643052 0.08765495 0.09002042 0.09332342
 0.09730169 0.1016307 0.1058563 0.1095257 0.112433 0.1146401 0.1162579 0.1173229 0.1178664 0.1179628
 0.1176915 0.1171262 0.1163447 0.1153842 0.1142139 0.1128052 0.1112341 0.1097134 0.108502 0.1077366
 0.1073478 0.1071692 0.1070943 0.1070969 0.1071642 0.1072795 0.1074344 0.1076257 0.1078604 0.108155
 0.1084965 0.1088247 0.1090819 0.109257 0.1093661 0.1094082 0.1093397 0.1091023 0.1087109 0.1082796
 0.1078702 0.1073385 0.1064535 0.1051965 0.1038751 0.1029264 0.102622 0.1029085 0.1034694 0.1039556
 0.1042044 0.1042723 0.1042841 0.1042613</values></Ydata></ScSm><ScRf><Ydata ylabel="Single channel"><values byteorder="INTEL" format="FLOAT32" numvalues="1820"> 0.07059942 0.07072843 0.0708432 0.07094578 0.07104184 0.07113987 0.07124887 0.07137271 0.0715073 0.07164238
 0.07176758 0.07187943 0.07197982 0.07206835 0.07214482 0.07222195 0.07232247 0.07245591 0.07260568 0.07274248
 0.07284727 0.07292628 0.07300887 0.07312068 0.07324961 0.07334562 0.07336555 0.07331929 0.07326575 0.07326122
 0.0733217 0.07344793 0.07365869 0.07394147 0.07418139 0.07423405 0.07410491 0.07397506 0.07400127 0.07415899
 0.07431649 0.07438183 0.07433901 0.07423463 0.07419671 0.07439546 0.07488836 0.07549288 0.07584348 0.07560328
 0.07468796 0.07338615 0.0722912 0.07199238 0.07264932 0.07381347 0.07476391 0.0750894 0.07491124 0.07457484
 0.07428978 0.07412474 0.07416666 0.07450571 0.07508656 0.0756494 0.07583219 0.0754094 0.07454753 0.07377331
 0.07354461 0.07389615 0.07460067 0.07544234 0.07601406 0.07551534 0.07346164 0.07075845 0.06941862 0.07070435
 0.07380643 0.07668512 0.07792635 0.07748987 0.07612016 0.07468935 0.07396621 0.07435186 0.07561731 0.07713106
 0.07836226 0.07902271 0.07893117 0.0780964 0.07689208 0.07589984 0.07558598 0.07616611 0.07751804 0.079049
 0.07993181 0.07975627 0.07883646 0.07780206 0.07713431 0.07714314 0.07799101 0.07950038 0.0811694 0.08254368
 0.08345279 0.08391038 0.0840035 0.08387656 0.08366039 0.08344927 0.08339532 0.08363304 0.08401102 0.0841219
 0.08375449 0.08318066 0.0828823 0.08305657 0.08344648 0.08365063 0.08352026 0.08308913 0.08216882 0.08043897
 0.07810228 0.07598361 0.07471838 0.0743039 0.0746337 0.07577157 0.07730895 0.07817417 0.0777236 0.07662776
 0.07615654 0.07682461 0.07809736 0.07921343 0.07994368 0.08060412 0.08158132 0.08288619 0.08403128 0.08433183
 0.0835326 0.08224449 0.08154336 0.08194378 0.08293951 0.08371256 0.08405034 0.08434174 0.08487818 0.08541094
 0.08535515 0.08440152 0.08303206 0.08234935 0.08315989 0.08516766 0.08712289 0.08775899 0.08669117 0.08463141
 0.08279589 0.08202916 0.08247337 0.08391783 0.08609878 0.08856374 0.0905973 0.09158421 0.09143448 0.09057249
 0.08947475 0.08822404 0.08667134 0.08512454 0.08453496 0.08560379 0.08787274 0.09008366 0.09133564 0.09158489
 0.09113792 0.09004632 0.08818617 0.08588062 0.08417592 0.08408189 0.08544865 0.08700511 0.08771856 0.08775727
 0.08790684 0.08844735 0.0889707 0.08909121 0.08896472 0.08905911 0.08958502 0.09028026 0.09073541 0.09080834
 0.09067373 0.09057313 0.09057926 0.09054995 0.09033623 0.09010191 0.09030774 0.09121668 0.09252661 0.09366479
 0.0943445 0.09467767 0.09483184 0.09475036 0.09425536 0.09340417 0.09266488 0.09258675 0.09326698 0.09427662
 0.09511776 0.09559657 0.09577339 0.09577034 0.09568838 0.09558451 0.09548938 0.09547578 0.09564357 0.09598663
 0.09635645 0.09660953 0.09672417 0.09674554 0.0966915 0.0965565 0.09637345 0.09623162 0.09622015 0.09635702
 0.09658609 0.09683514 0.09704669 0.09716726 0.09716618 0.09707712 0.0969779 0.09691897 0.09690149 0.09692085
 0.09699088 0.0971145 0.09725766 0.09737265 0.09743879 0.09746662 0.09746949 0.09744996 0.09741507 0.09738867
 0.0974005 0.09746456 0.09756437 0.09766498 0.09775286 0.09785333 0.09798434 0.09810788 0.09816398 0.09814608
 0.09810973 0.09811099 0.09816224 0.0982421 0.09832153 0.09837393 0.09837701 0.09832678 0.0982596 0.09824431
 0.09833211 0.09851862 0.09876211 0.09901714 0.09924123 0.09940241 0.09950437 0.09958346 0.09966625 0.0997463
 0.09980878 0.09986158 0.09993739 0.1000693 0.1002589 0.1004689 0.1006533 0.1007914 0.1008895 0.1009736
 0.1010819 0.1012346 0.1013965 0.1015055 0.1015518 0.1015963 0.1016948 0.101832 0.1019463 0.102004
 0.1020297 0.1020717 0.1021521 0.1022546 0.1023546 0.1024503 0.1025614 0.1026984 0.1028343 0.1029159
 0.1029148 0.1028637 0.1028252 0.1028285 0.1028579 0.1028977 0.1029571 0.1030424 0.1031298 0.103182
 0.1031893 0.1031798 0.1031865 0.10321 0.1032204 0.1031942 0.1031389 0.1030833 0.1030503 0.1030422
 0.1030437 0.1030352 0.1030054 0.1029556 0.1028944 0.1028287 0.10276 0.1026921 0.1026437 0.1026426
 0.1026894 0.1027312 0.1026944 0.1025525 0.1023549 0.1021796 0.1020662 0.1019944 0.1019166 0.1018025
 0.1016571 0.1015066 0.1013727 0.1012591 0.1011555 0.1010523 0.1009546 0.1008835 0.1008545 0.1008494
 0.1008202 0.100732 0.1005984 0.100465 0.1003641 0.1002981 0.1002537 0.1002193 0.1001912 0.1001762
 0.100183 0.1002045 0.100218 0.1002098 0.1001933 0.1001964 0.1002402 0.1003299 0.1004473 0.100552
 0.1006104 0.100631 0.1006577 0.1007239 0.1008258 0.1009428 0.1010659 0.1011986 0.1013426 0.1014957
 0.1016592 0.1018396 0.102041 0.1022597 0.1024853 0.1027052 0.1029144 0.1031224 0.1033485 0.1036052
 0.1038854 0.1041691 0.1044411 0.1047028 0.1049668 0.1052408 0.1055209 0.1058018 0.1060879 0.1063885
 0.1067038 0.1070231 0.1073379 0.1076491 0.1079632 0.1082835 0.1086081 0.1089366 0.1092771 0.1096403
 0.1100189 0.11038 0.1106923 0.1109597 0.11122 0.1115106 0.1118402 0.1121879 0.1125189 0.1128096
 0.1130684 0.1133292 0.1136165 0.1139207 0.1142194 0.1145156 0.1148394 0.1152082 0.1155943 0.1159409
 0.1162121 0.1164258 0.1166329 0.1168655 0.1171111 0.1173415 0.1175532 0.1177663 0.1179922 0.1182226
 0.1184533 0.118699 0.1189718 0.1192566 0.1195229 0.1197563 0.1199664 0.1201669 0.1203558 0.1205159
 0.1206323 0.1207128 0.1207918 0.1209038 0.1210511 0.1212071 0.1213521 0.1214927 0.1216455 0.1218167
 0.1220081 0.1222269 0.122475 0.1227354 0.1229878 0.1232385 0.1235138 0.1238168 0.1241069 0.1243411
 0.1245238 0.1246956 0.1248844 0.1250901 0.1253119 0.1255625 0.1258488 0.1261552 0.1264566 0.126739
 0.1270108 0.1272949 0.1276042 0.1279191 0.1281976 0.1284154 0.1285898 0.1287632 0.1289691 0.129215
 0.1294869 0.129764 0.1300305 0.130275 0.130481 0.1306306 0.1307244 0.1307869 0.1308394 0.1308699
 0.1308399 0.1307162 0.1304866 0.1301465 0.1296865 0.1291015 0.1284146 0.1276894 0.1270192 0.1264983
 0.1261954 0.1261439 0.1263451 0.1267666 0.1273395 0.1279685 0.1285569 0.1290219 0.1292948 0.1293234
 0.1290899 0.1286227 0.1279807 0.1272277 0.1264196 0.1256017 0.1248097 0.1240842 0.1235005 0.1231778
 0.123245 0.1237877 0.1248142 0.126243 0.1279069 0.1295942 0.13113 0.132442 0.1335545 0.1345266
 0.1354032 0.1362122 0.1369762 0.1377105 0.1384147 0.1390794 0.139701 0.1402825 0.1408228 0.1413111
 0.1417302 0.1420629 0.1423009 0.1424529 0.1425421 0.1425902 0.1426097 0.1426105 0.1425992 0.1425624
 0.1424587 0.1422409 0.1418885 0.141424 0.1409175 0.1404899 0.140304 0.1405192 0.14122 0.1423629
 0.1437887 0.1452967 0.1467217 0.1479629 0.1489766 0.1497676 0.1503824 0.1508854 0.1513278 0.1517375
 0.1521276 0.1525038 0.1528662 0.1532131 0.1535476 0.1538785 0.1542148 0.1545593 0.1549048 0.1552401
 0.1555617 0.1558792 0.1562087 0.1565585 0.1569205 0.1572768 0.1576176 0.1579517 0.1582931 0.1586406
 0.1589786 0.159298 0.1596065 0.1599198 0.1602493 0.1605956 0.1609472 0.1612848 0.1615953 0.1618832
 0.1621639 0.1624472 0.1627329 0.1630177 0.1633018 0.1635863 0.1638696 0.1641502 0.1644304 0.1647124
 0.164993 0.165264 0.1655215 0.165772 0.1660254 0.1662849 0.1665437 0.1667938 0.1670359 0.1672809
 0.1675409 0.167817 0.1680968 0.1683652 0.1686168 0.1688572 0.1690958 0.1693382 0.1695853 0.1698363
 0.1700892 0.1703411 0.1705894 0.1708349 0.171082 0.1713341 0.1715891 0.1718424 0.1720916 0.1723386
 0.172586 0.1728352 0.1730857 0.1733372 0.1735907 0.1738469 0.1741024 0.1743511 0.1745893 0.1748169
 0.1750379 0.1752598 0.17549 0.17573 0.1759742 0.1762164 0.1764553 0.1766931 0.1769331 0.1771764
 0.1774205 0.1776609 0.1778971 0.1781344 0.178378 0.178628 0.1788802 0.1791294 0.1793727 0.1796111
 0.1798469 0.1800814 0.1803151 0.1805502 0.1807877 0.181026 0.1812623 0.1814954 0.1817271 0.1819617
 0.1822026 0.1824475 0.1826898 0.1829258 0.1831568 0.1833854 0.1836131 0.1838427 0.184076 0.1843124
 0.1845501 0.1847877 0.1850235 0.1852574 0.1854912 0.1857267 0.1859646 0.1862069 0.186453 0.1866969
 0.1869325 0.1871617 0.187392 0.1876285 0.1878706 0.1881135 0.1883523 0.1885878 0.1888245 0.1890653
 0.1893087 0.1895533 0.1897988 0.1900445 0.1902912 0.19054 0.1907889 0.1910353 0.1912815 0.1915318
 0.1917857 0.1920412 0.1922998 0.192563 0.1928284 0.1930918 0.1933491 0.1935968 0.1938356 0.1940692
 0.194299 0.194524 0.194746 0.1949681 0.1951903 0.1954131 0.1956393 0.1958695 0.1961021 0.1963374
 0.1965755 0.196814 0.1970533 0.1972979 0.1975485 0.1978012 0.1980551 0.1983113 0.1985682 0.1988243
 0.1990792 0.1993308 0.1995801 0.1998347 0.2000988 0.200367 0.2006334 0.2008985 0.2011626 0.2014249
 0.2016889 0.2019569 0.2022255 0.2024929 0.2027605 0.2030264 0.2032876 0.2035496 0.2038175 0.2040887
 0.2043601 0.2046328 0.2049054 0.205176 0.205447 0.2057173 0.2059813 0.2062417 0.2065091 0.2067862
 0.2070686 0.2073551 0.2076422 0.2079226 0.2081966 0.208469 0.2087368 0.2089975 0.2092599 0.2095281
 0.2097933 0.210052 0.2103078 0.2105508 0.2107479 0.2108113 0.2105018 0.2093131 0.2064233 0.2007991
 0.1915359 0.1783508 0.1618815 0.14351 0.1248467 0.1072425 0.09155935 0.0782156 0.06736047 0.05900181
 0.05306888 0.04950228 0.04835537 0.04990717 0.05480016 0.0636947 0.07585263 0.08778645 0.09448323 0.0932461
 0.08621205 0.07841283 0.0735784 0.07221121 0.07291499 0.07437517 0.07611295 0.0783094 0.08134807 0.08534139
 0.0900705 0.09546231 0.1018754 0.1096357 0.1184117 0.1273241 0.1357001 0.1435819 0.1514652 0.1596421
 0.1678721 0.1756204 0.1824846 0.1883845 0.1934797 0.1980033 0.2021389 0.2059888 0.2096105 0.213023
 0.2161331 0.218695 0.2204291 0.2212346 0.2213032 0.2210205 0.2207418 0.2206419 0.2207406 0.2210095
 0.2214268 0.2219743 0.2226341 0.2233857 0.2241968 0.2250302 0.2258616 0.2266768 0.227459 0.2281947
 0.2288811 0.2295172 0.2301021 0.2306425 0.2311466 0.2316162 0.2320529 0.2324654 0.2328619 0.2332467
 0.2336248 0.233997 0.2343537 0.2346847 0.2349892 0.2352724 0.2355408 0.2358026 0.2360624 0.2363178
 0.236567 0.2368137 0.2370612 0.2373098 0.2375608 0.2378154 0.2380719 0.2383265 0.2385755 0.2388147
 0.2390449 0.2392746 0.2395107 0.2397522 0.239996 0.2402418 0.2404874 0.2407295 0.2409671 0.2412019
 0.2414376 0.2416815 0.2419387 0.2422041 0.24247 0.2427378 0.2430121 0.2432904 0.2435673 0.2438436
 0.2441218 0.2444011 0.2446801 0.2449569 0.2452249 0.2454752 0.2457041 0.2459189 0.2461346 0.2463635
 0.2466045 0.2468473 0.2470868 0.2473271 0.2475721 0.2478199 0.248067 0.248311 0.248553 0.2488017
 0.2490689 0.2493545 0.2496457 0.2499328 0.2502179 0.2505067 0.2508016 0.2511025 0.2514051 0.2516999
 0.2519793 0.2522478 0.2525236 0.2528275 0.2531631 0.2535077 0.2538306 0.2541241 0.2544095 0.254715
 0.2550519 0.2554033 0.2557299 0.255999 0.2562248 0.2564679 0.2567819 0.2571646 0.257569 0.2579519
 0.2583034 0.2586354 0.2589573 0.2592663 0.259553 0.2598126 0.2600563 0.2603173 0.2606314 0.2609995
 0.261381 0.2617353 0.2620561 0.2623574 0.26265 0.2629397 0.263217 0.2634423 0.2635853 0.2636954
 0.2638944 0.2642616 0.2647471 0.2652245 0.2656166 0.2659428 0.2662523 0.2665604 0.2668581 0.2671236
 0.2672894 0.2672755 0.2671332 0.2670973 0.2673934 0.2680078 0.2687172 0.2693167 0.2697552 0.2700856
 0.2703723 0.2706491 0.2708991 0.271055 0.2710711 0.2710266 0.2711143 0.2714651 0.2720011 0.272522
 0.2729152 0.2732186 0.27351 0.2738174 0.2741057 0.2742562 0.2741161 0.2737068 0.2733657 0.2735276
 0.274304 0.2753575 0.2762398 0.2767898 0.2771379 0.2773954 0.2774892 0.2773 0.2768112 0.2761142
 0.2754509 0.2752549 0.2758681 0.2771026 0.2783163 0.2790571 0.2794516 0.2798801 0.2804812 0.2810923
 0.2815143 0.2816921 0.2816801 0.2815222 0.2812296 0.2809179 0.2808871 0.2814076 0.282404 0.2834756
 0.2842743 0.284778 0.2851277 0.2852213 0.2846109 0.2830344 0.2811092 0.2801742 0.2811005 0.2833761
 0.285661 0.2871119 0.287843 0.2882978 0.2886704 0.2888508 0.2884153 0.2867669 0.2839483 0.2813495
 0.2808653 0.2830301 0.2864205 0.2890326 0.2898106 0.2888652 0.2869704 0.2852037 0.2845597 0.2854127
 0.2873608 0.2896344 0.2915559 0.2927295 0.2930736 0.2927767 0.2922137 0.2918475 0.2919399 0.2921565
 0.2917751 0.2906277 0.289433 0.2886914 0.2877626 0.2859053 0.2839219 0.2836588 0.2857238 0.288613
 0.2904616 0.290956 0.2909878 0.2908482 0.289505 0.285959 0.2810903 0.2776267 0.2778155 0.2811861
 0.2850161 0.2870036 0.2870902 0.2866938 0.2867085 0.2865508 0.2850261 0.2820273 0.2791975 0.2784589
 0.279855 0.2814845 0.2816069 0.2798546 0.2763042 0.2710532 0.2656895 0.2635865 0.2669228 0.2739785
 0.2806602 0.2840351 0.2832467 0.2783002 0.2703696 0.2630695 0.2608272 0.2647983 0.27152 0.276268
 0.2767795 0.2733402 0.2668611 0.2584901 0.2506165 0.2465689 0.2484978 0.2556512 0.2645029 0.2702653
 0.2693411 0.2622176 0.2541851 0.2513448 0.2548696 0.2602345 0.2625384 0.261114 0.2584973 0.2569705
 0.257306 0.2592081 0.261645 0.2636566 0.2650894 0.2652324 0.2614587 0.2521278 0.2409022 0.2348056
 0.2369809 0.2441519 0.2519509 0.2593173 0.2660863 0.2698333 0.2684612 0.2643681 0.2629249 0.2667381
 0.2731677 0.2777039 0.278545 0.2773298 0.2761513 0.2750605 0.2731069 0.2710339 0.2713087 0.2750551
 0.2802931 0.2840848 0.2854782 0.2855124 0.2852474 0.2848691 0.2842331 0.283309 0.2821419 0.2808642
 0.2796843 0.2786613 0.2776613 0.2766237 0.2754914 0.2736208 0.269833 0.2639504 0.2581107 0.2552947
 0.2561957 0.2587781 0.2611876 0.2630895 0.2632496 0.2585373 0.2480184 0.2366197 0.231745 0.2361308
 0.2456782 0.254062 0.2577253 0.2563131 0.2505415 0.2418679 0.2339983 0.2322392 0.2394146 0.2529229
 0.2670814 0.2779387 0.2847894 0.2879758 0.287358 0.2834219 0.2785514 0.2760959 0.2780681 0.2838118
 0.2905026 0.2944757 0.2928286 0.2858079 0.2783854 0.277258 0.2842135 0.2937486 0.2991328 0.2994542
 0.29865 0.2992641 0.3002647 0.3004857 0.3010595 0.3034987 0.3072039 0.3099592 0.3099191 0.3063875
 0.2998087 0.2923061 0.2873451 0.2869917 0.2896291 0.2918111 0.2917953 0.2895718 0.2847004 0.2772684
 0.2706169 0.26955 0.2748839 0.2822201 0.2869616 0.2885977 0.2892902 0.2899818 0.2892781 0.2857735
 0.280534 0.2766424 0.2761719 0.2782224 0.2804006 0.2814173 0.281295 0.2798626 0.2767525 0.2730093
 0.2712432 0.2733097 0.2783141 0.2834751 0.2866785 0.2877692 0.2877434 0.2874629 0.2871931 0.2867655
 0.2860029 0.2853111 0.2857056 0.287735 0.290536 0.2926288 0.2936345 0.2945825 0.2964517 0.2989631
 0.3009981 0.3018362 0.3017824 0.3017823 0.3025769 0.3041041 0.3055599 0.3061035 0.305685 0.305206
 0.3057134 0.3074017 0.309532 0.3112799 0.3124263 0.313243 0.3140255 0.314837 0.3154817 0.3156679
 0.3153951 0.3151915 0.3157258 0.3171152 0.3187864 0.3200576 0.3207013 0.3209079 0.3208943 0.3206964
 0.3202816 0.3197243 0.3192088 0.3188898 0.3187872 0.318813 0.3188668 0.318892 0.3188805 0.3188639
 0.3188925 0.3189952 0.3191622 0.3193684 0.319593 0.3198066 0.3199744 0.3200942 0.3202004 0.3203089
 0.3203769 0.3203346 0.3201306 0.3197306 0.3190935 0.3181732 0.3169336 0.3153393 0.3133594 0.3110608
 0.3087651 0.3070809 0.3066539 0.3077604 0.3100899 0.3129202 0.3155269 0.3174984 0.3187778 0.3195127
 0.319889 0.3200485 0.3200739 0.3199997 0.3198336 0.3195824 0.3192642 0.3189062 0.3185381 0.318189
 0.3178781 0.3176048 0.3173459 0.3170663 0.316735 0.3163363 0.3158684 0.3153352 0.3147402 0.3140798
 0.3133355 0.3124821 0.3115197 0.3104952 0.309482 0.3085334 0.3076534 0.3068035 0.3059337 0.3050017
 0.3039573 0.3027342 0.3013148 0.2998202 0.2984779 0.2974432 0.2966611 0.2959306 0.2950809 0.2940602
 0.2928959 0.2916332 0.2903152 0.288975 0.2876205 0.2862325 0.2847789 0.283232 0.2815798 0.2798299
 0.2780004 0.2761078 0.2741688 0.2722016 0.2702008 0.2681002 0.2657655 0.2630316 0.2597525 0.2558353
 0.2512589 0.2460855 0.2404653 0.2346139 0.2287652 0.2231234 0.2178486 0.2130691 0.2088988 0.2054368
 0.2027566 0.2009012 0.199893 0.1997436 0.2004489 0.201974 0.2042412 0.2071306 0.210486 0.2141241
 0.2178456 0.2214573 0.2248169 0.2278805 0.2307005 0.2333505 0.235847 0.2381477 0.2402077 0.2420147
 0.2435727 0.2448817 0.245946 0.2467928 0.247475 0.248052 0.2485646 0.2490224 0.2494124 0.2497229
 0.2499605 0.2501476 0.2503123 0.2504807 0.2506736 0.2509016 0.2511652 0.2514656 0.2518155 0.2522373
 0.2527487 0.2533492 0.2540186 0.2547288 0.2554657 0.2562424 0.2570953 0.2580683 0.2591982 0.2605048
 0.2619827 0.2635947 0.2652699 0.2669089 0.268401 0.2696528 0.2706156 0.2712888 0.2716952 0.2718553
 0.271785 0.2715154 0.2710935 0.27056 0.2699348 0.2692292 0.2684599 0.2676431 0.2667816 0.2658666
 0.2648971 0.2638966 0.2629043 0.2619463 0.2610232 0.2601265 0.2592551 0.2584098 0.2575874 0.2567866
 0.2560126 0.2552709 0.2545635 0.2538854 0.2532222 0.2525509 0.2518435 0.2510646 0.2501743 0.2491408
 0.247949 0.2465977 0.2450966 0.2434652 0.2417236 0.239884 0.2379557 0.2359478 0.2338655 0.2317071
 0.2294637 0.2271231 0.2246952 0.2222421 0.2198627 0.2176354 0.2155854 0.2136979 0.2119413 0.2102821
 0.2086981 0.2071785 0.2057149 0.2043037 0.202953 0.2016733 0.2004674 0.1993379 0.1982916 0.1973337
 0.1964709 0.1957156 0.1950718 0.1945251 0.1940584 0.1936643 0.1933489 0.1931405 0.1930748 0.1931454
 0.1932785 0.1933789 0.1933914 0.1933203 0.1932125 0.1931224 0.1930775 0.1930728 0.1930857 0.1930683
 0.1929353 0.192588 0.1919454 0.1909433 0.1895387 0.1877424 0.1856361 0.1833571 0.1810785 0.1789734
 0.1771629 0.1756987 0.1745836 0.1737735 0.173178 0.1727123 0.1723616 0.1721842 0.1722582 0.1725969
 0.173075 0.1734776 0.1736889 0.1738167 0.1740901 0.1746623 0.1755187 0.1765214 0.1775099 0.1783865
 0.1791213 0.1797012 0.1801231 0.1804179 0.1806207 0.1807258 0.1807102 0.1805698 0.1803082 0.1799336
 0.1794736 0.1789477 0.1783389 0.177629 0.1768219 0.1759149 0.1748993 0.1737827 0.1725505 0.1711562
 0.169639 0.168218 0.1672058 0.1668401 0.1671679 0.1680205 0.1691303 0.1703208 0.1715071 0.1725131
 0.1731044 0.1733472 0.1737878 0.1750689 0.1773328 0.1800656 0.1825366 0.1843235 0.1853799 0.1857605
 0.185487 0.1846067 0.18316 0.1811189 0.1785005 0.1754563 0.1721634 0.1687699 0.1654717 0.162465
 0.1598482 0.1576779 0.1559988 0.1548496 0.1543465 0.1540994 0.1519985 0.1451346 0.1340824 0.1252364
 0.1256746 0.1353398 0.1468341 0.1532796 0.1539951 0.1522912 0.1506819 0.1496353 0.1490304 0.1489962
 0.1496626 0.1508845 0.1522592 0.1533537 0.1539873 0.154203 0.1539098 0.1526152 0.1494419 0.1434394
 0.1342806 0.122924 0.1113941 0.101687 0.0948355 0.09076667 0.08866763 0.08751284 0.08663359 0.08602738
 0.08613572 0.08734227 0.08969554 0.09299774 0.09697992 0.1013089 0.1055294 0.1091912 0.1120891 0.1142856
 0.1158959 0.1169578 0.117498 0.1175873 0.1173064 0.1167305 0.1159355 0.1149612 0.1137887 0.1123976
 0.1108571 0.1093635 0.108166 0.1074038 0.1070154 0.1068399 0.1067725 0.1067834 0.1068524 0.1069555
 0.1070878 0.107261 0.1074985 0.1078216 0.1082092 0.1085859 0.1088774 0.1090573 0.109135 0.1091215
 0.1089999 0.1087348 0.1083448 0.1079315 0.1075403 0.1070176 0.106136 0.1048916 0.1036017 0.1026948
 0.1024196 0.1027079 0.1032516 0.103724 0.1039754 0.1040524 0.1040591 0.1040112 0.1038154 0.1033795
</values></Ydata></ScRf><Data_Parameters_AB><parameter name="DPF">1</parameter><parameter name="NPT">3497</parameter><parameter name="FXV">3996</parameter><parameter name="LXV">500</parameter><parameter name="CSF">1</parameter><parameter name="MXY">0.0114959590137005</parameter><parameter name="MNY">-0.0125501956790686</parameter><parameter name="DAT">22/09/2023</parameter><parameter name="TIM">12:58:14.635 (GMT+2)</parameter><parameter name="DXU">WN</parameter></Data_Parameters_AB><AB__Qtest><MainReport name="Quality Test Report"><Header><Line><Legend>Test result ok/not ok [1/0]: </Legend><Value>0</Value></Line><Line><Legend>Method file: </Legend><Value>C:\Users\Public\Documents\Bruker\OPUS_8.2.28\QT\IRBT_v3_default.QT</Value></Line></Header><Matrix><Line><Legend></Legend><Legend>min</Legend><Legend>max</Legend><Legend>measured</Legend></Line><Line><Value>Absorption (X-Range 1):</Value><Value>0.400000</Value><Value>2.000000</Value><Value>0.002523</Value></Line><Line><Value>Noise (X-Range 4):</Value><Value></Value><Value>0.000300</Value><Value>0.000017</Value></Line><Line><Value>Signal/Noise (X-Range 2):</Value><Value>200.000000</Value><Value></Value><Value>1.175577</Value></Line><Line><Value>Signal/Noise (X-Range 3):</Value><Value>40.000000</Value><Value></Value><Value>3.250145</Value></Line><Line><Value>Water vapour (X-Range 5):</Value><Value></Value><Value>0.000300</Value><Value>0.000008</Value></Line><Line><Value>Signal/Water (X-Range 2):</Value><Value>100.000000</Value><Value></Value><Value>2.402910</Value></Line><Line><Value>Signal/Water (X-Range 3):</Value><Value>20.000000</Value><Value></Value><Value>6.643382</Value></Line><Line><Value>Fringes (X-Range 6):</Value><Value></Value><Value>0.000100</Value><Value>0.000023</Value></Line></Matrix></MainReport></AB__Qtest><Data_Parameters_ScSm><parameter name="DPF">1</parameter><parameter name="NPT">1814</parameter><parameter name="FXV">3996.63438082617</parameter><parameter name="LXV">499.579297603271</parameter><parameter name="CSF">1</parameter><parameter name="MXY">0.32531064748764</parameter><parameter name="MNY">0.0493593215942383</parameter><parameter name="DAT">22/09/2023</parameter><parameter name="TIM">12:58:14.635 (GMT+2)</parameter><parameter name="DXU">WN</parameter></Data_Parameters_ScSm><Data_Parameters_ScRf><parameter name="DPF">1</parameter><parameter name="NPT">1820</parameter><parameter name="FXV">4004.34989121387</parameter><parameter name="LXV">495.721542409425</parameter><parameter name="CSF">1</parameter><parameter name="MXY">0.320907890796661</parameter><parameter name="MNY">0.048355370759964</parameter><parameter name="DAT">22/09/2023</parameter><parameter name="TIM">12:57:48.275 (GMT+2)</parameter><parameter name="DXU">WN</parameter></Data_Parameters_ScRf><Optic_Parameters_Rf><parameter name="APR">0</parameter><parameter name="APT">Open</parameter><parameter name="BMS">KBr</parameter><parameter name="DTC">RT-DLaTGS_IR-Biotyper [Microplate reader]</parameter><parameter name="HPF">0</parameter><parameter name="LPF">10.0</parameter><parameter name="LPV">4000</parameter><parameter name="PGR">0</parameter><parameter name="RCH">Module port</parameter><parameter name="RDX">0</parameter><parameter name="SRC">MIR</parameter><parameter name="VEL">10.0</parameter><parameter name="SON">Off</parameter></Optic_Parameters_Rf><Acquisition_Parameters_Rf><parameter name="ADT">1</parameter><parameter name="AQM">DD</parameter><parameter name="CFE">0</parameter><parameter name="COR">0</parameter><parameter name="DEL">0</parameter><parameter name="DLY">0</parameter><parameter name="HFW">8000</parameter><parameter name="LFW">0</parameter><parameter name="NSR">32</parameter><parameter name="PLF">AB</parameter><parameter name="RES">6</parameter><parameter name="RGN">-1</parameter><parameter name="STR">0</parameter><parameter name="TCL">MakeCompatibleScalar (0, {WSV=1.000000, ARV=0});</parameter><parameter name="TDL">37</parameter><parameter name="RPO">0</parameter></Acquisition_Parameters_Rf><FT_-_Parameters_Rf><parameter name="APF">B3</parameter><parameter name="HFQ">500</parameter><parameter name="LFQ">4000</parameter><parameter name="NLI">0</parameter><parameter name="PHR">24</parameter><parameter name="PHZ">ML</parameter><parameter name="SPZ">NO</parameter><parameter name="ZFF">1</parameter></FT_-_Parameters_Rf><Optic_Parameters_><parameter name="APR">0</parameter><parameter name="APT">Open</parameter><parameter name="BMS">KBr</parameter><parameter name="CHN">Module port</parameter><parameter name="DTC">RT-DLaTGS_IR-Biotyper [Microplate reader]</parameter><parameter name="HPF">0</parameter><parameter name="LPF">10.0</parameter><parameter name="LPV">4000</parameter><parameter name="PGN">0</parameter><parameter name="RDX">0</parameter><parameter name="SRC">MIR</parameter><parameter name="VEL">10.0</parameter><parameter name="SON">Off</parameter></Optic_Parameters_><FT_-_Parameters_><parameter name="APF">B3</parameter><parameter name="HFQ">500</parameter><parameter name="LFQ">4000</parameter><parameter name="NLI">0</parameter><parameter name="PHR">24</parameter><parameter name="PHZ">ML</parameter><parameter name="SPZ">NO</parameter><parameter name="ZFF">1</parameter></FT_-_Parameters_><Acquisition_Parameters_><parameter name="ADT">1</parameter><parameter name="AQM">DD</parameter><parameter name="CFE">0</parameter><parameter name="COR">0</parameter><parameter name="DEL">0</parameter><parameter name="DLY">0</parameter><parameter name="HFW">8000</parameter><parameter name="LFW">0</parameter><parameter name="NSS">32</parameter><parameter name="PLF">AB</parameter><parameter name="RES">6</parameter><parameter name="SOT">0</parameter><parameter name="TCL">MakeCompatibleScalar (0, {WSV=1.000000, ARV=0});</parameter><parameter name="TDL">37</parameter><parameter name="SPO">0</parameter><parameter name="SGN">-1</parameter></Acquisition_Parameters_><Instrument_Parameters_Rf><parameter name="HFL">15801.365274</parameter><parameter name="LFL">0</parameter><parameter name="LWN">15801.365274</parameter><parameter name="ABP">32150</parameter><parameter name="SSP">1</parameter><parameter name="ARG">2</parameter><parameter name="ASG">2</parameter><parameter name="ASS">32</parameter><parameter name="GFW">16</parameter><parameter name="GBW">16</parameter><parameter name="BFW">0</parameter><parameter name="BBW">0</parameter><parameter name="PKA">9241</parameter><parameter name="PKL">5015</parameter><parameter name="PRA">9213</parameter><parameter name="PRL">4982</parameter><parameter name="P2A">1</parameter><parameter name="P2L">1</parameter><parameter name="P2R">1</parameter><parameter name="P2K">1</parameter><parameter name="DAQ">0</parameter><parameter name="AG2">1</parameter><parameter name="SSM">1</parameter><parameter name="RSN">38169</parameter><parameter name="CRR">0</parameter><parameter name="SRT">1695387468.275</parameter><parameter name="DUR">19.6429901123047</parameter><parameter name="TSC">32.9</parameter><parameter name="MVD">0.455756515264511</parameter><parameter name="AN1">0.225891903016508</parameter><parameter name="AN2">0</parameter><parameter name="VSN">2.485 Apr  4 2017</parameter><parameter name="SRN">0085</parameter><parameter name="CAM">0</parameter><parameter name="INS">IR-Biotyper</parameter><parameter name="FOC">69</parameter><parameter name="RDY">1</parameter><parameter name="ARS">32</parameter></Instrument_Parameters_Rf><Sample_Parameters_><parameter name="BLD"></parameter><parameter name="CNM">Admin</parameter><parameter name="CPY"></parameter><parameter name="DPM"></parameter><parameter name="EXP">IRBT_v3_32Scans.XPM</parameter><parameter name="LCT"></parameter><parameter name="SFM">Microplate, HTS-XT</parameter><parameter name="SNM">230922-1029-ACIDIFIED WATER_Acidified_water_H10_bd702a91-8502-4d68-b78f-d8719adb4d15.0</parameter><parameter name="XPP">C:\Users\Public\Documents\Bruker\OPUS_8.2.28\XPM</parameter><parameter name="IST">OK</parameter><parameter name="CPG">1252</parameter><parameter name="UID">fb4d2270-6c89-48ff-b004-60d8c785f45c</parameter></Sample_Parameters_><Instrument_Parameters_><parameter name="HFL">15801.365274</parameter><parameter name="LFL">0</parameter><parameter name="LWN">15801.365274</parameter><parameter name="ABP">32150</parameter><parameter name="SSP">1</parameter><parameter name="ASG">2</parameter><parameter name="ARG">2</parameter><parameter name="ASS">32</parameter><parameter name="GFW">16</parameter><parameter name="GBW">16</parameter><parameter name="BFW">0</parameter><parameter name="BBW">0</parameter><parameter name="PKA">9379</parameter><parameter name="PKL">5015</parameter><parameter name="PRA">9365</parameter><parameter name="PRL">4982</parameter><parameter name="P2A">1</parameter><parameter name="P2L">1</parameter><parameter name="P2R">1</parameter><parameter name="P2K">1</parameter><parameter name="DAQ">0</parameter><parameter name="AG2">1</parameter><parameter name="SSM">1</parameter><parameter name="RSN">19755</parameter><parameter name="CRR">0</parameter><parameter name="SRT">1695387494.636</parameter><parameter name="DUR">19.6419982910156</parameter><parameter name="TSC">32.9</parameter><parameter name="MVD">0.626883327960968</parameter><parameter name="AN1">0.225875906382228</parameter><parameter name="AN2">0</parameter><parameter name="VSN">2.485 Apr  4 2017</parameter><parameter name="SRN">0085</parameter><parameter name="CAM">0</parameter><parameter name="INS">IR-Biotyper</parameter><parameter name="FOC">69</parameter><parameter name="RDY">1</parameter></Instrument_Parameters_><History/></OPUSDataFile>
