<?xml version="1.0" encoding="UTF-8" ?>
<OPUSDataFile><AB><Ydata ylabel="Absorbance Units"><values byteorder="INTEL" format="FLOAT32" numvalues="3497"> -0.02475348 -0.02475308 -0.02475412 -0.02475671 -0.02476155 -0.02476767 -0.02477367 -0.02477783 -0.02477648 -0.02477006
 -0.0247568 -0.02474026 -0.02472225 -0.02470592 -0.02469394 -0.02468517 -0.02468002 -0.02467593 -0.02467215 -0.02466862
 -0.02466515 -0.02466258 -0.024661 -0.02465964 -0.02465846 -0.02465766 -0.02465752 -0.0246615 -0.02466947 -0.02468328
 -0.02470129 -0.02471936 -0.02473574 -0.0247438 -0.02474473 -0.02473667 -0.0247233 -0.02470788 -0.02469275 -0.02468149
 -0.02467211 -0.02466498 -0.02465619 -0.02464403 -0.02462793 -0.02460674 -0.02458507 -0.02456318 -0.02454679 -0.02453656
 -0.02453364 -0.02453807 -0.02454557 -0.02455576 -0.02456266 -0.02456648 -0.02456489 -0.02455919 -0.02455238 -0.02454553
 -0.02454315 -0.02454385 -0.02454823 -0.02455266 -0.02455305 -0.02454831 -0.02453522 -0.02451762 -0.02449621 -0.02447566
 -0.02445819 -0.0244444 -0.02443508 -0.02442848 -0.02442443 -0.02442167 -0.02442009 -0.02441844 -0.02441664 -0.02441303
 -0.02440777 -0.02440223 -0.02439684 -0.0243952 -0.02439664 -0.02440124 -0.02440732 -0.02441073 -0.02441129 -0.02440612
 -0.02439789 -0.02438835 -0.02437996 -0.02437584 -0.02437493 -0.02437793 -0.02438191 -0.02438606 -0.02438794 -0.02438677
 -0.02438142 -0.02437146 -0.02435751 -0.02433939 -0.02432052 -0.02430107 -0.02428522 -0.02427298 -0.02426559 -0.02426266
 -0.02426278 -0.02426559 -0.0242692 -0.02427316 -0.02427565 -0.02427599 -0.02427199 -0.02426424 -0.02425193 -0.02423767
 -0.02422315 -0.02421042 -0.02420191 -0.02419506 -0.02419021 -0.02418173 -0.02416761 -0.02414803 -0.02412181 -0.02409716
 -0.02407466 -0.02406191 -0.02405936 -0.0240651 -0.02407856 -0.02409163 -0.02410411 -0.02411046 -0.02411127 -0.02410555
 -0.02409409 -0.02407788 -0.02405847 -0.02403845 -0.02402002 -0.02400713 -0.02399976 -0.02400015 -0.02400433 -0.02401133
 -0.02401598 -0.02401585 -0.02400908 -0.02399392 -0.02397456 -0.02395098 -0.02393028 -0.02391318 -0.02390417 -0.02390357
 -0.02391105 -0.02392643 -0.02394732 -0.02397332 -0.0240012 -0.02402993 -0.02405409 -0.02407262 -0.02407956 -0.02407606
 -0.02406023 -0.0240368 -0.0240101 -0.023985 -0.02396787 -0.02395782 -0.02395728 -0.02395995 -0.0239638 -0.02396508
 -0.02396172 -0.02395593 -0.02394774 -0.02393979 -0.02393265 -0.02392407 -0.02391396 -0.0238987 -0.02387833 -0.02385319
 -0.02382411 -0.02379677 -0.02377186 -0.02375533 -0.02374653 -0.02374715 -0.02375539 -0.02376906 -0.02378642 -0.02380473
 -0.02382249 -0.02383773 -0.02384916 -0.02385534 -0.02385628 -0.02385115 -0.02384249 -0.02383065 -0.0238184 -0.02380644
 -0.02379504 -0.02378445 -0.02377254 -0.02375916 -0.02374385 -0.02372687 -0.02371287 -0.02370221 -0.02370022 -0.02370577
 -0.02371799 -0.02373403 -0.023746 -0.02375253 -0.02374635 -0.02373079 -0.02370591 -0.02367832 -0.02365384 -0.02363603
 -0.02362985 -0.02363191 -0.02364296 -0.0236556 -0.02366813 -0.0236746 -0.02367324 -0.02366395 -0.02364613 -0.02362505
 -0.02360097 -0.0235802 -0.02356287 -0.0235517 -0.02354609 -0.02354331 -0.02354253 -0.02353886 -0.02353226 -0.02351964
 -0.02350261 -0.02348219 -0.02346102 -0.02344291 -0.02342919 -0.02342307 -0.02342243 -0.02342743 -0.02343413 -0.02344079
 -0.02344566 -0.02344735 -0.02344822 -0.02344831 -0.0234508 -0.02345621 -0.02346472 -0.02347645 -0.0234885 -0.02350064
 -0.02350851 -0.02351197 -0.02350758 -0.02349586 -0.0234767 -0.02345148 -0.02342362 -0.02339455 -0.02336852 -0.02334603
 -0.02332972 -0.02331877 -0.02331377 -0.02331262 -0.0233143 -0.02331699 -0.0233196 -0.0233215 -0.02332233 -0.02332181
 -0.02331994 -0.02331569 -0.02330891 -0.02329898 -0.02328578 -0.02327095 -0.02325461 -0.02323926 -0.02322502 -0.02321398
 -0.02320602 -0.02320197 -0.02320112 -0.02320245 -0.02320435 -0.0232032 -0.02319822 -0.02318614 -0.02316919 -0.02314772
 -0.02312537 -0.02310487 -0.02308725 -0.02307405 -0.02306359 -0.02305576 -0.02304891 -0.02304265 -0.02303646 -0.02303023
 -0.02302403 -0.02301788 -0.02301132 -0.0230043 -0.02299578 -0.02298568 -0.02297272 -0.02295724 -0.02293973 -0.02292131
 -0.02290537 -0.02289284 -0.0228876 -0.02288855 -0.02289658 -0.02290826 -0.02292101 -0.02293147 -0.02293638 -0.02293535
 -0.02292705 -0.0229134 -0.02289452 -0.0228728 -0.02284831 -0.02282519 -0.02280365 -0.02279004 -0.0227849 -0.02279082
 -0.02280764 -0.02282942 -0.02285526 -0.02287486 -0.02288815 -0.02288877 -0.02287856 -0.02285897 -0.02283279 -0.0228062
 -0.02278073 -0.02276143 -0.02274742 -0.02274011 -0.02273676 -0.02273645 -0.02273547 -0.02273198 -0.02272352 -0.02270857
 -0.0226881 -0.02266155 -0.02263317 -0.02260313 -0.02257761 -0.02255706 -0.02254593 -0.02254423 -0.02254999 -0.0225624
 -0.02257348 -0.02258291 -0.02258427 -0.0225792 -0.02256871 -0.02255552 -0.02254599 -0.02254048 -0.02254323 -0.02255063
 -0.02256091 -0.02257053 -0.02257589 -0.02257749 -0.02257412 -0.02256907 -0.02256334 -0.02255828 -0.02255472 -0.02255084
 -0.02254656 -0.02253991 -0.02253066 -0.0225193 -0.02250588 -0.02249167 -0.02247664 -0.02246103 -0.02244466 -0.02242676
 -0.0224074 -0.02238638 -0.02236384 -0.02233991 -0.02231488 -0.02228892 -0.02226301 -0.02223787 -0.02221516 -0.02219632
 -0.02218193 -0.02217306 -0.02216791 -0.02216649 -0.02216565 -0.02216476 -0.02216143 -0.02215512 -0.02214571 -0.02213307
 -0.02211907 -0.02210381 -0.02208982 -0.02207709 -0.02206657 -0.02205782 -0.0220491 -0.02204013 -0.02202881 -0.02201598
 -0.02200205 -0.02198875 -0.02197907 -0.0219734 -0.02197399 -0.02197839 -0.02198632 -0.02199326 -0.02199706 -0.02199452
 -0.02198356 -0.0219653 -0.02193896 -0.0219101 -0.02187923 -0.02185212 -0.02182944 -0.02181233 -0.02180077 -0.02179079
 -0.02178212 -0.02177038 -0.02175611 -0.02173954 -0.02172178 -0.0217067 -0.02169433 -0.02168734 -0.02168333 -0.02168016
 -0.02167508 -0.02166366 -0.02164686 -0.02162291 -0.021597 -0.02157106 -0.02154942 -0.02153462 -0.02152564 -0.02152311
 -0.02152307 -0.02152495 -0.02152661 -0.02152775 -0.02152842 -0.02152858 -0.02152723 -0.0215242 -0.02151722 -0.02150635
 -0.02149056 -0.02147039 -0.02144678 -0.02142068 -0.0213945 -0.02136915 -0.02134725 -0.02132881 -0.02131525 -0.02130485
 -0.02129715 -0.0212894 -0.0212799 -0.02126767 -0.02125136 -0.02123384 -0.02121527 -0.02119949 -0.02118736 -0.021179
 -0.02117474 -0.02117011 -0.02116489 -0.02115468 -0.02113965 -0.02112009 -0.02109678 -0.02107435 -0.02105291 -0.0210357
 -0.02102161 -0.02100985 -0.02099932 -0.02098759 -0.02097511 -0.02096113 -0.02094725 -0.02093473 -0.02092363 -0.02091484
 -0.02090596 -0.02089634 -0.02088428 -0.02086872 -0.02085212 -0.02083452 -0.02081941 -0.02080734 -0.0207968 -0.02078772
 -0.02077395 -0.02075543 -0.02072913 -0.02069601 -0.02065986 -0.02062175 -0.02058772 -0.0205574 -0.02053322 -0.02051359
 -0.02049699 -0.02048222 -0.0204672 -0.02045181 -0.0204351 -0.02041788 -0.02040053 -0.02038288 -0.02036526 -0.02034615
 -0.02032505 -0.02030202 -0.0202766 -0.02025257 -0.02023025 -0.02021275 -0.02020026 -0.02018959 -0.02018033 -0.02016586
 -0.02014671 -0.02012226 -0.02009417 -0.02006829 -0.02004489 -0.02002835 -0.02001616 -0.02000634 -0.01999628 -0.01998191
 -0.01996287 -0.01993722 -0.01990651 -0.01987081 -0.01983249 -0.01979215 -0.01975268 -0.0197149 -0.01968068 -0.01965062
 -0.01962409 -0.01960118 -0.01957959 -0.0195592 -0.0195385 -0.0195175 -0.01949604 -0.01947413 -0.01945188 -0.01942917
 -0.01940566 -0.01938114 -0.01935483 -0.01932672 -0.01929625 -0.01926398 -0.0192301 -0.01919585 -0.01916234 -0.01913005
 -0.01909983 -0.01907068 -0.01904235 -0.01901423 -0.01898587 -0.01895831 -0.01893168 -0.01890688 -0.01888421 -0.01886172
 -0.01883932 -0.01881315 -0.01878311 -0.01874698 -0.01870525 -0.01865966 -0.01861087 -0.01856239 -0.01851433 -0.01846888
 -0.01842549 -0.01838411 -0.01834434 -0.01830571 -0.01826784 -0.01823056 -0.01819274 -0.01815395 -0.01811254 -0.01806767
 -0.01801888 -0.01796556 -0.0179095 -0.0178507 -0.01779228 -0.01773458 -0.01767961 -0.01762752 -0.01757867 -0.01753297
 -0.01748919 -0.01744728 -0.0174062 -0.01736628 -0.01732831 -0.01729248 -0.01726033 -0.01723024 -0.01720085 -0.01716877
 -0.01712911 -0.01708049 -0.0170189 -0.01694813 -0.01686841 -0.01678603 -0.0167038 -0.0166245 -0.01654987 -0.01647849
 -0.01641042 -0.0163439 -0.01627873 -0.01621398 -0.01614962 -0.01608329 -0.01601482 -0.01594112 -0.01586245 -0.01577879
 -0.01569124 -0.0156042 -0.01551836 -0.01543806 -0.01536268 -0.01529352 -0.01522863 -0.01516657 -0.01510435 -0.01503924
 -0.0149684 -0.01488888 -0.0148012 -0.01470391 -0.01460217 -0.01449657 -0.01439382 -0.01429543 -0.01420395 -0.01412017
 -0.0140413 -0.01396727 -0.0138927 -0.01381734 -0.01373661 -0.01365064 -0.01355796 -0.01345914 -0.01335572 -0.01324822
 -0.01313883 -0.01302764 -0.01291565 -0.01280315 -0.01269056 -0.01257906 -0.01246984 -0.01236354 -0.01226153 -0.01216158
 -0.0120638 -0.01196328 -0.01185872 -0.01174658 -0.01162548 -0.01149708 -0.011361 -0.01122363 -0.01108534 -0.01095146
 -0.01082198 -0.01069614 -0.01057332 -0.01044841 -0.01032146 -0.01018972 -0.01005425 -0.009916549 -0.009777315 -0.009638627
 -0.009500517 -0.009363552 -0.009228513 -0.009096257 -0.008967384 -0.008843207 -0.00872137 -0.008601801 -0.008480046 -0.008354618
 -0.008223664 -0.008086039 -0.007944953 -0.007800502 -0.007656877 -0.007514391 -0.007375164 -0.007239233 -0.007106707 -0.006977548
 -0.006851647 -0.00672885 -0.006608775 -0.006490637 -0.006372202 -0.006252556 -0.006128393 -0.006000716 -0.005868568 -0.005735814
 -0.005605503 -0.005480836 -0.005365608 -0.005258066 -0.005159286 -0.005063416 -0.004969006 -0.004871751 -0.004770335 -0.004664137
 -0.004552811 -0.004437609 -0.004318584 -0.00419702 -0.004072984 -0.003947862 -0.003821562 -0.003694127 -0.003565127 -0.003432694
 -0.003296501 -0.003154369 -0.003006945 -0.002854109 -0.002697455 -0.002538722 -0.002380096 -0.002224262 -0.002072375 -0.001926662
 -0.001784893 -0.001647442 -0.001508931 -0.001367751 -0.001220609 -0.001065887 -0.000906622 -0.0007425655 -0.0005809396 -0.0004222908
 -0.0002708396 -0.0001265982 1.262257E-05 0.0001474038 0.0002835802 0.0004214651 0.0005658197 0.000716002 0.0008730401 0.001035209
 0.001200113 0.001365104 0.001525993 0.001679817 0.001822192 0.001951809 0.002065727 0.002166622 0.002254487 0.00233371
 0.002406013 0.002472367 0.002533851 0.002586549 0.002630099 0.002661338 0.00267985 0.002687454 0.002684296 0.002674505
 0.002657977 0.00263561 0.002606815 0.002569228 0.002522589 0.002464821 0.002396169 0.002316283 0.002225094 0.002122544
 0.002008027 0.001880716 0.001740898 0.001588134 0.001424138 0.001249514 0.001065808 0.0008740335 0.0006730387 0.0004631029
 0.0002408874 6.01997E-06 -0.0002441614 -0.0005099519 -0.000791723 -0.001089459 -0.001401928 -0.001728908 -0.002068045 -0.002418898
 -0.002778134 -0.003145402 -0.003517885 -0.003895512 -0.004277094 -0.00466194 -0.00504915 -0.005436513 -0.005821719 -0.006202618
 -0.006576902 -0.00694399 -0.00730335 -0.00765379 -0.007995821 -0.008323854 -0.008637414 -0.008928515 -0.009195757 -0.009436152
 -0.009648998 -0.009840027 -0.0100096 -0.01016724 -0.01031302 -0.01045136 -0.0105812 -0.01069956 -0.01080544 -0.01089371
 -0.01096516 -0.0110185 -0.01105591 -0.01108015 -0.01109244 -0.0110955 -0.01108828 -0.0110711 -0.01104217 -0.01100032
 -0.01094596 -0.01087859 -0.01080056 -0.01071235 -0.01061534 -0.01051009 -0.01039467 -0.01026914 -0.01012891 -0.009973706
 -0.009797794 -0.009600783 -0.009376896 -0.009125413 -0.008839684 -0.008519015 -0.008157215 -0.007755155 -0.007310149 -0.006827351
 -0.006310831 -0.005771815 -0.005220933 -0.0046738 -0.004142897 -0.003644178 -0.003187561 -0.002785692 -0.002444637 -0.002171937
 -0.001970723 -0.001842132 -0.001787322 -0.001801064 -0.001883263 -0.002025481 -0.002227249 -0.002479867 -0.002782606 -0.003125354
 -0.003506441 -0.003912164 -0.004340317 -0.004776489 -0.00521949 -0.005659519 -0.006096975 -0.006528295 -0.006954222 -0.007374286
 -0.007789059 -0.008198821 -0.008603972 -0.009004908 -0.009401368 -0.009793714 -0.01017998 -0.01056006 -0.01093082 -0.01129183
 -0.01164068 -0.01197707 -0.01230032 -0.01261042 -0.01290834 -0.01319424 -0.01347011 -0.01373616 -0.01399467 -0.0142454
 -0.01448882 -0.01472452 -0.0149516 -0.01517035 -0.0153805 -0.01558331 -0.01578 -0.01597159 -0.01615948 -0.0163433
 -0.0165232 -0.01669875 -0.01686951 -0.01703681 -0.01720077 -0.01736319 -0.01752454 -0.01768444 -0.01784304 -0.01799752
 -0.01814773 -0.01829175 -0.01842966 -0.01856173 -0.01868811 -0.01880989 -0.01892686 -0.01903872 -0.01914556 -0.0192468
 -0.01934406 -0.01943939 -0.01953494 -0.01963438 -0.01973746 -0.01984609 -0.01995634 -0.02006691 -0.02017389 -0.02027513
 -0.02037052 -0.0204593 -0.02054401 -0.02062507 -0.02070342 -0.0207793 -0.02085149 -0.02091994 -0.02098409 -0.02104407
 -0.02110123 -0.02115586 -0.02121038 -0.02126501 -0.02132177 -0.02138089 -0.02144383 -0.02151093 -0.0215835 -0.02166132
 -0.02174504 -0.02183322 -0.02192565 -0.02201878 -0.02211118 -0.02219849 -0.02227883 -0.02234942 -0.0224087 -0.02245825
 -0.02249772 -0.02253164 -0.02256036 -0.02258828 -0.02261567 -0.02264377 -0.0226725 -0.02270066 -0.02272795 -0.02275209
 -0.02277265 -0.02278696 -0.02279459 -0.02279282 -0.02278216 -0.02276183 -0.02273348 -0.02269873 -0.02265888 -0.0226158
 -0.02256902 -0.02251856 -0.02246452 -0.0224057 -0.02234768 -0.02229039 -0.02224492 -0.02221285 -0.02220372 -0.02221908
 -0.02225935 -0.02232471 -0.0224054 -0.02250054 -0.02259577 -0.02269047 -0.02277339 -0.02284518 -0.02290208 -0.02294543
 -0.02297661 -0.02299661 -0.02300755 -0.02301025 -0.0230061 -0.0229967 -0.02298376 -0.02296856 -0.0229527 -0.02293519
 -0.02291643 -0.02289349 -0.02286557 -0.02283121 -0.0227897 -0.02274291 -0.02269082 -0.02263696 -0.02258156 -0.02252622
 -0.02247085 -0.02241407 -0.0223557 -0.02229351 -0.02222801 -0.02215972 -0.02208989 -0.02202208 -0.02195675 -0.02189693
 -0.02184081 -0.02178775 -0.02173513 -0.02168016 -0.02162249 -0.02156025 -0.02149708 -0.02143361 -0.02137441 -0.02132126
 -0.02127481 -0.02123629 -0.02119942 -0.02116409 -0.02112015 -0.02106695 -0.02099736 -0.02091147 -0.0208106 -0.02069597
 -0.02057601 -0.02045277 -0.02033833 -0.02023485 -0.02015413 -0.02009683 -0.02007076 -0.02007216 -0.02010114 -0.0201492
 -0.02021007 -0.02027466 -0.02033566 -0.02038881 -0.02043011 -0.02046082 -0.02048012 -0.020492 -0.02049684 -0.02049897
 -0.02049887 -0.02050001 -0.02050267 -0.02050835 -0.02051703 -0.02052864 -0.02054311 -0.02055983 -0.02057903 -0.0206012
 -0.02062667 -0.02065662 -0.02069098 -0.02073041 -0.02077387 -0.02082058 -0.02086878 -0.02091651 -0.02096321 -0.02100712
 -0.02105142 -0.02109601 -0.02114765 -0.02120765 -0.0212834 -0.02137651 -0.02149109 -0.02162814 -0.02178611 -0.02196511
 -0.02215813 -0.02236467 -0.02257499 -0.02278855 -0.02299698 -0.02319992 -0.02339173 -0.0235719 -0.02373639 -0.02388454
 -0.02401298 -0.02412219 -0.02421073 -0.02428126 -0.02433496 -0.02437615 -0.02440751 -0.02443296 -0.02445459 -0.02447529
 -0.02449629 -0.02451905 -0.0245442 -0.0245714 -0.02460095 -0.02462953 -0.02465702 -0.02467829 -0.02469316 -0.02469821
 -0.02469396 -0.02468236 -0.02466467 -0.02464764 -0.02463171 -0.02462224 -0.0246174 -0.02461671 -0.02461725 -0.0246145
 -0.02460797 -0.02459479 -0.02457787 -0.02455798 -0.02453831 -0.02452079 -0.02450581 -0.0244941 -0.02448427 -0.02447609
 -0.02446892 -0.02446266 -0.0244572 -0.02445255 -0.02444806 -0.02444369 -0.02443869 -0.02443302 -0.02442608 -0.02441764
 -0.02440644 -0.02439204 -0.02437219 -0.02434738 -0.02431685 -0.02428281 -0.02424766 -0.0242139 -0.02418509 -0.02416143
 -0.02414459 -0.02413223 -0.02412383 -0.02411704 -0.02411095 -0.02410468 -0.02409789 -0.02409048 -0.0240825 -0.02407311
 -0.02406226 -0.02404889 -0.02403298 -0.02401511 -0.02399546 -0.02397603 -0.02395693 -0.02393987 -0.02392464 -0.02391156
 -0.02390022 -0.0238899 -0.02388034 -0.02387094 -0.02386148 -0.02385157 -0.02384104 -0.02382962 -0.02381745 -0.02380446
 -0.02379123 -0.02377805 -0.02376479 -0.02375166 -0.02373726 -0.02372145 -0.02370307 -0.0236819 -0.02365969 -0.02363656
 -0.02361617 -0.0235985 -0.02358529 -0.0235759 -0.02356829 -0.02356181 -0.02355321 -0.02354298 -0.02353046 -0.02351659
 -0.02350273 -0.02348874 -0.02347538 -0.02346111 -0.02344496 -0.02342641 -0.02340442 -0.02338107 -0.02335649 -0.02333396
 -0.02331434 -0.02329875 -0.02328769 -0.02327919 -0.02327318 -0.02326618 -0.02325804 -0.02324735 -0.02323434 -0.02322072
 -0.02320671 -0.02319467 -0.02318398 -0.02317408 -0.02316414 -0.02315187 -0.02313742 -0.02311962 -0.02309993 -0.02307926
 -0.02305905 -0.02304069 -0.02302447 -0.02301088 -0.02299991 -0.0229917 -0.02298581 -0.02298231 -0.02298009 -0.02297912
 -0.02297757 -0.02297532 -0.02297061 -0.02296338 -0.02295285 -0.02293914 -0.02292288 -0.02290448 -0.02288616 -0.02286828
 -0.02285321 -0.02284079 -0.02283203 -0.02282611 -0.02282229 -0.02281968 -0.02281719 -0.02281393 -0.02280879 -0.02280173
 -0.02279218 -0.0227814 -0.02276955 -0.02275827 -0.0227482 -0.022739 -0.0227309 -0.02272155 -0.02271073 -0.02269751
 -0.02268187 -0.02266553 -0.02264862 -0.02263327 -0.0226193 -0.02260697 -0.02259596 -0.02258532 -0.02257492 -0.02256405
 -0.02255272 -0.02254058 -0.02252786 -0.02251445 -0.02250114 -0.02248839 -0.022477 -0.0224678 -0.02245987 -0.02245342
 -0.02244601 -0.02243704 -0.02242523 -0.02241007 -0.02239311 -0.02237434 -0.02235687 -0.02234086 -0.02232808 -0.02231844
 -0.02231145 -0.02230687 -0.02230317 -0.02230024 -0.02229689 -0.02229311 -0.02228845 -0.0222826 -0.02227498 -0.02226517
 -0.02225233 -0.02223684 -0.02221841 -0.02219843 -0.02217737 -0.02215683 -0.02213745 -0.02212015 -0.02210536 -0.02209281
 -0.02208261 -0.02207357 -0.02206566 -0.02205725 -0.02204827 -0.02203802 -0.02202659 -0.02201492 -0.02200308 -0.02199199
 -0.02198146 -0.02197132 -0.02196133 -0.02195077 -0.02193964 -0.0219276 -0.02191478 -0.02190123 -0.02188705 -0.02187203
 -0.02185743 -0.02184363 -0.02183243 -0.02182482 -0.0218207 -0.02182066 -0.02182171 -0.02182364 -0.02182282 -0.02181878
 -0.02181067 -0.02179843 -0.02178385 -0.02176708 -0.02175075 -0.02173482 -0.02172063 -0.02170788 -0.02169649 -0.02168589
 -0.02167474 -0.0216627 -0.02164839 -0.02163239 -0.02161456 -0.02159629 -0.0215786 -0.02156264 -0.02154958 -0.02153891
 -0.02153097 -0.02152406 -0.02151784 -0.02151103 -0.02150331 -0.02149431 -0.02148397 -0.02147198 -0.02145831 -0.02144266
 -0.02142511 -0.02140674 -0.02138787 -0.02137117 -0.02135664 -0.02134611 -0.02133855 -0.02133267 -0.0213271 -0.02131876
 -0.02130773 -0.02129243 -0.02127487 -0.02125584 -0.02123783 -0.02122256 -0.02121099 -0.02120424 -0.02120086 -0.02120107
 -0.0212015 -0.02120178 -0.02119848 -0.02119112 -0.02117908 -0.0211623 -0.0211437 -0.02112347 -0.02110495 -0.02108796
 -0.02107306 -0.02105986 -0.02104712 -0.02103501 -0.02102324 -0.02101227 -0.02100296 -0.02099508 -0.02098903 -0.02098362
 -0.02097812 -0.02097126 -0.02096203 -0.02095015 -0.02093509 -0.02091777 -0.02089816 -0.02087788 -0.02085716 -0.0208375
 -0.02081909 -0.02080284 -0.02078883 -0.02077786 -0.02076992 -0.02076521 -0.02076345 -0.02076316 -0.02076373 -0.02076202
 -0.02075796 -0.02074934 -0.02073736 -0.02072287 -0.02070756 -0.02069414 -0.0206826 -0.02067433 -0.02066725 -0.02066071
 -0.02065261 -0.02064159 -0.02062825 -0.02061209 -0.02059612 -0.02058084 -0.02056808 -0.02055832 -0.02054973 -0.02054226
 -0.02053326 -0.02052276 -0.02051107 -0.02049854 -0.02048772 -0.02047848 -0.02047187 -0.02046701 -0.02046208 -0.02045662
 -0.02044868 -0.020439 -0.02042753 -0.02041551 -0.0204041 -0.02039363 -0.02038489 -0.02037689 -0.02036952 -0.02036157
 -0.02035263 -0.02034235 -0.02033059 -0.02031718 -0.02030212 -0.02028489 -0.02026546 -0.02024422 -0.02022131 -0.0201994
 -0.02017873 -0.02016242 -0.0201501 -0.02014206 -0.0201375 -0.02013439 -0.02013242 -0.0201301 -0.0201275 -0.02012429
 -0.02012018 -0.02011471 -0.02010798 -0.02009953 -0.02009084 -0.02008242 -0.02007529 -0.02007044 -0.02006507 -0.02005931
 -0.02004728 -0.02002813 -0.01999976 -0.01996181 -0.0199202 -0.01987538 -0.01983579 -0.01980119 -0.01977404 -0.01975307
 -0.01973403 -0.01971678 -0.01969828 -0.01968024 -0.01966457 -0.01965241 -0.01964658 -0.01964578 -0.01965057 -0.01965725
 -0.01966394 -0.01966729 -0.01966485 -0.01965745 -0.01964429 -0.01962955 -0.01961364 -0.01960137 -0.01959354 -0.01959117
 -0.01959455 -0.01959795 -0.01960096 -0.01959524 -0.01958128 -0.01955907 -0.01952995 -0.01949994 -0.01946921 -0.01944125
 -0.0194158 -0.01939387 -0.01937533 -0.01936094 -0.01934895 -0.01933782 -0.01932695 -0.01931436 -0.0193042 -0.01929767
 -0.0192983 -0.01930859 -0.01932397 -0.01934473 -0.01936152 -0.01937299 -0.01937564 -0.01936897 -0.01935683 -0.01933945
 -0.01932193 -0.01930432 -0.01928944 -0.01927713 -0.0192685 -0.01926289 -0.0192593 -0.01925644 -0.01925121 -0.01924316
 -0.01922992 -0.01921301 -0.01919252 -0.01917136 -0.01915142 -0.01913453 -0.01912221 -0.01911415 -0.01911085 -0.01911037
 -0.01911256 -0.01911508 -0.01911773 -0.01911802 -0.01911574 -0.01910941 -0.01909901 -0.01908512 -0.01906798 -0.01904987
 -0.01903098 -0.01901342 -0.01899712 -0.01898293 -0.01897069 -0.01896059 -0.01895215 -0.01894494 -0.01893805 -0.01893046
 -0.01892156 -0.01891042 -0.01889765 -0.01888319 -0.01886808 -0.0188527 -0.01883727 -0.01882181 -0.01880693 -0.01879261
 -0.01878042 -0.01877052 -0.01876307 -0.01875801 -0.01875252 -0.01874644 -0.01873702 -0.0187248 -0.01871068 -0.01869565
 -0.01868348 -0.01867406 -0.01866949 -0.01866806 -0.01866846 -0.01866862 -0.01866573 -0.01865971 -0.01864915 -0.01863636
 -0.01862184 -0.01860833 -0.01859711 -0.01858827 -0.01858238 -0.01857686 -0.0185715 -0.01856379 -0.01855344 -0.01854052
 -0.01852508 -0.01850927 -0.01849324 -0.01847913 -0.01846674 -0.01845638 -0.0184476 -0.0184392 -0.01843079 -0.01842093
 -0.01840961 -0.01839623 -0.01838095 -0.01836366 -0.01834485 -0.0183246 -0.01830417 -0.01828398 -0.01826555 -0.0182496
 -0.01823635 -0.01822625 -0.01821739 -0.0182096 -0.01820089 -0.01819101 -0.01817986 -0.01816744 -0.01815485 -0.01814208
 -0.01812968 -0.0181175 -0.01810496 -0.0180921 -0.01807863 -0.01806492 -0.01805155 -0.01803891 -0.01802794 -0.01801843
 -0.01801075 -0.01800398 -0.01799761 -0.01799086 -0.01798309 -0.01797443 -0.01796466 -0.0179546 -0.01794442 -0.01793434
 -0.01792448 -0.01791416 -0.0179033 -0.01789181 -0.01787969 -0.01786818 -0.0178573 -0.01784796 -0.01783985 -0.01783198
 -0.01782389 -0.01781349 -0.01780106 -0.01778599 -0.01776918 -0.01775178 -0.01773428 -0.01771783 -0.01770194 -0.01768648
 -0.01767132 -0.01765615 -0.01764183 -0.01762856 -0.01761712 -0.01760784 -0.01760043 -0.01759502 -0.01759032 -0.01758628
 -0.01758164 -0.01757636 -0.01756993 -0.01756236 -0.0175534 -0.0175431 -0.01753146 -0.01751862 -0.01750496 -0.01749082
 -0.01747707 -0.01746407 -0.01745273 -0.01744312 -0.01743578 -0.01743028 -0.01742669 -0.01742386 -0.01742157 -0.0174177
 -0.01741155 -0.01740144 -0.01738651 -0.01736796 -0.01734556 -0.017323 -0.01730059 -0.01728066 -0.0172633 -0.01724743
 -0.01723295 -0.01721822 -0.01720347 -0.01718934 -0.017176 -0.01716464 -0.01715467 -0.0171455 -0.01713636 -0.01712553
 -0.01711339 -0.0170994 -0.01708484 -0.01707052 -0.01705728 -0.01704594 -0.01703616 -0.01702821 -0.01702058 -0.01701305
 -0.01700393 -0.01699289 -0.01697909 -0.01696234 -0.01694309 -0.01692137 -0.01689901 -0.01687613 -0.01685471 -0.01683465
 -0.01681652 -0.01679986 -0.01678334 -0.01676665 -0.01674819 -0.01672855 -0.01670771 -0.01668706 -0.01666824 -0.01665176
 -0.01663901 -0.01662838 -0.01661973 -0.01661049 -0.01659958 -0.01658594 -0.01656877 -0.01654955 -0.01652823 -0.01650735
 -0.01648716 -0.01646916 -0.01645342 -0.01643951 -0.01642733 -0.01641546 -0.01640396 -0.01639235 -0.01638092 -0.01637067
 -0.01636131 -0.01635303 -0.01634473 -0.01633475 -0.01632236 -0.01630555 -0.01628571 -0.01626287 -0.01623964 -0.01621755
 -0.01619781 -0.01618154 -0.01616763 -0.01615608 -0.01614549 -0.01613551 -0.01612614 -0.01611731 -0.01610975 -0.0161035
 -0.01609854 -0.01609481 -0.01609151 -0.01608847 -0.0160844 -0.01607911 -0.01607118 -0.01606069 -0.01604691 -0.01603057
 -0.01601235 -0.01599351 -0.01597581 -0.01595995 -0.01594722 -0.01593721 -0.01593017 -0.01592506 -0.0159216 -0.01591887
 -0.01591657 -0.01591441 -0.01591233 -0.01591011 -0.01590769 -0.01590521 -0.01590269 -0.01590039 -0.01589829 -0.01589618
 -0.01589392 -0.01589057 -0.01588606 -0.01587941 -0.01587114 -0.01586182 -0.01585232 -0.01584441 -0.01583858 -0.01583644
 -0.0158371 -0.0158408 -0.01584527 -0.01584925 -0.01585124 -0.01584998 -0.01584652 -0.01584064 -0.01583474 -0.01582936
 -0.01582495 -0.01582181 -0.01581753 -0.01581201 -0.01580322 -0.01579125 -0.01577713 -0.01576125 -0.0157469 -0.01573406
 -0.01572459 -0.01571802 -0.01571406 -0.01571231 -0.01571181 -0.01571271 -0.01571487 -0.01571828 -0.01572325 -0.01572867
 -0.01573423 -0.01573827 -0.01574004 -0.0157387 -0.01573373 -0.01572572 -0.01571463 -0.01570156 -0.01568659 -0.01567064
 -0.01565376 -0.0156371 -0.01562076 -0.01560659 -0.01559461 -0.01558607 -0.0155807 -0.01557823 -0.01557824 -0.0155795
 -0.01558159 -0.01558324 -0.01558414 -0.01558338 -0.01558095 -0.01557641 -0.01557019 -0.0155624 -0.01555356 -0.01554405
 -0.01553362 -0.01552232 -0.01550957 -0.01549514 -0.01547952 -0.01546258 -0.01544647 -0.0154313 -0.0154191 -0.01540985
 -0.01540327 -0.01539903 -0.01539484 -0.01539055 -0.01538437 -0.0153765 -0.01536655 -0.01535487 -0.01534204 -0.01532807
 -0.01531328 -0.01529725 -0.01527964 -0.01526037 -0.01523904 -0.01521665 -0.01519324 -0.01517076 -0.01514968 -0.01513178
 -0.01511763 -0.01510712 -0.01510046 -0.01509552 -0.01509219 -0.01508775 -0.01508209 -0.01507356 -0.01506227 -0.0150483
 -0.01503197 -0.01501461 -0.01499669 -0.0149802 -0.01496528 -0.01495342 -0.01494361 -0.01493551 -0.01492712 -0.01491649
 -0.01490242 -0.01488304 -0.01486007 -0.01483326 -0.0148065 -0.01478094 -0.01475887 -0.0147413 -0.01472659 -0.01471481
 -0.01470266 -0.01468989 -0.01467501 -0.01465804 -0.0146402 -0.01462166 -0.01460424 -0.0145878 -0.01457276 -0.01455885
 -0.01454548 -0.01453278 -0.0145208 -0.01450945 -0.01449894 -0.01448833 -0.0144771 -0.01446377 -0.0144471 -0.01442688
 -0.01440235 -0.01437522 -0.01434555 -0.01431615 -0.01428752 -0.01426182 -0.01423947 -0.01422071 -0.01420568 -0.01419221
 -0.01418013 -0.01416621 -0.01415041 -0.01413111 -0.01410862 -0.01408337 -0.01405569 -0.01402671 -0.01399659 -0.01396607
 -0.01393539 -0.01390499 -0.01387543 -0.01384741 -0.01382128 -0.01379758 -0.01377608 -0.0137569 -0.01373931 -0.01372316
 -0.01370762 -0.01369252 -0.01367726 -0.01366175 -0.01364558 -0.01362872 -0.01361063 -0.01359129 -0.01357025 -0.01354754
 -0.01352314 -0.01349718 -0.01347026 -0.01344239 -0.01341392 -0.01338486 -0.01335519 -0.01332549 -0.01329639 -0.0132688
 -0.0132439 -0.01322181 -0.0132035 -0.01318695 -0.01317182 -0.01315518 -0.01313597 -0.01311282 -0.01308498 -0.01305379
 -0.0130192 -0.01298362 -0.0129472 -0.01291241 -0.01287936 -0.01284974 -0.01282347 -0.01280079 -0.0127813 -0.01276322
 -0.01274626 -0.01272848 -0.0127103 -0.01269151 -0.01267302 -0.01265621 -0.01264116 -0.01262864 -0.01261802 -0.01260907
 -0.01260145 -0.01259483 -0.01258941 -0.01258529 -0.01258217 -0.01258011 -0.01257823 -0.01257634 -0.01257471 -0.01257328
 -0.0125737 -0.01257603 -0.01258169 -0.01259057 -0.01260241 -0.01261695 -0.0126327 -0.01264965 -0.0126669 -0.01268466
 -0.012703 -0.01272209 -0.01274229 -0.01276334 -0.01278535 -0.01280735 -0.01282891 -0.01284866 -0.0128658 -0.01287981
 -0.0128902 -0.01289764 -0.01290199 -0.01290503 -0.01290697 -0.01290936 -0.01291239 -0.01291633 -0.01292117 -0.01292511
 -0.01292795 -0.01292699 -0.01292223 -0.01291193 -0.01289696 -0.0128787 -0.01285894 -0.01284185 -0.01282944 -0.01282676
 -0.01283396 -0.01285401 -0.0128833 -0.0129209 -0.01296143 -0.01300187 -0.01303967 -0.01307294 -0.01310269 -0.01312878
 -0.01315262 -0.01317446 -0.01319456 -0.01321302 -0.01322894 -0.01324231 -0.01325273 -0.01326034 -0.01326641 -0.01327132
 -0.01327791 -0.01328612 -0.0132975 -0.01331113 -0.01332588 -0.01334065 -0.01335318 -0.0133631 -0.01336902 -0.01337149
 -0.01337034 -0.0133666 -0.01336065 -0.01335368 -0.01334601 -0.01333911 -0.01333337 -0.01332966 -0.01332828 -0.01332877
 -0.01333116 -0.01333405 -0.01333735 -0.01333912 -0.0133392 -0.01333526 -0.01332735 -0.01331426 -0.01329679 -0.01327651
 -0.01325497 -0.01323663 -0.01322186 -0.0132138 -0.01321055 -0.01321161 -0.01321404 -0.0132155 -0.01321411 -0.01320806
 -0.0131975 -0.01318165 -0.01316296 -0.01314166 -0.01312082 -0.013101 -0.01308354 -0.01306871 -0.01305547 -0.01304377
 -0.01303133 -0.01301809 -0.01300243 -0.01298439 -0.01296334 -0.01293931 -0.01291205 -0.01288158 -0.01284728 -0.01281042
 -0.01277179 -0.0127351 -0.01270484 -0.0126832 -0.01267485 -0.01267507 -0.01268341 -0.01269297 -0.0127008 -0.01270443
 -0.01270227 -0.01269618 -0.0126862 -0.01267416 -0.01266025 -0.01264506 -0.01262861 -0.01261241 -0.01259664 -0.01258434
 -0.0125754 -0.01257121 -0.01257085 -0.0125719 -0.01257354 -0.01257253 -0.01256882 -0.01256079 -0.01254902 -0.01253338
 -0.01251508 -0.01249482 -0.0124741 -0.01245372 -0.01243519 -0.0124193 -0.01240654 -0.01239741 -0.01239066 -0.01238644
 -0.01238158 -0.01237578 -0.01236676 -0.01235439 -0.01233914 -0.0123212 -0.01230284 -0.01228414 -0.01226686 -0.01225077
 -0.01223606 -0.01222236 -0.01220882 -0.01219541 -0.01218158 -0.01216776 -0.01215428 -0.01214137 -0.01212949 -0.0121181
 -0.0121071 -0.0120957 -0.01208342 -0.0120705 -0.01205684 -0.01204319 -0.01202987 -0.01201587 -0.01200123 -0.0119837
 -0.01196314 -0.01193889 -0.0119111 -0.01188175 -0.01185105 -0.01182145 -0.01179273 -0.01176544 -0.01173919 -0.01171324
 -0.01168751 -0.01166138 -0.01163536 -0.0116097 -0.01158512 -0.01156246 -0.01154165 -0.01152334 -0.0115055 -0.01148783
 -0.01146724 -0.01144272 -0.01141313 -0.01137765 -0.01133952 -0.0112987 -0.01126169 -0.01122887 -0.01120335 -0.01118486
 -0.01116978 -0.01115772 -0.01114412 -0.01112935 -0.01111223 -0.01109347 -0.01107432 -0.01105514 -0.01103745 -0.01102052
 -0.01100431 -0.01098748 -0.01096862 -0.01094777 -0.01092385 -0.01089995 -0.0108772 -0.01085715 -0.01084116 -0.01082592
 -0.01081125 -0.01079308 -0.01077075 -0.01074408 -0.010713 -0.01068062 -0.01064708 -0.01061482 -0.01058377 -0.01055443
 -0.0105267 -0.01050056 -0.01047585 -0.01045235 -0.01042954 -0.01040636 -0.01038256 -0.01035723 -0.01033097 -0.01030402
 -0.01027687 -0.01025014 -0.01022297 -0.0101953 -0.01016575 -0.01013371 -0.01009959 -0.01006294 -0.01002734 -0.009993062
 -0.009963668 -0.009939473 -0.009918539 -0.009900541 -0.009879356 -0.009854779 -0.009822109 -0.009782147 -0.009735412 -0.009683132
 -0.009628982 -0.009573156 -0.009517728 -0.009462332 -0.00940693 -0.009352354 -0.009299157 -0.009248448 -0.00920166 -0.009157094
 -0.009115078 -0.009071188 -0.009024273 -0.008971296 -0.008911125 -0.008845049 -0.008772906 -0.008698234 -0.008621297 -0.008542753
 -0.008462495 -0.008378015 -0.008289416 -0.008196038 -0.008098667 -0.00800057 -0.007901576 -0.00780338 -0.007704285 -0.007602069
 -0.007495123 -0.007380791 -0.007257289 -0.0071232 -0.006974041 -0.006806972 -0.006618112 -0.006402696 -0.006169401 -0.005916927
 -0.005667238 -0.005423975 -0.005203713 -0.005009443 -0.004843316 -0.004705775 -0.004593315 -0.004505733 -0.004439387 -0.004393879
 -0.004364932 -0.004351558 -0.004348104 -0.004352185 -0.004355615 -0.004353846 -0.004335338 -0.004295219 -0.004222041 -0.004114622
 -0.00396714 -0.003782765 -0.003562074 -0.003306995 -0.003019297 -0.002696561 -0.002338412 -0.001942916 -0.001509095 -0.001039619
 -0.0005344327 1.645358E-06 0.0005683611 0.001160408 0.001777222 0.002407436 0.003049695 0.003686984 0.004320286 0.004943568
 0.005561319 0.006185858 0.006813763 0.007454079 0.008075891 0.008656773 0.009127893 0.009432037 0.009477816 0.009193944
 0.008516434 0.007386547 0.005833234 0.00382948 0.001528954 -0.001061677 -0.003705867 -0.006380401 -0.008858257 -0.01112053
 -0.01304104 -0.01461748 -0.01585581 -0.01676635 -0.0174342 -0.01786926 -0.01815901 -0.01830882 -0.01837737 -0.01836895
 -0.01831818 -0.01822931 -0.01812171 -0.01799824 -0.01786807 -0.01773233 -0.01759417 -0.01745391 -0.01731216 -0.01716967
 -0.01702636 -0.01688482 -0.01674546 -0.01661081 -0.01648136 -0.01635722 -0.0162385 -0.01612299 -0.01601055 -0.01589857
 -0.01578699 -0.01567381 -0.01555937 -0.01544394 -0.01532849 -0.01521605 -0.01510727 -0.01500526 -0.01490928 -0.01481977
 -0.01473537 -0.01465472 -0.01457756 -0.01450322 -0.01443206 -0.01436425 -0.01429949 -0.01423788 -0.01417839 -0.01412096
 -0.01406403 -0.01400742 -0.01394976 -0.01389093 -0.0138306 -0.0137688 -0.01370692 -0.01364511 -0.01358528 -0.01352755
 -0.01347344 -0.01342306 -0.01337773 -0.01333711 -0.0133015 -0.01326967 -0.01324016 -0.01321172 -0.01318225 -0.0131522
 -0.01312095 -0.01309018 -0.01306077 -0.01303291 -0.01300726 -0.01298158 -0.01295562 -0.01292711 -0.01289554 -0.01286123
 -0.01282407 -0.0127867 -0.01274926 -0.0127144 -0.01268209 -0.01265302 -0.01262689 -0.01260268 -0.01257999 -0.01255704
 -0.01253369 -0.0125087 -0.01248241 -0.01245481 -0.01242628 -0.01239738 -0.01236786 -0.01233774 -0.0123066 -0.0122739
 -0.01224065 -0.01220675 -0.01217458 -0.01214476 -0.01211837 -0.01209584 -0.01207562 -0.01205766 -0.01203946 -0.0120209
 -0.01200042 -0.01197808 -0.01195392 -0.01192813 -0.01190166 -0.01187465 -0.01184821 -0.01182215 -0.01179669 -0.01177138
 -0.01174565 -0.01171923 -0.01169155 -0.01166268 -0.01163233 -0.01160124 -0.01156944 -0.01153863 -0.0115093 -0.01148301
 -0.01146044 -0.01144105 -0.01142512 -0.01140967 -0.01139448 -0.01137727 -0.01135792 -0.01133671 -0.01131378 -0.01129089
 -0.01126809 -0.01124656 -0.01122626 -0.01120775 -0.01119078 -0.01117524 -0.0111605 -0.01114562 -0.01112993 -0.01111221
 -0.01109265 -0.01107074 -0.01104772 -0.01102403 -0.01100078 -0.01097854 -0.01095744 -0.01093778 -0.01091841 -0.01089921
 -0.0108791 -0.0108579 -0.01083576 -0.01081268 -0.01078986 -0.01076732 -0.0107459 -0.01072545 -0.01070557 -0.01068612
 -0.01066629 -0.01064635 -0.01062636 -0.01060701 -0.01058932 -0.01057394 -0.0105621 -0.01055356 -0.01054896 -0.01054653
 -0.01054591 -0.01054431 -0.01054066 -0.01053342 -0.01052177 -0.01050666 -0.01048799 -0.01046774 -0.01044609 -0.0104238
 -0.01040089 -0.01037727 -0.01035305 -0.01032966 -0.01030741 -0.01028905 -0.01027412 -0.01026281 -0.0102538 -0.01024396
 -0.0102328 -0.01021764 -0.01020001 -0.01018049 -0.0101606 -0.01014211 -0.01012445 -0.01010808 -0.01009111 -0.0100728
 -0.01005258 -0.01002995 -0.01000591 -0.009980383 -0.009955627 -0.009931763 -0.009911747 -0.009895745 -0.009885636 -0.009881284
 -0.009881549 -0.009885953 -0.009890988 -0.009896612 -0.009900698 -0.009903764 -0.009906027 -0.00990782 -0.009910096 -0.00991213
 -0.009913673 -0.009913456 -0.009910364 -0.009903745 -0.00989254 -0.009878137 -0.009860417 -0.00984234 -0.009824639 -0.009809183
 -0.009796619 -0.009786003 -0.009777446 -0.009768 -0.009757502 -0.009743691 -0.009726606 -0.009706227 -0.009682825 -0.009658066
 -0.009632058 -0.009606118 -0.009580084 -0.009554239 -0.009528366 -0.009502157 -0.009475674 -0.009448993 -0.00942182 -0.009393999
 -0.009365123 -0.009334607 -0.009303421 -0.009271368 -0.009241237 -0.009214027 -0.009189822 -0.009169378 -0.009147682 -0.009124432
 -0.009093936 -0.009055813 -0.009010971 -0.008959789 -0.008908433 -0.008856853 -0.008808144 -0.008761157 -0.008712905 -0.008663189
 -0.008609166 -0.008553294 -0.008498177 -0.008446613 -0.008403705 -0.008368637 -0.008343197 -0.008323529 -0.00830754 -0.00829403
 -0.008281206 -0.008272677 -0.008269132 -0.008273031 -0.008285676 -0.008302386 -0.008323095 -0.008340136 -0.008353009 -0.008359592
 -0.00836024 -0.008360512 -0.008360846 -0.008367195 -0.008378749 -0.008395887 -0.008416917 -0.008437597 -0.008457268 -0.008472474
 -0.008484297 -0.008492552 -0.008498717 -0.008504282 -0.008509179 -0.008514075 -0.008517535 -0.008518962 -0.008518102 -0.008514304
 -0.008510149 -0.008505746 -0.008504868 -0.008508027 -0.008516665 -0.008530961 -0.00854794 -0.008567341 -0.008584371 -0.008599013
 -0.008608719 -0.008613901 -0.008614853 -0.008611832 -0.008605579 -0.008596311 -0.008584397 -0.008570922 -0.008556974 -0.008544534
 -0.008535789 -0.008531497 -0.008533214 -0.008539172 -0.008549346 -0.008560844 -0.008572947 -0.008583374 -0.008591502 -0.008596793
 -0.008599001 -0.008599411 -0.008598073 -0.008596802 -0.008595634 -0.008595159 -0.008595322 -0.008595968 -0.008597168 -0.008599254
 -0.008602097 -0.008605748 -0.008609511 -0.008612132 -0.008613139 -0.008611098 -0.008606862 -0.008600482 -0.008593417 -0.008586749
 -0.008580688 -0.008575862 -0.00857095 -0.008565924 -0.008558629 -0.008548778 -0.008534115 -0.008514239 -0.008488893 -0.008457954
 -0.008424701 -0.008389378 -0.008356812 -0.00832702 -0.008302524 -0.008282849 -0.00826753 -0.008255848 -0.008245726 -0.008236512
 -0.00822603 -0.008214023 -0.008198895 -0.008181848 -0.008163107 -0.008144653 -0.008127986 -0.008113558 -0.008102335 -0.008092476
 -0.008083747 -0.008074183 -0.008063303 -0.008050457 -0.008035504 -0.008018197 -0.007998494 -0.007976728 -0.007952965 -0.007928628
 -0.00790388 -0.007880743 -0.00785912 -0.007839717 -0.007822263 -0.007806373 -0.007791873 -0.007778217 -0.007765448 -0.007753314
 -0.007742162 -0.007732294 -0.007723733 -0.007716918 -0.00771057 -0.007704552 -0.007696602 -0.007685882 -0.00767171 -0.007653505
 -0.007633279 -0.007611123 -0.00758955 -0.007568784 -0.007549156 -0.007530682 -0.00751343 -0.007497545 -0.007484373 -0.007473901
 -0.00746714 -0.007463238 -0.007460457 -0.007457698 -0.007451804 -0.007442759 -0.007428991 -0.007411547 -0.007390733 -0.007367824
 -0.007343556 -0.007319325 -0.007295757 -0.007274345 -0.007255841 -0.007240186 -0.007227726 -0.007216612 -0.00720672 -0.007195979
 -0.007184195 -0.007170942 -0.007156227 -0.00714067 -0.00712432 -0.007107744 -0.007091091 -0.007075374 -0.007060671 -0.007048009
 -0.007036749 -0.007026317 -0.007015606 -0.00700253 -0.006987364 -0.006969061 -0.006949924 -0.006931197 -0.006914404 -0.006901181
 -0.006889564 -0.006879637 -0.006867895 -0.006853422 -0.006835287 -0.006812972 -0.006789012 -0.006763464 -0.006740675 -0.006720869
 -0.006708194 -0.006702598 -0.00670584 -0.006716936 -0.006732729 -0.006751323 -0.006765394 -0.0067739 -0.006770623 -0.00675712
 -0.006732255 -0.006699815 -0.006662812 -0.00662482 -0.006589257 -0.006557581 -0.006531662 -0.006510349 -0.006493969 -0.006479821
 -0.006467363 -0.006454941 -0.006442136 -0.006429387 -0.006416689 -0.006404771 -0.006393625 -0.006382045 -0.006369908 -0.006355274
 -0.006338569 -0.006320672 -0.006302414 -0.006287085 -0.006274501 -0.006266412 -0.006260881 -0.006255839 -0.006249857 -0.006240162
 -0.006227968 -0.006212942 -0.006197481 -0.00618298 -0.00616961 -0.006157991 -0.006146478 -0.006134537 -0.006122726 -0.006110747
 -0.006102175 -0.006097308 -0.006098165 -0.006104745 -0.006113613 -0.006124333 -0.00613111 -0.006134079 -0.006130663 -0.006121793
 -0.006109132 -0.006093178 -0.00607597 -0.006057123 -0.006036591 -0.006014952 -0.005992068 -0.005970677 -0.005952596 -0.005939915
 -0.005935098 -0.005935131 -0.005940476 -0.005944028 -0.005944379 -0.005936236 -0.005918319 -0.005890741 -0.005853193 -0.005810179
 -0.005761962 -0.005714805 -0.005669019 -0.00563012 -0.005598075 -0.005575879 -0.005562829 -0.005558538 -0.005561747 -0.005569747
 -0.005581222 -0.005593103 -0.005604514 -0.005613283 -0.005619533 -0.005622476 -0.005623215 -0.00562219 -0.005619876 -0.005616813
 -0.005611787 -0.005604635 -0.005594247 -0.005580222 -0.005563763 -0.005544783 -0.005527239 -0.005511325 -0.005499924 -0.005492705
 -0.005487179 -0.005482586 -0.005472928 -0.005459062 -0.005439704 -0.005418205 -0.005401748 -0.005391726 -0.005395223 -0.005407088
 -0.005425619 -0.005442782 -0.00545107 -0.00544918 -0.005432834 -0.00540929 -0.005379772 -0.005351675 -0.005327598 -0.005307936
 -0.005293547 -0.005279984 -0.005266966 -0.005250458 -0.005230263 -0.005206122 -0.00517835 -0.005150438 -0.005122862 -0.005100264
 -0.005082391 -0.005071181 -0.00506536 -0.005063264 -0.005063212 -0.005061914 -0.005058162 -0.005049071 -0.005035201 -0.005015456
 -0.004992703 -0.004967825 -0.004944097 -0.00492298 -0.004905856 -0.004893399 -0.004885643 -0.004882746 -0.004884185 -0.004890108
 -0.004897321 -0.004905644 -0.004908702 -0.004906351 -0.004894707 -0.004874473 -0.004847526 -0.004814836 -0.004780719 -0.004745682
 -0.004712736 -0.004682643 -0.004657742 -0.004638975 -0.004628517 -0.004626075 -0.004632673 -0.004645917 -0.004665598 -0.004686916
 -0.004708597 -0.004725158 -0.004734745 -0.004735676 -0.004726736 -0.00471306 -0.004694823 -0.004679048 -0.00466613 -0.004658379
 -0.004655722 -0.004657683 -0.004664164 -0.00467499 -0.004689075 -0.004703142 -0.004714728 -0.004715806 -0.004706239 -0.004680716
 -0.004644247 -0.004599629 -0.004553632 -0.004512922 -0.004480117 -0.004459212 -0.004447655 -0.004445929 -0.004449124 -0.004456411
 -0.0044627 -0.004466965 -0.004466689 -0.004461302 -0.004452548 -0.004440482 -0.004429722 -0.004420386 -0.004415127 -0.004413632
 -0.004415382 -0.004419932 -0.004425362 -0.004431524 -0.00443716 -0.004442185 -0.00444617 -0.004448358 -0.004447544 -0.004443711
 -0.004435375 -0.004426348 -0.004417037 -0.004415266 -0.004424739 -0.004447817 -0.004489019 -0.004530428 -0.004570549 -0.004588971
 -0.004582088 -0.004556208 -0.004511433 -0.004462955 -0.004411233 -0.004365067 -0.004324423 -0.004294066 -0.004272928 -0.00426074
 -0.004254009 -0.004243834 -0.004228005 -0.004196267 -0.00415489 -0.004105181 -0.004059319 -0.004029004 -0.004017946 -0.004034879
 -0.004067033 -0.004112973 -0.004155679 -0.00418947 -0.004208959 -0.004211212 -0.004203462 -0.004186013 -0.004166842 -0.004146523
 -0.004124687 -0.004101048 -0.004070283 -0.004032773 -0.003988011 -0.003937642 -0.00388803 -0.003839789 -0.003798285 -0.003761818
 -0.003729283 -0.003700678 -0.003673851 -0.003654352 -0.003646219 -0.003653209 -0.003681208 -0.003722093 -0.003775675 -0.003827984
 -0.003875047 -0.003908924 -0.00392715 -0.003929119 -0.003914157 -0.00388663 -0.003846677 -0.003803219 -0.003756726 -0.00371583
 -0.003680441 -0.003654134 -0.003636467 -0.003627636 -0.003627304 -0.003634999 -0.003649878 -0.003670647 -0.003695542 -0.003722362
 -0.003748398 -0.00377146 -0.003786996 -0.003792044 -0.003782643 -0.003755298 -0.003713231 -0.003655069 -0.00359242 -0.003526895
 -0.003468649 -0.003419505 -0.003379511 -0.003348876 -0.003322194 -0.003299377 -0.003278862 -0.003261149 -0.003249185 -0.003243253
 -0.003246302 -0.003257745 -0.003278457 -0.003305501 -0.003335328 -0.003361872 -0.00337585 -0.003373759 -0.003346483 -0.003302386
 -0.003240954 -0.003180357 -0.003127967 -0.003095951 -0.003091178 -0.003109159 -0.003151775 -0.003202594 -0.003260554 -0.00330698
 -0.003340528 -0.003348775 -0.003331759 -0.003291905 -0.003231471 -0.003168441 -0.003104708 -0.003058896 -0.00302884 -0.003018977
 -0.003024573 -0.003038432 -0.003058359 -0.003078517 -0.003098403 -0.003116725 -0.003129886 -0.00313591 -0.003130247 -0.003108698
 -0.003076355 -0.003031706 -0.002990539 -0.002955546 -0.002938434 -0.002942146 -0.002959959 -0.002991955 -0.003019739 -0.003042715
 -0.003051043 -0.003046237 -0.003035945 -0.003021549 -0.003014449 -0.003011808 -0.003012287 -0.003011047 -0.002996538 -0.002970324
 -0.002926967 -0.002877297 -0.002829158 -0.002791291 -0.002774522 -0.002772189 -0.002786691 -0.002800003 -0.002806749 -0.002797161
 -0.002766118 -0.002724692 -0.002672335 -0.002632424 -0.002606767 -0.002606348 -0.002631374</values></Ydata></AB><ScSm><Ydata ylabel="Single channel"><values byteorder="INTEL" format="FLOAT32" numvalues="1814"> 0.07514453 0.07523897 0.07534842 0.07547913 0.07562409 0.07576758 0.07589591 0.07600679 0.07610682 0.07619976
 0.07628575 0.07637335 0.07648036 0.07661558 0.07676661 0.07690833 0.07702109 0.07710703 0.07719314 0.07730678
 0.07743841 0.07753809 0.07756047 0.07751415 0.07745974 0.07745571 0.07751777 0.07764593 0.07786168 0.07815446
 0.07840329 0.07845415 0.07831325 0.07817402 0.07820223 0.07836989 0.07853656 0.07860521 0.07855871 0.07844576
 0.07840227 0.07860906 0.07912721 0.07976468 0.08013657 0.07988641 0.0789223 0.07754724 0.07638876 0.07607067
 0.07676177 0.07798808 0.07898849 0.07932882 0.07913662 0.07877642 0.07847053 0.07829291 0.07833556 0.07869214
 0.07930303 0.07989482 0.0800872 0.07964219 0.07873394 0.07791688 0.07767349 0.0780405 0.07877955 0.07966579
 0.08027127 0.07974915 0.07758389 0.07472881 0.07330897 0.07465793 0.07792274 0.0809523 0.08225657 0.08179396
 0.08034853 0.07883853 0.07807505 0.07848305 0.07982229 0.08142611 0.08273183 0.08343196 0.08333424 0.08245087
 0.08117972 0.08013397 0.07980093 0.080405 0.08181927 0.08342294 0.08434588 0.08415468 0.08317979 0.08208629
 0.08138306 0.08139636 0.08229467 0.0838879 0.08564615 0.08709172 0.08804722 0.08852868 0.08862843 0.08849712
 0.08826927 0.0880415 0.08797506 0.08821613 0.08860892 0.0887248 0.08833924 0.08773632 0.08742183 0.08760285
 0.08801065 0.08822584 0.08809285 0.08764334 0.08667283 0.08484167 0.08236794 0.08012761 0.07879254 0.07835643
 0.07870199 0.07989469 0.0815063 0.08241126 0.08193355 0.08077908 0.08028349 0.08098762 0.08232874 0.08350556
 0.08427614 0.08497259 0.08600248 0.08737845 0.08858734 0.08890656 0.08806518 0.08670527 0.08596016 0.08637321
 0.08741273 0.08821794 0.08856542 0.08886499 0.08942398 0.08998115 0.08992194 0.08892193 0.08748822 0.0867783
 0.08763665 0.08974893 0.09180091 0.09246258 0.09133086 0.08915496 0.08721489 0.08640151 0.08686739 0.08839107
 0.09069052 0.09328364 0.09541629 0.09644589 0.09628294 0.09537445 0.09421849 0.09289921 0.09125887 0.08962238
 0.08899368 0.0901142 0.09250273 0.09483229 0.09615017 0.09640771 0.09592877 0.09477156 0.09280913 0.09038195
 0.08858892 0.08849051 0.08992789 0.09156291 0.09230906 0.09234482 0.09249882 0.09306621 0.09361565 0.09373943
 0.093602 0.09369817 0.09425116 0.09498359 0.09546198 0.09553535 0.09538727 0.09527245 0.09526959 0.09523235
 0.09500547 0.09475841 0.094972 0.09592178 0.09729173 0.09848078 0.09918748 0.09952937 0.09968291 0.09958922
 0.09906305 0.09816714 0.09739372 0.09731665 0.09803359 0.09909236 0.09997113 0.100467 0.1006429 0.1006286
 0.1005339 0.1004214 0.1003222 0.1003095 0.1004848 0.1008399 0.1012192 0.1014742 0.1015838 0.1015953
 0.1015268 0.1013744 0.1011758 0.1010256 0.1010138 0.1011541 0.101385 0.1016336 0.1018451 0.1019669
 0.1019654 0.1018717 0.101764 0.1016948 0.1016675 0.1016801 0.1017482 0.1018742 0.1020216 0.1021392
 0.1022044 0.1022276 0.1022244 0.1022003 0.1021628 0.1021331 0.1021382 0.1021927 0.1022845 0.1023822
 0.102472 0.1025769 0.1027123 0.1028374 0.102889 0.10286 0.1028093 0.1027987 0.1028449 0.1029259
 0.1030072 0.1030549 0.1030438 0.1029743 0.1028908 0.1028671 0.1029527 0.1031396 0.1033846 0.1036437
 0.1038734 0.1040375 0.1041362 0.1042069 0.1042797 0.1043501 0.1044036 0.1044503 0.1045255 0.1046615
 0.1048551 0.1050648 0.1052443 0.1053746 0.1054639 0.1055402 0.1056427 0.105789 0.1059396 0.1060321
 0.1060612 0.106092 0.1061802 0.1063063 0.1064067 0.1064493 0.1064626 0.1064968 0.1065731 0.1066728
 0.1067692 0.106858 0.1069577 0.1070798 0.1072007 0.1072681 0.1072517 0.1071822 0.107123 0.1071063
 0.1071183 0.1071409 0.1071803 0.1072438 0.1073103 0.1073438 0.1073318 0.1073003 0.1072837 0.1072849
 0.1072744 0.1072276 0.1071507 0.1070702 0.1070074 0.1069666 0.1069358 0.1068953 0.1068306 0.1067414
 0.106639 0.1065337 0.1064273 0.1063223 0.1062382 0.1062051 0.106224 0.1062381 0.1061656 0.105975
 0.1057188 0.1054842 0.1053191 0.1052051 0.1050904 0.1049378 0.1047468 0.1045436 0.1043541 0.1041861
 0.1040312 0.1038802 0.1037378 0.1036218 0.1035438 0.1034836 0.1033946 0.1032451 0.1030511 0.1028588
 0.1027001 0.1025754 0.1024706 0.1023743 0.1022838 0.1022073 0.1021545 0.1021173 0.10207 0.1019986
 0.1019185 0.1018596 0.1018434 0.1018747 0.1019366 0.1019892 0.101997 0.1019649 0.1019343 0.10194
 0.1019823 0.1020436 0.1021153 0.1021989 0.1022939 0.1023964 0.1025068 0.1026318 0.1027768 0.1029384
 0.1031049 0.1032628 0.1034081 0.1035514 0.1037119 0.1039017 0.1041143 0.10433 0.1045325 0.1047219
 0.1049111 0.1051095 0.1053148 0.1055222 0.1057359 0.1059657 0.1062131 0.1064684 0.1067235 0.1069808
 0.1072481 0.1075283 0.1078191 0.1081216 0.1084473 0.1088078 0.1091939 0.1095705 0.1099056 0.1102044
 0.1105061 0.1108486 0.1112421 0.1116674 0.112091 0.1124867 0.112858 0.113238 0.1136556 0.114107
 0.1145708 0.1150456 0.1155566 0.1161188 0.1167034 0.1172506 0.1177208 0.1181312 0.1185329 0.118954
 0.1193716 0.1197476 0.1200762 0.1203844 0.1206929 0.1209978 0.1212922 0.1215848 0.1218844 0.1221779
 0.1224409 0.1226642 0.1228583 0.1230325 0.1231799 0.1232825 0.1233296 0.1233315 0.1233156 0.1233006
 0.1232744 0.1232068 0.1230871 0.1229393 0.1228009 0.1227003 0.1226601 0.1227044 0.1228463 0.1230735
 0.1233645 0.1237198 0.1241581 0.1246715 0.125204 0.1256962 0.1261399 0.1265695 0.1270083 0.1274517
 0.1278979 0.1283635 0.12886 0.1293725 0.1298723 0.1303423 0.1307907 0.1312425 0.1317124 0.1321795
 0.1325992 0.1329461 0.1332402 0.1335278 0.1338445 0.1341981 0.1345758 0.1349585 0.135329 0.1356712
 0.1359655 0.1361961 0.1363676 0.1365046 0.1366256 0.1367182 0.1367467 0.1366802 0.1365043 0.1362095
 0.1357822 0.1352167 0.1345391 0.1338177 0.1331508 0.1326385 0.1323573 0.1323467 0.1326073 0.1331008
 0.1337522 0.1344633 0.1351327 0.1356687 0.135992 0.136046 0.1358165 0.1353386 0.1346764 0.1338962
 0.1330546 0.1321965 0.1313569 0.1305783 0.1299421 0.1295749 0.1296118 0.1301453 0.131193 0.1326819
 0.134446 0.1362638 0.137942 0.1393884 0.1406123 0.1416667 0.1425999 0.1434473 0.1442395 0.1449972
 0.1457224 0.1464055 0.1470409 0.1476299 0.1481707 0.1486507 0.149051 0.1493555 0.1495605 0.1496801
 0.1497391 0.1497567 0.1497413 0.1497021 0.1496493 0.1495743 0.1494367 0.1491836 0.1487843 0.1482529
 0.1476597 0.1471358 0.1468611 0.1470177 0.1477103 0.1489018 0.1504189 0.1520339 0.153558 0.1548795
 0.1559532 0.156788 0.1574382 0.1579757 0.1584546 0.1588998 0.1593206 0.1597248 0.1601189 0.1605066
 0.1608885 0.1612657 0.1616443 0.1620346 0.1624437 0.1628717 0.1633175 0.1637848 0.1642784 0.1647946
 0.1653168 0.1658218 0.166296 0.1667443 0.1671781 0.1675961 0.1679857 0.1683425 0.1686814 0.1690237
 0.1693821 0.1697548 0.1701275 0.1704804 0.1708027 0.1711017 0.1713939 0.1716883 0.1719821 0.1722715
 0.1725585 0.1728472 0.1731381 0.1734298 0.1737231 0.1740175 0.1743067 0.1745815 0.1748396 0.1750887
 0.1753393 0.1755946 0.1758504 0.1761025 0.1763534 0.1766116 0.1768841 0.1771672 0.1774474 0.1777123
 0.1779613 0.1782033 0.1784474 0.1786963 0.1789482 0.1792002 0.1794524 0.179706 0.1799617 0.180218
 0.1804741 0.1807299 0.1809843 0.181236 0.1814855 0.1817353 0.1819864 0.182237 0.1824851 0.1827329
 0.1829859 0.1832448 0.1835015 0.1837458 0.1839768 0.1842026 0.1844303 0.1846614 0.1848952 0.1851331
 0.1853769 0.1856261 0.185877 0.1861256 0.1863706 0.1866135 0.1868558 0.1870975 0.1873402 0.1875858
 0.1878342 0.1880842 0.188335 0.1885854 0.1888332 0.1890777 0.1893195 0.1895587 0.1897958 0.1900333
 0.1902725 0.1905122 0.1907528 0.1909957 0.1912404 0.1914842 0.1917257 0.1919648 0.1922019 0.1924384
 0.1926758 0.1929135 0.1931501 0.1933863 0.1936237 0.1938623 0.1941009 0.1943375 0.1945712 0.1948041
 0.195041 0.1952837 0.1955293 0.1957741 0.1960171 0.1962585 0.1964994 0.1967402 0.1969787 0.1972128
 0.1974456 0.1976828 0.1979259 0.1981727 0.1984207 0.1986678 0.198913 0.1991579 0.1994041 0.1996501
 0.1998953 0.2001413 0.2003886 0.2006374 0.2008895 0.2011463 0.2014057 0.2016662 0.2019291 0.2021937
 0.2024565 0.2027159 0.2029715 0.2032211 0.2034635 0.2037001 0.2039304 0.2041543 0.2043759 0.2045993
 0.2048231 0.205045 0.2052661 0.2054883 0.2057142 0.2059491 0.2061944 0.2064436 0.2066917 0.2069405
 0.2071915 0.2074442 0.2077008 0.2079622 0.2082231 0.2084794 0.2087335 0.2089884 0.2092455 0.2095066
 0.2097713 0.2100357 0.2102997 0.2105667 0.2108348 0.2110998 0.2113633 0.2116286 0.2118948 0.2121627
 0.2124357 0.2127108 0.2129829 0.2132531 0.2135235 0.2137927 0.2140632 0.2143408 0.2146223 0.2148993
 0.2151703 0.2154379 0.2157035 0.215972 0.216247 0.2165226 0.216795 0.2170725 0.2173595 0.2176454
 0.2179233 0.2181968 0.2184676 0.2187358 0.2190068 0.2192793 0.2195442 0.2198017 0.2200569 0.2202991
 0.220494 0.2205515 0.2202214 0.21897 0.2159338 0.210031 0.2003181 0.1865048 0.1692642 0.1500447
 0.1305268 0.1121156 0.09570871 0.08174662 0.07038984 0.06164676 0.05544072 0.05170821 0.05050483 0.05212167
 0.0572309 0.06652509 0.07923259 0.09170383 0.09869654 0.0973966 0.09004448 0.08189925 0.0768521 0.07542159
 0.07614788 0.07766142 0.07946655 0.08175437 0.08492388 0.08909008 0.09402454 0.09965241 0.1063472 0.1144462
 0.1236027 0.1329018 0.141644 0.1498727 0.1581016 0.1666325 0.1752139 0.18329 0.1904453 0.1966001
 0.201921 0.2066461 0.2109617 0.2149734 0.2187437 0.2222942 0.225527 0.2281858 0.2299814 0.2308136
 0.2308851 0.2305954 0.2303074 0.2301965 0.2302831 0.230543 0.2309575 0.231509 0.2321793 0.2329496
 0.2337865 0.2346475 0.2355038 0.2363421 0.237149 0.2379104 0.2386179 0.2392664 0.2398571 0.2404017
 0.2409115 0.2413879 0.2418328 0.2422566 0.2426685 0.2430701 0.2434613 0.243839 0.2441946 0.2445215
 0.24482 0.2450934 0.2453488 0.2455996 0.2458556 0.2461129 0.2463655 0.2466147 0.2468639 0.2471127
 0.2473603 0.2476059 0.2478484 0.2480901 0.2483352 0.2485822 0.2488263 0.2490667 0.2493057 0.2495423
 0.2497774 0.2500156 0.2502587 0.2505022 0.2507402 0.2509714 0.2512006 0.2514381 0.2516907 0.2519526
 0.2522145 0.2524767 0.2527452 0.2530213 0.2533023 0.2535856 0.2538682 0.2541475 0.254425 0.2547011
 0.2549682 0.2552154 0.25544 0.2556511 0.2558638 0.2560888 0.2563246 0.2565624 0.2567977 0.2570325
 0.2572687 0.2575079 0.2577525 0.2580017 0.2582502 0.2584992 0.258759 0.2590345 0.2593192 0.2596058
 0.2598926 0.2601783 0.2604615 0.2607441 0.2610277 0.2613079 0.2615795 0.2618454 0.2621196 0.2624183
 0.2627449 0.2630809 0.263399 0.2636892 0.2639683 0.2642634 0.2645897 0.2649345 0.2652565 0.2655189
 0.2657359 0.2659731 0.266286 0.2666678 0.2670659 0.2674387 0.2677817 0.2681107 0.2684343 0.2687467
 0.2690354 0.2692937 0.2695339 0.2697928 0.2701088 0.2704818 0.2708672 0.2712221 0.2715411 0.2718408
 0.2721331 0.2724242 0.2727042 0.2729324 0.2730757 0.2731841 0.2733835 0.2737577 0.2742553 0.2747442
 0.2751444 0.2754776 0.2757977 0.2761197 0.2764296 0.2766997 0.2768595 0.2768304 0.2766694 0.2766203
 0.2769169 0.2775469 0.27828 0.2789014 0.279355 0.2796952 0.2799909 0.2802782 0.2805367 0.2806928
 0.280698 0.2806385 0.2807191 0.2810761 0.2816244 0.2821526 0.282546 0.2828499 0.2831476 0.2834655
 0.2837608 0.283907 0.2837476 0.2833102 0.2829474 0.2831078 0.2839027 0.2849797 0.2858756 0.2864279
 0.2867755 0.2870343 0.2871242 0.2869166 0.2863926 0.2856495 0.2849416 0.284719 0.2853355 0.2865961
 0.2878362 0.2885873 0.288979 0.2894038 0.2900046 0.2906148 0.2910322 0.2912013 0.2911761 0.290997
 0.2906727 0.2903233 0.2902634 0.2907763 0.2917855 0.2928746 0.2936805 0.2941796 0.2945194 0.2945947
 0.2939413 0.2922885 0.2902769 0.2892911 0.2902288 0.2925583 0.2948944 0.2963672 0.2970948 0.2975339
 0.2978844 0.2980351 0.297553 0.2958239 0.2928885 0.2901781 0.2896491 0.2918547 0.2953241 0.2979873
 0.2987582 0.2977577 0.2957847 0.2939422 0.2932482 0.2940883 0.2960539 0.2983568 0.3003008 0.3014785
 0.3018056 0.301476 0.300875 0.3004748 0.3005396 0.3007234 0.3002882 0.2990676 0.2978039 0.2970114
 0.2960309 0.2941002 0.2920439 0.2917595 0.2938685 0.2968202 0.2986959 0.299178 0.2991913 0.299038
 0.2976537 0.2940083 0.2890086 0.2854618 0.285677 0.2891657 0.2931256 0.2951908 0.2953033 0.2949212
 0.2949615 0.2948199 0.2932666 0.2901935 0.2872936 0.2865448 0.2879895 0.2896668 0.2897826 0.2879603
 0.2842867 0.2788729 0.2733607 0.2712235 0.2746978 0.282003 0.2889176 0.2924235 0.2916442 0.2865838
 0.2784401 0.2709277 0.2686132 0.272703 0.2796397 0.284552 0.2850966 0.2815602 0.2748835 0.2662556
 0.2581421 0.253971 0.2559553 0.2633216 0.2724401 0.278378 0.2774236 0.2700745 0.2617809 0.2588342
 0.2624491 0.2679672 0.2703363 0.2688625 0.2661537 0.2645632 0.2648922 0.2668381 0.2693355 0.2713909
 0.2728438 0.2729643 0.2690525 0.2594227 0.2478458 0.241553 0.2437806 0.2511542 0.2591729 0.2667409
 0.2736896 0.2775267 0.2760954 0.2718645 0.2703613 0.2742676 0.2808654 0.2855143 0.2863627 0.2850994
 0.2838787 0.2827511 0.2807361 0.2785954 0.2788644 0.2826983 0.2880642 0.2919456 0.2933628 0.2933769
 0.2930738 0.292652 0.291977 0.2910236 0.2898291 0.2885138 0.2872833 0.2862017 0.2851413 0.2840454
 0.2828544 0.2809057 0.2769906 0.270929 0.2649131 0.2619974 0.2628905 0.2655053 0.267944 0.2698662
 0.2700033 0.2651396 0.2543179 0.2425979 0.2375767 0.2420563 0.251826 0.2603983 0.2641305 0.2626636
 0.2567328 0.2478279 0.2397411 0.2379093 0.2452325 0.25905 0.273533 0.2846225 0.2915952 0.294812
 0.2941387 0.2900755 0.2850627 0.2825263 0.2845193 0.2903632 0.2971689 0.3011939 0.299474 0.2922605
 0.2846344 0.2834416 0.2905093 0.3002105 0.3056631 0.3059352 0.3050525 0.3056155 0.3065681 0.3067195
 0.3072326 0.3096572 0.3133783 0.3161243 0.3160051 0.3123106 0.3054995 0.2977396 0.2925634 0.2920766
 0.2946337 0.2967221 0.2965617 0.2941408 0.2890121 0.2812544 0.2742445 0.272859 0.277957 0.2851256
 0.2897401 0.2912876 0.2919381 0.2926217 0.2919107 0.2883648 0.2830313 0.2789902 0.2783114 0.2800808
 0.2818884 0.282438 0.2817565 0.2796871 0.2758857 0.2714192 0.2689072 0.2702011 0.2743974 0.2787146
 0.2810849 0.2815037 0.2812441 0.281508 0.2828159 0.2849929 0.2875089 0.2901828 0.2934805 0.2976558
 0.301826 0.3046554 0.3059702 0.3069997 0.3088601 0.3113183 0.3132449 0.3139125 0.3136516 0.3134522
 0.3140887 0.3154966 0.316837 0.3172333 0.3166339 0.3159755 0.3163442 0.317944 0.3200129 0.3216979
 0.3227693 0.3235061 0.3242152 0.3249632 0.3255461 0.3256569 0.3252918 0.3249978 0.325469 0.3268263
 0.3284781 0.3297248 0.3303344 0.3304999 0.3304407 0.3301941 0.3297281 0.3291155 0.3285416 0.328166
 0.3280123 0.3279914 0.3279991 0.3279772 0.3279192 0.3278592 0.3278478 0.3279116 0.328037 0.3281991
 0.3283814 0.3285584 0.3286948 0.3287831 0.3288552 0.3289289 0.3289641 0.3288895 0.3286497 0.3282074
 0.3275198 0.3265398 0.3252303 0.3235562 0.3214879 0.3190954 0.316709 0.3149514 0.3144838 0.3155896
 0.3179504 0.320824 0.323468 0.3254647 0.3267595 0.3274997 0.3278669 0.3280004 0.3279873 0.3278692
 0.3276606 0.3273712 0.3270199 0.3266317 0.3262332 0.32585 0.3255 0.3251847 0.3248878 0.3245798
 0.3242286 0.3238116 0.3233202 0.3227556 0.3221211 0.3214138 0.3206171 0.3197108 0.3186985 0.3176275
 0.3165689 0.3155733 0.3146427 0.3137395 0.3128197 0.3118456 0.3107651 0.3095047 0.3080411 0.306496
 0.3051032 0.3040257 0.3032115 0.3024562 0.3015823 0.3005358 0.2993464 0.2980592 0.2967104 0.2953256
 0.2939156 0.2924737 0.2909786 0.289399 0.2877083 0.2859035 0.2840042 0.2820377 0.2800298 0.2779993
 0.2759343 0.2737607 0.2713419 0.2685152 0.2651352 0.2611059 0.2564009 0.2510814 0.2453027 0.2392896
 0.2332828 0.2274889 0.2220663 0.2171451 0.2128445 0.2092719 0.2065079 0.2045974 0.2035567 0.2033894
 0.2040917 0.2056358 0.2079481 0.2109043 0.2143408 0.2180692 0.2218848 0.2255855 0.229021 0.2321482
 0.2350271 0.2377372 0.2402926 0.2426425 0.2447363 0.2465643 0.2481388 0.2494674 0.2505565 0.2514322
 0.2521445 0.2527483 0.2532797 0.2537473 0.2541431 0.2544596 0.2547015 0.2548882 0.2550489 0.2552135
 0.2554036 0.255629 0.2558919 0.2561976 0.2565617 0.2570045 0.2575364 0.2581487 0.2588186 0.2595252
 0.2602639 0.2610507 0.2619175 0.2629015 0.264036 0.2653419 0.2668183 0.2684326 0.2701144 0.2717614
 0.2732599 0.2745148 0.275474 0.2761337 0.2765208 0.2766677 0.2766 0.2763427 0.2759233 0.2753669
 0.2746963 0.2739386 0.2731225 0.2722639 0.2713603 0.2704042 0.269402 0.2683808 0.2673727 0.2663921
 0.2654352 0.2644982 0.2635866 0.2627046 0.2618491 0.2610193 0.260219 0.25945 0.2587118 0.2580032
 0.2573165 0.2566288 0.2559026 0.2550924 0.2541572 0.2530736 0.2518361 0.2504464 0.2489109 0.2472453
 0.2454683 0.2435931 0.2416273 0.2395768 0.2374463 0.2352388 0.2329506 0.2305694 0.2280989 0.2255964
 0.2231632 0.2208849 0.2187901 0.2168618 0.2150667 0.2133714 0.2117533 0.2102001 0.2087041 0.2072645
 0.2058889 0.2045837 0.2033487 0.2021861 0.2011043 0.2001125 0.1992231 0.1984499 0.1977922 0.1972315
 0.1967513 0.1963463 0.1960201 0.1957955 0.1957077 0.195757 0.1958774 0.1959729 0.1959805 0.1958998
 0.1957819 0.1956857 0.1956364 0.1956263 0.1956351 0.1956177 0.1954857 0.1951346 0.1944788 0.1934499
 0.1920028 0.1901533 0.1879932 0.185666 0.1833434 0.1811961 0.1793484 0.1778592 0.1767347 0.1759249
 0.1753278 0.1748524 0.1744871 0.174297 0.1743619 0.1746909 0.1751542 0.1755379 0.1757337 0.1758562
 0.176134 0.1767142 0.1775821 0.1786059 0.1796253 0.1805285 0.1812689 0.1818314 0.1822254 0.1824947
 0.1826765 0.1827612 0.1827235 0.1825627 0.1822872 0.1819071 0.181446 0.1809143 0.1802868 0.1795456
 0.1787054 0.1777749 0.1767486 0.1756282 0.1743911 0.1729865 0.1714529 0.1700094 0.1689695 0.168574
 0.1688758 0.1697141 0.1708268 0.172037 0.1732526 0.174286 0.1748922 0.1751342 0.1755674 0.1768506
 0.179135 0.1818996 0.1844029 0.186218 0.1872956 0.187681 0.1873875 0.1864692 0.1849835 0.182912
 0.1802666 0.1771865 0.173843 0.1703949 0.1670564 0.1640308 0.1614036 0.1592149 0.1575076 0.1563345
 0.155824 0.1555791 0.1534596 0.1465277 0.1353738 0.1264574 0.1269117 0.1366649 0.1482513 0.1547411
 0.1554531 0.1537236 0.1520819 0.1509967 0.1503494 0.150282 0.1509376 0.1521713 0.1535687 0.1546868
 0.1553421 0.1555769 0.1552937 0.1539881 0.1507708 0.1446881 0.1354232 0.1239526 0.1123162 0.1025205
 0.09560803 0.09151071 0.08940722 0.08825409 0.08736917 0.0867486 0.08684046 0.0880359 0.09038955 0.0937093
 0.09772868 0.1021077 0.1063761 0.1100728 0.1129934 0.1152047 0.1168194 0.1178735 0.1184015 0.1184843
 0.1182028 0.1176254 0.1168232 0.1158369 0.1146515 0.1132516 0.1117063 0.1102007 0.108973 0.1081699
 0.107753 0.1075741 0.1075176 0.1075345 0.1075974 0.1076875 0.1078058 0.1079647 0.1081853 0.1084881
 0.1088544 0.1092153 0.1095042 0.1096963 0.1097928 0.1097935 0.1096798 0.109425 0.1090532 0.1086573
 0.1082704 0.1077402 0.1068469 0.1055834 0.1042583 0.1033044 0.1029914 0.1032666 0.1038148 0.104289
 0.1045294 0.1045955 0.1046122 0.1045965</values></Ydata></ScSm><ScRf><Ydata ylabel="Single channel"><values byteorder="INTEL" format="FLOAT32" numvalues="1820"> 0.07053045 0.07066813 0.07078895 0.0708914 0.07098112 0.07107054 0.07117322 0.07129489 0.07143027 0.0715671
 0.07169306 0.07180333 0.07190132 0.07199071 0.07207316 0.07215698 0.07225861 0.07238673 0.07252936 0.07266086
 0.07276197 0.07283774 0.07291792 0.07302885 0.07315819 0.07325578 0.07327943 0.07323997 0.07319537 0.07319827
 0.07326007 0.07338001 0.07358089 0.07385622 0.07409288 0.07414316 0.07401013 0.07387709 0.07390441 0.07406778
 0.07423224 0.07430255 0.07426153 0.07415609 0.07411556 0.07431172 0.07480319 0.07540753 0.07575886 0.07552051
 0.07460856 0.07331091 0.07221863 0.07191879 0.07257111 0.07372935 0.07467583 0.07500105 0.07482521 0.07449085
 0.07420567 0.07403893 0.07407857 0.07441453 0.07499184 0.07555351 0.07573992 0.07532369 0.07446732 0.07369651
 0.07347126 0.07382669 0.07453275 0.07537219 0.07594104 0.07544306 0.07339408 0.07069625 0.06935865 0.07064093
 0.0737334 0.0765994 0.07783142 0.07739441 0.07603205 0.07461061 0.07389331 0.07427966 0.07554232 0.07705163
 0.0782774 0.07893285 0.07884033 0.07801162 0.0768178 0.07583299 0.07551764 0.07608827 0.07742792 0.0789483
 0.0798244 0.07964723 0.07873152 0.07770616 0.07704902 0.07706533 0.07791394 0.07941677 0.08107479 0.08243822
 0.08334108 0.08379906 0.08389787 0.08377797 0.08356632 0.08335566 0.08329877 0.08353096 0.08390144 0.08400568
 0.08363753 0.08307101 0.08278295 0.08296235 0.08334973 0.08354934 0.0834194 0.08299468 0.08208201 0.08035606
 0.07801907 0.07589925 0.07463514 0.07422399 0.07455646 0.07569337 0.07722569 0.07808439 0.07762983 0.07653393
 0.07606384 0.07673071 0.07799937 0.07911034 0.07983628 0.08049473 0.08147406 0.0827862 0.08394221 0.08425366
 0.08346133 0.0821737 0.08146679 0.08185739 0.08284238 0.08360636 0.08393833 0.0842271 0.0847629 0.08529639
 0.08524349 0.08429616 0.08293642 0.08226468 0.08308379 0.08509463 0.0870477 0.08767994 0.08660971 0.08454866
 0.08271112 0.08194201 0.08238646 0.08383527 0.08602193 0.08848864 0.09051713 0.09149449 0.09133583 0.09046929
 0.08937173 0.08812419 0.08657563 0.08503213 0.08444314 0.08550806 0.08776847 0.08996911 0.09121377 0.09146108
 0.09101637 0.08992878 0.08807309 0.08577184 0.08407047 0.083979 0.08534925 0.08691126 0.08763072 0.0876723
 0.08781944 0.08835388 0.08887186 0.08899072 0.08886507 0.08895917 0.08948208 0.09017342 0.09062602 0.09069721
 0.09055884 0.09045135 0.09045053 0.09041891 0.09020877 0.08998014 0.09018949 0.09109913 0.09240925 0.09354885
 0.09423102 0.09456594 0.09471901 0.09463322 0.09413383 0.09328313 0.09255093 0.09248281 0.09317027 0.09418186
 0.09502096 0.09549606 0.09566852 0.09566067 0.09557383 0.09546585 0.09536842 0.09535563 0.09552772 0.09587653
 0.09624987 0.09650185 0.09661136 0.09662627 0.09656706 0.0964295 0.09624624 0.09610555 0.0960961 0.09623551
 0.09646586 0.09671287 0.09691983 0.09703671 0.09703465 0.09694505 0.09684253 0.09677799 0.09675647 0.09677664
 0.09685232 0.09698337 0.09713224 0.09724943 0.09731482 0.09734146 0.09734556 0.09733021 0.09729956 0.09727344
 0.09728077 0.097339 0.0974361 0.09753846 0.09763056 0.09773528 0.09786956 0.09799479 0.09804922 0.09802541
 0.09798156 0.09797828 0.09802969 0.09811226 0.09819411 0.0982476 0.09825087 0.09820087 0.09813496 0.09812161
 0.09821009 0.09839495 0.09863613 0.09889095 0.09911811 0.09928418 0.0993893 0.09946636 0.09954162 0.09961328
 0.09967257 0.0997291 0.09981156 0.09994754 0.1001368 0.1003445 0.1005283 0.1006691 0.1007723 0.1008617
 0.100973 0.1011232 0.1012765 0.1013744 0.101412 0.1014517 0.101547 0.10168 0.1017902 0.1018464
 0.101874 0.1019203 0.1020061 0.1021143 0.1022185 0.102314 0.1024199 0.1025505 0.1026849 0.1027713
 0.1027776 0.1027311 0.1026927 0.1026942 0.1027229 0.1027627 0.1028215 0.1029069 0.1029975 0.1030558
 0.1030681 0.1030589 0.1030623 0.1030818 0.1030885 0.1030576 0.1029978 0.1029405 0.1029102 0.1029078
 0.1029153 0.1029102 0.1028789 0.1028228 0.1027538 0.1026836 0.1026166 0.1025548 0.1025128 0.1025159
 0.1025645 0.1026064 0.1025671 0.1024205 0.1022176 0.1020381 0.1019224 0.1018499 0.1017727 0.1016592
 0.1015127 0.1013596 0.1012237 0.1011104 0.1010104 0.100914 0.100824 0.1007566 0.1007249 0.100714
 0.100682 0.1005968 0.1004691 0.1003395 0.1002397 0.1001744 0.1001318 0.1000993 0.1000723 0.1000579
 0.1000643 0.1000826 0.1000898 0.1000761 0.1000588 0.1000649 0.1001121 0.1002034 0.100322 0.1004288
 0.1004895 0.1005111 0.1005373 0.1006022 0.100701 0.1008118 0.1009266 0.1010521 0.101192 0.1013435
 0.1015064 0.1016861 0.1018867 0.1021054 0.102332 0.1025551 0.1027702 0.1029852 0.1032154 0.1034705
 0.1037458 0.1040266 0.1043004 0.1045651 0.1048274 0.1050933 0.1053622 0.1056343 0.1059182 0.1062241
 0.1065502 0.1068809 0.1072019 0.1075124 0.1078218 0.1081375 0.1084587 0.1087833 0.1091199 0.1094815
 0.1098623 0.1102276 0.110543 0.1108114 0.1110719 0.1113623 0.1116915 0.1120403 0.1123767 0.1126762
 0.1129416 0.1132026 0.1134857 0.1137862 0.1140839 0.1143795 0.1147013 0.1150671 0.1154496 0.1157915
 0.1160582 0.1162707 0.1164816 0.11672 0.1169693 0.1172002 0.1174108 0.1176225 0.1178467 0.1180757
 0.1183059 0.1185509 0.11882 0.1190968 0.1193542 0.1195835 0.1197971 0.1200043 0.120196 0.1203532
 0.1204669 0.1205522 0.1206415 0.1207596 0.1209017 0.1210447 0.121179 0.1213183 0.1214778 0.1216579
 0.1218548 0.1220736 0.1223163 0.1225681 0.1228121 0.1230569 0.1233302 0.1236349 0.1239305 0.1241744
 0.1243704 0.1245568 0.1247571 0.124966 0.1251812 0.1254192 0.1256931 0.1259918 0.1262902 0.1265726
 0.1268461 0.127133 0.1274452 0.127762 0.1280414 0.128259 0.1284319 0.1286028 0.1288057 0.1290485
 0.1293177 0.1295927 0.1298573 0.1300989 0.130301 0.1304483 0.130544 0.1306123 0.1306708 0.130704
 0.1306725 0.1305456 0.1303142 0.1299753 0.1295169 0.1289312 0.1282421 0.1275157 0.1268461 0.1263271
 0.1260286 0.1259858 0.1261971 0.1266243 0.1271954 0.1278189 0.1284036 0.1288686 0.1291428 0.1291716
 0.128937 0.1284675 0.1278227 0.1270668 0.1262563 0.1254369 0.1246443 0.1239192 0.1233359 0.1230118
 0.1230751 0.1236137 0.1246387 0.1260688 0.1277352 0.1294256 0.130966 0.1322843 0.133402 0.1343742
 0.1352449 0.1360449 0.1368003 0.1375275 0.1382254 0.1388858 0.1395067 0.1400918 0.1406373 0.1411275
 0.1415424 0.1418683 0.1421039 0.1422613 0.1423593 0.1424124 0.1424311 0.1424294 0.1424187 0.1423865
 0.1422882 0.1420718 0.1417149 0.141243 0.1407308 0.1403011 0.140115 0.1403304 0.1410323 0.1421763
 0.1436 0.1451013 0.1465182 0.1477541 0.1487666 0.1495597 0.1501796 0.1506903 0.1511414 0.1515566
 0.1519453 0.1523141 0.1526677 0.1530089 0.1533406 0.1536678 0.1539984 0.1543381 0.1546837 0.1550244
 0.155353 0.1556744 0.1560019 0.1563446 0.1566983 0.1570493 0.157391 0.1577332 0.158088 0.1584496
 0.1587974 0.1591195 0.1594245 0.15973 0.1600481 0.1603814 0.160723 0.1610585 0.1613744 0.1616683
 0.1619491 0.1622272 0.1625082 0.1627924 0.163078 0.163363 0.1636461 0.1639277 0.1642094 0.1644912
 0.1647678 0.1650318 0.1652818 0.1655273 0.1657814 0.1660468 0.1663142 0.1665722 0.1668207 0.1670709
 0.1673332 0.1676062 0.1678774 0.1681363 0.1683837 0.168627 0.1688722 0.1691196 0.1693669 0.1696129
 0.1698586 0.1701065 0.1703573 0.1706098 0.1708623 0.1711147 0.171368 0.1716222 0.1718757 0.1721258
 0.1723715 0.1726142 0.1728566 0.1731017 0.173352 0.1736079 0.1738643 0.1741131 0.1743505 0.1745791
 0.1748034 0.1750275 0.1752555 0.1754909 0.1757328 0.1759776 0.1762232 0.1764696 0.1767167 0.1769632
 0.1772066 0.1774459 0.1776821 0.1779177 0.1781543 0.1783935 0.1786372 0.1788852 0.1791345 0.1793807
 0.1796206 0.1798531 0.1800806 0.1803083 0.1805399 0.1807754 0.181013 0.1812515 0.1814905 0.1817308
 0.1819724 0.1822128 0.1824493 0.1826831 0.182917 0.1831517 0.1833865 0.1836216 0.183857 0.1840908
 0.1843229 0.1845555 0.1847899 0.1850261 0.1852641 0.1855029 0.1857403 0.1859756 0.1862094 0.1864432
 0.1866793 0.1869199 0.1871623 0.187402 0.1876389 0.1878764 0.1881159 0.1883573 0.1886006 0.1888449
 0.1890878 0.1893296 0.1895721 0.1898152 0.1900589 0.1903044 0.1905522 0.1907997 0.191045 0.1912893
 0.191535 0.1917865 0.1920467 0.1923122 0.1925757 0.1928337 0.1930861 0.1933336 0.1935774 0.193818
 0.1940518 0.1942754 0.1944929 0.1947111 0.1949309 0.1951512 0.1953736 0.1956001 0.1958312 0.1960678
 0.1963087 0.1965509 0.1967958 0.1970471 0.1973024 0.1975553 0.1978048 0.1980537 0.1983027 0.1985536
 0.19881 0.1990702 0.1993303 0.1995911 0.1998542 0.2001161 0.2003752 0.2006346 0.2008955 0.2011571
 0.2014222 0.2016926 0.2019646 0.2022363 0.2025089 0.2027785 0.20304 0.2032974 0.2035584 0.2038248
 0.2040963 0.2043723 0.2046477 0.2049183 0.2051873 0.2054571 0.2057239 0.205989 0.2062585 0.2065309
 0.2068019 0.2070754 0.2073541 0.2076317 0.2079051 0.2081769 0.2084454 0.2087092 0.2089748 0.2092434
 0.2095075 0.2097674 0.2100291 0.2102812 0.2104864 0.2105535 0.2102436 0.2090511 0.2061547 0.2005225
 0.1912544 0.1780728 0.1616175 0.1432695 0.124637 0.1070662 0.09141324 0.07809287 0.06725413 0.0589064
 0.05298044 0.04941756 0.04827041 0.04981642 0.0546983 0.06357966 0.07572585 0.08765031 0.09434018 0.09310061
 0.08607182 0.07828528 0.07346508 0.07210638 0.07281057 0.07426643 0.07599937 0.07819192 0.08122728 0.08521654
 0.08993816 0.09531668 0.1017114 0.1094525 0.1182127 0.1271155 0.1354875 0.1433666 0.1512426 0.1594057
 0.1676201 0.175358 0.1822205 0.1881252 0.1932261 0.1977502 0.2018782 0.2057153 0.2093256 0.2127328
 0.2158425 0.2184051 0.2201399 0.2209491 0.2210265 0.220756 0.2204883 0.2203937 0.2204909 0.2207548
 0.2211668 0.2217086 0.2223602 0.2231034 0.2239112 0.2247475 0.2255823 0.2263956 0.2271712 0.2279003
 0.2285824 0.2292153 0.2297956 0.2303282 0.2308228 0.2312853 0.2317223 0.2321439 0.2325549 0.2329528
 0.2333373 0.2337081 0.2340601 0.2343884 0.2346933 0.2349766 0.2352419 0.2354984 0.2357543 0.2360096
 0.2362622 0.2365141 0.2367664 0.237018 0.2372689 0.2375189 0.2377652 0.2380078 0.2382505 0.2384944
 0.2387371 0.2389783 0.2392183 0.239456 0.2396931 0.2399344 0.2401793 0.2404219 0.2406591 0.2408936
 0.2411309 0.2413777 0.2416375 0.2419054 0.2421728 0.2424384 0.2427058 0.2429768 0.2432513 0.2435292
 0.2438087 0.2440878 0.2443679 0.2446483 0.2449193 0.245168 0.2453908 0.2455972 0.2458047 0.2460288
 0.2462723 0.246525 0.2467751 0.2470199 0.2472632 0.2475092 0.2477592 0.2480102 0.2482591 0.2485113
 0.2487768 0.249057 0.2493427 0.2496272 0.2499118 0.2501993 0.2504903 0.2507859 0.2510839 0.251376
 0.2516563 0.2519308 0.2522161 0.2525268 0.252861 0.2531977 0.2535138 0.2538064 0.2540947 0.2544025
 0.2547391 0.255089 0.2554132 0.255679 0.2559009 0.2561403 0.2564511 0.2568317 0.2572361 0.2576215
 0.2579763 0.2583111 0.2586361 0.2589485 0.2592366 0.2594927 0.2597287 0.2599819 0.2602923 0.2606631
 0.2610524 0.261416 0.2617431 0.2620454 0.2623345 0.262619 0.2628917 0.2631141 0.263255 0.2633624
 0.2635572 0.2639207 0.2644055 0.264886 0.2652829 0.2656121 0.2659216 0.2662273 0.2665222 0.2667848
 0.2669457 0.2669238 0.2667728 0.2667324 0.2670321 0.2676578 0.2683803 0.2689884 0.2694289 0.2697567
 0.2700385 0.2703094 0.2705528 0.2707023 0.270714 0.2706702 0.2707658 0.2711303 0.2716787 0.2722028
 0.2725897 0.2728838 0.2731688 0.273474 0.2737609 0.2739083 0.2737645 0.2733544 0.2730184 0.2731909
 0.2739781 0.2750356 0.2759118 0.2764508 0.2767917 0.2770506 0.277151 0.2769672 0.2764803 0.2757854
 0.2751285 0.2749417 0.2755618 0.2767959 0.278002 0.2787321 0.2791176 0.2795415 0.2801415 0.280753
 0.2811755 0.2813521 0.281338 0.2811802 0.2808926 0.2805883 0.280561 0.2810783 0.2820691 0.2831384
 0.2839386 0.2844442 0.2847937 0.2848845 0.2842689 0.2826851 0.2807527 0.2798144 0.2807439 0.283029
 0.2853263 0.2867869 0.2875191 0.2879636 0.288319 0.288485 0.2880464 0.2864068 0.2836023 0.2810161
 0.2805411 0.2827115 0.2861013 0.2887053 0.2894728 0.2885228 0.2866309 0.2848669 0.2842188 0.2850615
 0.2869995 0.2892674 0.2911896 0.29237 0.292724 0.2924351 0.2918749 0.291507 0.2915961 0.2918112
 0.2914334 0.2902951 0.2891107 0.2883754 0.2874492 0.2855964 0.2836224 0.2833695 0.2854381 0.28832
 0.2901528 0.2906292 0.2906471 0.2905009 0.2891584 0.2856185 0.2807584 0.2773024 0.2774942 0.2808622
 0.2846862 0.286668 0.2867509 0.2863519 0.2863644 0.2862065 0.2846864 0.2816979 0.2788802 0.2781495
 0.2795463 0.2811711 0.2812888 0.279537 0.2759944 0.2707555 0.2654006 0.263297 0.2666239 0.2736663
 0.2803361 0.2837054 0.2829222 0.2779906 0.2700751 0.262779 0.2605279 0.2644853 0.2711974 0.2759433
 0.2764578 0.2730234 0.2665517 0.2581925 0.2503329 0.2462938 0.2482195 0.2553606 0.2642 0.2699583
 0.2690416 0.2619335 0.2539136 0.2510734 0.254586 0.2599367 0.2622345 0.2608136 0.2582048 0.2566858
 0.2570271 0.2589324 0.2613698 0.2633801 0.2648109 0.2649553 0.2611926 0.2518843 0.240684 0.2346003
 0.2367687 0.2439209 0.2517012 0.2590544 0.2658148 0.269558 0.2681871 0.2640955 0.2626461 0.2664425
 0.2728505 0.2773701 0.2782068 0.2770005 0.2758395 0.2747679 0.272828 0.270758 0.271025 0.2747588
 0.2799894 0.2837839 0.2851849 0.2852193 0.2849424 0.2845493 0.2839104 0.2829999 0.281853 0.2805878
 0.2794065 0.2783715 0.2773567 0.2763093 0.275176 0.2733132 0.2695402 0.2636755 0.257851 0.2550423
 0.2559413 0.2585158 0.2609158 0.2628087 0.2629639 0.2582566 0.2477548 0.236379 0.2315198 0.2359055
 0.245441 0.2538124 0.2574711 0.256063 0.2503003 0.2416362 0.233772 0.2320104 0.2391754 0.2526696
 0.2668143 0.2776593 0.2845001 0.287681 0.2870637 0.2831335 0.2782717 0.2758239 0.2777987 0.2835371
 0.2902177 0.2941837 0.2925405 0.2855352 0.2781292 0.2770049 0.2839429 0.2934496 0.2988121 0.2991292
 0.2983332 0.2989571 0.2999627 0.3001842 0.3007559 0.3031914 0.306893 0.3096489 0.309616 0.306094
 0.2995207 0.292017 0.2870526 0.2866977 0.2893344 0.2915131 0.2914915 0.2892648 0.2843988 0.2769804
 0.2703417 0.2692754 0.2745966 0.2819179 0.2866555 0.2883011 0.2890073 0.2897058 0.2889997 0.2854895
 0.2802481 0.2763584 0.275887 0.2779294 0.2800943 0.2810982 0.2809679 0.2795337 0.2764288 0.272696
 0.2709401 0.273011 0.2780149 0.2831762 0.2863843 0.2874807 0.2874563 0.2871712 0.2868941 0.2864614
 0.2856997 0.2850121 0.2854072 0.2874292 0.2902196 0.2923092 0.2933243 0.2942882 0.2961684 0.2986797
 0.3007055 0.3015324 0.3014718 0.3014711 0.302269 0.3037978 0.3052497 0.3057849 0.3053588 0.3048783
 0.3053904 0.3070847 0.309218 0.3109659 0.312111 0.3129251 0.3137041 0.3145133 0.3151578 0.3153448
 0.3150737 0.3148751 0.3154178 0.3168148 0.3184884 0.319757 0.3203955 0.3205972 0.3205821 0.320387
 0.319976 0.3194181 0.3188987 0.3185792 0.3184821 0.3185142 0.3185676 0.3185841 0.3185605 0.3185351
 0.3185606 0.3186623 0.3188255 0.3190264 0.31925 0.3194695 0.3196434 0.3197612 0.3198573 0.3199556
 0.3200215 0.319985 0.3197898 0.3193965 0.3187633 0.3178463 0.3166114 0.3150246 0.3130545 0.3107641
 0.3084701 0.3067803 0.3063461 0.3074495 0.3097805 0.3126118 0.3152169 0.3171872 0.3184703 0.3192134
 0.3195978 0.3197598 0.3197803 0.3196963 0.3195208 0.3192662 0.3189536 0.3186074 0.3182505 0.3179058
 0.3175919 0.3173124 0.3170502 0.3167728 0.3164445 0.3160426 0.3155644 0.3150199 0.3144178 0.3137534
 0.3130057 0.3121526 0.3111974 0.3101822 0.3091699 0.308211 0.3073167 0.3064571 0.3055854 0.3046584
 0.3036252 0.302419 0.3010195 0.2995431 0.2982127 0.2971802 0.296391 0.2956481 0.2947868 0.2937596
 0.2925944 0.2913335 0.2900141 0.2886665 0.287304 0.285917 0.2844771 0.2829483 0.2813066 0.2795553
 0.2777191 0.275824 0.2738915 0.2719369 0.2699479 0.2678528 0.2655181 0.2627849 0.2595125 0.2556043
 0.2510281 0.2458432 0.2402111 0.2343623 0.22853 0.2229048 0.2176374 0.212861 0.2086965 0.2052419
 0.2025662 0.2007126 0.199705 0.1995511 0.2002418 0.2017452 0.2039961 0.2068847 0.2102541 0.2139105
 0.2176432 0.2212537 0.2246033 0.2276568 0.2304726 0.2331248 0.2356261 0.2379294 0.2399866 0.2417829
 0.2433228 0.2446105 0.2456582 0.2465006 0.2471922 0.2477864 0.2483163 0.248789 0.2491916 0.2495096
 0.2497431 0.2499146 0.2500593 0.2502122 0.2503961 0.2506183 0.2508773 0.2511768 0.2515325 0.2519637
 0.2524811 0.2530794 0.2537397 0.2544401 0.2551716 0.2559485 0.2568049 0.2577821 0.258918 0.2602338
 0.2617219 0.2633402 0.2650144 0.2666454 0.2681271 0.269372 0.2703327 0.2710025 0.2714015 0.2715587
 0.2715032 0.2712643 0.2708708 0.2703482 0.2697179 0.2690032 0.2682279 0.267406 0.2665363 0.2656126
 0.2646418 0.2636496 0.2626669 0.2617114 0.2607847 0.2598853 0.2590148 0.2581717 0.2573521 0.2565547
 0.2557805 0.2550299 0.2543075 0.2536198 0.2529624 0.2523107 0.2516238 0.2508527 0.2499529 0.2489008
 0.247695 0.2463412 0.2448467 0.2432257 0.2414954 0.2396664 0.2377447 0.2357382 0.2336566 0.2315035
 0.22927 0.2269393 0.2245182 0.2220699 0.2196965 0.2174775 0.2154334 0.2135406 0.2117641 0.2100785
 0.208476 0.2069556 0.2055092 0.2041257 0.2028016 0.2015378 0.2003354 0.1992012 0.1981466 0.1971804
 0.1963139 0.1955626 0.1949286 0.1943916 0.1939299 0.1935362 0.1932194 0.1930074 0.1929339 0.1929945
 0.1931232 0.1932276 0.1932447 0.1931688 0.1930476 0.1929442 0.1928928 0.1928892 0.1929106 0.192909
 0.1927969 0.1924697 0.1918365 0.1908244 0.1893931 0.1875701 0.185455 0.1831895 0.1809357 0.1788525
 0.1770546 0.1755963 0.1744855 0.1736782 0.1730797 0.1726046 0.1722424 0.1720559 0.1721227 0.1724535
 0.1729217 0.1733147 0.17352 0.1736471 0.1739254 0.1745083 0.1753815 0.1764024 0.1774027 0.1782804
 0.1790082 0.1795786 0.1799909 0.1802753 0.1804668 0.1805614 0.1805404 0.1804032 0.1801527 0.1797921
 0.1793423 0.1788174 0.1781992 0.1774757 0.1766616 0.1757608 0.1747617 0.1736627 0.1724413 0.1710482
 0.1695263 0.1681008 0.1670865 0.1667184 0.1670427 0.167895 0.169012 0.1702143 0.1714098 0.1724168
 0.1730011 0.1732345 0.17367 0.1749527 0.1772224 0.17996 0.1824319 0.1842168 0.1852729 0.1856589
 0.1853948 0.1845236 0.1830838 0.1810478 0.1784298 0.1753757 0.1720639 0.1686551 0.165359 0.1623707
 0.1597716 0.1576023 0.1559082 0.1547434 0.1542361 0.1539952 0.1519032 0.1450458 0.1339968 0.1251488
 0.1255788 0.1352341 0.1467268 0.153184 0.1539167 0.15222 0.1506002 0.1495348 0.1489184 0.1488835
 0.1495477 0.150755 0.1521095 0.1531963 0.1538443 0.1540883 0.1538217 0.1525448 0.149382 0.1433864
 0.1342337 0.1228847 0.1113635 0.1016614 0.09480752 0.09073137 0.08862501 0.08746505 0.08658202 0.08597292
 0.08607868 0.08728112 0.0896288 0.0929286 0.09691566 0.1012527 0.1054744 0.1091269 0.1120127 0.1142049
 0.1158218 0.1168973 0.1174541 0.1175613 0.1172984 0.1167375 0.1159505 0.1149751 0.1137938 0.1123921
 0.1108447 0.1093479 0.1081464 0.1073785 0.1069864 0.1068088 0.1067325 0.1067234 0.106771 0.1068678
 0.1070118 0.1071991 0.1074344 0.1077349 0.1080902 0.108439 0.1087181 0.108908 0.1090158 0.1090373
 0.1089393 0.1086842 0.1083009 0.1078972 0.1075143 0.1069939 0.1061086 0.1048543 0.1035482 0.1026221
 0.1023311 0.1026097 0.1031481 0.1036181 0.1038717 0.1039598 0.1039871 0.1039604 0.1037698 0.1033158
</values></Ydata></ScRf><Data_Parameters_AB><parameter name="DPF">1</parameter><parameter name="NPT">3497</parameter><parameter name="FXV">3996</parameter><parameter name="LXV">500</parameter><parameter name="CSF">1</parameter><parameter name="MXY">0.00947781559079885</parameter><parameter name="MNY">-0.0247778277844191</parameter><parameter name="DAT">22/09/2023</parameter><parameter name="TIM">12:56:25.680 (GMT+2)</parameter><parameter name="DXU">WN</parameter></Data_Parameters_AB><AB__Qtest><MainReport name="Quality Test Report"><Header><Line><Legend>Test result ok/not ok [1/0]: </Legend><Value>0</Value></Line><Line><Legend>Method file: </Legend><Value>C:\Users\Public\Documents\Bruker\OPUS_8.2.28\QT\IRBT_v3_default.QT</Value></Line></Header><Matrix><Line><Legend></Legend><Legend>min</Legend><Legend>max</Legend><Legend>measured</Legend></Line><Line><Value>Absorption (X-Range 1):</Value><Value>0.400000</Value><Value>2.000000</Value><Value>0.004745</Value></Line><Line><Value>Noise (X-Range 4):</Value><Value></Value><Value>0.000300</Value><Value>0.000023</Value></Line><Line><Value>Signal/Noise (X-Range 2):</Value><Value>200.000000</Value><Value></Value><Value>1.630562</Value></Line><Line><Value>Signal/Noise (X-Range 3):</Value><Value>40.000000</Value><Value></Value><Value>3.013979</Value></Line><Line><Value>Water vapour (X-Range 5):</Value><Value></Value><Value>0.000300</Value><Value>0.000013</Value></Line><Line><Value>Signal/Water (X-Range 2):</Value><Value>100.000000</Value><Value></Value><Value>2.819483</Value></Line><Line><Value>Signal/Water (X-Range 3):</Value><Value>20.000000</Value><Value></Value><Value>5.211616</Value></Line><Line><Value>Fringes (X-Range 6):</Value><Value></Value><Value>0.000100</Value><Value>0.000017</Value></Line></Matrix></MainReport></AB__Qtest><Data_Parameters_ScSm><parameter name="DPF">1</parameter><parameter name="NPT">1814</parameter><parameter name="FXV">3996.63438082617</parameter><parameter name="LXV">499.579297603271</parameter><parameter name="CSF">1</parameter><parameter name="MXY">0.330499947071075</parameter><parameter name="MNY">0.0505048334598541</parameter><parameter name="DAT">22/09/2023</parameter><parameter name="TIM">12:56:25.680 (GMT+2)</parameter><parameter name="DXU">WN</parameter></Data_Parameters_ScSm><Data_Parameters_ScRf><parameter name="DPF">1</parameter><parameter name="NPT">1820</parameter><parameter name="FXV">4004.34989121387</parameter><parameter name="LXV">495.721542409425</parameter><parameter name="CSF">1</parameter><parameter name="MXY">0.320597231388092</parameter><parameter name="MNY">0.0482704117894173</parameter><parameter name="DAT">22/09/2023</parameter><parameter name="TIM">12:55:59.822 (GMT+2)</parameter><parameter name="DXU">WN</parameter></Data_Parameters_ScRf><Optic_Parameters_Rf><parameter name="APR">0</parameter><parameter name="APT">Open</parameter><parameter name="BMS">KBr</parameter><parameter name="DTC">RT-DLaTGS_IR-Biotyper [Microplate reader]</parameter><parameter name="HPF">0</parameter><parameter name="LPF">10.0</parameter><parameter name="LPV">4000</parameter><parameter name="PGR">0</parameter><parameter name="RCH">Module port</parameter><parameter name="RDX">0</parameter><parameter name="SRC">MIR</parameter><parameter name="VEL">10.0</parameter><parameter name="SON">Off</parameter></Optic_Parameters_Rf><Acquisition_Parameters_Rf><parameter name="ADT">1</parameter><parameter name="AQM">DD</parameter><parameter name="CFE">0</parameter><parameter name="COR">0</parameter><parameter name="DEL">0</parameter><parameter name="DLY">0</parameter><parameter name="HFW">8000</parameter><parameter name="LFW">0</parameter><parameter name="NSR">32</parameter><parameter name="PLF">AB</parameter><parameter name="RES">6</parameter><parameter name="RGN">-1</parameter><parameter name="STR">0</parameter><parameter name="TCL">MakeCompatibleScalar (0, {WSV=1.000000, ARV=0});</parameter><parameter name="TDL">37</parameter><parameter name="RPO">0</parameter></Acquisition_Parameters_Rf><FT_-_Parameters_Rf><parameter name="APF">B3</parameter><parameter name="HFQ">500</parameter><parameter name="LFQ">4000</parameter><parameter name="NLI">0</parameter><parameter name="PHR">24</parameter><parameter name="PHZ">ML</parameter><parameter name="SPZ">NO</parameter><parameter name="ZFF">1</parameter></FT_-_Parameters_Rf><Optic_Parameters_><parameter name="APR">0</parameter><parameter name="APT">Open</parameter><parameter name="BMS">KBr</parameter><parameter name="CHN">Module port</parameter><parameter name="DTC">RT-DLaTGS_IR-Biotyper [Microplate reader]</parameter><parameter name="HPF">0</parameter><parameter name="LPF">10.0</parameter><parameter name="LPV">4000</parameter><parameter name="PGN">0</parameter><parameter name="RDX">0</parameter><parameter name="SRC">MIR</parameter><parameter name="VEL">10.0</parameter><parameter name="SON">Off</parameter></Optic_Parameters_><FT_-_Parameters_><parameter name="APF">B3</parameter><parameter name="HFQ">500</parameter><parameter name="LFQ">4000</parameter><parameter name="NLI">0</parameter><parameter name="PHR">24</parameter><parameter name="PHZ">ML</parameter><parameter name="SPZ">NO</parameter><parameter name="ZFF">1</parameter></FT_-_Parameters_><Acquisition_Parameters_><parameter name="ADT">1</parameter><parameter name="AQM">DD</parameter><parameter name="CFE">0</parameter><parameter name="COR">0</parameter><parameter name="DEL">0</parameter><parameter name="DLY">0</parameter><parameter name="HFW">8000</parameter><parameter name="LFW">0</parameter><parameter name="NSS">32</parameter><parameter name="PLF">AB</parameter><parameter name="RES">6</parameter><parameter name="SOT">0</parameter><parameter name="TCL">MakeCompatibleScalar (0, {WSV=1.000000, ARV=0});</parameter><parameter name="TDL">37</parameter><parameter name="SPO">0</parameter><parameter name="SGN">-1</parameter></Acquisition_Parameters_><Instrument_Parameters_Rf><parameter name="HFL">15801.365274</parameter><parameter name="LFL">0</parameter><parameter name="LWN">15801.365274</parameter><parameter name="ABP">32150</parameter><parameter name="SSP">1</parameter><parameter name="ARG">2</parameter><parameter name="ASG">2</parameter><parameter name="ASS">32</parameter><parameter name="GFW">16</parameter><parameter name="GBW">16</parameter><parameter name="BFW">0</parameter><parameter name="BBW">0</parameter><parameter name="PKA">9228</parameter><parameter name="PKL">5015</parameter><parameter name="PRA">9205</parameter><parameter name="PRL">4982</parameter><parameter name="P2A">1</parameter><parameter name="P2L">1</parameter><parameter name="P2R">1</parameter><parameter name="P2K">1</parameter><parameter name="DAQ">0</parameter><parameter name="AG2">1</parameter><parameter name="SSM">1</parameter><parameter name="RSN">38165</parameter><parameter name="CRR">0</parameter><parameter name="SRT">1695387359.823</parameter><parameter name="DUR">19.6409912109375</parameter><parameter name="TSC">32.9</parameter><parameter name="MVD">0.304852843284607</parameter><parameter name="AN1">0.225859787076932</parameter><parameter name="AN2">0</parameter><parameter name="VSN">2.485 Apr  4 2017</parameter><parameter name="SRN">0085</parameter><parameter name="CAM">0</parameter><parameter name="INS">IR-Biotyper</parameter><parameter name="FOC">69</parameter><parameter name="RDY">1</parameter><parameter name="ARS">32</parameter></Instrument_Parameters_Rf><Sample_Parameters_><parameter name="BLD"></parameter><parameter name="CNM">Admin</parameter><parameter name="CPY"></parameter><parameter name="DPM"></parameter><parameter name="EXP">IRBT_v3_32Scans.XPM</parameter><parameter name="LCT"></parameter><parameter name="SFM">Microplate, HTS-XT</parameter><parameter name="SNM">230922-1029-ACIDIFIED WATER_Acidified_water_H8_638d1031-c533-4165-9601-0dbe68f8def5.0</parameter><parameter name="XPP">C:\Users\Public\Documents\Bruker\OPUS_8.2.28\XPM</parameter><parameter name="IST">OK</parameter><parameter name="CPG">1252</parameter><parameter name="UID">3d82addc-3334-4424-bb40-179d8030d753</parameter></Sample_Parameters_><Instrument_Parameters_><parameter name="HFL">15801.365274</parameter><parameter name="LFL">0</parameter><parameter name="LWN">15801.365274</parameter><parameter name="ABP">32150</parameter><parameter name="SSP">1</parameter><parameter name="ASG">2</parameter><parameter name="ARG">2</parameter><parameter name="ASS">32</parameter><parameter name="GFW">16</parameter><parameter name="GBW">16</parameter><parameter name="BFW">0</parameter><parameter name="BBW">0</parameter><parameter name="PKA">9553</parameter><parameter name="PKL">5015</parameter><parameter name="PRA">9542</parameter><parameter name="PRL">4982</parameter><parameter name="P2A">1</parameter><parameter name="P2L">1</parameter><parameter name="P2R">1</parameter><parameter name="P2K">1</parameter><parameter name="DAQ">0</parameter><parameter name="AG2">1</parameter><parameter name="SSM">1</parameter><parameter name="RSN">19753</parameter><parameter name="CRR">0</parameter><parameter name="SRT">1695387385.68</parameter><parameter name="DUR">19.6419982910156</parameter><parameter name="TSC">32.9</parameter><parameter name="MVD">1.99103701114655</parameter><parameter name="AN1">0.22590088935013</parameter><parameter name="AN2">0</parameter><parameter name="VSN">2.485 Apr  4 2017</parameter><parameter name="SRN">0085</parameter><parameter name="CAM">0</parameter><parameter name="INS">IR-Biotyper</parameter><parameter name="FOC">69</parameter><parameter name="RDY">1</parameter></Instrument_Parameters_><History/></OPUSDataFile>
