<?xml version="1.0" encoding="UTF-8" ?>
<OPUSDataFile><AB><Ydata ylabel="Absorbance Units"><values byteorder="INTEL" format="FLOAT32" numvalues="3497"> -0.02886502 -0.02884789 -0.02882788 -0.02880678 -0.02879015 -0.02877847 -0.028776 -0.02878104 -0.02879373 -0.02881001
 -0.02882604 -0.02883817 -0.02884161 -0.02883821 -0.02882674 -0.02881294 -0.02879878 -0.02878674 -0.02877847 -0.0287702
 -0.02876168 -0.02874912 -0.02873195 -0.02871152 -0.02868795 -0.02866659 -0.02864764 -0.02863537 -0.02862928 -0.02862935
 -0.0286344 -0.02864068 -0.02864731 -0.02865041 -0.02865012 -0.02864459 -0.02863522 -0.02862231 -0.02860853 -0.0285955
 -0.02858627 -0.02858311 -0.02858626 -0.02859725 -0.02861095 -0.02862688 -0.02863871 -0.02864519 -0.0286448 -0.0286371
 -0.02862545 -0.02861002 -0.02859314 -0.02857481 -0.02855549 -0.02853546 -0.0285163 -0.02849863 -0.02848557 -0.02847694
 -0.02847409 -0.02847595 -0.02848163 -0.02848969 -0.02849844 -0.02850647 -0.0285124 -0.02851487 -0.02851252 -0.02850594
 -0.02849456 -0.02848133 -0.02846683 -0.02845323 -0.02844121 -0.02842952 -0.02841821 -0.02840429 -0.02838764 -0.02836936
 -0.02834997 -0.02833628 -0.02832852 -0.02833231 -0.02834582 -0.02836646 -0.02839102 -0.02841063 -0.02842421 -0.02842505
 -0.02841646 -0.02839897 -0.02837732 -0.02835584 -0.02833555 -0.02831872 -0.02830299 -0.02828778 -0.02827215 -0.02825519
 -0.02824003 -0.02822676 -0.02822007 -0.02822052 -0.0282294 -0.02824678 -0.02826742 -0.02829086 -0.02830948 -0.02832338
 -0.02832882 -0.02832694 -0.02831978 -0.0283081 -0.02829481 -0.02827969 -0.02826339 -0.02824617 -0.02822792 -0.02821078
 -0.02819621 -0.02818616 -0.02818266 -0.0281843 -0.02819178 -0.02820017 -0.0282085 -0.02821285 -0.02821206 -0.02820724
 -0.02819825 -0.02818832 -0.02817762 -0.0281666 -0.02815513 -0.02814111 -0.02812485 -0.0281068 -0.02808824 -0.02807432
 -0.02806544 -0.02806622 -0.02807353 -0.02808478 -0.0280959 -0.02810036 -0.02809838 -0.02808731 -0.02807074 -0.02804948
 -0.028028 -0.028008 -0.02799286 -0.027984 -0.02798161 -0.02798629 -0.02799482 -0.02800703 -0.02801919 -0.02803107
 -0.02804018 -0.0280464 -0.0280476 -0.02804385 -0.02803412 -0.02801914 -0.02800094 -0.02798046 -0.0279614 -0.02794326
 -0.02792711 -0.02791165 -0.02789524 -0.02787854 -0.02786092 -0.02784532 -0.02783355 -0.02782636 -0.02782527 -0.02782656
 -0.02782966 -0.02783101 -0.02782951 -0.02782638 -0.02782146 -0.02781842 -0.02781752 -0.02781912 -0.02782297 -0.02782457
 -0.02782389 -0.02781807 -0.02780842 -0.02779838 -0.02778913 -0.0277863 -0.02778797 -0.0277938 -0.02780073 -0.02780437
 -0.02780462 -0.02779932 -0.02779115 -0.02778122 -0.02777098 -0.0277618 -0.02775172 -0.0277405 -0.02772625 -0.02770833
 -0.02768766 -0.02766402 -0.02764131 -0.02761975 -0.02760346 -0.02759247 -0.02758797 -0.02758935 -0.02759324 -0.02759902
 -0.02760209 -0.02760304 -0.02760068 -0.02759681 -0.02759429 -0.02759375 -0.027598 -0.0276045 -0.02761257 -0.02761846
 -0.02761929 -0.02761486 -0.02760359 -0.02758964 -0.02757374 -0.02755944 -0.02754789 -0.02753803 -0.02753001 -0.02752086
 -0.02751034 -0.02749895 -0.02748682 -0.02747697 -0.02746925 -0.02746412 -0.02746117 -0.02745865 -0.02745721 -0.02745768
 -0.02746067 -0.02746857 -0.0274791 -0.027491 -0.02750057 -0.02750371 -0.02749971 -0.02748596 -0.02746659 -0.02744194
 -0.02741845 -0.02739818 -0.02738413 -0.02737776 -0.02737636 -0.02738009 -0.02738339 -0.02738592 -0.02738321 -0.02737514
 -0.02735943 -0.02733653 -0.02730797 -0.02727501 -0.0272435 -0.0272144 -0.02719382 -0.02718057 -0.0271757 -0.02717682
 -0.02718112 -0.02718744 -0.02719364 -0.02719977 -0.02720583 -0.02720994 -0.02721143 -0.02720849 -0.02719962 -0.02718833
 -0.02717451 -0.02716474 -0.02716012 -0.02716109 -0.02716794 -0.02717297 -0.02717588 -0.02717053 -0.0271576 -0.02713951
 -0.02711733 -0.02709729 -0.02707912 -0.02706553 -0.02705502 -0.02704591 -0.02703743 -0.02702737 -0.0270171 -0.02700683
 -0.02699857 -0.02699414 -0.02699285 -0.02699557 -0.02699833 -0.02700036 -0.02699776 -0.02698923 -0.02697537 -0.0269557
 -0.02693561 -0.02691544 -0.02689908 -0.02688652 -0.02687592 -0.02686694 -0.02685563 -0.02684249 -0.02682733 -0.02681115
 -0.02679696 -0.02678466 -0.02677594 -0.02676924 -0.02676299 -0.02675637 -0.02674741 -0.02673801 -0.02672859 -0.02672157
 -0.0267185 -0.02671908 -0.02672405 -0.02673009 -0.02673684 -0.02674076 -0.02674136 -0.02673659 -0.02672618 -0.02671096
 -0.02669111 -0.02667115 -0.0266515 -0.02663787 -0.02663 -0.02663026 -0.02663711 -0.02664756 -0.02665974 -0.02666832
 -0.026673 -0.02667079 -0.02666317 -0.02665031 -0.02663398 -0.02661547 -0.02659555 -0.02657501 -0.02655365 -0.02653164
 -0.02650836 -0.02648357 -0.02645767 -0.02643043 -0.02640465 -0.02638045 -0.02636242 -0.02635068 -0.02634655 -0.02634942
 -0.02635451 -0.02636099 -0.02636214 -0.02635845 -0.02634754 -0.02633127 -0.0263121 -0.02629169 -0.02627358 -0.02625812
 -0.026247 -0.02623971 -0.02623669 -0.02623628 -0.02623819 -0.02623969 -0.02623978 -0.0262372 -0.02623117 -0.02622347
 -0.02621426 -0.02620481 -0.02619536 -0.0261835 -0.0261691 -0.026149 -0.02612353 -0.02609421 -0.026062 -0.02603243
 -0.02600568 -0.02598554 -0.02597073 -0.02596063 -0.02595364 -0.02594701 -0.02594034 -0.02593198 -0.02592292 -0.02591321
 -0.02590416 -0.02589661 -0.02589043 -0.02588593 -0.02588187 -0.02587812 -0.02587336 -0.02586739 -0.02585939 -0.02584925
 -0.02583646 -0.02582102 -0.0258034 -0.02578378 -0.02576419 -0.02574483 -0.02572803 -0.02571364 -0.02570242 -0.0256942
 -0.02568896 -0.02568665 -0.02568753 -0.02569066 -0.02569581 -0.02570033 -0.02570282 -0.02569965 -0.02568847 -0.02566824
 -0.0256372 -0.02559977 -0.02555584 -0.02551363 -0.02547419 -0.02544401 -0.02542398 -0.02541287 -0.02541053 -0.02540929
 -0.02540874 -0.02540171 -0.02538874 -0.0253686 -0.02534254 -0.02531391 -0.02528344 -0.02525427 -0.02522668 -0.02520234
 -0.02518149 -0.02516508 -0.02515288 -0.02514547 -0.02514095 -0.02513877 -0.02513662 -0.02513339 -0.02512867 -0.02512205
 -0.02511431 -0.02510554 -0.02509609 -0.02508603 -0.02507508 -0.02506324 -0.0250507 -0.02503742 -0.02502304 -0.02500723
 -0.02498785 -0.02496521 -0.02493847 -0.02490969 -0.02488279 -0.02485983 -0.02484655 -0.02484118 -0.02484522 -0.02485283
 -0.02486054 -0.02486333 -0.02485709 -0.02484214 -0.02481703 -0.02478613 -0.02474977 -0.02471355 -0.02467824 -0.02464823
 -0.02462405 -0.02460722 -0.02459777 -0.02459217 -0.02458995 -0.02458447 -0.02457569 -0.02455955 -0.02453715 -0.02450972
 -0.0244787 -0.02444785 -0.02441798 -0.02439208 -0.02436997 -0.02435293 -0.02433925 -0.02432856 -0.02431775 -0.02430511
 -0.02428882 -0.02426738 -0.0242424 -0.02421364 -0.02418477 -0.0241564 -0.02413027 -0.02410673 -0.02408462 -0.02406389
 -0.02404292 -0.0240217 -0.02399959 -0.02397678 -0.0239538 -0.02393099 -0.02390989 -0.02389041 -0.02387354 -0.023858
 -0.02384233 -0.02382513 -0.02380369 -0.02377897 -0.02375026 -0.02372052 -0.02369151 -0.02366365 -0.02363812 -0.02361181
 -0.02358405 -0.02355308 -0.02351792 -0.02348249 -0.02344688 -0.02341696 -0.02339304 -0.02337556 -0.02336407 -0.02335288
 -0.02334157 -0.02332435 -0.02330195 -0.02327358 -0.0232407 -0.02320648 -0.02317146 -0.02313809 -0.023106 -0.02307551
 -0.02304678 -0.02301986 -0.02299541 -0.02297425 -0.02295509 -0.0229384 -0.02291956 -0.02289759 -0.02286875 -0.02283168
 -0.02278908 -0.02274076 -0.02269407 -0.02264942 -0.0226108 -0.02257789 -0.02254715 -0.02251795 -0.02248422 -0.02244671
 -0.0224045 -0.02235942 -0.02231579 -0.02227399 -0.02223719 -0.02220344 -0.0221717 -0.02214029 -0.02210701 -0.02207263
 -0.02203692 -0.02200098 -0.02196561 -0.02192952 -0.02189272 -0.02185293 -0.02180952 -0.02176274 -0.02171235 -0.02166169
 -0.02161092 -0.02156285 -0.02151741 -0.02147444 -0.02143354 -0.02139222 -0.02135018 -0.02130486 -0.0212565 -0.02120408
 -0.02114863 -0.02109122 -0.02103307 -0.02097605 -0.0209208 -0.02086876 -0.02081904 -0.02077181 -0.02072527 -0.02067892
 -0.02063104 -0.0205811 -0.02052812 -0.02047196 -0.02041138 -0.02034627 -0.02027514 -0.02019789 -0.02011479 -0.02002611
 -0.01993596 -0.01984487 -0.01975859 -0.01967676 -0.01960161 -0.01953129 -0.01946243 -0.0193933 -0.01931889 -0.01923974
 -0.01915379 -0.0190642 -0.01897265 -0.01888231 -0.01879583 -0.01871346 -0.01863676 -0.01856136 -0.01848693 -0.01840717
 -0.01832083 -0.01822463 -0.0181177 -0.01800305 -0.01788073 -0.01775793 -0.01763489 -0.01751665 -0.01740285 -0.01729367
 -0.01718852 -0.01708525 -0.01698355 -0.01688165 -0.01677907 -0.01667434 -0.01656663 -0.01645409 -0.01633703 -0.01621464
 -0.01608891 -0.01596038 -0.0158319 -0.01570493 -0.01558033 -0.01545908 -0.01533888 -0.0152198 -0.01509759 -0.01497179
 -0.01483922 -0.01469959 -0.01455369 -0.01440176 -0.01424826 -0.01409342 -0.0139411 -0.01379067 -0.01364178 -0.01349327
 -0.01334162 -0.01318685 -0.01302692 -0.01286351 -0.01269784 -0.01253154 -0.01236691 -0.01220323 -0.01204123 -0.01187812
 -0.01171301 -0.01154354 -0.0113687 -0.01118813 -0.01100137 -0.01081015 -0.01061455 -0.01041681 -0.01021709 -0.01001639
 -0.009814695 -0.009611479 -0.009406804 -0.009200728 -0.00899365 -0.008787446 -0.008582071 -0.008378655 -0.00817628 -0.007973658
 -0.007770385 -0.007564947 -0.007358666 -0.007152182 -0.006946641 -0.006743553 -0.006541221 -0.006339564 -0.006135969 -0.00592934
 -0.005719772 -0.005506794 -0.005293014 -0.005078599 -0.004866413 -0.004656675 -0.004450932 -0.004249163 -0.004050647 -0.003854993
 -0.003658793 -0.00346188 -0.003261327 -0.003058106 -0.002853276 -0.00264806 -0.002445745 -0.002245703 -0.002048705 -0.001853181
 -0.001657596 -0.001462045 -0.001265668 -0.001070573 -0.000877685 -0.000687609 -0.0005012265 -0.0003159631 -0.0001316158 5.484852E-05
 0.0002439394 0.000436316 0.0006321105 0.000829983 0.001029856 0.001230133 0.001430817 0.001631219 0.00183142 0.002031256
 0.002231083 0.002431473 0.002633525 0.002839481 0.003050491 0.003269505 0.003495663 0.00373015 0.003968887 0.004209954
 0.004449192 0.004683654 0.004913766 0.005138271 0.005362253 0.005586359 0.005815387 0.006050251 0.006291475 0.006539281
 0.006790365 0.007044524 0.007297429 0.00754905 0.007797101 0.008042029 0.008284477 0.008525202 0.008767055 0.00900969
 0.009254518 0.009498971 0.009740661 0.00997596 0.01020025 0.01041236 0.01060934 0.01079411 0.01096703 0.01113157
 0.01128952 0.01143962 0.01158261 0.01171243 0.01182846 0.0119256 0.01200328 0.01206206 0.0121021 0.01212893
 0.01214283 0.0121491 0.01214709 0.01213699 0.01211709 0.0120825 0.01203207 0.01196075 0.01186934 0.01175646
 0.0116243 0.01147461 0.01130853 0.0111278 0.01093122 0.01071905 0.01048864 0.01023904 0.009969306 0.009678565
 0.009369873 0.009043286 0.008703625 0.008351378 0.007987592 0.007612184 0.007220108 0.006810956 0.00637858 0.005923477
 0.005444385 0.00494292 0.004423077 0.003886604 0.003338643 0.002781052 0.002218156 0.001652359 0.001087189 0.0005252638
 -3.088492E-05 -0.0005788757 -0.001117456 -0.001643532 -0.002156623 -0.002651203 -0.003126514 -0.003575793 -0.003997971 -0.004389144
 -0.00474873 -0.005078209 -0.005377709 -0.00565205 -0.005901322 -0.006128347 -0.00633272 -0.006513664 -0.006671257 -0.006804765
 -0.006915834 -0.007007165 -0.007081171 -0.007142783 -0.007192719 -0.007234274 -0.007264939 -0.007284449 -0.007288933 -0.007276193
 -0.00724483 -0.00719325 -0.007124355 -0.00703834 -0.006938768 -0.006826712 -0.006699674 -0.006557978 -0.006390936 -0.006197931
 -0.005965075 -0.005691918 -0.005368743 -0.004995823 -0.004569517 -0.004090131 -0.003556559 -0.002969272 -0.002327435 -0.001634801
 -0.0008937431 -0.0001155438 0.0006908618 0.001505956 0.002316298 0.00309846 0.003839856 0.004518156 0.005124688 0.005640407
 0.006059825 0.006370681 0.006569718 0.00665684 0.006631065 0.006505546 0.006281063 0.005978859 0.005600343 0.005167445
 0.004681572 0.0041613 0.003607941 0.003035259 0.002444501 0.001844767 0.001237339 0.0006276804 1.74101E-05 -0.0005902415
 -0.00119295 -0.00178845 -0.00237404 -0.002947841 -0.003508199 -0.004053671 -0.004585815 -0.005104344 -0.005613077 -0.00611263
 -0.0066049 -0.007090281 -0.00756688 -0.008034605 -0.008490915 -0.008935831 -0.009369028 -0.009790365 -0.0101992 -0.01059472
 -0.01097364 -0.0113358 -0.01167843 -0.01200377 -0.01231335 -0.01261127 -0.01290261 -0.01318994 -0.01347744 -0.01376381
 -0.0140498 -0.01433253 -0.01461099 -0.01488388 -0.01515063 -0.01541121 -0.01566567 -0.0159131 -0.01615346 -0.01638531
 -0.01660858 -0.01682413 -0.01703219 -0.01723604 -0.01743579 -0.01763394 -0.01783001 -0.0180238 -0.01821473 -0.01840136
 -0.01858363 -0.0187607 -0.0189331 -0.0191009 -0.0192652 -0.0194267 -0.01958678 -0.01974657 -0.0199061 -0.02006603
 -0.02022424 -0.02038049 -0.02053217 -0.02067867 -0.02081964 -0.02095482 -0.02108642 -0.02121454 -0.02134146 -0.02146718
 -0.02159238 -0.02171691 -0.02184023 -0.02196223 -0.02208228 -0.02220036 -0.02231602 -0.0224295 -0.02254071 -0.02265074
 -0.02276044 -0.02287168 -0.02298639 -0.02310512 -0.02322942 -0.02335663 -0.02348663 -0.02361486 -0.02374018 -0.02385946
 -0.0239719 -0.02407691 -0.02417432 -0.02426444 -0.02434726 -0.02442291 -0.02449142 -0.02455286 -0.02460739 -0.02465594
 -0.0246987 -0.02473702 -0.02477072 -0.02480038 -0.02482487 -0.02484288 -0.02485267 -0.02485154 -0.02483906 -0.02481327
 -0.02477676 -0.02472945 -0.02467708 -0.0246206 -0.02456902 -0.02452377 -0.02449641 -0.02448872 -0.0245107 -0.02456405
 -0.02464814 -0.02476314 -0.02489443 -0.02504079 -0.02518145 -0.02531594 -0.02543023 -0.02552589 -0.02560099 -0.02565788
 -0.0257017 -0.02573314 -0.02575597 -0.02576944 -0.02577388 -0.02576925 -0.02575501 -0.0257331 -0.02570433 -0.02567051
 -0.02563266 -0.02559108 -0.02554605 -0.02549744 -0.02544517 -0.02538984 -0.02533152 -0.02527044 -0.02520664 -0.02513906
 -0.02506764 -0.024991 -0.02490932 -0.02482285 -0.02473206 -0.02463885 -0.02454351 -0.02444766 -0.0243515 -0.02425591
 -0.02416148 -0.024069 -0.02397953 -0.02389439 -0.02381349 -0.0237376 -0.02366456 -0.02359405 -0.02352284 -0.02344992
 -0.02337388 -0.02329418 -0.02321138 -0.02312555 -0.02303652 -0.02294429 -0.0228466 -0.02274332 -0.02263209 -0.0225136
 -0.02239056 -0.02226527 -0.02214771 -0.02204082 -0.02195777 -0.02189883 -0.02187215 -0.02187235 -0.02189766 -0.02193856
 -0.02198683 -0.02203436 -0.02207357 -0.02210248 -0.02211775 -0.02212314 -0.0221186 -0.02210974 -0.02209739 -0.02208644
 -0.02207758 -0.02207326 -0.02207372 -0.02207874 -0.02208824 -0.02210036 -0.02211507 -0.02213118 -0.022149 -0.0221691
 -0.02219203 -0.02221968 -0.0222522 -0.02229104 -0.02233523 -0.0223844 -0.02243678 -0.0224904 -0.02254513 -0.02259932
 -0.0226571 -0.02271854 -0.02279196 -0.02287912 -0.02298848 -0.02312182 -0.02328465 -0.02347809 -0.0237023 -0.02395752
 -0.02423725 -0.02454084 -0.02485615 -0.02518209 -0.02550497 -0.02582416 -0.02612974 -0.02642173 -0.02669528 -0.02695017
 -0.02718408 -0.02739603 -0.02758361 -0.02774699 -0.02788459 -0.02799989 -0.02809341 -0.02817198 -0.02823821 -0.02829816
 -0.0283545 -0.02840828 -0.02846047 -0.02850848 -0.02855211 -0.02858914 -0.02861934 -0.02864298 -0.02866014 -0.02867248
 -0.02868016 -0.028685 -0.02868745 -0.02869047 -0.02869443 -0.02870207 -0.02871302 -0.02872823 -0.0287463 -0.02876607
 -0.02878548 -0.02880235 -0.02881499 -0.02882151 -0.02882179 -0.02881474 -0.02880321 -0.02878738 -0.0287717 -0.02875701
 -0.02874655 -0.02874101 -0.02874001 -0.02874366 -0.02874888 -0.02875545 -0.02875938 -0.02876059 -0.0287566 -0.02874765
 -0.02873339 -0.02871436 -0.02869186 -0.02866656 -0.02864017 -0.02861363 -0.02858889 -0.0285666 -0.02854843 -0.02853355
 -0.02852231 -0.02851249 -0.02850305 -0.028493 -0.0284815 -0.02846992 -0.02845837 -0.02844823 -0.02843988 -0.02843213
 -0.02842499 -0.02841592 -0.02840485 -0.02839092 -0.02837436 -0.02835682 -0.02833859 -0.02832193 -0.02830676 -0.02829398
 -0.02828332 -0.02827482 -0.02826802 -0.02826245 -0.02825733 -0.02825187 -0.02824516 -0.02823624 -0.02822511 -0.02821124
 -0.02819603 -0.0281797 -0.0281638 -0.02814874 -0.02813514 -0.0281232 -0.02811258 -0.02810328 -0.02809503 -0.02808784
 -0.02808159 -0.02807612 -0.02806989 -0.02806265 -0.02805239 -0.02803918 -0.02802205 -0.0280016 -0.02797849 -0.02795338
 -0.02792732 -0.02790119 -0.02787589 -0.02785294 -0.0278334 -0.02781886 -0.0278108 -0.02780808 -0.02781135 -0.02781604
 -0.02782156 -0.02782296 -0.02781932 -0.02780951 -0.02779326 -0.02777273 -0.02774801 -0.02772065 -0.02769066 -0.02765854
 -0.0276247 -0.02759111 -0.02755878 -0.02753206 -0.02751107 -0.02749867 -0.02749307 -0.02749329 -0.02749674 -0.02750028
 -0.02750272 -0.02750206 -0.02749869 -0.02749217 -0.02748358 -0.02747315 -0.02746182 -0.02744967 -0.02743823 -0.02742768
 -0.02741949 -0.02741386 -0.02740972 -0.02740699 -0.0274026 -0.02739648 -0.02738649 -0.02737308 -0.02735729 -0.02733975
 -0.02732308 -0.02730728 -0.02729361 -0.0272817 -0.02727159 -0.0272628 -0.0272549 -0.02724736 -0.02723983 -0.02723145
 -0.02722152 -0.02721034 -0.02719757 -0.02718501 -0.02717292 -0.02716312 -0.02715604 -0.02715157 -0.02714983 -0.02714875
 -0.02714822 -0.02714622 -0.02714279 -0.02713752 -0.02713059 -0.02712276 -0.027114 -0.02710476 -0.02709454 -0.02708228
 -0.02706813 -0.02705133 -0.02703365 -0.02701651 -0.02700177 -0.02699192 -0.02698546 -0.0269831 -0.02698003 -0.02697475
 -0.02696392 -0.02694582 -0.02692287 -0.02689474 -0.02686747 -0.02684155 -0.02682108 -0.02680624 -0.0267964 -0.02679126
 -0.02678733 -0.02678439 -0.02677928 -0.0267724 -0.02676323 -0.02675257 -0.02674195 -0.02673188 -0.02672423 -0.02671796
 -0.02671296 -0.02670724 -0.02669911 -0.02668795 -0.02667243 -0.02665473 -0.02663511 -0.02661625 -0.0265991 -0.02658381
 -0.02657072 -0.02655814 -0.02654593 -0.02653332 -0.02652029 -0.02650698 -0.02649334 -0.02647876 -0.02646315 -0.02644543
 -0.02642601 -0.02640554 -0.02638485 -0.02636624 -0.02634988 -0.02633731 -0.02632773 -0.02632094 -0.02631589 -0.02631174
 -0.02630764 -0.02630302 -0.02629704 -0.02628936 -0.02627923 -0.02626633 -0.02625073 -0.0262323 -0.02621211 -0.02619017
 -0.02616852 -0.02614727 -0.02612889 -0.02611338 -0.02610199 -0.02609431 -0.02608883 -0.02608483 -0.02607871 -0.02607041
 -0.02605747 -0.02604143 -0.02602347 -0.02600548 -0.02599037 -0.02597816 -0.02597047 -0.02596461 -0.02595978 -0.02595322
 -0.02594347 -0.02593021 -0.02591287 -0.02589306 -0.02587086 -0.02584834 -0.02582569 -0.02580473 -0.02578558 -0.02576951
 -0.02575651 -0.02574675 -0.0257399 -0.02573407 -0.02572885 -0.0257217 -0.02571265 -0.02570031 -0.02568539 -0.02566838
 -0.02565018 -0.0256321 -0.02561443 -0.02559792 -0.02558221 -0.02556729 -0.02555299 -0.02553914 -0.02552625 -0.02551443
 -0.02550396 -0.02549499 -0.0254869 -0.02547971 -0.02547228 -0.02546455 -0.02545554 -0.02544519 -0.02543272 -0.0254182
 -0.02540156 -0.02538323 -0.02536458 -0.0253461 -0.02532987 -0.02531567 -0.0253043 -0.02529485 -0.02528649 -0.02527865
 -0.02527041 -0.02526201 -0.02525334 -0.02524469 -0.0252362 -0.02522775 -0.02521941 -0.02521069 -0.02520159 -0.02519109
 -0.02517902 -0.0251651 -0.02514928 -0.0251326 -0.02511515 -0.02509856 -0.0250827 -0.02506751 -0.02505266 -0.02503669
 -0.02501992 -0.02500226 -0.02498469 -0.02496905 -0.02495564 -0.02494579 -0.02493865 -0.0249341 -0.02493083 -0.02492809
 -0.02492496 -0.02492096 -0.0249153 -0.02490764 -0.02489766 -0.02488509 -0.02487092 -0.02485521 -0.02483903 -0.02482245
 -0.02480542 -0.02478794 -0.02476976 -0.02475101 -0.02473256 -0.02471464 -0.02469879 -0.02468481 -0.02467309 -0.02466313
 -0.02465428 -0.02464612 -0.02463789 -0.02462936 -0.02462023 -0.02460992 -0.02459801 -0.02458428 -0.02456848 -0.02455092
 -0.02453155 -0.02451116 -0.02448989 -0.02446806 -0.02444565 -0.02442356 -0.0244018 -0.02438229 -0.02436512 -0.02435226
 -0.02434351 -0.02433866 -0.02433706 -0.02433619 -0.0243354 -0.02433165 -0.024325 -0.024314 -0.0242993 -0.02428098
 -0.02425999 -0.02423706 -0.02421328 -0.02418953 -0.02416623 -0.02414394 -0.02412196 -0.02410024 -0.02407795 -0.02405477
 -0.0240315 -0.02400818 -0.02398592 -0.02396488 -0.02394257 -0.02391875 -0.02388838 -0.02385199 -0.02381064 -0.02376612
 -0.02372705 -0.02369323 -0.02366934 -0.02365255 -0.0236388 -0.02362877 -0.02362061 -0.02361879 -0.02362862 -0.02364662
 -0.02367427 -0.02370048 -0.0237203 -0.02372905 -0.02372341 -0.02370699 -0.02367979 -0.02364607 -0.02360632 -0.02356314
 -0.02351668 -0.02347057 -0.02342509 -0.02338642 -0.02335451 -0.0233323 -0.02331865 -0.02331038 -0.02330641 -0.02330169
 -0.0232969 -0.02329065 -0.02328473 -0.02328115 -0.02328058 -0.02328506 -0.02329223 -0.02330144 -0.0233099 -0.02331574
 -0.02331957 -0.02332083 -0.02332237 -0.02332496 -0.02332865 -0.02333377 -0.02333724 -0.02333884 -0.02333705 -0.02333193
 -0.02332547 -0.02331784 -0.02331146 -0.02330599 -0.02330119 -0.02329654 -0.02329034 -0.0232826 -0.02327242 -0.02326039
 -0.02324692 -0.02323264 -0.02321826 -0.02320419 -0.02319104 -0.02317836 -0.0231663 -0.02315351 -0.02313959 -0.02312372
 -0.02310541 -0.02308613 -0.02306585 -0.02304729 -0.02303069 -0.02301698 -0.02300615 -0.02299728 -0.02299029 -0.02298409
 -0.02297858 -0.02297281 -0.02296651 -0.02295824 -0.0229481 -0.02293518 -0.02292069 -0.02290584 -0.02289174 -0.02288036
 -0.0228708 -0.02286353 -0.02285596 -0.02284694 -0.02283512 -0.02281946 -0.02280145 -0.02278105 -0.02276079 -0.02274104
 -0.02272293 -0.0227066 -0.0226922 -0.02267974 -0.02266924 -0.02266066 -0.02265372 -0.02264812 -0.0226424 -0.02263618
 -0.02262753 -0.02261649 -0.02260213 -0.02258503 -0.02256553 -0.02254452 -0.02252288 -0.02250146 -0.02248105 -0.02246227
 -0.02244575 -0.02243126 -0.02241909 -0.02240769 -0.02239691 -0.02238483 -0.02237109 -0.022355 -0.02233642 -0.02231627
 -0.02229462 -0.02227314 -0.02225195 -0.0222328 -0.02221566 -0.02220145 -0.02218984 -0.02218053 -0.0221728 -0.02216519
 -0.02215706 -0.02214675 -0.0221343 -0.02211894 -0.02210156 -0.02208231 -0.02206279 -0.02204378 -0.02202629 -0.02201103
 -0.0219974 -0.02198557 -0.02197384 -0.02196198 -0.02194878 -0.02193411 -0.0219179 -0.02190018 -0.02188209 -0.02186373
 -0.02184645 -0.02183023 -0.02181583 -0.02180292 -0.02179095 -0.0217795 -0.02176744 -0.02175461 -0.02174014 -0.02172465
 -0.02170837 -0.02169217 -0.02167663 -0.02166267 -0.02165097 -0.02164162 -0.02163507 -0.02162991 -0.02162611 -0.02162134
 -0.02161522 -0.0216066 -0.02159525 -0.02158209 -0.02156715 -0.02155188 -0.02153623 -0.02152017 -0.0215036 -0.02148584
 -0.02146718 -0.0214481 -0.02142918 -0.02141205 -0.02139658 -0.02138355 -0.02137183 -0.02136062 -0.02134879 -0.02133494
 -0.02131969 -0.02130267 -0.02128579 -0.02126971 -0.02125538 -0.02124351 -0.02123226 -0.02122162 -0.02120861 -0.02119285
 -0.02117438 -0.02115324 -0.02113336 -0.02111491 -0.0211012 -0.02109165 -0.02108503 -0.02108033 -0.0210733 -0.02106408
 -0.02105059 -0.02103427 -0.02101649 -0.02099832 -0.02098171 -0.02096625 -0.02095235 -0.02093895 -0.02092548 -0.02091183
 -0.02089766 -0.02088401 -0.02087111 -0.02085954 -0.02084961 -0.02084014 -0.02083114 -0.02082016 -0.02080706 -0.02079042
 -0.0207704 -0.02074823 -0.0207243 -0.02070156 -0.02068002 -0.02066155 -0.02064552 -0.0206317 -0.02061898 -0.02060559
 -0.02059083 -0.02057311 -0.02055271 -0.020529 -0.02050352 -0.02047668 -0.02045046 -0.02042571 -0.02040333 -0.02038398
 -0.02036623 -0.02035015 -0.02033294 -0.02031436 -0.02029222 -0.02026641 -0.02023736 -0.02020534 -0.02017343 -0.02014196
 -0.0201146 -0.02009096 -0.02007195 -0.02005634 -0.02004193 -0.0200274 -0.02000941 -0.01998796 -0.0199614 -0.01993134
 -0.01989817 -0.01986438 -0.01983137 -0.01980084 -0.01977386 -0.0197505 -0.01973126 -0.0197142 -0.01969923 -0.01968372
 -0.0196674 -0.01964845 -0.01962676 -0.01960326 -0.01957813 -0.019554 -0.01953083 -0.01951004 -0.01949093 -0.01947169
 -0.01945185 -0.01942904 -0.01940398 -0.01937639 -0.01934818 -0.01932131 -0.01929728 -0.01927827 -0.01926373 -0.01925442
 -0.01924772 -0.01924296 -0.01923764 -0.0192308 -0.01922236 -0.01921196 -0.01920151 -0.01919121 -0.0191816 -0.01917273
 -0.01916219 -0.0191499 -0.01913395 -0.01911478 -0.01909413 -0.01907254 -0.01905329 -0.01903589 -0.01902098 -0.01900745
 -0.01899347 -0.01897899 -0.01896293 -0.01894656 -0.01893049 -0.01891594 -0.01890408 -0.01889445 -0.01888742 -0.01888121
 -0.0188755 -0.01886882 -0.01886074 -0.01885129 -0.01884034 -0.01882925 -0.01881811 -0.01880775 -0.01879816 -0.01878908
 -0.01878054 -0.01877248 -0.01876509 -0.01875933 -0.018755 -0.01875234 -0.01875051 -0.01874812 -0.01874477 -0.01873903
 -0.01873202 -0.01872401 -0.01871656 -0.01871094 -0.01870681 -0.01870459 -0.0187025 -0.01870006 -0.01869641 -0.01869115
 -0.01868526 -0.01867877 -0.0186729 -0.01866775 -0.01866327 -0.01865942 -0.01865559 -0.01865186 -0.01864841 -0.01864542
 -0.01864378 -0.01864327 -0.01864394 -0.01864525 -0.01864633 -0.01864673 -0.01864541 -0.01864263 -0.01863812 -0.01863272
 -0.01862662 -0.01862113 -0.01861664 -0.01861468 -0.0186159 -0.01862016 -0.01862787 -0.01863602 -0.01864454 -0.01864862
 -0.01864794 -0.01864036 -0.01862604 -0.01860759 -0.01858553 -0.01856503 -0.01854605 -0.01853149 -0.01852034 -0.01851151
 -0.01850403 -0.01849547 -0.01848606 -0.01847487 -0.01846324 -0.01845224 -0.01844212 -0.01843359 -0.0184256 -0.01841782
 -0.01840977 -0.01840108 -0.01839245 -0.01838401 -0.01837591 -0.01836828 -0.01835985 -0.01835057 -0.01833906 -0.01832536
 -0.01830979 -0.01829256 -0.01827522 -0.01825797 -0.01824248 -0.01822873 -0.01821764 -0.01820882 -0.01820214 -0.01819668
 -0.01819117 -0.01818507 -0.01817739 -0.01816834 -0.01815787 -0.01814595 -0.01813273 -0.01811748 -0.01809994 -0.01808004
 -0.01805744 -0.01803426 -0.01801062 -0.01798936 -0.01797071 -0.01795503 -0.0179422 -0.01792951 -0.01791682 -0.01790177
 -0.01788473 -0.01786594 -0.01784611 -0.0178274 -0.01780986 -0.01779488 -0.01778151 -0.01776931 -0.01775686 -0.0177427
 -0.01772606 -0.01770579 -0.01768268 -0.01765653 -0.01762911 -0.01760095 -0.01757286 -0.01754522 -0.01751739 -0.01748932
 -0.01746091 -0.01743212 -0.01740447 -0.01737802 -0.01735393 -0.01733197 -0.01731124 -0.01729136 -0.01727019 -0.01724788
 -0.01722354 -0.01719789 -0.01717197 -0.01714613 -0.01712148 -0.01709742 -0.01707385 -0.01704997 -0.0170251 -0.01699932
 -0.01697226 -0.01694522 -0.01691859 -0.01689299 -0.01686881 -0.0168451 -0.01682193 -0.0167969 -0.01676983 -0.01673928
 -0.01670527 -0.01666884 -0.01663033 -0.01659278 -0.0165563 -0.01652316 -0.01649277 -0.0164648 -0.01643821 -0.0164106
 -0.01638188 -0.01635071 -0.016318 -0.01628429 -0.01624999 -0.01621587 -0.01618085 -0.01614455 -0.01610642 -0.01606593
 -0.0160243 -0.0159816 -0.01593944 -0.01589814 -0.01585765 -0.01581803 -0.01577818 -0.01573807 -0.01569751 -0.0156566
 -0.01561621 -0.01557653 -0.01553898 -0.0155035 -0.01547081 -0.0154404 -0.01541195 -0.01538414 -0.01535507 -0.01532359
 -0.01528759 -0.01524743 -0.0152022 -0.01515439 -0.0151045 -0.01505596 -0.01501006 -0.0149683 -0.01493166 -0.01489781
 -0.01486682 -0.01483442 -0.01480026 -0.01476225 -0.01472039 -0.01467658 -0.01463109 -0.01458697 -0.01454417 -0.01450408
 -0.01446651 -0.01443153 -0.01439905 -0.01436908 -0.01434107 -0.01431443 -0.01428821 -0.01426105 -0.01423314 -0.01420372
 -0.01417486 -0.01414718 -0.01412279 -0.01410274 -0.01408704 -0.014076 -0.01406839 -0.01406401 -0.01406261 -0.0140641
 -0.01406934 -0.01407835 -0.01409092 -0.01410684 -0.01412374 -0.01414144 -0.01415763 -0.01417284 -0.0141874 -0.01420214
 -0.01421914 -0.01423836 -0.01426091 -0.01428587 -0.0143127 -0.01434075 -0.01436923 -0.0143983 -0.01442787 -0.01445802
 -0.0144889 -0.01451976 -0.01455054 -0.01458027 -0.01460885 -0.01463528 -0.01465949 -0.01468049 -0.01469822 -0.01471225
 -0.01472275 -0.01473139 -0.0147385 -0.01474678 -0.01475626 -0.01476853 -0.01478334 -0.01480077 -0.01482111 -0.01484468
 -0.0148722 -0.01490476 -0.01494188 -0.01498405 -0.01502894 -0.01507571 -0.01512205 -0.01516695 -0.01520937 -0.01524883
 -0.01528527 -0.01531855 -0.01534932 -0.01537757 -0.01540473 -0.01543089 -0.01545694 -0.01548283 -0.01550826 -0.01553305
 -0.01555617 -0.01557758 -0.01559675 -0.01561364 -0.01562786 -0.01563949 -0.01564858 -0.01565512 -0.01565912 -0.01566055
 -0.01565932 -0.01565577 -0.01564963 -0.01564293 -0.01563601 -0.01563171 -0.01563106 -0.01563379 -0.01564038 -0.01564676
 -0.01565257 -0.01565518 -0.01565447 -0.01565138 -0.01564595 -0.01563928 -0.01563117 -0.01562093 -0.0156086 -0.01559354
 -0.01557676 -0.01556022 -0.01554465 -0.01553252 -0.01552257 -0.0155146 -0.01550668 -0.01549704 -0.01548542 -0.01547075
 -0.01545511 -0.01543893 -0.01542412 -0.01541159 -0.0154002 -0.01539014 -0.01537817 -0.01536394 -0.01534609 -0.01532457
 -0.01530145 -0.01527687 -0.01525317 -0.01523011 -0.01520753 -0.01518503 -0.01516087 -0.0151354 -0.01510809 -0.01508059
 -0.01505504 -0.01503332 -0.015019 -0.01501097 -0.01501047 -0.01501295 -0.01501636 -0.01501765 -0.01501484 -0.01500844
 -0.01499806 -0.01498542 -0.01497077 -0.01495495 -0.01493806 -0.01492036 -0.01490188 -0.01488378 -0.01486609 -0.01484987
 -0.01483478 -0.0148195 -0.0148036 -0.01478465 -0.01476299 -0.01473783 -0.01471061 -0.01468313 -0.01465687 -0.01463449
 -0.01461592 -0.01460253 -0.01459193 -0.01458345 -0.01457429 -0.01456302 -0.01454911 -0.01453178 -0.01451343 -0.01449425
 -0.01447696 -0.01446195 -0.01444912 -0.0144385 -0.01442771 -0.01441664 -0.0144033 -0.0143879 -0.01437067 -0.01435191
 -0.01433293 -0.01431352 -0.01429383 -0.01427358 -0.01425216 -0.01423001 -0.01420734 -0.01418474 -0.01416308 -0.01414158
 -0.01412043 -0.01409758 -0.01407227 -0.01404324 -0.0140097 -0.0139728 -0.01393242 -0.01389098 -0.01384869 -0.01380784
 -0.01376857 -0.01373174 -0.01369723 -0.01366358 -0.01363069 -0.01359699 -0.01356295 -0.0135293 -0.01349679 -0.013468
 -0.01344245 -0.01342084 -0.01340147 -0.01338259 -0.01336302 -0.01334107 -0.01331663 -0.01328916 -0.01325893 -0.01322591
 -0.01319033 -0.01315215 -0.01311212 -0.01307007 -0.01302871 -0.01298819 -0.012952 -0.0129204 -0.01289328 -0.01287031
 -0.01284643 -0.01282146 -0.01279148 -0.01275715 -0.01271882 -0.01267744 -0.01263565 -0.0125937 -0.01255339 -0.0125141
 -0.01247582 -0.0124378 -0.01239922 -0.0123602 -0.0123201 -0.01228111 -0.01224376 -0.01221031 -0.01218163 -0.01215805
 -0.01213994 -0.01212572 -0.01211531 -0.01210711 -0.01210103 -0.0120949 -0.01208851 -0.01207834 -0.01206419 -0.01204279
 -0.01201454 -0.01197889 -0.01193713 -0.01189216 -0.01184539 -0.01180065 -0.0117585 -0.01172131 -0.01168862 -0.01166123
 -0.01163721 -0.01161615 -0.01159472 -0.01157177 -0.01154406 -0.01151034 -0.01146974 -0.01142148 -0.01136864 -0.01131127
 -0.01125413 -0.01119757 -0.01114307 -0.01109052 -0.01103792 -0.01098523 -0.01093118 -0.01087603 -0.01082038 -0.01076392
 -0.01070631 -0.01064661 -0.01058258 -0.01051472 -0.01044225 -0.01036736 -0.01029171 -0.01021681 -0.01014455 -0.0100738
 -0.01000481 -0.009935382 -0.009865042 -0.00979194 -0.009715801 -0.00963465 -0.009548324 -0.009454546 -0.009353165 -0.009242264
 -0.009121835 -0.008991565 -0.008851967 -0.008706502 -0.008555911 -0.008405445 -0.008254675 -0.008105597 -0.007956374 -0.007804888
 -0.007648819 -0.007485358 -0.007309999 -0.007119805 -0.006905331 -0.00666043 -0.006377673 -0.006048823 -0.005686111 -0.005287019
 -0.004884928 -0.004485121 -0.004113978 -0.003775874 -0.003477987 -0.003221149 -0.003006489 -0.002834027 -0.002704446 -0.002616876
 -0.002566158 -0.002549479 -0.002553465 -0.00257339 -0.00259104 -0.002599927 -0.002580279 -0.002526395 -0.002421956 -0.002267219
 -0.002055989 -0.001792941 -0.001480218 -0.001118047 -0.0007083697 -0.0002450538 0.0002735764 0.0008505742 0.00148772 0.002179881
 0.002926751 0.003723173 0.004568689 0.005463463 0.006407147 0.007392838 0.008418167 0.009460482 0.01051885 0.01157535
 0.01263459 0.01370325 0.01477855 0.01587015 0.01694218 0.01797028 0.01886849 0.01956931 0.01994942 0.01992059
 0.01937624 0.01823694 0.01649843 0.01411536 0.01124622 0.007888446 0.004334665 0.0006088589 -0.00296919 -0.006374823
 -0.009388085 -0.01200295 -0.0141703 -0.01590293 -0.01728073 -0.01831913 -0.01912701 -0.01971316 -0.02015683 -0.02046334
 -0.02067806 -0.02080726 -0.02087615 -0.02089246 -0.02087084 -0.02081913 -0.02074595 -0.02065705 -0.02055671 -0.02044853
 -0.02033413 -0.02021664 -0.02009696 -0.0199768 -0.01985667 -0.01973545 -0.01961311 -0.019488 -0.01936015 -0.01923082
 -0.01910032 -0.01897176 -0.01884529 -0.0187232 -0.01860534 -0.01849244 -0.01838415 -0.01828019 -0.01818003 -0.0180829
 -0.01798817 -0.01789505 -0.01780297 -0.01771142 -0.01761986 -0.01752784 -0.01743545 -0.01734236 -0.01724998 -0.01715839
 -0.01706953 -0.01698367 -0.01690207 -0.0168249 -0.01675243 -0.01668466 -0.01662038 -0.01655936 -0.01649874 -0.01643837
 -0.01637591 -0.0163119 -0.0162467 -0.0161812 -0.0161175 -0.016056 -0.01599829 -0.01594398 -0.0158933 -0.01584567
 -0.01580079 -0.01575813 -0.01571742 -0.01567815 -0.01564018 -0.01560273 -0.01556563 -0.01552841 -0.0154909 -0.01545347
 -0.01541607 -0.01538029 -0.01534617 -0.01531427 -0.01528438 -0.01525476 -0.01522519 -0.01519353 -0.01516012 -0.01512487
 -0.01508833 -0.0150517 -0.01501506 -0.0149791 -0.01494361 -0.01490858 -0.01487391 -0.01483947 -0.01480534 -0.01477152
 -0.01473813 -0.01470518 -0.01467289 -0.01464136 -0.01461056 -0.01458056 -0.01455082 -0.01452129 -0.01449147 -0.01446135
 -0.01443061 -0.01439926 -0.0143672 -0.01433464 -0.01430263 -0.01427145 -0.01424279 -0.01421628 -0.0141923 -0.01416949
 -0.01414606 -0.01412084 -0.01409178 -0.0140589 -0.01402126 -0.01398024 -0.01393587 -0.0138908 -0.01384567 -0.01380349
 -0.01376523 -0.01373154 -0.01370301 -0.01367664 -0.0136523 -0.0136266 -0.01359939 -0.01357092 -0.01354135 -0.01351301
 -0.01348576 -0.01346023 -0.01343589 -0.01341116 -0.0133861 -0.01335977 -0.01333306 -0.01330688 -0.013282 -0.01326007
 -0.01323992 -0.01322157 -0.01320277 -0.01318219 -0.01315926 -0.01313301 -0.01310582 -0.01307798 -0.01305185 -0.01302807
 -0.01300592 -0.01298551 -0.01296408 -0.01294151 -0.01291721 -0.01289138 -0.01286611 -0.01284158 -0.01282003 -0.01280092
 -0.01278368 -0.01276737 -0.01274948 -0.01272988 -0.01270687 -0.01268188 -0.01265564 -0.01262985 -0.0126063 -0.01258506
 -0.01256699 -0.01255053 -0.01253553 -0.01251974 -0.01250259 -0.01248275 -0.01245982 -0.01243427 -0.01240599 -0.01237774
 -0.01234966 -0.01232433 -0.01230165 -0.01228145 -0.0122634 -0.01224554 -0.01222789 -0.01220935 -0.01219024 -0.01217074
 -0.01215096 -0.01213115 -0.01211114 -0.01209091 -0.01207008 -0.01204839 -0.01202542 -0.01200066 -0.01197467 -0.01194712
 -0.01192037 -0.01189483 -0.01187267 -0.01185448 -0.01183968 -0.01182839 -0.01181823 -0.01180907 -0.01180009 -0.01179141
 -0.01178441 -0.01177921 -0.01177747 -0.01177883 -0.01178317 -0.01178946 -0.01179552 -0.01179981 -0.01179882 -0.01179176
 -0.01177571 -0.01175264 -0.01172229 -0.01168932 -0.01165604 -0.01162616 -0.01160213 -0.01158318 -0.0115701 -0.01155854
 -0.01154795 -0.01153492 -0.01151891 -0.01150025 -0.01147893 -0.01145663 -0.01143329 -0.01140841 -0.01138174 -0.01135134
 -0.01131765 -0.01128081 -0.01124222 -0.01120534 -0.01117103 -0.01114276 -0.01111922 -0.01110066 -0.01108441 -0.01106831
 -0.01105099 -0.01103066 -0.0110086 -0.01098491 -0.01096079 -0.01093698 -0.01091178 -0.01088509 -0.01085492 -0.01082091
 -0.01078405 -0.01074437 -0.01070485 -0.01066548 -0.01062666 -0.01058798 -0.0105468 -0.01050319 -0.01045566 -0.01040549
 -0.01035484 -0.01030534 -0.01026082 -0.01022208 -0.01019202 -0.01016921 -0.0101541 -0.01014298 -0.01013417 -0.0101241
 -0.01011056 -0.01009359 -0.01007228 -0.01005 -0.01002711 -0.01000653 -0.009988668 -0.009974213 -0.009963237 -0.009954902
 -0.009949127 -0.009944534 -0.009941003 -0.009936978 -0.009932605 -0.009927428 -0.009922056 -0.009917773 -0.009915051 -0.00991542
 -0.009918693 -0.009925371 -0.009934791 -0.009946761 -0.009960127 -0.009974572 -0.009987868 -0.009999278 -0.01000646 -0.01000839
 -0.0100051 -0.009996001 -0.009984545 -0.009970888 -0.009959536 -0.009950797 -0.00994652 -0.009946596 -0.009949225 -0.009954134
 -0.009958501 -0.009962485 -0.009965089 -0.009966914 -0.009969215 -0.009971913 -0.009975835 -0.009979652 -0.009982223 -0.009982028
 -0.009976848 -0.009967632 -0.009953696 -0.009938373 -0.009922754 -0.009909575 -0.009900326 -0.009893582 -0.009889647 -0.009884618
 -0.009877985 -0.009868266 -0.009855256 -0.009842338 -0.009829734 -0.009821882 -0.009818492 -0.009819884 -0.009825054 -0.009829992
 -0.009834261 -0.009834218 -0.009831025 -0.009824935 -0.009817549 -0.009811391 -0.00980626 -0.009803397 -0.00980047 -0.009796441
 -0.009789552 -0.009778322 -0.009764072 -0.009746515 -0.009728848 -0.009711606 -0.009696993 -0.009685399 -0.009677217 -0.00967253
 -0.009670319 -0.009670418 -0.00966962 -0.00966753 -0.009659482 -0.009645641 -0.009623629 -0.009595061 -0.00956285 -0.009528847
 -0.009498262 -0.009470866 -0.009448958 -0.009430367 -0.009413859 -0.009398008 -0.009381254 -0.009364136 -0.009346545 -0.00932899
 -0.009311783 -0.009294253 -0.009276289 -0.009257607 -0.0092381 -0.009218389 -0.009198532 -0.009178245 -0.009157468 -0.009134684
 -0.009109987 -0.009083229 -0.009054914 -0.009027167 -0.009000306 -0.008976641 -0.008955382 -0.008936333 -0.008918114 -0.008898686
 -0.00887754 -0.008853038 -0.008826631 -0.00879839 -0.008770889 -0.008745364 -0.00872302 -0.008704918 -0.008689138 -0.008675762
 -0.008661216 -0.00864498 -0.008625622 -0.008602921 -0.008578748 -0.008553221 -0.008528925 -0.008505792 -0.008484513 -0.008464717
 -0.008445146 -0.00842554 -0.008404542 -0.008382066 -0.008357052 -0.008330253 -0.008301718 -0.008273676 -0.008247902 -0.00822698
 -0.008213678 -0.008207271 -0.008209176 -0.008213843 -0.00822024 -0.008222559 -0.008219012 -0.008209256 -0.008192661 -0.008173522
 -0.00815209 -0.00813205 -0.008113489 -0.008096681 -0.008081492 -0.008066928 -0.008053012 -0.008039418 -0.008026122 -0.008012971
 -0.00799976 -0.007985978 -0.007971585 -0.007956224 -0.007940173 -0.007923611 -0.007906624 -0.007889501 -0.007871604 -0.007852593
 -0.00783249 -0.007810858 -0.007789704 -0.007769179 -0.007752081 -0.00773908 -0.007729101 -0.007722251 -0.007713803 -0.007703593
 -0.007689526 -0.007672012 -0.007654017 -0.007635702 -0.007619892 -0.007605318 -0.007589452 -0.007571637 -0.007548288 -0.007522127
 -0.007494784 -0.00747064 -0.007455215 -0.007449139 -0.007456116 -0.007469841 -0.00748938 -0.007505549 -0.007515116 -0.007513012
 -0.007496682 -0.007469851 -0.007432073 -0.007392704 -0.007352421 -0.007318465 -0.007291044 -0.007269684 -0.007253881 -0.007238678
 -0.007223927 -0.007206115 -0.007185926 -0.007163513 -0.007139762 -0.007116546 -0.007094462 -0.007075205 -0.007058863 -0.00704626
 -0.007036865 -0.007030767 -0.007026777 -0.007024483 -0.0070226 -0.0070208 -0.007017525 -0.007012624 -0.007003616 -0.00699016
 -0.00697032 -0.006943741 -0.006912663 -0.006877291 -0.00684446 -0.006814503 -0.006793747 -0.006781484 -0.006778048 -0.006781465
 -0.006785774 -0.006789552 -0.006786508 -0.006777289 -0.006759719 -0.006736116 -0.006707905 -0.006677337 -0.006646694 -0.006616304
 -0.006587287 -0.006557843 -0.006527575 -0.006495165 -0.006459616 -0.006424112 -0.006388504 -0.006359682 -0.006338324 -0.006327393
 -0.006326909 -0.006330082 -0.006336157 -0.006334159 -0.006324811 -0.006305262 -0.006278534 -0.006252775 -0.006230333 -0.006221369
 -0.006223715 -0.006239854 -0.006263294 -0.006288807 -0.006309685 -0.006319055 -0.006314749 -0.006292474 -0.006257948 -0.006210842
 -0.006162285 -0.006114514 -0.006076374 -0.006050152 -0.006034793 -0.006030835 -0.006028682 -0.006027866 -0.006020585 -0.006007196
 -0.005988927 -0.005966729 -0.005946708 -0.005928508 -0.005914603 -0.005903152 -0.005891024 -0.00587752 -0.005859453 -0.005838926
 -0.00581669 -0.005795517 -0.005778038 -0.005764726 -0.005756989 -0.005752701 -0.005751555 -0.005751291 -0.005751289 -0.005750443
 -0.005748488 -0.005745016 -0.005739938 -0.0057335 -0.00572572 -0.005717978 -0.005710306 -0.005703676 -0.005697756 -0.005691211
 -0.005683685 -0.005672994 -0.005659649 -0.005643535 -0.005625742 -0.005608177 -0.005590861 -0.005574673 -0.005558948 -0.00554311
 -0.005527825 -0.00551301 -0.005500326 -0.005490839 -0.005483336 -0.005478296 -0.005471135 -0.005461185 -0.005445444 -0.005423326
 -0.005397079 -0.005366809 -0.005336877 -0.005307407 -0.00528108 -0.005257852 -0.005238989 -0.005224215 -0.005213726 -0.005206239
 -0.005199255 -0.005190857 -0.005176405 -0.005156122 -0.005127524 -0.005094329 -0.005058088 -0.005023377 -0.004993229 -0.004969513
 -0.004953933 -0.004945369 -0.004944049 -0.004947733 -0.004956267 -0.004966794 -0.004979095 -0.004990201 -0.004999935 -0.005006595
 -0.005010184 -0.005010331 -0.005007145 -0.005000948 -0.004992021 -0.004981322 -0.00496952 -0.004958788 -0.004949257 -0.004942545
 -0.004937288 -0.004932689 -0.004927211 -0.004918947 -0.0049085 -0.00489511 -0.00488175 -0.004869352 -0.004860026 -0.004854928
 -0.004852583 -0.004853259 -0.00485293 -0.004851303 -0.004844432 -0.004832075 -0.004812495 -0.004785825 -0.00475325 -0.004715538
 -0.004677609 -0.004640806 -0.004612777 -0.004594008 -0.004590438 -0.00459948 -0.0046206 -0.004648257 -0.004675488 -0.004699463
 -0.004714101 -0.004723688 -0.004728589 -0.004734128 -0.004744635 -0.004753414 -0.004761735 -0.004751049 -0.004716602 -0.004659949
 -0.004579119 -0.004500274 -0.004424866 -0.004370324 -0.004336465 -0.004323445 -0.00432922 -0.00434142 -0.004357782 -0.004362502
 -0.004356417 -0.004332376 -0.004295355 -0.004249685 -0.004201998 -0.004162211 -0.004133422 -0.004123249 -0.004126406 -0.004143737
 -0.004163809 -0.004182354 -0.004191833 -0.004187965 -0.004175274 -0.004152875 -0.004133053 -0.004117224 -0.004111464 -0.004116375
 -0.004123609 -0.004132345 -0.004127778 -0.004110002 -0.004071794 -0.004015219 -0.003944268 -0.003860964 -0.003772298 -0.003679502
 -0.003586893 -0.003497608 -0.003416031 -0.003347606 -0.003299183 -0.003271196 -0.003268134 -0.003280235 -0.003306016 -0.00333221
 -0.003354964 -0.003366104 -0.003363182 -0.003344774 -0.0033096 -0.003267865 -0.003219923 -0.003186533 -0.003168251 -0.003176924
 -0.003209855 -0.003254362 -0.003307045 -0.003345929 -0.003373547 -0.003384213 -0.003384424 -0.003384499 -0.003385456 -0.003394671
 -0.003405461 -0.00341436 -0.003416664 -0.003406545 -0.003389371 -0.003364656 -0.003342906 -0.003327653 -0.00332192 -0.003327954
 -0.003338185 -0.003352309 -0.003360776 -0.003362851 -0.003356486 -0.00334192 -0.003324347 -0.003304 -0.003285309 -0.003267432
 -0.003249077 -0.003229772 -0.003206582 -0.003181993 -0.003158499 -0.003140133 -0.003134389 -0.003139624 -0.003159795 -0.003183299
 -0.003205109 -0.003213658 -0.003200256 -0.003170106 -0.003119976 -0.003071611 -0.003028524 -0.003006503 -0.00300938 -0.003028075
 -0.00306265 -0.003087713 -0.003102423 -0.003091706 -0.003057588 -0.003007818 -0.002945637 -0.002889395 -0.002839163 -0.002805175
 -0.002784378 -0.002775528 -0.002776715 -0.00278447 -0.002799228 -0.002820971 -0.002847796 -0.002880163 -0.002910689 -0.002936722
 -0.002951667 -0.002951826 -0.002940216 -0.0029158 -0.002888929 -0.002860806 -0.002837804 -0.002820633 -0.002806644 -0.002795675
 -0.002783848 -0.002771604 -0.002760845 -0.002752004 -0.002748728 -0.002749468 -0.002752028 -0.002754283 -0.002750492 -0.002741221
 -0.002724217 -0.002702432 -0.002678266 -0.002652403 -0.00262658 -0.002598586 -0.002567521 -0.002533104 -0.002494408 -0.002454914
 -0.002414843 -0.002378826 -0.002347379 -0.002324325 -0.002309994 -0.002306297 -0.00231327</values></Ydata></AB><ScSm><Ydata ylabel="Single channel"><values byteorder="INTEL" format="FLOAT32" numvalues="1814"> 0.07592297 0.07601857 0.07612769 0.07625824 0.07640621 0.07655779 0.07669733 0.07681741 0.07692085 0.0770117
 0.07709257 0.07717429 0.07727621 0.07740842 0.07755914 0.07770272 0.07781799 0.07790592 0.07799336 0.07810777
 0.07823879 0.07833575 0.07835492 0.07830814 0.07825693 0.07825769 0.07832374 0.07845474 0.07867251 0.07896669
 0.07921625 0.07926684 0.07912457 0.07898442 0.07901487 0.07918822 0.07936019 0.07942938 0.07937799 0.07925804
 0.07920964 0.07941597 0.07993785 0.08058102 0.08095741 0.08070716 0.07973633 0.07834943 0.07718029 0.07686049
 0.0775615 0.07880367 0.07981659 0.08016142 0.07996845 0.07960689 0.07930028 0.07912142 0.07916267 0.07952003
 0.08013457 0.08072999 0.08092126 0.08046794 0.07954691 0.07871971 0.07847479 0.07884888 0.0795991 0.08049545
 0.08110373 0.08056924 0.07837501 0.07548893 0.0740599 0.07543276 0.07874104 0.08180806 0.08312745 0.08265805
 0.08119364 0.07966429 0.07889182 0.07930588 0.08066043 0.08227676 0.08358483 0.08427955 0.08417483 0.08328506
 0.08200597 0.08095059 0.08061195 0.0812221 0.08265499 0.08428051 0.08521643 0.08502503 0.08404119 0.08293661
 0.08222522 0.08223842 0.08314833 0.08476187 0.08654055 0.0880001 0.08896272 0.08944686 0.08954577 0.08941025
 0.0891763 0.08894455 0.08888046 0.08912995 0.08953056 0.08964615 0.08925231 0.08864141 0.08832671 0.08851378
 0.08892514 0.08913556 0.08899263 0.08853391 0.08755325 0.08570392 0.08320417 0.08093984 0.07959083 0.07915089
 0.07950231 0.0807119 0.0823449 0.08326036 0.08277417 0.08160299 0.08110078 0.08181458 0.08317258 0.08436184
 0.08513759 0.08583698 0.0868731 0.08825991 0.08948049 0.08980531 0.08895899 0.08758792 0.08683644 0.08725367
 0.08830273 0.08911535 0.08946818 0.08977576 0.09034554 0.0909099 0.09084687 0.08982992 0.08837332 0.08764887
 0.08851268 0.09064896 0.09272869 0.09340457 0.09226562 0.09006715 0.08810373 0.08727854 0.08774777 0.08928663
 0.09160814 0.09422512 0.09637703 0.09741483 0.09724717 0.09632587 0.09515611 0.0938244 0.09217207 0.09052747
 0.08990261 0.09104057 0.09344953 0.09579004 0.09710817 0.09736302 0.09688262 0.09571984 0.09374061 0.09128838
 0.08947631 0.08937752 0.09083039 0.09248137 0.09323292 0.0932668 0.09342116 0.09399377 0.09454806 0.09467198
 0.09453178 0.09462626 0.09517962 0.09591286 0.09639129 0.09646437 0.0963169 0.09620499 0.09620707 0.09617318
 0.09594333 0.09568799 0.09589572 0.09684928 0.09823144 0.09943371 0.1001494 0.1004975 0.1006575 0.100569
 0.1000408 0.09913347 0.09834582 0.0982613 0.09898075 0.1000475 0.1009344 0.1014378 0.1016214 0.1016141
 0.1015227 0.1014079 0.1013027 0.1012838 0.101456 0.1018116 0.1021933 0.1024506 0.1025616 0.1025747
 0.1025087 0.1023577 0.102156 0.1019968 0.101974 0.102108 0.1023413 0.1025979 0.1028171 0.1029434
 0.1029446 0.1028531 0.1027457 0.1026736 0.102641 0.1026474 0.1027101 0.1028332 0.1029813 0.103103
 0.1031722 0.103196 0.1031891 0.1031579 0.1031129 0.1030785 0.1030841 0.1031439 0.1032407 0.1033375
 0.1034196 0.1035143 0.1036424 0.1037646 0.1038166 0.1037898 0.1037418 0.1037322 0.1037752 0.1038492
 0.1039241 0.1039717 0.103967 0.1039053 0.1038265 0.1038047 0.1038913 0.1040776 0.1043192 0.1045727
 0.1047971 0.1049576 0.1050547 0.1051256 0.1051992 0.1052705 0.105325 0.1053716 0.1054439 0.1055738
 0.1057607 0.1059658 0.106144 0.1062749 0.1063647 0.1064384 0.1065354 0.1066765 0.1068251 0.1069167
 0.1069423 0.106968 0.1070541 0.1071839 0.1072901 0.107334 0.1073421 0.1073691 0.1074412 0.1075403
 0.107635 0.1077176 0.1078078 0.1079216 0.1080377 0.1081023 0.1080814 0.1080035 0.1079325 0.1079031
 0.1079047 0.1079221 0.1079613 0.1080253 0.1080882 0.1081126 0.1080886 0.1080444 0.1080157 0.1080061
 0.1079855 0.1079259 0.107831 0.107729 0.1076466 0.1075915 0.1075512 0.1075037 0.1074317 0.1073314
 0.1072114 0.1070836 0.1069559 0.106835 0.1067393 0.106694 0.1066963 0.1066882 0.1065911 0.1063787
 0.1061072 0.1058618 0.105684 0.1055491 0.1054045 0.1052184 0.1049976 0.1047703 0.1045587 0.1043664
 0.1041844 0.104005 0.1038339 0.1036901 0.1035861 0.1035011 0.1033851 0.1032033 0.102973 0.1027437
 0.1025497 0.1023921 0.1022564 0.1021301 0.1020086 0.1018986 0.1018099 0.1017366 0.1016546 0.1015496
 0.1014362 0.1013441 0.1012965 0.1012999 0.101336 0.1013612 0.1013367 0.1012681 0.1012005 0.1011703
 0.1011762 0.1011991 0.1012305 0.1012739 0.1013309 0.1013984 0.1014765 0.1015705 0.1016844 0.1018136
 0.1019464 0.1020704 0.1021818 0.1022901 0.1024127 0.1025617 0.1027335 0.1029106 0.1030754 0.1032237
 0.1033652 0.1035119 0.1036666 0.1038274 0.1039973 0.1041821 0.104381 0.1045863 0.104795 0.1050117
 0.105241 0.1054816 0.1057297 0.1059898 0.1062775 0.1066075 0.1069716 0.107333 0.1076564 0.1079446
 0.108237 0.1085737 0.1089656 0.1093934 0.109824 0.1102345 0.1106316 0.1110464 0.1115004 0.111985
 0.1124825 0.1130015 0.1135735 0.1142115 0.1148791 0.1155107 0.116065 0.1165587 0.1170416 0.11754
 0.1180322 0.1184817 0.1188822 0.1192568 0.1196218 0.1199709 0.1202984 0.1206175 0.1209408 0.1212563
 0.1215376 0.1217742 0.1219763 0.1221538 0.1222997 0.1223965 0.1224316 0.1224091 0.1223496 0.1222712
 0.1221666 0.1220085 0.1217823 0.1215082 0.1212263 0.120974 0.1207844 0.1206929 0.1207247 0.1208785
 0.1211365 0.1214946 0.1219617 0.1225212 0.1231127 0.1236755 0.1242006 0.1247192 0.1252512 0.1257885
 0.1263257 0.1268762 0.1274514 0.1280409 0.1286192 0.1291694 0.129698 0.1302294 0.1307767 0.1313156
 0.1317985 0.1322025 0.1325548 0.1329069 0.133292 0.1337116 0.1341476 0.1345796 0.1349933 0.1353775
 0.1357165 0.1359946 0.1362139 0.1363987 0.1365688 0.1367103 0.136782 0.1367488 0.1365994 0.136332
 0.1359383 0.1354129 0.1347784 0.1341001 0.1334742 0.1329996 0.1327513 0.1327683 0.1330526 0.1335692
 0.1342459 0.1349849 0.1356842 0.1362518 0.1366092 0.1367001 0.1365085 0.1360656 0.1354315 0.1346709
 0.1338422 0.1329937 0.132164 0.1313969 0.1307722 0.1304146 0.1304595 0.1310013 0.1320607 0.1335678
 0.1353593 0.1372136 0.1389325 0.1404158 0.141668 0.1427437 0.1436956 0.1445602 0.1453647 0.1461267
 0.1468493 0.1475271 0.1481583 0.1487451 0.149284 0.1497604 0.150154 0.1504475 0.1506355 0.1507317
 0.1507628 0.1507528 0.150716 0.150664 0.1506037 0.1505193 0.1503646 0.150087 0.149662 0.1491104
 0.1485032 0.1479674 0.1476806 0.1478267 0.1485138 0.1497048 0.1512229 0.1528366 0.1543565 0.1556727
 0.1567428 0.1575771 0.1582278 0.1587642 0.1592402 0.1596828 0.1601037 0.1605105 0.1609082 0.1612993
 0.1616849 0.1620681 0.1624567 0.1628626 0.1632941 0.1637528 0.1642398 0.1647623 0.1653279 0.1659315
 0.1665489 0.1671479 0.1677093 0.1682356 0.1687362 0.1692078 0.1696385 0.1700288 0.1703978 0.1707672
 0.1711471 0.1715351 0.1719204 0.172288 0.1726282 0.172946 0.1732556 0.1735669 0.17388 0.1741902
 0.1744942 0.1747907 0.1750809 0.1753699 0.1756646 0.1759665 0.1762674 0.1765539 0.1768195 0.1770711
 0.1773222 0.1775807 0.1778454 0.1781113 0.1783755 0.17864 0.1789103 0.1791897 0.1794729 0.1797488
 0.1800104 0.1802596 0.1805044 0.1807521 0.1810057 0.1812652 0.1815281 0.1817907 0.1820502 0.1823062
 0.1825613 0.1828177 0.183075 0.1833324 0.1835899 0.1838482 0.1841053 0.1843586 0.1846073 0.1848545
 0.1851047 0.18536 0.1856174 0.1858716 0.1861193 0.1863603 0.1865947 0.1868245 0.1870541 0.1872873
 0.1875244 0.1877651 0.1880105 0.1882611 0.188514 0.1887659 0.1890149 0.1892617 0.1895092 0.1897595
 0.190012 0.1902654 0.1905192 0.1907728 0.1910239 0.1912708 0.1915132 0.1917522 0.191991 0.1922338
 0.1924807 0.1927283 0.192975 0.1932227 0.1934726 0.1937227 0.1939707 0.1942153 0.1944566 0.1946961
 0.1949349 0.1951721 0.1954075 0.195645 0.1958879 0.1961337 0.1963774 0.1966159 0.196851 0.1970875
 0.1973288 0.1975732 0.1978164 0.1980573 0.198298 0.1985399 0.1987841 0.1990305 0.1992767 0.1995194
 0.1997599 0.2000016 0.2002443 0.2004865 0.2007284 0.2009706 0.2012137 0.2014589 0.2017065 0.2019539
 0.2022006 0.2024505 0.2027061 0.2029647 0.2032225 0.2034773 0.2037296 0.2039833 0.2042426 0.2045067
 0.2047718 0.2050364 0.2052987 0.2055527 0.2057962 0.2060338 0.2062691 0.2065001 0.2067252 0.2069452
 0.2071613 0.2073775 0.2076007 0.2078337 0.208074 0.2083194 0.2085676 0.2088154 0.2090628 0.2093121
 0.209562 0.2098097 0.2100586 0.2103132 0.2105718 0.2108318 0.2110942 0.2113574 0.2116184 0.2118786
 0.2121413 0.212406 0.2126731 0.2129443 0.2132165 0.213486 0.2137552 0.2140277 0.2143008 0.2145714
 0.2148404 0.2151078 0.2153747 0.2156452 0.2159181 0.2161865 0.2164521 0.216724 0.2170028 0.2172819
 0.2175595 0.2178363 0.2181101 0.2183844 0.2186649 0.2189477 0.2192266 0.2195048 0.2197845 0.2200605
 0.2203333 0.2206091 0.2208849 0.2211553 0.2214241 0.2216935 0.2219561 0.2222112 0.2224644 0.2227074
 0.2229065 0.2229676 0.2226338 0.2213663 0.2182945 0.2123262 0.2025064 0.1885399 0.1711065 0.1516718
 0.1319385 0.1133301 0.09675275 0.082646 0.07116854 0.06233119 0.05606073 0.05229267 0.05107931 0.0527134
 0.05787691 0.06727221 0.08011876 0.09272546 0.09979133 0.09846982 0.09102549 0.08277762 0.07766395 0.07621084
 0.07694285 0.07847483 0.08030446 0.08262336 0.08583465 0.09005415 0.09504801 0.1007378 0.1075022 0.1156858
 0.1249394 0.1343373 0.1431717 0.1514856 0.1597973 0.1684118 0.1770779 0.1852371 0.1924693 0.1986903
 0.2040649 0.2088329 0.2131851 0.2172313 0.2210368 0.2246233 0.2278916 0.2305826 0.2324029 0.2332475
 0.2333173 0.2330157 0.2327134 0.232592 0.2326726 0.2329297 0.2333452 0.2339017 0.2345784 0.2353525
 0.2361913 0.2370569 0.2379228 0.2387721 0.2395859 0.2403493 0.2410579 0.2417099 0.2423042 0.2428479
 0.2433519 0.2438232 0.2442687 0.2446971 0.2451125 0.2455155 0.2459094 0.2462924 0.2466518 0.2469772
 0.2472713 0.2475437 0.2478036 0.2480602 0.2483169 0.2485701 0.2488177 0.2490637 0.2493107 0.2495585
 0.2498085 0.2500606 0.2503093 0.250551 0.2507876 0.2510211 0.2512531 0.2514878 0.251728 0.2519714
 0.2522148 0.2524583 0.2526995 0.2529343 0.2531623 0.2533878 0.253619 0.2538654 0.2541305 0.2544045
 0.2546748 0.2549402 0.2552064 0.2554746 0.2557436 0.2560162 0.256295 0.2565785 0.256863 0.2571431
 0.2574099 0.2576553 0.2578783 0.2580873 0.2582965 0.258518 0.258753 0.2589931 0.2592304 0.2594633
 0.2596928 0.259922 0.2601561 0.260397 0.2606418 0.2608917 0.2611536 0.2614284 0.2617078 0.2619871
 0.2622673 0.2625483 0.2628267 0.263103 0.2633799 0.2636554 0.2639256 0.2641923 0.2644673 0.2647645
 0.2650856 0.265411 0.265716 0.2659963 0.2662712 0.266565 0.2668871 0.2672234 0.2675373 0.2677966
 0.2680131 0.2682442 0.2685423 0.2689075 0.2692976 0.2696719 0.2700188 0.2703477 0.2706678 0.2709767
 0.2712635 0.2715198 0.2717556 0.2720081 0.27232 0.2726953 0.2730893 0.2734535 0.2737769 0.2740737
 0.2743585 0.2746411 0.2749138 0.2751351 0.2752719 0.2753753 0.2755724 0.275947 0.2764481 0.2769439
 0.2773515 0.2776874 0.2780025 0.2783169 0.2786252 0.2789032 0.279075 0.2790536 0.2788935 0.2788422
 0.279139 0.2797737 0.2805153 0.2811475 0.281613 0.2819645 0.2822687 0.2825602 0.2828196 0.2829761
 0.2829836 0.2829277 0.283012 0.2833726 0.2839252 0.2844576 0.2848533 0.2851556 0.2854467 0.2857542
 0.2860394 0.2861799 0.2860189 0.28558 0.2852153 0.2853773 0.2861803 0.2872681 0.2881709 0.2887229
 0.2890646 0.2893149 0.2893968 0.2891842 0.2886598 0.2879195 0.2872151 0.2869966 0.2876187 0.288884
 0.2901238 0.2908698 0.2912567 0.2916813 0.2922863 0.2929007 0.2933172 0.2934779 0.293439 0.2932472
 0.2929153 0.2925635 0.2925019 0.2930098 0.2940099 0.2950892 0.2958888 0.2963858 0.296724 0.2967939
 0.296128 0.2944549 0.2924202 0.2914189 0.2923563 0.2946969 0.2970433 0.2985163 0.2992339 0.2996584
 0.2999937 0.300129 0.2996284 0.2978745 0.2949096 0.292173 0.2916306 0.2938368 0.2973111 0.2999705
 0.3007215 0.2996859 0.2976695 0.2957863 0.2950644 0.2958927 0.2978572 0.3001609 0.3021028 0.3032746
 0.3035901 0.3032386 0.3026039 0.3021677 0.3022078 0.3023813 0.3019378 0.3006984 0.2994062 0.2985833
 0.2975729 0.2956107 0.2935237 0.2932162 0.2953119 0.2982544 0.3001181 0.3005853 0.300585 0.3004223
 0.2990284 0.2953674 0.2903477 0.2867878 0.287006 0.2905115 0.2944919 0.2965741 0.296701 0.2963345
 0.2963933 0.2962709 0.2947326 0.2916686 0.288779 0.2880502 0.289524 0.2912297 0.2913671 0.2895613
 0.2858986 0.2804852 0.2749671 0.2728365 0.2763453 0.2837053 0.2906711 0.2942045 0.2934228 0.2883344
 0.2801543 0.2726247 0.2703331 0.2744789 0.2814739 0.2864192 0.2869654 0.2834068 0.2766885 0.2680038
 0.2598338 0.2556326 0.2576305 0.265047 0.2742243 0.2801957 0.2792269 0.2718198 0.2634621 0.2604898
 0.2641283 0.2696863 0.2720737 0.2705907 0.2678652 0.2662679 0.2666014 0.2685569 0.2710627 0.2731247
 0.2745849 0.2747076 0.2707729 0.2610856 0.2494428 0.2431187 0.2453632 0.2527783 0.2608392 0.2684487
 0.2754362 0.2792907 0.2778419 0.2735761 0.2720554 0.2759763 0.2826039 0.2872701 0.2881141 0.2868358
 0.285603 0.2844661 0.2824378 0.2802829 0.2805517 0.2844066 0.2898009 0.2936968 0.2951095 0.2951146
 0.2948117 0.2943956 0.2937168 0.2927423 0.2915165 0.2901736 0.2889259 0.2878308 0.2867485 0.2856199
 0.2843935 0.2824114 0.2784577 0.2723458 0.2662801 0.2633379 0.2642345 0.2668682 0.2693247 0.2712582
 0.2713945 0.2665021 0.2556174 0.2438253 0.2387646 0.2432551 0.2530635 0.2616635 0.2653904 0.263885
 0.2578906 0.24891 0.2407588 0.2389023 0.2462533 0.2601378 0.2747018 0.2858656 0.2928949 0.2961423
 0.2954681 0.2913761 0.2863225 0.2837562 0.2857458 0.2916119 0.2984482 0.3024884 0.3007503 0.2934867
 0.2858041 0.2845795 0.2916477 0.3013592 0.3068082 0.3070636 0.3061662 0.3067191 0.3076566 0.3077853
 0.3082738 0.3106743 0.3143669 0.3170784 0.316921 0.3131827 0.3063151 0.298486 0.2932382 0.2926879
 0.295189 0.297221 0.2969967 0.2944999 0.2892779 0.281403 0.2742493 0.2726973 0.2776167 0.2846104
 0.2890722 0.2905049 0.2910867 0.2917464 0.2910445 0.2875176 0.2821851 0.2781059 0.2773424 0.2789839
 0.2806249 0.2809707 0.2800501 0.2777107 0.2736085 0.2687931 0.265854 0.266627 0.2702285 0.2739227
 0.2756875 0.2755566 0.2748524 0.2748609 0.2762227 0.278877 0.2823237 0.2862755 0.2909853 0.2964871
 0.3017606 0.3054363 0.3073746 0.3088596 0.3110511 0.3137439 0.3158275 0.3165924 0.316388 0.3162236
 0.3168883 0.3183209 0.3196736 0.3200617 0.3194392 0.3187585 0.3191173 0.3207163 0.3227823 0.3244554
 0.3255072 0.3262214 0.326907 0.3276299 0.3281839 0.3282619 0.3278643 0.3275473 0.3280098 0.3293669
 0.3310152 0.332248 0.3328359 0.332979 0.3329009 0.3326377 0.3321531 0.331519 0.3309242 0.3305321
 0.3303664 0.3303362 0.3303354 0.3303045 0.330237 0.3301693 0.3301539 0.3302161 0.3303398 0.3304981
 0.330673 0.3308375 0.3309576 0.3310312 0.3310952 0.3311679 0.331205 0.3311289 0.3308797 0.3304209
 0.3297148 0.3287187 0.327395 0.3257037 0.3236095 0.3211815 0.3187565 0.3169689 0.3164871 0.3175927
 0.3199604 0.3228424 0.3254919 0.3274862 0.3287696 0.3294957 0.3298549 0.3299869 0.3299708 0.3298428
 0.3296202 0.3293203 0.3289639 0.3285708 0.3281635 0.3277707 0.3274162 0.3271012 0.3268025 0.3264868
 0.3261252 0.3256992 0.3251995 0.3246242 0.3239745 0.3232478 0.3224306 0.3215075 0.320484 0.3194022
 0.3183279 0.3173144 0.316371 0.3154621 0.3145372 0.3135527 0.3124553 0.3111745 0.3096912 0.3081321
 0.3067339 0.3056567 0.3048421 0.3040827 0.3032048 0.3021574 0.3009657 0.2996668 0.2982961 0.2968873
 0.2954588 0.2940022 0.2924887 0.2908854 0.2891742 0.2873602 0.285459 0.2834846 0.2814557 0.2793967
 0.2773055 0.275111 0.2726734 0.2698284 0.266434 0.262395 0.2576804 0.2523448 0.246543 0.2405058
 0.2344796 0.2286707 0.2232339 0.2182966 0.2139783 0.2103881 0.2076086 0.2056867 0.2046392 0.2044673
 0.2051633 0.2066975 0.2089985 0.2119469 0.2153825 0.2191153 0.2229362 0.2266404 0.2300782 0.2332092
 0.236094 0.2388104 0.2413706 0.2437233 0.2458192 0.2476496 0.249228 0.2505633 0.2516621 0.2525475
 0.2532645 0.2538663 0.2543935 0.2548606 0.2552585 0.2555718 0.2558015 0.2559733 0.2561266 0.2562949
 0.2564937 0.2567236 0.2569838 0.2572836 0.257643 0.2580816 0.2586082 0.2592173 0.2598913 0.2606073
 0.2613521 0.2621352 0.262991 0.263967 0.2651068 0.266433 0.2679358 0.2695693 0.2712555 0.2728935
 0.2743784 0.2756258 0.2765885 0.2772568 0.2776465 0.277784 0.2776996 0.2774264 0.2769977 0.2764387
 0.275768 0.275007 0.2741816 0.2733106 0.2723978 0.2714378 0.2704309 0.2693937 0.2683548 0.2673393
 0.2663585 0.2654155 0.2645094 0.2636328 0.2627757 0.2619363 0.2611214 0.2603368 0.2595846 0.2588644
 0.2581682 0.2574756 0.2567526 0.2559534 0.2550299 0.2539505 0.2527071 0.2513053 0.2497573 0.2480823
 0.2462983 0.2444152 0.242439 0.2403781 0.2382396 0.2360248 0.2337259 0.2313293 0.228842 0.2263261
 0.2238865 0.221608 0.2195132 0.2175795 0.2157716 0.21406 0.2124252 0.2108558 0.2093455 0.2078984
 0.2065275 0.2052343 0.2040053 0.2028343 0.201736 0.2007312 0.1998352 0.1990566 0.1983924 0.1978271
 0.1973431 0.1969291 0.1965881 0.1963519 0.1962657 0.1963298 0.1964699 0.1965813 0.196595 0.1965064
 0.1963667 0.1962427 0.1961707 0.1961472 0.1961475 0.196123 0.1959864 0.1956327 0.1949719 0.1939338
 0.1924771 0.1906208 0.1884554 0.1861244 0.1838039 0.1816659 0.1798277 0.1783401 0.1772092 0.1763914
 0.1757889 0.1753092 0.1749359 0.17473 0.1747721 0.1750793 0.1755321 0.1759181 0.1761188 0.1762383
 0.1765061 0.1770777 0.1779429 0.1789646 0.1799771 0.1808731 0.1816171 0.1821976 0.1826139 0.1828954
 0.1830774 0.1831603 0.1831294 0.182984 0.1827237 0.1823491 0.1818812 0.1813355 0.1806962 0.179951
 0.1791121 0.1781823 0.177152 0.1760217 0.1747686 0.1733421 0.1717854 0.1703253 0.1692827 0.1689005
 0.1692261 0.1700835 0.1711965 0.1723882 0.1735816 0.1746012 0.1752001 0.1754354 0.1758637 0.1771491
 0.1794431 0.1822202 0.1847314 0.186544 0.1876106 0.1879881 0.1877009 0.1868008 0.1853327 0.1832666
 0.1806125 0.1775169 0.1741616 0.1707093 0.1673678 0.1643298 0.1616783 0.1594616 0.1577358 0.156561
 0.1560618 0.1558303 0.1537182 0.1467843 0.1356177 0.1266788 0.1271077 0.1368428 0.1484243 0.1549222
 0.1556502 0.153936 0.1523005 0.1512128 0.1505615 0.1504927 0.1511473 0.1523783 0.1537708 0.1548793
 0.1555194 0.1557398 0.1554518 0.1541513 0.1509399 0.1448522 0.1355636 0.1240524 0.112371 0.1025441
 0.09562412 0.0915354 0.08943712 0.0882713 0.08736051 0.08672062 0.08681576 0.08803635 0.09042224 0.0937636
 0.09778597 0.1021577 0.1064236 0.1101259 0.1130498 0.1152574 0.1168719 0.1179373 0.1184812 0.1185739
 0.1182967 0.1177236 0.1169281 0.1159482 0.1147614 0.1133458 0.1117765 0.1102602 0.1090507 0.1082811
 0.1078812 0.1076868 0.1075972 0.1075922 0.1076586 0.1077691 0.1079065 0.1080739 0.1082964 0.1085999
 0.1089638 0.1093138 0.1095849 0.1097637 0.1098629 0.1098802 0.1097806 0.1095199 0.1091209 0.1086935
 0.1082925 0.1077722 0.1069029 0.1056638 0.1043578 0.1034184 0.1031132 0.1033839 0.1039163 0.1043722
 0.1045982 0.1046507 0.1046489 0.104613</values></Ydata></ScSm><ScRf><Ydata ylabel="Single channel"><values byteorder="INTEL" format="FLOAT32" numvalues="1820"> 0.07059593 0.07072881 0.07084583 0.07094702 0.07103924 0.071134 0.07124262 0.07136895 0.07150674 0.0716439
 0.07176994 0.07188207 0.07198276 0.07207209 0.07215051 0.07223 0.07233088 0.07246194 0.07260905 0.07274576
 0.07285249 0.07293274 0.07301427 0.07312386 0.07325089 0.07334541 0.07336371 0.07331616 0.07326345 0.07326238
 0.07332665 0.07345419 0.07366399 0.07394593 0.07418551 0.07423615 0.07410288 0.07396932 0.07399505 0.0741559
 0.07431819 0.07438687 0.07434343 0.07423507 0.07419363 0.0743923 0.07488732 0.07549262 0.07584149 0.07559928
 0.07468466 0.07338709 0.0722983 0.07200545 0.07266749 0.07383633 0.07479084 0.07511793 0.07493673 0.07459248
 0.07429784 0.07412556 0.07416426 0.07450245 0.07508302 0.07564656 0.07583177 0.07541122 0.07454863 0.07377094
 0.07353906 0.07389002 0.07459593 0.0754395 0.07601351 0.07551788 0.07346714 0.070765 0.06942386 0.07070725
 0.07380785 0.07668728 0.07793146 0.07749777 0.07612731 0.07469176 0.07396366 0.07434808 0.07561589 0.0771322
 0.07836325 0.07902149 0.07892977 0.0781009 0.07690708 0.07592298 0.07560878 0.07618125 0.07752433 0.07904953
 0.07992891 0.07974968 0.07882579 0.07778996 0.07712568 0.07714124 0.07799472 0.07950595 0.08117363 0.08254507
 0.08345174 0.08390942 0.08400669 0.08388634 0.08367541 0.0834657 0.0834097 0.08364373 0.08401779 0.0841257
 0.08375736 0.08318458 0.08288725 0.08306015 0.08344656 0.08364846 0.08352001 0.0830937 0.08217637 0.08044435
 0.07810207 0.07597928 0.07471409 0.07430167 0.07463086 0.07576314 0.07729231 0.07815158 0.07770067 0.07660949
 0.07614432 0.07681648 0.07809049 0.07920647 0.07993769 0.08060217 0.08158657 0.08289984 0.08405216 0.08435777
 0.08356078 0.08227066 0.08156287 0.08195472 0.08294347 0.08371146 0.08404443 0.08433124 0.08486563 0.08540022
 0.08534895 0.0844005 0.08303619 0.08235869 0.08317413 0.08518513 0.08714075 0.08777488 0.0867043 0.08464186
 0.08280373 0.08203529 0.08248107 0.08393113 0.0861183 0.08858467 0.09061295 0.09159173 0.09143669 0.09057415
 0.08947761 0.08822612 0.08667044 0.08512177 0.08453428 0.08560824 0.08788086 0.09008954 0.09133277 0.09157041
 0.09111394 0.09001791 0.08815858 0.0858579 0.08416075 0.08407559 0.08545075 0.08701359 0.08773112 0.0877721
 0.08792198 0.08846027 0.08897968 0.08909732 0.08897111 0.08906792 0.08959543 0.09028939 0.09074058 0.09080867
 0.09067012 0.09056726 0.09057289 0.09054496 0.09033448 0.09010394 0.09031209 0.09122118 0.0925298 0.09366569
 0.09434266 0.09467418 0.09482892 0.09474854 0.09425278 0.09339961 0.09266011 0.09258472 0.09326895 0.09428215
 0.09512611 0.0956068 0.0957838 0.09577838 0.09569129 0.09558104 0.09548173 0.09546994 0.09564603 0.09599958
 0.09637564 0.09662676 0.09673309 0.09674604 0.09668897 0.09655709 0.09637959 0.09624143 0.09622952 0.09636214
 0.09658492 0.09682807 0.09703656 0.09715867 0.09716357 0.09708156 0.09698534 0.09692298 0.09689891 0.09691443
 0.09698573 0.09711247 0.09725619 0.09736854 0.09743138 0.09745791 0.0974628 0.09744888 0.09742112 0.09739882
 0.09740854 0.09746647 0.0975617 0.09766223 0.09775275 0.09785546 0.09798686 0.09810907 0.09816298 0.09814369
 0.09810802 0.09811135 0.09816416 0.09824447 0.09832455 0.09837885 0.09838431 0.09833585 0.09826999 0.09825632
 0.09834555 0.09853198 0.09877343 0.09902607 0.09925001 0.0994146 0.09952194 0.09960431 0.09968472 0.09975787
 0.0998147 0.09986834 0.09995082 0.1000894 0.1002811 0.1004889 0.1006694 0.1008027 0.1008957 0.1009762
 0.1010851 0.1012402 0.1014011 0.1015033 0.1015411 0.101582 0.1016837 0.1018262 0.101943 0.101999
 0.102022 0.1020639 0.1021486 0.1022598 0.1023698 0.1024711 0.1025798 0.1027089 0.1028383 0.1029191
 0.1029209 0.1028716 0.1028303 0.102828 0.1028528 0.1028908 0.1029497 0.1030339 0.1031199 0.1031734
 0.1031858 0.1031838 0.1031978 0.1032266 0.1032398 0.1032145 0.103159 0.1031016 0.1030645 0.1030507
 0.1030471 0.1030363 0.1030076 0.1029604 0.1029006 0.1028339 0.1027634 0.1026957 0.1026503 0.1026534
 0.1027041 0.1027488 0.1027117 0.1025656 0.1023611 0.1021794 0.1020621 0.1019892 0.1019127 0.101801
 0.101657 0.1015049 0.1013668 0.1012495 0.1011457 0.101046 0.1009534 0.1008863 0.1008597 0.1008558
 0.1008266 0.1007368 0.1006011 0.1004671 0.1003685 0.1003063 0.1002648 0.1002312 0.1002023 0.1001858
 0.1001903 0.1002083 0.1002176 0.1002063 0.100189 0.1001932 0.1002393 0.1003327 0.1004561 0.100569
 0.1006351 0.1006586 0.1006813 0.1007389 0.1008324 0.100943 0.1010604 0.1011875 0.1013276 0.1014805
 0.1016469 0.1018313 0.1020363 0.1022569 0.1024812 0.1026977 0.1029053 0.1031164 0.1033485 0.1036093
 0.1038904 0.1041734 0.1044447 0.1047044 0.1049633 0.1052306 0.1055056 0.1057846 0.1060713 0.1063743
 0.1066932 0.1070163 0.107334 0.1076478 0.1079646 0.1082863 0.1086087 0.1089308 0.1092638 0.1096234
 0.1100055 0.1103769 0.1107008 0.1109747 0.1112341 0.111519 0.1118433 0.1121892 0.1125218 0.1128146
 0.1130735 0.1133325 0.1136178 0.1139212 0.1142201 0.1145174 0.114844 0.115217 0.1156058 0.1159503
 0.1162154 0.1164235 0.1166286 0.1168613 0.117106 0.1173338 0.1175431 0.117756 0.1179842 0.1182191
 0.1184559 0.1187078 0.1189834 0.1192645 0.1195219 0.1197473 0.1199562 0.1201605 0.1203513 0.1205077
 0.1206196 0.1207017 0.1207881 0.1209065 0.1210539 0.121204 0.1213417 0.1214788 0.1216344 0.1218127
 0.1220113 0.1222341 0.1224824 0.1227394 0.1229855 0.1232291 0.1235006 0.1238054 0.1241025 0.1243463
 0.1245394 0.1247211 0.1249168 0.1251236 0.1253406 0.1255842 0.1258643 0.1261666 0.1264639 0.1267415
 0.1270084 0.1272894 0.1275984 0.1279154 0.1281967 0.1284168 0.1285937 0.128771 0.1289809 0.1292279
 0.1294965 0.1297674 0.1300278 0.1302684 0.1304734 0.1306244 0.1307209 0.1307868 0.130843 0.1308771
 0.1308492 0.130724 0.1304886 0.130141 0.1296758 0.129091 0.128409 0.1276899 0.1270228 0.1265012
 0.1261965 0.1261461 0.1263521 0.1267804 0.1273602 0.1279951 0.1285867 0.1290505 0.1293178 0.1293399
 0.1291031 0.1286368 0.1279981 0.1272478 0.12644 0.1256189 0.1248205 0.1240887 0.1235025 0.1231814
 0.1232506 0.1237926 0.1248162 0.126242 0.1279037 0.1295911 0.1311315 0.1324527 0.1335749 0.1345519
 0.1354276 0.1362319 0.1369902 0.1377191 0.1384189 0.1390818 0.1397053 0.1402915 0.1408363 0.1413258
 0.1417422 0.1420703 0.1423046 0.1424554 0.1425455 0.1425962 0.142619 0.1426226 0.1426129 0.1425778
 0.1424779 0.1422655 0.141917 0.1414521 0.1409406 0.1405053 0.1403102 0.1405171 0.1412124 0.1423518
 0.1437738 0.145277 0.1466987 0.1479414 0.1489618 0.1497624 0.1503863 0.1508958 0.1513421 0.1517531
 0.1521414 0.1525128 0.1528697 0.1532127 0.1535443 0.1538712 0.1542021 0.1545425 0.1548881 0.1552276
 0.1555536 0.1558721 0.1561986 0.156544 0.156904 0.1572619 0.1576072 0.1579467 0.1582936 0.1586462
 0.158988 0.1593081 0.1596142 0.1599239 0.1602492 0.160591 0.160939 0.1612771 0.1615933 0.161888
 0.1621707 0.16245 0.1627287 0.1630082 0.1632897 0.1635732 0.1638561 0.1641366 0.1644161 0.1646963
 0.1649736 0.1652409 0.1654954 0.1657439 0.1659969 0.1662585 0.1665237 0.166785 0.1670403 0.1672952
 0.1675569 0.1678268 0.1680983 0.1683625 0.1686158 0.1688613 0.1691041 0.1693478 0.169594 0.1698427
 0.170093 0.1703437 0.1705942 0.170845 0.1710963 0.1713477 0.171598 0.1718463 0.1720933 0.1723398
 0.1725863 0.1728333 0.1730814 0.1733319 0.1735867 0.1738448 0.1740998 0.1743431 0.1745728 0.1747954
 0.1750188 0.1752469 0.1754813 0.1757231 0.1759717 0.1762229 0.1764711 0.1767127 0.1769485 0.1771825
 0.1774176 0.1776549 0.1778957 0.17814 0.178385 0.1786275 0.1788684 0.1791114 0.1793573 0.1796026
 0.179843 0.1800775 0.1803094 0.1805435 0.1807817 0.1810226 0.1812644 0.1815065 0.1817467 0.1819832
 0.1822169 0.1824494 0.1826814 0.1829133 0.1831458 0.1833795 0.1836149 0.1838512 0.1840863 0.1843195
 0.1845541 0.1847938 0.1850373 0.1852802 0.1855194 0.1857541 0.1859856 0.1862175 0.1864522 0.1866882
 0.1869235 0.1871596 0.1873988 0.1876406 0.1878829 0.1881242 0.1883636 0.1886018 0.1888402 0.1890796
 0.1893214 0.1895681 0.1898183 0.1900657 0.1903071 0.1905473 0.1907913 0.1910391 0.1912888 0.1915402
 0.1917934 0.1920507 0.1923126 0.1925746 0.1928314 0.1930846 0.1933382 0.1935902 0.193835 0.1940706
 0.1942982 0.1945206 0.1947419 0.1949645 0.1951872 0.1954103 0.1956371 0.1958681 0.1961011 0.1963371
 0.1965786 0.1968244 0.197073 0.1973237 0.1975735 0.1978199 0.1980666 0.1983168 0.1985684 0.1988201
 0.1990746 0.199332 0.1995907 0.199852 0.2001161 0.2003791 0.2006402 0.2009033 0.2011676 0.2014295
 0.2016912 0.2019559 0.202222 0.2024883 0.2027563 0.2030242 0.2032905 0.2035594 0.203832 0.2041013
 0.2043651 0.2046294 0.2048964 0.2051625 0.2054288 0.2056976 0.2059677 0.2062411 0.2065212 0.2068043
 0.2070849 0.2073642 0.2076418 0.2079123 0.2081778 0.2084461 0.2087157 0.2089828 0.209252 0.2095248
 0.2097928 0.2100547 0.2103141 0.2105597 0.2107567 0.2108167 0.210502 0.2093088 0.2064165 0.2007905
 0.1915241 0.1783337 0.1618599 0.1434894 0.1248335 0.1072383 0.09156069 0.07821941 0.06736732 0.05901334
 0.05308491 0.04952109 0.04837453 0.04992319 0.0548101 0.06369989 0.07585876 0.08779827 0.09450038 0.09326537
 0.08623204 0.07843406 0.07359932 0.07222724 0.07292271 0.07437624 0.07611236 0.07831091 0.08135252 0.08534831
 0.09007911 0.09547082 0.1018803 0.1096337 0.1184025 0.1273114 0.1356881 0.143571 0.1514516 0.1596214
 0.1678436 0.1755882 0.1824552 0.1883634 0.1934692 0.1980023 0.2021452 0.2060001 0.209624 0.2130358
 0.2161426 0.2187004 0.220433 0.2212435 0.2213233 0.2210515 0.220775 0.220667 0.2207533 0.2210131
 0.2214272 0.2219744 0.2226326 0.2233798 0.2241847 0.2250122 0.2258404 0.2266569 0.2274456 0.2281909
 0.2288856 0.2295248 0.2301054 0.2306341 0.2311242 0.2315863 0.2320285 0.2324575 0.2328738 0.2332747
 0.2336617 0.2340342 0.234384 0.2347051 0.2350017 0.2352808 0.2355472 0.2358066 0.2360632 0.2363166
 0.2365676 0.2368198 0.2370738 0.2373267 0.2375785 0.2378305 0.2380804 0.2383261 0.2385684 0.2388064
 0.2390387 0.2392685 0.2395016 0.23974 0.2399838 0.2402311 0.2404773 0.2407184 0.2409551 0.24119
 0.2414273 0.241675 0.2419398 0.2422161 0.2424917 0.2427613 0.2430275 0.243295 0.2435684 0.2438502
 0.2441356 0.2444168 0.2446936 0.2449698 0.2452407 0.2454941 0.2457241 0.2459382 0.2461524 0.2463787
 0.2466165 0.2468563 0.2470929 0.2473294 0.2475697 0.2478139 0.2480611 0.2483093 0.2485572 0.2488112
 0.249082 0.2493711 0.2496672 0.2499602 0.2502489 0.2505354 0.2508223 0.2511147 0.2514139 0.2517118
 0.2519971 0.2522705 0.2525493 0.2528555 0.253194 0.2535424 0.2538701 0.2541671 0.2544513 0.2547493
 0.2550761 0.2554219 0.25575 0.2560243 0.2562535 0.256497 0.2568097 0.2571909 0.2575931 0.2579708
 0.2583123 0.2586327 0.2589472 0.2592545 0.2595406 0.2597966 0.2600365 0.2602995 0.2606225 0.2610025
 0.2613958 0.261761 0.2620895 0.2623916 0.2626772 0.2629558 0.2632239 0.2634455 0.2635891 0.263701
 0.2639011 0.2642699 0.2647586 0.265239 0.2656319 0.2659571 0.2662664 0.2665768 0.2668782 0.2671471
 0.2673149 0.2673007 0.2671547 0.2671117 0.2674007 0.2680132 0.2687272 0.2693339 0.2697785 0.2701144
 0.2704083 0.2706935 0.270949 0.2711034 0.2711083 0.2710457 0.2711174 0.2714641 0.2720099 0.2725455
 0.2729478 0.2732521 0.2735407 0.2738464 0.2741337 0.2742813 0.2741371 0.273726 0.2733869 0.2735524
 0.2743316 0.2753861 0.2762681 0.276818 0.2771668 0.2774243 0.2775146 0.277318 0.2768223 0.2761226
 0.2754604 0.2752678 0.2758867 0.277128 0.278346 0.2790847 0.2794725 0.279896 0.2804972 0.2811111
 0.2815332 0.281705 0.2816831 0.281518 0.281226 0.2809213 0.2808973 0.2814196 0.2824154 0.2834881
 0.2842895 0.2847952 0.2851458 0.2852409 0.2846328 0.2830572 0.2811317 0.2801984 0.2811313 0.2834159
 0.285706 0.2871536 0.2878742 0.2883175 0.2886834 0.2888622 0.2884272 0.2867785 0.2839582 0.2813585
 0.2808761 0.2830437 0.2864342 0.2890437 0.2898197 0.2888762 0.286985 0.2852198 0.2845744 0.285425
 0.2873706 0.2896395 0.2915536 0.292721 0.293065 0.2927749 0.2922222 0.2918649 0.2919617 0.2921765
 0.2917889 0.2906359 0.2894402 0.2887024 0.2877802 0.2859311 0.2839544 0.2836931 0.2857543 0.2886368
 0.2904781 0.2909646 0.2909889 0.2908448 0.2895007 0.2859541 0.2810833 0.2776182 0.277808 0.2811818
 0.2850157 0.2870075 0.2870998 0.2867103 0.2867306 0.2865743 0.2850473 0.2820458 0.2792165 0.2784823
 0.279885 0.2815201 0.2816435 0.2798863 0.2763289 0.2710735 0.2657102 0.2636107 0.2669495 0.2740026
 0.280675 0.2840379 0.2832416 0.2782947 0.2703678 0.2630709 0.2608309 0.2648054 0.2715327 0.2762878
 0.2768053 0.2733693 0.2668915 0.2585216 0.2506474 0.2465948 0.2485152 0.2556633 0.2645164 0.2702825
 0.2693574 0.2622259 0.2541816 0.2513317 0.2548546 0.2602266 0.2625425 0.2611287 0.2585167 0.2569892
 0.2573233 0.2592275 0.2616709 0.2636897 0.2651268 0.2652718 0.2615014 0.2521766 0.2409562 0.234859
 0.2370264 0.2441867 0.2519779 0.2593412 0.266109 0.2698532 0.2684751 0.2643738 0.2629222 0.2667304
 0.2731612 0.2777042 0.2785532 0.2773427 0.2761656 0.275077 0.2731302 0.2710673 0.2713497 0.2750964
 0.2803278 0.2841105 0.2854963 0.2855245 0.2852559 0.2848786 0.2842494 0.2833348 0.2821754 0.2809027
 0.2797277 0.2787097 0.2777115 0.2766699 0.2755297 0.2736518 0.2698604 0.263977 0.2581353 0.2553132
 0.2562057 0.2587814 0.2611901 0.2630985 0.2632701 0.2585684 0.2480536 0.2366523 0.231773 0.2361571
 0.2457068 0.2540945 0.2577599 0.2563455 0.2505665 0.2418818 0.2340012 0.2322377 0.239422 0.2529523
 0.2671349 0.2780042 0.2848484 0.2880154 0.2873774 0.2834312 0.2785649 0.2761247 0.2781141 0.2838675
 0.2905558 0.2945169 0.2928563 0.2858283 0.2784063 0.2772833 0.2842414 0.2937753 0.2991573 0.2994793
 0.2986787 0.2992965 0.3002998 0.3005238 0.3011015 0.3035429 0.3072451 0.309993 0.3099453 0.306408
 0.2998245 0.2923169 0.2873538 0.2870046 0.2896508 0.291838 0.2918175 0.2895821 0.2847012 0.2772698
 0.2706279 0.2695724 0.2749145 0.2822576 0.2870082 0.2886546 0.2893526 0.2900398 0.289323 0.2858024
 0.2805515 0.2766562 0.2761844 0.2782284 0.2803954 0.2814058 0.2812895 0.2798717 0.2767763 0.2730428
 0.2712813 0.2733467 0.2783446 0.2834976 0.2866965 0.2877876 0.287764 0.2874837 0.2872113 0.2867808
 0.2860188 0.2853313 0.2857304 0.2877602 0.2905586 0.2926513 0.2936629 0.2946199 0.2964953 0.2990081
 0.3010415 0.3018769 0.3018196 0.3018169 0.302612 0.3041425 0.3056014 0.3061458 0.3057269 0.3052471
 0.3057521 0.307434 0.3095542 0.3112911 0.3124287 0.3132416 0.3140284 0.3148526 0.3155124 0.3157068
 0.3154323 0.3152227 0.3157543 0.3171461 0.3188232 0.3201036 0.3207588 0.3209763 0.3209713 0.3207802
 0.3203701 0.3198123 0.3192912 0.3189659 0.3188586 0.3188777 0.3189198 0.3189322 0.3189138 0.3188995
 0.3189365 0.3190472 0.3192161 0.3194178 0.3196346 0.3198402 0.3200008 0.3201147 0.3202188 0.3203319
 0.3204124 0.3203849 0.3201883 0.3197828 0.3191324 0.3182027 0.3169648 0.315382 0.3134162 0.3111258
 0.3088279 0.307135 0.306702 0.3078105 0.3101455 0.3129772 0.3155804 0.3175492 0.3188312 0.3195716
 0.3199498 0.3201042 0.3201191 0.3200324 0.3198552 0.3195978 0.3192815 0.318932 0.3185726 0.3182259
 0.3179095 0.3176271 0.3173638 0.3170912 0.3167768 0.3163947 0.3159339 0.3153965 0.3147901 0.3141163
 0.3133611 0.3125024 0.3115392 0.3105132 0.3094932 0.3085338 0.3076434 0.3067867 0.3059151 0.3049877
 0.3039543 0.3027449 0.3013349 0.2998415 0.2984962 0.2974602 0.2966788 0.2959467 0.2950914 0.2940646
 0.2928984 0.2916401 0.2903312 0.2890005 0.2876509 0.2862616 0.2848045 0.2832574 0.2816114 0.279871
 0.2780481 0.2761576 0.2742212 0.2722611 0.2702656 0.2681572 0.2658017 0.2630478 0.2597628 0.255852
 0.2512819 0.2461087 0.2404867 0.2346387 0.2287995 0.2231698 0.2179056 0.2131328 0.208963 0.2054946
 0.2028035 0.2009381 0.1999229 0.1997679 0.2004669 0.2019859 0.2042503 0.207142 0.2105054 0.2141573
 0.217896 0.2215216 0.224885 0.2279433 0.2307547 0.2333966 0.235884 0.2381726 0.2402199 0.2420184
 0.2435749 0.244889 0.2459634 0.246824 0.2475204 0.2481063 0.2486187 0.2490709 0.2494584 0.2497723
 0.2500128 0.2501972 0.2503568 0.2505262 0.2507284 0.2509671 0.2512349 0.2515323 0.2518791 0.252303
 0.2528202 0.2534235 0.2540887 0.254792 0.2555259 0.2563054 0.257162 0.2581354 0.2592629 0.2605655
 0.2620358 0.2636361 0.2653004 0.2669341 0.2684263 0.269681 0.2706471 0.2713206 0.2717223 0.2718781
 0.2718164 0.2715709 0.2711747 0.2706513 0.2700198 0.2693039 0.2685288 0.2677079 0.26684 0.2659215
 0.2649589 0.2639724 0.2629871 0.2620205 0.2610796 0.2601713 0.2593024 0.2584689 0.2576572 0.2568606
 0.2560844 0.2553372 0.2546244 0.2539474 0.2532963 0.2526433 0.2519458 0.2511586 0.2502467 0.2491927
 0.2479907 0.2466378 0.2451388 0.2435115 0.2417755 0.2399413 0.2380152 0.2360067 0.2339235 0.231766
 0.2295264 0.2271924 0.2247709 0.2223192 0.2199354 0.2177043 0.2156565 0.2137727 0.2120135 0.2103456
 0.2087553 0.2072361 0.2057752 0.2043629 0.2030066 0.2017191 0.2005055 0.1993704 0.1983234 0.1973697
 0.1965129 0.1957619 0.1951219 0.1945828 0.1941269 0.193739 0.1934187 0.1931958 0.1931155 0.1931804
 0.1933203 0.193435 0.1934607 0.1933963 0.1932881 0.1931913 0.1931323 0.1931079 0.1931049 0.1930867
 0.1929701 0.192647 0.1920223 0.1910247 0.1896159 0.1878166 0.1857111 0.1834308 0.1811453 0.1790346
 0.1772296 0.1757827 0.174686 0.1738813 0.1732718 0.1727809 0.17241 0.1722272 0.1723047 0.1726422
 0.1731079 0.1734926 0.1736921 0.1738198 0.1741002 0.1746784 0.1755413 0.1765595 0.1775737 0.178475
 0.1792217 0.1797999 0.1802114 0.1804895 0.1806709 0.1807568 0.1807324 0.1805949 0.1803429 0.1799792
 0.1795273 0.1790024 0.1783851 0.177662 0.176846 0.175939 0.1749287 0.173817 0.172588 0.1711962
 0.1696809 0.1682605 0.167248 0.1668821 0.1672101 0.1680631 0.1691762 0.1703773 0.171584 0.1726131
 0.1732158 0.1734488 0.1738657 0.1751272 0.1773876 0.1801299 0.1826144 0.184413 0.1854769 0.1858583
 0.1855792 0.1846934 0.1832493 0.1812172 0.1786019 0.1755443 0.1722261 0.1688141 0.165519 0.1625333
 0.1599366 0.1577694 0.1560767 0.1549112 0.1544 0.1541534 0.1520556 0.1451934 0.1341421 0.1252986
 0.1257437 0.1354209 0.1469294 0.1533858 0.1541053 0.1523984 0.1507815 0.1497261 0.1491123 0.149067
 0.1497183 0.1509254 0.152294 0.1533956 0.1540439 0.1542721 0.1539843 0.1526915 0.1495217 0.1435247
 0.1343687 0.1230088 0.1114706 0.1017564 0.0949062 0.0908472 0.08875467 0.08759011 0.08668842 0.08606657
 0.08617803 0.08739653 0.08975372 0.09304988 0.09702852 0.1013646 0.1055972 0.1092658 0.1121638 0.1143606
 0.1159746 0.1170386 0.1175751 0.1176606 0.1173847 0.116823 0.1160437 0.1150804 0.1139122 0.1125191
 0.1109713 0.1094661 0.1082547 0.1074827 0.1070945 0.1069245 0.1068538 0.1068473 0.1068987 0.1070022
 0.1071531 0.1073472 0.1075927 0.1079063 0.1082693 0.1086115 0.1088693 0.1090316 0.1091192 0.1091376
 0.1090502 0.1088043 0.1084163 0.1079973 0.1076045 0.1070918 0.1062282 0.1049959 0.1037013 0.1027768
 0.1024848 0.1027661 0.1033101 0.1037811 0.1040238 0.10409 0.1040945 0.1040558 0.1038686 0.1034296
</values></Ydata></ScRf><Data_Parameters_AB><parameter name="DPF">1</parameter><parameter name="NPT">3497</parameter><parameter name="FXV">3996</parameter><parameter name="LXV">500</parameter><parameter name="CSF">1</parameter><parameter name="MXY">0.0199494194239378</parameter><parameter name="MNY">-0.0288650207221508</parameter><parameter name="DAT">22/09/2023</parameter><parameter name="TIM">12:57:19.954 (GMT+2)</parameter><parameter name="DXU">WN</parameter></Data_Parameters_AB><AB__Qtest><MainReport name="Quality Test Report"><Header><Line><Legend>Test result ok/not ok [1/0]: </Legend><Value>0</Value></Line><Line><Legend>Method file: </Legend><Value>C:\Users\Public\Documents\Bruker\OPUS_8.2.28\QT\IRBT_v3_default.QT</Value></Line></Header><Matrix><Line><Legend></Legend><Legend>min</Legend><Legend>max</Legend><Legend>measured</Legend></Line><Line><Value>Absorption (X-Range 1):</Value><Value>0.400000</Value><Value>2.000000</Value><Value>0.006175</Value></Line><Line><Value>Noise (X-Range 4):</Value><Value></Value><Value>0.000300</Value><Value>0.000027</Value></Line><Line><Value>Signal/Noise (X-Range 2):</Value><Value>200.000000</Value><Value></Value><Value>1.048943</Value></Line><Line><Value>Signal/Noise (X-Range 3):</Value><Value>40.000000</Value><Value></Value><Value>2.161956</Value></Line><Line><Value>Water vapour (X-Range 5):</Value><Value></Value><Value>0.000300</Value><Value>0.000011</Value></Line><Line><Value>Signal/Water (X-Range 2):</Value><Value>100.000000</Value><Value></Value><Value>2.677151</Value></Line><Line><Value>Signal/Water (X-Range 3):</Value><Value>20.000000</Value><Value></Value><Value>5.517823</Value></Line><Line><Value>Fringes (X-Range 6):</Value><Value></Value><Value>0.000100</Value><Value>0.000016</Value></Line></Matrix></MainReport></AB__Qtest><Data_Parameters_ScSm><parameter name="DPF">1</parameter><parameter name="NPT">1814</parameter><parameter name="FXV">3996.63438082617</parameter><parameter name="LXV">499.579297603271</parameter><parameter name="CSF">1</parameter><parameter name="MXY">0.332978963851929</parameter><parameter name="MNY">0.0510793104767799</parameter><parameter name="DAT">22/09/2023</parameter><parameter name="TIM">12:57:19.954 (GMT+2)</parameter><parameter name="DXU">WN</parameter></Data_Parameters_ScSm><Data_Parameters_ScRf><parameter name="DPF">1</parameter><parameter name="NPT">1820</parameter><parameter name="FXV">4004.34989121387</parameter><parameter name="LXV">495.721542409425</parameter><parameter name="CSF">1</parameter><parameter name="MXY">0.320976316928864</parameter><parameter name="MNY">0.0483745262026787</parameter><parameter name="DAT">22/09/2023</parameter><parameter name="TIM">12:56:53.756 (GMT+2)</parameter><parameter name="DXU">WN</parameter></Data_Parameters_ScRf><Optic_Parameters_Rf><parameter name="APR">0</parameter><parameter name="APT">Open</parameter><parameter name="BMS">KBr</parameter><parameter name="DTC">RT-DLaTGS_IR-Biotyper [Microplate reader]</parameter><parameter name="HPF">0</parameter><parameter name="LPF">10.0</parameter><parameter name="LPV">4000</parameter><parameter name="PGR">0</parameter><parameter name="RCH">Module port</parameter><parameter name="RDX">0</parameter><parameter name="SRC">MIR</parameter><parameter name="VEL">10.0</parameter><parameter name="SON">Off</parameter></Optic_Parameters_Rf><Acquisition_Parameters_Rf><parameter name="ADT">1</parameter><parameter name="AQM">DD</parameter><parameter name="CFE">0</parameter><parameter name="COR">0</parameter><parameter name="DEL">0</parameter><parameter name="DLY">0</parameter><parameter name="HFW">8000</parameter><parameter name="LFW">0</parameter><parameter name="NSR">32</parameter><parameter name="PLF">AB</parameter><parameter name="RES">6</parameter><parameter name="RGN">-1</parameter><parameter name="STR">0</parameter><parameter name="TCL">MakeCompatibleScalar (0, {WSV=1.000000, ARV=0});</parameter><parameter name="TDL">37</parameter><parameter name="RPO">0</parameter></Acquisition_Parameters_Rf><FT_-_Parameters_Rf><parameter name="APF">B3</parameter><parameter name="HFQ">500</parameter><parameter name="LFQ">4000</parameter><parameter name="NLI">0</parameter><parameter name="PHR">24</parameter><parameter name="PHZ">ML</parameter><parameter name="SPZ">NO</parameter><parameter name="ZFF">1</parameter></FT_-_Parameters_Rf><Optic_Parameters_><parameter name="APR">0</parameter><parameter name="APT">Open</parameter><parameter name="BMS">KBr</parameter><parameter name="CHN">Module port</parameter><parameter name="DTC">RT-DLaTGS_IR-Biotyper [Microplate reader]</parameter><parameter name="HPF">0</parameter><parameter name="LPF">10.0</parameter><parameter name="LPV">4000</parameter><parameter name="PGN">0</parameter><parameter name="RDX">0</parameter><parameter name="SRC">MIR</parameter><parameter name="VEL">10.0</parameter><parameter name="SON">Off</parameter></Optic_Parameters_><FT_-_Parameters_><parameter name="APF">B3</parameter><parameter name="HFQ">500</parameter><parameter name="LFQ">4000</parameter><parameter name="NLI">0</parameter><parameter name="PHR">24</parameter><parameter name="PHZ">ML</parameter><parameter name="SPZ">NO</parameter><parameter name="ZFF">1</parameter></FT_-_Parameters_><Acquisition_Parameters_><parameter name="ADT">1</parameter><parameter name="AQM">DD</parameter><parameter name="CFE">0</parameter><parameter name="COR">0</parameter><parameter name="DEL">0</parameter><parameter name="DLY">0</parameter><parameter name="HFW">8000</parameter><parameter name="LFW">0</parameter><parameter name="NSS">32</parameter><parameter name="PLF">AB</parameter><parameter name="RES">6</parameter><parameter name="SOT">0</parameter><parameter name="TCL">MakeCompatibleScalar (0, {WSV=1.000000, ARV=0});</parameter><parameter name="TDL">37</parameter><parameter name="SPO">0</parameter><parameter name="SGN">-1</parameter></Acquisition_Parameters_><Instrument_Parameters_Rf><parameter name="HFL">15801.365274</parameter><parameter name="LFL">0</parameter><parameter name="LWN">15801.365274</parameter><parameter name="ABP">32150</parameter><parameter name="SSP">1</parameter><parameter name="ARG">2</parameter><parameter name="ASG">2</parameter><parameter name="ASS">32</parameter><parameter name="GFW">16</parameter><parameter name="GBW">16</parameter><parameter name="BFW">0</parameter><parameter name="BBW">0</parameter><parameter name="PKA">9241</parameter><parameter name="PKL">5015</parameter><parameter name="PRA">9216</parameter><parameter name="PRL">4982</parameter><parameter name="P2A">1</parameter><parameter name="P2L">1</parameter><parameter name="P2R">1</parameter><parameter name="P2K">1</parameter><parameter name="DAQ">0</parameter><parameter name="AG2">1</parameter><parameter name="SSM">1</parameter><parameter name="RSN">38167</parameter><parameter name="CRR">0</parameter><parameter name="SRT">1695387413.757</parameter><parameter name="DUR">19.6419982910156</parameter><parameter name="TSC">32.9</parameter><parameter name="MVD">0.335263133049011</parameter><parameter name="AN1">0.225878301989167</parameter><parameter name="AN2">0</parameter><parameter name="VSN">2.485 Apr  4 2017</parameter><parameter name="SRN">0085</parameter><parameter name="CAM">0</parameter><parameter name="INS">IR-Biotyper</parameter><parameter name="FOC">69</parameter><parameter name="RDY">1</parameter><parameter name="ARS">32</parameter></Instrument_Parameters_Rf><Sample_Parameters_><parameter name="BLD"></parameter><parameter name="CNM">Admin</parameter><parameter name="CPY"></parameter><parameter name="DPM"></parameter><parameter name="EXP">IRBT_v3_32Scans.XPM</parameter><parameter name="LCT"></parameter><parameter name="SFM">Microplate, HTS-XT</parameter><parameter name="SNM">230922-1029-ACIDIFIED WATER_Acidified_water_H9_2b2579b4-f206-46d7-8285-4b8935756815.0</parameter><parameter name="XPP">C:\Users\Public\Documents\Bruker\OPUS_8.2.28\XPM</parameter><parameter name="IST">OK</parameter><parameter name="CPG">1252</parameter><parameter name="UID">3e6a4737-4cd7-4147-a746-176d5776965e</parameter></Sample_Parameters_><Instrument_Parameters_><parameter name="HFL">15801.365274</parameter><parameter name="LFL">0</parameter><parameter name="LWN">15801.365274</parameter><parameter name="ABP">32150</parameter><parameter name="SSP">1</parameter><parameter name="ASG">2</parameter><parameter name="ARG">2</parameter><parameter name="ASS">32</parameter><parameter name="GFW">16</parameter><parameter name="GBW">16</parameter><parameter name="BFW">0</parameter><parameter name="BBW">0</parameter><parameter name="PKA">9612</parameter><parameter name="PKL">5015</parameter><parameter name="PRA">9598</parameter><parameter name="PRL">4982</parameter><parameter name="P2A">1</parameter><parameter name="P2L">1</parameter><parameter name="P2R">1</parameter><parameter name="P2K">1</parameter><parameter name="DAQ">0</parameter><parameter name="AG2">1</parameter><parameter name="SSM">1</parameter><parameter name="RSN">19754</parameter><parameter name="CRR">0</parameter><parameter name="SRT">1695387439.955</parameter><parameter name="DUR">19.6419982910156</parameter><parameter name="TSC">32.9</parameter><parameter name="MVD">0.277744829654694</parameter><parameter name="AN1">0.225889088357261</parameter><parameter name="AN2">0</parameter><parameter name="VSN">2.485 Apr  4 2017</parameter><parameter name="SRN">0085</parameter><parameter name="CAM">0</parameter><parameter name="INS">IR-Biotyper</parameter><parameter name="FOC">69</parameter><parameter name="RDY">1</parameter></Instrument_Parameters_><History/></OPUSDataFile>
