<?xml version="1.0" encoding="UTF-8" ?>
<OPUSDataFile><AB><Ydata ylabel="Absorbance Units"><values byteorder="INTEL" format="FLOAT32" numvalues="3497"> -0.06103506 -0.06109252 -0.06114177 -0.06118323 -0.06121025 -0.0612225 -0.06122119 -0.06120674 -0.06118454 -0.06115507
 -0.0611238 -0.06109054 -0.06105722 -0.06102413 -0.06099159 -0.06096311 -0.06094364 -0.06093806 -0.06095514 -0.06099315
 -0.06105642 -0.06113276 -0.06121871 -0.0612984 -0.06136489 -0.0614106 -0.06143082 -0.06143163 -0.061412 -0.06138819
 -0.06136135 -0.06134776 -0.06134837 -0.06136987 -0.06141154 -0.0614662 -0.06153201 -0.06159443 -0.06165269 -0.06169582
 -0.06172559 -0.06174024 -0.06174294 -0.06173823 -0.06172785 -0.06171568 -0.06170186 -0.06168723 -0.06167325 -0.06166036
 -0.06165175 -0.06164915 -0.06165253 -0.06166267 -0.06167617 -0.06169213 -0.06171194 -0.06173531 -0.06176884 -0.0618129
 -0.06186666 -0.06192913 -0.06198641 -0.06203759 -0.06206905 -0.06208331 -0.06208145 -0.06206773 -0.06205303 -0.06203939
 -0.06203531 -0.06204026 -0.06205766 -0.06208385 -0.06211823 -0.06215386 -0.06218715 -0.06221231 -0.0622255 -0.06222782
 -0.06221799 -0.06220243 -0.06218142 -0.06216388 -0.06215027 -0.0621531 -0.06217309 -0.06222226 -0.0623001 -0.0624042
 -0.06253015 -0.06265061 -0.06276032 -0.06282189 -0.06284145 -0.06281135 -0.06274834 -0.06267766 -0.06260879 -0.06256507
 -0.06254197 -0.06254587 -0.0625626 -0.06258728 -0.06260505 -0.06260736 -0.06259388 -0.06256004 -0.06252436 -0.06248824
 -0.0624734 -0.06248294 -0.06252059 -0.06258685 -0.06266288 -0.06274765 -0.0628214 -0.06288574 -0.06294054 -0.06298909
 -0.06304478 -0.06310665 -0.06318139 -0.06326101 -0.06333519 -0.06339734 -0.06343297 -0.06344742 -0.06343897 -0.06341758
 -0.06338856 -0.06335736 -0.0633251 -0.0633036 -0.06329306 -0.06331849 -0.06338402 -0.0635087 -0.06369826 -0.06392205
 -0.06417935 -0.0643474 -0.06442272 -0.0643197 -0.06406141 -0.06375777 -0.06342503 -0.06318767 -0.06303267 -0.06299101
 -0.0630425 -0.06317122 -0.06335022 -0.06354615 -0.0637273 -0.06385466 -0.0639184 -0.0638926 -0.06381501 -0.06368861
 -0.06356905 -0.06347443 -0.06342265 -0.06342309 -0.06345341 -0.06351315 -0.06357242 -0.06362934 -0.06366877 -0.06369091
 -0.06369736 -0.06368972 -0.06367899 -0.06366579 -0.06365991 -0.06365758 -0.06365458 -0.063647 -0.06362323 -0.06358969
 -0.06354731 -0.06350871 -0.06348551 -0.06348305 -0.06350868 -0.0635595 -0.06363691 -0.06373396 -0.06385102 -0.06397296
 -0.06409945 -0.06420354 -0.06428272 -0.06431293 -0.06429233 -0.06422401 -0.06410975 -0.06397935 -0.06383469 -0.06370299
 -0.06358317 -0.06348512 -0.06340788 -0.06335363 -0.06332272 -0.06331789 -0.06333617 -0.06337781 -0.0634316 -0.06349022
 -0.06353932 -0.06356668 -0.0635716 -0.06354703 -0.06351287 -0.06347162 -0.06344638 -0.063443 -0.06346487 -0.06351424
 -0.06357538 -0.06364753 -0.06371371 -0.06377333 -0.06381521 -0.06384005 -0.06384595 -0.06383608 -0.06382111 -0.06380478
 -0.0638029 -0.06381479 -0.06384797 -0.06389637 -0.06395555 -0.06402062 -0.06408333 -0.06414977 -0.06421882 -0.0643049
 -0.0644151 -0.06455208 -0.06472229 -0.06490181 -0.06509003 -0.06524958 -0.06537649 -0.0654449 -0.06545301 -0.06538022
 -0.06522688 -0.06499387 -0.06468979 -0.06437347 -0.06405456 -0.06380498 -0.06362239 -0.06353983 -0.06354401 -0.06363212
 -0.06377704 -0.06394666 -0.06411454 -0.06424244 -0.06433285 -0.06437382 -0.06438352 -0.0643672 -0.06433581 -0.0642942
 -0.06424321 -0.06418364 -0.06411485 -0.06403585 -0.06395824 -0.06388247 -0.06383055 -0.06380326 -0.06381609 -0.0638667
 -0.06394965 -0.0640562 -0.06415008 -0.06422102 -0.0642167 -0.06414948 -0.06401051 -0.06383296 -0.06365914 -0.06349956
 -0.06338411 -0.06329279 -0.06322417 -0.06315254 -0.06306378 -0.06295585 -0.06282106 -0.06268564 -0.06255309 -0.06244406
 -0.06236347 -0.06229836 -0.06224882 -0.06217226 -0.06206749 -0.06190924 -0.06170474 -0.06149494 -0.06128674 -0.06113489
 -0.06102994 -0.06097495 -0.06095777 -0.0609572 -0.06096705 -0.06097266 -0.06096679 -0.06093901 -0.06088312 -0.0607904
 -0.06066631 -0.0605124 -0.06032824 -0.06011812 -0.05985833 -0.05954362 -0.05916734 -0.05872497 -0.05825159 -0.05774896
 -0.05725453 -0.0567695 -0.05631177 -0.05588216 -0.05549559 -0.05515258 -0.05486638 -0.05463072 -0.05443801 -0.05427659
 -0.05412182 -0.05396527 -0.05378938 -0.05358088 -0.05332567 -0.05300445 -0.05259279 -0.05211267 -0.05155733 -0.05099099
 -0.0504339 -0.04991122 -0.04943465 -0.04898692 -0.04856772 -0.04815735 -0.04775421 -0.04735465 -0.0469593 -0.0465832
 -0.04622708 -0.04590759 -0.04561723 -0.04533858 -0.04505259 -0.04469294 -0.04426029 -0.04371005 -0.04309062 -0.04244889
 -0.0418163 -0.0412487 -0.04072272 -0.04024327 -0.03977374 -0.03929632 -0.03880139 -0.03827759 -0.03775051 -0.03722319
 -0.03671676 -0.03623709 -0.03576348 -0.03529572 -0.03478567 -0.03423208 -0.03361466 -0.03293959 -0.03224532 -0.03153844
 -0.03087004 -0.03023629 -0.02965377 -0.02911379 -0.02860886 -0.02812936 -0.02766146 -0.02719389 -0.02670984 -0.02620927
 -0.02568342 -0.02514958 -0.02461567 -0.02408367 -0.02356175 -0.02301692 -0.02244334 -0.02182097 -0.02114171 -0.02045054
 -0.01974931 -0.0190998 -0.01850318 -0.01796816 -0.01749041 -0.01704054 -0.01661426 -0.01617786 -0.0157301 -0.01524833
 -0.01473804 -0.01419752 -0.01363659 -0.01306929 -0.01249735 -0.0119305 -0.0113575 -0.0107736 -0.01017158 -0.009542923
 -0.008902292 -0.008250522 -0.007608695 -0.006982242 -0.006376597 -0.005794446 -0.005222976 -0.004661843 -0.004088848 -0.003503221
 -0.002892822 -0.002259398 -0.001612044 -0.0009521919 -0.0002920027 0.0003708956 0.001038714 0.001709979 0.002386472 0.003056639
 0.00370539 0.00432522 0.004899736 0.005439385 0.005943859 0.006430667 0.00690817 0.007384416 0.007864439 0.008346363
 0.00883043 0.009315026 0.009798993 0.01029134 0.01079225 0.01132086 0.01187781 0.01247374 0.01310574 0.01375577
 0.01441841 0.01505819 0.01567568 0.01625128 0.01679514 0.01731704 0.01782763 0.01834781 0.01887663 0.01942335
 0.01997562 0.02052734 0.021072 0.02160205 0.02212806 0.02265096 0.02318342 0.02372971 0.02428683 0.02485535
 0.0254271 0.02600132 0.02657872 0.02715911 0.02773851 0.02831464 0.02886573 0.02939047 0.02986851 0.03030592
 0.03070735 0.03108459 0.0314633 0.03185071 0.03227075 0.03271592 0.03319084 0.03367679 0.03416224 0.03463661
 0.03508908 0.035529 0.03595667 0.03638278 0.03681166 0.03723566 0.03765433 0.03806016 0.03845175 0.03884546
 0.03924233 0.03966718 0.04011875 0.04059834 0.04110018 0.04159845 0.04208843 0.04254118 0.04295955 0.04333307
 0.0436727 0.04398927 0.0442913 0.04459383 0.04489141 0.0451854 0.04546796 0.04573172 0.04598878 0.04623873
 0.04650492 0.04679383 0.04710941 0.04745497 0.04781059 0.04817524 0.04852783 0.04886763 0.04918787 0.04949022
 0.0497856 0.0500777 0.0503907 0.05072465 0.05109578 0.05149379 0.05190725 0.05232316 0.0527157 0.05308533
 0.05342032 0.05373367 0.05403199 0.05432053 0.05460685 0.0548782 0.05513288 0.0553566 0.05554333 0.05570181
 0.0558297 0.05596184 0.05610043 0.05627869 0.05649756 0.05675863 0.05705908 0.05737399 0.05770098 0.0580158
 0.05831797 0.05859435 0.05884361 0.05905537 0.0592328 0.05937164 0.05948814 0.05959374 0.05971 0.05985802
 0.06003926 0.06026615 0.06050861 0.06076208 0.06099172 0.06118597 0.06134529 0.06146516 0.06158127 0.06169648
 0.06183028 0.06198251 0.06211959 0.06223794 0.06228665 0.06227115 0.06218654 0.06204994 0.06191081 0.06178201
 0.06171822 0.06171215 0.06178169 0.06190123 0.0620531 0.06221357 0.06235705 0.06248479 0.06258605 0.06268688
 0.06279358 0.06292527 0.06309177 0.06327409 0.06347415 0.06364465 0.0637819 0.0638523 0.0638549 0.0637993
 0.0636893 0.06356569 0.0634302 0.06331401 0.06321274 0.0631275 0.06305733 0.0629974 0.06295692 0.06294991
 0.06297567 0.06304736 0.06313421 0.0632219 0.06327711 0.06327236 0.06322143 0.06311531 0.06300801 0.06291052
 0.06285592 0.06285422 0.06288591 0.0629516 0.06300517 0.06304435 0.06303159 0.06296726 0.06283817 0.06265033
 0.06242294 0.06216851 0.06193528 0.06173353 0.0616125 0.06156444 0.06160632 0.06170654 0.06184385 0.06197926
 0.06207658 0.06212131 0.06209002 0.06200973 0.06187912 0.06174683 0.06162277 0.06154197 0.0615113 0.06154408
 0.06164205 0.06181141 0.0620523 0.06236203 0.06273659 0.06313889 0.06355744 0.06391443 0.06420123 0.06434265
 0.06435331 0.06421729 0.06397914 0.06369302 0.06340662 0.06319572 0.06306567 0.06305657 0.06311493 0.06323272
 0.06333587 0.06339615 0.06337596 0.06325569 0.06305794 0.06277942 0.06247707 0.06215537 0.06185615 0.06158121
 0.0613323 0.06110802 0.06089256 0.06068815 0.06049745 0.06032601 0.06019562 0.06010409 0.06006305 0.06005338
 0.06005712 0.0600427 0.05997195 0.05982029 0.05955283 0.0591776 0.05868043 0.05810998 0.05747393 0.0568344
 0.05620678 0.05562908 0.05511061 0.05465598 0.05426746 0.05392685 0.05363301 0.05334972 0.05307493 0.05277102
 0.05244211 0.05208749 0.0517186 0.05137608 0.05105933 0.05079512 0.05055701 0.05031845 0.05005229 0.04971131
 0.04930785 0.04882474 0.04831731 0.04780385 0.04734331 0.04696374 0.04668069 0.04651171 0.04640484 0.04636128
 0.0462836 0.04616333 0.04593186 0.04558617 0.04514791 0.04462378 0.04409704 0.0435699 0.04310058 0.04267826
 0.04229772 0.04194839 0.04160126 0.04125899 0.04091191 0.04056853 0.04023644 0.03991546 0.03961034 0.039311
 0.0390137 0.03871043 0.03839581 0.03807412 0.03774439 0.03741723 0.03709481 0.03677852 0.03646942 0.03615491
 0.03583438 0.03549643 0.03514178 0.03477457 0.03439716 0.03402495 0.03365883 0.03331063 0.0329782 0.03266339
 0.03236158 0.03206747 0.03177474 0.03147509 0.03116313 0.03083108 0.03048054 0.03010795 0.02972513 0.02933443
 0.02894922 0.02857428 0.02821058 0.02786015 0.02751137 0.02716345 0.02680641 0.02643977 0.02606589 0.02568543
 0.02530717 0.02493116 0.02456234 0.02419981 0.02384327 0.02349163 0.02314255 0.02279478 0.02244578 0.0220937
 0.0217347 0.02137059 0.02099774 0.02063115 0.02027326 0.019952 0.0196792 0.01946673 0.0193276 0.01921924
 0.01914324 0.01901317 0.01882102 0.0185076 0.01806974 0.01753382 0.01690694 0.01628289 0.01566879 0.0151567
 0.01474009 0.01445275 0.01426791 0.01414725 0.01405369 0.01390863 0.01369803 0.01336403 0.01294503 0.01244257
 0.01192239 0.01142397 0.01097118 0.01059025 0.01024496 0.009930458 0.009620234 0.009302958 0.009018041 0.008766395
 0.008609141 0.008549527 0.008584025 0.008706 0.00883131 0.008950974 0.008966492 0.008882671 0.008657733 0.008315468
 0.007886875 0.00739992 0.00691696 0.006443378 0.006015556 0.005609699 0.005217799 0.004823691 0.004407408 0.003996626
 0.003593257 0.003237731 0.00294669 0.002708462 0.002528728 0.00235022 0.002166811 0.001954739 0.001712418 0.001480682
 0.001261862 0.001099764 0.0009890659 0.0009212394 0.0008875135 0.0008503412 0.0008097215 0.0007460181 0.0006654373 0.0005713667
 0.0004636883 0.0003471435 0.0002096332 4.634126E-05 -0.0001622248 -0.0004281556 -0.0007621681 -0.001176967 -0.001649475 -0.002184492
 -0.002716457 -0.003238544 -0.003680436 -0.004032243 -0.004281758 -0.004427674 -0.004537826 -0.004617814 -0.004761711 -0.004967509
 -0.005276047 -0.005670464 -0.006114311 -0.00658859 -0.00702744 -0.007427984 -0.007752054 -0.008015325 -0.008217935 -0.00838415
 -0.008531199 -0.008681974 -0.008854973 -0.009056621 -0.009298847 -0.009557082 -0.009830457 -0.01008118 -0.01029978 -0.01048631
 -0.01063651 -0.01080306 -0.01098875 -0.01123889 -0.01155124 -0.01190426 -0.01229028 -0.01264764 -0.01297985 -0.01326258
 -0.01351378 -0.01376691 -0.01403007 -0.01433971 -0.01467464 -0.01502918 -0.01536956 -0.01566423 -0.01590074 -0.016059
 -0.01615496 -0.01618918 -0.01618052 -0.0161354 -0.01605671 -0.01594551 -0.01580313 -0.01562773 -0.0154475 -0.01526372
 -0.01513535 -0.01506517 -0.01510704 -0.01525651 -0.0155177 -0.0158753 -0.01627725 -0.01670764 -0.01709967 -0.01745127
 -0.01772577 -0.01793625 -0.01808255 -0.01818078 -0.01824401 -0.01828249 -0.01830542 -0.01831727 -0.01832148 -0.01832055
 -0.01831573 -0.01830821 -0.01829909 -0.01828401 -0.01826399 -0.01821848 -0.01814652 -0.01800748 -0.01779943 -0.01748461
 -0.01706717 -0.01655046 -0.01594806 -0.01531119 -0.01465252 -0.01403171 -0.01344671 -0.01292435 -0.0124485 -0.01201159
 -0.01159678 -0.01118754 -0.0107746 -0.01034834 -0.009905176 -0.009440816 -0.008957794 -0.008453052 -0.00794518 -0.007434072
 -0.006954629 -0.006510161 -0.006129196 -0.005813861 -0.005561693 -0.005371201 -0.005216889 -0.005098814 -0.00500333 -0.004935385
 -0.004908753 -0.004923071 -0.004990597 -0.005093351 -0.005209702 -0.005314722 -0.005365915 -0.005360959 -0.00527662 -0.005141406
 -0.004964478 -0.004770962 -0.004578386 -0.004375684 -0.004166931 -0.003919551 -0.003627454 -0.003276112 -0.002861548 -0.002399295
 -0.001889836 -0.001363073 -0.0008211091 -0.0002996135 0.0001986315 0.0006361259 0.001014016 0.00131231 0.001543195 0.001724628
 0.0018736 0.002033015 0.002198448 0.002396038 0.002572753 0.00270975 0.00271083 0.002521861 0.002058491 0.001264742
 0.0001417007 -0.001339454 -0.003063834 -0.005028958 -0.007052838 -0.009118695 -0.01106649 -0.01288479 -0.014501 -0.01591616
 -0.01714594 -0.01819716 -0.01912234 -0.0199254 -0.02064785 -0.02129245 -0.0218838 -0.02243082 -0.02295897 -0.02347771
 -0.02401241 -0.02455609 -0.0251161 -0.02566856 -0.02620195 -0.02669822 -0.02714496 -0.02754431 -0.0278937 -0.02820213
 -0.0284719 -0.02870168 -0.02889242 -0.02903192 -0.02911951 -0.02914248 -0.02910142 -0.02900282 -0.02885318 -0.02869805
 -0.02854812 -0.02847271 -0.0284719 -0.02858775 -0.02879855 -0.02908963 -0.02942915 -0.02977177 -0.03009706 -0.03037059
 -0.03058969 -0.0307418 -0.03083583 -0.03087137 -0.03086168 -0.03081112 -0.0307244 -0.03060492 -0.03043953 -0.03022626
 -0.02996175 -0.02964422 -0.02934042 -0.02905869 -0.0289533 -0.02903402 -0.02945448 -0.03019692 -0.03128776 -0.03267023
 -0.03421693 -0.03586664 -0.0374445 -0.03893581 -0.04024079 -0.04140074 -0.04241322 -0.04333252 -0.04419355 -0.04501975
 -0.04583263 -0.0466236 -0.04739566 -0.0481316 -0.04882863 -0.04947553 -0.05007019 -0.05061204 -0.05110069 -0.05154739
 -0.05195305 -0.0523346 -0.05269272 -0.05304052 -0.05337745 -0.0537091 -0.05403275 -0.054345 -0.0546414 -0.05491086
 -0.05515454 -0.05536501 -0.05555788 -0.05574103 -0.05593697 -0.05616405 -0.05642623 -0.05673585 -0.05706404 -0.05740914
 -0.05772737 -0.0580092 -0.05823433 -0.05839631 -0.05852012 -0.05860633 -0.05870404 -0.05881472 -0.05896444 -0.05914933
 -0.05935245 -0.05957024 -0.05977625 -0.05997618 -0.06017087 -0.06036926 -0.06059168 -0.0608344 -0.0611047 -0.06138591
 -0.06166654 -0.06193174 -0.06216811 -0.06237185 -0.06253678 -0.06266906 -0.06276663 -0.06284849 -0.06291566 -0.0629975
 -0.06309782 -0.06323367 -0.0634071 -0.06360352 -0.06382154 -0.06403149 -0.06423362 -0.06441561 -0.06458078 -0.06473776
 -0.06488688 -0.06503467 -0.06517705 -0.06530829 -0.06542818 -0.06553219 -0.06562695 -0.0657175 -0.06580693 -0.06590112
 -0.06599164 -0.0660761 -0.06614846 -0.06620318 -0.06625459 -0.06630255 -0.06637274 -0.06646927 -0.0665983 -0.06676124
 -0.06693451 -0.06711672 -0.0672796 -0.06742413 -0.06754396 -0.06764302 -0.06773501 -0.067822 -0.06791793 -0.0680199
 -0.06813034 -0.06824236 -0.06834804 -0.06844194 -0.06851388 -0.06856936 -0.06860481 -0.06864067 -0.06868321 -0.06875356
 -0.06886143 -0.06900731 -0.06919575 -0.06940409 -0.06963099 -0.06985027 -0.07005985 -0.07024766 -0.07041357 -0.07055932
 -0.0706857 -0.07079904 -0.07090051 -0.07099788 -0.07109302 -0.07119536 -0.07130555 -0.07143066 -0.07156674 -0.07171262
 -0.07186119 -0.07200498 -0.07214096 -0.07226358 -0.0723775 -0.07248291 -0.07258618 -0.0726898 -0.0727947 -0.07290181
 -0.07300851 -0.07311442 -0.07321942 -0.07332337 -0.07343021 -0.07354005 -0.07365487 -0.07377366 -0.07388979 -0.07400103
 -0.07409318 -0.07416662 -0.07421237 -0.07423853 -0.07425451 -0.07427213 -0.07431252 -0.07437877 -0.07448425 -0.07461817
 -0.07477905 -0.07495201 -0.07512986 -0.07530463 -0.07547241 -0.07563021 -0.075777 -0.07591022 -0.07602906 -0.07613554
 -0.07622948 -0.07632009 -0.07640782 -0.07650113 -0.07659963 -0.07670365 -0.07681248 -0.07692272 -0.07703479 -0.07714855
 -0.07726389 -0.07738176 -0.07749883 -0.07761115 -0.07771564 -0.07780632 -0.07788707 -0.07795679 -0.07802568 -0.07809839
 -0.07818031 -0.07827582 -0.07837812 -0.07848733 -0.07859229 -0.07869103 -0.07878194 -0.07886443 -0.0789482 -0.07903373
 -0.07912992 -0.07923597 -0.07934926 -0.07946806 -0.07958259 -0.07969293 -0.07979349 -0.07988712 -0.07997687 -0.08006503
 -0.0801568 -0.08025106 -0.08034891 -0.08044787 -0.08054633 -0.08064365 -0.08073894 -0.08083301 -0.08092607 -0.08101808
 -0.0811091 -0.0811989 -0.08128738 -0.08137513 -0.08146219 -0.08154924 -0.08163632 -0.08172394 -0.08181224 -0.0819028
 -0.08199583 -0.08209356 -0.08219512 -0.08229973 -0.0824051 -0.08250602 -0.08260138 -0.08268651 -0.08276395 -0.08283379
 -0.08290076 -0.08296812 -0.08303878 -0.08311523 -0.08319744 -0.08328617 -0.0833794 -0.08347715 -0.08357591 -0.08367545
 -0.0837713 -0.08386309 -0.08394766 -0.08402488 -0.08409414 -0.08415566 -0.08421084 -0.08426054 -0.08430906 -0.08435812
 -0.08441526 -0.08448125 -0.08456223 -0.08465554 -0.08476097 -0.08487343 -0.08498783 -0.08510076 -0.08520799 -0.08530938
 -0.0854036 -0.08549222 -0.08557546 -0.08565454 -0.08572974 -0.08580175 -0.08587058 -0.08593769 -0.08600311 -0.08606998
 -0.08613843 -0.08621066 -0.08628625 -0.08636224 -0.0864378 -0.08650687 -0.08657007 -0.08662547 -0.08667555 -0.08672478
 -0.08677406 -0.08682736 -0.08688225 -0.08693771 -0.08699169 -0.08704151 -0.08708954 -0.08713554 -0.08718436 -0.08723791
 -0.08729745 -0.08736423 -0.08743425 -0.08750743 -0.08757803 -0.08764549 -0.08770794 -0.08776537 -0.08782054 -0.08787368
 -0.08792795 -0.08798329 -0.08804087 -0.08810093 -0.08816458 -0.08823239 -0.08830657 -0.08838625 -0.08847174 -0.08856037
 -0.08864959 -0.08873754 -0.0888216 -0.088903 -0.08898147 -0.08905924 -0.08913729 -0.08921549 -0.08929407 -0.08937204
 -0.08944908 -0.08952657 -0.08960453 -0.08968594 -0.08977088 -0.08985911 -0.08995009 -0.09003873 -0.09012449 -0.09020156
 -0.09027071 -0.09033088 -0.09038386 -0.09043299 -0.09047935 -0.09052631 -0.09057315 -0.09062026 -0.09066726 -0.09071311
 -0.09076066 -0.09081039 -0.09086689 -0.09093255 -0.09100644 -0.09108993 -0.09117442 -0.091259 -0.09133606 -0.09140453
 -0.09146649 -0.09152208 -0.09157927 -0.09163801 -0.09170146 -0.09176839 -0.09183447 -0.09189852 -0.0919541 -0.09200192
 -0.09203926 -0.09206994 -0.0920975 -0.09212776 -0.09216821 -0.09222178 -0.09229461 -0.09238128 -0.09248252 -0.09258647
 -0.09268952 -0.09278309 -0.09286379 -0.09293242 -0.09298797 -0.09303822 -0.09308377 -0.09313016 -0.09317753 -0.09322269
 -0.09326503 -0.0932969 -0.09331912 -0.093331 -0.09333584 -0.09334382 -0.09335725 -0.0933874 -0.09343144 -0.09349143
 -0.09356029 -0.09363188 -0.09369987 -0.09375717 -0.09380304 -0.09383425 -0.09385598 -0.09386867 -0.0938793 -0.09388941
 -0.09390398 -0.09392383 -0.09395265 -0.09399077 -0.09404158 -0.09410518 -0.09418041 -0.0942664 -0.09435394 -0.09444194
 -0.09451929 -0.0945868 -0.09464055 -0.09468328 -0.09471894 -0.09474988 -0.09478154 -0.09481465 -0.09485252 -0.09489337
 -0.09493782 -0.09498107 -0.09502135 -0.09505337 -0.09507407 -0.09508448 -0.09508301 -0.09507907 -0.09507345 -0.09507646
 -0.09508929 -0.09511444 -0.09515203 -0.09519807 -0.09525251 -0.09531339 -0.09538146 -0.09545991 -0.09554914 -0.09565251
 -0.09576924 -0.09589889 -0.09604163 -0.09619624 -0.09636674 -0.09655523 -0.09677009 -0.09701714 -0.09730514 -0.09764065
 -0.09802571 -0.09846433 -0.0989474 -0.09947462 -0.1000322 -0.1006178 -0.1012249 -0.1018525 -0.1024986 -0.1031627
 -0.1038163 -0.1044539 -0.1050042 -0.1054593 -0.1057373 -0.10584 -0.1057249 -0.1054097 -0.1049025 -0.1042457
 -0.1034982 -0.1027182 -0.1019912 -0.101348 -0.1008411 -0.1004685 -0.1002431 -0.1001537 -0.1002028 -0.1003647
 -0.100644 -0.1009634 -0.1013185 -0.1015968 -0.1017849 -0.1018573 -0.1018128 -0.101733 -0.1016212 -0.1015448
 -0.1014974 -0.1014789 -0.1014786 -0.1014579 -0.1014154 -0.1013244 -0.1011994 -0.1010506 -0.1008913 -0.1007447
 -0.100603 -0.1004702 -0.1003285 -0.1001663 -0.09998553 -0.09978031 -0.09957377 -0.09937007 -0.09918708 -0.09902927
 -0.09889666 -0.09879009 -0.09870136 -0.09863006 -0.09856821 -0.09851547 -0.09846597 -0.09841955 -0.09837208 -0.09832381
 -0.0982731 -0.09822091 -0.0981684 -0.0981169 -0.09806907 -0.09802555 -0.09798849 -0.09795668 -0.09793007 -0.09790713
 -0.09788693 -0.0978689 -0.09785255 -0.09783807 -0.09782535 -0.09781516 -0.09780753 -0.09780382 -0.09780419 -0.09780885
 -0.09781782 -0.09782901 -0.0978424 -0.09785692 -0.09787297 -0.09789266 -0.0979157 -0.09794314 -0.09797245 -0.09799833
 -0.09801877 -0.098027 -0.09802575 -0.09801431 -0.09799912 -0.09798518 -0.09797568 -0.09797464 -0.09797908 -0.09798884
 -0.09800086 -0.09801359 -0.09802984 -0.09804961 -0.09807743 -0.09811413 -0.09815688 -0.09820553 -0.09824877 -0.09828617
 -0.09830865 -0.09831728 -0.09831325 -0.0982986 -0.09828132 -0.09826209 -0.09824678 -0.09823429 -0.09822531 -0.09821894
 -0.09821386 -0.09821127 -0.09821133 -0.09821615 -0.09822758 -0.09824426 -0.09826711 -0.09829021 -0.09831244 -0.09832879
 -0.09833765 -0.09834148 -0.09834004 -0.09834078 -0.0983441 -0.09835269 -0.09836613 -0.09837951 -0.09839248 -0.09840009
 -0.09840362 -0.09840471 -0.09840531 -0.09841119 -0.09842256 -0.09844257 -0.09847 -0.09850488 -0.09854541 -0.09859109
 -0.09863762 -0.09868377 -0.09872199 -0.09874883 -0.09876113 -0.09875579 -0.09874136 -0.09871799 -0.09869865 -0.09868495
 -0.09868017 -0.09868457 -0.09869221 -0.09870294 -0.09871355 -0.0987246 -0.09873844 -0.0987549 -0.09877473 -0.09879717
 -0.09882035 -0.09884471 -0.09887029 -0.0988972 -0.0989265 -0.0989552 -0.0989813 -0.09900256 -0.09901594 -0.09902537
 -0.09903106 -0.09903891 -0.0990511 -0.09906756 -0.09908903 -0.09911109 -0.09913314 -0.09915501 -0.09917662 -0.09920289
 -0.09923383 -0.09927086 -0.09931296 -0.09935443 -0.09939466 -0.09942784 -0.09945543 -0.09947805 -0.09949729 -0.09951697
 -0.09953552 -0.09955316 -0.09956665 -0.09957252 -0.09957184 -0.09956264 -0.09955233 -0.0995428 -0.09954144 -0.09955132
 -0.09957209 -0.099605 -0.09964213 -0.09968299 -0.09971934 -0.09975066 -0.09977449 -0.09979112 -0.09980411 -0.09981422
 -0.099828 -0.0998456 -0.09987176 -0.09990465 -0.0999428 -0.09998292 -0.1000183 -0.1000482 -0.1000678 -0.1000816
 -0.1000912 -0.1001026 -0.1001201 -0.1001435 -0.1001744 -0.1002074 -0.1002411 -0.1002727 -0.100301 -0.1003272
 -0.1003512 -0.1003741 -0.1003962 -0.1004177 -0.1004388 -0.10046 -0.1004813 -0.1005019 -0.1005212 -0.1005359
 -0.1005464 -0.1005507 -0.1005509 -0.1005494 -0.1005489 -0.1005536 -0.1005636 -0.100581 -0.1006027 -0.1006276
 -0.1006517 -0.1006729 -0.1006897 -0.1007009 -0.1007088 -0.1007134 -0.1007196 -0.1007279 -0.1007419 -0.100762
 -0.1007874 -0.1008177 -0.1008475 -0.1008764 -0.100898 -0.1009127 -0.1009187 -0.1009179 -0.1009146 -0.1009111
 -0.1009135 -0.1009224 -0.1009414 -0.1009679 -0.1010015 -0.1010381 -0.1010754 -0.1011103 -0.1011413 -0.1011673
 -0.1011878 -0.101201 -0.1012067 -0.1012034 -0.1011904 -0.1011725 -0.1011498 -0.1011337 -0.1011248 -0.1011318
 -0.1011537 -0.1011881 -0.1012329 -0.1012783 -0.1013233 -0.1013602 -0.1013898 -0.1014098 -0.1014225 -0.1014292
 -0.1014327 -0.1014358 -0.1014405 -0.1014488 -0.10146 -0.1014744 -0.1014892 -0.1015038 -0.1015164 -0.1015262
 -0.1015347 -0.1015417 -0.1015501 -0.1015601 -0.1015741 -0.101592 -0.1016133 -0.1016378 -0.1016639 -0.1016915
 -0.10172 -0.1017488 -0.101777 -0.1018027 -0.1018225 -0.1018352 -0.1018369 -0.1018302 -0.1018146 -0.1017964
 -0.1017786 -0.1017668 -0.1017646 -0.101772 -0.1017906 -0.1018144 -0.1018429 -0.101869 -0.1018919 -0.1019094
 -0.1019214 -0.1019302 -0.1019359 -0.1019391 -0.1019395 -0.1019352 -0.1019268 -0.1019156 -0.1019039 -0.101899
 -0.1019017 -0.1019182 -0.1019437 -0.101976 -0.1020074 -0.10203 -0.1020416 -0.1020365 -0.1020228 -0.1020014
 -0.1019825 -0.1019702 -0.1019657 -0.1019709 -0.1019781 -0.1019868 -0.1019899 -0.101987 -0.1019772 -0.1019607
 -0.1019405 -0.1019169 -0.1018943 -0.1018729 -0.1018568 -0.101845 -0.1018377 -0.1018325 -0.1018249 -0.1018145
 -0.1017981 -0.1017793 -0.1017597 -0.101743 -0.101733 -0.1017276 -0.1017277 -0.1017266 -0.1017223 -0.1017099
 -0.1016873 -0.1016577 -0.1016207 -0.101584 -0.1015481 -0.1015163 -0.1014885 -0.101461 -0.1014335 -0.101402
 -0.1013671 -0.1013295 -0.1012905 -0.1012539 -0.1012212 -0.1011963 -0.1011802 -0.1011763 -0.1011824 -0.1011997
 -0.1012205 -0.1012416 -0.1012527 -0.1012483 -0.1012257 -0.1011813 -0.1011244 -0.1010554 -0.100988 -0.1009241
 -0.1008712 -0.1008301 -0.1007986 -0.1007765 -0.100758 -0.1007433 -0.1007317 -0.1007237 -0.1007217 -0.1007249
 -0.1007325 -0.1007425 -0.100751 -0.1007559 -0.1007535 -0.1007407 -0.1007136 -0.1006706 -0.1006076 -0.1005317
 -0.1004428 -0.1003539 -0.1002692 -0.1001945 -0.100133 -0.1000784 -0.1000307 -0.09998152 -0.09993003 -0.09987589
 -0.09981929 -0.09976512 -0.09971347 -0.09966728 -0.09962594 -0.09958827 -0.0995539 -0.09952112 -0.09948999 -0.09946004
 -0.0994308 -0.09940182 -0.09937175 -0.09933927 -0.09930351 -0.09926353 -0.09921917 -0.09917032 -0.09911615 -0.09905624
 -0.09899081 -0.09891929 -0.09884578 -0.09877062 -0.09869793 -0.09862815 -0.09855943 -0.09849166 -0.09842189 -0.09835104
 -0.09828475 -0.09822419 -0.09817892 -0.09814619 -0.09812507 -0.09810824 -0.09808082 -0.09803937 -0.09797031 -0.09788171
 -0.09777489 -0.09766138 -0.09754986 -0.09744377 -0.09734777 -0.09725766 -0.09717318 -0.09709033 -0.09700791 -0.09692589
 -0.09684397 -0.09676413 -0.09668643 -0.09661414 -0.09654751 -0.09649224 -0.09644789 -0.09641499 -0.09639007 -0.09635855
 -0.09631684 -0.09624466 -0.09614722 -0.09602325 -0.09588309 -0.09574139 -0.09560112 -0.09547059 -0.09534838 -0.09523489
 -0.09513197 -0.09504064 -0.09496152 -0.09489667 -0.09483759 -0.09478406 -0.09472238 -0.09465075 -0.09456105 -0.09445237
 -0.09432577 -0.09418154 -0.0940278 -0.09386539 -0.09370475 -0.09354611 -0.09339625 -0.09325462 -0.09312309 -0.09300098
 -0.09288884 -0.09278358 -0.09268288 -0.09257948 -0.09246536 -0.09233725 -0.0921881 -0.09202681 -0.09185452 -0.09168281
 -0.09151652 -0.09135687 -0.09120563 -0.09105703 -0.09091047 -0.0907627 -0.09061337 -0.09046312 -0.09031184 -0.09015689
 -0.08999707 -0.08982112 -0.08962798 -0.08940488 -0.0891557 -0.08888362 -0.08859594 -0.08831009 -0.08802646 -0.08775469
 -0.08748759 -0.08722141 -0.08695152 -0.08667182 -0.08638716 -0.08609745 -0.08581039 -0.08552957 -0.08525379 -0.08498568
 -0.08470862 -0.08442256 -0.0840968 -0.08372876 -0.08330375 -0.08282237 -0.08231474 -0.08178334 -0.08126422 -0.08075374
 -0.08025432 -0.07976057 -0.07925645 -0.07874273 -0.07821158 -0.0776699 -0.07712319 -0.07657921 -0.07604748 -0.07553189
 -0.0750405 -0.07456465 -0.07410662 -0.07364134 -0.07316133 -0.07265045 -0.07209966 -0.07153104 -0.07094519 -0.07037194
 -0.06981432 -0.06927247 -0.0687462 -0.06822639 -0.06771368 -0.06721167 -0.06671939 -0.06623689 -0.06575684 -0.06525759
 -0.06473325 -0.06415658 -0.06353953 -0.06288376 -0.06221125 -0.06154687 -0.06089531 -0.06026925 -0.05965997 -0.0590657
 -0.0584824 -0.05790854 -0.05734253 -0.05678837 -0.05621728 -0.05563183 -0.05495154 -0.05417017 -0.05322931 -0.05212985
 -0.05096282 -0.04973695 -0.04857629 -0.04746814 -0.04641593 -0.04540401 -0.04438436 -0.04335743 -0.04230246 -0.04122214
 -0.04012046 -0.03897395 -0.03777347 -0.03646146 -0.03499624 -0.03334138 -0.03144469 -0.02939431 -0.02718752 -0.02499416
 -0.02285452 -0.0208456 -0.01898933 -0.01725831 -0.0156539 -0.01411291 -0.01263077 -0.01110365 -0.009520953 -0.007727975
 -0.005740139 -0.003521958 -0.00115233 0.001129525 0.003306085 0.005199082 0.006896372 0.008452192 0.009931786 0.01142974
 0.01294867 0.01452021 0.01612704 0.01776611 0.01943303 0.02113236 0.02282932 0.02452115 0.02615695 0.02772514
 0.02923728 0.03069302 0.03211706 0.03350873 0.03480909 0.03601282 0.0370397 0.03789917 0.03859335 0.03913976
 0.03959596 0.03996593 0.04028838 0.04055268 0.04075437 0.04089924 0.0409857 0.0410376 0.04107218 0.04110095
 0.0411388 0.04116878 0.04119151 0.04117773 0.04112066 0.04100484 0.04082545 0.04059114 0.04030089 0.03999119
 0.03966382 0.03935209 0.0390538 0.03876017 0.03846732 0.03814949 0.03780929 0.0374378 0.03704768 0.03665834
 0.03628717 0.03597007 0.03571074 0.03552689 0.03541407 0.035369 0.03540625 0.03553011 0.03575881 0.03610583
 0.0365491 0.03708904 0.03768795 0.03833823 0.03903846 0.03978739 0.04059903 0.04147369 0.04240505 0.04339175
 0.04441725 0.04548156 0.04657719 0.04770317 0.04885248 0.05002421 0.05121054 0.05241768 0.05365029 0.05491709
 0.05623089 0.05758999 0.05899938 0.06044793 0.06193141 0.06344207 0.06497471 0.06653406 0.06812041 0.06973835
 0.07139193 0.07305389 0.07472397 0.07634639 0.07791866 0.07941505 0.08083817 0.08221176 0.08353046 0.0847861
 0.08595644 0.08695991 0.08779409 0.08840757 0.08882424 0.08905891 0.08912891 0.08905587 0.08885545 0.08854574
 0.08813365 0.08764255 0.08701213 0.08624708 0.08520268 0.08383357 0.08212071 0.08002102 0.07786252 0.07567316
 0.0736272 0.07173034 0.06982212 0.06789655 0.06583299 0.06364633 0.06135454 0.05897073 0.05656058 0.05409513
 0.05156453 0.04888467 0.04590192 0.04262356 0.03891526 0.03507473 0.03128501 0.02772893 0.02461109 0.02174189
 0.01909897 0.01652308 0.01395329 0.0114244 0.008928154 0.006555495 0.004317152 0.002211207 0.0002371983 -0.001671765
 -0.003516708 -0.005332593 -0.00711286 -0.00883944 -0.0105085 -0.01209551 -0.01360663 -0.0150424 -0.01641228 -0.01772992
 -0.01900451 -0.02024624 -0.02147494 -0.0226993 -0.02396304 -0.0252922 -0.02670813 -0.02825462 -0.02979136 -0.03130731
 -0.03260957 -0.03364699 -0.03448709 -0.03512559 -0.03573084 -0.03631077 -0.03693471 -0.03759769 -0.03826508 -0.03893027
 -0.03953637 -0.0400903 -0.04058793 -0.04103305 -0.04143925 -0.04178882 -0.04206128 -0.04223925 -0.04228887 -0.04222465
 -0.04204285 -0.04177127 -0.04142454 -0.04101529 -0.04055286 -0.04003437 -0.03946523 -0.03881609 -0.0380897 -0.03720796
 -0.036164 -0.03489491 -0.03339847 -0.03179323 -0.0300948 -0.02853128 -0.02709758 -0.02588448 -0.02486974 -0.02402412
 -0.02333693 -0.02277295 -0.02232262 -0.02196475 -0.02166887 -0.02140348 -0.02111841 -0.02076114 -0.02031977 -0.01975564
 -0.01914638 -0.01851164 -0.01790706 -0.01735932 -0.0168379 -0.01634432 -0.01582861 -0.01528517 -0.01469875 -0.01406853
 -0.01342396 -0.01276682 -0.01212979 -0.01150817 -0.01089554 -0.01027933 -0.009613295 -0.008888667 -0.008056457 -0.00713045
 -0.006108484 -0.005011743 -0.003870163 -0.002674367 -0.00143071 -0.0001148239 0.001289641 0.002778378 0.004358843 0.005998624
 0.007689302 0.009419267 0.0111815 0.01300731 0.01489998 0.01687295 0.01892674 0.02096823 0.02298796 0.02483889
 0.0265218 0.02796713 0.02918185 0.03015898 0.03089058 0.03135686 0.03154406 0.03141666 0.03098033 0.03022121
 0.02916829 0.02783571 0.02625722 0.02445256 0.02244755 0.02025187 0.01789492 0.01537544 0.01276782 0.01007463
 0.007420527 0.004818145 0.002344263 3.523151E-06 -0.00223422 -0.004372295 -0.006466273 -0.008509352 -0.01049125 -0.01239881
 -0.0141739 -0.01582347 -0.01732807 -0.01871641 -0.02002595 -0.02127921 -0.02251894 -0.02374658 -0.02497967 -0.02620423
 -0.02741927 -0.02860566 -0.02975706 -0.03085733 -0.03190039 -0.03288284 -0.03380172 -0.0346695 -0.03548708 -0.03626559
 -0.03700569 -0.03769337 -0.03832636 -0.03886983 -0.03932428 -0.03967262 -0.0399223 -0.04009026 -0.04018402 -0.04022987
 -0.04023112 -0.04020445 -0.04015107 -0.04007825 -0.03998689 -0.03987841 -0.03975815 -0.03962556 -0.03949871 -0.03938084
 -0.03929893 -0.03925959 -0.03928354 -0.03937615 -0.03954039 -0.03977805 -0.04007557 -0.04043231 -0.04082638 -0.04125636
 -0.04169933 -0.04215281 -0.04259138 -0.04301084 -0.04338234 -0.04370391 -0.04395453 -0.04413954 -0.04425676 -0.04431622
 -0.04432813 -0.04430107 -0.0442441 -0.04416533 -0.04406988 -0.04396825 -0.04386485 -0.04376837 -0.04368238 -0.04360807
 -0.0435465 -0.04349437 -0.04345128 -0.04341729 -0.04339239 -0.04338255 -0.04338824 -0.04341764 -0.04347007 -0.04354666
 -0.04364424 -0.04375212 -0.04386714 -0.04397514 -0.04407775 -0.04417002 -0.04425808 -0.04434714 -0.04444188 -0.04454879
 -0.04466675 -0.04479841 -0.04493615 -0.04507913 -0.04521525 -0.04534161 -0.04544842 -0.04553293 -0.04559506 -0.04563404
 -0.04565785 -0.04566693 -0.04566856 -0.04566281 -0.04565157 -0.04563448 -0.04561033 -0.04557868 -0.04553747 -0.04548585
 -0.045421 -0.04534161 -0.04524413 -0.04512796 -0.0449901 -0.04483324 -0.04465714 -0.04446886 -0.04427174 -0.04407248
 -0.04387488 -0.04368039 -0.04349041 -0.04330309 -0.04311807 -0.04293581 -0.04275607 -0.04258269 -0.04241588 -0.04226001
 -0.04211523 -0.04198465 -0.04186776 -0.04176328 -0.04166974 -0.04158076 -0.04149566 -0.04140836 -0.041322 -0.04123779
 -0.04116246 -0.04110397 -0.04106841 -0.04106419 -0.04109172 -0.04115492 -0.04124732 -0.04136809 -0.04150869 -0.04166673
 -0.04183697 -0.0420183 -0.04220716 -0.04240336 -0.04260077 -0.04279901 -0.0429935 -0.04318454 -0.04337613 -0.04356924
 -0.043773 -0.04398647 -0.04421201 -0.04444565 -0.04467894 -0.04490808 -0.04512198 -0.0453207 -0.04549918 -0.04566093
 -0.04580725 -0.04594089 -0.04606397 -0.0461773 -0.04628119 -0.04637801 -0.04646793 -0.04655564 -0.0466423 -0.04672886
 -0.04681604 -0.04689785 -0.04697399 -0.04703779 -0.04708916 -0.0471263 -0.04714958 -0.0471606 -0.04715958 -0.04714856
 -0.04712673 -0.04709366 -0.04704715 -0.04698329 -0.04689997 -0.04679255 -0.04666152 -0.04650588 -0.04632613 -0.04612319
 -0.04589402 -0.04563753 -0.04535184 -0.04503515 -0.04469256 -0.0443241 -0.04393794 -0.04353476 -0.04312207 -0.04270029
 -0.04228123 -0.04186562 -0.04146727 -0.04108542 -0.0407226 -0.04037559 -0.04003274 -0.03969241 -0.03934336 -0.03898842
 -0.03862732 -0.03826344 -0.03790214 -0.03754161 -0.03718325 -0.03682112 -0.03645104 -0.03607287 -0.03568284 -0.03529394
 -0.03490792 -0.03454005 -0.03419453 -0.03387199 -0.03357383 -0.03328821 -0.03301449 -0.03274271 -0.03247236 -0.03219534
 -0.03191052 -0.03160536 -0.03128017 -0.03092791 -0.03055304 -0.03016359 -0.02976325 -0.0293637 -0.02896265 -0.02856212
 -0.02815857 -0.02774887 -0.0273329 -0.02690972 -0.02647965 -0.02604254 -0.02559892 -0.0251479 -0.02469529 -0.02424121
 -0.0237955 -0.02335918 -0.02294004 -0.02253871 -0.02215807 -0.02179794 -0.02145492 -0.02112831 -0.02081094 -0.02050309
 -0.02020228 -0.01990862 -0.01962307 -0.01934096 -0.01905514 -0.01875968 -0.01844239 -0.0181054 -0.01774555 -0.01736881
 -0.01697979 -0.01657567 -0.01615694 -0.01571818 -0.01525606 -0.01477723 -0.0142813 -0.01378168 -0.01328003 -0.01278307
 -0.01229142 -0.01180609 -0.01132724 -0.01085759 -0.01039766 -0.009952641 -0.00952291 -0.009112883 -0.008722272 -0.008352178
 -0.008003113 -0.007674688 -0.007372395 -0.0071016 -0.006870877 -0.006691147 -0.006562465 -0.006490807 -0.006463763 -0.006478472
 -0.006521941 -0.006590186 -0.006674592 -0.00677411 -0.006876093 -0.006979682 -0.007068171 -0.007140334 -0.007186745 -0.007207359
 -0.007202875 -0.007174185 -0.007127553 -0.007064598 -0.006995396 -0.006920911 -0.006849677 -0.00677988 -0.006711938 -0.006644432
 -0.006574275 -0.006504943 -0.006437279 -0.006378043 -0.006330315 -0.006303171 -0.006299469 -0.006331904 -0.006405163 -0.006524518
 -0.006693915 -0.006899719 -0.007141517 -0.00740023 -0.007674341 -0.007958231 -0.008251773 -0.008554948 -0.008866861 -0.009180074
 -0.009494214 -0.009803027 -0.01010835 -0.01041279 -0.01071623 -0.01102015 -0.01132279 -0.01162048 -0.01191801 -0.01221594
 -0.01252644 -0.01285678 -0.01321645 -0.01361211 -0.01404454 -0.01451527 -0.01502295 -0.01556654 -0.01615185 -0.01677919
 -0.01745678 -0.01818571 -0.01895581 -0.01976537 -0.02057622 -0.02138584 -0.02215537 -0.02288775 -0.02357455 -0.02422096
 -0.02483892 -0.02542701 -0.02598875 -0.02651961 -0.02701328 -0.02747187 -0.02789444 -0.02828552 -0.02864881 -0.0289831
 -0.02928867 -0.0295643 -0.02980813 -0.03002738 -0.03022231 -0.03040398 -0.03057376 -0.03073892 -0.03090017 -0.03105876
 -0.03121457 -0.03136369 -0.03150607 -0.03163917 -0.03176394 -0.03188401 -0.03199868 -0.03210939 -0.03221127 -0.03229506
 -0.03235865 -0.03239251 -0.03240508 -0.03239938 -0.03238716 -0.03237811 -0.03237449 -0.03238094 -0.03239131 -0.03240453
 -0.03241649 -0.03242579 -0.03243307 -0.03243821 -0.03244273 -0.03244677 -0.03245015 -0.03245282 -0.0324527 -0.03244975
 -0.0324428 -0.03243191 -0.03241713 -0.03239775 -0.03237209 -0.03233884 -0.03229407 -0.03223867 -0.03217157 -0.03209573
 -0.03201357 -0.03192706 -0.03183859 -0.03174749 -0.03165475 -0.03155651 -0.03145303 -0.03133515 -0.03120127 -0.03104349
 -0.03085946 -0.03065649 -0.03043445 -0.03021385 -0.02999561 -0.02979537 -0.0296128 -0.02945175 -0.02931198 -0.02919441
 -0.02909948 -0.02902943 -0.02898354 -0.02896192 -0.02896271 -0.0289843 -0.02902272 -0.02907587 -0.02913392 -0.02919157
 -0.0292364 -0.02926117 -0.02926053 -0.02923033 -0.02917424 -0.02909229 -0.02898813 -0.02886249 -0.02871475 -0.02854489
 -0.02835257 -0.02813793 -0.02790498 -0.02765433 -0.02739272 -0.02712073 -0.02684434 -0.02656419 -0.02628514 -0.02600765
 -0.02573564 -0.02546739 -0.02520314 -0.02493831 -0.02466832 -0.02439091 -0.02410118 -0.0238059 -0.02350566 -0.02321117
 -0.0229265 -0.02265517 -0.02239922 -0.02215529 -0.02192302 -0.02170124 -0.0214897 -0.02129147 -0.02110661 -0.02093547
 -0.02077702 -0.02062288 -0.02047093 -0.02030615 -0.02012894 -0.01993044 -0.01971731 -0.01949803 -0.01928001 -0.01907979
 -0.01889374 -0.0187269 -0.01856622 -0.0184039 -0.01823287 -0.01804685 -0.01784761 -0.01763509 -0.01740838 -0.01716772
 -0.01690942 -0.01663233 -0.01634084 -0.01603499 -0.01572393 -0.0154079 -0.01508729 -0.01476183 -0.01442777 -0.01408754
 -0.01374985 -0.01341916 -0.01311485 -0.01283597 -0.0125917 -0.01237458 -0.01217677 -0.0119957 -0.01182404 -0.01166762
 -0.01153094 -0.01140905 -0.01130673 -0.01119504 -0.01106673 -0.01089696 -0.01067476 -0.01041538 -0.01011656 -0.00982099
 -0.009532018 -0.009276425 -0.009054913 -0.008861928 -0.008695474 -0.008535157 -0.008379672 -0.008211411 -0.008031959 -0.007836133
 -0.007627905 -0.007413795 -0.007194458 -0.006975451 -0.006750831 -0.006516141 -0.006268491 -0.006001403 -0.005725038 -0.005440382
 -0.005164182 -0.004902151 -0.004664228 -0.004455009 -0.004269973 -0.00411068 -0.003957671 -0.003809954 -0.003643542 -0.003457447
 -0.003241126 -0.002995652 -0.002726786 -0.002436276 -0.002134789 -0.001824617 -0.001517693 -0.001216716 -0.00093476 -0.0006684493
 -0.0004215236 -0.0001812652 6.337254E-05 0.0003227193 0.0006107572 0.0009201561 0.001255091 0.00159118 0.001922774 0.002226142
 0.002493152 0.002722615 0.002910922 0.003082827 0.003239749 0.003406864 0.003585085 0.003776408 0.003979748 0.004184864
 0.004391798 0.004596543 0.004798113 0.004992031 0.005175786 0.005339167 0.005487885 0.00562223 0.005758338 0.00591323
 0.006096286 0.006323281 0.00658355 0.006879736 0.007186602 0.007497833 0.007789472 0.008053471 0.00828638 0.008484093
 0.008671037 0.008848431 0.00904476 0.009261101 0.00949966 0.00975904 0.0100245 0.01029738 0.01057643 0.01086528
 0.01117645 0.01150841 0.01186647 0.0122415 0.01262399 0.01300187 0.01335812 0.0136891 0.01398336 0.01425387
 0.01450317 0.01474532 0.01498888 0.01522573 0.01545693 0.01566529 0.01584621 0.01600883 0.01615234 0.01630832
 0.01647824 0.01668225 0.01691907 0.01718406 0.01747313 0.0177638 0.01805179 0.01831021 0.01854058 0.01873126
 0.01889027 0.01902564 0.01914078 0.01924351 0.01933087 0.01940097 0.01945859 0.01950454 0.01954687 0.01959073
 0.0196297 0.01966299 0.01968592 0.0196953 0.01971108 0.01973465 0.01978323 0.01985739 0.01994379 0.02004163
 0.02013662 0.02023116 0.02033186 0.02043934 0.02055896 0.02069015 0.02083332 0.02099025 0.02116788 0.02135578
 0.02154954 0.02172823 0.0218695 0.02198052 0.02204842 0.02212558 0.0222277 0.02238933 0.02263018 0.02291046
 0.02322619 0.02355255 0.02388569 0.02423818 0.02461018 0.02498499 0.02535827 0.02567541 0.0259338 0.02608805
 0.02614533 0.02610141 0.02597312 0.02579331 0.02557936 0.02537698 0.02518077 0.0250085 0.0248307 0.02462849
 0.02438984 0.02409669 0.0237733 0.02342047 0.02307482 0.02274206 0.02246306 0.0222439 0.02211892 0.02209458
 0.0221447 0.02226745 0.02236468 0.02243217 0.02238623 0.02223513 0.02197797 0.02163064 0.02124505 0.02083149
 0.02043869 0.02006805 0.01974408 0.01946065 0.01921897 0.01901707 0.01884968 0.01873046 0.01866905 0.01865954
 0.01871144 0.01877285 0.01883252 0.0188577 0.01883509 0.01880719 0.01877568 0.01879199 0.01885857 0.01896872
 0.01912116 0.01929778 0.01950028 0.01973301 0.01999158 0.02026531 0.02054472 0.02080016 0.02103314 0.02123009
 0.02140353 0.02156006 0.02171572 0.02188352 0.02207706 0.02231011 0.02257598 0.02287939 0.02319348 0.0235119
 0.02382126 0.02411767 0.02440393 0.02468105 0.02493328 0.02515979 0.02534028 0.02547683 0.02558977 0.02568189
 0.02578389 0.02588744 0.02597948 0.0260522 0.02607777 0.0260619 0.02600267 0.02590339 0.02576556 0.02559597
 0.0253893 0.02518821 0.02500982 0.02489818 0.02488311 0.02494069 0.02507738 0.0252284 0.02538288 0.02551194
 0.0256109 0.02568093 0.02572186 0.02572306 0.02568403 0.02559355 0.02545479 0.0252785 0.02507181 0.02486344
 0.02466197 0.02450401 0.02438706 0.02433165 0.02430866 0.02429614 0.02426319 0.02417023 0.02403042 0.02383351
 0.02362184 0.02341199 0.02321691 0.02304683 0.02288115 0.02271793 0.02254177 0.02235011 0.02214716 0.02193306
 0.02172773 0.02153192 0.02136391 0.02121833 0.02107547 0.0209245 0.020711 0.02044152 0.02009511 0.01970564
 0.01931866 0.01895987 0.01868198 0.01847775 0.01836121 0.01831139 0.01832338 0.01837143 0.01844888 0.01852224
 0.01858101 0.01861068 0.01860407 0.01858343 0.01855022 0.0185221 0.01850015</values></Ydata></AB><ScSm><Ydata ylabel="Single channel"><values byteorder="INTEL" format="FLOAT32" numvalues="1814"> 0.07019483 0.07020758 0.07028399 0.07045011 0.07067749 0.07089669 0.07104683 0.07111622 0.07112747 0.07109471
 0.07102841 0.07097995 0.0710311 0.07121211 0.07145233 0.07162848 0.07166411 0.07159837 0.07156299 0.071654
 0.07179925 0.07178286 0.07144686 0.07087244 0.07032606 0.07001431 0.0699562 0.07014067 0.07065718 0.07144849
 0.07203324 0.07185027 0.07096286 0.07009219 0.06981709 0.07002047 0.07022427 0.0701437 0.06977567 0.06929263
 0.06909472 0.06970099 0.07123708 0.07301363 0.07377539 0.07249513 0.06910796 0.06474018 0.06129197 0.06042031
 0.06237387 0.0656572 0.06815103 0.06880293 0.06813368 0.06716561 0.06631985 0.06554981 0.06505617 0.06532302
 0.06644984 0.06770488 0.06790765 0.06644025 0.06398156 0.06202194 0.06150331 0.06223201 0.06368114 0.06556554
 0.06702618 0.06616591 0.06191471 0.05639213 0.05396312 0.0570891 0.06370494 0.06924173 0.07069175 0.06829524
 0.06421998 0.06076218 0.05947887 0.06076705 0.06379241 0.06718411 0.06986381 0.07109533 0.07030649 0.06758662
 0.06416848 0.06182729 0.06178765 0.0642459 0.06833565 0.07220645 0.07385857 0.072617 0.06958312 0.06647067
 0.06447543 0.06427314 0.0661863 0.0698508 0.07419494 0.07806006 0.08067399 0.0817298 0.08144955 0.08044145
 0.07923584 0.07820161 0.07787291 0.07861753 0.0797718 0.07989386 0.07833368 0.07609776 0.07481007 0.07503477
 0.07583004 0.07589582 0.07488726 0.07321149 0.07075144 0.06683485 0.06178583 0.05734313 0.05492501 0.05454543
 0.05584774 0.05866488 0.06180685 0.06298517 0.06132135 0.05895031 0.05890523 0.06187928 0.06586608 0.06860238
 0.06966144 0.0702963 0.07182805 0.07429609 0.07628889 0.07601097 0.07306364 0.06944568 0.068141 0.07019018
 0.07368875 0.07612836 0.07704172 0.07773045 0.07898898 0.07987363 0.07868581 0.07499029 0.07070406 0.06891511
 0.07119267 0.07601382 0.07986793 0.07985897 0.07565667 0.06956635 0.06472944 0.06294908 0.06420557 0.06785592
 0.07334132 0.07956281 0.08458443 0.08671592 0.08575107 0.08287413 0.07930825 0.07518379 0.07018057 0.06540304
 0.06361383 0.06662156 0.07296984 0.07915214 0.08274356 0.08361273 0.082559 0.07981867 0.07528758 0.06995352
 0.06636438 0.06665178 0.06996563 0.07295389 0.07326932 0.07170843 0.07049353 0.07050361 0.07094242 0.07103299
 0.07112226 0.07208051 0.07405677 0.07613627 0.07722612 0.07705206 0.0762115 0.07547072 0.07506994 0.0745526
 0.07341181 0.0721003 0.07198892 0.07386775 0.07686079 0.07932656 0.08050695 0.08080481 0.0806919 0.07987575
 0.07772733 0.07447201 0.07167431 0.07108095 0.07293367 0.07581822 0.0781358 0.0792518 0.07934552 0.07883558
 0.07809653 0.07733337 0.07664026 0.0762645 0.07654837 0.07744108 0.07838546 0.07888012 0.07889082 0.07859726
 0.07803708 0.0771815 0.07619103 0.07542045 0.07516626 0.07544866 0.07604675 0.07669504 0.07717803 0.07730675
 0.07699294 0.0763777 0.07573915 0.07524167 0.07488887 0.07469831 0.07475114 0.07503651 0.07538306 0.07560438
 0.07564193 0.07553716 0.07533318 0.07504769 0.07470803 0.07438113 0.07416721 0.07413816 0.07425421 0.07438144
 0.07444017 0.07448429 0.07457215 0.07462521 0.07451227 0.07423602 0.07394391 0.0737687 0.07372373 0.07373916
 0.07373276 0.07362688 0.07335073 0.07290263 0.07242633 0.07215562 0.07222715 0.07257836 0.07304275 0.07347602
 0.07377569 0.07388563 0.07384014 0.07373737 0.07362796 0.073476 0.07324667 0.07299452 0.07285042 0.07292223
 0.07319462 0.0735327 0.07379685 0.07393525 0.07396922 0.07395239 0.07395739 0.0740273 0.07411213 0.07411432
 0.07401714 0.07391702 0.07391343 0.07400179 0.0740875 0.0740916 0.07403626 0.07401925 0.07410324 0.07425397
 0.07439654 0.07450287 0.07460374 0.07472818 0.07484543 0.07487755 0.0747866 0.07463741 0.0745375 0.07452343
 0.07455267 0.07459857 0.07469122 0.0748511 0.0750311 0.075155 0.0751981 0.07520811 0.07524157 0.07529177
 0.07529911 0.07523137 0.07512897 0.07506198 0.07506208 0.07510711 0.07515514 0.07517771 0.07516752 0.07512993
 0.07507437 0.07500824 0.07493321 0.07485358 0.07479541 0.07480233 0.07488853 0.07499865 0.07503898 0.07496141
 0.07480855 0.07466938 0.07459403 0.07455701 0.07450032 0.07439931 0.07427759 0.07417104 0.07409664 0.07405318
 0.07402999 0.07401224 0.07399885 0.07402216 0.07412587 0.07430391 0.07447775 0.07456219 0.07455026 0.07451278
 0.07452034 0.07458724 0.07468536 0.07478687 0.07489145 0.0750225 0.07519015 0.07535817 0.07547304 0.07553147
 0.07558939 0.07569908 0.07586896 0.07608356 0.07631776 0.07652609 0.07666441 0.07674127 0.07681778 0.07694265
 0.07710986 0.07728746 0.07746245 0.07764325 0.07783645 0.078043 0.07827333 0.0785483 0.07887726 0.07923799
 0.07958217 0.07986504 0.08008205 0.0802827 0.08053914 0.08088832 0.08130226 0.0817154 0.08207907 0.08239307
 0.08269073 0.08299743 0.08331158 0.0836315 0.08398375 0.0843979 0.08485933 0.08531605 0.08573465 0.08612718
 0.08652166 0.08692898 0.0873438 0.08776276 0.08819401 0.08864896 0.08912157 0.0895796 0.08998848 0.09034559
 0.09068396 0.09104536 0.09145276 0.09189241 0.0923112 0.0926531 0.09292223 0.09319423 0.09353726 0.09393296
 0.09430657 0.09462815 0.0949463 0.09531545 0.0957256 0.09612516 0.09649013 0.09684436 0.09721871 0.09760787
 0.0979688 0.09825772 0.09847322 0.09866202 0.09887718 0.09914017 0.09945436 0.09983194 0.1002738 0.1007336
 0.1011403 0.1014571 0.101699 0.1019014 0.1020978 0.1023155 0.1025615 0.1028174 0.1030615 0.1032817
 0.1034642 0.1036021 0.1037302 0.1039147 0.1041885 0.1045227 0.1048802 0.1052618 0.1056763 0.1060976
 0.1064916 0.1068736 0.1072943 0.1077582 0.1081932 0.108523 0.1087434 0.1089032 0.1090429 0.1091916
 0.1093987 0.1097109 0.1101147 0.1105398 0.1109268 0.1112656 0.111571 0.1118496 0.1120977 0.1123147
 0.112506 0.1126798 0.1128482 0.1130334 0.1132678 0.1135722 0.1139284 0.1142821 0.1145799 0.1147904
 0.1148915 0.1148683 0.1147469 0.1146033 0.1145015 0.1144213 0.1142726 0.1139767 0.1135157 0.1129077
 0.1121679 0.1113099 0.1103758 0.1094491 0.1086323 0.1080085 0.1076209 0.1074896 0.1076351 0.1080631
 0.1087198 0.1094808 0.1101958 0.1107369 0.111007 0.1109376 0.1105151 0.1098026 0.108915 0.1079683
 0.1070473 0.1061926 0.1054028 0.1046677 0.1040308 0.1036135 0.1035694 0.1040182 0.1050182 0.1065593
 0.1085413 0.1107638 0.1129791 0.1149911 0.11672 0.118185 0.1194477 0.1205762 0.1216329 0.1226531
 0.1236254 0.1245162 0.1253157 0.1260449 0.1267202 0.127331 0.1278513 0.1282593 0.1285523 0.1287546
 0.1289044 0.1290254 0.1291207 0.1291952 0.1292634 0.129324 0.1293386 0.1292457 0.1289948 0.1285731
 0.1280243 0.1274658 0.1270977 0.1271784 0.1279367 0.1294425 0.1315372 0.1339021 0.1362123 0.1382464
 0.1399072 0.141199 0.142201 0.1430207 0.1437425 0.1444098 0.1450419 0.1456494 0.1462358 0.1468003
 0.147345 0.1478775 0.1484086 0.1489449 0.1494793 0.1499928 0.1504738 0.1509369 0.1514125 0.1519185
 0.1524441 0.1529616 0.1534567 0.1539424 0.1544337 0.1549146 0.1553493 0.1557304 0.1560951 0.1564892
 0.1569322 0.1574151 0.1579085 0.1583702 0.1587686 0.1591108 0.1594358 0.1597779 0.1601439 0.1605228
 0.1609041 0.1612828 0.1616569 0.1620298 0.1624101 0.1628016 0.1631882 0.1635387 0.1638371 0.1641046
 0.1643837 0.1646984 0.1650369 0.1653726 0.1656969 0.1660304 0.1663999 0.1668073 0.1672217 0.1676043
 0.1679379 0.1682341 0.168519 0.1688146 0.1691309 0.1694662 0.169812 0.1701582 0.1704995 0.1708388
 0.1711828 0.1715329 0.1718824 0.1722225 0.1725509 0.1728734 0.1731983 0.1735305 0.1738708 0.1742222
 0.1745909 0.174974 0.1753521 0.1757 0.1760085 0.1762891 0.1765602 0.1768353 0.1771211 0.1774195
 0.1777292 0.1780473 0.1783697 0.1786923 0.1790143 0.1793404 0.1796739 0.1800105 0.1803426 0.1806681
 0.180995 0.1813319 0.1816772 0.1820185 0.1823459 0.1826617 0.1829755 0.1832926 0.1836123 0.1839312
 0.1842438 0.1845445 0.1848368 0.1851333 0.1854428 0.1857622 0.1860832 0.1864018 0.1867169 0.1870275
 0.1873337 0.1876385 0.187946 0.1882582 0.1885741 0.1888918 0.1892093 0.1895237 0.1898327 0.1901391
 0.1904481 0.1907597 0.1910699 0.1913792 0.1916907 0.1920022 0.1923089 0.1926116 0.1929155 0.1932243
 0.1935391 0.1938592 0.1941808 0.1944982 0.1948086 0.1951122 0.1954121 0.1957136 0.1960213 0.1963344
 0.1966515 0.1969729 0.1972951 0.1976088 0.1979091 0.1982017 0.1984976 0.1988058 0.1991285 0.1994596
 0.1997893 0.2001126 0.2004285 0.2007345 0.20103 0.2013204 0.2016117 0.2019055 0.2022003 0.2024938
 0.2027844 0.2030755 0.2033733 0.2036778 0.2039829 0.204286 0.204588 0.2048881 0.2051861 0.2054853
 0.2057868 0.206089 0.2063932 0.2067015 0.2070141 0.2073313 0.2076521 0.2079685 0.208274 0.2085748
 0.2088815 0.209194 0.2095066 0.2098164 0.2101215 0.2104244 0.2107358 0.2110631 0.2114009 0.2117384
 0.2120678 0.2123804 0.2126731 0.2129548 0.2132359 0.2135185 0.2138064 0.2141074 0.2144199 0.2147343
 0.2150465 0.2153542 0.2156532 0.2159458 0.2162395 0.2165333 0.2168278 0.2171354 0.2174628 0.2177971
 0.2181237 0.2184386 0.2187416 0.2190387 0.2193431 0.2196548 0.2199576 0.2202443 0.2205191 0.2207696
 0.2209465 0.2209125 0.220322 0.2184944 0.2144006 0.2068636 0.1950217 0.1788725 0.1594689 0.1385444
 0.1178682 0.0987823 0.08207679 0.06810299 0.05694712 0.04853447 0.04269214 0.0392662 0.0382495 0.03991199
 0.0449391 0.05402539 0.06634651 0.07820707 0.08447865 0.08264731 0.07521655 0.06742521 0.06289481 0.06188001
 0.06283094 0.06442447 0.06624262 0.06852822 0.07169572 0.07586017 0.08081841 0.08655884 0.09350997 0.1019944
 0.1115727 0.1212278 0.1302405 0.138751 0.1474153 0.1566085 0.1660285 0.1749927 0.182981 0.1898941
 0.1959488 0.2014378 0.2065653 0.2114248 0.2160583 0.2204574 0.2244698 0.2277591 0.2299654 0.2309783
 0.2310683 0.2307361 0.2304162 0.2303083 0.2304336 0.2307668 0.2312884 0.2319741 0.2327939 0.2337191
 0.2347195 0.2357622 0.2368163 0.2378495 0.2388302 0.2397411 0.2405817 0.2413532 0.2420549 0.242693
 0.2432809 0.2438304 0.2443499 0.2448446 0.2453145 0.24576 0.2461872 0.2465996 0.2469906 0.2473514
 0.247682 0.2479897 0.2482839 0.2485719 0.248852 0.2491163 0.2493657 0.2496161 0.2498806 0.2501568
 0.2504358 0.2507157 0.2509987 0.2512834 0.2515649 0.2518389 0.2521052 0.2523682 0.2526321 0.252896
 0.2531563 0.2534121 0.2536657 0.2539206 0.2541823 0.2544549 0.2547352 0.2550172 0.2552962 0.2555699
 0.2558385 0.2561101 0.2563955 0.2566931 0.2569924 0.2572877 0.257579 0.2578655 0.25815 0.2584409
 0.2587354 0.2590112 0.259248 0.2594561 0.2596749 0.2599407 0.2602514 0.2605676 0.2608559 0.2611218
 0.2613907 0.2616704 0.2619467 0.2622039 0.2624444 0.262697 0.2629962 0.2633396 0.2636866 0.2640111
 0.2643254 0.264643 0.2649574 0.2652652 0.2655669 0.2658398 0.2660533 0.2662255 0.2664382 0.2667758
 0.2672422 0.2677439 0.2681741 0.2685093 0.2688049 0.2691213 0.2694821 0.2698526 0.2701142 0.2701476
 0.2700224 0.2700234 0.2703907 0.2710795 0.271839 0.2724678 0.2729342 0.2733093 0.2736541 0.2739606
 0.2741641 0.2742163 0.2741796 0.2742457 0.2746026 0.2752439 0.2759593 0.2765495 0.2769808 0.2773084
 0.2775683 0.2777798 0.2779071 0.2777882 0.27731 0.2767328 0.2766276 0.2773248 0.2785358 0.2796534
 0.2803489 0.2807451 0.2810806 0.2814208 0.2817084 0.2818181 0.2814413 0.2802683 0.2785949 0.2774786
 0.2778656 0.2796392 0.2818041 0.2834767 0.2844423 0.2849337 0.285238 0.2854996 0.2856122 0.2852463
 0.2842216 0.2829733 0.282428 0.2831507 0.2847109 0.2861404 0.2869124 0.2872146 0.287436 0.2877359
 0.2879357 0.2874622 0.2856755 0.282814 0.2804669 0.280453 0.28304 0.2866215 0.2893083 0.2905542
 0.2910041 0.2910979 0.2904227 0.2884517 0.2853326 0.2818274 0.2790672 0.2783822 0.2804206 0.2840635
 0.2870661 0.2882709 0.2885827 0.2894822 0.2912608 0.2930333 0.2938838 0.2935717 0.2923769 0.2905988
 0.2884121 0.2863311 0.2854901 0.286839 0.2899867 0.2933426 0.2955878 0.2966731 0.2971221 0.2964894
 0.2930573 0.285903 0.277479 0.2729349 0.2755727 0.2833926 0.2912409 0.2958796 0.2977609 0.2986031
 0.2990843 0.2986573 0.2958753 0.2891867 0.2793846 0.2711402 0.2698452 0.27628 0.2857266 0.2923717
 0.2932712 0.2886593 0.2808916 0.2737381 0.2708479 0.2735391 0.2802226 0.2879702 0.2942705 0.2977137
 0.2979771 0.295693 0.2923943 0.2901361 0.2900107 0.290531 0.2887566 0.2840062 0.2789969 0.2758602
 0.2728489 0.2675721 0.2622342 0.2621705 0.2689048 0.2775983 0.2824855 0.2827137 0.281304 0.2796612
 0.2751897 0.2650453 0.2515167 0.2421162 0.2429985 0.2525778 0.2629538 0.2676452 0.2667347 0.2645527
 0.2639109 0.2632683 0.2589574 0.2499873 0.240458 0.2361149 0.238244 0.2425193 0.2441214 0.2415995
 0.2351969 0.2252669 0.2149854 0.2113566 0.2192969 0.2355967 0.2514359 0.2596589 0.2574087 0.2445227
 0.2244486 0.2062654 0.2002868 0.2088507 0.2234883 0.2327201 0.2311892 0.2206222 0.2048772 0.1872698
 0.1720756 0.1650433 0.1699449 0.1847248 0.2016218 0.2110828 0.2070418 0.1915757 0.1751996 0.1693077
 0.1758884 0.1862168 0.1906537 0.1873827 0.1810497 0.1767005 0.1768343 0.1810591 0.1865478 0.1906574
 0.1930475 0.1928121 0.1856345 0.1690174 0.149352 0.1377404 0.1384404 0.146661 0.1574766 0.1702268
 0.1827241 0.188236 0.1830709 0.1735851 0.1707902 0.1786672 0.1907397 0.1979769 0.1977248 0.194203
 0.1919509 0.1909635 0.1889575 0.1866418 0.1879267 0.1945233 0.202952 0.2084289 0.2098633 0.2094328
 0.2089101 0.2083333 0.2072543 0.2055235 0.2031942 0.2006482 0.1984977 0.196891 0.1953754 0.1935923
 0.1912689 0.1872232 0.1796538 0.1687442 0.158272 0.1526674 0.1523828 0.1541694 0.1558932 0.1577975
 0.1580205 0.1513086 0.1359419 0.1194407 0.1131113 0.1211437 0.137493 0.1527416 0.1612357 0.1615551
 0.153798 0.140039 0.1269005 0.1234575 0.1337899 0.1530554 0.1727088 0.1878682 0.197807 0.2018711
 0.1987748 0.189771 0.1798753 0.1750262 0.1785094 0.1894708 0.2031108 0.2118487 0.2090469 0.1956666
 0.1832958 0.1855875 0.2038446 0.2247499 0.2353252 0.2361117 0.235837 0.2378537 0.238492 0.236677
 0.2377614 0.2461678 0.2588485 0.2682779 0.2690691 0.2600996 0.2437458 0.2263471 0.2165819 0.2185819
 0.2273141 0.2341042 0.2350585 0.2305879 0.2202854 0.2050401 0.1924612 0.1923057 0.2051534 0.2210797
 0.2309278 0.2346403 0.237163 0.239922 0.2391293 0.2315731 0.219984 0.2113469 0.2099813 0.2137512
 0.2176599 0.2191114 0.2179933 0.213737 0.2056562 0.1961313 0.1906253 0.1929778 0.2014947 0.2105993
 0.2158847 0.2169052 0.215786 0.2145171 0.213631 0.2124185 0.2102981 0.2085897 0.2102617 0.2166775
 0.2252777 0.2321353 0.2364226 0.2406791 0.246799 0.2533779 0.2573847 0.2574599 0.2552441 0.2539988
 0.2560012 0.2607012 0.2650993 0.2662998 0.2642665 0.2621114 0.2632259 0.2680441 0.2739973 0.2784325
 0.2807842 0.2820042 0.2829795 0.2837875 0.283676 0.2816602 0.2779792 0.2749488 0.2753391 0.2796213
 0.2854806 0.2901492 0.2926005 0.293434 0.2934113 0.2926463 0.2910128 0.2888534 0.287006 0.2861614
 0.2863753 0.2872325 0.288292 0.2892871 0.2900974 0.2907115 0.2911803 0.2915381 0.2918001 0.2920209
 0.2922578 0.2924676 0.2925501 0.2925318 0.292603 0.2928994 0.293319 0.2936276 0.2936731 0.2934008
 0.2927312 0.2915801 0.2900047 0.2881923 0.2862609 0.284184 0.2820284 0.2802318 0.2794904 0.2802453
 0.2822684 0.2847957 0.2870581 0.2886714 0.2896273 0.2900884 0.2902489 0.2902818 0.2902994 0.2903293
 0.2903403 0.2902993 0.2902023 0.2900624 0.289891 0.2897097 0.2895622 0.2894845 0.2894599 0.2894201
 0.289294 0.2890494 0.2887 0.2882858 0.2878385 0.2873501 0.2867705 0.2860427 0.2851498 0.2841375
 0.2830938 0.2820988 0.2811737 0.2802685 0.2793058 0.278236 0.2770346 0.2756626 0.274094 0.2724062
 0.2707804 0.2693599 0.2681335 0.2669854 0.2658083 0.2645409 0.2631547 0.261661 0.2601088 0.2585391
 0.2569498 0.2553145 0.2536163 0.2518545 0.250031 0.248143 0.2461877 0.2441701 0.2421014 0.2399881
 0.2378137 0.2355172 0.2329866 0.2300835 0.2266846 0.2227072 0.2181264 0.2130058 0.2075128 0.2018836
 0.196353 0.191103 0.1862569 0.181907 0.1781397 0.1750294 0.1726168 0.1709104 0.1699122 0.1696257
 0.1700409 0.1711215 0.1727985 0.1749638 0.1774719 0.1801548 0.1828399 0.1853742 0.1876705 0.1897466
 0.1917025 0.1936324 0.1955474 0.1973832 0.1990727 0.200591 0.2019288 0.2030606 0.2039687 0.204679
 0.2052459 0.2057118 0.206097 0.2064126 0.2066686 0.206875 0.207045 0.2072005 0.2073778 0.2076235
 0.2079679 0.2084066 0.208921 0.2095075 0.2101727 0.2109116 0.2117053 0.2125339 0.2133881 0.2142753
 0.2152184 0.216247 0.2173966 0.2187132 0.2202454 0.2220238 0.2240421 0.2262385 0.2284909 0.2306528
 0.2326058 0.2342771 0.2356268 0.2366463 0.2373648 0.2378289 0.2380748 0.2381273 0.2380175 0.2377878
 0.2374761 0.2370957 0.2366365 0.2360932 0.2354808 0.2348135 0.2340901 0.2333213 0.2325489 0.2318133
 0.2311196 0.2304496 0.2297938 0.2291538 0.228528 0.2279085 0.2272906 0.2266742 0.2260534 0.2254126
 0.2247379 0.2240218 0.223245 0.2223716 0.221378 0.2202666 0.2190383 0.2176781 0.2161859 0.2145966
 0.2129519 0.2112749 0.2095732 0.2078454 0.2060796 0.2042584 0.2023589 0.2003498 0.1982196 0.1960164
 0.1938363 0.1917585 0.1898046 0.1879548 0.1861814 0.1844689 0.1828151 0.1812207 0.1796805 0.178193
 0.1767696 0.1754233 0.1741553 0.1729599 0.1718385 0.1708059 0.1698813 0.1690729 0.1683683 0.1677437
 0.1671798 0.1666713 0.1662351 0.1659082 0.165713 0.1656172 0.1655405 0.1654048 0.1651718 0.1648519
 0.1644952 0.1641569 0.1638566 0.1635817 0.1633221 0.1630643 0.1627505 0.1622796 0.1615569 0.1605285
 0.1591768 0.1575124 0.1555852 0.1535049 0.1514346 0.1495368 0.1479093 0.1465796 0.1455388 0.1447476
 0.1441275 0.1435984 0.1431404 0.1428049 0.1426611 0.142712 0.1428445 0.1428923 0.1427889 0.1426412
 0.1426293 0.142859 0.1433131 0.1438934 0.1444823 0.144993 0.1453795 0.1456124 0.145682 0.1456231
 0.145489 0.1452981 0.1450397 0.1447139 0.144329 0.1438861 0.1433907 0.1428536 0.1422716 0.1416263
 0.1408936 0.1400489 0.139093 0.1380585 0.1369506 0.1357233 0.1343952 0.1331547 0.1322776 0.131948
 0.1321608 0.1327461 0.1334937 0.1342911 0.1350884 0.1357174 0.1359338 0.1357945 0.1358571 0.1367712
 0.1386429 0.1409099 0.1428425 0.1440644 0.1445837 0.1445165 0.1439467 0.1429451 0.1415302 0.1396434
 0.1372783 0.1345635 0.1316564 0.1286841 0.125814 0.123227 0.1210158 0.1191977 0.1177685 0.1167703
 0.1163281 0.1160752 0.1142052 0.1084274 0.09949708 0.09278531 0.0937711 0.1018787 0.1108676 0.1154268
 0.1154214 0.1137087 0.1122675 0.1113948 0.1109628 0.111072 0.1118345 0.113125 0.1145706 0.1157675
 0.1165505 0.1169604 0.1169498 0.1161756 0.1139709 0.1095571 0.1026538 0.09405926 0.08540876 0.07822038
 0.07319357 0.07021077 0.06867766 0.06788702 0.06736609 0.06707163 0.06727409 0.06824259 0.07002553 0.07248949
 0.07546163 0.07871127 0.08184966 0.0844726 0.08646515 0.0880093 0.08925973 0.09016088 0.09059088 0.09053513
 0.09009357 0.08941475 0.08863816 0.08783601 0.08697765 0.08597192 0.08480673 0.08367369 0.0828716 0.08252198
 0.08246073 0.08245759 0.08242831 0.08239017 0.08234777 0.08229148 0.08223249 0.08222205 0.08236269 0.08273482
 0.08327316 0.08378912 0.08414173 0.08433467 0.08445247 0.08452135 0.08441141 0.08394878 0.08321021 0.08254843
 0.08213527 0.08165679 0.08073674 0.07953513 0.07863973 0.07842137 0.07871711 0.07909814 0.07924914 0.07910563
 0.07882856 0.07872593 0.07904693 0.079698</values></Ydata></ScSm><ScRf><Ydata ylabel="Single channel"><values byteorder="INTEL" format="FLOAT32" numvalues="1820"> 0.06072031 0.06087874 0.06097405 0.06100486 0.06099454 0.06099037 0.06104596 0.06118683 0.06138777 0.06158577
 0.06172515 0.06179451 0.06181252 0.06178727 0.06172216 0.06166119 0.06168273 0.06182332 0.06202728 0.06218531
 0.06222282 0.06216529 0.06212377 0.06218544 0.06229531 0.0622718 0.06197838 0.06148227 0.0610118 0.06074521
 0.06069786 0.06085818 0.06130342 0.0619854 0.06248581 0.06231498 0.06152892 0.06076029 0.06051695 0.06069592
 0.06087635 0.06080623 0.06048132 0.0600533 0.0598737 0.06039633 0.06173027 0.06327522 0.06393842 0.06282279
 0.05986754 0.05605388 0.05304246 0.05228084 0.05398347 0.05684278 0.0590106 0.05957256 0.05898729 0.05814973
 0.05742592 0.05676697 0.05633648 0.05655168 0.05750634 0.05857539 0.05873761 0.05745298 0.05530775 0.05359773
 0.05314364 0.05377666 0.05503616 0.05667194 0.05793475 0.057172 0.05345422 0.04863496 0.04652523 0.04926994
 0.05505745 0.05988963 0.06113879 0.05902467 0.05545589 0.0524466 0.05134895 0.05248963 0.05512346 0.0580535
 0.06035404 0.06140314 0.06071553 0.05836789 0.05541895 0.0533978 0.053365 0.05549542 0.05903883 0.062387
 0.06380461 0.06270898 0.06005783 0.05734075 0.05560169 0.05543225 0.05710947 0.06030887 0.06409413 0.06745788
 0.06972888 0.07063876 0.07038151 0.0694935 0.06844612 0.06756074 0.06728762 0.06793079 0.06891334 0.06899755
 0.0676326 0.06569425 0.0645843 0.06478269 0.06546721 0.06551174 0.06462328 0.06315915 0.06101646 0.05760855
 0.05321616 0.04935013 0.04724419 0.04691686 0.04806857 0.05055806 0.05334001 0.05440507 0.05297396 0.05089817
 0.05082094 0.05336038 0.05679087 0.05915553 0.06008037 0.06064431 0.06198702 0.06413741 0.06586554 0.06561251
 0.06304063 0.05989897 0.05878562 0.06059706 0.0636647 0.06580301 0.06661312 0.06723684 0.06836601 0.06917073
 0.06816657 0.06498138 0.06129614 0.05979688 0.06182931 0.06605075 0.06940906 0.06939952 0.06574762 0.06046575
 0.05628769 0.05477921 0.05592793 0.05919301 0.06410351 0.06969486 0.07425264 0.07626975 0.07553869 0.07308534
 0.06999421 0.06640003 0.06203429 0.05788434 0.05641022 0.05922369 0.06502494 0.07068245 0.07402775 0.07493958
 0.07412462 0.07177801 0.06779292 0.0630701 0.05994285 0.0603609 0.06354178 0.06641738 0.06684562 0.06556205
 0.06460126 0.06476055 0.06530315 0.06552483 0.06576881 0.06685182 0.0688988 0.07103569 0.0722301 0.0722242
 0.07158472 0.07104379 0.0708327 0.0705114 0.06959577 0.06852962 0.06862924 0.07063676 0.07369421 0.07622327
 0.07750654 0.07794751 0.07801194 0.07741272 0.07552144 0.07254174 0.06999996 0.06961559 0.07163607 0.07467544
 0.07715748 0.07845604 0.07875378 0.07846685 0.07795826 0.0774238 0.07695856 0.07681042 0.07731363 0.07840952
 0.07954132 0.08021314 0.08039539 0.08026864 0.07986872 0.07917025 0.07834785 0.07777131 0.07773589 0.07824388
 0.07905853 0.07991506 0.08060592 0.08093762 0.08080587 0.0803487 0.07986324 0.07953199 0.07935901 0.0793592
 0.07961994 0.08012794 0.08068701 0.08108506 0.08126438 0.0812903 0.08122699 0.08109197 0.08089767 0.08070432
 0.08062521 0.08074681 0.08102302 0.08130401 0.08151294 0.08172395 0.0820007 0.08223805 0.08227025 0.08209381
 0.08188289 0.08179787 0.08185321 0.08196564 0.08205141 0.08204061 0.08185803 0.08148855 0.08107822 0.08088486
 0.08107103 0.08158453 0.08224858 0.08288909 0.08336788 0.08361261 0.08367045 0.08365842 0.08362573 0.0835208
 0.08330905 0.08307569 0.08299194 0.08318211 0.08361258 0.08411244 0.08451124 0.0847415 0.08482805 0.08485021
 0.08491664 0.08508426 0.08527483 0.08534855 0.08528323 0.08521269 0.08526411 0.08540957 0.08550674 0.08546539
 0.08535197 0.08532165 0.08545531 0.08568869 0.0859056 0.0860672 0.0862273 0.08643554 0.08664483 0.08673194
 0.0866289 0.08641773 0.08625196 0.08619565 0.08620078 0.08623545 0.08634666 0.08656201 0.08679909 0.08693488
 0.08694454 0.08692251 0.08696124 0.08704188 0.0870634 0.0869616 0.08677536 0.08660363 0.08652289 0.08654563
 0.08662958 0.08670852 0.0867262 0.08666475 0.08655115 0.08643153 0.08633688 0.08628429 0.08630849 0.08645587
 0.08671282 0.0869559 0.08702226 0.08685535 0.08656756 0.0863401 0.08625998 0.08625993 0.08620869 0.08604077
 0.08579503 0.08555235 0.08536229 0.08522584 0.08512125 0.08503475 0.0849804 0.08499905 0.0851161 0.08527941
 0.0853609 0.08526023 0.08500685 0.08473243 0.08454934 0.08447926 0.08447754 0.08448725 0.08448341 0.08449472
 0.08456179 0.08465753 0.08469136 0.08461742 0.08449697 0.08443388 0.0844907 0.08466919 0.0849079 0.08508841
 0.08511344 0.0850073 0.08489509 0.08486968 0.08491842 0.084984 0.08504594 0.08512081 0.08521799 0.08533059
 0.08546227 0.08563745 0.08587338 0.08614703 0.08639752 0.08656891 0.08665992 0.08673564 0.08688252 0.08714046
 0.08747242 0.08779776 0.08805557 0.08824499 0.08841104 0.08859223 0.08878891 0.08899152 0.08922113 0.08951037
 0.08984965 0.09018734 0.09048779 0.09076159 0.09103542 0.09131727 0.09160225 0.09190075 0.09224735 0.09266715
 0.09312317 0.09351565 0.09376239 0.09388083 0.09397876 0.09417077 0.0945013 0.0949118 0.09526765 0.09546091
 0.09552135 0.09559593 0.09578933 0.09606009 0.09630985 0.09653609 0.09683422 0.09725574 0.09772253 0.09810238
 0.09834072 0.098498 0.09866905 0.09888086 0.09907365 0.09918331 0.09922935 0.09929562 0.0994305 0.09961165
 0.09982268 0.1001062 0.1004961 0.1009376 0.1013268 0.1016106 0.1018069 0.1019521 0.102066 0.1021521
 0.1022023 0.1022166 0.1022302 0.1022924 0.1024015 0.102495 0.1025304 0.1025426 0.1026014 0.1027415
 0.1029605 0.1032507 0.1035891 0.1039175 0.1041896 0.1044398 0.1047511 0.1051303 0.1054644 0.1056426
 0.1056807 0.1056781 0.105691 0.1057131 0.1057612 0.105899 0.1061613 0.1065067 0.1068688 0.1072199
 0.1075692 0.10792 0.108243 0.108485 0.1086049 0.1086116 0.1085713 0.1085732 0.1086835 0.1089167
 0.1092328 0.1095627 0.1098468 0.1100513 0.1101533 0.1101433 0.1100654 0.1100293 0.1101282 0.1103354
 0.1105106 0.1105172 0.1103126 0.1099292 0.1094083 0.1087801 0.1080924 0.107425 0.1068618 0.1064541
 0.1062208 0.1061844 0.1063869 0.1068446 0.1074924 0.1082015 0.1088548 0.109378 0.1096967 0.1097173
 0.1093946 0.1087951 0.1080606 0.1073196 0.1066427 0.1060433 0.1054874 0.1049329 0.1044103 0.1040658
 0.1040968 0.1046353 0.1056784 0.1070915 0.1086531 0.1101281 0.111359 0.1123224 0.1131014 0.1137964
 0.1144617 0.1151172 0.1157824 0.1164621 0.1171132 0.1176749 0.1181379 0.1185514 0.1189577 0.1193505
 0.119698 0.1199814 0.1202101 0.1204184 0.1206323 0.1208239 0.1209237 0.1208978 0.1207899 0.1206672
 0.1205469 0.1203904 0.1201448 0.1197831 0.1193394 0.1189334 0.118751 0.1189644 0.1196353 0.1206787
 0.1219267 0.1232336 0.1245121 0.1256831 0.126646 0.1273349 0.1277802 0.1280821 0.1283358 0.1285941
 0.1288763 0.1291805 0.1294919 0.1297959 0.1300892 0.1303846 0.1307051 0.1310604 0.1314207 0.1317316
 0.1319697 0.1321782 0.1324352 0.1327825 0.1331863 0.133571 0.1338969 0.1341935 0.1345014 0.134802
 0.1350396 0.1352048 0.1353566 0.1355633 0.1358534 0.1362139 0.1365971 0.1369323 0.1371721 0.1373378
 0.1374951 0.1376869 0.1379095 0.1381473 0.1383989 0.1386636 0.1389297 0.1391928 0.1394696 0.1397718
 0.1400702 0.1403086 0.140465 0.1405833 0.1407311 0.1409354 0.1411694 0.1413936 0.1416008 0.141823
 0.1420979 0.1424233 0.1427444 0.1429967 0.1431605 0.143271 0.1433818 0.1435268 0.1437131 0.1439313
 0.1441633 0.1443882 0.1445932 0.1447861 0.1449872 0.1452068 0.1454349 0.1456554 0.1458639 0.1460678
 0.1462744 0.1464835 0.1466941 0.1469181 0.147178 0.1474795 0.1477871 0.148045 0.1482269 0.148354
 0.1484656 0.148588 0.1487329 0.1489054 0.1491022 0.14931 0.1495153 0.1497141 0.1499096 0.1501061
 0.1503068 0.1505161 0.150736 0.1509616 0.1511839 0.1514002 0.151616 0.1518349 0.1520513 0.152256
 0.1524467 0.1526316 0.1528223 0.1530226 0.1532222 0.1534088 0.1535847 0.1537641 0.1539563 0.1541578
 0.154362 0.1545655 0.1547669 0.1549644 0.1551572 0.1553456 0.1555307 0.1557164 0.1559101 0.1561166
 0.1563316 0.1565436 0.1567443 0.1569347 0.1571217 0.1573098 0.1575019 0.1577027 0.1579155 0.1581363
 0.1583542 0.1585588 0.1587466 0.1589236 0.159102 0.1592909 0.1594896 0.159692 0.1598938 0.1600941
 0.1602931 0.1604915 0.1606904 0.1608933 0.161107 0.1613332 0.1615617 0.1617796 0.161986 0.1621901
 0.1623984 0.1626107 0.1628262 0.1630446 0.1632656 0.1634876 0.1637066 0.1639163 0.1641142 0.1643027
 0.1644838 0.1646597 0.1648352 0.1650136 0.165193 0.1653727 0.1655576 0.1657486 0.165939 0.166123
 0.1663021 0.1664826 0.1666722 0.1668742 0.1670838 0.1672944 0.1675062 0.1677219 0.1679367 0.1681434
 0.1683415 0.1685359 0.1687322 0.1689332 0.1691373 0.1693407 0.1695454 0.1697583 0.1699801 0.1702033
 0.1704199 0.1706253 0.170821 0.1710176 0.1712239 0.1714339 0.1716348 0.1718264 0.1720213 0.172231
 0.1724578 0.1726914 0.1729137 0.1731172 0.173315 0.1735224 0.1737415 0.1739677 0.1741954 0.1744155
 0.1746223 0.1748211 0.1750195 0.1752209 0.1754294 0.1756466 0.1758647 0.1760783 0.1762922 0.1765082
 0.1767221 0.1769383 0.17716 0.1773641 0.1774952 0.1774389 0.1769226 0.1754026 0.1720498 0.1659186
 0.1563248 0.1432761 0.12762 0.1107447 0.09407003 0.07868022 0.06521994 0.05397506 0.04500781 0.03824689
 0.03354895 0.03079336 0.0299773 0.03131559 0.03535414 0.04264748 0.05253398 0.06204968 0.06707898 0.06560212
 0.0596294 0.05337343 0.04974784 0.04895183 0.04972634 0.0509992 0.05243999 0.05425821 0.05679448 0.06013477
 0.06410624 0.06870119 0.07427381 0.08108652 0.08877958 0.09652837 0.1037539 0.1105695 0.1175023 0.1248563
 0.1323947 0.139575 0.1459801 0.1515259 0.1563812 0.1607797 0.1648865 0.1687774 0.1724855 0.1760029
 0.1792057 0.1818248 0.1835755 0.184371 0.1844245 0.184136 0.1838624 0.1837739 0.1838849 0.1841607
 0.1845763 0.1851151 0.185758 0.1864787 0.1872464 0.1880392 0.1888491 0.1896639 0.1904559 0.191198
 0.1918798 0.1925016 0.1930646 0.1935718 0.1940293 0.1944479 0.1948443 0.1952315 0.1956065 0.1959585
 0.1962882 0.196606 0.1969138 0.1972006 0.1974559 0.19768 0.1978814 0.1980703 0.1982555 0.198446
 0.1986506 0.198869 0.199091 0.1993079 0.1995213 0.1997344 0.1999457 0.2001532 0.2003562 0.2005509
 0.2007371 0.200925 0.2011244 0.2013287 0.2015242 0.2017088 0.2018909 0.2020737 0.2022544 0.2024345
 0.2026215 0.2028194 0.2030229 0.2032234 0.2034228 0.203636 0.2038715 0.2041144 0.2043414 0.2045464
 0.2047421 0.2049417 0.2051518 0.2053728 0.2055912 0.2057821 0.2059343 0.20607 0.2062286 0.2064302
 0.206659 0.2068813 0.2070797 0.207265 0.2074563 0.2076578 0.2078575 0.2080421 0.208215 0.2084046
 0.2086405 0.2089138 0.2091823 0.2094218 0.2096482 0.2098815 0.210121 0.2103601 0.2105908 0.2107885
 0.2109304 0.2110403 0.2111939 0.2114603 0.2118331 0.212225 0.2125444 0.212777 0.2129769 0.2131996
 0.2134677 0.2137571 0.2139764 0.2140227 0.2139313 0.2139135 0.2141645 0.2146673 0.2152381 0.2157209
 0.2160854 0.2163788 0.2166427 0.2168714 0.217019 0.2170509 0.2170147 0.2170569 0.2173224 0.2178068
 0.2183465 0.2187857 0.2191011 0.2193449 0.219553 0.2197368 0.2198526 0.219758 0.2193607 0.2188774
 0.2187727 0.2193122 0.220264 0.2211471 0.2217045 0.2220289 0.2222941 0.2225416 0.2227373 0.2228064
 0.2225166 0.2216092 0.2202964 0.2194089 0.2197077 0.2211132 0.2228406 0.2241858 0.2249708 0.2253724
 0.2256191 0.2258352 0.225942 0.225671 0.2248687 0.2238815 0.2234564 0.2240515 0.2253222 0.226489
 0.2271288 0.2273961 0.227606 0.2278824 0.2280751 0.2277199 0.2263032 0.2240176 0.2221413 0.2221401
 0.2242359 0.2271414 0.2293337 0.2303634 0.2307441 0.2308341 0.2303075 0.2287427 0.2262601 0.2234742
 0.221293 0.2207833 0.222467 0.2254456 0.2279117 0.22893 0.2292273 0.2299946 0.231465 0.2329271
 0.233647 0.2334356 0.2325183 0.2311345 0.2294253 0.2278042 0.2271771 0.2283017 0.2308698 0.2336157
 0.2354816 0.2364196 0.2368491 0.2364184 0.233745 0.2280752 0.2213733 0.2177825 0.2199649 0.2263174
 0.2326981 0.2365035 0.2380963 0.2388571 0.2393286 0.2390687 0.2369113 0.2316027 0.2237798 0.2172148
 0.216263 0.2215516 0.2292705 0.2347348 0.2355714 0.2319571 0.2257793 0.2200841 0.2178324 0.2201034
 0.2256238 0.2320269 0.2372702 0.2401995 0.2405458 0.2388164 0.2362591 0.2345598 0.2346186 0.235219
 0.2339534 0.2302591 0.2263456 0.2239494 0.221654 0.2175224 0.2133636 0.2135416 0.2193015 0.2266776
 0.2309443 0.2314058 0.2305401 0.2294878 0.2260993 0.2180269 0.2071682 0.1997548 0.2009061 0.2093133
 0.2184078 0.2227945 0.2225409 0.2212479 0.2212465 0.2212224 0.2180696 0.2109472 0.2033466 0.200164
 0.2024911 0.2066351 0.2084885 0.2068056 0.2017674 0.1936627 0.1852483 0.1826084 0.1900294 0.2047519
 0.2191193 0.22688 0.2254862 0.2147318 0.1976333 0.1822646 0.1778333 0.1864332 0.2004911 0.2097246
 0.2092957 0.2006812 0.1872929 0.1721506 0.1592683 0.1540839 0.1602146 0.1757872 0.1934451 0.2039776
 0.2014106 0.1876889 0.1731419 0.1690531 0.1773528 0.1892511 0.1950663 0.1930071 0.1878018 0.1846367
 0.1861742 0.192048 0.1992477 0.2049589 0.2088078 0.2096722 0.2026649 0.1850037 0.1637676 0.1512279
 0.1521117 0.1611941 0.173106 0.1871507 0.2009013 0.2068979 0.2010558 0.1903963 0.187063 0.1954297
 0.2083617 0.2159459 0.2153036 0.2111138 0.2084007 0.2071903 0.2050029 0.2026332 0.2043646 0.2120539
 0.2218874 0.2286389 0.2311057 0.231637 0.232146 0.2326576 0.2326528 0.2319418 0.2305906 0.2290556
 0.2280396 0.2276979 0.2274954 0.2270189 0.2259453 0.2228028 0.2152902 0.2035067 0.192005 0.1861843
 0.1865691 0.1891688 0.1914062 0.1936288 0.1935999 0.1849335 0.1655301 0.144514 0.1356008 0.1438447
 0.1618706 0.1782816 0.1863944 0.1848169 0.1740398 0.1566344 0.1399702 0.1339072 0.1427508 0.1611192
 0.1796959 0.1932584 0.2012601 0.2033697 0.1984917 0.1879459 0.1767389 0.1706951 0.1729099 0.1823943
 0.1944048 0.2016591 0.1978992 0.1841186 0.1713041 0.1723236 0.1884216 0.2071382 0.2163154 0.2164068
 0.2155216 0.2168196 0.2169567 0.2149513 0.2157247 0.2233575 0.2350918 0.2440541 0.2452939 0.2377366
 0.2235363 0.2085629 0.2008756 0.2042335 0.2137596 0.2211846 0.2228132 0.2190543 0.2095672 0.1953007
 0.1836384 0.1839622 0.1967975 0.2125883 0.2225531 0.2266819 0.2297563 0.2331035 0.2329788 0.2262371
 0.2155924 0.2079496 0.2075847 0.2124106 0.2175215 0.2203706 0.2208051 0.2181327 0.2115451 0.2034554
 0.1995412 0.2038089 0.2144177 0.2253689 0.2318509 0.2332465 0.231733 0.2294475 0.2270472 0.2238876
 0.2194601 0.2152437 0.2144065 0.2184278 0.2247439 0.2293822 0.2315014 0.2336674 0.2378218 0.2426149
 0.2450575 0.2437901 0.2403758 0.2379266 0.2385949 0.2418662 0.2449514 0.2451702 0.2425021 0.2398494
 0.240371 0.2444751 0.2497758 0.2537991 0.2559903 0.2571963 0.2582159 0.2591031 0.259124 0.2573107
 0.253832 0.2507975 0.2507604 0.2541813 0.2589903 0.2627333 0.2645588 0.2650668 0.2649472 0.2642655
 0.2628679 0.2610304 0.2594774 0.2588096 0.2590727 0.2598971 0.2608835 0.2617775 0.2624534 0.2629011
 0.2631935 0.2633948 0.2635264 0.2636184 0.2637015 0.2637342 0.2636439 0.2634852 0.2634542 0.2636756
 0.2640412 0.2643248 0.264385 0.2641753 0.2636294 0.2626795 0.2613857 0.2599223 0.2583885 0.2567393
 0.2550144 0.2536032 0.2531396 0.254025 0.2560475 0.2585067 0.2606979 0.2622752 0.2632447 0.2637653
 0.2640041 0.2640893 0.2640942 0.264035 0.2638971 0.263672 0.263371 0.2630155 0.2626296 0.262242
 0.261883 0.2615668 0.2612763 0.2609732 0.2606219 0.2602051 0.2597282 0.2592178 0.2586984 0.2581567
 0.2575368 0.256785 0.2558983 0.254931 0.2539661 0.2530717 0.2522629 0.2514975 0.2507172 0.2498894
 0.2489941 0.247995 0.2468743 0.2457054 0.244641 0.2437933 0.2431362 0.2425406 0.2418832 0.2411055
 0.240206 0.2392173 0.2381816 0.237124 0.2360434 0.23493 0.2337711 0.2325404 0.2312075 0.229766
 0.2282346 0.2266375 0.225002 0.2233567 0.2216954 0.2199415 0.2179655 0.2156341 0.2128382 0.2094994
 0.2055908 0.201167 0.1963729 0.1914144 0.1865021 0.1818073 0.1774564 0.1735508 0.1701798 0.1674191
 0.1653252 0.1639291 0.1632378 0.1632484 0.1639571 0.1653405 0.1673285 0.1698022 0.1726125 0.1755948
 0.1785769 0.1814002 0.1839703 0.1862999 0.1884822 0.1905914 0.1926107 0.1944664 0.1961109 0.197544
 0.1987744 0.1997996 0.2006306 0.2013096 0.2018895 0.2024009 0.2028454 0.2032194 0.2035325 0.2037989
 0.2040244 0.2042139 0.2043816 0.2045472 0.2047281 0.2049404 0.205197 0.2055056 0.2058744 0.2063108
 0.2068056 0.2073352 0.2078884 0.2084771 0.2091127 0.2097938 0.2105281 0.2113526 0.212313 0.2134267
 0.2146717 0.2160053 0.2173768 0.2187149 0.2199238 0.2209164 0.2216535 0.2221432 0.2224141 0.2225006
 0.2224377 0.2222514 0.221958 0.2215761 0.221127 0.2206205 0.2200535 0.2194249 0.218743 0.2180218
 0.2172808 0.2165456 0.2158372 0.2151613 0.2145102 0.2138763 0.2132592 0.2126603 0.2120757 0.2114986
 0.2109278 0.2103652 0.2098061 0.20924 0.2086612 0.2080626 0.2074186 0.2066894 0.2058523 0.2049166
 0.2038993 0.2027997 0.2016055 0.2003153 0.1989426 0.1975018 0.1959986 0.1944291 0.1927843 0.1910546
 0.1892311 0.1873085 0.1853033 0.1832733 0.1813039 0.1794623 0.1777683 0.1762025 0.1747323 0.1733325
 0.1719915 0.170702 0.169454 0.1682487 0.1671074 0.1660498 0.165068 0.1641398 0.1632597 0.1624454
 0.1617173 0.1610803 0.1605237 0.1600373 0.1596229 0.1592846 0.1590221 0.1588452 0.1587738 0.1587987
 0.1588594 0.1588816 0.1588298 0.1587181 0.1585892 0.1584851 0.1584238 0.1583958 0.1583775 0.158329
 0.1581842 0.1578587 0.1572707 0.1563604 0.1551168 0.1535902 0.1518645 0.1500296 0.1481928 0.1464807
 0.1449969 0.1437941 0.1428854 0.1422376 0.141765 0.1413839 0.1410836 0.1409222 0.1409565 0.1411668
 0.1414267 0.1415751 0.1415682 0.1415393 0.1416797 0.1420881 0.1427345 0.1435051 0.1442667 0.144933
 0.1454816 0.1459067 0.1461937 0.1463444 0.1463785 0.1463093 0.1461536 0.1459408 0.1456827 0.1453687
 0.1449982 0.1445749 0.1440846 0.1435171 0.142881 0.1421761 0.1413934 0.1405321 0.1395641 0.1384357
 0.137192 0.1360564 0.1353139 0.1351396 0.1355301 0.1363274 0.1373197 0.1383735 0.1394082 0.1402345
 0.1406122 0.1406188 0.1408249 0.1418856 0.1439222 0.1463877 0.1485492 0.1500084 0.1507412 0.150831
 0.1503503 0.1493865 0.1479706 0.1460401 0.1435952 0.140782 0.1377596 0.1346568 0.1316693 0.129003
 0.1267418 0.1248903 0.1234511 0.1224741 0.1220926 0.1219265 0.120062 0.1140532 0.1046929 0.09768231
 0.09882814 0.1075231 0.1171842 0.1222031 0.1223966 0.1207217 0.1192338 0.1182535 0.1176898 0.1177016
 0.1184178 0.119669 0.1210352 0.1221102 0.122762 0.1230821 0.1230577 0.1223007 0.1200117 0.115295
 0.107875 0.09866628 0.08944154 0.08180416 0.07647148 0.07330702 0.07169229 0.07088345 0.0703554 0.07004187
 0.07024638 0.07127837 0.07318833 0.07583036 0.07902784 0.08253248 0.08591519 0.08874075 0.0908968 0.09259337
 0.09401082 0.09508878 0.09567627 0.09574272 0.09539156 0.09476705 0.09400346 0.09319323 0.09232457 0.09128852
 0.09005098 0.08881565 0.08790432 0.08745392 0.0873289 0.08732709 0.0873486 0.0873655 0.08735804 0.08731367
 0.08723676 0.08717524 0.0872476 0.08756308 0.08808127 0.08861261 0.08897699 0.08913647 0.08918107 0.08917248
 0.08898915 0.08843604 0.08758335 0.08680546 0.08629637 0.08573617 0.08471287 0.0833581 0.082283 0.08191915
 0.08213983 0.08250509 0.08267149 0.08254927 0.08227906 0.08216952 0.08249335 0.08316469 0.0837037 0.08368807
</values></Ydata></ScRf><Data_Parameters_AB><parameter name="DPF">1</parameter><parameter name="NPT">3497</parameter><parameter name="FXV">3996</parameter><parameter name="LXV">500</parameter><parameter name="CSF">1</parameter><parameter name="MXY">0.0891289114952087</parameter><parameter name="MNY">-0.105840004980564</parameter><parameter name="DAT">02/06/2022</parameter><parameter name="TIM">12:31:00.898 (GMT+2)</parameter><parameter name="DXU">WN</parameter></Data_Parameters_AB><AB__Qtest><MainReport name="Quality Test Report"><Header><Line><Legend>Test result ok/not ok [1/0]: </Legend><Value>0</Value></Line><Line><Legend>Method file: </Legend><Value>C:\Users\Public\Documents\Bruker\OPUS_8.2.28\QT\IRBT_v3_default.QT</Value></Line></Header><Matrix><Line><Legend></Legend><Legend>min</Legend><Legend>max</Legend><Legend>measured</Legend></Line><Line><Value>Absorption (X-Range 1):</Value><Value>0.400000</Value><Value>2.000000</Value><Value>0.153252</Value></Line><Line><Value>Noise (X-Range 4):</Value><Value></Value><Value>0.000300</Value><Value>0.000049</Value></Line><Line><Value>Signal/Noise (X-Range 2):</Value><Value>200.000000</Value><Value></Value><Value>50.262303</Value></Line><Line><Value>Signal/Noise (X-Range 3):</Value><Value>40.000000</Value><Value></Value><Value>25.768303</Value></Line><Line><Value>Water vapour (X-Range 5):</Value><Value></Value><Value>0.000300</Value><Value>0.000077</Value></Line><Line><Value>Signal/Water (X-Range 2):</Value><Value>100.000000</Value><Value></Value><Value>32.096940</Value></Line><Line><Value>Signal/Water (X-Range 3):</Value><Value>20.000000</Value><Value></Value><Value>16.455348</Value></Line><Line><Value>Fringes (X-Range 6):</Value><Value></Value><Value>0.000100</Value><Value>0.000057</Value></Line></Matrix></MainReport></AB__Qtest><Data_Parameters_ScSm><parameter name="DPF">1</parameter><parameter name="NPT">1814</parameter><parameter name="FXV">3996.33169228125</parameter><parameter name="LXV">499.541461535156</parameter><parameter name="CSF">1</parameter><parameter name="MXY">0.299084305763245</parameter><parameter name="MNY">0.038249496370554</parameter><parameter name="DAT">02/06/2022</parameter><parameter name="TIM">12:31:00.898 (GMT+2)</parameter><parameter name="DXU">WN</parameter></Data_Parameters_ScSm><Data_Parameters_ScRf><parameter name="DPF">1</parameter><parameter name="NPT">1820</parameter><parameter name="FXV">4004.04661832813</parameter><parameter name="LXV">495.683998511719</parameter><parameter name="CSF">1</parameter><parameter name="MXY">0.265066802501678</parameter><parameter name="MNY">0.0299772992730141</parameter><parameter name="DAT">02/06/2022</parameter><parameter name="TIM">12:30:34.168 (GMT+2)</parameter><parameter name="DXU">WN</parameter></Data_Parameters_ScRf><Optic_Parameters_Rf><parameter name="APR">0</parameter><parameter name="APT">Open</parameter><parameter name="BMS">KBr</parameter><parameter name="DTC">RT-DLaTGS_IR-Biotyper [Microplate reader]</parameter><parameter name="HPF">0</parameter><parameter name="LPF">10.0</parameter><parameter name="LPV">4000</parameter><parameter name="PGR">0</parameter><parameter name="RCH">Module port</parameter><parameter name="RDX">0</parameter><parameter name="SRC">MIR</parameter><parameter name="VEL">10.0</parameter><parameter name="SON">Off</parameter></Optic_Parameters_Rf><Acquisition_Parameters_Rf><parameter name="ADT">1</parameter><parameter name="AQM">DD</parameter><parameter name="CFE">0</parameter><parameter name="COR">0</parameter><parameter name="DEL">0</parameter><parameter name="DLY">0</parameter><parameter name="HFW">8000</parameter><parameter name="LFW">0</parameter><parameter name="NSR">32</parameter><parameter name="PLF">AB</parameter><parameter name="RES">6</parameter><parameter name="RGN">-1</parameter><parameter name="STR">0</parameter><parameter name="TCL">MakeCompatibleScalar (0, {WSV=1.000000, ARV=0});</parameter><parameter name="TDL">37</parameter><parameter name="RPO">0</parameter></Acquisition_Parameters_Rf><FT_-_Parameters_Rf><parameter name="APF">B3</parameter><parameter name="HFQ">500</parameter><parameter name="LFQ">4000</parameter><parameter name="NLI">0</parameter><parameter name="PHR">24</parameter><parameter name="PHZ">ML</parameter><parameter name="SPZ">NO</parameter><parameter name="ZFF">1</parameter></FT_-_Parameters_Rf><Optic_Parameters_><parameter name="APR">0</parameter><parameter name="APT">Open</parameter><parameter name="BMS">KBr</parameter><parameter name="CHN">Module port</parameter><parameter name="DTC">RT-DLaTGS_IR-Biotyper [Microplate reader]</parameter><parameter name="HPF">0</parameter><parameter name="LPF">10.0</parameter><parameter name="LPV">4000</parameter><parameter name="PGN">0</parameter><parameter name="RDX">0</parameter><parameter name="SRC">MIR</parameter><parameter name="VEL">10.0</parameter><parameter name="SON">Off</parameter></Optic_Parameters_><FT_-_Parameters_><parameter name="APF">B3</parameter><parameter name="HFQ">500</parameter><parameter name="LFQ">4000</parameter><parameter name="NLI">0</parameter><parameter name="PHR">24</parameter><parameter name="PHZ">ML</parameter><parameter name="SPZ">NO</parameter><parameter name="ZFF">1</parameter></FT_-_Parameters_><Acquisition_Parameters_><parameter name="ADT">1</parameter><parameter name="AQM">DD</parameter><parameter name="CFE">0</parameter><parameter name="COR">0</parameter><parameter name="DEL">0</parameter><parameter name="DLY">0</parameter><parameter name="HFW">8000</parameter><parameter name="LFW">0</parameter><parameter name="NSS">32</parameter><parameter name="PLF">AB</parameter><parameter name="RES">6</parameter><parameter name="SOT">0</parameter><parameter name="TCL">MakeCompatibleScalar (0, {WSV=1.000000, ARV=0});</parameter><parameter name="TDL">37</parameter><parameter name="SPO">0</parameter><parameter name="SGN">-1</parameter></Acquisition_Parameters_><Instrument_Parameters_Rf><parameter name="HFL">15800.168544</parameter><parameter name="LFL">0</parameter><parameter name="LWN">15800.168544</parameter><parameter name="ABP">32197</parameter><parameter name="SSP">1</parameter><parameter name="ARG">2</parameter><parameter name="ASG">2</parameter><parameter name="ASS">32</parameter><parameter name="GFW">16</parameter><parameter name="GBW">16</parameter><parameter name="BFW">0</parameter><parameter name="BBW">0</parameter><parameter name="PKA">7266</parameter><parameter name="PKL">4996</parameter><parameter name="PRA">7452</parameter><parameter name="PRL">5001</parameter><parameter name="P2A">1</parameter><parameter name="P2L">1</parameter><parameter name="P2R">1</parameter><parameter name="P2K">1</parameter><parameter name="DAQ">0</parameter><parameter name="AG2">1</parameter><parameter name="SSM">1</parameter><parameter name="RSN">26189</parameter><parameter name="CRR">0</parameter><parameter name="SRT">1654173034.169</parameter><parameter name="DUR">19.6379852294922</parameter><parameter name="TSC">28.9</parameter><parameter name="MVD">0.192373603582382</parameter><parameter name="AN1">0.225796151275406</parameter><parameter name="AN2">0</parameter><parameter name="VSN">2.485 Apr  4 2017</parameter><parameter name="SRN">0085</parameter><parameter name="CAM">0</parameter><parameter name="INS">IR-Biotyper</parameter><parameter name="FOC">69</parameter><parameter name="RDY">1</parameter><parameter name="ARS">32</parameter></Instrument_Parameters_Rf><Sample_Parameters_><parameter name="BLD"></parameter><parameter name="CNM">Admin</parameter><parameter name="CPY"></parameter><parameter name="DPM"></parameter><parameter name="EXP">IRBT_v3_32Scans.XPM</parameter><parameter name="LCT"></parameter><parameter name="SFM">Microplate, HTS-XT</parameter><parameter name="SNM">220602-1054_AGS29F (D_2_2)_H11_138056d9-4891-463f-a8c5-f49bd23a350d.0</parameter><parameter name="XPP">C:\Users\Public\Documents\Bruker\OPUS_8.2.28\XPM</parameter><parameter name="IST">OK</parameter><parameter name="CPG">1252</parameter><parameter name="UID">bba3d427-901c-45df-9849-55645e33c9ae</parameter></Sample_Parameters_><Instrument_Parameters_><parameter name="HFL">15800.168544</parameter><parameter name="LFL">0</parameter><parameter name="LWN">15800.168544</parameter><parameter name="ABP">32197</parameter><parameter name="SSP">1</parameter><parameter name="ASG">2</parameter><parameter name="ARG">2</parameter><parameter name="ASS">32</parameter><parameter name="GFW">16</parameter><parameter name="GBW">16</parameter><parameter name="BFW">0</parameter><parameter name="BBW">0</parameter><parameter name="PKA">8083</parameter><parameter name="PKL">4988</parameter><parameter name="PRA">8312</parameter><parameter name="PRL">4993</parameter><parameter name="P2A">1</parameter><parameter name="P2L">1</parameter><parameter name="P2R">1</parameter><parameter name="P2K">1</parameter><parameter name="DAQ">0</parameter><parameter name="AG2">1</parameter><parameter name="SSM">1</parameter><parameter name="RSN">13720</parameter><parameter name="CRR">0</parameter><parameter name="SRT">1654173060.899</parameter><parameter name="DUR">19.6379852294922</parameter><parameter name="TSC">28.9</parameter><parameter name="MVD">0.373830527067184</parameter><parameter name="AN1">0.225822241940796</parameter><parameter name="AN2">0</parameter><parameter name="VSN">2.485 Apr  4 2017</parameter><parameter name="SRN">0085</parameter><parameter name="CAM">0</parameter><parameter name="INS">IR-Biotyper</parameter><parameter name="FOC">69</parameter><parameter name="RDY">1</parameter></Instrument_Parameters_><History/></OPUSDataFile>
