<?xml version="1.0" encoding="UTF-8" ?>
<OPUSDataFile><AB><Ydata ylabel="Absorbance Units"><values byteorder="INTEL" format="FLOAT32" numvalues="3497"> -0.08801161 -0.08799926 -0.08798727 -0.08797538 -0.0879675 -0.08796383 -0.08796717 -0.08797766 -0.08799779 -0.08802728
 -0.0880665 -0.08811381 -0.08816442 -0.08821543 -0.08825733 -0.08828938 -0.08830454 -0.08830793 -0.08830151 -0.08829294
 -0.08828974 -0.08829326 -0.08830781 -0.08832665 -0.08834826 -0.0883676 -0.08838239 -0.08839423 -0.08840282 -0.08841195
 -0.08842201 -0.08843487 -0.08845066 -0.08847102 -0.08849599 -0.08852685 -0.08856312 -0.08860289 -0.08864521 -0.08868596
 -0.08872409 -0.08875567 -0.08877873 -0.08878861 -0.08878334 -0.08875703 -0.08871466 -0.08865485 -0.08859334 -0.08853729
 -0.08850078 -0.08849361 -0.0885094 -0.08855125 -0.08859526 -0.08863746 -0.08866543 -0.0886761 -0.08868548 -0.08869431
 -0.088727 -0.08878321 -0.08886559 -0.08897009 -0.08907344 -0.08917286 -0.08924472 -0.08929194 -0.08930849 -0.08930125
 -0.08927726 -0.08924606 -0.0892208 -0.0892088 -0.08922326 -0.08925648 -0.08931267 -0.08936565 -0.08940677 -0.08941734
 -0.08938649 -0.08933086 -0.08924862 -0.08917795 -0.08912249 -0.08910782 -0.08913563 -0.08920658 -0.08931953 -0.08945976
 -0.08962443 -0.08979081 -0.08995353 -0.09008107 -0.0901702 -0.09019329 -0.0901606 -0.09007317 -0.08995116 -0.08981784
 -0.08968841 -0.08958509 -0.08950616 -0.08946014 -0.08942847 -0.08940538 -0.08937984 -0.08934353 -0.08931644 -0.08929894
 -0.08932157 -0.08938926 -0.08949752 -0.08964658 -0.08978897 -0.08992279 -0.09000922 -0.09005313 -0.09006429 -0.09005096
 -0.09005039 -0.09006307 -0.09011245 -0.09018613 -0.09027505 -0.09036515 -0.09043252 -0.09048101 -0.09050339 -0.09051388
 -0.09052083 -0.09052502 -0.09052996 -0.09052788 -0.09051442 -0.09050052 -0.09048405 -0.09050041 -0.09055329 -0.09066783
 -0.09084637 -0.09102538 -0.09119758 -0.09123027 -0.0911351 -0.09091684 -0.09060316 -0.09030469 -0.09002787 -0.08984551
 -0.08974745 -0.08975409 -0.08983957 -0.08998699 -0.09015886 -0.09031852 -0.09044465 -0.09050845 -0.09052879 -0.09050306
 -0.09046479 -0.09042472 -0.09039056 -0.09036669 -0.09034235 -0.0903161 -0.09028932 -0.09026184 -0.09025303 -0.09026338
 -0.09030506 -0.09037487 -0.09045907 -0.09055237 -0.09062612 -0.09068055 -0.09070069 -0.09069197 -0.09065717 -0.09060052
 -0.0905262 -0.09044276 -0.09035562 -0.09028038 -0.09022721 -0.0902062 -0.09022677 -0.09027923 -0.09036615 -0.09046008
 -0.09055711 -0.09063528 -0.09069113 -0.09072171 -0.09072659 -0.09070905 -0.09066921 -0.09060878 -0.09052864 -0.09043469
 -0.09032937 -0.09022472 -0.09012394 -0.09004126 -0.08997807 -0.08994521 -0.08993677 -0.08995287 -0.08997884 -0.09000267
 -0.09001371 -0.08999889 -0.08996724 -0.08991676 -0.08986765 -0.08982613 -0.0897992 -0.08979046 -0.08979136 -0.08980118
 -0.08981591 -0.08983517 -0.08986546 -0.08990691 -0.08996297 -0.09003162 -0.09010129 -0.09016919 -0.09021655 -0.09024615
 -0.09025338 -0.09024727 -0.0902418 -0.09024289 -0.09026592 -0.0903055 -0.09036332 -0.09043013 -0.09049799 -0.09057232
 -0.09065143 -0.0907499 -0.09087452 -0.09101804 -0.09118395 -0.09133703 -0.09147407 -0.09156816 -0.09161741 -0.09160581
 -0.09153269 -0.09138145 -0.09115745 -0.09088561 -0.09057969 -0.09030768 -0.09007819 -0.08995235 -0.08992013 -0.09000297
 -0.09015756 -0.09034242 -0.09051414 -0.09060942 -0.09064557 -0.0906093 -0.0905444 -0.09046859 -0.09039886 -0.09034691
 -0.09029935 -0.09025649 -0.09019882 -0.09012299 -0.09003059 -0.08992109 -0.08981821 -0.08972348 -0.08966558 -0.0896446
 -0.0896787 -0.08976046 -0.08987556 -0.09000472 -0.09008656 -0.09011678 -0.09004754 -0.08991489 -0.08974445 -0.08956748
 -0.08942746 -0.08931583 -0.08924502 -0.08918217 -0.08911533 -0.08902699 -0.08890543 -0.08876731 -0.08861247 -0.08846541
 -0.08832958 -0.0882128 -0.08811607 -0.08803048 -0.08795525 -0.08787552 -0.08779142 -0.08769622 -0.0875923 -0.08748561
 -0.08737856 -0.0872801 -0.08719225 -0.08712295 -0.0870725 -0.08704676 -0.0870382 -0.08704589 -0.08705162 -0.08704532
 -0.08701093 -0.0869382 -0.08682441 -0.08666682 -0.08646584 -0.08622058 -0.08593547 -0.08560987 -0.08525894 -0.0848835
 -0.08449952 -0.08410797 -0.08372484 -0.08335235 -0.08301504 -0.08271365 -0.08246769 -0.08226933 -0.08210889 -0.08197588
 -0.0818432 -0.08171372 -0.08157993 -0.08144737 -0.08132704 -0.08119443 -0.08104269 -0.08083494 -0.08054435 -0.08019117
 -0.07976966 -0.07933316 -0.07889191 -0.07847352 -0.07808366 -0.07772245 -0.07739053 -0.07707543 -0.07677668 -0.07648598
 -0.07620416 -0.07593533 -0.07567795 -0.07543174 -0.07518599 -0.07491129 -0.07459939 -0.07421217 -0.07377166 -0.07328684
 -0.07278974 -0.07231575 -0.07187333 -0.07148089 -0.07112701 -0.07081434 -0.07051858 -0.07023428 -0.0699397 -0.06962849
 -0.06929801 -0.068947 -0.06857863 -0.06819329 -0.06778294 -0.06734738 -0.06688179 -0.06638866 -0.06588509 -0.06537408
 -0.06487824 -0.06439697 -0.06393964 -0.06350572 -0.06309884 -0.06271766 -0.06236491 -0.06203012 -0.06170693 -0.06138061
 -0.06103842 -0.06067819 -0.06029538 -0.0598938 -0.05947616 -0.0590324 -0.05856086 -0.0580537 -0.05750645 -0.05695115
 -0.05638895 -0.05587265 -0.05540369 -0.05500211 -0.05466381 -0.05436735 -0.05410581 -0.05383794 -0.05356021 -0.05323855
 -0.05288049 -0.05248133 -0.05205728 -0.05162795 -0.0512047 -0.05080884 -0.05043227 -0.05008175 -0.04972756 -0.04935868
 -0.04895314 -0.04849648 -0.04800731 -0.04748353 -0.04696519 -0.04645748 -0.04598188 -0.04554104 -0.04512322 -0.04472727
 -0.04432686 -0.04392128 -0.04349355 -0.04304418 -0.04256557 -0.04205996 -0.04152641 -0.04097466 -0.04042053 -0.03987794
 -0.03937509 -0.03891106 -0.03849964 -0.038121 -0.03776655 -0.03742097 -0.03707287 -0.0367253 -0.03637626 -0.03603391
 -0.03570084 -0.03537438 -0.03505568 -0.03473007 -0.03439683 -0.03403721 -0.03365064 -0.03322867 -0.03277383 -0.03230207
 -0.03181868 -0.03135736 -0.03091802 -0.03052159 -0.03015629 -0.02981041 -0.02947018 -0.02910784 -0.02872809 -0.02831973
 -0.02790859 -0.02750856 -0.02713659 -0.02681081 -0.02650883 -0.02623241 -0.02593725 -0.02561282 -0.02524242 -0.02481935
 -0.02437074 -0.02389748 -0.02343912 -0.02299705 -0.02258955 -0.02221482 -0.02186569 -0.02153999 -0.02122353 -0.02091718
 -0.02061632 -0.02032232 -0.02003792 -0.01975819 -0.01947909 -0.0191917 -0.0188842 -0.01855708 -0.01820409 -0.01783876
 -0.01746498 -0.01709545 -0.01673565 -0.0163887 -0.01605644 -0.01573761 -0.01543283 -0.01513562 -0.01484597 -0.0145475
 -0.01423942 -0.01390617 -0.01354922 -0.01317322 -0.01278342 -0.01240619 -0.01204609 -0.01173254 -0.01146127 -0.01124188
 -0.01105785 -0.01089182 -0.01072691 -0.01053681 -0.01032497 -0.01008141 -0.009828651 -0.009575272 -0.009334411 -0.00911529
 -0.008907021 -0.008710115 -0.008506604 -0.008293538 -0.00806563 -0.00782178 -0.007571279 -0.007314689 -0.007065451 -0.006822946
 -0.006588699 -0.006358846 -0.006115451 -0.005856553 -0.005563569 -0.0052449 -0.00490632 -0.004561785 -0.004234962 -0.003929955
 -0.003661659 -0.003422157 -0.003210155 -0.003019863 -0.002847025 -0.002693664 -0.002560597 -0.002445028 -0.002348535 -0.002255744
 -0.002165422 -0.002060745 -0.001940075 -0.001797968 -0.001634328 -0.001453022 -0.001254192 -0.00104036 -0.0008115528 -0.0005677289
 -0.0003118273 -5.091963E-05 0.0002082723 0.0004479942 0.0006656089 0.0008457694 0.00100065 0.001132903 0.001265115 0.001415491
 0.001591018 0.001806499 0.002033862 0.002270952 0.002477102 0.002639874 0.002755303 0.002816988 0.002868889 0.002913664
 0.002992883 0.003107514 0.003246156 0.003404321 0.003533499 0.003633599 0.003675311 0.003669227 0.003630517 0.003572902
 0.003533457 0.003516 0.003545551 0.003609731 0.003707721 0.003820304 0.003931723 0.004037821 0.004127471 0.00422267
 0.004326948 0.00446384 0.004643644 0.004851547 0.005091283 0.005306765 0.005494038 0.005605718 0.005640436 0.005607127
 0.005510692 0.005403171 0.005286048 0.005195953 0.005125897 0.005071533 0.005030288 0.004990721 0.004963353 0.004959738
 0.004985329 0.005056643 0.005153788 0.005271632 0.005381421 0.005464315 0.005518399 0.005533806 0.005539903 0.005540399
 0.005563867 0.005617023 0.005696604 0.005804358 0.005905269 0.005997469 0.00604191 0.006039225 0.005978601 0.005866486
 0.005728079 0.005571427 0.005435393 0.005322483 0.005258576 0.005237614 0.00526473 0.005324838 0.005407402 0.005491938
 0.005560871 0.005602016 0.005601394 0.005569208 0.005502309 0.005427816 0.005349902 0.005294596 0.00526585 0.00528135
 0.005342833 0.005463114 0.005642676 0.00588223 0.006178487 0.006501566 0.006842626 0.007140997 0.007390399 0.007533757
 0.007582569 0.007525818 0.007396989 0.007237639 0.007082162 0.00698671 0.006952939 0.00700907 0.007113516 0.007259252
 0.007389465 0.007482819 0.007508333 0.00745069 0.007324522 0.007126372 0.006902782 0.006657029 0.006429732 0.006222695
 0.006044242 0.005893071 0.005757412 0.005637954 0.005531615 0.005441879 0.005379874 0.00534478 0.005343927 0.005365662
 0.005400088 0.005425093 0.005416555 0.005351755 0.005204343 0.004971551 0.004637519 0.004236387 0.003769764 0.003294787
 0.002823713 0.00239921 0.002031384 0.00172415 0.001480116 0.001273067 0.001101587 0.0009317366 0.0007629599 0.0005758772
 0.0003744698 0.0001687081 -3.564528E-05 -0.0002113064 -0.0003628722 -0.0004818573 -0.0005880717 -0.0007076617 -0.0008561727 -0.001066481
 -0.001324652 -0.001639056 -0.001966644 -0.002290989 -0.002570801 -0.002784405 -0.002927608 -0.002988402 -0.003013439 -0.003003443
 -0.003033048 -0.00310903 -0.00328103 -0.003551248 -0.003903821 -0.004333339 -0.004774419 -0.005222723 -0.005619136 -0.005968142
 -0.006251793 -0.006480126 -0.006665791 -0.006818097 -0.006955729 -0.007086883 -0.007226627 -0.007380876 -0.007560586 -0.007761074
 -0.007985849 -0.008217692 -0.008451891 -0.008674015 -0.008877619 -0.009068265 -0.009244259 -0.009426028 -0.009615453 -0.009823647
 -0.01005113 -0.01029029 -0.01054029 -0.01078898 -0.01103645 -0.01127786 -0.01151229 -0.01173515 -0.01194326 -0.01212591
 -0.0122845 -0.01241256 -0.01252363 -0.01262715 -0.01274213 -0.01288713 -0.01306842 -0.01329826 -0.01356046 -0.01385436
 -0.01415567 -0.01445783 -0.01474986 -0.01502837 -0.0152957 -0.01555193 -0.01579682 -0.01603032 -0.01624607 -0.01644458
 -0.01662871 -0.01680166 -0.01698254 -0.01717416 -0.01739766 -0.01765023 -0.01793794 -0.01825178 -0.01858172 -0.01891668
 -0.01924138 -0.01954723 -0.01982378 -0.02006448 -0.02026428 -0.02041623 -0.02051535 -0.02056406 -0.02055665 -0.02052733
 -0.0204759 -0.02046637 -0.02050451 -0.02063799 -0.02086936 -0.02118446 -0.02157823 -0.02198488 -0.02239928 -0.02275636
 -0.02306034 -0.02328727 -0.023453 -0.02357887 -0.02368516 -0.02381533 -0.02397605 -0.02419802 -0.02445948 -0.0247584
 -0.02505955 -0.02534094 -0.02559196 -0.02579875 -0.02598407 -0.0261512 -0.02631741 -0.02648954 -0.02664697 -0.02678974
 -0.02687866 -0.02691164 -0.0268786 -0.02678338 -0.0266695 -0.02654572 -0.02648658 -0.02649384 -0.02661945 -0.02684583
 -0.02716341 -0.02754191 -0.0279268 -0.0283029 -0.02862608 -0.02891189 -0.02915623 -0.02938216 -0.02960501 -0.02982375
 -0.03004376 -0.03024956 -0.03043592 -0.03060572 -0.03075721 -0.03090719 -0.03105824 -0.03120516 -0.0313478 -0.03145663
 -0.03153145 -0.03155986 -0.03154749 -0.03152124 -0.03148672 -0.03148048 -0.03149849 -0.03155122 -0.03162817 -0.03171577
 -0.03180939 -0.0318952 -0.03198235 -0.03207016 -0.03217817 -0.03231635 -0.03249893 -0.03273751 -0.03302047 -0.03335271
 -0.03369091 -0.03403082 -0.03432515 -0.03456727 -0.03474882 -0.03486888 -0.03497112 -0.03505894 -0.03519038 -0.03536359
 -0.03560022 -0.03588895 -0.03620218 -0.03652782 -0.03682138 -0.03708242 -0.03728758 -0.03744876 -0.03756922 -0.0376638
 -0.03774504 -0.03782304 -0.03790685 -0.03800006 -0.03810725 -0.0382232 -0.03834845 -0.0384722 -0.03859163 -0.03870802
 -0.03881977 -0.03895054 -0.0391016 -0.03929232 -0.03952117 -0.03977068 -0.04003636 -0.04027877 -0.04050139 -0.04069282
 -0.04086605 -0.04104892 -0.04124535 -0.04148016 -0.04173619 -0.04200523 -0.04226618 -0.04249599 -0.0426937 -0.04284956
 -0.04297875 -0.04308594 -0.0431778 -0.04325938 -0.04331922 -0.04335627 -0.04335969 -0.04332665 -0.04327179 -0.04319562
 -0.04314138 -0.04311133 -0.04314808 -0.04324883 -0.04342052 -0.04365302 -0.04391405 -0.04419337 -0.04444923 -0.04467871
 -0.04485712 -0.04498872 -0.0450681 -0.04510292 -0.04509661 -0.04505837 -0.04499372 -0.04491004 -0.04481117 -0.04470152
 -0.04458215 -0.04445949 -0.04433439 -0.04421454 -0.04410182 -0.04398804 -0.04387305 -0.04372251 -0.04353456 -0.04327297
 -0.04294109 -0.04253914 -0.04207774 -0.04159666 -0.04110369 -0.0406403 -0.0402027 -0.03980467 -0.03943565 -0.03908814
 -0.03875476 -0.03842718 -0.03810102 -0.03777305 -0.03743611 -0.03708699 -0.03672021 -0.03633151 -0.03593018 -0.03551471
 -0.03511131 -0.03472184 -0.03437384 -0.03406911 -0.03382094 -0.03362904 -0.03349059 -0.0334042 -0.03336025 -0.03335714
 -0.03338529 -0.03344066 -0.0335109 -0.03358685 -0.03364842 -0.03368623 -0.03367895 -0.03362879 -0.0335271 -0.03338971
 -0.03322327 -0.0330395 -0.03284775 -0.03263947 -0.03241592 -0.03215917 -0.03186498 -0.031531 -0.03115486 -0.03075771
 -0.03034048 -0.02993592 -0.02954579 -0.02920184 -0.02890437 -0.02867312 -0.02850384 -0.02839323 -0.02833197 -0.02829439
 -0.02827544 -0.02824945 -0.02822985 -0.02821478 -0.02824114 -0.02833214 -0.02853672 -0.02888766 -0.02942015 -0.03016202
 -0.03110156 -0.03225243 -0.03353797 -0.03495555 -0.03638601 -0.0378181 -0.03914877 -0.04037051 -0.04144524 -0.04237446
 -0.04318294 -0.04387567 -0.04449809 -0.04505188 -0.04556738 -0.04604385 -0.04649353 -0.04691774 -0.04732356 -0.04771399
 -0.04809643 -0.04846967 -0.04883687 -0.04919057 -0.04952803 -0.04984101 -0.05012523 -0.05037741 -0.05059527 -0.0507809
 -0.05093427 -0.05105804 -0.0511531 -0.05121403 -0.05124068 -0.05121837 -0.05114713 -0.05102388 -0.05085428 -0.05067349
 -0.05049179 -0.050371 -0.050312 -0.05035413 -0.05047937 -0.05067718 -0.0509221 -0.05117802 -0.0514297 -0.05165121
 -0.05183918 -0.05198443 -0.05208882 -0.05215042 -0.05217467 -0.05216224 -0.05211964 -0.05204857 -0.05194888 -0.05181978
 -0.05166909 -0.05149625 -0.05135546 -0.05125244 -0.05129398 -0.05148457 -0.05191551 -0.05257038 -0.0534423 -0.05449084
 -0.05560995 -0.05676361 -0.05783215 -0.05881657 -0.05966241 -0.06040571 -0.06105784 -0.06165406 -0.06222273 -0.06276932
 -0.06330594 -0.06381595 -0.06429698 -0.06473567 -0.06512782 -0.06547558 -0.06577784 -0.06604823 -0.06628749 -0.06651046
 -0.06671763 -0.06691733 -0.06710923 -0.06729495 -0.06747417 -0.06764706 -0.06781263 -0.06796909 -0.06811395 -0.06824093
 -0.06835072 -0.06843833 -0.06851508 -0.06858665 -0.06866997 -0.06877872 -0.06891618 -0.06909168 -0.06928398 -0.06949188
 -0.06968325 -0.06985112 -0.06998052 -0.07006692 -0.07012672 -0.0701603 -0.07019912 -0.07024405 -0.07031006 -0.07039458
 -0.07048497 -0.07057943 -0.0706616 -0.07073678 -0.0708098 -0.07088892 -0.07099386 -0.07112364 -0.07128862 -0.07147495
 -0.07167638 -0.07187409 -0.07205521 -0.07220691 -0.07231892 -0.07239345 -0.07242568 -0.07243761 -0.07243054 -0.07243532
 -0.07245622 -0.0725079 -0.07259217 -0.07269727 -0.07282221 -0.07294655 -0.07307028 -0.0731841 -0.07328909 -0.07338543
 -0.07347271 -0.07354978 -0.07361604 -0.07366905 -0.07371054 -0.07374121 -0.07376431 -0.07378264 -0.07379945 -0.07381726
 -0.07383887 -0.07386615 -0.07390015 -0.07394186 -0.07398979 -0.07404383 -0.07410246 -0.07416545 -0.07423236 -0.07430321
 -0.0743755 -0.07444896 -0.07451816 -0.07458315 -0.07464152 -0.07469459 -0.07474678 -0.07479946 -0.07485951 -0.07492544
 -0.07499915 -0.07507479 -0.07514603 -0.07520677 -0.07524754 -0.07527069 -0.07527185 -0.07526557 -0.07525565 -0.07525843
 -0.07528057 -0.07532573 -0.07539728 -0.07548458 -0.07558723 -0.0756918 -0.07579728 -0.07589604 -0.07598794 -0.0760726
 -0.07615055 -0.07622576 -0.07629836 -0.07637144 -0.07644406 -0.07651526 -0.07658421 -0.07664841 -0.07670868 -0.07676516
 -0.0768185 -0.07686988 -0.07691813 -0.07696252 -0.07700337 -0.07703955 -0.07707613 -0.07711402 -0.07715877 -0.07721208
 -0.07727406 -0.07734537 -0.07742066 -0.07749966 -0.07757635 -0.07765044 -0.07771712 -0.0777762 -0.07782403 -0.07786084
 -0.07788508 -0.07789832 -0.07790336 -0.07790348 -0.07790594 -0.07791394 -0.07793554 -0.07797001 -0.07802086 -0.07808216
 -0.07815162 -0.07822309 -0.07829255 -0.07835975 -0.07842322 -0.0784869 -0.07855157 -0.07861875 -0.07868905 -0.07875975
 -0.07883073 -0.0788995 -0.07896601 -0.0790303 -0.07909241 -0.07915296 -0.07921176 -0.07926818 -0.07932202 -0.07937247
 -0.07941909 -0.07946111 -0.07949712 -0.07952489 -0.07954342 -0.07954988 -0.07954749 -0.07953595 -0.07952352 -0.07951344
 -0.07951266 -0.07952502 -0.0795486 -0.07958453 -0.07962433 -0.07966684 -0.07970834 -0.07974818 -0.0797926 -0.07984193
 -0.0799028 -0.07997416 -0.08005032 -0.08012883 -0.08019451 -0.08024809 -0.08028195 -0.08030225 -0.08031739 -0.08033285
 -0.08036149 -0.08040059 -0.08045369 -0.08051202 -0.0805703 -0.08062442 -0.08066992 -0.08071091 -0.08074748 -0.08078466
 -0.08082394 -0.08086551 -0.08090968 -0.08095512 -0.0810017 -0.08104929 -0.08109784 -0.08114606 -0.08119355 -0.08123627
 -0.08127405 -0.08130376 -0.08132607 -0.08134124 -0.08135022 -0.08135488 -0.08135615 -0.08135565 -0.08135528 -0.08135708
 -0.08136355 -0.08137735 -0.08139853 -0.08142845 -0.08146378 -0.08150402 -0.08154542 -0.08158702 -0.08162736 -0.08166615
 -0.08170278 -0.08173721 -0.08176827 -0.08179593 -0.08181932 -0.08183871 -0.08185599 -0.0818718 -0.08189022 -0.08191163
 -0.08193946 -0.08197339 -0.08201457 -0.08206205 -0.08211523 -0.08217275 -0.08223368 -0.08229534 -0.08235634 -0.08241245
 -0.08246152 -0.08250041 -0.0825268 -0.08254347 -0.08254973 -0.08255381 -0.08255654 -0.08256558 -0.0825818 -0.08260591
 -0.08263779 -0.08267134 -0.08270606 -0.0827348 -0.08275777 -0.082772 -0.08277856 -0.08277898 -0.08277445 -0.08276782
 -0.08276031 -0.08275443 -0.08275191 -0.08275554 -0.08276577 -0.08278492 -0.08280884 -0.08283748 -0.08286242 -0.08288094
 -0.08288766 -0.08287967 -0.08286247 -0.08283542 -0.08281323 -0.082797 -0.08279822 -0.0828172 -0.0828514 -0.08289954
 -0.08294809 -0.08299636 -0.0830331 -0.08306033 -0.08307781 -0.08308893 -0.08310088 -0.08311517 -0.08313792 -0.08316687
 -0.08320272 -0.08324084 -0.08327809 -0.08331209 -0.08334006 -0.08336466 -0.08338579 -0.08340757 -0.08343126 -0.08345693
 -0.08348493 -0.08351277 -0.08354011 -0.08356821 -0.08359715 -0.08363052 -0.08366799 -0.08370788 -0.08374907 -0.08378472
 -0.08381485 -0.08383534 -0.08384811 -0.08385529 -0.08385836 -0.08386056 -0.083862 -0.08386368 -0.08386611 -0.08386946
 -0.08387569 -0.08388595 -0.08390062 -0.08392069 -0.08394282 -0.08396646 -0.08398896 -0.08400948 -0.08403079 -0.08405299
 -0.0840804 -0.08411308 -0.08414769 -0.08418345 -0.08421049 -0.08422903 -0.08423417 -0.08422857 -0.08421795 -0.08420466
 -0.08419736 -0.08419456 -0.08419862 -0.08420525 -0.08421084 -0.08421236 -0.08420558 -0.08419242 -0.08417156 -0.08414973
 -0.08412846 -0.08411442 -0.08410981 -0.08411557 -0.08413268 -0.08415624 -0.08418611 -0.08421535 -0.08424357 -0.08426459
 -0.08427836 -0.08428178 -0.08427582 -0.0842634 -0.08424623 -0.08423165 -0.08421975 -0.08421486 -0.08421466 -0.08421767
 -0.08422143 -0.08422214 -0.08422064 -0.08421538 -0.08421098 -0.08420892 -0.08421417 -0.08422958 -0.084254 -0.08428899
 -0.08432467 -0.08436025 -0.08438469 -0.08439671 -0.08439402 -0.0843766 -0.08435165 -0.08431982 -0.08429044 -0.08426372
 -0.08424589 -0.08423625 -0.0842364 -0.0842443 -0.08425649 -0.0842711 -0.08428332 -0.08429389 -0.0843016 -0.0843083
 -0.08431566 -0.08432254 -0.0843293 -0.08433284 -0.08433187 -0.08432573 -0.08431372 -0.08429788 -0.08427842 -0.08425689
 -0.08423341 -0.08420956 -0.08418549 -0.0841658 -0.08415093 -0.08414731 -0.08415492 -0.08417737 -0.08421347 -0.08426122
 -0.0843194 -0.0843835 -0.08445536 -0.0845339 -0.08462643 -0.08473887 -0.08488087 -0.085062 -0.08528537 -0.08555736
 -0.08586869 -0.08621892 -0.08659375 -0.08698847 -0.08740188 -0.08783142 -0.08829402 -0.08879126 -0.08933316 -0.08991974
 -0.09050994 -0.09109578 -0.0915742 -0.09193803 -0.0920871 -0.09203628 -0.09177429 -0.09133623 -0.09079189 -0.09017228
 -0.08955485 -0.0889563 -0.0884229 -0.08796012 -0.08758534 -0.08730008 -0.08710876 -0.08701289 -0.08701648 -0.08710839
 -0.0872943 -0.08752108 -0.08778686 -0.0880065 -0.08817037 -0.08825164 -0.08824904 -0.08820946 -0.08813474 -0.08806133
 -0.08798606 -0.08790947 -0.08782934 -0.08773812 -0.08763707 -0.08752618 -0.08740523 -0.08727581 -0.08713215 -0.08696864
 -0.08678086 -0.08656051 -0.08631664 -0.08604821 -0.08577655 -0.08550849 -0.08526004 -0.08503748 -0.08484168 -0.08467441
 -0.08452779 -0.08440149 -0.08428615 -0.08418126 -0.08407963 -0.08398132 -0.08388458 -0.08379 -0.08370002 -0.08361469
 -0.0835354 -0.08346192 -0.08339407 -0.0833324 -0.08327816 -0.08323038 -0.08318991 -0.08315122 -0.08311111 -0.08306315
 -0.08300202 -0.08292866 -0.08284049 -0.08274752 -0.0826509 -0.08256256 -0.08248466 -0.08242355 -0.08238048 -0.08235214
 -0.08233837 -0.08232856 -0.08232217 -0.08230919 -0.08229032 -0.08226372 -0.08223129 -0.08219869 -0.08216695 -0.08214177
 -0.08212201 -0.08210866 -0.0820995 -0.0820924 -0.08208585 -0.08207793 -0.08206814 -0.08205578 -0.08204052 -0.08202223
 -0.08200026 -0.08197439 -0.08194432 -0.08190983 -0.08187189 -0.08183052 -0.08178736 -0.08174251 -0.08169834 -0.0816551
 -0.08161695 -0.08158385 -0.08155856 -0.08153942 -0.08152269 -0.08150556 -0.08147926 -0.08144319 -0.08139126 -0.08132754
 -0.08125303 -0.08117506 -0.08109915 -0.08103161 -0.080978 -0.08093844 -0.08091561 -0.08090181 -0.08089616 -0.08088994
 -0.08088117 -0.08086824 -0.08085052 -0.08083228 -0.08081373 -0.08079627 -0.08077966 -0.08076042 -0.08073856 -0.08071204
 -0.08068171 -0.08064982 -0.08061658 -0.08058393 -0.08055072 -0.08051585 -0.08047844 -0.08043654 -0.0803915 -0.08034339
 -0.08029482 -0.08024721 -0.08020231 -0.08016124 -0.08012398 -0.08009081 -0.08006094 -0.08003428 -0.08001041 -0.07998925
 -0.07997109 -0.07995596 -0.07994467 -0.0799372 -0.07993363 -0.07993341 -0.07993341 -0.07993272 -0.07992601 -0.07991351
 -0.0798925 -0.07986499 -0.07983309 -0.07979844 -0.07976426 -0.07972983 -0.07969575 -0.07966053 -0.07962285 -0.07958414
 -0.07954383 -0.07950679 -0.07947399 -0.07944977 -0.07943537 -0.07943042 -0.07943537 -0.0794442 -0.07945659 -0.07946554
 -0.07947091 -0.07946966 -0.07946222 -0.07944977 -0.07943267 -0.07941312 -0.07939093 -0.07936693 -0.07934047 -0.07931078
 -0.07927749 -0.07923944 -0.07919772 -0.07915234 -0.07910585 -0.07905973 -0.07901551 -0.07897444 -0.07893566 -0.07889928
 -0.07886387 -0.07882912 -0.07879467 -0.07876039 -0.07872703 -0.07869463 -0.07866523 -0.07863902 -0.07861938 -0.07860618
 -0.07860102 -0.07860253 -0.07860697 -0.07861224 -0.07861107 -0.0786028 -0.07858214 -0.07855182 -0.07851191 -0.0784682
 -0.07842519 -0.07838748 -0.07836007 -0.07834055 -0.07833033 -0.07832131 -0.07831139 -0.07829627 -0.07827407 -0.07824938
 -0.07822228 -0.07819925 -0.07818069 -0.07816587 -0.07815441 -0.07814007 -0.07812262 -0.07809734 -0.07806474 -0.07802385
 -0.07797601 -0.07792345 -0.07786869 -0.07781674 -0.07777005 -0.07773436 -0.07770829 -0.07769391 -0.07768505 -0.07767912
 -0.07767054 -0.07765567 -0.07763557 -0.07760898 -0.07758259 -0.07755736 -0.07753824 -0.07752625 -0.07751919 -0.07751705
 -0.07751168 -0.07750269 -0.07748238 -0.07745127 -0.07740831 -0.07735545 -0.07729944 -0.0772422 -0.07719228 -0.07714955
 -0.07711829 -0.07709563 -0.07708027 -0.07706845 -0.07705647 -0.07704251 -0.07702372 -0.07700249 -0.07697861 -0.07695634
 -0.07693733 -0.07692128 -0.07690904 -0.07689487 -0.07687817 -0.07685598 -0.07682799 -0.07680032 -0.07677339 -0.07675539
 -0.0767455 -0.07674284 -0.07674511 -0.07674274 -0.07673488 -0.07671373 -0.07668167 -0.07663864 -0.07658884 -0.07653727
 -0.07648706 -0.0764427 -0.07640491 -0.07637582 -0.07635333 -0.07633775 -0.07632436 -0.07631242 -0.07629618 -0.07627444
 -0.07624406 -0.07620419 -0.07615808 -0.0761058 -0.07605533 -0.07600702 -0.07596729 -0.07593577 -0.07591341 -0.07589909
 -0.07588907 -0.07588223 -0.07587384 -0.07586357 -0.07584846 -0.0758293 -0.0758057 -0.07577898 -0.07575003 -0.07572004
 -0.07568967 -0.07566056 -0.0756336 -0.07560941 -0.07558887 -0.07556926 -0.07555054 -0.07552845 -0.0755023 -0.07547192
 -0.07543719 -0.07540177 -0.07536571 -0.07533029 -0.07529522 -0.07525873 -0.07522114 -0.07518255 -0.07514387 -0.07510795
 -0.07507428 -0.07504374 -0.07501408 -0.0749827 -0.07494846 -0.07490865 -0.07486562 -0.0748194 -0.07477422 -0.07473226
 -0.0746943 -0.07466201 -0.07462965 -0.0745967 -0.07455655 -0.07450786 -0.07445309 -0.07439216 -0.07433588 -0.07428464
 -0.07424568 -0.07421812 -0.07419942 -0.07418806 -0.0741765 -0.07416441 -0.07414679 -0.07412483 -0.07409834 -0.07406837
 -0.07403678 -0.07400238 -0.07396545 -0.07392268 -0.07387189 -0.07381174 -0.0737401 -0.07366119 -0.07357498 -0.07348898
 -0.07340447 -0.07332727 -0.07325838 -0.07319909 -0.07314961 -0.07310769 -0.0730731 -0.0730415 -0.07301261 -0.07298233
 -0.07295088 -0.07291673 -0.07288076 -0.07284421 -0.07280856 -0.07277727 -0.07275084 -0.07273239 -0.07271854 -0.07270896
 -0.07269571 -0.07267396 -0.0726383 -0.07258353 -0.07251496 -0.07243146 -0.07234643 -0.0722622 -0.0721877 -0.07212498
 -0.07207062 -0.07202472 -0.07197557 -0.07192284 -0.07186065 -0.07179035 -0.07171931 -0.07164891 -0.07158994 -0.07154038
 -0.07150096 -0.07146765 -0.07143272 -0.07139505 -0.0713492 -0.07129775 -0.071241 -0.07118167 -0.07112165 -0.07106211
 -0.07100407 -0.07094756 -0.07089299 -0.07083894 -0.07078544 -0.07072964 -0.07067129 -0.0706072 -0.07053711 -0.0704599
 -0.07037578 -0.07028915 -0.07020095 -0.07012073 -0.07004836 -0.06998951 -0.06994101 -0.06989742 -0.06985538 -0.06980493
 -0.06974738 -0.0696796 -0.06960588 -0.06952959 -0.06945196 -0.06937531 -0.06929764 -0.06921823 -0.06913717 -0.06905381
 -0.06897113 -0.0688896 -0.06881136 -0.06873705 -0.06866448 -0.06859356 -0.06852053 -0.06844541 -0.06836946 -0.06829353
 -0.0682253 -0.06816467 -0.06811634 -0.06807724 -0.06804178 -0.06800611 -0.06795928 -0.06790209 -0.06782983 -0.0677481
 -0.06766034 -0.06757091 -0.06748416 -0.06740012 -0.06732034 -0.06724191 -0.06716458 -0.06708438 -0.06700015 -0.06691169
 -0.06681833 -0.06672606 -0.06663518 -0.06655266 -0.06647858 -0.06641287 -0.06635433 -0.06629363 -0.0662291 -0.06614746
 -0.06605023 -0.06593277 -0.06580213 -0.0656699 -0.06554075 -0.06542766 -0.0653266 -0.065239 -0.06515844 -0.06508059
 -0.06500345 -0.06492488 -0.06484547 -0.06476539 -0.06468336 -0.06459926 -0.06451127 -0.06441914 -0.0643219 -0.06421954
 -0.06410945 -0.06399155 -0.06386453 -0.06372906 -0.06358975 -0.06344772 -0.06331058 -0.06317826 -0.06305489 -0.062939
 -0.06283036 -0.06272577 -0.06262156 -0.06251328 -0.0623947 -0.06226583 -0.0621228 -0.06197412 -0.06182195 -0.06167535
 -0.06153836 -0.06141179 -0.06129711 -0.06118932 -0.06108804 -0.06098888 -0.06089152 -0.06079302 -0.06069308 -0.06058574
 -0.06046985 -0.06033301 -0.06017471 -0.059984 -0.05976563 -0.05952626 -0.05927338 -0.05902645 -0.05878549 -0.05856032
 -0.05834373 -0.05813182 -0.05792039 -0.05770338 -0.05748682 -0.05727138 -0.05706457 -0.05687055 -0.05668538 -0.05651107
 -0.05632992 -0.05614075 -0.0559218 -0.05567079 -0.055388 -0.05507444 -0.05476282 -0.05445447 -0.05417651 -0.0539248
 -0.05369556 -0.05348246 -0.05326526 -0.05304001 -0.05278825 -0.05251177 -0.05220336 -0.05187199 -0.05152257 -0.05116573
 -0.05081227 -0.05045987 -0.05011447 -0.04975405 -0.04937281 -0.04895564 -0.04849349 -0.04801189 -0.04751141 -0.04702929
 -0.04656913 -0.04613624 -0.04573037 -0.04533627 -0.04495311 -0.04456867 -0.04418137 -0.04377889 -0.04335691 -0.04289478
 -0.04239311 -0.04183815 -0.04124586 -0.04063198 -0.04001136 -0.03940842 -0.03881673 -0.03824016 -0.03766755 -0.03709254
 -0.03651658 -0.03593846 -0.0353633 -0.03479584 -0.03421529 -0.03362364 -0.03296228 -0.03222608 -0.03138724 -0.03044728
 -0.02949263 -0.02852834 -0.02764178 -0.02682051 -0.02605027 -0.02531827 -0.02457655 -0.02382582 -0.02304479 -0.02223843
 -0.02141026 -0.02054872 -0.01965243 -0.01868415 -0.01761865 -0.01643019 -0.01508339 -0.01363788 -0.01209193 -0.01055992
 -0.009069895 -0.007667667 -0.006367532 -0.005144342 -0.003998172 -0.002888279 -0.001811998 -0.0007133599 0.0004132603 0.001650491
 0.002989955 0.00445032 0.005988586 0.007473103 0.008896451 0.0101642 0.01132873 0.01242783 0.01349787 0.01459666
 0.01571713 0.01687399 0.01804637 0.01922524 0.02040726 0.02159232 0.02276624 0.0239286 0.02505187 0.02612972
 0.02717005 0.02817256 0.02915726 0.03012404 0.03104379 0.03191303 0.0326836 0.03336007 0.0339386 0.03442859
 0.03485839 0.03523008 0.03556238 0.03585139 0.03609627 0.03630214 0.03647133 0.03661598 0.03674527 0.03686658
 0.03698765 0.03710367 0.03721676 0.03731172 0.03738602 0.03742652 0.0374303 0.03739644 0.03732377 0.03723093
 0.03711895 0.0370112 0.03690652 0.03680268 0.03669634 0.03656854 0.03642015 0.03624079 0.03604061 0.03583333
 0.03563394 0.03547318 0.03535119 0.03528264 0.03525346 0.03525501 0.0352878 0.035346 0.03544796 0.03560053
 0.03580676 0.03607146 0.03637519 0.03671561 0.03708102 0.03746992 0.03788284 0.03831972 0.03877936 0.03926149
 0.03976301 0.04028367 0.04082131 0.04137449 0.04193748 0.04250905 0.04308308 0.04366112 0.0442428 0.0448299
 0.04542398 0.04602671 0.04663834 0.04726461 0.04790778 0.04857396 0.04926643 0.04998475 0.05073014 0.05149714
 0.05228627 0.05308368 0.053889 0.05467704 0.05544655 0.05617811 0.05687188 0.05752467 0.05813425 0.05868928
 0.05918311 0.05958542 0.05989867 0.06011046 0.06023332 0.06028061 0.06026228 0.06019368 0.06007977 0.05993226
 0.05974032 0.0595132 0.05919529 0.05878243 0.05817323 0.05733256 0.05626194 0.05493242 0.0535891 0.05225356
 0.05104725 0.04997417 0.04891635 0.04786916 0.04674203 0.04554429 0.04427955 0.04295636 0.04161315 0.04023178
 0.03880558 0.03727959 0.03555455 0.03363134 0.03141826 0.02910778 0.02681473 0.02466534 0.02279586 0.0210859
 0.01952363 0.01800148 0.01647933 0.01497683 0.01348797 0.01207159 0.0107348 0.009472778 0.008284986 0.007119402
 0.005975145 0.004823233 0.003669776 0.002531954 0.00141643 0.0003560018 -0.0006513973 -0.00159193 -0.002476224 -0.003312564
 -0.004115068 -0.004898577 -0.005682216 -0.006478542 -0.0073197 -0.008226567 -0.009213306 -0.01031259 -0.01141702 -0.01251898
 -0.01346512 -0.01421596 -0.01481487 -0.01525737 -0.01567441 -0.01607219 -0.01651374 -0.01699549 -0.01749735 -0.01801269
 -0.01849253 -0.0189408 -0.01934677 -0.01971338 -0.0200483 -0.02033635 -0.02055818 -0.02069943 -0.0207297 -0.020666
 -0.02050731 -0.02028342 -0.02001086 -0.01970227 -0.01936741 -0.01900256 -0.01861125 -0.01817371 -0.01769133 -0.01711622
 -0.01644448 -0.01563239 -0.01467827 -0.01364246 -0.01253432 -0.01148737 -0.01049964 -0.009629641 -0.008864972 -0.008192343
 -0.007607755 -0.007096795 -0.006657479 -0.006287073 -0.005966012 -0.00568019 -0.005389762 -0.005057855 -0.004668703 -0.004189584
 -0.003677199 -0.003143324 -0.002637217 -0.002179969 -0.001755307 -0.001365613 -0.000976635 -0.0005846754 -0.0001785781 0.0002422628
 0.0006606115 0.001075773 0.001472362 0.001854136 0.002232392 0.002615178 0.003036347 0.003500007 0.004036306 0.00463473
 0.005293025 0.005997877 0.006729248 0.007492975 0.008285799 0.009119069 0.01000165 0.01092626 0.01189482 0.01288817
 0.01390051 0.01492824 0.01596838 0.01703543 0.01813158 0.0192525 0.02039784 0.0215109 0.02258749 0.02355797
 0.02442417 0.02516162 0.02577408 0.02626447 0.02662803 0.02685682 0.02694145 0.02686162 0.02661656 0.02619407
 0.02560738 0.02486079 0.0239714 0.02295007 0.02180415 0.02053762 0.01915672 0.01765639 0.01608132 0.01443072
 0.01279565 0.01118494 0.009658219 0.008219074 0.006847831 0.005541914 0.004260226 0.003006337 0.001779592 0.0005878389
 -0.0005385632 -0.001601902 -0.002589461 -0.003514044 -0.004390749 -0.005229433 -0.006047841 -0.006848205 -0.007638478 -0.008416031
 -0.009182691 -0.009931092 -0.01066035 -0.01135881 -0.01202344 -0.0126468 -0.01322639 -0.01376554 -0.01426424 -0.01472786
 -0.01515671 -0.01554463 -0.01589087 -0.01618243 -0.01642045 -0.01660436 -0.0167377 -0.0168333 -0.01689258 -0.01692514
 -0.01693102 -0.01691299 -0.01687503 -0.01682116 -0.01675903 -0.01669561 -0.01663666 -0.01658733 -0.01654945 -0.01652475
 -0.01651377 -0.01651632 -0.01653586 -0.01657222 -0.01663353 -0.01672059 -0.01683949 -0.01699064 -0.01716933 -0.01737442
 -0.01758988 -0.01781384 -0.0180273 -0.01822865 -0.01840164 -0.01854675 -0.01865562 -0.01873316 -0.01878288 -0.01881118
 -0.01882776 -0.01883357 -0.01883383 -0.0188233 -0.01880032 -0.01876131 -0.01870279 -0.01863084 -0.01854434 -0.01845956
 -0.0183781 -0.01831816 -0.01828204 -0.01827705 -0.01830382 -0.01835258 -0.0184222 -0.0184944 -0.01856887 -0.01863389
 -0.01869156 -0.01874296 -0.018791 -0.0188436 -0.01890164 -0.01897115 -0.01904913 -0.01913533 -0.01922428 -0.01931131
 -0.0193934 -0.01946672 -0.01953352 -0.0195934 -0.01965036 -0.01970572 -0.01975998 -0.01981378 -0.01986419 -0.01991108
 -0.01995053 -0.01998231 -0.02000268 -0.02001152 -0.02000629 -0.01998712 -0.01995316 -0.01990533 -0.01984615 -0.01977742
 -0.01970453 -0.01962914 -0.01955708 -0.0194873 -0.01942164 -0.01935616 -0.01928852 -0.0192149 -0.01913231 -0.01903945
 -0.01893462 -0.01881987 -0.01869453 -0.01856518 -0.01843217 -0.01830529 -0.01818567 -0.01807868 -0.01798477 -0.01790087
 -0.0178267 -0.01775686 -0.01769168 -0.01763057 -0.01757424 -0.01752539 -0.01748374 -0.01745005 -0.01742349 -0.01740251
 -0.01738785 -0.0173792 -0.0173791 -0.01738961 -0.01741215 -0.01744868 -0.01749749 -0.01755863 -0.01762943 -0.01770918
 -0.01779631 -0.01789064 -0.01799006 -0.01809443 -0.01820085 -0.01830912 -0.01841866 -0.01852947 -0.018642 -0.01875575
 -0.01886756 -0.0189768 -0.01907859 -0.01917425 -0.01926413 -0.0193508 -0.01943936 -0.01953012 -0.01962622 -0.01972487
 -0.01982494 -0.01992353 -0.02001846 -0.02010885 -0.02019344 -0.02027397 -0.02035042 -0.02042551 -0.02049991 -0.02057393
 -0.02064791 -0.02071884 -0.02078656 -0.02084783 -0.02090249 -0.02094783 -0.02098357 -0.02100638 -0.02101642 -0.02101214
 -0.02099483 -0.02096728 -0.02092986 -0.02088506 -0.02083109 -0.02076659 -0.02069046 -0.02060112 -0.0204986 -0.02038344
 -0.02025218 -0.02010457 -0.01993365 -0.01973721 -0.01951236 -0.01925744 -0.01897732 -0.01867196 -0.01834976 -0.01801121
 -0.01766435 -0.01730955 -0.01695332 -0.0165957 -0.01624035 -0.01588679 -0.01553543 -0.01518527 -0.01483398 -0.01448061
 -0.01412131 -0.01375854 -0.01339185 -0.01302943 -0.01267772 -0.01234362 -0.01203519 -0.01174735 -0.0114819 -0.01122509
 -0.01097332 -0.01071832 -0.01045705 -0.0101927 -0.009924881 -0.009661733 -0.009403784 -0.009155317 -0.00891607 -0.008681487
 -0.008450338 -0.008211714 -0.007965101 -0.007702511 -0.007424552 -0.007129203 -0.006816153 -0.006483619 -0.00613215 -0.00575976
 -0.005373064 -0.004975711 -0.00457711 -0.004184904 -0.003800645 -0.003428222 -0.003060477 -0.002696018 -0.002330016 -0.001960185
 -0.00159241 -0.001226327 -0.000876236 -0.0005430754 -0.0002362163 4.483758E-05 0.0003099468 0.0005611793 0.0008197207 0.001083581
 0.001357538 0.00163488 0.001898161 0.002147799 0.002372613 0.002585801 0.002798886 0.003024212 0.003279447 0.003561371
 0.003875834 0.004207326 0.004551277 0.004894503 0.005230695 0.005561745 0.005885445 0.006216697 0.006557269 0.006914703
 0.007290023 0.007669088 0.008050912 0.00841557 0.008763929 0.009092442 0.009404033 0.00970928 0.0100092 0.01031313
 0.01061756 0.01092246 0.01121872 0.01149606 0.01174401 0.011948 0.01210819 0.0122176 0.01228965 0.01232795
 0.01234388 0.01234237 0.01232407 0.01228959 0.01223959 0.01217338 0.0121012 0.01202355 0.01195487 0.01189568
 0.01185534 0.01183306 0.01182797 0.01183809 0.01185424 0.0118762 0.01189821 0.01192227 0.01195091 0.01198195
 0.01201553 0.01204378 0.01205877 0.01205839 0.01203747 0.01200204 0.01195468 0.01189484 0.01182451 0.0117337
 0.01162035 0.01148076 0.01131357 0.01112497 0.01091527 0.01068927 0.01044717 0.010192 0.009924303 0.009650065
 0.009368923 0.009083055 0.008790604 0.008486894 0.008172189 0.007843871 0.007505276 0.007159782 0.006809715 0.006458874
 0.006106647 0.005754708 0.005398531 0.005038204 0.00466349 0.004272019 0.003853935 0.003406065 0.002928889 0.002421234
 0.00189379 0.001347008 0.0007956537 0.0002405599 -0.0003027628 -0.0008341329 -0.001344191 -0.001834806 -0.002309132 -0.002768758
 -0.003220838 -0.003663134 -0.004094829 -0.004513328 -0.004913782 -0.005297876 -0.005665515 -0.006018294 -0.00635832 -0.006682426
 -0.006989961 -0.0072775 -0.007543099 -0.007788893 -0.008014248 -0.008226073 -0.00842474 -0.008619217 -0.008810118 -0.009004925
 -0.009203918 -0.009410925 -0.009626027 -0.00985228 -0.0100887 -0.01033477 -0.01058501 -0.01082496 -0.01104741 -0.0112292
 -0.01137329 -0.01147037 -0.01153621 -0.01158174 -0.01162001 -0.01166436 -0.01171455 -0.01177413 -0.01183844 -0.0119064
 -0.0119765 -0.01204862 -0.01211977 -0.01218976 -0.01225434 -0.01231308 -0.01236644 -0.01241457 -0.01246189 -0.01250834
 -0.01255587 -0.01260306 -0.01264524 -0.01267987 -0.01269681 -0.0126957 -0.01266919 -0.01262315 -0.01256115 -0.012492
 -0.01242603 -0.01236605 -0.01231826 -0.01227794 -0.01224523 -0.01221291 -0.01217923 -0.01213759 -0.0120863 -0.01202224
 -0.01194453 -0.01185509 -0.01175406 -0.01164115 -0.0115163 -0.01137554 -0.01122046 -0.01106059 -0.01090099 -0.01077089
 -0.01067136 -0.01062414 -0.01061914 -0.01064827 -0.01069858 -0.01074792 -0.01079164 -0.010817 -0.01082516 -0.01081367
 -0.01078312 -0.0107327 -0.01066513 -0.01057995 -0.01048491 -0.01038102 -0.01027684 -0.01017389 -0.01007465 -0.009979727
 -0.009881864 -0.00978054 -0.009663637 -0.009531224 -0.009378389 -0.009206528 -0.009019934 -0.008818764 -0.008605349 -0.008379946
 -0.008141744 -0.007897388 -0.007654244 -0.007421693 -0.007214048 -0.007027976 -0.006869173 -0.006719905 -0.006573544 -0.006417495
 -0.006244144 -0.006059018 -0.005860493 -0.005664119 -0.005471305 -0.005296725 -0.00514162 -0.005015474 -0.004918455 -0.004849099
 -0.004805185 -0.004767576 -0.004732451 -0.004670661 -0.004582638 -0.004451454 -0.004286714 -0.00409738 -0.003897612 -0.003711694
 -0.00354629 -0.003419624 -0.003323329 -0.003260987 -0.003210909 -0.003166537 -0.003102734 -0.003009282 -0.002876196 -0.002696041
 -0.002488898 -0.002254243 -0.002030554 -0.001821034 -0.001646652 -0.001507598 -0.00138872 -0.001287101 -0.001169828 -0.00103607
 -0.0008633112 -0.0006554673 -0.0004108525 -0.0001373396 0.000151981 0.0004461746 0.0007256219 0.0009798593 0.001190006 0.001356155
 0.001467235 0.001545806 0.001594521 0.001651191 0.001729256 0.001848297 0.002019522 0.002220447 0.002451664 0.00267274
 0.002880048 0.003057194 0.003203874 0.003331213 0.003439879 0.003540339 0.003631926 0.003715394 0.003792637 0.003869103
 0.003948492 0.0040425 0.004149479 0.004273714 0.0044078 0.004544498 0.004682983 0.004817102 0.004959728 0.005114866
 0.00529428 0.005506126 0.005739466 0.005996271 0.006248069 0.0064912 0.006706672 0.006892072 0.00704894 0.007177575
 0.007291554 0.007392246 0.007497836 0.007609135 0.007741509 0.00789126 0.008056397 0.008230025 0.008395216 0.008551861
 0.008690467 0.008819152 0.008943176 0.00906729 0.00919773 0.009331918 0.009470421 0.009609601 0.009749218 0.009882867
 0.01000993 0.0101207 0.01021277 0.01028886 0.01034808 0.01041257 0.0104834 0.01058036 0.01070204 0.01084332
 0.01099984 0.01114681 0.01128233 0.01138486 0.01146132 0.01151335 0.01155415 0.011605 0.01167101 0.0117688
 0.01188762 0.01202583 0.01217104 0.0123157 0.01245717 0.01259375 0.01272177 0.01284078 0.01294423 0.01303001
 0.01310472 0.01316824 0.0132362 0.01330925 0.01339243 0.01348554 0.0135876 0.01369996 0.01382966 0.0139771
 0.01414827 0.01434014 0.01454943 0.01477258 0.01500465 0.01523839 0.01546634 0.01567804 0.01586048 0.01601953
 0.01614937 0.01627813 0.0164143 0.01657579 0.01677194 0.01698735 0.01722244 0.01745119 0.01767108 0.01787138
 0.01805168 0.01821527 0.01836335 0.01850912 0.01865439 0.01881703 0.01899489 0.01919279 0.01940259 0.01960969
 0.01980666 0.01997501 0.02011415 0.02021476 0.02028437 0.02032366 0.02034533 0.02035641 0.02036245 0.02036838
 0.02036815 0.02035967 0.02034711 0.02032874 0.02032788 0.02034706 0.02039075 0.02045885 0.02052284 0.02058288
 0.02062817 0.02066516 0.02072438 0.02080736 0.02093899 0.02110774 0.02130253 0.02150803 0.02169688 0.02185788
 0.02196621 0.02202641 0.02202287 0.02200143 0.02196867 0.02200737 0.02215723 0.02242312 0.02283289 0.02325345
 0.02366621 0.02400101 0.02424624 0.02443433 0.02456655 0.024673 0.02475373 0.024818 0.02486635 0.02490699
 0.02494063 0.02497515 0.02500811 0.02504071 0.02506344 0.02506621 0.0250307 0.02493017 0.02476403 0.02451012
 0.02421897 0.02390326 0.02362846 0.02342672 0.02330469 0.02327687 0.0232939 0.02335108 0.02340635 0.02345509
 0.02348015 0.02348048 0.02344452 0.02337288 0.0232672 0.02313085 0.02298415 0.02282722 0.02267237 0.02251471
 0.02234685 0.02217091 0.02198271 0.02179734 0.02162686 0.02149056 0.02140672 0.02138606 0.02144625 0.02156153
 0.02173566 0.02190501 0.02205352 0.02214912 0.02217853 0.02218117 0.02215884 0.02215259 0.02216446 0.02219329
 0.02224041 0.02232048 0.02243745 0.02262824 0.02288183 0.02318514 0.02351535 0.02381073 0.02406628 0.02424135
 0.02435554 0.02441147 0.02443758 0.02445571 0.02448555 0.0245465 0.02463323 0.02475072 0.02487851 0.02501086
 0.02514447 0.0252778 0.02541426 0.025556 0.02567197 0.02576057 0.0257855 0.02574984 0.02567993 0.02558323
 0.02552029 0.02548509 0.02549013 0.025523 0.02555699 0.02559518 0.02563058 0.02566913 0.02572029 0.02577098
 0.02581613 0.02583914 0.02582675 0.02578206 0.02569853 0.02560298 0.02549648 0.02542349 0.02539162 0.02542673
 0.02553509 0.02568184 0.02586526 0.02602205 0.02615174 0.02623155 0.02626554 0.0262672 0.02623606 0.02617645
 0.02608795 0.02596918 0.02582635 0.02566934 0.02550139 0.02532935 0.02515598 0.02498258 0.02482066 0.02467778
 0.02455694 0.02446435 0.02438377 0.02431136 0.02424099 0.02416949 0.02410882 0.02406045 0.02402354 0.0239981
 0.02396831 0.02393304 0.02387659 0.02379516 0.02365796 0.02346271 0.02317563 0.02281776 0.02241413 0.02200248
 0.02166118 0.02139662 0.02125334 0.02120384 0.02123968 0.0213418 0.02150021 0.02169512 0.0219254 0.02214141
 0.02233234 0.02245602 0.02250075 0.02247098 0.02236511 0.02220461 0.02199063</values></Ydata></AB><ScSm><Ydata ylabel="Single channel"><values byteorder="INTEL" format="FLOAT32" numvalues="1814"> 0.07461098 0.07460859 0.07467553 0.07484254 0.07508168 0.07531945 0.07548872 0.07557417 0.07559858 0.07557546
 0.07551282 0.07546312 0.07551461 0.07570431 0.07596205 0.07615741 0.07620323 0.07613367 0.07608679 0.07617023
 0.07631547 0.07629821 0.07594936 0.0753476 0.07476738 0.07442705 0.07435539 0.07454975 0.07510512 0.07595296
 0.07657612 0.07638047 0.07544004 0.07452577 0.07425156 0.07448635 0.07471317 0.07462484 0.07422383 0.07370581
 0.07350102 0.07415085 0.07577443 0.07763882 0.07842635 0.07706288 0.07348391 0.06887822 0.06525071 0.06434641
 0.06641778 0.0698776 0.07249159 0.07316126 0.07244563 0.07142362 0.07053675 0.06973644 0.06923421 0.0695339
 0.07073067 0.07204793 0.07224306 0.07067198 0.06806114 0.06599113 0.06545579 0.06624353 0.06779113 0.06979223
 0.07133105 0.07039629 0.06586735 0.06001239 0.05746403 0.06080828 0.06782514 0.07366576 0.07516553 0.07260475
 0.06828676 0.0646358 0.06329121 0.06466638 0.06787242 0.07145547 0.07427636 0.07556278 0.07471845 0.07184326
 0.06823695 0.06576782 0.06572822 0.06832915 0.07265253 0.07673492 0.07846363 0.07713656 0.07392441 0.0706351
 0.06853084 0.06833069 0.07037508 0.07426799 0.07886578 0.08294406 0.08569421 0.08679762 0.08649035 0.08541577
 0.08413628 0.08304186 0.08269112 0.08346435 0.08466052 0.08476909 0.08311822 0.08077481 0.0794434 0.07970175
 0.08054374 0.08060235 0.07953022 0.07776353 0.0751669 0.07102069 0.06567504 0.06097758 0.05842498 0.05802786
 0.05941465 0.06241193 0.06575103 0.06700127 0.06523783 0.06272846 0.0626808 0.06582075 0.0700258 0.07290953
 0.07402498 0.07469356 0.07630572 0.07890058 0.0809884 0.08067751 0.07755518 0.07373913 0.07237624 0.07455136
 0.07824567 0.08081762 0.08178341 0.08251472 0.08384034 0.08476074 0.08349075 0.07958384 0.07507142 0.07320803
 0.07563497 0.08073469 0.08480549 0.08479962 0.08037119 0.0739505 0.06885125 0.06697996 0.06832525 0.07221732
 0.07806198 0.08468068 0.09001413 0.092279 0.09126939 0.0882436 0.08449103 0.08014476 0.07487365 0.0698646
 0.06804814 0.07131897 0.07810692 0.08469115 0.08851753 0.08946051 0.08836676 0.08547755 0.08067833 0.07502894
 0.07125458 0.07162309 0.07520863 0.07842604 0.0787867 0.07716353 0.07593097 0.07600892 0.07653192 0.0766748
 0.07682358 0.07791278 0.08008903 0.08236022 0.08355866 0.08340493 0.08255151 0.08182135 0.08146039 0.08096106
 0.07977351 0.07839908 0.07833064 0.08042125 0.08371731 0.0864415 0.08777316 0.08814502 0.08806459 0.08721537
 0.08492143 0.08143876 0.07847321 0.07791349 0.08000296 0.0831954 0.08576277 0.08703069 0.08719869 0.08671346
 0.08597054 0.08518969 0.08448367 0.08413729 0.08452787 0.08558798 0.08669345 0.08729082 0.08734819 0.08707085
 0.0865057 0.08562271 0.08459695 0.08381654 0.08360632 0.08398664 0.08471013 0.08548092 0.08606394 0.08625816
 0.08597067 0.08535492 0.08471264 0.08422067 0.08388111 0.08371872 0.08383606 0.08422849 0.08469521 0.0850091
 0.08509789 0.08501959 0.08483574 0.08456506 0.08422844 0.08389855 0.08369552 0.0837049 0.08387601 0.08405021
 0.08413881 0.0842116 0.08434242 0.08444531 0.08437078 0.084117 0.08384176 0.0836857 0.08366121 0.08369799
 0.08371694 0.08363593 0.08336656 0.08289386 0.08237609 0.08208411 0.08218114 0.08259927 0.08314778 0.08366182
 0.08402835 0.08418737 0.08417653 0.0841009 0.08401176 0.08386549 0.08362343 0.08335176 0.08320356 0.08330227
 0.0836281 0.08402468 0.08433093 0.08448818 0.08452652 0.08451498 0.08453769 0.08463712 0.08475059 0.08476837
 0.08467464 0.08457614 0.08457641 0.08466209 0.08472805 0.08469744 0.0846087 0.08457711 0.08467044 0.08484539
 0.08501416 0.08514261 0.08526325 0.0854069 0.08553715 0.08556537 0.08544932 0.08526441 0.08513562 0.08510737
 0.08513194 0.08517793 0.08527918 0.0854564 0.08564827 0.08576272 0.08577832 0.08576091 0.08577649 0.08581188
 0.08579969 0.08570646 0.08557035 0.08545835 0.08541185 0.0854302 0.08548088 0.08551867 0.0855114 0.08545752
 0.08537875 0.08529541 0.0852112 0.08512849 0.08507751 0.08510844 0.08523007 0.08536409 0.08539231 0.08526421
 0.08504811 0.08486606 0.08477976 0.08474499 0.08467478 0.08453315 0.08435774 0.08420504 0.08409862 0.0840278
 0.0839711 0.08391468 0.08387014 0.08388245 0.08399391 0.08417981 0.08433954 0.08438073 0.08430669 0.0842026
 0.08414696 0.08415789 0.08420925 0.08426966 0.08433208 0.0844208 0.08455494 0.08469993 0.08478929 0.08480658
 0.08481088 0.08487076 0.08500932 0.08521456 0.08545166 0.08565654 0.08577143 0.08580929 0.08584774 0.08594441
 0.08608757 0.08623728 0.08638123 0.08653206 0.08669543 0.08686765 0.08705935 0.08730038 0.0876112 0.08797134
 0.08831964 0.08859445 0.0887872 0.08895974 0.0891975 0.08953669 0.08993775 0.09032805 0.09066488 0.0909608
 0.09125604 0.09156974 0.09188516 0.09218818 0.09250516 0.09287731 0.09330446 0.09374262 0.09415696 0.09455214
 0.09494881 0.09535371 0.09576105 0.09617136 0.09659951 0.09705869 0.09753185 0.09796894 0.09832922 0.098625
 0.09891479 0.09925835 0.09967926 0.1001459 0.100576 0.100893 0.1011091 0.1013276 0.1016335 0.1020014
 0.1023473 0.1026516 0.1029804 0.1033862 0.1038353 0.1042509 0.1045994 0.1049117 0.1052332 0.1055691
 0.1058758 0.1061085 0.1062765 0.1064417 0.1066543 0.1069136 0.1072069 0.1075543 0.1079746 0.1084285
 0.1088394 0.1091633 0.1094101 0.1096109 0.1097945 0.1099814 0.110173 0.1103568 0.1105343 0.11072
 0.1109039 0.1110557 0.1111804 0.1113335 0.1115589 0.1118461 0.1121689 0.1125272 0.1129197 0.113309
 0.1136627 0.1140147 0.1144317 0.1149096 0.1153493 0.1156594 0.1158476 0.1159817 0.1161044 0.1162337
 0.116414 0.1167012 0.1170973 0.117543 0.117981 0.1183973 0.1187988 0.1191767 0.1195044 0.1197573
 0.1199302 0.1200421 0.1201325 0.1202533 0.1204517 0.1207417 0.1210849 0.1214109 0.1216641 0.1218217
 0.1218722 0.1218089 0.1216656 0.1215275 0.121463 0.1214439 0.1213609 0.1211186 0.1206924 0.1201018
 0.1193643 0.1184976 0.1175504 0.1166125 0.1157883 0.1151577 0.1147644 0.11464 0.1148201 0.1153088
 0.1160268 0.1168239 0.1175517 0.1181024 0.1183849 0.1183138 0.11786 0.1170937 0.116152 0.1151683
 0.1142348 0.1133928 0.1126338 0.1119352 0.1113339 0.1109647 0.1110095 0.1116044 0.1127859 0.1144849
 0.1165389 0.1187201 0.1208011 0.1226347 0.1241886 0.1255095 0.1266638 0.1277134 0.1287146 0.1296959
 0.1306311 0.1314677 0.1321908 0.1328362 0.1334402 0.1340011 0.1344904 0.1348795 0.135159 0.1353487
 0.1354861 0.1355932 0.1356668 0.1357068 0.1357324 0.1357531 0.135738 0.1356267 0.1353657 0.1349384
 0.1343904 0.1338551 0.1335558 0.1337514 0.1346242 0.1361691 0.1381823 0.1403682 0.1424689 0.1443149
 0.1458153 0.1469561 0.1478026 0.1484613 0.1490231 0.1495426 0.1500494 0.1505557 0.1510553 0.1515342
 0.1519877 0.1524263 0.1528693 0.1533281 0.1537924 0.1542356 0.1546446 0.1550406 0.1554619 0.1559252
 0.1564062 0.1568637 0.1572851 0.1577001 0.1581367 0.1585744 0.1589653 0.1592978 0.1596146 0.1599664
 0.1603731 0.1608231 0.1612831 0.161704 0.1620483 0.1623248 0.1625833 0.162869 0.16319 0.1635284
 0.1638679 0.1642036 0.1645366 0.1648746 0.165233 0.165617 0.1659975 0.1663243 0.1665756 0.1667878
 0.1670223 0.1673073 0.1676206 0.167924 0.1682069 0.1684963 0.1688282 0.169207 0.169593 0.1699337
 0.1702079 0.1704388 0.1706677 0.17092 0.171198 0.1714933 0.171795 0.1720908 0.1723731 0.1726491
 0.1729351 0.1732381 0.1735485 0.1738538 0.1741517 0.1744465 0.1747392 0.1750274 0.1753149 0.1756189
 0.1759584 0.1763289 0.1766938 0.1770118 0.1772709 0.1774911 0.1777005 0.177918 0.1781544 0.1784141
 0.1786931 0.1789815 0.1792699 0.179554 0.1798332 0.1801083 0.1803809 0.1806525 0.1809233 0.1811921
 0.1814612 0.1817408 0.1820385 0.1823462 0.1826446 0.1829244 0.1831946 0.1834686 0.1837474 0.1840218
 0.1842834 0.1845325 0.1847782 0.1850313 0.1852967 0.1855706 0.185846 0.1861181 0.1863877 0.1866578
 0.186927 0.1871881 0.1874373 0.1876808 0.1879281 0.1881834 0.188445 0.1887086 0.1889702 0.1892299
 0.1894943 0.1897686 0.1900505 0.1903324 0.1906077 0.1908721 0.1911253 0.1913732 0.1916247 0.1918856
 0.1921558 0.192432 0.1927087 0.1929803 0.1932433 0.1934984 0.1937527 0.1940139 0.1942806 0.1945446
 0.194803 0.1950623 0.1953261 0.195591 0.1958559 0.1961235 0.1963921 0.1966572 0.1969202 0.1971884
 0.1974673 0.1977566 0.1980493 0.1983347 0.1986043 0.1988561 0.1990928 0.1993216 0.1995527 0.1997915
 0.2000357 0.2002812 0.2005261 0.2007685 0.201009 0.2012545 0.2015099 0.2017697 0.2020288 0.2022891
 0.2025514 0.2028111 0.2030663 0.2033211 0.2035794 0.2038416 0.2041036 0.2043594 0.2046129 0.2048772
 0.2051546 0.2054306 0.2056957 0.2059581 0.2062258 0.2064953 0.2067602 0.2070166 0.2072652 0.2075139
 0.2077701 0.2080287 0.2082808 0.20853 0.208783 0.2090367 0.2092878 0.2095418 0.2098028 0.2100692
 0.2103372 0.2105995 0.2108515 0.2111036 0.2113687 0.2116391 0.2118988 0.2121485 0.2123981 0.2126537
 0.2129209 0.2131999 0.2134722 0.2137214 0.2139579 0.2142006 0.2144528 0.2147098 0.2149621 0.2151829
 0.2153178 0.2152388 0.2146207 0.2128105 0.2088125 0.2014835 0.1899829 0.1743001 0.1554465 0.1350988
 0.114978 0.09639755 0.08013271 0.06652389 0.0556509 0.04744329 0.04173999 0.03839283 0.03738962 0.0389927
 0.04387821 0.05272683 0.0647244 0.07625775 0.0823366 0.08053327 0.073297 0.06571787 0.06130434 0.06030188
 0.06121268 0.06275627 0.06452355 0.06674664 0.0698264 0.07386985 0.0786725 0.08422094 0.09093515 0.09913052
 0.1083788 0.1176934 0.126382 0.1345838 0.1429323 0.1517881 0.1608593 0.1694868 0.1771651 0.183796
 0.1895894 0.1948291 0.1997095 0.2043198 0.2087062 0.21287 0.2166698 0.2197802 0.2218522 0.2227792
 0.2228223 0.222461 0.2221125 0.221973 0.2220687 0.2223733 0.2228573 0.2234882 0.224237 0.2250796
 0.2259862 0.2269263 0.2278796 0.2288268 0.2297384 0.2305862 0.2313558 0.2320435 0.2326554 0.2332102
 0.2337281 0.234216 0.2346726 0.2350997 0.2355044 0.2358932 0.2362681 0.2366239 0.2369515 0.2372487
 0.2375213 0.2377731 0.2380045 0.2382199 0.2384281 0.2386367 0.2388503 0.2390704 0.2392946 0.239521
 0.2397548 0.24 0.240247 0.2404791 0.2406895 0.2408859 0.2410795 0.2412764 0.2414758 0.2416749
 0.2418756 0.2420839 0.2423013 0.2425215 0.2427373 0.2429467 0.2431506 0.2433529 0.2435586 0.2437677
 0.2439773 0.2441911 0.2444168 0.244653 0.2448917 0.2451296 0.2453656 0.2455929 0.2458103 0.2460274
 0.2462461 0.2464501 0.2466265 0.2467893 0.2469705 0.2471904 0.2474383 0.2476821 0.2479017 0.2481081
 0.2483228 0.2485493 0.2487714 0.2489702 0.2491418 0.2493111 0.249519 0.2497793 0.250063 0.2503367
 0.2505957 0.2508488 0.2511038 0.2513711 0.2516478 0.2518927 0.2520594 0.2521641 0.2522978 0.2525545
 0.2529409 0.2533619 0.2537104 0.2539647 0.2541822 0.2544258 0.2547207 0.2550324 0.2552477 0.2552566
 0.2551249 0.2551115 0.2554277 0.256026 0.2566809 0.2572173 0.2576114 0.2579265 0.258215 0.2584656
 0.2586144 0.2586136 0.2585224 0.2585244 0.2588008 0.2593497 0.2599759 0.260489 0.2608518 0.2611169
 0.2613254 0.2614978 0.2615909 0.2614419 0.2609446 0.2603507 0.2602009 0.2608061 0.2618968 0.2629056
 0.2635257 0.2638712 0.2641605 0.2644472 0.2646739 0.2647259 0.264319 0.2631647 0.2615403 0.2604376
 0.260747 0.2623653 0.2643666 0.2659231 0.2668239 0.2672722 0.2675301 0.2677409 0.2678182 0.2674534
 0.2664602 0.2652318 0.2646432 0.265246 0.2666531 0.2679566 0.2686555 0.2689214 0.2691176 0.2693912
 0.2695721 0.2691224 0.2674419 0.2647496 0.2625242 0.2624618 0.2648181 0.2681061 0.270574 0.2717124
 0.2721125 0.2721743 0.2715133 0.2696477 0.2667184 0.2634277 0.2608231 0.2601539 0.2620391 0.2654349
 0.2682311 0.269333 0.2695857 0.2703795 0.2719915 0.2736005 0.2743616 0.2740582 0.2729459 0.2712895
 0.2692446 0.2672926 0.2664908 0.2677212 0.2706209 0.2737145 0.2757758 0.2767578 0.2771529 0.2765573
 0.273376 0.2667392 0.2589112 0.2546751 0.2571113 0.2643745 0.2716768 0.2759996 0.2777523 0.2785253
 0.2789497 0.2785282 0.2759302 0.2697152 0.2606088 0.2529458 0.2517433 0.2577339 0.2665314 0.2727245
 0.2735684 0.2692757 0.2620369 0.2553635 0.2526582 0.2551557 0.2613813 0.2686064 0.2744873 0.2777098
 0.2779758 0.2758741 0.2728286 0.2707469 0.2706425 0.2711348 0.2694994 0.2651154 0.2605129 0.2576649
 0.254929 0.2500666 0.2451261 0.2450869 0.2513862 0.259527 0.2641366 0.2644154 0.2631781 0.2617349
 0.2576635 0.2483055 0.2357968 0.2271649 0.2281777 0.237362 0.2473264 0.2519968 0.251436 0.2496758
 0.2493268 0.2489271 0.2450292 0.2367088 0.2278384 0.2238432 0.2259474 0.230083 0.2317073 0.2294338
 0.2234622 0.2141141 0.2044101 0.2010004 0.2085457 0.2240036 0.2390238 0.2468373 0.2447356 0.2325482
 0.2135388 0.1963469 0.1907977 0.1991214 0.2132574 0.2222829 0.2210945 0.211309 0.1965633 0.180007
 0.1657613 0.1593935 0.1645729 0.1793324 0.1961574 0.2057574 0.2022079 0.1875319 0.1720182 0.1668131
 0.1738212 0.184433 0.1891714 0.1862762 0.1803522 0.1764074 0.1769436 0.1815723 0.1874538 0.1919395
 0.1946801 0.1947129 0.1876367 0.1709445 0.1511394 0.1394566 0.1401781 0.1484442 0.1592796 0.1720287
 0.1844939 0.1898967 0.184536 0.1748334 0.1718717 0.1796329 0.1915891 0.1986778 0.1982609 0.1945883
 0.1922124 0.1911352 0.1890993 0.1868445 0.1882835 0.1951021 0.2038074 0.2096258 0.211475 0.2115218
 0.2115174 0.2114776 0.210938 0.2097506 0.2079911 0.2060649 0.2045851 0.2036743 0.2028489 0.201744
 0.2000817 0.1965996 0.1893506 0.1784883 0.1679972 0.1625583 0.1626228 0.164735 0.1666591 0.1686778
 0.1688105 0.1614814 0.1448924 0.1270484 0.1199308 0.1279351 0.1446104 0.1599846 0.1681441 0.1677134
 0.1589362 0.1440417 0.1298216 0.1254756 0.1350708 0.1536326 0.1724886 0.1867374 0.1957427 0.1989854
 0.1952826 0.1858991 0.1757503 0.1706045 0.1735937 0.1838137 0.1965785 0.2045911 0.2015168 0.1883164
 0.1761049 0.1779498 0.1950983 0.2148222 0.2247201 0.2252985 0.2248762 0.2266556 0.2271591 0.2253705
 0.2263644 0.2343285 0.2463804 0.2554054 0.256304 0.2479965 0.2327296 0.2165522 0.2077457 0.2101999
 0.2189994 0.2257712 0.2267927 0.2225118 0.2125922 0.1979334 0.1858794 0.1858106 0.198259 0.2136615
 0.2232244 0.226925 0.2295398 0.2324246 0.2318946 0.224832 0.2138827 0.2058223 0.2048465 0.2088941
 0.2131331 0.2150591 0.2145521 0.2110069 0.2037071 0.1949998 0.1903108 0.1934457 0.2026732 0.2123672
 0.2180552 0.2192256 0.2179773 0.2163315 0.2148765 0.2129506 0.2100114 0.2074052 0.2080973 0.2134508
 0.2209655 0.2268074 0.230182 0.2335861 0.2388815 0.244703 0.2480865 0.2476884 0.2450762 0.2433859
 0.2448115 0.2488482 0.2526515 0.2534595 0.251219 0.248881 0.2496865 0.2540787 0.2596341 0.2638201
 0.2660682 0.2672625 0.2682484 0.2691049 0.2690959 0.2672427 0.2637342 0.2607501 0.2609158 0.2646918
 0.2699226 0.2740427 0.27613 0.276774 0.2766922 0.2759778 0.2744883 0.2725145 0.2708152 0.2700309
 0.27023 0.2710477 0.2720774 0.2730497 0.2738219 0.2743715 0.2747639 0.2750614 0.2752925 0.2754931
 0.2756857 0.2758124 0.2757936 0.2756888 0.2757025 0.2759617 0.2763521 0.2766392 0.2766818 0.2764383
 0.2758374 0.274798 0.2733766 0.2717549 0.2700362 0.2681763 0.2662272 0.2646071 0.2639824 0.2647719
 0.2667615 0.2692305 0.2714473 0.2730407 0.2739998 0.2744823 0.2746754 0.2747427 0.2747838 0.2748122
 0.2747847 0.2746677 0.2744694 0.2742205 0.2739461 0.2736701 0.2734257 0.2732348 0.2730774 0.2728991
 0.2726498 0.2723109 0.2718962 0.2714389 0.2709672 0.2704746 0.2699123 0.2692212 0.2683808 0.267433
 0.2664604 0.2655384 0.2646901 0.2638767 0.2630304 0.2620983 0.2610473 0.2598412 0.258464 0.2569878
 0.2555683 0.2543264 0.2532486 0.2522255 0.251155 0.2499847 0.2486976 0.2473043 0.2458419 0.2443547
 0.2428693 0.2413857 0.2398823 0.2383263 0.2366895 0.2349601 0.233144 0.2312601 0.2293352 0.2273912
 0.2254154 0.223331 0.2210039 0.2182921 0.2150908 0.2113369 0.2070123 0.2021782 0.1969991 0.1917061
 0.1865234 0.181616 0.1770857 0.1730051 0.1694549 0.1665208 0.1642583 0.1626798 0.1617814 0.1615675
 0.1620418 0.1631806 0.1649075 0.16709 0.1695702 0.1722004 0.1748454 0.1773729 0.1796832 0.1817637
 0.1836904 0.1855514 0.1873648 0.1890748 0.1906229 0.1919994 0.1932215 0.1942874 0.1951786 0.1958944
 0.196463 0.1969225 0.1973057 0.1976336 0.1979171 0.1981653 0.1983887 0.1985948 0.1987971 0.1990291
 0.1993281 0.1997058 0.2001527 0.2006691 0.2012685 0.2019544 0.2027081 0.2035036 0.2043274 0.2051845
 0.2060888 0.2070555 0.2081124 0.2093071 0.2106861 0.2122642 0.2140158 0.2158816 0.2177784 0.2196141
 0.2213038 0.2227729 0.2239642 0.2248609 0.2254925 0.2259046 0.2261312 0.2261958 0.2261253 0.2259514
 0.2257019 0.225391 0.2250224 0.2246047 0.2241489 0.2236446 0.2230651 0.2224136 0.2217361 0.2210742
 0.2204316 0.2198015 0.219196 0.2186291 0.2180917 0.2175612 0.2170251 0.2164837 0.2159339 0.215362
 0.2147549 0.2141068 0.2134042 0.2126195 0.2117302 0.210732 0.2096217 0.2083905 0.2070423 0.2055991
 0.2040838 0.2025133 0.2009049 0.1992663 0.1975838 0.1958312 0.193981 0.1920104 0.1899244 0.1877818
 0.1856782 0.1836932 0.1818531 0.1801349 0.1784978 0.1769178 0.1753974 0.1739413 0.1725411 0.1711934
 0.169911 0.1687011 0.1675511 0.1664495 0.1654076 0.1644529 0.1636116 0.1628924 0.1622793 0.161744
 0.1612649 0.1608361 0.1604688 0.1601929 0.1600353 0.159981 0.1599636 0.159903 0.1597529 0.1595232
 0.159266 0.1590315 0.1588316 0.1586487 0.1584633 0.1582461 0.1579378 0.1574649 0.15677 0.1558132
 0.1545627 0.1530095 0.1511963 0.1492318 0.1472728 0.1454705 0.1439219 0.1426678 0.1417088 0.1409949
 0.1404326 0.1399481 0.139541 0.139261 0.1391525 0.1392086 0.1393413 0.1394141 0.1393616 0.1392731
 0.1393228 0.1396247 0.1401636 0.1408277 0.1414856 0.1420484 0.1424779 0.142757 0.142888 0.1429097
 0.1428692 0.1427774 0.1426222 0.1424008 0.1421129 0.1417556 0.1413421 0.1408843 0.1403607 0.1397395
 0.13902 0.1382189 0.1373456 0.1364009 0.1353643 0.1342046 0.1329691 0.1318487 0.1310962 0.1308777
 0.1311884 0.1318649 0.1326976 0.1335718 0.1344414 0.135147 0.1354443 0.1353706 0.1354567 0.1363458
 0.1381666 0.1403897 0.1423086 0.1435537 0.1441245 0.1441185 0.1436007 0.1426341 0.1412401 0.1393697
 0.1370295 0.1343544 0.1314921 0.1285504 0.1256878 0.1230994 0.120902 0.1191215 0.1177362 0.1167639
 0.1163272 0.1160822 0.1142402 0.1084991 0.0995836 0.09284309 0.0937677 0.1018261 0.1108272 0.1154727
 0.1155872 0.1139642 0.1125421 0.111623 0.111119 0.111175 0.1119224 0.1132224 0.1146722 0.1158425
 0.1165563 0.1168643 0.11675 0.1158991 0.1136423 0.1091782 0.1022191 0.09358092 0.08491182 0.07772303
 0.07270373 0.06973264 0.06820609 0.06740168 0.06684831 0.06652944 0.06674266 0.06775887 0.06960411 0.07211637
 0.07510269 0.07833058 0.0814305 0.08402762 0.08602712 0.08761021 0.08891477 0.08986753 0.09034083 0.09032592
 0.08992946 0.08930057 0.08857389 0.08781307 0.08697779 0.08597443 0.08479637 0.08363512 0.08278167 0.08236822
 0.08227222 0.08229642 0.08233617 0.08235212 0.08231633 0.08223309 0.08213912 0.08208915 0.08217693 0.08249117
 0.0829936 0.08351102 0.08388448 0.08408405 0.08418138 0.08421914 0.08408808 0.08361492 0.08286107 0.0821708
 0.08173049 0.08125389 0.08037321 0.07921924 0.07833868 0.07809231 0.07834224 0.07868503 0.07881033 0.07865056
 0.07836615 0.07826082 0.07857743 0.07922654</values></Ydata></ScSm><ScRf><Ydata ylabel="Single channel"><values byteorder="INTEL" format="FLOAT32" numvalues="1820"> 0.06066863 0.06081687 0.06090256 0.06093036 0.06092378 0.06092516 0.06098283 0.0611201 0.06131261 0.06149912
 0.06162496 0.06168085 0.06169103 0.06166984 0.06162083 0.06158039 0.06161805 0.06176712 0.0619735 0.06213038
 0.06216487 0.06210369 0.06205863 0.06211695 0.06222393 0.06219916 0.06190759 0.06141672 0.06095305 0.06069196
 0.06064675 0.06080555 0.06124743 0.06192808 0.06243268 0.06226967 0.06148804 0.06071613 0.0604662 0.06064282
 0.06082712 0.06076284 0.06044142 0.06001362 0.05983231 0.06035273 0.06168377 0.06322306 0.06387831 0.06275998
 0.05981662 0.05602805 0.05303928 0.05228116 0.05396719 0.05680557 0.05896509 0.0595344 0.05896281 0.05813722
 0.05742376 0.05677453 0.05634819 0.05655657 0.05749689 0.05855448 0.05871458 0.05743521 0.05529741 0.05359419
 0.05314573 0.05378123 0.05503624 0.05666012 0.05791264 0.05715587 0.05346457 0.04867583 0.04657643 0.0493039
 0.05506328 0.05987934 0.06113304 0.05903661 0.05548592 0.05248537 0.0513825 0.05250553 0.055118 0.05803408
 0.06033209 0.06138365 0.06069493 0.05834265 0.05539199 0.05337362 0.05334115 0.0554636 0.05899368 0.06233133
 0.0637473 0.06266093 0.06002845 0.057334 0.05561282 0.05544912 0.05711776 0.06029786 0.06405982 0.06740277
 0.06965923 0.07056202 0.07030551 0.06942631 0.06839266 0.06751788 0.06724399 0.06787517 0.06884494 0.06892702
 0.06757236 0.06564806 0.06454676 0.0647468 0.06543119 0.06547932 0.06459932 0.06314693 0.06101932 0.0576317
 0.05326347 0.04941846 0.04732244 0.04699124 0.04812948 0.05060497 0.05338208 0.0544548 0.0530367 0.05096827
 0.05088894 0.05342172 0.05684642 0.05920674 0.06012632 0.06068197 0.06201289 0.06415179 0.06587602 0.06563016
 0.06307033 0.05993425 0.05881417 0.06061047 0.06366336 0.06579326 0.06659961 0.06721714 0.06833477 0.06913145
 0.06813592 0.06497577 0.06131282 0.05981331 0.06182414 0.0660239 0.06938109 0.06939423 0.06577519 0.06051863
 0.05634978 0.05483903 0.05598213 0.05923711 0.06412401 0.06967622 0.07419257 0.07618483 0.07545415 0.07302123
 0.0699603 0.06640007 0.06206966 0.05794949 0.05648612 0.0592825 0.06504669 0.07066632 0.0739861 0.07488506
 0.07406838 0.07173668 0.06778716 0.06310968 0.06001481 0.06043755 0.06360199 0.06645855 0.06687634 0.06558826
 0.06462318 0.06478003 0.06532794 0.0655625 0.06581667 0.06689463 0.06891838 0.07102548 0.07220046 0.07219307
 0.07156333 0.07103259 0.07082892 0.07051636 0.06961308 0.06855901 0.06866489 0.07067092 0.07372052 0.07623718
 0.07750499 0.07792906 0.07797773 0.07736798 0.07547589 0.07250513 0.06997418 0.06959264 0.0716062 0.0746356
 0.07711054 0.07840426 0.07869551 0.07839918 0.07788159 0.07734527 0.07689029 0.07676142 0.0772832 0.07839026
 0.07952663 0.08019843 0.08037494 0.08023804 0.07983102 0.07913445 0.07832074 0.07775319 0.07772323 0.0782309
 0.07903655 0.07987706 0.08055466 0.08088361 0.08075355 0.08028879 0.0797849 0.0794392 0.07926758 0.07927833
 0.07954472 0.08005169 0.08061369 0.08102365 0.08121505 0.08124185 0.0811682 0.08102301 0.08082883 0.08064543
 0.08057769 0.08070493 0.08097948 0.08125311 0.08145078 0.0816494 0.08191624 0.08214849 0.08217983 0.08200465
 0.0817962 0.08171651 0.08178233 0.08190887 0.08200637 0.08199961 0.08181369 0.08143756 0.0810204 0.08082046
 0.0809994 0.08150408 0.08215848 0.08279216 0.08327142 0.0835235 0.08358821 0.08357492 0.08353415 0.08342467
 0.08321855 0.08299328 0.08290552 0.0830764 0.08348511 0.08397511 0.08437831 0.08462062 0.08472158 0.08475958
 0.08484268 0.08502501 0.08522505 0.08530122 0.0852316 0.08515209 0.08519468 0.08533814 0.08544362 0.08541515
 0.08530642 0.08526475 0.0853772 0.08559363 0.08580557 0.0859703 0.08613552 0.08635103 0.08657144 0.08666825
 0.08656542 0.08634578 0.08617235 0.08611514 0.08612257 0.08615679 0.08626382 0.08647527 0.08671363 0.08685785
 0.08687916 0.08686417 0.08690149 0.08697691 0.08699799 0.08690373 0.08672671 0.08655548 0.08646253 0.08646677
 0.08653553 0.08660609 0.08662102 0.08656227 0.08645652 0.08634471 0.08625129 0.08619285 0.08620931 0.08635059
 0.08660184 0.08683745 0.08689617 0.08672671 0.08644612 0.08623558 0.08617689 0.08619495 0.0861519 0.08598119
 0.08572803 0.08548206 0.085296 0.08516558 0.08506188 0.08496957 0.08490816 0.08492561 0.08504972 0.08522481
 0.08531755 0.08522443 0.08497351 0.08469588 0.08450477 0.08442354 0.08440848 0.08440483 0.08439301 0.08440554
 0.08448009 0.08458326 0.08462172 0.0845513 0.08443549 0.08437935 0.08444403 0.08462633 0.08486071 0.08503094
 0.08504447 0.08492547 0.08479699 0.08475736 0.08480608 0.08489138 0.08498259 0.0850756 0.08516501 0.08524823
 0.08534898 0.08550875 0.0857451 0.08602419 0.08627811 0.08645146 0.08654453 0.086622 0.08677168 0.08703687
 0.0873808 0.08771772 0.08798233 0.08817521 0.08834562 0.08853158 0.08872728 0.08891894 0.08913247 0.08941141
 0.08975226 0.09009752 0.09039769 0.09065455 0.09090032 0.09116 0.09144308 0.09176018 0.09213364 0.09257534
 0.09304288 0.09343901 0.09368774 0.09381153 0.09391722 0.09411193 0.09443364 0.09482783 0.0951729 0.09537055
 0.09544742 0.09553872 0.09574142 0.09601633 0.09627 0.09649864 0.09679389 0.09721181 0.09768404 0.09807695
 0.09831901 0.09845673 0.09859176 0.09877262 0.09895571 0.09907573 0.09913762 0.09921097 0.09934177 0.09951694
 0.09972876 0.1000181 0.1004107 0.1008465 0.1012235 0.101494 0.1016823 0.1018299 0.1019569 0.1020607
 0.1021249 0.1021452 0.1021602 0.102224 0.1023359 0.1024322 0.1024702 0.1024858 0.1025472 0.1026868
 0.1029009 0.1031804 0.1035037 0.1038203 0.1040938 0.1043585 0.1046848 0.1050678 0.1053977 0.1055761
 0.105626 0.1056421 0.1056696 0.1056973 0.1057451 0.105881 0.1061384 0.1064731 0.106821 0.1071616
 0.1075099 0.1078675 0.1081972 0.1084388 0.1085509 0.1085474 0.1084977 0.1084918 0.1085976 0.1088316
 0.1091507 0.1094793 0.1097571 0.1099578 0.1100638 0.1100624 0.1099918 0.1099598 0.1100587 0.1102595
 0.1104233 0.1104215 0.1102194 0.1098459 0.10933 0.108696 0.1079969 0.1073213 0.1067575 0.1063567
 0.1061358 0.106113 0.1063244 0.1067829 0.1074253 0.108128 0.1087783 0.1093019 0.1096205 0.1096387
 0.1093136 0.1087148 0.1079844 0.1072484 0.1065737 0.1059699 0.1054018 0.1048329 0.104305 0.103971
 0.1040233 0.1045785 0.10562 0.1070126 0.1085465 0.1100023 0.1112329 0.1122161 0.1130271 0.1137528
 0.1144361 0.1150925 0.1157437 0.1164019 0.1170348 0.1175869 0.1180441 0.1184475 0.1188411 0.119229
 0.1195852 0.1198824 0.1201181 0.1203232 0.1205307 0.120721 0.1208264 0.1208102 0.1207119 0.1205939
 0.1204697 0.1203014 0.1200429 0.119674 0.1192279 0.1188211 0.1186413 0.1188628 0.1195426 0.1205877
 0.1218303 0.1231326 0.1244108 0.1255801 0.126533 0.127206 0.127639 0.1279401 0.1282047 0.1284796
 0.1287769 0.1290914 0.1294087 0.129715 0.1300064 0.1302955 0.1306064 0.1309508 0.1313027 0.1316113
 0.131855 0.1320739 0.1323385 0.1326822 0.1330688 0.1334303 0.1337406 0.1340383 0.1343634 0.134689
 0.1349493 0.1351258 0.1352741 0.13547 0.1357536 0.1361172 0.136508 0.1368487 0.1370895 0.1372496
 0.1373933 0.1375696 0.1377859 0.1380288 0.138287 0.1385539 0.138824 0.1390973 0.1393815 0.1396786
 0.1399656 0.1402018 0.1403697 0.1405031 0.1406599 0.1408659 0.1410966 0.1413118 0.1415027 0.1417046
 0.1419631 0.1422826 0.1426108 0.1428796 0.1430635 0.1431933 0.1433193 0.1434725 0.1436554 0.1438563
 0.1440628 0.1442663 0.1444632 0.1446593 0.1448668 0.1450929 0.1453293 0.1455593 0.1457732 0.1459738
 0.1461682 0.1463615 0.1465631 0.146792 0.1470652 0.1473736 0.1476748 0.147922 0.1481018 0.1482395
 0.1483691 0.1485087 0.148663 0.1488333 0.1490194 0.1492158 0.1494147 0.1496123 0.1498087 0.150006
 0.1502074 0.1504183 0.1506422 0.1508739 0.1511028 0.1513254 0.1515491 0.151777 0.1519978 0.1521968
 0.1523746 0.1525504 0.152744 0.1529552 0.1531622 0.153346 0.1535122 0.1536838 0.153874 0.1540762
 0.1542776 0.1544732 0.154665 0.1548559 0.1550468 0.1552368 0.1554269 0.1556212 0.1558244 0.1560365
 0.1562507 0.1564577 0.1566525 0.1568398 0.1570301 0.1572306 0.1574402 0.1576544 0.1578684 0.1580759
 0.1582709 0.1584536 0.1586302 0.1588069 0.1589873 0.159174 0.1593705 0.1595781 0.1597909 0.1599988
 0.1601973 0.1603913 0.1605877 0.160789 0.1609965 0.1612129 0.161436 0.1616579 0.1618721 0.1620781
 0.1622804 0.1624884 0.1627123 0.162952 0.1631925 0.1634185 0.1636275 0.1638289 0.1640301 0.1642283
 0.164414 0.1645839 0.1647476 0.1649184 0.1651002 0.1652871 0.1654716 0.1656512 0.1658292 0.1660102
 0.1661936 0.166378 0.1665685 0.1667719 0.1669847 0.1671975 0.1674064 0.167613 0.1678173 0.1680182
 0.1682167 0.168412 0.1686037 0.1687975 0.1690001 0.1692127 0.1694331 0.1696585 0.1698824 0.1701003
 0.1703155 0.1705339 0.1707546 0.170974 0.1711871 0.1713869 0.1715726 0.1717571 0.1719547 0.1721668
 0.1723857 0.1726045 0.172821 0.1730378 0.1732588 0.1734787 0.1736859 0.1738799 0.1740717 0.1742687
 0.1744741 0.1746921 0.174921 0.1751522 0.1753812 0.1756067 0.1758203 0.1760168 0.1762059 0.1764001
 0.1766034 0.1768169 0.1770346 0.1772318 0.1773612 0.1773145 0.1768167 0.1753207 0.1720019 0.1659244
 0.1564056 0.1434397 0.1278524 0.1110189 0.09436484 0.07899041 0.06554656 0.05430982 0.0453323 0.03854733
 0.03382719 0.03106301 0.03025204 0.03160278 0.03565587 0.04296213 0.052855 0.06236686 0.06738593 0.06590226
 0.05993013 0.05367324 0.05003406 0.04921471 0.04997296 0.05125009 0.05271198 0.05455189 0.05709869 0.06044194
 0.06442165 0.06903555 0.07462834 0.08144882 0.0891334 0.09686503 0.1040747 0.1108811 0.117811 0.125163
 0.1326938 0.1398574 0.1462349 0.1517423 0.1565528 0.1609104 0.164989 0.1688646 0.1725619 0.1760633
 0.17924 0.1818257 0.1835463 0.1843281 0.184389 0.184116 0.1838453 0.1837388 0.1838235 0.1840828
 0.1844944 0.1850326 0.1856746 0.1864011 0.1871862 0.188002 0.1888276 0.1896408 0.190414 0.1911313
 0.1917969 0.1924171 0.19299 0.1935125 0.1939842 0.194407 0.1947914 0.1951542 0.1955052 0.1958438
 0.19617 0.1964843 0.196782 0.1970575 0.1973128 0.1975538 0.1977842 0.1980058 0.1982199 0.1984286
 0.1986348 0.1988411 0.1990461 0.1992477 0.1994491 0.199654 0.1998602 0.200063 0.2002605 0.2004537
 0.2006454 0.20084 0.2010399 0.2012408 0.2014354 0.2016205 0.2017977 0.2019709 0.2021461 0.2023262
 0.2025104 0.2026981 0.2028925 0.2030953 0.2033059 0.2035255 0.2037548 0.2039884 0.2042202 0.2044502
 0.204678 0.2048968 0.2051019 0.2052958 0.2054785 0.2056443 0.2057967 0.2059566 0.2061462 0.2063672
 0.2065968 0.2068096 0.2070034 0.2071961 0.2073994 0.2076057 0.2078028 0.207985 0.2081572 0.208341
 0.2085646 0.2088277 0.2090935 0.2093334 0.2095564 0.2097833 0.2100209 0.2102669 0.2105094 0.2107175
 0.2108661 0.2109815 0.2111406 0.2114086 0.2117744 0.2121517 0.2124562 0.2126812 0.2128819 0.213108
 0.2133725 0.2136459 0.2138429 0.2138759 0.2137902 0.2137896 0.214054 0.2145617 0.2151375 0.2156321
 0.2160114 0.2163156 0.2165831 0.216808 0.2169455 0.2169674 0.2169293 0.2169801 0.2172579 0.2177502
 0.2182916 0.2187302 0.2190442 0.2192838 0.2194835 0.2196571 0.2197644 0.2196648 0.2192669 0.2187869
 0.2186868 0.2192287 0.2201805 0.2210633 0.2216215 0.22195 0.2222273 0.2224981 0.2227214 0.2228059
 0.2225087 0.2215771 0.2202413 0.2193465 0.2196547 0.2210761 0.2228124 0.2241534 0.2249261 0.2253162
 0.2255541 0.2257605 0.2258588 0.2255906 0.2248071 0.223844 0.2234322 0.2240235 0.2252798 0.2264311
 0.2270575 0.2273123 0.2275097 0.2277769 0.2279662 0.2276146 0.2262094 0.2239432 0.2220874 0.2220926
 0.2241691 0.227035 0.2291883 0.2302013 0.2305949 0.2307175 0.2302286 0.2286994 0.2262507 0.2234954
 0.2213337 0.2208226 0.2224818 0.2254227 0.2278525 0.2288436 0.2291186 0.229865 0.2313209 0.2327792
 0.233503 0.2332981 0.2323953 0.2310411 0.2293718 0.2277867 0.2271811 0.228311 0.2308691 0.233592
 0.2354289 0.2363423 0.2367584 0.2363284 0.2336739 0.2280433 0.2213861 0.2178152 0.2199743 0.2262775
 0.2326161 0.2364008 0.2379847 0.238737 0.239199 0.2389327 0.2367824 0.2315113 0.2237591 0.2172698
 0.2163579 0.2216349 0.2293089 0.2347249 0.2355323 0.2319177 0.225764 0.2200974 0.2178554 0.2201095
 0.2255978 0.2319719 0.2371991 0.240126 0.2404824 0.2387767 0.2362521 0.2345779 0.2346387 0.2352223
 0.2339431 0.2302539 0.2263588 0.2239816 0.2217027 0.2175863 0.2134345 0.2136004 0.2193319 0.2266796
 0.2309317 0.2313928 0.2305319 0.2294843 0.2261074 0.2180669 0.2072606 0.1998967 0.2010625 0.2094396
 0.2184808 0.2228222 0.2225467 0.2212507 0.2212565 0.2212484 0.2181258 0.2110473 0.2034913 0.200335
 0.2026628 0.2067926 0.2086311 0.2069384 0.2018999 0.1938133 0.1854318 0.1828071 0.1901907 0.2048311
 0.2191245 0.2268665 0.2255124 0.2148271 0.1977974 0.182474 0.1780463 0.1866024 0.2005907 0.2097719
 0.2093451 0.2007886 0.1874799 0.1723986 0.1595421 0.1543543 0.1604616 0.1759977 0.1936194 0.2041361
 0.201585 0.1878971 0.1733682 0.1692558 0.1774985 0.1893446 0.1951449 0.1931068 0.1879338 0.1847887
 0.1863255 0.1921813 0.1993554 0.2050381 0.2088571 0.2097002 0.2027016 0.1850904 0.1639305 0.1514645
 0.1523995 0.1614991 0.1733844 0.1873617 0.2010341 0.2069828 0.2011393 0.1905039 0.1871868 0.1955482
 0.2084643 0.2160394 0.215401 0.2112209 0.2085123 0.2072981 0.2051029 0.2027229 0.2044352 0.2120937
 0.2218939 0.228624 0.2310878 0.2316318 0.2321596 0.2326827 0.2326759 0.2319593 0.2306114 0.2290834
 0.2280629 0.2277049 0.2274874 0.2270021 0.2259214 0.2227805 0.2152982 0.2035761 0.1921349 0.1863336
 0.1866895 0.1892459 0.1914656 0.193707 0.1937169 0.1850936 0.1657337 0.1447542 0.1358537 0.1440786
 0.1620704 0.1784596 0.1865755 0.1850198 0.1742733 0.1569011 0.1402646 0.1342129 0.1430485 0.1613987
 0.1799602 0.1935175 0.2015256 0.2036545 0.1988053 0.1882887 0.1771012 0.1710636 0.1732718 0.1827365
 0.1947185 0.2019518 0.198199 0.1844497 0.1716515 0.172634 0.188653 0.2073029 0.2164613 0.2165598
 0.2156657 0.2169338 0.2170506 0.2150495 0.2158277 0.2234363 0.235122 0.2440429 0.245275 0.2377492
 0.2236084 0.2086986 0.201051 0.2044096 0.2139062 0.2212945 0.2229002 0.2191458 0.209695 0.195485
 0.1838699 0.1842021 0.197001 0.212732 0.2226414 0.2267291 0.2297679 0.2330835 0.2329501 0.2262407
 0.2156551 0.2080591 0.2077033 0.2125114 0.2176047 0.2204475 0.2208818 0.2182137 0.2116443 0.2035867
 0.1996961 0.2039531 0.214518 0.2254187 0.2318686 0.2332554 0.2317497 0.2294864 0.2271279 0.2240305
 0.2196689 0.215491 0.2146417 0.2186072 0.2248585 0.2294584 0.2315748 0.2337526 0.2379065 0.2426808
 0.2451039 0.2438326 0.2404216 0.2379586 0.2385882 0.2418172 0.2448876 0.2451291 0.2425009 0.239873
 0.2403866 0.2444575 0.2497247 0.2537332 0.2559289 0.257144 0.2581634 0.2590396 0.2590549 0.2572636
 0.2538403 0.2508679 0.2508599 0.2542634 0.259034 0.262751 0.2645727 0.2650852 0.2649628 0.2642656
 0.2628444 0.2609875 0.2594315 0.2587779 0.2590568 0.2598788 0.260837 0.2616926 0.2623477 0.2628051
 0.2631234 0.2633426 0.2634769 0.2635662 0.2636509 0.2636889 0.2636015 0.2634369 0.263388 0.2635819
 0.2639183 0.2641816 0.2642426 0.2640623 0.2635654 0.262659 0.2613825 0.2599075 0.2583443 0.2566632
 0.2549195 0.2535098 0.2530586 0.2539485 0.255964 0.2584197 0.2606238 0.2622203 0.2631924 0.2636898
 0.2638958 0.2639655 0.2639867 0.2639659 0.2638647 0.2636572 0.2633559 0.2629954 0.2626061 0.2622125
 0.2618466 0.2615366 0.2612729 0.2610005 0.260658 0.2602214 0.2597104 0.2591662 0.2586199 0.2580623
 0.2574408 0.256698 0.2558204 0.254855 0.2538869 0.2529942 0.2522012 0.2514641 0.2507134 0.2499031
 0.2490061 0.2479889 0.246844 0.2456555 0.244579 0.2437211 0.243052 0.2424503 0.2418044 0.2410561
 0.2401887 0.2392175 0.2381848 0.2371278 0.2360467 0.2349186 0.2337286 0.2324735 0.2311452 0.2297281
 0.2282129 0.2266107 0.2249569 0.2232934 0.2216226 0.2198729 0.217914 0.2156036 0.2128176 0.2094653
 0.2055175 0.201044 0.1962152 0.1912513 0.1863549 0.1816809 0.1773497 0.1734656 0.1701142 0.1673575
 0.1652434 0.1638147 0.1631033 0.1631198 0.1638484 0.1652457 0.1672364 0.169708 0.1725127 0.1754836
 0.1784563 0.1812899 0.1838974 0.1862783 0.1885038 0.1906357 0.1926565 0.1944974 0.1961175 0.1975291
 0.198754 0.1997924 0.2006417 0.2013254 0.2018877 0.2023657 0.2027777 0.2031358 0.2034543 0.2037375
 0.2039747 0.2041626 0.2043241 0.2044939 0.2046939 0.2049282 0.2051961 0.2055056 0.2058765 0.2063218
 0.2068245 0.2073494 0.2078798 0.2084295 0.2090215 0.2096725 0.2104014 0.2112352 0.2121999 0.2133074
 0.2145481 0.2158881 0.2172712 0.2186221 0.2198509 0.2208727 0.2216363 0.2221368 0.222404 0.2224803
 0.2224056 0.2222115 0.2219216 0.2215546 0.2211212 0.2206211 0.2200506 0.2194137 0.218727 0.2180142
 0.2172956 0.2165837 0.2158838 0.2151948 0.2145112 0.2138331 0.2131762 0.2125597 0.211982 0.2114205
 0.2108557 0.2102859 0.2097183 0.2091585 0.2086043 0.2080357 0.2074114 0.20669 0.2058555 0.2049177
 0.2038867 0.2027602 0.2015391 0.2002451 0.1989037 0.1975111 0.196035 0.1944524 0.1927746 0.1910251
 0.1892055 0.1872992 0.1853103 0.1832906 0.1813205 0.1794636 0.1777417 0.1761429 0.1746438 0.1732272
 0.1718891 0.1706298 0.1694383 0.1682925 0.1671786 0.1661025 0.1650799 0.1641228 0.163238 0.1624322
 0.161711 0.1610705 0.1604991 0.1599966 0.1595811 0.1592654 0.15904 0.1588902 0.1588132 0.1587998
 0.1588187 0.1588317 0.1588119 0.1587451 0.1586335 0.1585002 0.1583763 0.1582873 0.1582423 0.1582107
 0.1581076 0.1578207 0.1572567 0.1563652 0.1551461 0.153648 0.1519452 0.1501214 0.1482847 0.146567
 0.1450788 0.1438742 0.1429573 0.1422869 0.1417836 0.1413759 0.1410508 0.1408538 0.1408461 0.1410386
 0.1413321 0.1415554 0.141618 0.1416108 0.1417269 0.1421045 0.142745 0.1435301 0.144303 0.1449627
 0.1454811 0.1458515 0.1460752 0.1461868 0.1462255 0.1461904 0.146072 0.1458929 0.1456747 0.1454065
 0.1450706 0.1446552 0.1441464 0.143546 0.1428753 0.142141 0.1413329 0.1404444 0.1394488 0.1383065
 0.1370733 0.1359628 0.1352422 0.1350835 0.1354905 0.1363014 0.1372948 0.1383425 0.1393796 0.1402189
 0.1406084 0.1406215 0.1408352 0.1419055 0.1439394 0.1463732 0.1484735 0.1498702 0.1505828 0.1507142
 0.1503067 0.1493961 0.1479922 0.1460533 0.1436069 0.1408059 0.1378008 0.1347096 0.1317221 0.1290459
 0.1267757 0.1249313 0.1235216 0.122587 0.1222379 0.1220747 0.1201831 0.1141378 0.1047554 0.09774308
 0.09889337 0.1075811 0.1172187 0.1222069 0.1223741 0.1206836 0.1191965 0.1182406 0.1177205 0.1177705
 0.1184928 0.1197258 0.1210969 0.122235 0.122976 0.1233296 0.1232334 0.1223346 0.1199162 0.1151392
 0.1077266 0.09855427 0.08935579 0.08172288 0.07639285 0.07325212 0.07167348 0.07088178 0.07034226 0.07001591
 0.07023533 0.0713086 0.073266 0.07594885 0.07917765 0.08269827 0.0860742 0.088875 0.09100629 0.09269036
 0.09409969 0.09515855 0.0957159 0.09575689 0.09539421 0.09476235 0.09397978 0.09313636 0.09223385 0.09117958
 0.08994478 0.08872763 0.08784218 0.08741748 0.08730651 0.08729899 0.08730371 0.08731261 0.08731578 0.08729459
 0.08724469 0.0872078 0.08729197 0.08759468 0.08807576 0.08856064 0.08888844 0.08903317 0.0890827 0.08908714
 0.08891992 0.08839244 0.08757691 0.08683652 0.08635693 0.08582261 0.08482306 0.08348043 0.08240293 0.08203499
 0.08226223 0.08264565 0.08284006 0.08275451 0.08251904 0.0824208 0.08271493 0.08331913 0.08378419 0.08372878
</values></Ydata></ScRf><Data_Parameters_AB><parameter name="DPF">1</parameter><parameter name="NPT">3497</parameter><parameter name="FXV">3996</parameter><parameter name="LXV">500</parameter><parameter name="CSF">1</parameter><parameter name="MXY">0.0602806098759174</parameter><parameter name="MNY">-0.092087097465992</parameter><parameter name="DAT">02/06/2022</parameter><parameter name="TIM">12:01:36.155 (GMT+2)</parameter><parameter name="DXU">WN</parameter></Data_Parameters_AB><AB__Qtest><MainReport name="Quality Test Report"><Header><Line><Legend>Test result ok/not ok [1/0]: </Legend><Value>0</Value></Line><Line><Legend>Method file: </Legend><Value>C:\Users\Public\Documents\Bruker\OPUS_8.2.28\QT\IRBT_v3_default.QT</Value></Line></Header><Matrix><Line><Legend></Legend><Legend>min</Legend><Legend>max</Legend><Legend>measured</Legend></Line><Line><Value>Absorption (X-Range 1):</Value><Value>0.400000</Value><Value>2.000000</Value><Value>0.120621</Value></Line><Line><Value>Noise (X-Range 4):</Value><Value></Value><Value>0.000300</Value><Value>0.000040</Value></Line><Line><Value>Signal/Noise (X-Range 2):</Value><Value>200.000000</Value><Value></Value><Value>40.113225</Value></Line><Line><Value>Signal/Noise (X-Range 3):</Value><Value>40.000000</Value><Value></Value><Value>22.972051</Value></Line><Line><Value>Water vapour (X-Range 5):</Value><Value></Value><Value>0.000300</Value><Value>0.000037</Value></Line><Line><Value>Signal/Water (X-Range 2):</Value><Value>100.000000</Value><Value></Value><Value>44.098159</Value></Line><Line><Value>Signal/Water (X-Range 3):</Value><Value>20.000000</Value><Value></Value><Value>25.254143</Value></Line><Line><Value>Fringes (X-Range 6):</Value><Value></Value><Value>0.000100</Value><Value>0.000062</Value></Line></Matrix></MainReport></AB__Qtest><Data_Parameters_ScSm><parameter name="DPF">1</parameter><parameter name="NPT">1814</parameter><parameter name="FXV">3996.33169228125</parameter><parameter name="LXV">499.541461535156</parameter><parameter name="CSF">1</parameter><parameter name="MXY">0.278949677944183</parameter><parameter name="MNY">0.0373896174132824</parameter><parameter name="DAT">02/06/2022</parameter><parameter name="TIM">12:01:36.155 (GMT+2)</parameter><parameter name="DXU">WN</parameter></Data_Parameters_ScSm><Data_Parameters_ScRf><parameter name="DPF">1</parameter><parameter name="NPT">1820</parameter><parameter name="FXV">4004.04661832813</parameter><parameter name="LXV">495.683998511719</parameter><parameter name="CSF">1</parameter><parameter name="MXY">0.265085160732269</parameter><parameter name="MNY">0.0302520357072353</parameter><parameter name="DAT">02/06/2022</parameter><parameter name="TIM">12:01:10.303 (GMT+2)</parameter><parameter name="DXU">WN</parameter></Data_Parameters_ScRf><Optic_Parameters_Rf><parameter name="APR">0</parameter><parameter name="APT">Open</parameter><parameter name="BMS">KBr</parameter><parameter name="DTC">RT-DLaTGS_IR-Biotyper [Microplate reader]</parameter><parameter name="HPF">0</parameter><parameter name="LPF">10.0</parameter><parameter name="LPV">4000</parameter><parameter name="PGR">0</parameter><parameter name="RCH">Module port</parameter><parameter name="RDX">0</parameter><parameter name="SRC">MIR</parameter><parameter name="VEL">10.0</parameter><parameter name="SON">Off</parameter></Optic_Parameters_Rf><Acquisition_Parameters_Rf><parameter name="ADT">1</parameter><parameter name="AQM">DD</parameter><parameter name="CFE">0</parameter><parameter name="COR">0</parameter><parameter name="DEL">0</parameter><parameter name="DLY">0</parameter><parameter name="HFW">8000</parameter><parameter name="LFW">0</parameter><parameter name="NSR">32</parameter><parameter name="PLF">AB</parameter><parameter name="RES">6</parameter><parameter name="RGN">-1</parameter><parameter name="STR">0</parameter><parameter name="TCL">MakeCompatibleScalar (0, {WSV=1.000000, ARV=0});</parameter><parameter name="TDL">37</parameter><parameter name="RPO">0</parameter></Acquisition_Parameters_Rf><FT_-_Parameters_Rf><parameter name="APF">B3</parameter><parameter name="HFQ">500</parameter><parameter name="LFQ">4000</parameter><parameter name="NLI">0</parameter><parameter name="PHR">24</parameter><parameter name="PHZ">ML</parameter><parameter name="SPZ">NO</parameter><parameter name="ZFF">1</parameter></FT_-_Parameters_Rf><Optic_Parameters_><parameter name="APR">0</parameter><parameter name="APT">Open</parameter><parameter name="BMS">KBr</parameter><parameter name="CHN">Module port</parameter><parameter name="DTC">RT-DLaTGS_IR-Biotyper [Microplate reader]</parameter><parameter name="HPF">0</parameter><parameter name="LPF">10.0</parameter><parameter name="LPV">4000</parameter><parameter name="PGN">0</parameter><parameter name="RDX">0</parameter><parameter name="SRC">MIR</parameter><parameter name="VEL">10.0</parameter><parameter name="SON">Off</parameter></Optic_Parameters_><FT_-_Parameters_><parameter name="APF">B3</parameter><parameter name="HFQ">500</parameter><parameter name="LFQ">4000</parameter><parameter name="NLI">0</parameter><parameter name="PHR">24</parameter><parameter name="PHZ">ML</parameter><parameter name="SPZ">NO</parameter><parameter name="ZFF">1</parameter></FT_-_Parameters_><Acquisition_Parameters_><parameter name="ADT">1</parameter><parameter name="AQM">DD</parameter><parameter name="CFE">0</parameter><parameter name="COR">0</parameter><parameter name="DEL">0</parameter><parameter name="DLY">0</parameter><parameter name="HFW">8000</parameter><parameter name="LFW">0</parameter><parameter name="NSS">32</parameter><parameter name="PLF">AB</parameter><parameter name="RES">6</parameter><parameter name="SOT">0</parameter><parameter name="TCL">MakeCompatibleScalar (0, {WSV=1.000000, ARV=0});</parameter><parameter name="TDL">37</parameter><parameter name="SPO">0</parameter><parameter name="SGN">-1</parameter></Acquisition_Parameters_><Instrument_Parameters_Rf><parameter name="HFL">15800.168544</parameter><parameter name="LFL">0</parameter><parameter name="LWN">15800.168544</parameter><parameter name="ABP">32197</parameter><parameter name="SSP">1</parameter><parameter name="ARG">2</parameter><parameter name="ASG">2</parameter><parameter name="ASS">32</parameter><parameter name="GFW">16</parameter><parameter name="GBW">16</parameter><parameter name="BFW">0</parameter><parameter name="BBW">0</parameter><parameter name="PKA">7268</parameter><parameter name="PKL">4996</parameter><parameter name="PRA">7452</parameter><parameter name="PRL">5001</parameter><parameter name="P2A">1</parameter><parameter name="P2L">1</parameter><parameter name="P2R">1</parameter><parameter name="P2K">1</parameter><parameter name="DAQ">0</parameter><parameter name="AG2">1</parameter><parameter name="SSM">1</parameter><parameter name="RSN">26125</parameter><parameter name="CRR">0</parameter><parameter name="SRT">1654171270.304</parameter><parameter name="DUR">19.6379852294922</parameter><parameter name="TSC">28.8</parameter><parameter name="MVD">0.33529344201088</parameter><parameter name="AN1">0.225818453521936</parameter><parameter name="AN2">0</parameter><parameter name="VSN">2.485 Apr  4 2017</parameter><parameter name="SRN">0085</parameter><parameter name="CAM">0</parameter><parameter name="INS">IR-Biotyper</parameter><parameter name="FOC">69</parameter><parameter name="RDY">1</parameter><parameter name="ARS">32</parameter></Instrument_Parameters_Rf><Sample_Parameters_><parameter name="BLD"></parameter><parameter name="CNM">Admin</parameter><parameter name="CPY"></parameter><parameter name="DPM"></parameter><parameter name="EXP">IRBT_v3_32Scans.XPM</parameter><parameter name="LCT"></parameter><parameter name="SFM">Microplate, HTS-XT</parameter><parameter name="SNM">220602-1054_AGS29F (D_2_2)_H7_7ce13b43-99b2-4cb2-a3c7-651dd59ff9f4.0</parameter><parameter name="XPP">C:\Users\Public\Documents\Bruker\OPUS_8.2.28\XPM</parameter><parameter name="IST">OK</parameter><parameter name="CPG">1252</parameter><parameter name="UID">830e7fac-399e-4d14-befe-83db15c122fd</parameter></Sample_Parameters_><Instrument_Parameters_><parameter name="HFL">15800.168544</parameter><parameter name="LFL">0</parameter><parameter name="LWN">15800.168544</parameter><parameter name="ABP">32197</parameter><parameter name="SSP">1</parameter><parameter name="ASG">2</parameter><parameter name="ARG">2</parameter><parameter name="ASS">32</parameter><parameter name="GFW">16</parameter><parameter name="GBW">16</parameter><parameter name="BFW">0</parameter><parameter name="BBW">0</parameter><parameter name="PKA">7985</parameter><parameter name="PKL">4988</parameter><parameter name="PRA">8278</parameter><parameter name="PRL">4993</parameter><parameter name="P2A">1</parameter><parameter name="P2L">1</parameter><parameter name="P2R">1</parameter><parameter name="P2K">1</parameter><parameter name="DAQ">0</parameter><parameter name="AG2">1</parameter><parameter name="SSM">1</parameter><parameter name="RSN">13688</parameter><parameter name="CRR">0</parameter><parameter name="SRT">1654171296.156</parameter><parameter name="DUR">19.6379852294922</parameter><parameter name="TSC">28.8</parameter><parameter name="MVD">0.328277677297592</parameter><parameter name="AN1">0.225834230214217</parameter><parameter name="AN2">0</parameter><parameter name="VSN">2.485 Apr  4 2017</parameter><parameter name="SRN">0085</parameter><parameter name="CAM">0</parameter><parameter name="INS">IR-Biotyper</parameter><parameter name="FOC">69</parameter><parameter name="RDY">1</parameter></Instrument_Parameters_><History/></OPUSDataFile>
