<?xml version="1.0" encoding="UTF-8" ?>
<OPUSDataFile><AB><Ydata ylabel="Absorbance Units"><values byteorder="INTEL" format="FLOAT32" numvalues="3497"> -0.08582859 -0.08586651 -0.0858885 -0.08589458 -0.08588375 -0.08585597 -0.08581734 -0.08576871 -0.08572182 -0.08567802
 -0.08565147 -0.08564202 -0.08565824 -0.08569574 -0.08574933 -0.08581357 -0.08587574 -0.08593764 -0.08599477 -0.086055
 -0.08612485 -0.08620371 -0.08629632 -0.08638796 -0.0864749 -0.08654387 -0.08658925 -0.08661359 -0.08661517 -0.08660828
 -0.0865939 -0.08658554 -0.08658397 -0.08659417 -0.08661567 -0.08664361 -0.08667703 -0.08670735 -0.08673533 -0.08675863
 -0.08677951 -0.08680306 -0.08682851 -0.08685852 -0.08688726 -0.08690847 -0.08692001 -0.0869141 -0.08690423 -0.08689272
 -0.08690093 -0.08693996 -0.08701073 -0.08712061 -0.0872374 -0.08735815 -0.08744926 -0.08750551 -0.08753018 -0.08752317
 -0.08751786 -0.08751549 -0.08754191 -0.08759401 -0.087667 -0.08775587 -0.08783932 -0.08791656 -0.08797438 -0.08801606
 -0.08804058 -0.08805284 -0.08805758 -0.08805985 -0.08806554 -0.08807614 -0.08809535 -0.088118 -0.08814363 -0.08816509
 -0.08817951 -0.08818792 -0.08818867 -0.08819448 -0.08820595 -0.08823983 -0.08829713 -0.08838427 -0.08850017 -0.08863179
 -0.0887759 -0.08890609 -0.08902089 -0.0890995 -0.08914543 -0.08915567 -0.08913653 -0.08909602 -0.08904152 -0.08898379
 -0.08892977 -0.08888993 -0.08886269 -0.08885252 -0.08884679 -0.08884058 -0.08882999 -0.08880967 -0.08879843 -0.08879818
 -0.08882686 -0.08888806 -0.08897021 -0.08907294 -0.08916856 -0.08925702 -0.0893319 -0.08939634 -0.08946777 -0.08954693
 -0.08964788 -0.08976451 -0.08989022 -0.09001607 -0.09012233 -0.09020845 -0.09026378 -0.0902974 -0.09031494 -0.09031755
 -0.09030916 -0.09028244 -0.09023172 -0.09016829 -0.09008918 -0.09003055 -0.08999699 -0.090022 -0.09011139 -0.09026305
 -0.09047778 -0.09067702 -0.09085554 -0.09091179 -0.09085806 -0.09072129 -0.09052093 -0.09034728 -0.09020213 -0.09013619
 -0.09014024 -0.09022685 -0.09037124 -0.09055496 -0.0907411 -0.09089057 -0.09099068 -0.09101371 -0.09099638 -0.09094402
 -0.09089764 -0.09087342 -0.09087048 -0.09089286 -0.0909207 -0.09095148 -0.09098266 -0.09101383 -0.09105697 -0.09111197
 -0.09118005 -0.09125826 -0.09132746 -0.09138581 -0.09141375 -0.09141664 -0.09139736 -0.09136296 -0.09132841 -0.09129366
 -0.09126379 -0.0912395 -0.09122059 -0.09121551 -0.09122848 -0.09126703 -0.09133749 -0.09143299 -0.09155601 -0.09168307
 -0.09181139 -0.09191786 -0.09199927 -0.09204796 -0.09206323 -0.09204712 -0.09199981 -0.09192372 -0.09181966 -0.09169274
 -0.09154622 -0.0913938 -0.09124155 -0.09111166 -0.0910079 -0.09094944 -0.0909301 -0.09095327 -0.09100246 -0.09106545
 -0.0911293 -0.09118077 -0.09122292 -0.09125288 -0.09128009 -0.09130756 -0.09133616 -0.09136675 -0.09139675 -0.09142543
 -0.09145792 -0.09149447 -0.09154124 -0.09159794 -0.09166077 -0.09172817 -0.09178733 -0.09183787 -0.09187005 -0.09188742
 -0.09189298 -0.09189284 -0.09189918 -0.09191567 -0.09195277 -0.09200818 -0.09208348 -0.0921758 -0.0922819 -0.09240751
 -0.09255499 -0.09272549 -0.09292483 -0.09312532 -0.09332552 -0.09348527 -0.09359837 -0.09366065 -0.09367134 -0.09363882
 -0.09356277 -0.09343321 -0.09325409 -0.09304439 -0.0928155 -0.09262449 -0.09247541 -0.09241289 -0.0924226 -0.09250659
 -0.0926315 -0.0927553 -0.09285931 -0.09290429 -0.09291372 -0.09288856 -0.09285757 -0.09283531 -0.09282789 -0.0928425
 -0.09286467 -0.09289423 -0.09290944 -0.09290721 -0.09288071 -0.09282898 -0.09276659 -0.09269477 -0.09263596 -0.09259109
 -0.09257872 -0.09259631 -0.09264769 -0.09272146 -0.09279031 -0.09284416 -0.09284568 -0.09280904 -0.09273398 -0.09264392
 -0.09256234 -0.09249385 -0.09245185 -0.09242013 -0.09239564 -0.09236327 -0.09231573 -0.09225792 -0.09218895 -0.09211957
 -0.09205195 -0.09198114 -0.09190711 -0.0918145 -0.09170351 -0.09157835 -0.09144293 -0.09132998 -0.09123857 -0.09118443
 -0.09115911 -0.09114638 -0.09114383 -0.09113803 -0.09113365 -0.09113249 -0.09113506 -0.0911459 -0.09115324 -0.09115279
 -0.09113044 -0.09107859 -0.09099254 -0.09087004 -0.09070669 -0.09050108 -0.09025209 -0.08995803 -0.08963513 -0.08928406
 -0.08892862 -0.08857015 -0.08823153 -0.08791436 -0.08764233 -0.08741449 -0.08724319 -0.08711867 -0.08702222 -0.08694284
 -0.086848 -0.08674186 -0.0866157 -0.08647867 -0.08634239 -0.08619214 -0.0860252 -0.08581854 -0.08555409 -0.08525173
 -0.08491013 -0.08456536 -0.08422603 -0.08390059 -0.08359207 -0.08328999 -0.08299374 -0.08269829 -0.08240425 -0.08212553
 -0.08186393 -0.0816424 -0.08145671 -0.08130798 -0.08117704 -0.08101354 -0.08080003 -0.08046737 -0.08004455 -0.07953276
 -0.07898477 -0.07845187 -0.07795729 -0.07753368 -0.0771746 -0.07689041 -0.07664794 -0.07644341 -0.07623293 -0.07600614
 -0.07574587 -0.07544742 -0.07511998 -0.07476394 -0.07438494 -0.07398292 -0.07355372 -0.0730983 -0.07262088 -0.07212548
 -0.07163104 -0.07114183 -0.07067948 -0.07024533 -0.06985451 -0.06949953 -0.06918039 -0.06887943 -0.06858043 -0.06827207
 -0.06793939 -0.06758968 -0.06722321 -0.06684469 -0.06645872 -0.06605094 -0.06561849 -0.06515534 -0.06465733 -0.06415608
 -0.06365318 -0.06318425 -0.06274986 -0.0623516 -0.06198722 -0.06164007 -0.06130843 -0.06097678 -0.06064376 -0.06029669
 -0.05993746 -0.05956116 -0.05917709 -0.05879493 -0.05842361 -0.05807878 -0.05775182 -0.05744796 -0.05713624 -0.05680447
 -0.05643147 -0.05600317 -0.05553705 -0.05503175 -0.05452006 -0.05400617 -0.05350794 -0.05302725 -0.05256386 -0.05211759
 -0.0516831 -0.05125986 -0.05084254 -0.05042899 -0.05000691 -0.04957428 -0.04911625 -0.04863891 -0.04814436 -0.04764572
 -0.04716314 -0.04670051 -0.04627244 -0.04586611 -0.04547824 -0.04509583 -0.04471015 -0.04432306 -0.04393174 -0.04354813
 -0.04317489 -0.04281588 -0.0424735 -0.04213258 -0.04179265 -0.04142789 -0.04103757 -0.04061208 -0.04015441 -0.03968494
 -0.03920747 -0.03875174 -0.03831474 -0.03790499 -0.03751363 -0.03712661 -0.03673972 -0.03633866 -0.03593054 -0.03551517
 -0.03510498 -0.03470991 -0.03433099 -0.0339752 -0.03362382 -0.03327398 -0.03290448 -0.03250853 -0.03208695 -0.03163728
 -0.03118072 -0.0307185 -0.03027038 -0.02983698 -0.0294247 -0.02903266 -0.02865651 -0.02829511 -0.02794072 -0.02759339
 -0.02724893 -0.0269086 -0.02657353 -0.02624316 -0.02591805 -0.02559489 -0.02527039 -0.02494335 -0.02461095 -0.02427679
 -0.02394137 -0.02360931 -0.02328167 -0.02296365 -0.02265638 -0.02236414 -0.02208877 -0.02182143 -0.02156227 -0.02128536
 -0.02098956 -0.02065419 -0.02028153 -0.01988077 -0.01945812 -0.01904706 -0.0186516 -0.01830247 -0.01799607 -0.01774261
 -0.01752965 -0.01734616 -0.0171767 -0.01700205 -0.01681438 -0.01660091 -0.01636627 -0.01610827 -0.015837 -0.01555457
 -0.01527068 -0.01498742 -0.01471219 -0.01444634 -0.0141929 -0.01395235 -0.01372314 -0.0135051 -0.01329417 -0.01308894
 -0.01287645 -0.01265322 -0.01239472 -0.01210123 -0.0117567 -0.01137314 -0.01096404 -0.01054773 -0.01015629 -0.009799051
 -0.009499156 -0.009250907 -0.009059642 -0.008910135 -0.008798487 -0.008706558 -0.008628855 -0.008549592 -0.008464498 -0.008365278
 -0.008250059 -0.008117223 -0.007966484 -0.007797688 -0.007610837 -0.007406105 -0.007183796 -0.006946125 -0.006694416 -0.006435086
 -0.006171353 -0.005915377 -0.005671362 -0.0054551 -0.005265002 -0.005109372 -0.004973929 -0.0048505 -0.004718832 -0.00456018
 -0.004371592 -0.004140448 -0.003895677 -0.003640318 -0.003414052 -0.00322821 -0.003092514 -0.003013181 -0.002958547 -0.00292698
 -0.002884416 -0.002829951 -0.00276836 -0.002702479 -0.002662962 -0.00264828 -0.002669877 -0.00271808 -0.002770096 -0.00281643
 -0.002824576 -0.002795398 -0.002712882 -0.00259109 -0.002435708 -0.002266327 -0.002099097 -0.001942509 -0.00180824 -0.001683639
 -0.001568263 -0.001444887 -0.001306819 -0.001161388 -0.001006012 -0.0008742188 -0.0007684094 -0.0007155689 -0.0007164316 -0.000763799
 -0.0008546223 -0.0009564296 -0.001067541 -0.001161862 -0.001241955 -0.001302979 -0.001346045 -0.001372605 -0.001379102 -0.001358883
 -0.001315317 -0.001244406 -0.001165505 -0.001089861 -0.001034449 -0.001015497 -0.001020123 -0.001052034 -0.001076603 -0.00108573
 -0.00106308 -0.001002144 -0.000924798 -0.0008312931 -0.0007600836 -0.0007129487 -0.0007147515 -0.0007642732 -0.000860556 -0.0009987749
 -0.001156126 -0.001325728 -0.001474156 -0.001597788 -0.001669892 -0.001698127 -0.001677916 -0.001629989 -0.001572172 -0.001524514
 -0.001510322 -0.001526813 -0.00158428 -0.001653084 -0.001726929 -0.001777796 -0.001796031 -0.001780611 -0.001729028 -0.001654675
 -0.00155903 -0.001440126 -0.00129777 -0.001119189 -0.0009064895 -0.0006730473 -0.0004277857 -0.0002235713 -6.691145E-05 -1.219101E-05
 -4.643937E-05 -0.0001763557 -0.0003669325 -0.000571449 -0.000757897 -0.0008687677 -0.00091085 -0.0008602047 -0.0007688596 -0.0006511367
 -0.0005653732 -0.0005373416 -0.0005857902 -0.0007252278 -0.0009245769 -0.001184381 -0.001451833 -0.001722517 -0.001959586 -0.002161417
 -0.002324484 -0.002450432 -0.002555611 -0.002640547 -0.002717207 -0.002782871 -0.002834795 -0.002870908 -0.00288272 -0.002876435
 -0.002852654 -0.002831648 -0.002830844 -0.002877078 -0.002997076 -0.003199054 -0.00350147 -0.003874342 -0.00431776 -0.004777972
 -0.005244003 -0.005673868 -0.006058606 -0.00638645 -0.006654402 -0.00687862 -0.007060162 -0.007237547 -0.007412718 -0.007623144
 -0.007863785 -0.008130799 -0.008411421 -0.008658428 -0.008871484 -0.00901839 -0.009125854 -0.009217636 -0.009324025 -0.009492978
 -0.009719598 -0.010025 -0.01036478 -0.01072647 -0.0110602 -0.01134385 -0.01155895 -0.01169118 -0.01177169 -0.01179814
 -0.01183954 -0.01190125 -0.01204177 -0.01226381 -0.01256724 -0.01294739 -0.01335238 -0.01377764 -0.01417082 -0.01453427
 -0.01484756 -0.01511672 -0.01534414 -0.01553714 -0.01570561 -0.01586112 -0.01601825 -0.01618875 -0.01638768 -0.01661437
 -0.01687634 -0.01715457 -0.01744629 -0.01772703 -0.01798947 -0.01822504 -0.01842918 -0.01861864 -0.01879378 -0.01898106
 -0.01918177 -0.01940594 -0.01965218 -0.01990755 -0.02017032 -0.02042355 -0.02066863 -0.02090103 -0.02112352 -0.02134042
 -0.02155281 -0.02176359 -0.02197469 -0.02218807 -0.02240855 -0.02264034 -0.02288646 -0.02315121 -0.0234292 -0.0237204
 -0.02401589 -0.02431307 -0.0246092 -0.02490313 -0.02519755 -0.02549279 -0.02578808 -0.02608336 -0.02637323 -0.02665759
 -0.02693343 -0.0272014 -0.02746348 -0.02772046 -0.02797567 -0.02823017 -0.02848795 -0.02874959 -0.02901869 -0.02929259
 -0.02957125 -0.02984757 -0.03011744 -0.03037186 -0.03060615 -0.0308109 -0.03098109 -0.03111436 -0.0312055 -0.03127574
 -0.03132362 -0.03139864 -0.03150461 -0.03168749 -0.03194975 -0.03229242 -0.03271113 -0.03315461 -0.03361521 -0.03402175
 -0.03437394 -0.03462694 -0.03479869 -0.03490135 -0.03496836 -0.03505914 -0.03519306 -0.03542498 -0.03572716 -0.0361055
 -0.03650058 -0.03687973 -0.03721564 -0.03748243 -0.03771187 -0.03790599 -0.03809889 -0.03830113 -0.03849249 -0.03867381
 -0.03879756 -0.03886126 -0.03886059 -0.03880016 -0.03873681 -0.03867702 -0.03868978 -0.03877198 -0.03895351 -0.03921854
 -0.03954795 -0.03992175 -0.04029826 -0.04066886 -0.04100437 -0.04131474 -0.04159751 -0.04186593 -0.04213008 -0.04238432
 -0.04263093 -0.04285376 -0.04304646 -0.04321419 -0.04335412 -0.04349536 -0.04364096 -0.04380463 -0.04398728 -0.04416523
 -0.04433674 -0.04447079 -0.04457027 -0.04463521 -0.04467253 -0.04470759 -0.04474265 -0.04479706 -0.04486611 -0.04495031
 -0.04504589 -0.04514626 -0.04525685 -0.04537702 -0.04552077 -0.0456952 -0.04591043 -0.04617505 -0.04647915 -0.04682618
 -0.0471825 -0.0475449 -0.04787588 -0.04817048 -0.04841832 -0.0486185 -0.04880019 -0.04896603 -0.04916001 -0.04938097
 -0.04964719 -0.04994932 -0.05026453 -0.05058281 -0.05086652 -0.05111718 -0.051317 -0.05148057 -0.0516161 -0.05174056
 -0.05187005 -0.05201466 -0.05218574 -0.05238111 -0.05260584 -0.05284081 -0.0530844 -0.05330943 -0.05350957 -0.05368001
 -0.05381736 -0.0539543 -0.05409252 -0.05426579 -0.05447283 -0.05470248 -0.05494957 -0.05517336 -0.05537762 -0.05555061
 -0.05570776 -0.05588251 -0.05608125 -0.05633596 -0.05662923 -0.05695653 -0.0572921 -0.05761194 -0.05790633 -0.05816154
 -0.05838294 -0.05857045 -0.05872576 -0.05885035 -0.05893868 -0.05898909 -0.05900435 -0.05898298 -0.05894918 -0.05890413
 -0.05888766 -0.05890143 -0.05897804 -0.05911481 -0.05931391 -0.05956657 -0.05984291 -0.06013368 -0.06040076 -0.06064139
 -0.06083273 -0.06097894 -0.06107556 -0.06112884 -0.06114199 -0.06112091 -0.06106863 -0.06099265 -0.06089476 -0.06078713
 -0.06067185 -0.06056429 -0.06046767 -0.06038958 -0.06033266 -0.06028091 -0.06023378 -0.06015097 -0.06003044 -0.05983296
 -0.05956125 -0.05921009 -0.05878937 -0.05833204 -0.05784827 -0.05738078 -0.05693104 -0.05652279 -0.05614793 -0.05580697
 -0.05548963 -0.05518785 -0.05489429 -0.05460344 -0.05430873 -0.05400702 -0.05369225 -0.05336097 -0.05301686 -0.0526577
 -0.05230478 -0.05195913 -0.05164894 -0.05137603 -0.05115428 -0.05098333 -0.05085847 -0.05077894 -0.05073761 -0.05073489
 -0.05077089 -0.05084139 -0.05094004 -0.05105266 -0.0511535 -0.05122836 -0.05124624 -0.05121185 -0.05111349 -0.05097624
 -0.05081071 -0.05063688 -0.05046877 -0.05029997 -0.05013416 -0.04994849 -0.04973949 -0.04949181 -0.04920245 -0.04887463
 -0.04850809 -0.04812541 -0.04772897 -0.04735934 -0.04701962 -0.04675255 -0.04655548 -0.04644417 -0.04640725 -0.04642447
 -0.04648581 -0.04656049 -0.04665532 -0.04675969 -0.04690257 -0.047098 -0.04738949 -0.04780324 -0.04837595 -0.04913309
 -0.05007185 -0.05120707 -0.05247235 -0.05386696 -0.05527862 -0.05669716 -0.05802165 -0.05924478 -0.06032801 -0.06127275
 -0.0621024 -0.06282147 -0.06347187 -0.06405414 -0.06459192 -0.0650844 -0.06553894 -0.06596062 -0.06636046 -0.0667458
 -0.06713231 -0.06751708 -0.06790612 -0.06828459 -0.06864586 -0.06897797 -0.06927294 -0.06953196 -0.06975284 -0.06994372
 -0.0701056 -0.07024519 -0.07036372 -0.07046063 -0.07053617 -0.07057752 -0.07058419 -0.07054354 -0.07045938 -0.07034867
 -0.07022201 -0.07013123 -0.07008244 -0.07012283 -0.07024046 -0.07044056 -0.07069709 -0.07098152 -0.07127019 -0.07153286
 -0.07175839 -0.07193036 -0.07205173 -0.07211785 -0.07214294 -0.07212877 -0.07209245 -0.0720372 -0.07197376 -0.07190292
 -0.07183795 -0.07177907 -0.07176656 -0.07180435 -0.07196519 -0.07225248 -0.07273138 -0.07339079 -0.07422999 -0.07521713
 -0.07627314 -0.07736368 -0.07838668 -0.07933562 -0.08015379 -0.08087002 -0.08148666 -0.08204129 -0.08255862 -0.08305632
 -0.08354975 -0.08403495 -0.08451497 -0.08497749 -0.08542135 -0.08583318 -0.08621126 -0.08654735 -0.08684058 -0.08709622
 -0.08731516 -0.08751453 -0.08769562 -0.08787615 -0.08805615 -0.08824599 -0.08844325 -0.08864803 -0.08885504 -0.08905475
 -0.08924338 -0.08940983 -0.08956008 -0.08969297 -0.08982287 -0.08995913 -0.09010778 -0.09027722 -0.09045339 -0.09063609
 -0.09080257 -0.09094758 -0.09106319 -0.09114623 -0.09121253 -0.09126264 -0.09132103 -0.09138837 -0.09147593 -0.09158187
 -0.09169779 -0.09182233 -0.09194385 -0.0920658 -0.09219096 -0.0923244 -0.09247921 -0.0926517 -0.09284604 -0.09304693
 -0.09324306 -0.09342048 -0.09356494 -0.09367842 -0.0937558 -0.0938125 -0.09385083 -0.09388772 -0.09392633 -0.09397963
 -0.0940495 -0.09414394 -0.09426387 -0.0944059 -0.09456927 -0.09473709 -0.0949081 -0.09506441 -0.095207 -0.09533004
 -0.09543617 -0.0955297 -0.09561216 -0.09568838 -0.09575893 -0.09582648 -0.09589114 -0.09595475 -0.09601437 -0.09606978
 -0.0961147 -0.09614546 -0.09616195 -0.09616071 -0.09615684 -0.09615108 -0.09616566 -0.09620389 -0.09627439 -0.09637851
 -0.09650193 -0.09664354 -0.09677972 -0.09691024 -0.09702174 -0.09711634 -0.09719557 -0.097262 -0.0973235 -0.09738112
 -0.09744122 -0.09750178 -0.09756362 -0.09762203 -0.0976726 -0.0977134 -0.09773922 -0.09775966 -0.09777527 -0.0978035
 -0.09785019 -0.09792332 -0.09802752 -0.09815122 -0.09829447 -0.09843791 -0.09858006 -0.09871081 -0.09883001 -0.09893841
 -0.09903638 -0.09912682 -0.09921001 -0.09928833 -0.09936261 -0.09943656 -0.09951047 -0.0995874 -0.09966529 -0.09974284
 -0.09981766 -0.09988609 -0.09995014 -0.1000088 -0.1000685 -0.1001322 -0.1002039 -0.1002867 -0.100377 -0.1004753
 -0.1005721 -0.1006664 -0.1007493 -0.1008198 -0.1008768 -0.1009204 -0.1009577 -0.1009896 -0.101025 -0.1010635
 -0.1011082 -0.1011571 -0.1012062 -0.1012543 -0.1012968 -0.1013351 -0.1013685 -0.1014008 -0.1014349 -0.1014753
 -0.1015259 -0.1015887 -0.1016664 -0.1017549 -0.1018545 -0.1019563 -0.1020589 -0.1021557 -0.1022454 -0.1023281
 -0.1024037 -0.102476 -0.1025452 -0.1026143 -0.1026831 -0.1027517 -0.1028193 -0.1028825 -0.102941 -0.1029912
 -0.1030352 -0.1030745 -0.1031131 -0.1031578 -0.1032092 -0.103272 -0.1033405 -0.1034129 -0.1034832 -0.1035474
 -0.1036062 -0.1036587 -0.1037086 -0.1037569 -0.1038029 -0.1038466 -0.103886 -0.1039207 -0.1039559 -0.1039922
 -0.1040389 -0.1040955 -0.1041626 -0.1042377 -0.1043096 -0.1043781 -0.1044346 -0.104484 -0.1045312 -0.1045809
 -0.1046437 -0.1047163 -0.1048012 -0.1048879 -0.1049697 -0.1050406 -0.1050943 -0.1051361 -0.1051655 -0.1051924
 -0.105219 -0.1052498 -0.1052858 -0.105326 -0.1053704 -0.105418 -0.1054687 -0.1055211 -0.1055746 -0.1056236
 -0.1056676 -0.1057004 -0.1057237 -0.1057385 -0.1057487 -0.1057625 -0.1057824 -0.1058162 -0.105862 -0.1059216
 -0.1059899 -0.1060645 -0.1061407 -0.1062157 -0.1062867 -0.1063522 -0.1064117 -0.1064648 -0.1065123 -0.1065541
 -0.1065926 -0.1066277 -0.1066635 -0.1067004 -0.1067418 -0.1067875 -0.1068364 -0.106888 -0.106938 -0.1069865
 -0.1070312 -0.1070735 -0.107115 -0.1071561 -0.1071985 -0.1072412 -0.107284 -0.1073256 -0.1073654 -0.107402
 -0.1074351 -0.1074636 -0.1074866 -0.1075048 -0.1075175 -0.1075297 -0.1075415 -0.1075609 -0.1075885 -0.1076299
 -0.1076853 -0.1077518 -0.1078282 -0.1079018 -0.1079711 -0.108021 -0.1080528 -0.1080614 -0.1080519 -0.1080323
 -0.1080077 -0.1079896 -0.1079788 -0.1079809 -0.107993 -0.1080151 -0.1080436 -0.1080768 -0.108112 -0.1081477
 -0.1081833 -0.1082179 -0.1082539 -0.1082913 -0.1083317 -0.1083754 -0.1084185 -0.1084609 -0.1084963 -0.1085247
 -0.1085448 -0.1085579 -0.1085688 -0.1085787 -0.1085938 -0.1086143 -0.1086434 -0.1086805 -0.1087265 -0.1087803
 -0.1088413 -0.1089074 -0.1089773 -0.1090485 -0.1091196 -0.1091877 -0.1092521 -0.1093082 -0.1093551 -0.1093884
 -0.1094068 -0.1094117 -0.1094027 -0.1093898 -0.1093736 -0.1093663 -0.109368 -0.1093839 -0.1094127 -0.1094506
 -0.1094962 -0.1095421 -0.1095878 -0.1096281 -0.1096637 -0.109693 -0.109718 -0.1097398 -0.1097608 -0.1097831
 -0.1098088 -0.1098397 -0.1098753 -0.1099164 -0.1099585 -0.1100014 -0.1100387 -0.1100694 -0.1100904 -0.1101011
 -0.1101042 -0.1100997 -0.1100938 -0.1100867 -0.1100843 -0.1100867 -0.1100977 -0.1101167 -0.110144 -0.1101778
 -0.1102141 -0.1102509 -0.110283 -0.1103108 -0.1103324 -0.1103508 -0.1103677 -0.1103855 -0.1104067 -0.1104306
 -0.1104585 -0.1104865 -0.1105141 -0.1105374 -0.1105552 -0.1105673 -0.1105734 -0.1105788 -0.1105837 -0.1105938
 -0.1106087 -0.110628 -0.1106506 -0.1106708 -0.1106883 -0.1106996 -0.1107064 -0.1107109 -0.1107155 -0.1107247
 -0.1107382 -0.1107578 -0.1107798 -0.1108023 -0.1108221 -0.1108365 -0.1108456 -0.1108484 -0.1108473 -0.1108423
 -0.1108372 -0.1108323 -0.1108333 -0.1108409 -0.1108589 -0.1108874 -0.1109228 -0.1109644 -0.1110027 -0.1110375
 -0.1110615 -0.1110756 -0.1110786 -0.1110716 -0.1110567 -0.1110358 -0.1110123 -0.110989 -0.1109705 -0.1109571
 -0.1109516 -0.1109508 -0.110954 -0.110958 -0.1109611 -0.1109628 -0.1109625 -0.1109612 -0.1109588 -0.1109574
 -0.1109568 -0.1109615 -0.1109717 -0.1109906 -0.1110178 -0.1110511 -0.1110899 -0.1111289 -0.1111688 -0.1112087
 -0.1112512 -0.1113015 -0.1113636 -0.1114457 -0.1115514 -0.1116875 -0.1118557 -0.1120594 -0.112298 -0.1125715
 -0.1128805 -0.1132244 -0.1136066 -0.1140277 -0.1144901 -0.1149951 -0.1155375 -0.116118 -0.1167196 -0.1173411
 -0.1179427 -0.1185186 -0.1189949 -0.1193637 -0.1195396 -0.1195287 -0.1192963 -0.1188727 -0.1183005 -0.1176239
 -0.1169276 -0.1162445 -0.1156435 -0.1151306 -0.1147318 -0.1144416 -0.1142627 -0.1141926 -0.1142338 -0.1143719
 -0.1146131 -0.114895 -0.1152152 -0.1154767 -0.1156684 -0.1157632 -0.1157596 -0.1157096 -0.1156147 -0.1155079
 -0.1153859 -0.1152452 -0.1150864 -0.1149083 -0.1147175 -0.1145288 -0.114346 -0.1141843 -0.1140364 -0.1139026
 -0.1137688 -0.1136238 -0.1134608 -0.1132696 -0.1130623 -0.1128384 -0.1126189 -0.1124089 -0.1122196 -0.1120543
 -0.1119095 -0.1117853 -0.1116714 -0.1115672 -0.1114658 -0.1113673 -0.1112716 -0.1111792 -0.1110917 -0.1110085
 -0.1109278 -0.110849 -0.1107695 -0.110691 -0.1106151 -0.1105434 -0.1104791 -0.1104198 -0.1103655 -0.1103125
 -0.110258 -0.1102029 -0.1101463 -0.1100931 -0.1100444 -0.1100033 -0.1099709 -0.1099457 -0.1099277 -0.1099122
 -0.1098989 -0.1098819 -0.1098613 -0.1098351 -0.1098042 -0.109773 -0.1097425 -0.1097187 -0.109701 -0.1096912
 -0.1096871 -0.1096865 -0.1096873 -0.1096865 -0.1096823 -0.1096722 -0.1096555 -0.1096301 -0.1095995 -0.1095638
 -0.1095293 -0.109498 -0.1094725 -0.1094543 -0.1094397 -0.1094289 -0.1094165 -0.1094024 -0.1093843 -0.1093622
 -0.109336 -0.1093058 -0.1092713 -0.1092327 -0.1091903 -0.1091453 -0.1091004 -0.1090571 -0.109019 -0.1089859
 -0.1089594 -0.1089372 -0.1089183 -0.1089016 -0.1088859 -0.1088727 -0.1088625 -0.1088545 -0.1088498 -0.1088419
 -0.1088302 -0.1088076 -0.1087727 -0.1087265 -0.1086689 -0.1086086 -0.108546 -0.1084885 -0.1084354 -0.1083864
 -0.1083409 -0.1082965 -0.1082547 -0.108218 -0.1081887 -0.1081731 -0.108169 -0.1081782 -0.1081927 -0.1082073
 -0.1082143 -0.1082067 -0.1081864 -0.1081506 -0.1081109 -0.1080693 -0.1080364 -0.1080151 -0.1080044 -0.1080051
 -0.1080068 -0.1080089 -0.1080047 -0.1079946 -0.1079822 -0.1079677 -0.1079562 -0.1079459 -0.1079332 -0.1079164
 -0.1078879 -0.1078498 -0.107801 -0.1077465 -0.1076916 -0.1076395 -0.107595 -0.1075573 -0.1075278 -0.1075034
 -0.1074836 -0.1074645 -0.1074451 -0.1074223 -0.1073951 -0.1073634 -0.1073269 -0.1072894 -0.1072512 -0.107217
 -0.1071869 -0.1071625 -0.1071431 -0.1071262 -0.1071115 -0.1070964 -0.1070817 -0.1070686 -0.1070585 -0.1070546
 -0.1070561 -0.1070643 -0.1070758 -0.1070883 -0.1070985 -0.107104 -0.1071023 -0.1070924 -0.1070723 -0.107041
 -0.1069988 -0.1069449 -0.1068849 -0.1068191 -0.1067567 -0.1066984 -0.1066505 -0.106613 -0.1065868 -0.1065712
 -0.1065636 -0.1065629 -0.1065646 -0.1065672 -0.1065656 -0.1065594 -0.1065451 -0.1065245 -0.1064977 -0.1064668
 -0.1064334 -0.1063982 -0.1063617 -0.1063241 -0.106285 -0.1062466 -0.1062091 -0.1061763 -0.1061492 -0.1061299
 -0.106119 -0.1061124 -0.1061098 -0.1061017 -0.1060877 -0.106061 -0.1060225 -0.1059753 -0.1059213 -0.1058704
 -0.1058221 -0.1057812 -0.1057448 -0.1057093 -0.1056742 -0.1056357 -0.1055992 -0.1055681 -0.1055466 -0.1055403
 -0.1055429 -0.1055553 -0.1055627 -0.1055613 -0.1055425 -0.1055029 -0.1054493 -0.1053812 -0.1053138 -0.105248
 -0.1051935 -0.1051501 -0.1051155 -0.1050888 -0.1050622 -0.1050359 -0.105006 -0.1049745 -0.1049439 -0.104916
 -0.1048954 -0.1048826 -0.1048803 -0.1048857 -0.1048986 -0.1049124 -0.1049238 -0.1049269 -0.1049177 -0.1048976
 -0.1048649 -0.1048284 -0.1047889 -0.1047539 -0.1047246 -0.1047001 -0.1046805 -0.1046581 -0.1046328 -0.1045984
 -0.1045557 -0.1045067 -0.1044532 -0.1044041 -0.1043596 -0.104326 -0.1043005 -0.1042812 -0.1042647 -0.1042452
 -0.1042225 -0.1041942 -0.1041627 -0.1041289 -0.1040948 -0.1040614 -0.1040303 -0.1040021 -0.1039781 -0.1039592
 -0.1039438 -0.1039321 -0.1039189 -0.103904 -0.1038829 -0.1038557 -0.1038227 -0.1037842 -0.1037436 -0.1037012
 -0.1036606 -0.1036222 -0.1035885 -0.1035588 -0.1035333 -0.1035099 -0.1034862 -0.1034603 -0.1034295 -0.1033948
 -0.1033555 -0.1033146 -0.1032738 -0.1032333 -0.1031943 -0.1031533 -0.1031096 -0.1030607 -0.1030059 -0.102949
 -0.1028904 -0.1028381 -0.1027924 -0.1027569 -0.1027304 -0.1027085 -0.1026898 -0.1026676 -0.1026423 -0.1026114
 -0.1025767 -0.1025401 -0.1025025 -0.1024661 -0.1024299 -0.1023938 -0.1023572 -0.1023195 -0.102282 -0.1022453
 -0.1022093 -0.1021745 -0.1021364 -0.1020942 -0.1020442 -0.1019855 -0.1019221 -0.1018539 -0.1017878 -0.1017236
 -0.1016615 -0.1016008 -0.1015372 -0.1014712 -0.1014025 -0.1013329 -0.1012667 -0.1012045 -0.1011497 -0.1011011
 -0.1010587 -0.1010211 -0.1009873 -0.1009554 -0.1009245 -0.1008915 -0.1008551 -0.1008124 -0.100762 -0.1007044
 -0.1006391 -0.1005692 -0.1004948 -0.1004191 -0.1003423 -0.1002661 -0.1001907 -0.1001189 -0.1000507 -0.09998919
 -0.09993357 -0.09988291 -0.09983547 -0.09978574 -0.09973355 -0.09967518 -0.09961356 -0.09955104 -0.0994897 -0.09943335
 -0.09937922 -0.09932726 -0.09927297 -0.09921359 -0.09915012 -0.09908146 -0.09901344 -0.09894703 -0.09888574 -0.09883049
 -0.09877869 -0.0987303 -0.09867965 -0.0986266 -0.09856883 -0.09850693 -0.09844407 -0.09838083 -0.09832173 -0.09826618
 -0.09821521 -0.09816728 -0.09812041 -0.09807224 -0.09801956 -0.097959 -0.09788597 -0.09780014 -0.09769794 -0.09758773
 -0.09747075 -0.09735938 -0.09725819 -0.09717103 -0.09710076 -0.09703858 -0.09698426 -0.0969253 -0.09686071 -0.09678559
 -0.09670014 -0.09660971 -0.09651513 -0.09642523 -0.09633997 -0.09626433 -0.09619699 -0.09613714 -0.09608316 -0.09603202
 -0.09598188 -0.09592976 -0.09587291 -0.09580781 -0.09573296 -0.09564511 -0.09554877 -0.09544396 -0.09533912 -0.0952371
 -0.09514119 -0.09505344 -0.09496842 -0.09488608 -0.09479796 -0.09470338 -0.09460004 -0.09448829 -0.09437655 -0.09426602
 -0.09417027 -0.0940889 -0.09402872 -0.0939858 -0.09395392 -0.0939271 -0.09389065 -0.09384217 -0.09377058 -0.09368148
 -0.09357499 -0.09345997 -0.09334226 -0.09322658 -0.09311715 -0.09301256 -0.09291372 -0.09281623 -0.09271923 -0.09262075
 -0.09252014 -0.09241939 -0.09231851 -0.09222091 -0.0921267 -0.09203804 -0.09195448 -0.09187423 -0.09179557 -0.09170994
 -0.09161634 -0.09150606 -0.09138269 -0.09124837 -0.09110825 -0.09097092 -0.09083708 -0.09071074 -0.09059015 -0.09047519
 -0.09036491 -0.09025943 -0.09015572 -0.09005363 -0.08994724 -0.08983533 -0.08971433 -0.08958333 -0.08944418 -0.08929687
 -0.08914562 -0.0889907 -0.08883712 -0.08868517 -0.08853952 -0.08839976 -0.08826663 -0.08813941 -0.08801639 -0.08789729
 -0.08778156 -0.08766692 -0.08755113 -0.08742917 -0.08729436 -0.08714745 -0.08698428 -0.08681633 -0.08664764 -0.0864867
 -0.08633918 -0.08619767 -0.08606284 -0.08591957 -0.08576528 -0.08559747 -0.08541526 -0.08523314 -0.08505171 -0.08488289
 -0.08472478 -0.08456754 -0.08440707 -0.08421744 -0.08400103 -0.08374833 -0.0834704 -0.08318543 -0.08289929 -0.08262961
 -0.08237202 -0.08212884 -0.08189427 -0.08166406 -0.0814383 -0.08121562 -0.08099854 -0.08078824 -0.08058337 -0.08038517
 -0.08018389 -0.07997968 -0.07975249 -0.07950073 -0.07921185 -0.07888618 -0.07854341 -0.07818571 -0.07784151 -0.07750876
 -0.07719363 -0.07689166 -0.07659318 -0.07629521 -0.07598761 -0.07566856 -0.07533097 -0.07497554 -0.07459895 -0.0742073
 -0.07380409 -0.07339215 -0.07297598 -0.07254662 -0.0721013 -0.07163734 -0.07114998 -0.07066384 -0.07018118 -0.06972431
 -0.06929601 -0.06888666 -0.06849559 -0.06810427 -0.06771323 -0.0673203 -0.06692597 -0.06653355 -0.06613839 -0.06572925
 -0.06529999 -0.06483025 -0.06432392 -0.06377554 -0.06319694 -0.06259894 -0.06198565 -0.06136328 -0.06073168 -0.0600901
 -0.05944651 -0.05880259 -0.05816758 -0.05754719 -0.05692508 -0.0563041 -0.05562748 -0.05489088 -0.05405359 -0.05311619
 -0.05214012 -0.05113107 -0.05017075 -0.04925089 -0.04837392 -0.04753042 -0.04669179 -0.04585839 -0.04501874 -0.04417234
 -0.04331913 -0.04244304 -0.04153517 -0.04056184 -0.03949894 -0.03832092 -0.03699754 -0.03556819 -0.03402544 -0.03247074
 -0.03092415 -0.02945353 -0.02807411 -0.02678822 -0.02559872 -0.02447043 -0.02340055 -0.02231895 -0.02121832 -0.01999438
 -0.01865554 -0.01716985 -0.01558556 -0.01404298 -0.01255464 -0.01122994 -0.01001796 -0.00888852 -0.007807031 -0.00672117
 -0.005635388 -0.004537745 -0.003436108 -0.002335136 -0.001225012 -9.913821E-05 0.001027854 0.002157213 0.003255038 0.004313894
 0.005341581 0.006337753 0.007322639 0.008295929 0.009219525 0.0100894 0.01084775 0.01150049 0.01204446 0.01249224
 0.01288242 0.01321901 0.01353091 0.0138114 0.01405913 0.01427858 0.01446895 0.01464968 0.01483568 0.01503364
 0.01525624 0.01548124 0.01570654 0.01590271 0.01606173 0.01617352 0.01623391 0.01625475 0.01623579 0.01620622
 0.01616742 0.01614076 0.01612466 0.01611139 0.01609884 0.01607126 0.01603087 0.01597405 0.01590922 0.01585105
 0.01580906 0.01580603 0.01583948 0.01591587 0.01602884 0.01617127 0.01635475 0.01658191 0.01686662 0.01722007
 0.01762035 0.0180671 0.01852615 0.01899013 0.01946134 0.01993846 0.02044504 0.02098197 0.02155571 0.02216439
 0.02279169 0.02343527 0.02407471 0.02470988 0.02532852 0.02593443 0.02652816 0.02711747 0.02771421 0.02832324
 0.02895525 0.02960781 0.03028303 0.03097579 0.03168408 0.03240456 0.03313544 0.03387629 0.03462668 0.03538756
 0.03616036 0.03693396 0.03770853 0.03845561 0.03917381 0.03984151 0.04045934 0.04102832 0.04154708 0.04201137
 0.04241412 0.0427279 0.04295329 0.04307564 0.04310508 0.04305039 0.04292005 0.04272528 0.04247352 0.04217679
 0.04182726 0.04143825 0.04094617 0.04034911 0.03951948 0.03841643 0.03702343 0.03530241 0.03354211 0.03176634
 0.03014436 0.02868202 0.02725381 0.02585381 0.02437481 0.02282745 0.02121381 0.01954416 0.01786296 0.01614982
 0.01439703 0.01254475 0.01048216 0.008217893 0.005657809 0.003021615 0.0004464293 -0.001935259 -0.003973616 -0.005808476
 -0.007455206 -0.009037414 -0.01059926 -0.01213175 -0.0136429 -0.01508029 -0.01643778 -0.0177195 -0.01892596 -0.02010686
 -0.02126328 -0.02242614 -0.02358902 -0.02473486 -0.02585502 -0.02690896 -0.02790017 -0.02881237 -0.02966269 -0.03046919
 -0.03124821 -0.03202251 -0.03280553 -0.03360937 -0.03445708 -0.03536545 -0.03634039 -0.03740953 -0.03846719 -0.03950278
 -0.04038074 -0.04106415 -0.04160629 -0.04200448 -0.04238289 -0.04274741 -0.04315062 -0.04358868 -0.04403532 -0.04448454
 -0.04488742 -0.04524883 -0.04556002 -0.04582696 -0.04606331 -0.04626046 -0.04641326 -0.04650742 -0.04652255 -0.04645944
 -0.04630955 -0.04608588 -0.04579227 -0.04544083 -0.04503635 -0.04458728 -0.04409861 -0.04356249 -0.04298248 -0.04231576
 -0.0415589 -0.04067346 -0.03965808 -0.03857987 -0.03744751 -0.03638928 -0.03540104 -0.03452626 -0.03375208 -0.03305523
 -0.03243386 -0.03187367 -0.03137428 -0.03093616 -0.03053859 -0.03016646 -0.02978174 -0.02934526 -0.02885431 -0.02828227
 -0.02769485 -0.02711139 -0.02657095 -0.02609389 -0.02565331 -0.02524924 -0.02484651 -0.02444103 -0.02402373 -0.02359406
 -0.02316815 -0.02274649 -0.02234179 -0.02195014 -0.02155831 -0.02115792 -0.02071318 -0.0202191 -0.01964243 -0.01899338
 -0.01827187 -0.01749274 -0.01667678 -0.01581966 -0.01492632 -0.01398517 -0.01298719 -0.01194107 -0.01084415 -0.009722323
 -0.008582432 -0.007435605 -0.006286819 -0.005120505 -0.003935002 -0.002725707 -0.001492509 -0.0002903093 0.0008758954 0.001926267
 0.002862483 0.003654048 0.004305686 0.004821635 0.005195678 0.005418106 0.00547563 0.005340644 0.005010553 0.004466852
 0.003727032 0.002794832 0.001697393 0.0004493402 -0.0009300544 -0.002431422 -0.004042803 -0.005766009 -0.007559633 -0.00942499
 -0.01127073 -0.01308882 -0.01480687 -0.01642064 -0.01793974 -0.01936755 -0.02075261 -0.02209342 -0.02340757 -0.0246862
 -0.02590517 -0.02706273 -0.02813848 -0.02914561 -0.03009466 -0.03100181 -0.03189079 -0.03276668 -0.03364469 -0.0345124
 -0.03537085 -0.03619509 -0.03697651 -0.03769732 -0.03834891 -0.03893746 -0.03946072 -0.03994218 -0.04038394 -0.04080209
 -0.04119763 -0.04156194 -0.04189363 -0.04217084 -0.04239438 -0.04255704 -0.04266314 -0.04272433 -0.04274369 -0.04273389
 -0.04269683 -0.04263999 -0.04256739 -0.04248588 -0.04239971 -0.04231416 -0.04223219 -0.04215574 -0.04208994 -0.04203594
 -0.04200216 -0.0419906 -0.0420082 -0.04205659 -0.04213778 -0.04225251 -0.04239618 -0.04256861 -0.04275838 -0.04296462
 -0.0431735 -0.04338409 -0.04358443 -0.043773 -0.04393833 -0.04407889 -0.04418455 -0.04425657 -0.04429135 -0.04429393
 -0.04426787 -0.04421967 -0.04415511 -0.04407986 -0.04399797 -0.04391434 -0.04383136 -0.04375297 -0.04368052 -0.04361647
 -0.04356133 -0.04351704 -0.04348383 -0.04346349 -0.04345617 -0.04346231 -0.04348163 -0.04351075 -0.04354874 -0.04358825
 -0.04362865 -0.04366303 -0.04369289 -0.04371765 -0.04374073 -0.04376781 -0.0438006 -0.04384419 -0.04389637 -0.04395761
 -0.04402377 -0.04409322 -0.04416115 -0.04422608 -0.04428193 -0.04432668 -0.04435769 -0.04437324 -0.04437994 -0.04437787
 -0.0443781 -0.04438131 -0.04439132 -0.04440759 -0.044423 -0.04443649 -0.04443771 -0.04442667 -0.04439753 -0.0443516
 -0.04428885 -0.0442113 -0.04412208 -0.04402334 -0.04391889 -0.04380983 -0.04369883 -0.04358445 -0.04346714 -0.04334342
 -0.04321169 -0.04307124 -0.04292044 -0.04276565 -0.04260706 -0.04245439 -0.04230868 -0.04217608 -0.04205703 -0.04195406
 -0.04186714 -0.04179654 -0.04174131 -0.04169621 -0.04165925 -0.04161979 -0.04157748 -0.04152494 -0.04146573 -0.04140174
 -0.04133851 -0.04128337 -0.04123975 -0.04121346 -0.04120382 -0.04121272 -0.04123621 -0.04127355 -0.04132034 -0.0413755
 -0.04143539 -0.04149961 -0.04156306 -0.04162527 -0.04168104 -0.04172998 -0.04177302 -0.04181064 -0.04185091 -0.04189405
 -0.04194571 -0.04200495 -0.04207107 -0.04214342 -0.04222009 -0.04230066 -0.04238467 -0.04246867 -0.0425492 -0.04262099
 -0.04267803 -0.04271885 -0.04273956 -0.04274557 -0.04273716 -0.04272299 -0.04270536 -0.04269006 -0.04267891 -0.0426714
 -0.04266789 -0.04266479 -0.04266188 -0.04265796 -0.04265297 -0.04264595 -0.0426362 -0.04261818 -0.04259161 -0.04255148
 -0.04249991 -0.04243996 -0.04237307 -0.04230493 -0.04223118 -0.04215002 -0.0420539 -0.04193548 -0.04179129 -0.04161628
 -0.04141328 -0.04118149 -0.04092719 -0.04065156 -0.04036088 -0.04005633 -0.03974232 -0.03941936 -0.03909143 -0.03875876
 -0.03842765 -0.03809829 -0.0377749 -0.03745651 -0.03713875 -0.03682027 -0.03649271 -0.03615724 -0.03581201 -0.03546028
 -0.03510678 -0.03475459 -0.03440958 -0.03407281 -0.03374825 -0.03343236 -0.0331254 -0.03281978 -0.03251155 -0.03219999
 -0.03188219 -0.03156961 -0.03126376 -0.03097386 -0.03070211 -0.03044138 -0.03019153 -0.02993777 -0.02967962 -0.02940828
 -0.02912406 -0.02882476 -0.02851096 -0.02818346 -0.02784339 -0.02749433 -0.02713641 -0.02677201 -0.02639951 -0.02601679
 -0.0256257 -0.02522465 -0.0248234 -0.02442597 -0.02404394 -0.02368418 -0.02334815 -0.0230404 -0.02274503 -0.02246188
 -0.02216438 -0.02184921 -0.02150161 -0.02111992 -0.02071964 -0.02030244 -0.01990092 -0.01951546 -0.01916545 -0.01884746
 -0.01855839 -0.01829395 -0.01804168 -0.01779833 -0.01755219 -0.01730228 -0.0170416 -0.0167738 -0.01649944 -0.01622266
 -0.01594763 -0.01567125 -0.01539433 -0.01510915 -0.01481337 -0.01450362 -0.01417826 -0.01384049 -0.01349006 -0.01313448
 -0.01277415 -0.01241729 -0.01206414 -0.0117185 -0.01138048 -0.01105196 -0.01073443 -0.01043546 -0.01015564 -0.009902198
 -0.009670669 -0.009456092 -0.009255016 -0.009057924 -0.008872608 -0.008700714 -0.008555362 -0.008446394 -0.008376765 -0.008352041
 -0.008363361 -0.0084102 -0.008480895 -0.008573708 -0.008677721 -0.008791673 -0.008906586 -0.009021746 -0.009132782 -0.00923955
 -0.009340107 -0.009434279 -0.009519724 -0.009596361 -0.009662853 -0.009718702 -0.009762237 -0.009792221 -0.009804471 -0.00980128
 -0.00978186 -0.009754566 -0.009725858 -0.009703923 -0.009695441 -0.00970534 -0.009735922 -0.009794954 -0.00988468 -0.01001219
 -0.01018068 -0.01038363 -0.01062159 -0.01087801 -0.01115174 -0.01143273 -0.01172075 -0.01201367 -0.01231145 -0.0126124
 -0.01291681 -0.01322458 -0.01353684 -0.01385716 -0.014185 -0.01452165 -0.01486445 -0.01521045 -0.01555767 -0.01590271
 -0.0162465 -0.01658704 -0.0169313 -0.01727962 -0.01764622 -0.01803546 -0.01845592 -0.01891223 -0.01939255 -0.01989719
 -0.02040314 -0.02090866 -0.02140305 -0.0218865 -0.02236724 -0.0228463 -0.02333641 -0.02383593 -0.02434621 -0.02486166
 -0.0253679 -0.02585968 -0.02631844 -0.02674675 -0.02713873 -0.0275031 -0.02784686 -0.02817295 -0.02848683 -0.02878331
 -0.02906063 -0.02931791 -0.02955315 -0.02977359 -0.02998017 -0.03017905 -0.03037126 -0.0305585 -0.03074103 -0.03091851
 -0.03109071 -0.03125197 -0.03140137 -0.0315283 -0.0316333 -0.03171198 -0.03176785 -0.0318082 -0.03183649 -0.03186354
 -0.03188884 -0.03191723 -0.03194406 -0.03196682 -0.03198153 -0.03198311 -0.03197592 -0.0319589 -0.03194342 -0.03193333
 -0.03193267 -0.03194434 -0.03195959 -0.03197799 -0.03198962 -0.03199374 -0.0319846 -0.03196182 -0.03191737 -0.03185131
 -0.03175879 -0.03164334 -0.03151749 -0.03138582 -0.03126981 -0.03116682 -0.03108394 -0.0310117 -0.03093977 -0.03086249
 -0.03076876 -0.03066326 -0.03054451 -0.03042193 -0.0303 -0.03018219 -0.03007201 -0.02996243 -0.0298531 -0.029735
 -0.0296063 -0.02946801 -0.0293198 -0.02917077 -0.02902126 -0.02887656 -0.02873646 -0.02860092 -0.02847041 -0.02834718
 -0.02823189 -0.02812824 -0.02803496 -0.02795155 -0.02787617 -0.02780554 -0.02774013 -0.02767899 -0.02762371 -0.02757611
 -0.02753344 -0.02749692 -0.02745585 -0.02740846 -0.027341 -0.02724976 -0.02713044 -0.02698102 -0.02681058 -0.0266195
 -0.02641852 -0.02620807 -0.0259933 -0.02577464 -0.02555826 -0.02534462 -0.02514056 -0.02494353 -0.02475001 -0.02455659
 -0.02435305 -0.02414212 -0.02392258 -0.0236996 -0.0234798 -0.02325994 -0.02304079 -0.02281572 -0.0225789 -0.02233841
 -0.02209246 -0.0218636 -0.02165644 -0.02148483 -0.02135299 -0.02125002 -0.02117608 -0.02110476 -0.02103489 -0.02094735
 -0.02084303 -0.0207213 -0.02058412 -0.02044041 -0.02029058 -0.02014033 -0.01998904 -0.01983814 -0.01968681 -0.01953548
 -0.01938068 -0.01921971 -0.01904843 -0.01886188 -0.01866279 -0.01844946 -0.01823195 -0.01801292 -0.01779988 -0.01759532
 -0.01739997 -0.01721428 -0.01703746 -0.01686948 -0.01671001 -0.01655895 -0.01641313 -0.01627201 -0.01612948 -0.0159848
 -0.01583136 -0.01566868 -0.01549138 -0.01530062 -0.01509495 -0.01487889 -0.01465698 -0.01443631 -0.01422544 -0.01402877
 -0.01385378 -0.01369513 -0.01355428 -0.01341773 -0.01328152 -0.01313639 -0.01297811 -0.01281226 -0.0126382 -0.01246978
 -0.01230822 -0.01215939 -0.01202329 -0.01189214 -0.01176501 -0.01162961 -0.01148668 -0.01133243 -0.01117009 -0.01100775
 -0.01084711 -0.01069735 -0.01055399 -0.01041527 -0.01027479 -0.01012414 -0.009963665 -0.009789735 -0.009608545 -0.009422068
 -0.009235052 -0.009049683 -0.008867354 -0.008689294 -0.008512376 -0.008336914 -0.008154511 -0.007964349 -0.00776377 -0.007552935
 -0.007343872 -0.007137049 -0.006942647 -0.006758526 -0.006578352 -0.006402015 -0.006223747 -0.006049596 -0.005889979 -0.005748294
 -0.005637121 -0.00554802 -0.005479948 -0.005416343 -0.005346778 -0.005255703 -0.005131653 -0.004972302 -0.004769883 -0.004548174
 -0.00430807 -0.004086406 -0.003889696 -0.003729723 -0.003609238 -0.003506567 -0.003420637 -0.003328834 -0.003231771 -0.003126934
 -0.003016143 -0.002907049 -0.00280052 -0.002703724 -0.002615339 -0.002537738 -0.002464931 -0.002389502 -0.00230603 -0.002203866
 -0.002088069 -0.00195732 -0.001822297 -0.001689091 -0.001559494 -0.001436755 -0.001313793 -0.001189746 -0.001058315 -0.0009181761
 -0.0007683372 -0.0006082644 -0.0004449579 -0.0002787442 -0.0001160917 4.405415E-05 0.0002109081 0.0003847189 0.0005751227 0.0007742625
 0.0009621055 0.001132078 0.001254205 0.001342527 0.001401811 0.001454402 0.00152938 0.00162724 0.001760191 0.001913819
 0.002082399 0.002262122 0.002451194 0.002645574 0.002846825 0.003034625 0.003205397 0.003352227 0.003472461 0.003597871
 0.003730151 0.003908513 0.004131491 0.004400926 0.004708177 0.005010144 0.005299186 0.005523359 0.005691909 0.00579399
 0.005855139 0.005911644 0.005973908 0.006074569 0.006189201 0.006311879 0.006416469 0.006482299 0.00651935 0.006523069
 0.006521754 0.006521835 0.006537132 0.006571023 0.006625705 0.006701838 0.006797245 0.006911681 0.007032035 0.007157701
 0.007276356 0.007390193 0.007504068 0.007621079 0.0077544 0.007904205 0.008079228 0.008273292 0.008484647 0.00869695
 0.00889241 0.009059726 0.009177044 0.009268105 0.009330275 0.009419251 0.009560048 0.009758193 0.01003159 0.01029877
 0.01054724 0.01074478 0.0108845 0.01100516 0.01110856 0.01123168 0.01137357 0.01153886 0.01172002 0.01188073
 0.01201227 0.01206117 0.01203691 0.01192608 0.01176169 0.0115894 0.01143071 0.01133463 0.01128151 0.01127637
 0.0112849 0.01128952 0.01127389 0.01122763 0.01114848 0.01103208 0.01089123 0.01072453 0.01056565 0.01041737
 0.01030569 0.01023181 0.01018797 0.0101724 0.01016244 0.01015697 0.0101392 0.01010776 0.01004774 0.009961664
 0.009844929 0.009707975 0.009566749 0.009423762 0.009289564 0.009157962 0.009020454 0.008897042 0.008794558 0.008732822
 0.008731417 0.008747721 0.008778279 0.008769436 0.008704753 0.008618668 0.008509661 0.008463471 0.00848424 0.008598554
 0.008801893 0.009049659 0.009335342 0.009599144 0.009841703 0.01002819 0.01017509 0.01029962 0.01042336 0.01059475
 0.010806 0.01107576 0.01136476 0.01164786 0.01190208 0.01210277 0.01226464 0.01238657 0.01248767 0.01257322
 0.01264969 0.01271898 0.01278268 0.0128417 0.01288656 0.01291677 0.01291915 0.01289516 0.01285792 0.01281095
 0.01278312 0.01277207 0.01278553 0.01281779 0.01285933 0.01290673 0.01295238 0.01298929 0.01300497 0.01300128
 0.01296773 0.01293506 0.0129159 0.01293502 0.01301301 0.01312087 0.01326034 0.01337696 0.01346107 0.01348882
 0.01345554 0.01337172 0.01323783 0.01309126 0.01293572 0.01283025 0.01277318 0.0127914 0.01286843 0.01295947
 0.01305481 0.01310072 0.01311909 0.0131194 0.01312772 0.01318684 0.01328095 0.01342324 0.0135568 0.01365837
 0.01367567 0.01357796 0.01336741 0.01302929 0.01262971 0.01217315 0.01173963 0.01133832 0.01100391 0.01073866
 0.01052624 0.01036437 0.01021993 0.01009151 0.009952293 0.009806146 0.009649746 0.009493439 0.009363233 0.009257618
 0.009192176 0.009144179 0.009088957 0.009024921 0.008931281 0.00885091 0.00880265 0.008812404 0.00890433 0.009041806
 0.009223097 0.009401003 0.009565281 0.009707021 0.009824052 0.00991859 0.009990662</values></Ydata></AB><ScSm><Ydata ylabel="Single channel"><values byteorder="INTEL" format="FLOAT32" numvalues="1814"> 0.07427277 0.07427759 0.07435104 0.07452087 0.07475723 0.07498934 0.07515489 0.07524065 0.07526658 0.0752423
 0.07517722 0.07513095 0.07519618 0.07540444 0.07567506 0.07587419 0.07592139 0.0758577 0.07581984 0.07590982
 0.07605797 0.07604425 0.0757035 0.07511401 0.07454608 0.074213 0.07414138 0.07433202 0.07488589 0.07573663
 0.07636474 0.07617479 0.07524309 0.07434084 0.07407597 0.07431074 0.07452943 0.07443327 0.07402995 0.07351188
 0.07330468 0.07395327 0.07558557 0.07747114 0.07828419 0.07693936 0.07336533 0.06875016 0.06510548 0.06419028
 0.06626974 0.06975584 0.07239947 0.07308707 0.07237357 0.07134309 0.07044356 0.06962979 0.06911519 0.06940841
 0.07061337 0.07195936 0.07219668 0.07066166 0.06806333 0.06598189 0.06542602 0.06619816 0.06773733 0.06973316
 0.07126993 0.0703382 0.06581162 0.05994983 0.0573909 0.06074053 0.06778947 0.07367571 0.07521172 0.07266694
 0.0683489 0.06469128 0.06334315 0.06472523 0.067948 0.0715495 0.07438433 0.07568031 0.07484151 0.07196501
 0.06834986 0.06586991 0.06582546 0.06843409 0.07278033 0.07689455 0.07864926 0.07733099 0.07411347 0.07081561
 0.06870511 0.06850073 0.07054543 0.07444875 0.07906833 0.08317383 0.08594777 0.0870651 0.08676191 0.08568819
 0.0844143 0.08333395 0.08300553 0.08380745 0.08503253 0.08515883 0.08350493 0.08113954 0.07978138 0.08002372
 0.08086411 0.08092717 0.07985842 0.078095 0.07550033 0.07134423 0.06597021 0.06123706 0.0586604 0.0582598
 0.05966166 0.06268698 0.06605531 0.06731766 0.06554082 0.0630096 0.06296164 0.06613554 0.07039239 0.07332058
 0.07446497 0.07515752 0.07679921 0.07942589 0.08153347 0.08121589 0.07806033 0.07420817 0.0728398 0.07505009
 0.07879455 0.08140097 0.08238387 0.0831362 0.08449839 0.08545583 0.08419435 0.0802528 0.07568414 0.07379144
 0.0762505 0.08142895 0.08557032 0.08557843 0.08110302 0.07461233 0.06946564 0.06759125 0.06897524 0.0729399
 0.07888381 0.08561095 0.09103307 0.09334382 0.0923354 0.08928216 0.08548976 0.08109272 0.07575366 0.0706735
 0.0688259 0.07214215 0.07904045 0.08574732 0.08966111 0.09064312 0.08955051 0.08663461 0.08178412 0.07607087
 0.07225312 0.07263117 0.07627153 0.0795408 0.07991314 0.07827349 0.07703251 0.07712263 0.07766256 0.07781632
 0.07798199 0.07911029 0.08134338 0.08366621 0.08489257 0.08474325 0.08388304 0.08314598 0.08278067 0.08227333
 0.08106783 0.07967596 0.07961693 0.08175649 0.08511847 0.08788998 0.08924067 0.08962125 0.08955205 0.08870493
 0.08638471 0.08284933 0.0798351 0.07926679 0.08139832 0.0846601 0.08728784 0.08858489 0.08875139 0.08824925
 0.08748942 0.08669686 0.08598079 0.08562505 0.08601317 0.08708151 0.08819937 0.0888035 0.08885922 0.08857463
 0.08799713 0.08709474 0.08604461 0.08524399 0.08502698 0.0854146 0.08615181 0.08693478 0.08752518 0.08772032
 0.08742435 0.08678995 0.0861236 0.08561017 0.08525753 0.08509026 0.08520511 0.08559063 0.08604409 0.08634195
 0.08641597 0.08632572 0.08613341 0.0858582 0.08551959 0.08518843 0.08498605 0.08500156 0.08518533 0.08537516
 0.08547692 0.08555669 0.08568735 0.08578368 0.08569703 0.08542751 0.08513754 0.08497277 0.08494525 0.08497813
 0.08498588 0.08488621 0.08459672 0.08411115 0.08359383 0.08331361 0.08342388 0.08384822 0.08439559 0.08490472
 0.08526293 0.08541046 0.08539002 0.08531176 0.08522345 0.08507246 0.08481742 0.08453214 0.08437903 0.08448303
 0.08481884 0.08522543 0.08554105 0.08570601 0.08574718 0.08573386 0.08575571 0.08585779 0.08597106 0.08597849
 0.085869 0.08576359 0.08577412 0.0858811 0.0859658 0.08594404 0.08585835 0.08583215 0.08593461 0.0861157
 0.08628187 0.08640165 0.08651541 0.08665928 0.08679632 0.08683398 0.08672685 0.0865493 0.0864257 0.08639841
 0.08641879 0.08645992 0.08656396 0.08675656 0.08697239 0.08710877 0.08713578 0.08712164 0.08714417 0.08719751
 0.08720575 0.08712043 0.08697847 0.08686293 0.08682976 0.08687661 0.08695871 0.08702119 0.08702722 0.08697228
 0.08687845 0.08677398 0.0866756 0.08659498 0.08656153 0.08661717 0.08676285 0.08691806 0.08696549 0.08685289
 0.08664443 0.08646232 0.0863765 0.08635163 0.08629952 0.08617314 0.08600128 0.08584267 0.08572905 0.08565415
 0.0855954 0.08553756 0.0854928 0.0855058 0.08561639 0.08579755 0.08594883 0.08598027 0.08589885 0.08579311
 0.08574224 0.08576168 0.08582278 0.08589578 0.08597721 0.0860902 0.08624624 0.0864035 0.08649462 0.08650781
 0.08650747 0.08656649 0.08671167 0.08693251 0.08719084 0.08741465 0.08753929 0.08757878 0.08761936 0.08772575
 0.08788375 0.08804514 0.08819363 0.08834673 0.08851881 0.08871211 0.08893535 0.08920773 0.08953759 0.08990243
 0.09025082 0.09053017 0.09073038 0.09090844 0.09115514 0.09152047 0.09196966 0.09241524 0.09279112 0.09309908
 0.09338854 0.09369653 0.09401855 0.09434398 0.09469628 0.09510832 0.09556824 0.09602526 0.09644968 0.09685925
 0.09728272 0.09772246 0.09816176 0.09859642 0.09904742 0.09953696 0.1000491 0.1005256 0.1009172 0.1012353
 0.1015446 0.1019106 0.1023557 0.102843 0.1032902 0.1036288 0.1038768 0.1041329 0.104471 0.1048592
 0.105216 0.1055294 0.1058752 0.1063132 0.1068063 0.1072614 0.1076306 0.1079498 0.1082849 0.1086531
 0.1090041 0.1092779 0.109474 0.1096518 0.109865 0.1101265 0.1104414 0.1108364 0.1113177 0.111826
 0.112275 0.1126245 0.112891 0.1131086 0.1133084 0.1135163 0.1137364 0.113951 0.1141528 0.1143534
 0.1145468 0.114707 0.1148417 0.1150093 0.1152547 0.1155657 0.1159156 0.1163087 0.116747 0.1171885
 0.1175925 0.1179881 0.1184421 0.1189514 0.1194165 0.1197457 0.1199473 0.1200919 0.1202263 0.1203706
 0.1205694 0.1208819 0.1213146 0.1218065 0.1222891 0.1227358 0.1231531 0.1235447 0.1238972 0.1241881
 0.124405 0.1245583 0.124683 0.1248287 0.1250437 0.1253474 0.1257072 0.1260536 0.1263275 0.1265039
 0.1265711 0.1265214 0.1263874 0.1262564 0.1262028 0.1262004 0.1261323 0.1258928 0.1254572 0.1248545
 0.1241087 0.1232348 0.1222787 0.1213344 0.1205108 0.1198849 0.1194934 0.1193661 0.1195456 0.1200479
 0.1208023 0.1216544 0.122438 0.1230271 0.123325 0.123254 0.1227956 0.1220252 0.1210772 0.120079
 0.1191195 0.1182437 0.1174508 0.1167267 0.1161167 0.1157657 0.1158621 0.116539 0.1178201 0.1196223
 0.121774 0.1240425 0.1261989 0.1280987 0.1297157 0.1311007 0.1323197 0.1334325 0.1344939 0.1355306
 0.1365178 0.1374091 0.138195 0.1389075 0.1395708 0.1401719 0.1406795 0.1410742 0.1413646 0.1415863
 0.1417751 0.1419324 0.1420334 0.1420758 0.1420953 0.142118 0.1421144 0.1420136 0.1417535 0.1413199
 0.14077 0.1402512 0.1399966 0.1402645 0.1412252 0.1428595 0.1449561 0.1472204 0.1493947 0.1513058
 0.1528577 0.1540371 0.1549189 0.1556235 0.1562473 0.156834 0.157395 0.1579353 0.1584591 0.1589689
 0.1594668 0.1599584 0.1604535 0.1609583 0.1614615 0.1619369 0.1623701 0.162782 0.1632182 0.1637083
 0.1642358 0.1647544 0.1652375 0.165705 0.1661841 0.1666594 0.1670872 0.167454 0.1677949 0.1681564
 0.1685677 0.1690342 0.1695297 0.1699976 0.1703913 0.1707174 0.171024 0.1713509 0.1717052 0.1720746
 0.1724466 0.1728134 0.1731726 0.1735316 0.1739059 0.1743028 0.1747003 0.1750564 0.1753499 0.1756081
 0.175883 0.1762006 0.1765423 0.1768723 0.1771805 0.1774966 0.1778612 0.178277 0.1786961 0.1790606
 0.1793541 0.1796078 0.1798657 0.1801516 0.1804658 0.1807971 0.1811323 0.1814612 0.1817806 0.1820961
 0.1824158 0.1827429 0.1830744 0.1834047 0.1837304 0.1840507 0.184365 0.1846735 0.184983 0.1853142
 0.1856878 0.1860945 0.1864873 0.1868185 0.1870835 0.1873191 0.1875633 0.1878304 0.1881181 0.188421
 0.1887327 0.1890458 0.1893558 0.1896628 0.1899669 0.1902676 0.190567 0.1908703 0.1911799 0.1914927
 0.1918069 0.1921282 0.1924608 0.1927963 0.1931186 0.193421 0.1937111 0.1940002 0.1942928 0.1945876
 0.1948812 0.1951715 0.1954597 0.1957489 0.1960408 0.1963339 0.1966259 0.1969137 0.1971958 0.1974755
 0.1977585 0.1980462 0.1983344 0.1986202 0.1989077 0.199203 0.1995057 0.1998081 0.2001038 0.200396
 0.2006924 0.2009929 0.2012897 0.2015823 0.2018801 0.2021862 0.2024902 0.2027802 0.2030574 0.2033332
 0.2036161 0.2039036 0.204188 0.2044683 0.2047516 0.2050414 0.2053348 0.2056296 0.205928 0.2062293
 0.2065287 0.2068228 0.2071105 0.2073929 0.2076752 0.2079657 0.208267 0.2085733 0.2088779 0.20918
 0.2094831 0.2097884 0.2100909 0.2103843 0.2106688 0.2109481 0.2112204 0.2114833 0.2117431 0.2120087
 0.2122805 0.2125527 0.2128205 0.2130814 0.2133364 0.2135935 0.213861 0.2141386 0.2144217 0.2147073
 0.2149934 0.2152795 0.2155685 0.2158615 0.2161556 0.2164514 0.2167522 0.2170539 0.2173491 0.2176372
 0.217921 0.2182007 0.2184807 0.2187699 0.2190683 0.2193672 0.2196602 0.219945 0.220221 0.2204946
 0.2207733 0.2210553 0.2213368 0.2216238 0.2219196 0.2222149 0.2225017 0.2227832 0.223063 0.2233427
 0.2236269 0.2239149 0.2241976 0.2244731 0.2247492 0.2250288 0.2253116 0.225601 0.2258945 0.2261832
 0.2264688 0.2267584 0.2270442 0.2273155 0.2275795 0.2278473 0.2281183 0.228393 0.2286702 0.2289236
 0.2290897 0.2290247 0.2283771 0.2264479 0.2221717 0.2143316 0.2020422 0.1853066 0.1652102 0.1435386
 0.1221227 0.1023589 0.08506802 0.07060649 0.0590547 0.05033331 0.04426695 0.04070039 0.03962991 0.04133917
 0.04654023 0.05594917 0.06870432 0.0809737 0.08745153 0.08554617 0.07785502 0.06979504 0.06510565 0.06404921
 0.06502473 0.06666096 0.06852199 0.07086541 0.07413232 0.07844329 0.08357376 0.08949657 0.09665279 0.1053833
 0.1152392 0.1251682 0.1344262 0.1431596 0.1520504 0.161489 0.171163 0.1803648 0.1885552 0.1956321
 0.2018196 0.2074188 0.2126397 0.2175803 0.2222873 0.2267548 0.2308267 0.2341561 0.2363717 0.2373619
 0.2374102 0.2370348 0.2366821 0.2365544 0.2366694 0.2369938 0.2375004 0.2381655 0.2389682 0.2398856
 0.2408801 0.2419076 0.2429356 0.2439396 0.2448941 0.2457811 0.2465958 0.247339 0.248013 0.2486266
 0.2491906 0.2497122 0.2501998 0.2506616 0.2510982 0.2515064 0.251889 0.2522499 0.2525863 0.2528974
 0.2531918 0.2534788 0.2537582 0.2540236 0.2542707 0.2545027 0.2547317 0.2549714 0.2552235 0.2554774
 0.2557255 0.2559695 0.2562108 0.2564454 0.2566692 0.2568837 0.2570946 0.2573081 0.2575261 0.2577454
 0.2579644 0.2581872 0.2584161 0.2586466 0.2588733 0.2590957 0.2593167 0.2595408 0.2597701 0.2599996
 0.2602243 0.2604538 0.2607041 0.260972 0.2612356 0.2614806 0.2617127 0.2619435 0.2621804 0.2624258
 0.262668 0.2628816 0.2630535 0.2632061 0.2633859 0.2636221 0.263899 0.2641709 0.2644087 0.2646217
 0.264834 0.2650539 0.2652706 0.2654692 0.2656478 0.2658327 0.2660632 0.266346 0.2666476 0.2669424
 0.2672338 0.2675222 0.2677934 0.2680485 0.268299 0.2685293 0.2687071 0.2688442 0.2690183 0.2693132
 0.2697333 0.270186 0.2705663 0.270851 0.2710921 0.2713475 0.2716457 0.2719639 0.2721922 0.2722053
 0.2720544 0.2720087 0.2723099 0.2729297 0.2736321 0.2742163 0.2746416 0.2749701 0.2752595 0.2755044
 0.275648 0.2756513 0.2755788 0.2756136 0.2759317 0.2765191 0.277165 0.2776751 0.278025 0.2782817
 0.278491 0.2786734 0.2787839 0.278643 0.2781191 0.2774671 0.2772706 0.2778817 0.2790266 0.2801002
 0.280767 0.28114 0.2814454 0.2817389 0.2819652 0.2820106 0.2815758 0.2803484 0.2786152 0.277429
 0.2777399 0.279443 0.2815562 0.2831995 0.2841434 0.2845981 0.2848422 0.2850362 0.2850977 0.2847016
 0.2836469 0.2823471 0.2817302 0.2823814 0.2838827 0.2852604 0.2859818 0.2862411 0.2864327 0.2867054
 0.2868652 0.2863391 0.2845021 0.2816013 0.2792188 0.2791644 0.2817083 0.2852521 0.2879063 0.2891134
 0.2895082 0.2895338 0.2887931 0.2867748 0.2836291 0.2801045 0.2773133 0.2765775 0.2785544 0.2821422
 0.2851049 0.2862763 0.2865431 0.2873745 0.2890669 0.2907566 0.2915506 0.2912146 0.2900148 0.2882339
 0.2860405 0.2839442 0.2830658 0.2843471 0.2874137 0.2907029 0.2929029 0.2939472 0.2943476 0.293678
 0.2902565 0.2831737 0.2748428 0.2703384 0.2729157 0.2806019 0.2883167 0.2928706 0.2947096 0.2955207
 0.2959659 0.2955079 0.2927281 0.2860974 0.2763924 0.2682214 0.2669138 0.2732467 0.2825606 0.289108
 0.2899736 0.2853847 0.2776687 0.270555 0.2676545 0.2702753 0.2768527 0.2844931 0.2907092 0.2941039
 0.2943614 0.2921087 0.2888547 0.2866198 0.286483 0.286989 0.2852463 0.2805769 0.2756445 0.2725476
 0.2695783 0.2643918 0.2591515 0.2590998 0.2657385 0.2743141 0.2791572 0.2794281 0.2780997 0.2765495
 0.2722104 0.2622708 0.2489915 0.2398051 0.2408142 0.2504685 0.2609562 0.2658507 0.2652133 0.26331
 0.2629036 0.2624407 0.2582655 0.2494026 0.2399663 0.2357156 0.2379505 0.242351 0.2440902 0.2417009
 0.2354147 0.225585 0.2153894 0.2118256 0.2198013 0.2361049 0.2519251 0.2601199 0.257841 0.2449284
 0.2248437 0.2066993 0.2008374 0.2095861 0.2244369 0.2338827 0.2325615 0.2221938 0.2066236 0.1891769
 0.1741906 0.1675052 0.1729505 0.1884407 0.2060888 0.216157 0.2124273 0.1970054 0.1806823 0.1751745
 0.1825018 0.193628 0.1985982 0.1955721 0.1893956 0.1853191 0.1859474 0.1908586 0.1970705 0.2018055
 0.2047036 0.2047592 0.1973397 0.1797893 0.1589312 0.1465894 0.14729 0.1559329 0.1672784 0.1806285
 0.1936792 0.1993176 0.1936539 0.1834211 0.1802498 0.1883231 0.2007914 0.2081384 0.2075889 0.2036045
 0.2009749 0.1997149 0.1974521 0.1949427 0.1962798 0.2032504 0.2122241 0.2182049 0.220037 0.2199711
 0.2198515 0.2197238 0.2191179 0.2178647 0.216014 0.2139739 0.2123945 0.2114206 0.2105543 0.2094109
 0.2076992 0.2041107 0.1966227 0.1853852 0.1745273 0.1689133 0.1690232 0.171276 0.1733542 0.1755566
 0.1758148 0.1682985 0.1511178 0.1326387 0.1254082 0.1340491 0.1518141 0.1682388 0.1770892 0.1768831
 0.1678454 0.152318 0.1374849 0.1330882 0.1434401 0.1632727 0.1833923 0.1985984 0.2082157 0.2116916
 0.2077664 0.1977839 0.1869743 0.181474 0.184618 0.1954606 0.2090384 0.2175867 0.2143351 0.2002793
 0.1872506 0.1891777 0.2074013 0.2283686 0.2388645 0.2394214 0.2389013 0.2407221 0.2411809 0.2391945
 0.2401778 0.2486032 0.2613965 0.270962 0.2718611 0.2629576 0.2466596 0.2294025 0.2199846 0.2225415
 0.2318557 0.2390272 0.2400872 0.235503 0.2249208 0.2092986 0.1964286 0.1962678 0.2093948 0.2256788
 0.2357915 0.239696 0.242448 0.2454864 0.244911 0.2374176 0.2258033 0.2172346 0.2161418 0.2203352
 0.2247057 0.2266189 0.2259656 0.2221222 0.2143387 0.2050826 0.2000592 0.2032754 0.2129213 0.2230879
 0.229073 0.2303425 0.2291124 0.2275131 0.226156 0.2243216 0.2214117 0.2188377 0.2197467 0.2255949
 0.2337267 0.2400591 0.2437499 0.2474708 0.2532145 0.2595217 0.2632242 0.262888 0.2601854 0.2584517
 0.2600102 0.2643147 0.2683429 0.2691711 0.2667567 0.2642427 0.2650692 0.2696933 0.2755306 0.2799011
 0.2822274 0.2834618 0.2844899 0.2853766 0.2853403 0.2833547 0.2796251 0.276458 0.2766344 0.2806438
 0.2861997 0.2905787 0.2927992 0.2934799 0.2933722 0.2925709 0.2909345 0.2887901 0.2869588 0.2861238
 0.286346 0.2872168 0.2882883 0.2892744 0.2900374 0.2905681 0.290942 0.2912224 0.2914321 0.2916086
 0.2917864 0.2919132 0.291896 0.2917754 0.2917554 0.291982 0.2923589 0.2926538 0.2927123 0.2924699
 0.291832 0.2907077 0.2891656 0.28741 0.2855573 0.2835594 0.2814685 0.279732 0.2790627 0.2799006
 0.2820024 0.2845981 0.2869267 0.2886094 0.2896263 0.2901226 0.2902872 0.2903037 0.2902933 0.2902765
 0.2902061 0.2900418 0.2897877 0.2894714 0.2891158 0.2887484 0.2884142 0.2881488 0.2879377 0.28772
 0.2874289 0.2870262 0.2865147 0.2859343 0.2853307 0.284711 0.2840272 0.283213 0.282244 0.2811683
 0.2800814 0.2790641 0.2781321 0.2772338 0.2762964 0.2752699 0.2741197 0.2727995 0.2712898 0.2696793
 0.2681499 0.2668341 0.2657118 0.2646618 0.2635707 0.2623697 0.2610281 0.2595624 0.2580307 0.2564876
 0.2549456 0.2533807 0.2517592 0.2500605 0.2482851 0.2464436 0.2445388 0.2425656 0.2405286 0.2384434
 0.2363074 0.2340621 0.2315862 0.2287333 0.2253793 0.22145 0.2169355 0.2119108 0.2065369 0.2010223
 0.1955729 0.1903677 0.1855527 0.1812392 0.1775081 0.1744176 0.1720083 0.1703109 0.169351 0.1691387
 0.1696521 0.170839 0.172622 0.1748948 0.1775192 0.180333 0.1831608 0.1858384 0.1882664 0.1904543
 0.1924934 0.1944667 0.1963833 0.1981946 0.1998597 0.2013727 0.2027313 0.2039097 0.2048841 0.2056701
 0.2063162 0.2068681 0.2073481 0.2077559 0.2080832 0.2083351 0.2085399 0.2087369 0.2089632 0.2092506
 0.2096173 0.2100593 0.2105642 0.2111353 0.2117894 0.2125332 0.2133484 0.2142018 0.2150723 0.2159674
 0.2169097 0.217917 0.2190136 0.2202511 0.221687 0.2233379 0.2251702 0.2271248 0.2291292 0.2310901
 0.2328992 0.2344588 0.2357122 0.2366548 0.2373159 0.2377324 0.2379404 0.2379784 0.237878 0.2376582
 0.2373362 0.2369317 0.2364555 0.2359073 0.2352884 0.2346068 0.2338768 0.2331237 0.2323779 0.2316524
 0.2309373 0.2302222 0.2295118 0.2288198 0.2281531 0.2274997 0.2268323 0.2261336 0.2254173 0.2247104
 0.2240152 0.2232972 0.2225048 0.2216015 0.2205861 0.2194781 0.2182797 0.2169702 0.215542 0.2140188
 0.2124289 0.2107813 0.2090762 0.2073181 0.20551 0.2036403 0.2016804 0.1996007 0.1974056 0.1951559
 0.1929456 0.1908521 0.1889039 0.1870809 0.1853411 0.1836609 0.1820487 0.1805171 0.1790574 0.1776557
 0.1763122 0.1750296 0.173804 0.1726387 0.1715533 0.1705699 0.1696993 0.1689392 0.1682749 0.1676861
 0.16716 0.1666981 0.1663167 0.1660397 0.1658737 0.1657853 0.1657135 0.1656076 0.1654431 0.165216
 0.1649446 0.1646676 0.1644211 0.1642153 0.1640338 0.1638352 0.1635529 0.1631027 0.162398 0.16137
 0.1599982 0.158325 0.1564329 0.1544212 0.152411 0.150539 0.1489168 0.1476014 0.146597 0.1458534
 0.1452725 0.1447646 0.144318 0.1440002 0.1438896 0.1439866 0.1441705 0.1442659 0.1441981 0.144075
 0.1440938 0.1443804 0.1449211 0.1456009 0.1462819 0.14687 0.1473245 0.1476228 0.1477538 0.1477449
 0.1476471 0.1474867 0.1472629 0.1469814 0.1466578 0.1463004 0.1459045 0.1454484 0.1449014 0.1442566
 0.1435335 0.1427399 0.1418671 0.1409113 0.1398489 0.1386339 0.1373071 0.1360815 0.135243 0.1349722
 0.1352636 0.1359596 0.1368577 0.1378265 0.138777 0.1395145 0.1397947 0.1396905 0.1397806 0.140736
 0.1426696 0.1449999 0.1469735 0.1482186 0.1487726 0.148766 0.148257 0.1472721 0.1458124 0.1438452
 0.1414011 0.1386147 0.1356239 0.1325495 0.1295751 0.1268954 0.1246061 0.12273 0.1212649 0.120239
 0.1197683 0.1194899 0.1175672 0.1116366 0.1024475 0.09551768 0.09651025 0.104868 0.1141858 0.1189874
 0.1191016 0.1174294 0.1159792 0.1150547 0.1145447 0.114572 0.1152553 0.116468 0.1178469 0.1190041
 0.1197772 0.1201933 0.1201859 0.1193865 0.1170895 0.112481 0.1052868 0.09635925 0.08739536 0.07995018
 0.07474476 0.07167606 0.07013518 0.06936656 0.06885891 0.06857531 0.06881203 0.06984107 0.07169472 0.07423696
 0.07730655 0.08066767 0.08389902 0.08656844 0.08857154 0.09012921 0.0914202 0.0923782 0.09286277 0.09286281
 0.09249305 0.0919008 0.09120667 0.0904607 0.0896107 0.08855151 0.08728415 0.08603863 0.08514365 0.08472633
 0.08462727 0.08462866 0.08463772 0.08463509 0.08460279 0.08454647 0.08449309 0.08447517 0.08457096 0.08487715
 0.08537063 0.08587356 0.08620787 0.08634222 0.08637696 0.08638841 0.08627379 0.08583848 0.08512197 0.084465
 0.08405676 0.08359677 0.08268872 0.08145407 0.08047406 0.08016638 0.08042248 0.08081676 0.08099076 0.08084214
 0.08052638 0.08036743 0.08063762 0.08126131</values></Ydata></ScSm><ScRf><Ydata ylabel="Single channel"><values byteorder="INTEL" format="FLOAT32" numvalues="1820"> 0.06069705 0.06085747 0.0609488 0.06097246 0.06095609 0.06095036 0.06100927 0.06115584 0.06136241 0.06156467
 0.06170408 0.06176596 0.0617707 0.06173377 0.06166436 0.06160627 0.06163455 0.06178288 0.06199327 0.06215589
 0.06219792 0.06214595 0.0621094 0.06217432 0.06228783 0.06227059 0.06198473 0.06149404 0.06102461 0.06075401
 0.06069657 0.06083972 0.06126333 0.06192809 0.06242656 0.06227172 0.06150989 0.06075936 0.06052027 0.06069091
 0.06085669 0.06077345 0.06044326 0.06001821 0.05984363 0.06036662 0.0616954 0.06323369 0.06389301 0.06277917
 0.05983315 0.05603446 0.05303638 0.05227803 0.05397364 0.05682518 0.05899347 0.05956287 0.05898368 0.05814578
 0.05741704 0.05675239 0.05631765 0.05653187 0.05749078 0.0585691 0.05874183 0.0574643 0.05532037 0.05360605
 0.05314398 0.05376852 0.05502234 0.05665706 0.05792427 0.0571726 0.05347119 0.04866494 0.04655302 0.04927799
 0.05504098 0.05986039 0.06111394 0.05901464 0.05546202 0.05246404 0.05136871 0.05250102 0.05511989 0.05803589
 0.06032714 0.06136923 0.06067444 0.05832302 0.05537856 0.05336689 0.05333774 0.05546003 0.05898938 0.06232763
 0.06374363 0.06265365 0.06001418 0.05731242 0.05558517 0.05541606 0.05708156 0.06026655 0.06404632 0.06741714
 0.06970044 0.07061777 0.07036036 0.06946999 0.06842259 0.06753809 0.0672636 0.06790428 0.06888783 0.06897865
 0.06762232 0.06568771 0.06457336 0.06476331 0.06544286 0.06549037 0.06461216 0.06316218 0.06103293 0.05763376
 0.05324569 0.04938368 0.04728309 0.04695784 0.04810359 0.05058105 0.05335125 0.05440917 0.05297661 0.05090611
 0.05084151 0.05339751 0.05684134 0.05921048 0.06013049 0.06068288 0.06200979 0.06414477 0.06586678 0.06562327
 0.06307027 0.05994012 0.05881955 0.06061006 0.06365764 0.06578555 0.06659122 0.06720746 0.06832373 0.06911885
 0.06811924 0.0649523 0.06128438 0.05978655 0.06180486 0.0660121 0.06937131 0.06937943 0.06575096 0.06048636
 0.05631623 0.05481184 0.05596701 0.05923984 0.06415118 0.06972938 0.07426258 0.07625502 0.07551023 0.07305805
 0.0699814 0.06641196 0.06207583 0.05794955 0.05648017 0.05927403 0.06504013 0.07066442 0.07399122 0.07490028
 0.07409352 0.07176423 0.06780438 0.06310634 0.05999188 0.06040934 0.0635872 0.06646504 0.06689471 0.06560148
 0.06462118 0.06476405 0.06530452 0.06553727 0.06579392 0.06687989 0.06891769 0.07103997 0.07222332 0.07221466
 0.07157984 0.0710464 0.07084087 0.07052255 0.06961024 0.06854822 0.06864808 0.07064857 0.07369617 0.07622096
 0.07750785 0.07795368 0.0780165 0.07740939 0.07551087 0.07252888 0.06998545 0.0695938 0.07160389 0.07463995
 0.07713122 0.07844441 0.0787483 0.0784508 0.07791889 0.07736079 0.07688247 0.07673361 0.07724327 0.078348
 0.0794898 0.08017161 0.08036058 0.08023517 0.07983393 0.07913621 0.07831775 0.07774486 0.07771027 0.0782177
 0.07903221 0.07988762 0.08057492 0.08090291 0.08076933 0.08030968 0.07981907 0.07948442 0.07931465 0.07932049
 0.07958041 0.08008074 0.08063551 0.08104028 0.08123294 0.08126792 0.08120362 0.0810613 0.08086114 0.08066767
 0.08059225 0.080716 0.08098961 0.08126517 0.08146976 0.08167898 0.081955 0.08219221 0.08222593 0.08205067
 0.08183594 0.08174302 0.08179704 0.08192398 0.08203422 0.08204038 0.08185656 0.08147366 0.08105143 0.08085421
 0.08104154 0.08155707 0.08222477 0.08287289 0.0833607 0.08360733 0.08365224 0.08361483 0.08355758 0.0834423
 0.08323555 0.0830114 0.08292959 0.08311301 0.08353555 0.0840337 0.08443765 0.08467576 0.08477081 0.08480537
 0.08489117 0.08508094 0.08528636 0.08536042 0.08528198 0.08519119 0.0852219 0.08535178 0.08544285 0.08540584
 0.08530274 0.0852823 0.08542356 0.08566535 0.08589286 0.08606228 0.08622079 0.08641741 0.08661139 0.08668738
 0.08658111 0.08637212 0.08620771 0.08614869 0.08615038 0.08618593 0.08630227 0.08652312 0.08676447 0.08690497
 0.08692091 0.08690601 0.08695185 0.0870387 0.08706389 0.08696145 0.08677 0.08659136 0.08650808 0.08653748
 0.08663303 0.08671591 0.08672269 0.08664459 0.0865255 0.08641699 0.08633938 0.08629621 0.08631779 0.08645287
 0.08669012 0.08690892 0.08695368 0.08677649 0.08649303 0.0862812 0.08622131 0.08623712 0.08618779 0.08600479
 0.08573611 0.08547785 0.08528824 0.08516409 0.08507192 0.08498869 0.08492881 0.08494153 0.08505999 0.08523204
 0.08532429 0.08523221 0.08498323 0.08470701 0.0845154 0.08443399 0.08442344 0.08442785 0.08441961 0.08442737
 0.08449683 0.08460499 0.08465697 0.08459605 0.08447571 0.08440149 0.08444374 0.084612 0.08484999 0.08503984
 0.08507769 0.08497742 0.08485942 0.08482337 0.08486959 0.08494772 0.08503018 0.08511609 0.08520228 0.08528708
 0.0853925 0.08555651 0.0857951 0.0860761 0.08633214 0.08650602 0.08659723 0.0866722 0.08682039 0.08708552
 0.08743101 0.0877701 0.08803412 0.08822076 0.08838036 0.08855505 0.08874339 0.08893392 0.08914937 0.08942422
 0.08974923 0.09007502 0.0903708 0.09064972 0.0909362 0.09123467 0.09153761 0.09185153 0.09220608 0.09262532
 0.09307845 0.09347334 0.09372862 0.09385468 0.09395294 0.09414027 0.09446909 0.09488493 0.09524918 0.0954484
 0.09551299 0.09559381 0.09579456 0.09606694 0.09630871 0.0965219 0.09681065 0.0972321 0.09770647 0.09809291
 0.09832564 0.0984609 0.09860288 0.09879629 0.09899376 0.09912759 0.09919997 0.09927808 0.09940813 0.09957901
 0.09978446 0.1000666 0.1004544 0.100893 0.101282 0.1015685 0.1017679 0.1019163 0.1020374 0.1021389
 0.102212 0.1022473 0.1022674 0.1023151 0.1023949 0.1024595 0.1024803 0.1024964 0.102571 0.102728
 0.1029571 0.1032469 0.1035735 0.1038823 0.1041355 0.1043754 0.1046861 0.1050702 0.1054138 0.1056091
 0.1056737 0.1057035 0.1057453 0.1057827 0.1058273 0.1059451 0.1061785 0.106494 0.1068312 0.107166
 0.1075084 0.1078593 0.1081854 0.1084318 0.1085592 0.1085776 0.1085487 0.1085551 0.1086622 0.10889
 0.1092033 0.1095337 0.1098205 0.110029 0.110133 0.1101186 0.1100282 0.1099743 0.1100555 0.1102509
 0.1104239 0.1104375 0.1102457 0.1098764 0.1093647 0.1087357 0.1080386 0.1073633 0.1068034 0.1064089
 0.1061888 0.1061581 0.1063585 0.1068106 0.107453 0.1081594 0.1088144 0.109342 0.109663 0.1096819
 0.1093558 0.1087525 0.1080113 0.1072598 0.1065743 0.105974 0.1054222 0.1048702 0.1043492 0.1040127
 0.1040595 0.1046102 0.105649 0.1070405 0.1085745 0.1100291 0.1112548 0.1122308 0.1130358 0.1137586
 0.1144406 0.1150969 0.1157522 0.1164203 0.1170647 0.1176274 0.1180983 0.1185225 0.1189382 0.1193366
 0.1196842 0.1199578 0.1201657 0.1203502 0.1205516 0.1207495 0.1208668 0.120854 0.1207453 0.1206105
 0.1204754 0.120308 0.1200587 0.1197011 0.1192646 0.118861 0.1186722 0.1188755 0.1195424 0.1205916
 0.1218498 0.1231625 0.1244389 0.125603 0.12656 0.127248 0.1276978 0.128008 0.1282716 0.1285399
 0.1288317 0.1291457 0.1294674 0.1297796 0.1300732 0.1303549 0.1306462 0.1309652 0.1312981 0.1316023
 0.1318542 0.1320844 0.1323563 0.1327045 0.1331002 0.1334798 0.1338101 0.1341159 0.1344308 0.1347371
 0.1349838 0.1351612 0.1353232 0.1355348 0.1358231 0.1361754 0.136549 0.1368814 0.1371254 0.1372904
 0.1374339 0.1376081 0.1378248 0.1380685 0.1383222 0.1385757 0.1388257 0.1390817 0.1393653 0.1396839
 0.1400028 0.1402619 0.1404331 0.1405542 0.1406932 0.140886 0.1411152 0.141342 0.1415502 0.1417649
 0.1420269 0.1423439 0.1426659 0.142923 0.1430896 0.1432023 0.1433186 0.1434701 0.1436568 0.1438664
 0.1440848 0.144299 0.1445032 0.1447051 0.1449163 0.1451381 0.1453586 0.1455664 0.1457619 0.1459562
 0.1461601 0.1463752 0.1465988 0.1468364 0.1471013 0.1473918 0.1476767 0.1479174 0.148103 0.1482531
 0.148393 0.1485386 0.1486994 0.14888 0.1490759 0.149277 0.1494761 0.1496735 0.1498738 0.1500804
 0.1502906 0.1504976 0.1506979 0.1508964 0.1511021 0.1513202 0.15155 0.1517851 0.1520149 0.1522275
 0.1524182 0.1525963 0.1527797 0.1529763 0.153174 0.1533559 0.1535237 0.1536979 0.1538928 0.154103
 0.1543131 0.154514 0.1547049 0.1548897 0.1550753 0.1552703 0.1554784 0.1556943 0.1559076 0.1561111
 0.1563041 0.1564887 0.1566691 0.1568533 0.157049 0.1572549 0.1574621 0.1576649 0.1578662 0.1580699
 0.1582732 0.1584696 0.1586572 0.1588426 0.1590337 0.1592311 0.1594308 0.1596342 0.159846 0.1600627
 0.1602711 0.1604625 0.1606426 0.1608285 0.1610362 0.1612681 0.1615087 0.1617391 0.1619544 0.1621632
 0.1623737 0.1625868 0.1627989 0.1630069 0.1632119 0.1634196 0.1636342 0.1638521 0.164066 0.1642697
 0.1644569 0.1646249 0.1647807 0.1649358 0.1650959 0.165262 0.1654379 0.1656281 0.165832 0.1660423
 0.1662492 0.1664456 0.1666336 0.1668217 0.1670163 0.1672186 0.1674272 0.1676371 0.1678413 0.1680404
 0.1682429 0.1684553 0.1686763 0.1689024 0.1691273 0.1693429 0.1695474 0.1697479 0.1699519 0.1701612
 0.1703734 0.1705812 0.1707786 0.1709697 0.1711656 0.1713712 0.1715843 0.1718023 0.1720206 0.172233
 0.1724415 0.1726534 0.1728667 0.1730746 0.1732788 0.1734855 0.1736947 0.1739067 0.1741242 0.1743436
 0.1745561 0.1747588 0.1749552 0.1751518 0.1753602 0.1755874 0.1758233 0.1760517 0.1762688 0.1764791
 0.1766863 0.1768969 0.1771119 0.1773098 0.1774382 0.1773795 0.1768574 0.1753342 0.1719929 0.1658927
 0.1563406 0.1433302 0.1277001 0.1108416 0.09418455 0.07881804 0.06537899 0.05414207 0.04516774 0.03839236
 0.03368001 0.03091443 0.03009727 0.03144624 0.03550298 0.04281155 0.05270231 0.06221177 0.06723102 0.06574687
 0.05977093 0.05351109 0.04987538 0.04906493 0.04983144 0.05111244 0.05257548 0.0544186 0.05697408 0.06032849
 0.06431229 0.06891666 0.07449227 0.08130114 0.08898573 0.09672269 0.1039344 0.1107386 0.1176676 0.1250234
 0.1325625 0.1397385 0.1461352 0.1516695 0.1565095 0.16089 0.1649798 0.1688547 0.1725435 0.176036
 0.1792118 0.1818083 0.1835453 0.1843386 0.1844009 0.1841253 0.1838563 0.183757 0.1838482 0.1841107
 0.1845265 0.1850722 0.1857206 0.1864486 0.1872312 0.188042 0.1888594 0.1896648 0.1904389 0.191166
 0.1918371 0.1924454 0.1929906 0.1934836 0.1939353 0.1943495 0.194734 0.1951055 0.1954761 0.1958427
 0.1961941 0.1965222 0.1968248 0.1971043 0.1973618 0.1975935 0.1978007 0.1979975 0.1982007 0.1984136
 0.1986267 0.1988312 0.1990282 0.1992252 0.199427 0.1996295 0.1998272 0.2000243 0.2002296 0.2004434
 0.2006557 0.2008595 0.2010544 0.2012433 0.2014325 0.2016314 0.2018425 0.2020561 0.2022603 0.2024524
 0.2026388 0.2028272 0.2030165 0.2031966 0.2033632 0.2035321 0.2037251 0.2039461 0.2041825 0.2044233
 0.2046632 0.2048957 0.2051158 0.2053235 0.2055153 0.2056805 0.2058192 0.205955 0.2061221 0.2063383
 0.2065888 0.2068374 0.2070569 0.2072475 0.207424 0.2076 0.2077831 0.2079724 0.2081603 0.2083504
 0.2085662 0.2088206 0.209092 0.2093483 0.2095798 0.2097962 0.2100143 0.2102526 0.2105109 0.2107516
 0.2109327 0.2110671 0.2112288 0.2114894 0.2118465 0.2122172 0.2125144 0.2127253 0.2129068 0.213119
 0.2133845 0.2136706 0.2138775 0.2139076 0.2138136 0.213817 0.2141032 0.2146339 0.2152133 0.2156897
 0.2160444 0.2163314 0.2165917 0.2168158 0.2169551 0.2169756 0.2169304 0.216973 0.2172493 0.2177479
 0.218297 0.2187366 0.2190425 0.2192683 0.2194573 0.2196328 0.2197588 0.2196874 0.219313 0.2188423
 0.2187403 0.2192781 0.2202262 0.2211011 0.2216469 0.2219656 0.2222398 0.2225083 0.2227228 0.2227947
 0.2224883 0.2215544 0.2202197 0.2193246 0.2196276 0.2210402 0.2227754 0.2241365 0.224949 0.2253783
 0.2256352 0.2258402 0.2259289 0.225648 0.2248437 0.2238515 0.2234141 0.2239959 0.2252609 0.226431
 0.2270793 0.2273542 0.2275638 0.2278295 0.2280086 0.2276514 0.2262532 0.2240013 0.2221583 0.2221747
 0.2242672 0.2271543 0.2293242 0.2303361 0.2307051 0.2307881 0.230262 0.2287101 0.2262505 0.2234862
 0.2213148 0.2208048 0.2224869 0.2254677 0.2279341 0.2289415 0.2292121 0.2299441 0.2313848 0.2328336
 0.2335584 0.2333613 0.2324577 0.2310821 0.229379 0.2277683 0.2271554 0.2282897 0.2308546 0.2335875
 0.235443 0.2363822 0.23682 0.236396 0.2337286 0.2280735 0.2213919 0.2178057 0.2199611 0.226267
 0.2326086 0.236396 0.2379847 0.2387429 0.2392092 0.2389455 0.2367967 0.2315197 0.2237451 0.2172192
 0.2162745 0.2215415 0.2292309 0.2346715 0.2354925 0.2318738 0.2257084 0.220037 0.2178053 0.2200814
 0.2255915 0.2319734 0.2371902 0.2400972 0.240436 0.2387179 0.2361834 0.234502 0.234562 0.2351496
 0.2338737 0.2301857 0.2262959 0.2239325 0.2216699 0.2175601 0.2134012 0.2135577 0.2192917 0.2266559
 0.2309274 0.2313971 0.2305308 0.2294708 0.2260802 0.2180183 0.2071716 0.1997539 0.200881 0.2092622
 0.2183483 0.2227458 0.2225064 0.2212184 0.2212177 0.2212048 0.2180791 0.210989 0.203412 0.2002399
 0.2025676 0.2067071 0.2085554 0.2068733 0.2018458 0.1937574 0.1853483 0.1826803 0.1900347 0.2046797
 0.2190022 0.2267719 0.2254263 0.2147298 0.1976765 0.182327 0.1778858 0.1864582 0.2004932 0.2097244
 0.2093148 0.2007343 0.1873865 0.1722799 0.1594147 0.1542226 0.1603295 0.1758782 0.1935223 0.2040546
 0.2015005 0.1877955 0.1732485 0.1691302 0.1773848 0.1892512 0.1950618 0.1930179 0.1878368 0.1846972
 0.186252 0.1921256 0.1993111 0.2050064 0.2088464 0.2097109 0.2027149 0.1850749 0.1638612 0.1513332
 0.1522135 0.161278 0.1731589 0.1871635 0.2008794 0.2068647 0.2010376 0.1904018 0.1870804 0.1954442
 0.2083711 0.2159595 0.2153301 0.2111519 0.2084403 0.2072198 0.2050166 0.2026325 0.2043529 0.2120304
 0.2218493 0.2285897 0.2310594 0.2316101 0.232142 0.2326629 0.2326505 0.2319279 0.2305746 0.2290489
 0.2280482 0.2277218 0.2275286 0.2270503 0.2259673 0.2228231 0.2153317 0.2035869 0.1921116 0.1862758
 0.1866059 0.1891474 0.1913605 0.1936006 0.1936114 0.1849848 0.1656121 0.144615 0.1357049 0.1439355
 0.1619413 0.1783372 0.186442 0.1848615 0.1740939 0.1567204 0.1400999 0.1340619 0.1428952 0.1612346
 0.1797931 0.1933596 0.2013795 0.2035137 0.1986651 0.1881461 0.1769481 0.1708876 0.1730703 0.1825252
 0.1945201 0.2017763 0.1980371 0.184287 0.1714884 0.1724887 0.1885424 0.2072222 0.216387 0.2164755
 0.215579 0.2168652 0.217008 0.2150183 0.2157866 0.2233787 0.2350622 0.2440032 0.2452657 0.2377595
 0.2236137 0.2086798 0.2010057 0.2043491 0.2138444 0.2212415 0.2228597 0.2191119 0.2096523 0.1954176
 0.1837752 0.1840955 0.1969065 0.2126639 0.2225957 0.2266916 0.2297298 0.2330438 0.2329057 0.2261817
 0.2155765 0.20797 0.207618 0.2124333 0.2175274 0.2203701 0.2208137 0.2181601 0.2115955 0.2035278
 0.1996247 0.2038808 0.2144587 0.225381 0.2318552 0.2332623 0.2317649 0.2294937 0.2271122 0.2239797
 0.2195764 0.2153587 0.2144805 0.2184334 0.2246891 0.2293049 0.2314394 0.2336349 0.2378133 0.2426222
 0.2450747 0.2438045 0.2403637 0.2378665 0.2384905 0.2417517 0.2448701 0.2451439 0.2425199 0.2398808
 0.2403845 0.2444486 0.2497039 0.2536954 0.2558787 0.2570937 0.2581225 0.2590106 0.2590328 0.2572359
 0.2537901 0.2507864 0.2507567 0.2541617 0.2589528 0.2626928 0.264527 0.265043 0.2649265 0.2642466
 0.2628494 0.2610075 0.2594463 0.2587723 0.2590347 0.2598595 0.2608374 0.2617088 0.2623572 0.2627907
 0.2630926 0.2633184 0.2634726 0.2635761 0.2636625 0.2636965 0.2636082 0.2634506 0.263415 0.2636202
 0.263956 0.2642047 0.2642426 0.2640342 0.2635064 0.2625756 0.2612925 0.2598294 0.2582835 0.2566127
 0.2548724 0.2534701 0.2530398 0.2539617 0.2560035 0.2584609 0.2606428 0.2622172 0.2631899 0.2637075
 0.2639318 0.2640048 0.2640177 0.2639858 0.2638751 0.2636602 0.2633548 0.262996 0.2626157 0.2622365
 0.2618827 0.2615747 0.2613012 0.2610118 0.2606504 0.260197 0.2596757 0.2591318 0.2585961 0.2580537
 0.2574461 0.2567125 0.2558377 0.2548684 0.2538944 0.2530004 0.2522096 0.2514669 0.2506961 0.249863
 0.2489621 0.247967 0.2468557 0.2456941 0.2446323 0.2437812 0.2431136 0.242507 0.24185 0.2410892
 0.2402117 0.2392339 0.2381951 0.2371293 0.2360397 0.2349103 0.2337278 0.2324767 0.2311366 0.2296993
 0.2281794 0.2265989 0.2249783 0.223336 0.2216664 0.2199064 0.2179373 0.2156228 0.2128401 0.2094935
 0.2055444 0.2010565 0.1962085 0.191241 0.1863705 0.1817423 0.1774491 0.1735739 0.1702058 0.1674256
 0.1652951 0.1638562 0.1631323 0.1631272 0.1638257 0.1651912 0.1671579 0.1696221 0.172442 0.17545
 0.1784695 0.1813354 0.1839369 0.1862721 0.1884392 0.1905327 0.1925475 0.1944048 0.1960503 0.1974891
 0.1987389 0.1997939 0.2006468 0.2013212 0.2018687 0.2023384 0.2027551 0.2031228 0.20344 0.2037078
 0.2039314 0.2041254 0.2043109 0.204502 0.2047025 0.2049177 0.2051621 0.2054563 0.2058211 0.2062655
 0.2067707 0.2072981 0.2078262 0.20837 0.2089593 0.209611 0.2103346 0.2111505 0.212094 0.2131975
 0.2144664 0.2158627 0.2173034 0.2186792 0.2198891 0.2208742 0.221621 0.2221347 0.2224234 0.2225099
 0.2224367 0.222243 0.2219463 0.2215522 0.221073 0.2205281 0.2199386 0.2193226 0.218687 0.218022
 0.2173185 0.2165921 0.2158808 0.2152084 0.2145596 0.2139024 0.2132315 0.212573 0.211951 0.2113659
 0.2108057 0.2102592 0.2097136 0.2091554 0.208579 0.2079794 0.2073325 0.2066011 0.2057647 0.2048314
 0.2038139 0.2027079 0.201505 0.2002131 0.1988499 0.1974226 0.1959274 0.1943634 0.1927355 0.1910395
 0.1892501 0.1873366 0.1853078 0.1832391 0.1812415 0.1793949 0.1777134 0.1761619 0.1746923 0.1732729
 0.1719038 0.1706042 0.1693811 0.1682205 0.1671114 0.166059 0.1650703 0.1641389 0.1632518 0.1624097
 0.1616365 0.1609646 0.1604048 0.1599385 0.1595415 0.1592073 0.1589498 0.1587929 0.158751 0.1588013
 0.1588837 0.1589354 0.1589206 0.1588327 0.15869 0.1585304 0.1583932 0.1582968 0.1582347 0.158174
 0.1580502 0.1577703 0.1572313 0.156353 0.1551201 0.1535926 0.1518644 0.150026 0.1481784 0.1464479
 0.1449527 0.1437629 0.1428862 0.1422631 0.1417882 0.1413801 0.141041 0.1408411 0.1408495 0.14106
 0.1413519 0.1415568 0.1416103 0.1416207 0.1417687 0.1421683 0.1428132 0.1435948 0.1443617 0.1450059
 0.145497 0.1458421 0.1460595 0.1461845 0.1462395 0.1462048 0.1460624 0.1458413 0.145583 0.1452986
 0.1449741 0.1445793 0.1440833 0.1434929 0.1428425 0.1421364 0.1413502 0.1404746 0.1394934 0.1383683
 0.1371411 0.1360168 0.1352755 0.1351086 0.1355182 0.1363213 0.1372835 0.138289 0.1392958 0.1401239
 0.1405128 0.1405267 0.1407405 0.1418079 0.143836 0.1462749 0.14841 0.149865 0.1506185 0.1507359
 0.1502712 0.1493123 0.1479031 0.1459826 0.1435381 0.1407118 0.1376783 0.1345793 0.1316042 0.1289466
 0.1266899 0.1248462 0.12342 0.1224547 0.1220766 0.1219077 0.1200433 0.1140418 0.1046881 0.09767435
 0.09880641 0.107477 0.1171011 0.1220846 0.1222782 0.1206553 0.1192369 0.1182852 0.1176854 0.117627
 0.1182889 0.119534 0.1209478 0.1221056 0.1228333 0.1231712 0.1230855 0.1222259 0.1198631 0.1151414
 0.1077631 0.0985913 0.08936839 0.08170346 0.07633884 0.07316186 0.07156087 0.07077716 0.07026528 0.06995602
 0.07016811 0.07122504 0.07317729 0.07586445 0.07908747 0.08258437 0.08593987 0.0887505 0.09091705 0.09262758
 0.09403263 0.09506738 0.09560185 0.09563106 0.09527436 0.09467632 0.09395282 0.0931666 0.09228532 0.09120522
 0.08991793 0.08865094 0.08773123 0.08728828 0.08718397 0.08721832 0.0872785 0.08730449 0.08725762 0.08715035
 0.08703828 0.08699578 0.08711821 0.08746956 0.08798915 0.08850916 0.08888386 0.08907741 0.08914164 0.08910249
 0.08884756 0.0882246 0.08733599 0.0865588 0.08607541 0.08555368 0.08456996 0.08324965 0.08220625 0.0818719
 0.0821118 0.08248197 0.08264932 0.08253554 0.08227801 0.08217392 0.08249253 0.08315723 0.08370245 0.08371159
</values></Ydata></ScRf><Data_Parameters_AB><parameter name="DPF">1</parameter><parameter name="NPT">3497</parameter><parameter name="FXV">3996</parameter><parameter name="LXV">500</parameter><parameter name="CSF">1</parameter><parameter name="MXY">0.0431050807237625</parameter><parameter name="MNY">-0.119539640843868</parameter><parameter name="DAT">02/06/2022</parameter><parameter name="TIM">12:16:12.569 (GMT+2)</parameter><parameter name="DXU">WN</parameter></Data_Parameters_AB><AB__Qtest><MainReport name="Quality Test Report"><Header><Line><Legend>Test result ok/not ok [1/0]: </Legend><Value>0</Value></Line><Line><Legend>Method file: </Legend><Value>C:\Users\Public\Documents\Bruker\OPUS_8.2.28\QT\IRBT_v3_default.QT</Value></Line></Header><Matrix><Line><Legend></Legend><Legend>min</Legend><Legend>max</Legend><Legend>measured</Legend></Line><Line><Value>Absorption (X-Range 1):</Value><Value>0.400000</Value><Value>2.000000</Value><Value>0.131977</Value></Line><Line><Value>Noise (X-Range 4):</Value><Value></Value><Value>0.000300</Value><Value>0.000062</Value></Line><Line><Value>Signal/Noise (X-Range 2):</Value><Value>200.000000</Value><Value></Value><Value>24.256961</Value></Line><Line><Value>Signal/Noise (X-Range 3):</Value><Value>40.000000</Value><Value></Value><Value>14.235622</Value></Line><Line><Value>Water vapour (X-Range 5):</Value><Value></Value><Value>0.000300</Value><Value>0.000034</Value></Line><Line><Value>Signal/Water (X-Range 2):</Value><Value>100.000000</Value><Value></Value><Value>43.909956</Value></Line><Line><Value>Signal/Water (X-Range 3):</Value><Value>20.000000</Value><Value></Value><Value>25.769325</Value></Line><Line><Value>Fringes (X-Range 6):</Value><Value></Value><Value>0.000100</Value><Value>0.000064</Value></Line></Matrix></MainReport></AB__Qtest><Data_Parameters_ScSm><parameter name="DPF">1</parameter><parameter name="NPT">1814</parameter><parameter name="FXV">3996.33169228125</parameter><parameter name="LXV">499.541461535156</parameter><parameter name="CSF">1</parameter><parameter name="MXY">0.295965850353241</parameter><parameter name="MNY">0.0396299138665199</parameter><parameter name="DAT">02/06/2022</parameter><parameter name="TIM">12:16:12.569 (GMT+2)</parameter><parameter name="DXU">WN</parameter></Data_Parameters_ScSm><Data_Parameters_ScRf><parameter name="DPF">1</parameter><parameter name="NPT">1820</parameter><parameter name="FXV">4004.04661832813</parameter><parameter name="LXV">495.683998511719</parameter><parameter name="CSF">1</parameter><parameter name="MXY">0.265042990446091</parameter><parameter name="MNY">0.030097272247076</parameter><parameter name="DAT">02/06/2022</parameter><parameter name="TIM">12:15:46.461 (GMT+2)</parameter><parameter name="DXU">WN</parameter></Data_Parameters_ScRf><Optic_Parameters_Rf><parameter name="APR">0</parameter><parameter name="APT">Open</parameter><parameter name="BMS">KBr</parameter><parameter name="DTC">RT-DLaTGS_IR-Biotyper [Microplate reader]</parameter><parameter name="HPF">0</parameter><parameter name="LPF">10.0</parameter><parameter name="LPV">4000</parameter><parameter name="PGR">0</parameter><parameter name="RCH">Module port</parameter><parameter name="RDX">0</parameter><parameter name="SRC">MIR</parameter><parameter name="VEL">10.0</parameter><parameter name="SON">Off</parameter></Optic_Parameters_Rf><Acquisition_Parameters_Rf><parameter name="ADT">1</parameter><parameter name="AQM">DD</parameter><parameter name="CFE">0</parameter><parameter name="COR">0</parameter><parameter name="DEL">0</parameter><parameter name="DLY">0</parameter><parameter name="HFW">8000</parameter><parameter name="LFW">0</parameter><parameter name="NSR">32</parameter><parameter name="PLF">AB</parameter><parameter name="RES">6</parameter><parameter name="RGN">-1</parameter><parameter name="STR">0</parameter><parameter name="TCL">MakeCompatibleScalar (0, {WSV=1.000000, ARV=0});</parameter><parameter name="TDL">37</parameter><parameter name="RPO">0</parameter></Acquisition_Parameters_Rf><FT_-_Parameters_Rf><parameter name="APF">B3</parameter><parameter name="HFQ">500</parameter><parameter name="LFQ">4000</parameter><parameter name="NLI">0</parameter><parameter name="PHR">24</parameter><parameter name="PHZ">ML</parameter><parameter name="SPZ">NO</parameter><parameter name="ZFF">1</parameter></FT_-_Parameters_Rf><Optic_Parameters_><parameter name="APR">0</parameter><parameter name="APT">Open</parameter><parameter name="BMS">KBr</parameter><parameter name="CHN">Module port</parameter><parameter name="DTC">RT-DLaTGS_IR-Biotyper [Microplate reader]</parameter><parameter name="HPF">0</parameter><parameter name="LPF">10.0</parameter><parameter name="LPV">4000</parameter><parameter name="PGN">0</parameter><parameter name="RDX">0</parameter><parameter name="SRC">MIR</parameter><parameter name="VEL">10.0</parameter><parameter name="SON">Off</parameter></Optic_Parameters_><FT_-_Parameters_><parameter name="APF">B3</parameter><parameter name="HFQ">500</parameter><parameter name="LFQ">4000</parameter><parameter name="NLI">0</parameter><parameter name="PHR">24</parameter><parameter name="PHZ">ML</parameter><parameter name="SPZ">NO</parameter><parameter name="ZFF">1</parameter></FT_-_Parameters_><Acquisition_Parameters_><parameter name="ADT">1</parameter><parameter name="AQM">DD</parameter><parameter name="CFE">0</parameter><parameter name="COR">0</parameter><parameter name="DEL">0</parameter><parameter name="DLY">0</parameter><parameter name="HFW">8000</parameter><parameter name="LFW">0</parameter><parameter name="NSS">32</parameter><parameter name="PLF">AB</parameter><parameter name="RES">6</parameter><parameter name="SOT">0</parameter><parameter name="TCL">MakeCompatibleScalar (0, {WSV=1.000000, ARV=0});</parameter><parameter name="TDL">37</parameter><parameter name="SPO">0</parameter><parameter name="SGN">-1</parameter></Acquisition_Parameters_><Instrument_Parameters_Rf><parameter name="HFL">15800.168544</parameter><parameter name="LFL">0</parameter><parameter name="LWN">15800.168544</parameter><parameter name="ABP">32197</parameter><parameter name="SSP">1</parameter><parameter name="ARG">2</parameter><parameter name="ASG">2</parameter><parameter name="ASS">32</parameter><parameter name="GFW">16</parameter><parameter name="GBW">16</parameter><parameter name="BFW">0</parameter><parameter name="BBW">0</parameter><parameter name="PKA">7268</parameter><parameter name="PKL">4996</parameter><parameter name="PRA">7448</parameter><parameter name="PRL">5001</parameter><parameter name="P2A">1</parameter><parameter name="P2L">1</parameter><parameter name="P2R">1</parameter><parameter name="P2K">1</parameter><parameter name="DAQ">0</parameter><parameter name="AG2">1</parameter><parameter name="SSM">1</parameter><parameter name="RSN">26157</parameter><parameter name="CRR">0</parameter><parameter name="SRT">1654172146.462</parameter><parameter name="DUR">19.6379852294922</parameter><parameter name="TSC">28.9</parameter><parameter name="MVD">0.258453726768494</parameter><parameter name="AN1">0.225811761567223</parameter><parameter name="AN2">0</parameter><parameter name="VSN">2.485 Apr  4 2017</parameter><parameter name="SRN">0085</parameter><parameter name="CAM">0</parameter><parameter name="INS">IR-Biotyper</parameter><parameter name="FOC">69</parameter><parameter name="RDY">1</parameter><parameter name="ARS">32</parameter></Instrument_Parameters_Rf><Sample_Parameters_><parameter name="BLD"></parameter><parameter name="CNM">Admin</parameter><parameter name="CPY"></parameter><parameter name="DPM"></parameter><parameter name="EXP">IRBT_v3_32Scans.XPM</parameter><parameter name="LCT"></parameter><parameter name="SFM">Microplate, HTS-XT</parameter><parameter name="SNM">220602-1054_AGS29F (D_2_2)_H9_2ce6d363-68e5-4265-b002-60884fe596c0.0</parameter><parameter name="XPP">C:\Users\Public\Documents\Bruker\OPUS_8.2.28\XPM</parameter><parameter name="IST">OK</parameter><parameter name="CPG">1252</parameter><parameter name="UID">c0505eab-3e42-4bc5-aa07-b00900fd51ff</parameter></Sample_Parameters_><Instrument_Parameters_><parameter name="HFL">15800.168544</parameter><parameter name="LFL">0</parameter><parameter name="LWN">15800.168544</parameter><parameter name="ABP">32197</parameter><parameter name="SSP">1</parameter><parameter name="ASG">2</parameter><parameter name="ARG">2</parameter><parameter name="ASS">32</parameter><parameter name="GFW">16</parameter><parameter name="GBW">16</parameter><parameter name="BFW">0</parameter><parameter name="BBW">0</parameter><parameter name="PKA">8384</parameter><parameter name="PKL">4988</parameter><parameter name="PRA">8630</parameter><parameter name="PRL">4993</parameter><parameter name="P2A">1</parameter><parameter name="P2L">1</parameter><parameter name="P2R">1</parameter><parameter name="P2K">1</parameter><parameter name="DAQ">0</parameter><parameter name="AG2">1</parameter><parameter name="SSM">1</parameter><parameter name="RSN">13704</parameter><parameter name="CRR">0</parameter><parameter name="SRT">1654172172.569</parameter><parameter name="DUR">19.6379852294922</parameter><parameter name="TSC">28.9</parameter><parameter name="MVD">0.275079160928726</parameter><parameter name="AN1">0.225816030746403</parameter><parameter name="AN2">0</parameter><parameter name="VSN">2.485 Apr  4 2017</parameter><parameter name="SRN">0085</parameter><parameter name="CAM">0</parameter><parameter name="INS">IR-Biotyper</parameter><parameter name="FOC">69</parameter><parameter name="RDY">1</parameter></Instrument_Parameters_><History/></OPUSDataFile>
