<?xml version="1.0" encoding="UTF-8" ?>
<OPUSDataFile><AB><Ydata ylabel="Absorbance Units"><values byteorder="INTEL" format="FLOAT32" numvalues="3497"> -0.07517287 -0.07513119 -0.07509156 -0.07505356 -0.07502355 -0.07500183 -0.07498436 -0.07497054 -0.07495128 -0.07492737
 -0.07489798 -0.07486623 -0.07484271 -0.07482909 -0.07483588 -0.07485934 -0.07489938 -0.07494859 -0.07499912 -0.07504425
 -0.07507623 -0.07509183 -0.07508659 -0.0750625 -0.07501784 -0.07496164 -0.07489463 -0.07483 -0.07476982 -0.07472374
 -0.0746933 -0.07467842 -0.07467919 -0.07468484 -0.07469453 -0.07469398 -0.07468358 -0.07465684 -0.07461748 -0.07457397
 -0.0745317 -0.07450832 -0.07450459 -0.07453228 -0.07458254 -0.07465219 -0.07472651 -0.07479254 -0.07484254 -0.07486701
 -0.07487072 -0.07485268 -0.07482091 -0.07477744 -0.07472597 -0.07466688 -0.07460576 -0.0745427 -0.0744888 -0.07444468
 -0.0744175 -0.07440681 -0.07440796 -0.07442009 -0.07443508 -0.07445383 -0.07447588 -0.07450137 -0.07453184 -0.07456362
 -0.07459123 -0.07461222 -0.07462005 -0.0746187 -0.0746088 -0.07459535 -0.07458263 -0.07456834 -0.07455335 -0.07453157
 -0.07450058 -0.07446218 -0.07441504 -0.07437129 -0.07433157 -0.07431086 -0.07431009 -0.07433804 -0.07439408 -0.07447223
 -0.07456917 -0.07466181 -0.07474725 -0.07480055 -0.07482591 -0.07481941 -0.07478978 -0.07475085 -0.07470562 -0.07466377
 -0.07462315 -0.0745851 -0.07454731 -0.07450829 -0.0744684 -0.07442648 -0.07438733 -0.07435107 -0.0743264 -0.07431488
 -0.07432187 -0.07434894 -0.07438745 -0.07443707 -0.074478 -0.07450987 -0.07452292 -0.07451963 -0.07451045 -0.0744979
 -0.07449772 -0.07450867 -0.07453639 -0.07457659 -0.07462487 -0.07467715 -0.07472797 -0.07477189 -0.07480435 -0.07481667
 -0.0748008 -0.07475933 -0.07468579 -0.07460909 -0.07453276 -0.07449269 -0.074497 -0.07455686 -0.07467728 -0.07482365
 -0.0749947 -0.0750986 -0.07513323 -0.07504394 -0.07484666 -0.07461929 -0.07437257 -0.0741909 -0.07406633 -0.07402221
 -0.07404521 -0.07412726 -0.07424702 -0.07437979 -0.0745002 -0.0745764 -0.07460469 -0.07456597 -0.07449552 -0.07440005
 -0.07431817 -0.0742653 -0.07424131 -0.07425116 -0.07426869 -0.07429165 -0.0743013 -0.07429627 -0.07427865 -0.0742491
 -0.07421914 -0.0741891 -0.07416718 -0.07415226 -0.07414544 -0.07414381 -0.07414105 -0.07413406 -0.07411326 -0.07408112
 -0.07403456 -0.07398333 -0.07393368 -0.07389525 -0.073876 -0.07387819 -0.07390619 -0.0739525 -0.07401761 -0.07408652
 -0.07415755 -0.0742144 -0.07425539 -0.07426706 -0.07424845 -0.07419276 -0.07410072 -0.07398202 -0.07383981 -0.07369949
 -0.07356369 -0.07345692 -0.07337783 -0.07333706 -0.07332786 -0.07334509 -0.07337857 -0.07341462 -0.0734447 -0.07345609
 -0.07344832 -0.07341621 -0.07336698 -0.07330143 -0.07322889 -0.0731506 -0.07307983 -0.07301786 -0.07298256 -0.07297641
 -0.0730067 -0.07307435 -0.07316066 -0.07326363 -0.07334648 -0.07340904 -0.07342898 -0.07341392 -0.07338099 -0.07333855
 -0.0733192 -0.07332019 -0.07335362 -0.0734086 -0.07347662 -0.073549 -0.07361364 -0.0736725 -0.07372195 -0.07377084
 -0.07382336 -0.07387923 -0.07394126 -0.07399661 -0.07404299 -0.07407475 -0.07409067 -0.07409372 -0.07408437 -0.07404356
 -0.07397044 -0.07384466 -0.07367207 -0.07348284 -0.07328515 -0.07313081 -0.0730161 -0.07296077 -0.07295009 -0.07296889
 -0.07300015 -0.07301424 -0.07300886 -0.07296829 -0.0729073 -0.07282975 -0.07274939 -0.07267334 -0.07260682 -0.0725539
 -0.07250924 -0.07247327 -0.07243509 -0.07239284 -0.07234712 -0.07229757 -0.0722606 -0.0722369 -0.07224085 -0.07227033
 -0.07231951 -0.07238114 -0.07242288 -0.07243961 -0.0723941 -0.07230329 -0.07217672 -0.07204075 -0.07193903 -0.0718675
 -0.07184419 -0.0718381 -0.07183717 -0.0718133 -0.07174789 -0.07164408 -0.07149476 -0.07133055 -0.07115562 -0.0709946
 -0.0708525 -0.07072394 -0.07060955 -0.07047214 -0.07031012 -0.0700891 -0.0698156 -0.06951868 -0.06920936 -0.0689525
 -0.06874415 -0.06860836 -0.06853286 -0.06850775 -0.06851985 -0.06855346 -0.06858521 -0.06859366 -0.06854997 -0.06842688
 -0.06822339 -0.06792762 -0.06756686 -0.06714707 -0.06668462 -0.06618205 -0.06565738 -0.06511109 -0.06457708 -0.06405783
 -0.06356879 -0.06310962 -0.06266981 -0.0622488 -0.06183751 -0.06143722 -0.0610491 -0.06067323 -0.0603108 -0.05996017
 -0.05962111 -0.05928604 -0.05895239 -0.05859258 -0.05818455 -0.05769872 -0.0570953 -0.05641653 -0.05565959 -0.05490909
 -0.0541972 -0.05353209 -0.05292553 -0.05233562 -0.05175805 -0.05116987 -0.0505686 -0.04996512 -0.04936058 -0.04878084
 -0.04822492 -0.04770231 -0.04720185 -0.04668563 -0.04613558 -0.0454723 -0.0447118 -0.04383121 -0.04289328 -0.04197932
 -0.041107 -0.04033469 -0.03961539 -0.03893803 -0.03825812 -0.03754858 -0.03680747 -0.03602504 -0.03522764 -0.03442055
 -0.03361096 -0.03280248 -0.03197288 -0.03112086 -0.0302284 -0.02929622 -0.02834455 -0.02737789 -0.02644321 -0.0255383
 -0.02468143 -0.02386167 -0.02305664 -0.02226185 -0.02145623 -0.02064545 -0.01982933 -0.01901096 -0.01819421 -0.01737734
 -0.01655958 -0.01574235 -0.01492826 -0.0141092 -0.01328668 -0.01243634 -0.01155176 -0.01062917 -0.009663696 -0.008697204
 -0.007732281 -0.006801651 -0.005905213 -0.005028204 -0.004168408 -0.003300687 -0.002427082 -0.001542499 -0.0006518348 0.0002338237
 0.001111303 0.001967061 0.002806412 0.0036263 0.004445681 0.005279355 0.006145733 0.007067436 0.00802942 0.00903727
 0.01004788 0.01104755 0.01201813 0.01295067 0.01385982 0.01474577 0.01562661 0.01650359 0.01738986 0.01828591
 0.01919895 0.02012805 0.02106902 0.02202069 0.02297523 0.02393313 0.02489259 0.02585269 0.02681181 0.02776669
 0.02871105 0.02964636 0.03057026 0.03148939 0.03240814 0.03332807 0.03425264 0.03517467 0.03609352 0.03699932
 0.03788912 0.03876227 0.03961649 0.04047167 0.04132861 0.04221776 0.04313978 0.04410016 0.045095 0.04609373
 0.04709404 0.04806731 0.04901881 0.04994931 0.05086336 0.05177197 0.05267263 0.05356613 0.05445058 0.05532287
 0.05618706 0.05704393 0.05790013 0.05875897 0.05962401 0.06049857 0.06137617 0.06225714 0.06312839 0.06398744
 0.06483425 0.0656681 0.06650572 0.06734774 0.06820356 0.06907202 0.06994654 0.07082646 0.07170596 0.07258434
 0.07345854 0.07432356 0.07516731 0.07598825 0.07677589 0.07754055 0.07828747 0.07902779 0.07977173 0.08052064
 0.08127737 0.08204182 0.08281498 0.08359422 0.08438147 0.08515904 0.08592523 0.08666323 0.08737075 0.08806046
 0.08873353 0.08942105 0.09012301 0.09085377 0.09160896 0.0923766 0.09315147 0.09391175 0.09465577 0.0953681
 0.09605405 0.0967136 0.09735464 0.0979862 0.09860892 0.09922613 0.09983594 0.1004355 0.1010348 0.1016358
 0.1022481 0.1028766 0.1035095 0.1041467 0.1047701 0.1053777 0.1059719 0.1065532 0.1071363 0.1077214
 0.1083164 0.108922 0.1095452 0.1101867 0.1108547 0.1115437 0.1122482 0.1129588 0.1136587 0.1143456
 0.1150104 0.1156561 0.1162842 0.1168898 0.1174728 0.1180225 0.1185337 0.1190086 0.1194431 0.1198623
 0.1202671 0.1206938 0.1211454 0.1216402 0.1221784 0.1227453 0.123339 0.1239356 0.1245367 0.1251375
 0.1257386 0.1263421 0.1269394 0.1275145 0.1280604 0.1285545 0.1290115 0.1294318 0.129847 0.1302805
 0.1307474 0.1312681 0.1318159 0.1323919 0.1329474 0.1334705 0.1339414 0.134352 0.1347321 0.1350829
 0.135439 0.135801 0.1361568 0.1365034 0.1368027 0.1370585 0.1372658 0.1374378 0.1376119 0.1377978
 0.1380364 0.1383226 0.138671 0.1390603 0.139478 0.1398973 0.1402922 0.1406606 0.140986 0.1413099
 0.1416397 0.1420192 0.1424669 0.1429596 0.1435036 0.1440104 0.1444736 0.1448232 0.1450573 0.1451902
 0.1452288 0.1452467 0.1452465 0.145282 0.1453453 0.1454373 0.1455553 0.1456891 0.1458531 0.1460657
 0.1463331 0.146679 0.1470693 0.1474943 0.1479034 0.1482636 0.14857 0.1488046 0.1490198 0.1492223
 0.1494637 0.1497559 0.1500938 0.1504804 0.1508578 0.151223 0.1515128 0.1517284 0.1518508 0.1518918
 0.1518956 0.1518802 0.1519262 0.1520418 0.1522913 0.1526542 0.1531401 0.1536936 0.1542687 0.1548028
 0.1552311 0.1555433 0.1557017 0.1557776 0.1557776 0.1558019 0.1558755 0.1560504 0.1563406 0.1567401
 0.15725 0.1578563 0.1585581 0.1593471 0.1602182 0.1611257 0.1620536 0.1628961 0.1636396 0.1641756
 0.1645235 0.1646566 0.1646383 0.1645434 0.1644414 0.1644399 0.16455 0.1648313 0.1652098 0.165678
 0.1661217 0.1665017 0.1667433 0.1668143 0.1667298 0.1664801 0.1661547 0.165759 0.165384 0.1650338
 0.16474 0.1645004 0.1643005 0.1641405 0.1640125 0.1639215 0.1638824 0.1638921 0.1639594 0.1640595
 0.164168 0.1642383 0.1642168 0.1640617 0.1637173 0.1631942 0.1624672 0.1616182 0.1606606 0.1596969
 0.1587544 0.1578848 0.1571027 0.1564024 0.1557855 0.155227 0.1547254 0.1542477 0.1537914 0.1533161
 0.1528241 0.1523032 0.1517646 0.1512423 0.1507376 0.1502794 0.1498414 0.1493986 0.1489218 0.1483613
 0.1477302 0.1470096 0.1462613 0.1455056 0.1448101 0.1442059 0.1437139 0.1433544 0.1430735 0.1428739
 0.1426462 0.1423818 0.1419904 0.1414678 0.1408157 0.1400418 0.1392327 0.1383971 0.1376301 0.1369287
 0.1363365 0.1358373 0.135421 0.1350639 0.1347272 0.1343897 0.1340112 0.1335906 0.1331085 0.1325905
 0.132042 0.131493 0.1309573 0.1304429 0.1299562 0.1294854 0.1290297 0.1285796 0.1281339 0.1276925
 0.1272552 0.1268173 0.1263776 0.1259195 0.1254427 0.1249341 0.1243994 0.1238492 0.1232935 0.1227614
 0.1222546 0.1217929 0.1213597 0.1209479 0.1205327 0.1200916 0.1196144 0.1190853 0.1185206 0.11792
 0.1173111 0.1167013 0.1161025 0.1155192 0.1149413 0.1143687 0.1137891 0.113202 0.1126107 0.1120164
 0.1114328 0.1108598 0.1103047 0.1097644 0.1092327 0.1087064 0.1081737 0.1076355 0.1070867 0.106534
 0.1059821 0.1054391 0.1049115 0.1044072 0.1039294 0.1034932 0.1031044 0.102775 0.1025155 0.1022962
 0.1021211 0.1019057 0.1016431 0.101258 0.1007462 0.1001207 0.09938892 0.09864689 0.09790275 0.09725566
 0.09669907 0.0962699 0.09594193 0.09567938 0.09544633 0.09516767 0.09482843 0.09437104 0.09383286 0.09321375
 0.09258232 0.09197903 0.0914304 0.09096492 0.09054262 0.0901589 0.08977958 0.08939204 0.0890315 0.08869802
 0.08845519 0.08830636 0.0882554 0.08829605 0.08835121 0.08841127 0.08837821 0.08825475 0.08799214 0.08761273
 0.08714009 0.08660337 0.08606316 0.08552733 0.08503371 0.08456244 0.08410776 0.08366038 0.08320419 0.08277259
 0.08237235 0.08203804 0.08178831 0.08159155 0.08145095 0.08129204 0.08110575 0.08087333 0.08059333 0.08032962
 0.08008505 0.0799174 0.07981803 0.0797663 0.07974936 0.07970684 0.07964183 0.07952841 0.07938281 0.07922225
 0.07905298 0.07889446 0.07873029 0.07855904 0.07834959 0.07808568 0.07774403 0.07730679 0.07678773 0.07617789
 0.07554299 0.07488773 0.0742963 0.07377919 0.07336699 0.0730621 0.07280578 0.07259216 0.07232489 0.07200518
 0.07158649 0.07108522 0.07053366 0.06994983 0.06939567 0.06887244 0.06841383 0.0680035 0.06763775 0.06729557
 0.06695914 0.0666151 0.06624912 0.06586462 0.06545573 0.06504597 0.06463901 0.06425907 0.06391411 0.06359185
 0.06329471 0.06296912 0.06261212 0.06218303 0.0616843 0.06114099 0.06056114 0.06001034 0.05948614 0.05901903
 0.05859147 0.05817454 0.0577589 0.05730908 0.05684211 0.056361 0.05589088 0.05545652 0.05506146 0.05471761
 0.05441016 0.05413492 0.05388568 0.05365813 0.05346109 0.05329598 0.05316615 0.05307368 0.05299891 0.05294098
 0.05285954 0.05275255 0.0525812 0.05234803 0.05204548 0.05168487 0.0513008 0.05090854 0.05056257 0.0502711
 0.05007459 0.04996805 0.04996436 0.05004689 0.05020912 0.05042902 0.05069312 0.0509861 0.05129721 0.05162788
 0.0519747 0.05235128 0.05275859 0.05321223 0.05371292 0.05428304 0.05492375 0.05567386 0.05653525 0.05754505
 0.05869909 0.0599938 0.0614153 0.06291147 0.06446844 0.06602389 0.0675769 0.0690954 0.07059074 0.07206345
 0.07352555 0.0749872 0.07645571 0.0779368 0.07943797 0.08096334 0.08251747 0.08410577 0.08571178 0.08733794
 0.08893827 0.09051003 0.09199782 0.09339824 0.09467068 0.09581362 0.09680039 0.09762937 0.09827466 0.09873829
 0.09900614 0.09909818 0.09904491 0.09889327 0.09872913 0.09860843 0.09863412 0.09883028 0.09926087 0.09989546
 0.1007413 0.1017411 0.102874 0.1041028 0.1054123 0.1067918 0.1082387 0.1097386 0.1112912 0.1128646
 0.1144567 0.1160363 0.1176026 0.119142 0.1206568 0.1221534 0.1236384 0.1251386 0.1266637 0.1282565
 0.12991 0.1316549 0.133416 0.1351601 0.136688 0.1378699 0.1384114 0.1381142 0.1367808 0.1342372
 0.1306183 0.1258611 0.1204563 0.1144454 0.1084279 0.1024707 0.09698825 0.09201237 0.08765396 0.08390671
 0.08066367 0.07790797 0.07547706 0.07336362 0.07145478 0.06974949 0.06819236 0.06677573 0.06546429 0.06424491
 0.0630867 0.06198566 0.06092527 0.0599159 0.05895803 0.05806473 0.05724074 0.05649671 0.05583508 0.05526893
 0.05480067 0.05444044 0.0541904 0.05404671 0.05400946 0.05406534 0.05421289 0.05443013 0.05471009 0.05499877
 0.05528137 0.05546873 0.05555468 0.05546853 0.05523537 0.05485747 0.0543864 0.05388357 0.05339529 0.05298299
 0.05266677 0.05247584 0.05241238 0.05248088 0.05269038 0.05303849 0.05356132 0.05426297 0.05518731 0.05634742
 0.05769044 0.05921898 0.06064009 0.06192591 0.06255895 0.06251758 0.06136503 0.05917027 0.0559329 0.05182612
 0.04728485 0.04247534 0.0379108 0.03363063 0.02991335 0.02666601 0.02391245 0.02152439 0.01942923 0.01755108
 0.01583898 0.01427215 0.01283633 0.01152328 0.01033128 0.009244751 0.008262603 0.007365203 0.006551376 0.005800314
 0.005110903 0.004463467 0.003857191 0.003277032 0.002722392 0.002182487 0.00165771 0.001142589 0.0006402878 0.0001542198
 -0.0003135057 -0.0007557923 -0.001180985 -0.001590612 -0.002002598 -0.002429162 -0.002878258 -0.003361467 -0.003857994 -0.004368707
 -0.004853132 -0.005303443 -0.005695503 -0.006022739 -0.006305231 -0.006543149 -0.006785697 -0.00703443 -0.007317672 -0.007631112
 -0.007955611 -0.008287027 -0.008593813 -0.00888444 -0.009163042 -0.00944516 -0.009765553 -0.01012283 -0.01053653 -0.0109796
 -0.01143759 -0.01188025 -0.01228259 -0.01263628 -0.01292843 -0.01317362 -0.01337063 -0.01354667 -0.01370476 -0.01387646
 -0.0140658 -0.01429388 -0.01456296 -0.01486555 -0.01520023 -0.01553609 -0.01587176 -0.01618171 -0.01646827 -0.01672754
 -0.01696271 -0.01718109 -0.01738298 -0.01757227 -0.01774848 -0.01791171 -0.01806407 -0.01820708 -0.01834348 -0.01847556
 -0.0186042 -0.01872973 -0.01885471 -0.01897843 -0.01911051 -0.01925192 -0.01941483 -0.01960151 -0.01981242 -0.02004824
 -0.02029025 -0.02053727 -0.02076517 -0.02097449 -0.02115688 -0.02131657 -0.02146687 -0.02161209 -0.0217726 -0.02194602
 -0.02214033 -0.02234378 -0.0225451 -0.02273245 -0.02288729 -0.0230157 -0.02311019 -0.02319962 -0.02329265 -0.02341789
 -0.02358881 -0.02380421 -0.02406972 -0.02435474 -0.02465699 -0.02494608 -0.02521932 -0.0254696 -0.02569716 -0.0259119
 -0.02611423 -0.0263117 -0.02650345 -0.02668893 -0.02686897 -0.02704465 -0.02721941 -0.02740083 -0.02758977 -0.02779226
 -0.02800263 -0.02821843 -0.0284329 -0.02864008 -0.02883946 -0.02902871 -0.02921158 -0.02938885 -0.0295627 -0.02973373
 -0.02990277 -0.03006991 -0.03023643 -0.03040249 -0.03056739 -0.03073094 -0.03088881 -0.03104055 -0.03118037 -0.03130822
 -0.03142004 -0.03151759 -0.03160208 -0.03167908 -0.03175876 -0.03184812 -0.03196181 -0.03210052 -0.03227249 -0.03246834
 -0.03268585 -0.03291258 -0.03314256 -0.03336816 -0.0335859 -0.03379237 -0.03398629 -0.03416641 -0.03433204 -0.0344867
 -0.03463047 -0.03477051 -0.0349071 -0.0350438 -0.03518008 -0.03531263 -0.03544123 -0.03556252 -0.035678 -0.03579009
 -0.03590072 -0.03601534 -0.03613363 -0.036258 -0.03638597 -0.03651591 -0.03664632 -0.03677552 -0.03690355 -0.03703022
 -0.03715503 -0.03727805 -0.0373976 -0.03751316 -0.03762483 -0.03773223 -0.03783919 -0.03794585 -0.03805836 -0.03817696
 -0.03830566 -0.03844395 -0.03858998 -0.03874235 -0.03889369 -0.03904323 -0.03918441 -0.03931861 -0.03944516 -0.03956639
 -0.03968557 -0.03980336 -0.03992187 -0.0400402 -0.04015826 -0.04027556 -0.04039178 -0.04050704 -0.04062145 -0.04073431
 -0.04084541 -0.04095485 -0.04106239 -0.04117064 -0.04127977 -0.04139208 -0.04150752 -0.0416233 -0.04173883 -0.04184735
 -0.0419492 -0.04204156 -0.04212685 -0.04221067 -0.04229521 -0.04238841 -0.04248859 -0.04259742 -0.04271089 -0.04282482
 -0.04293919 -0.04305164 -0.04316674 -0.04328648 -0.04341229 -0.04354638 -0.04368236 -0.04381983 -0.04395041 -0.04407277
 -0.04418349 -0.04428205 -0.04437012 -0.04444785 -0.04451876 -0.04458316 -0.04464506 -0.0447049 -0.04476669 -0.04483112
 -0.04490218 -0.04498037 -0.04506884 -0.04516694 -0.04527581 -0.04539251 -0.04551522 -0.04563971 -0.04576296 -0.04588122
 -0.04599209 -0.04609341 -0.0461836 -0.04626374 -0.04633318 -0.04639704 -0.04645563 -0.04651579 -0.04657816 -0.04664566
 -0.04671833 -0.04679382 -0.04687183 -0.04694858 -0.04702402 -0.04709578 -0.04716403 -0.04722777 -0.04728789 -0.04734541
 -0.04740201 -0.04746079 -0.04752195 -0.04758793 -0.04765481 -0.04772138 -0.0477821 -0.04783339 -0.0478747 -0.04790373
 -0.0479278 -0.04794751 -0.04797203 -0.04800305 -0.04804299 -0.04809253 -0.04814496 -0.0481999 -0.04824831 -0.04829045
 -0.04832474 -0.04835282 -0.04838196 -0.04841328 -0.04845462 -0.04850472 -0.04856496 -0.04863326 -0.04870707 -0.04878541
 -0.0488667 -0.04894948 -0.04903296 -0.0491139 -0.04919039 -0.04926123 -0.04932489 -0.04938468 -0.04944104 -0.04949674
 -0.04955268 -0.04960601 -0.04965659 -0.04970087 -0.04973879 -0.04977349 -0.04980559 -0.04984253 -0.04988429 -0.0499349
 -0.04999311 -0.0500572 -0.050126 -0.05019625 -0.05026722 -0.05033674 -0.0504038 -0.05046657 -0.0505246 -0.0505766
 -0.05062405 -0.0506672 -0.05070772 -0.05074663 -0.0507828 -0.05081615 -0.05084554 -0.05087038 -0.0508941 -0.05091679
 -0.05094447 -0.05097734 -0.05101615 -0.05106038 -0.05110513 -0.05114998 -0.05119026 -0.05122632 -0.05125685 -0.05128242
 -0.05130335 -0.05132075 -0.05133609 -0.05135107 -0.0513684 -0.05138769 -0.05141019 -0.05143274 -0.05145414 -0.05147201
 -0.05148496 -0.05149347 -0.05149733 -0.05149771 -0.05149469 -0.05148946 -0.05148195 -0.0514764 -0.05147304 -0.0514769
 -0.05148764 -0.05150411 -0.0515249 -0.051542 -0.05155487 -0.05155662 -0.05154974 -0.05153557 -0.05151815 -0.05150494
 -0.05149607 -0.0514962 -0.05149887 -0.05150111 -0.0514973 -0.05148205 -0.05145996 -0.05142996 -0.0514034 -0.05138329
 -0.05137332 -0.05137542 -0.05138177 -0.05139201 -0.05139741 -0.0513976 -0.05138998 -0.05137473 -0.05135267 -0.05132422
 -0.05129147 -0.05125573 -0.0512223 -0.05119225 -0.05117131 -0.05115746 -0.05115109 -0.05114719 -0.0511406 -0.05112805
 -0.05110462 -0.0510723 -0.05103012 -0.05098305 -0.05093255 -0.05088202 -0.0508326 -0.05078547 -0.05074092 -0.05069987
 -0.05066244 -0.05062877 -0.05059885 -0.05057021 -0.05054276 -0.05051424 -0.05048538 -0.05045847 -0.05043517 -0.05042174
 -0.05042019 -0.05043725 -0.05047593 -0.0505428 -0.05064242 -0.0507815 -0.05096443 -0.05119656 -0.05147969 -0.05181652
 -0.05220579 -0.052649 -0.05313843 -0.05367471 -0.0542395 -0.05483144 -0.05542663 -0.05602245 -0.05661017 -0.05718936
 -0.05776801 -0.0583439 -0.05890131 -0.05942645 -0.05983965 -0.06012253 -0.06016583 -0.05997511 -0.05949186 -0.05877408
 -0.05787173 -0.0568714 -0.05588647 -0.05496507 -0.05418142 -0.05354055 -0.05306215 -0.05274494 -0.05259313 -0.05260133
 -0.0527781 -0.05306629 -0.05346896 -0.05385352 -0.05420844 -0.05443798 -0.05453748 -0.05453032 -0.05442155 -0.05427668
 -0.05409744 -0.05392776 -0.0537632 -0.05361458 -0.05347143 -0.05331486 -0.05313922 -0.0529232 -0.05267731 -0.0524023
 -0.05211622 -0.05183412 -0.05156321 -0.0513128 -0.05107811 -0.05085972 -0.0506516 -0.05045227 -0.05025902 -0.05007152
 -0.04988596 -0.04970196 -0.04951634 -0.04932896 -0.04914567 -0.04896741 -0.04880809 -0.04866742 -0.04855207 -0.04845848
 -0.04837827 -0.04830796 -0.04823432 -0.04815883 -0.04807709 -0.04799404 -0.04791359 -0.04783892 -0.04777405 -0.04771914
 -0.04767554 -0.04764187 -0.04761879 -0.0476012 -0.04758883 -0.04757315 -0.04755272 -0.04752273 -0.04748216 -0.04743548
 -0.04738291 -0.04733483 -0.04729177 -0.04726293 -0.04724792 -0.04725014 -0.04726732 -0.04729429 -0.04732743 -0.04735545
 -0.04737721 -0.04738428 -0.04738168 -0.04737095 -0.04735918 -0.04735344 -0.04735418 -0.04736546 -0.0473787 -0.04739243
 -0.04739675 -0.04738834 -0.04736504 -0.04732523 -0.04727521 -0.04721507 -0.04715513 -0.04709597 -0.0470464 -0.04700645
 -0.04697947 -0.04696453 -0.04695836 -0.04695964 -0.04696198 -0.04696508 -0.046965 -0.04696227 -0.04695638 -0.0469468
 -0.04693278 -0.04691383 -0.04688872 -0.04685941 -0.04682626 -0.04679213 -0.04675876 -0.04672503 -0.04669159 -0.04665371
 -0.04661073 -0.04655925 -0.04649862 -0.04643073 -0.04635566 -0.04628043 -0.0462057 -0.04614245 -0.0460908 -0.0460583
 -0.04604226 -0.04603804 -0.04604113 -0.04603773 -0.04602727 -0.04600114 -0.04596489 -0.04592138 -0.04587572 -0.04583433
 -0.04579494 -0.04575878 -0.04572037 -0.04567694 -0.04562939 -0.04557642 -0.04552533 -0.04547726 -0.04543611 -0.0454028
 -0.04537309 -0.0453468 -0.0453185 -0.04528823 -0.04525573 -0.04522127 -0.04518669 -0.04515128 -0.0451135 -0.04507247
 -0.04502477 -0.04497142 -0.04491199 -0.0448493 -0.04478634 -0.04472536 -0.0446697 -0.04461848 -0.04457295 -0.04452874
 -0.04448464 -0.04443678 -0.04438318 -0.04432606 -0.04426482 -0.04420696 -0.04415327 -0.04410748 -0.04406988 -0.04403533
 -0.04400337 -0.04396591 -0.04392329 -0.04387319 -0.04381705 -0.04375898 -0.04369992 -0.04364438 -0.04359223 -0.04354527
 -0.04350294 -0.04346538 -0.04343165 -0.04340177 -0.0433725 -0.04334296 -0.04330757 -0.04326399 -0.04320895 -0.04314026
 -0.0430615 -0.04297224 -0.04288097 -0.0427884 -0.04270163 -0.04262111 -0.04254995 -0.04248811 -0.04243577 -0.04239238
 -0.04235528 -0.04232312 -0.04228975 -0.04225372 -0.04220793 -0.04215301 -0.04208576 -0.04201031 -0.04192945 -0.04184886
 -0.0417745 -0.04170836 -0.04165451 -0.04160803 -0.04156878 -0.04152893 -0.04148613 -0.04143695 -0.04137985 -0.04131807
 -0.04125155 -0.04118605 -0.04112193 -0.04106281 -0.04100858 -0.04095856 -0.04091212 -0.04086503 -0.04081661 -0.04076189
 -0.04070108 -0.0406318 -0.04055545 -0.0404729 -0.04038632 -0.0402983 -0.04021127 -0.04012798 -0.04005013 -0.03997966
 -0.03991637 -0.03986096 -0.03981132 -0.03976744 -0.03972549 -0.03968503 -0.03964173 -0.03959505 -0.03954254 -0.039484
 -0.0394211 -0.03935406 -0.03928636 -0.03921804 -0.03915088 -0.03908493 -0.03902113 -0.03896003 -0.03890385 -0.03885216
 -0.03880604 -0.03876272 -0.03871952 -0.03867373 -0.03862154 -0.03856378 -0.03849936 -0.03843141 -0.038361 -0.03829012
 -0.03821957 -0.03814996 -0.03808133 -0.03801531 -0.03795208 -0.03789283 -0.03783769 -0.03778482 -0.03773402 -0.03768171
 -0.03762807 -0.03757267 -0.03751613 -0.03746108 -0.03740717 -0.03735524 -0.03730388 -0.03725054 -0.03719532 -0.03713654
 -0.03707698 -0.03701849 -0.03696303 -0.03691303 -0.03686653 -0.03682353 -0.03678133 -0.03673886 -0.03669632 -0.03665358
 -0.03661118 -0.03656937 -0.03652585 -0.03648048 -0.03643129 -0.03637854 -0.03632629 -0.03627522 -0.03623238 -0.03619695
 -0.03617024 -0.03614938 -0.03612744 -0.03610285 -0.03606862 -0.03602742 -0.03597908 -0.03592824 -0.03587932 -0.03583352
 -0.03579368 -0.03575645 -0.03572148 -0.03568467 -0.03564489 -0.0355995 -0.0355477 -0.03548925 -0.03542374 -0.03535474
 -0.03528236 -0.03521423 -0.03515067 -0.03509823 -0.03505639 -0.03502538 -0.0350033 -0.03498316 -0.03496275 -0.03493242
 -0.03489219 -0.03483645 -0.03476957 -0.03469374 -0.03461577 -0.03454263 -0.03447751 -0.0344257 -0.03438262 -0.03434873
 -0.0343151 -0.03427929 -0.03423575 -0.03418245 -0.03412143 -0.03405244 -0.0339809 -0.03390715 -0.03383357 -0.03376016
 -0.03368671 -0.03361348 -0.03354229 -0.03347358 -0.03341063 -0.03335262 -0.03329939 -0.0332491 -0.03319798 -0.03314573
 -0.0330899 -0.03303237 -0.03297395 -0.03291617 -0.03286064 -0.03280658 -0.03275438 -0.03270173 -0.03264808 -0.03259181
 -0.03253245 -0.03246979 -0.03240376 -0.03233471 -0.03226267 -0.03218745 -0.03210907 -0.03202735 -0.03194261 -0.03185679
 -0.03177088 -0.03168974 -0.03161458 -0.03155148 -0.03150014 -0.03146416 -0.03143924 -0.03142289 -0.0314071 -0.03138424
 -0.03134828 -0.03129209 -0.03121794 -0.03112336 -0.0310187 -0.03090551 -0.03079586 -0.03069222 -0.03060217 -0.03052738
 -0.03046639 -0.03041941 -0.0303766 -0.03033756 -0.03029444 -0.03024805 -0.03020118 -0.03015469 -0.03011455 -0.03007898
 -0.03004661 -0.03001453 -0.02997639 -0.02993115 -0.02987446 -0.02980761 -0.02972931 -0.02964413 -0.02955319 -0.02946465
 -0.02938241 -0.02931077 -0.02925324 -0.0292036 -0.02916211 -0.02911724 -0.02906743 -0.02900753 -0.0289369 -0.02886023
 -0.02877794 -0.02869898 -0.02862348 -0.02855696 -0.02849833 -0.0284459 -0.02839839 -0.02835089 -0.02830412 -0.02825735
 -0.02821121 -0.02816774 -0.02812289 -0.02807448 -0.02801695 -0.02794454 -0.02786011 -0.02776174 -0.02766016 -0.02755811
 -0.02746277 -0.02737658 -0.02729892 -0.02723026 -0.02716649 -0.02710735 -0.02704951 -0.02699295 -0.02693822 -0.02688574
 -0.02683947 -0.02679901 -0.0267655 -0.02673652 -0.02670608 -0.02667172 -0.02662522 -0.0265674 -0.02649505 -0.02641224
 -0.02632115 -0.02622622 -0.02613075 -0.02603771 -0.02594939 -0.02586617 -0.02578889 -0.02571594 -0.02564737 -0.0255806
 -0.0255155 -0.02544851 -0.02537934 -0.02530612 -0.02522905 -0.02515376 -0.02508084 -0.02501863 -0.02496537 -0.02491827
 -0.02487393 -0.02481985 -0.02475781 -0.02468436 -0.02460479 -0.0245259 -0.02444796 -0.02437387 -0.02430206 -0.02423134
 -0.0241642 -0.02410182 -0.02404452 -0.02399422 -0.02394249 -0.02388851 -0.02382243 -0.02374241 -0.02364792 -0.02353855
 -0.02342203 -0.02329888 -0.02317956 -0.02306426 -0.0229598 -0.0228646 -0.0227755 -0.02269047 -0.02260137 -0.02250898
 -0.02241091 -0.02230892 -0.02220514 -0.02209869 -0.02198904 -0.02187678 -0.02176116 -0.02164629 -0.0215347 -0.02142529
 -0.02131933 -0.02120963 -0.0210942 -0.02097295 -0.02084469 -0.02072045 -0.02060105 -0.02049225 -0.02039375 -0.0202943
 -0.02019166 -0.02006179 -0.01990395 -0.01969891 -0.01945398 -0.01917874 -0.01888345 -0.01859568 -0.01831348 -0.01804811
 -0.01778786 -0.017524 -0.01725267 -0.0169654 -0.01667344 -0.01637919 -0.01609391 -0.01582351 -0.01556479 -0.0153204
 -0.01507137 -0.01481699 -0.0145284 -0.01420281 -0.01383409 -0.01342334 -0.01301151 -0.01260038 -0.01222573 -0.01188101
 -0.01155526 -0.01124058 -0.01090671 -0.01055401 -0.01016791 -0.009754219 -0.009315215 -0.008855047 -0.008378759 -0.007887912
 -0.007387907 -0.006868607 -0.00633172 -0.005748393 -0.005107794 -0.004401628 -0.003619133 -0.002807698 -0.001971891 -0.001150242
 -0.0003477213 0.0004577535 0.001267214 0.002104794 0.002967764 0.00383829 0.00471792 0.005597225 0.006495235 0.007464415
 0.008517868 0.009722861 0.01104015 0.0124514 0.0138973 0.0153015 0.016667 0.0179652 0.01923845 0.02050121
 0.02177668 0.02307642 0.02440333 0.02575308 0.0271673 0.0286428 0.03029484 0.03213411 0.03420291 0.03649685
 0.03880584 0.04111893 0.04323659 0.04518816 0.04700996 0.04873202 0.05046656 0.05221579 0.05403525 0.05592236
 0.05788353 0.05995304 0.06214843 0.06455334 0.0672293 0.0702299 0.07363229 0.07730576 0.08125648 0.08522213
 0.08914334 0.09288391 0.0964089 0.09973941 0.1028712 0.1058963 0.1088221 0.1118282 0.1149336 0.1184112
 0.1222318 0.1264471 0.1309181 0.1352131 0.1393122 0.1429166 0.1461953 0.149273 0.1522667 0.1553601
 0.158542 0.1618634 0.1652786 0.1687709 0.1723374 0.1759867 0.179656 0.1833415 0.1869412 0.19043
 0.1938492 0.197199 0.2005525 0.2039085 0.2071215 0.2101765 0.2128541 0.2151796 0.217153 0.2188265
 0.2203753 0.2217972 0.2231921 0.2244856 0.225588 0.2265127 0.227215 0.2277995 0.2283386 0.2288578
 0.2294064 0.2299087 0.2303526 0.2306677 0.2308326 0.2308317 0.2306581 0.2303227 0.2298243 0.2292019
 0.2284578 0.2276498 0.2267767 0.2258513 0.2248665 0.223791 0.222626 0.2213504 0.2199884 0.2185703
 0.2171412 0.2157817 0.214514 0.2133991 0.2124137 0.2115607 0.2108152 0.2101616 0.2096016 0.209133
 0.2087584 0.2084807 0.2082854 0.208171 0.2081242 0.2081435 0.2082235 0.2083641 0.2085613 0.2088151
 0.2091242 0.2094873 0.2098998 0.2103561 0.2108375 0.2113374 0.2118316 0.2123211 0.2127945 0.2132617
 0.2137256 0.214204 0.2147072 0.2152576 0.2158666 0.2165556 0.2173308 0.2182189 0.2192249 0.2203788
 0.2216891 0.2231421 0.2247405 0.2264043 0.2281292 0.2298294 0.2315012 0.2330846 0.2345675 0.2358574
 0.2369391 0.2377033 0.2381723 0.2383327 0.2382335 0.23794 0.2374935 0.2369583 0.236363 0.2357517
 0.2351205 0.2344928 0.2338006 0.2330405 0.2320912 0.2309132 0.2294966 0.22781 0.2260958 0.2243758
 0.2227558 0.221239 0.2196918 0.2181101 0.2164067 0.2145934 0.2126899 0.210705 0.2086915 0.2066189
 0.2044755 0.2021585 0.199507 0.1964513 0.1927774 0.1887169 0.1843515 0.1799354 0.1756741 0.1714769
 0.1673521 0.1632157 0.1590203 0.1548969 0.1508525 0.1470428 0.1434886 0.1401695 0.137084 0.1341143
 0.1312597 0.1284705 0.1257582 0.1231631 0.1206838 0.1183471 0.1161228 0.1139598 0.1118286 0.1096574
 0.1074453 0.1051673 0.1028223 0.1004195 0.09789793 0.0952346 0.09236398 0.08920348 0.08597896 0.08268964
 0.07975276 0.07726518 0.07518504 0.07353101 0.07198901 0.07054421 0.06902128 0.06742807 0.06579687 0.06414436
 0.06258483 0.06110787 0.05973693 0.05845735 0.05723276 0.05609351 0.05506121 0.05419016 0.0535565 0.05316414
 0.05304955 0.05317051 0.05351449 0.05405015 0.05476122 0.05564225 0.05668239 0.05792071 0.05935329 0.06108581
 0.06313063 0.06552373 0.06826499 0.07107174 0.07391961 0.0764197 0.07859068 0.0803344 0.08169194 0.0827525
 0.08353395 0.08411344 0.08450869 0.0847666 0.08493633 0.08507632 0.0852574 0.08556166 0.08599162 0.086598
 0.08725494 0.08792645 0.08853284 0.08903608 0.08947283 0.08984274 0.09018791 0.0905144 0.090813 0.0910833
 0.09128773 0.09142606 0.09148239 0.09146274 0.09138945 0.09127442 0.09116761 0.09108141 0.09107168 0.09113589
 0.09129643 0.09154146 0.09185779 0.09226296 0.09275611 0.09338575 0.09417776 0.09516028 0.09635612 0.09774352
 0.09932125 0.1010688 0.1029776 0.1050818 0.1073845 0.1099096 0.112658 0.1155124 0.1184601 0.1213054
 0.124052 0.1266201 0.1290275 0.1313007 0.1334364 0.1354469 0.137304 0.1389711 0.1404166 0.1415935
 0.1424779 0.1430375 0.1432583 0.1431215 0.1426342 0.1417899 0.1406195 0.1391216 0.1373596 0.1353342
 0.1331613 0.1308502 0.1285113 0.1261511 0.1237867 0.1214147 0.1189918 0.1165221 0.1140036 0.1114528
 0.1089312 0.1064401 0.1040205 0.1016465 0.09929658 0.09694181 0.094539 0.09207866 0.08953223 0.08692431
 0.08424815 0.08157253 0.07891358 0.07635241 0.07391556 0.0716307 0.06951235 0.06751824 0.06564721 0.06384131
 0.0620972 0.06040503 0.05876857 0.05723696 0.05581396 0.05455031 0.0534384 0.05248008 0.05166163 0.05095261
 0.05034143 0.04979835 0.04931027 0.04885427 0.04841331 0.0479677 0.04750515 0.04701189 0.04649061 0.04593739
 0.04536554 0.04477763 0.04418349 0.04358558 0.0429853 0.04238315 0.04177763 0.04116868 0.0405542 0.03993399
 0.03930409 0.03866536 0.03801909 0.03736987 0.03673324 0.03611689 0.0355464 0.03502771 0.03458297 0.03421167
 0.03392414 0.03371049 0.03357009 0.03348188 0.03343742 0.03341068 0.0333907 0.03335948 0.03330963 0.03323703
 0.03313975 0.03301891 0.03287474 0.03270425 0.03250729 0.03227719 0.03201376 0.03171248 0.03137434 0.0310025
 0.0305991 0.03017358 0.02972736 0.02926862 0.02879759 0.02831727 0.02783017 0.02733885 0.02684955 0.02636769
 0.02589859 0.02544723 0.02501394 0.02460031 0.02420404 0.02382503 0.02346045 0.02311006 0.02277017 0.02244048
 0.02211742 0.02180079 0.02148734 0.02117673 0.02086359 0.02054758 0.02022296 0.0198916 0.01955584 0.01922102
 0.01890066 0.01860025 0.01833607 0.01810811 0.0179245 0.01777791 0.01766578 0.01757977 0.01751347 0.01746595
 0.01743449 0.01742414 0.01743677 0.01747063 0.01752754 0.0175916 0.01766206 0.01771841 0.01775936 0.01777339
 0.01776061 0.01772113 0.01765577 0.01756969 0.01746319 0.0173401 0.01720002 0.01704386 0.01687137 0.01668282
 0.01647721 0.01625459 0.01601078 0.01574362 0.01544595 0.01511311 0.01474078 0.01432511 0.01386932 0.01337243
 0.01284337 0.01228283 0.01170205 0.01110215 0.01049236 0.009873366 0.009247663 0.008615064 0.007972321 0.00731947
 0.006654861 0.005979477 0.005296031 0.004605779 0.003912691 0.003218818 0.002528731 0.001845802 0.001176092 0.0005209539
 -0.0001154905 -0.0007364218 -0.001341949 -0.00193699 -0.002523071 -0.003105121 -0.003683849 -0.004266954 -0.004855498 -0.005457369
 -0.006073838 -0.006705984 -0.007354062 -0.008010429 -0.008674347 -0.009333499 -0.009986469 -0.01061817 -0.01122701 -0.01179846
 -0.01233255 -0.01282125 -0.01326724 -0.01367097 -0.01403644 -0.01436883 -0.0146705 -0.01494648 -0.01519327 -0.01541294
 -0.01559221 -0.01572872 -0.01580252 -0.0158083 -0.01573086 -0.01556535 -0.01531306 -0.01497191 -0.01456526 -0.01409411
 -0.01359569 -0.01307163 -0.01255229 -0.01203669 -0.01153336 -0.01103981 -0.01055042 -0.0100646 -0.009577867 -0.009091136
 -0.008604093 -0.008117378 -0.007631096 -0.007147411 -0.006667315 -0.006195251 -0.005733853 -0.005286725 -0.004855619 -0.004443622
 -0.004051376 -0.003683445 -0.003340863 -0.003025811 -0.002739239 -0.00247525 -0.002233703 -0.002000914 -0.001775816 -0.001539654
 -0.001290952 -0.001010096 -0.0006968598 -0.0003391812 6.083132E-05 0.0005038083 0.0009877573 0.001509059 0.00206752 0.002661592
 0.003291118 0.003955625 0.004654551 0.005387992 0.006153647 0.006952765 0.007774509 0.008618712 0.009464078 0.01030743
 0.01112958 0.01192741 0.01269653 0.01343628 0.01415406 0.01485013 0.01553109 0.01619515 0.01683429 0.01744342
 0.01799632 0.01849201 0.01890876 0.01926236 0.01956595 0.01984788 0.02014982 0.02048824 0.02089609 0.02136443
 0.02190029 0.0224809 0.02309975 0.0237355 0.02438118 0.02502324 0.02565729 0.02628227 0.02689675 0.027511
 0.02812554 0.02875088 0.02938722 0.03003775 0.03070134 0.03137217 0.03204767 0.03271465 0.03337049 0.03400162
 0.03460668 0.03517848 0.03571274 0.03620357 0.03664079 0.03701403 0.03731484 0.03753344 0.03767253 0.03772863
 0.03771529 0.03763324 0.03750465 0.03733186 0.0371427 0.03694044 0.03674524 0.03655887 0.03638452 0.0362221
 0.0360681 0.03592305 0.0357892 0.03566784 0.03556484 0.03548246 0.035428 0.0354073 0.03543327 0.03551349
 0.03566333 0.03588586 0.03619073 0.03657296 0.0370354 0.0375617 0.03814996 0.03877044 0.03941687 0.04005664
 0.04068305 0.041274 0.04182639 0.04232503 0.04276878 0.04314353 0.04344899 0.04368165 0.04384287 0.04394214
 0.04397953 0.04396081 0.04388377 0.04374377 0.04354247 0.04327809 0.04296011 0.04259752 0.0422054 0.04179762
 0.04139289 0.04100538 0.04065059 0.04033972 0.04007481 0.03986034 0.03968626 0.03955179 0.03944639 0.03936898
 0.03931036 0.03927006 0.03923492 0.03920394 0.03915895 0.03909738 0.0389931 0.03884028 0.03860161 0.03826952
 0.03780442 0.03720133 0.03643243 0.03549652 0.0343792 0.03308617 0.03161255 0.02998071 0.02819644 0.02630041
 0.02430722 0.02226047 0.02017525 0.01807964 0.01598316 0.01388845 0.01179837 0.009695719 0.00757939 0.005437554
 0.003270729 0.001095599 -0.001084346 -0.003233504 -0.005350189 -0.007408258 -0.009408352 -0.01133975 -0.01320166 -0.01498758
 -0.01669709 -0.01832587 -0.01987739 -0.02135307 -0.02275661 -0.02409033 -0.02535801 -0.02655958 -0.02770657 -0.02879983
 -0.02986004 -0.03089043 -0.03191092 -0.03292474 -0.03394028 -0.03495892 -0.03596967 -0.03697136 -0.0379367 -0.03886448
 -0.03973141 -0.04054002 -0.04128884 -0.04198162 -0.04262907 -0.04323138 -0.04379339 -0.04431536 -0.04479796 -0.04524615
 -0.04566449 -0.04605748 -0.04643041 -0.04678169 -0.04711236 -0.04741835 -0.04769865 -0.04795052 -0.04817323 -0.0483654
 -0.04852635 -0.04865941 -0.04876446 -0.04885203 -0.04892278 -0.04899034 -0.04905551 -0.04913118 -0.04921693 -0.0493196
 -0.04943448 -0.04955319 -0.04966801 -0.0497576 -0.04982333 -0.04985311 -0.04986551 -0.04987207 -0.04989278 -0.04994855
 -0.05003419 -0.05015829 -0.05028876 -0.05041894 -0.05051882 -0.05057899 -0.05059712 -0.05057035 -0.0505155 -0.05043383
 -0.05033262 -0.05021174 -0.05006054 -0.04987881 -0.04965912 -0.04940451 -0.04912485 -0.04882326 -0.0485147 -0.04819862
 -0.04788089 -0.04756024 -0.04723674 -0.04691097 -0.04658392 -0.04625466 -0.0459235 -0.04558735 -0.04524394 -0.04489499
 -0.04453835 -0.0441868 -0.04384081 -0.04352139 -0.04323124 -0.04298527 -0.04278536 -0.04262666 -0.04250854 -0.04241154
 -0.0423353 -0.04226827 -0.04221228 -0.04217147 -0.04214443 -0.04213181 -0.04212507 -0.04210754 -0.04207234 -0.04199956
 -0.04189586 -0.04175758 -0.0416013 -0.04143809 -0.04127529 -0.04112247 -0.04096771 -0.04081051 -0.04063424 -0.04043367
 -0.04020904 -0.039958 -0.03969985 -0.03943567 -0.03918556 -0.0389502 -0.03873586 -0.03854117 -0.03835741 -0.03818168
 -0.03799594 -0.03779806 -0.03757089 -0.03731719 -0.03703203 -0.03672502 -0.03640648 -0.036087 -0.03578149 -0.03549331
 -0.03523047 -0.03498836 -0.03476717 -0.03456097 -0.03436784 -0.03418458 -0.03401077 -0.03384134 -0.03367627 -0.03350532
 -0.03332783 -0.03313356 -0.03292209 -0.03268912 -0.0324349 -0.03215933 -0.03186353 -0.03155177 -0.03122679 -0.03089911
 -0.03057039 -0.03025025 -0.02993582 -0.02962709 -0.02932107 -0.02901417 -0.0287064 -0.02839808 -0.0280847 -0.02776509
 -0.02743242 -0.02708184 -0.0267215 -0.02635123 -0.02598566 -0.02562911 -0.02526867 -0.02490462 -0.02450334 -0.02406372
 -0.02357945 -0.02305387 -0.02251758 -0.02197218 -0.02144304 -0.02092551 -0.02041798 -0.01991677 -0.01941247 -0.01890611
 -0.01839497 -0.01788135 -0.01736656 -0.0168525 -0.01634111 -0.01583266 -0.01532735 -0.01482657 -0.0143285 -0.01384537
 -0.01337809 -0.01294473 -0.01254911 -0.01219169 -0.01187378 -0.01157404 -0.01129148 -0.01100882 -0.01072664 -0.01044437
 -0.01016275 -0.009885583 -0.009611833 -0.009340387 -0.009069659 -0.008795368 -0.008517628 -0.008232329 -0.007947234 -0.00766581
 -0.007403383 -0.007173688 -0.00697939 -0.006830762 -0.00670421 -0.006595674 -0.006479718 -0.006346835 -0.006201966 -0.006042035
 -0.005897153 -0.005769398 -0.005684684 -0.005643885 -0.00564398 -0.005680881 -0.005713893 -0.005736527 -0.005692805 -0.005583333
 -0.005377838 -0.00508699 -0.004717506 -0.004282139 -0.003801463 -0.003286712 -0.002755621 -0.002218076 -0.001685885 -0.001165232
 -0.0006588677 -0.0001816006 0.0002661437 0.0006500678 0.0009611574 0.00118377 0.001308171 0.001384828 0.001415138 0.001478435
 0.001578277 0.001748827 0.001987522 0.002280013 0.002622971 0.002993091 0.003388067 0.003789481 0.004194361 0.004587575
 0.004967275 0.005325878 0.005658227 0.005958827 0.006216153 0.006419222 0.006564768 0.006644368 0.006674213 0.00665597
 0.006611406 0.006545048 0.006474109 0.006400812 0.006343049 0.006302719 0.006288676 0.006301218 0.006330572 0.006376486
 0.006431734 0.006498881 0.00658856 0.006701787 0.006849492 0.007026393 0.007229773 0.007445702 0.007656215 0.007839154
 0.007962016 0.00801948 0.007984719 0.007904219 0.00778252 0.007702841 0.007705653 0.007790869 0.0079824 0.008161488
 0.008308749 0.008386189 0.008384988 0.008358666 0.008309565 0.008273297 0.008249141 0.008240458 0.008245555 0.008258871
 0.008277339 0.008288704 0.008289478 0.008263135 0.00821548 0.008146255 0.008066936 0.007991583 0.007921809 0.007864863
 0.007813913 0.007767754 0.007719305 0.007666231 0.007602211 0.007523624 0.007437446 0.007342738 0.00725981 0.007191697
 0.007131341 0.007078031 0.006977726 0.006827574 0.006575267 0.00622525 0.005771206 0.005225971 0.0046235 0.003984945
 0.003371713 0.00280264 0.002344618 0.00197365 0.00170249 0.001463944 0.001203722 0.0009052302 0.000527548 0.0001436259
 -0.0002335509 -0.0005307708 -0.0007235532 -0.0007987613 -0.0007474067 -0.0005984812 -0.0003515065 -6.765287E-05 0.0002498227 0.0005417104
 0.0008109898 0.001073037 0.001337544 0.001672627 0.00207126 0.002549896 0.003086669 0.003635821 0.004192937 0.004726544
 0.005252041 0.00577488 0.006307166 0.006859408 0.007439691 0.008051992 0.008711309 0.009421716 0.01020178 0.01105574
 0.01200019 0.01303928 0.01417552 0.01541184 0.01671267 0.018076 0.01943046 0.02077127 0.02202284 0.02317993
 0.02417464 0.02500342 0.02561298 0.02601444 0.02620128 0.02619938 0.02604859 0.02576205 0.02537039 0.02487466
 0.02427587 0.02360385 0.02286537 0.02211567 0.02137758 0.02067765 0.02003014 0.01942326 0.01885739 0.01831868
 0.0178054 0.01731576 0.01684961 0.01641532 0.01601431 0.01566753 0.01537495 0.01515054 0.0149862 0.01486335
 0.01476965 0.01466772 0.01454949 0.0143848 0.01417346 0.01389977 0.01357927 0.01321556 0.01283271 0.01244988
 0.01206042 0.01167299 0.0112463 0.0107686 0.01022915 0.009618302 0.008985844 0.00833454 0.007718731 0.007141492
 0.006611144 0.006125486 0.005658407 0.005206916 0.004738843 0.004256634 0.003746422 0.003224253 0.002718923 0.002247916
 0.001859521 0.001542344 0.001307987 0.001124335 0.0009674301 0.0008239596 0.0006764451 0.0005361853 0.0004013813 0.0002923429
 0.0002123489 0.0001839649 0.0002139751 0.0002958227 0.0004330454 0.0005604954 0.0006746391</values></Ydata></AB><ScSm><Ydata ylabel="Single channel"><values byteorder="INTEL" format="FLOAT32" numvalues="1814"> 0.0724702 0.0724659 0.0725342 0.07269824 0.07292283 0.07313616 0.07328157 0.0733534 0.07337469 0.07335143
 0.07328494 0.07322652 0.07326673 0.07344294 0.07368292 0.07385664 0.0738828 0.07380138 0.0737491 0.07382698
 0.07396358 0.07393967 0.07359432 0.07300895 0.07245211 0.07213128 0.07206583 0.07224663 0.07276593 0.07356396
 0.07414787 0.07394549 0.07302476 0.07212685 0.07184658 0.07206355 0.07228276 0.07220464 0.07182145 0.07131118
 0.07108779 0.07168629 0.07323796 0.07504038 0.07581222 0.07450327 0.07104436 0.06658354 0.06306203 0.06217404
 0.06417249 0.06752506 0.07006249 0.07071054 0.07000767 0.06900641 0.06814116 0.06736109 0.0668631 0.06713621
 0.06828429 0.06956585 0.06977583 0.068276 0.065754 0.06373742 0.06320074 0.06394996 0.06543577 0.06735307
 0.06882282 0.06791755 0.06355601 0.05790966 0.05543719 0.05864558 0.065414 0.07106949 0.0725446 0.07009304
 0.0659309 0.06239954 0.06108643 0.06239722 0.06547883 0.0689283 0.07164422 0.07288018 0.07205993 0.06927924
 0.06579432 0.06340991 0.06336903 0.06586934 0.07002714 0.07395636 0.07562189 0.07434323 0.07124905 0.06808406
 0.06605902 0.06585615 0.06780214 0.07152672 0.07594101 0.07987033 0.08253197 0.08360955 0.08332092 0.08228342
 0.0810445 0.0799849 0.07964151 0.08037884 0.08152506 0.08162905 0.08003949 0.07777439 0.07647333 0.07670381
 0.07750946 0.0775732 0.07654991 0.07485481 0.07236148 0.06837551 0.06322426 0.05868562 0.05621393 0.05582801
 0.0571631 0.06004597 0.06326106 0.06447002 0.06276836 0.06032713 0.06024262 0.0632315 0.06725822 0.07002334
 0.0710949 0.07174407 0.07330555 0.07581386 0.07783737 0.07755597 0.07456109 0.07087467 0.0695265 0.07158542
 0.07513137 0.07761782 0.07855773 0.079261 0.08053336 0.08142307 0.08021197 0.07645948 0.07210582 0.07027566
 0.07255731 0.07741347 0.08129792 0.08128326 0.07703055 0.07086212 0.06594904 0.06411715 0.06535362 0.06901254
 0.07452719 0.08078341 0.08582586 0.08795171 0.08695374 0.08402126 0.08038455 0.07618301 0.07110357 0.06625351
 0.06439846 0.06735196 0.07365654 0.07979375 0.08332555 0.08411881 0.08298405 0.08017202 0.07558361 0.07019377
 0.0665287 0.06671272 0.06991449 0.07280837 0.07305434 0.07143301 0.07014645 0.07006611 0.07040258 0.07038916
 0.07037452 0.07122132 0.07307353 0.07502313 0.07599101 0.07571245 0.0747843 0.07396416 0.07348486 0.07289451
 0.0716962 0.07033235 0.07013562 0.07186438 0.07465449 0.07690946 0.07790551 0.07805084 0.07781845 0.0769372
 0.07479993 0.07160664 0.06883913 0.0681646 0.06981902 0.07245389 0.07454246 0.07548341 0.07545598 0.0748629
 0.0740582 0.07323536 0.0724856 0.07203989 0.07220917 0.07293385 0.07368916 0.07401177 0.07387754 0.07346322
 0.07281322 0.07190335 0.07087785 0.07006244 0.06972988 0.06988933 0.07032466 0.07079352 0.07111458 0.07112503
 0.07073779 0.07007146 0.06938051 0.06882486 0.06841365 0.06815615 0.06811482 0.06827538 0.06848216 0.06856337
 0.06846769 0.06824741 0.06795689 0.06761082 0.06722069 0.06683771 0.06655024 0.06642417 0.06642844 0.06644951
 0.06641756 0.06637603 0.06637104 0.06632856 0.06613046 0.06578174 0.06541845 0.06516244 0.06502736 0.06495139
 0.06486069 0.06468704 0.06437038 0.0639074 0.06341508 0.06309015 0.06305431 0.06326242 0.06357665 0.06387174
 0.06405319 0.06406613 0.06393944 0.06376317 0.06358707 0.06338219 0.06311563 0.06282757 0.06262387 0.06259569
 0.06273304 0.06292304 0.06304853 0.06307025 0.06301173 0.06291799 0.06284398 0.06282017 0.06280524 0.06272423
 0.06256868 0.06241623 0.06234203 0.06234001 0.06233606 0.06226754 0.06215048 0.06206237 0.06205406 0.06210005
 0.06214433 0.06216601 0.06218255 0.06220675 0.06221423 0.06215553 0.06201271 0.06183865 0.06171163 0.06165404
 0.06162985 0.06161554 0.06162823 0.06167827 0.06173278 0.06174415 0.06170073 0.06163582 0.06158408 0.06153712
 0.06145586 0.0613258 0.06118008 0.06106234 0.06098293 0.06091797 0.06084006 0.06074355 0.06064316 0.06055123
 0.06045993 0.06034809 0.06020138 0.06002655 0.05985384 0.05972355 0.05965319 0.05961359 0.05954859 0.05942563
 0.05926328 0.05910774 0.05898577 0.05888368 0.05877224 0.0586449 0.0585231 0.05842954 0.05836991 0.05833718
 0.05831799 0.05829623 0.05826987 0.05826781 0.05833174 0.05846852 0.05863044 0.0587559 0.05882724 0.05887939
 0.05895591 0.05906836 0.05919802 0.05932617 0.05945843 0.05961796 0.05980964 0.05999732 0.06013659 0.06023083
 0.06033198 0.06048288 0.06068246 0.06090626 0.06113007 0.06132895 0.0614863 0.06161695 0.06175839 0.06192745
 0.06210428 0.06226762 0.06242703 0.06260706 0.0628132 0.06303157 0.06325812 0.06351048 0.06380489 0.06412875
 0.06444171 0.06470675 0.064925 0.0651424 0.06541444 0.06575854 0.06614162 0.06651364 0.06684899 0.06715825
 0.06746697 0.06778681 0.06811054 0.06843643 0.06878611 0.0691817 0.06961037 0.07003225 0.07042414 0.07079887
 0.07117995 0.07157367 0.0719717 0.0723689 0.07277035 0.07318248 0.0736001 0.07400483 0.07437935 0.07472375
 0.07505746 0.07540722 0.07579036 0.07619759 0.07658783 0.07691711 0.0771879 0.07745695 0.07777476 0.07812582
 0.07845286 0.07873563 0.07901608 0.0793393 0.07969734 0.08004779 0.0803697 0.08068149 0.0810096 0.08135234
 0.08167397 0.08193209 0.08211759 0.08226886 0.0824408 0.08266339 0.08293765 0.08325829 0.08361703 0.083987
 0.08432804 0.08461365 0.0848425 0.08503043 0.08520455 0.08539625 0.08562141 0.08587013 0.08612104 0.08635504
 0.08655538 0.08672024 0.08688363 0.08709728 0.087379 0.08770166 0.08804217 0.08841153 0.08881924 0.08923707
 0.08963165 0.09001787 0.0904411 0.09090242 0.09133695 0.09168266 0.09194213 0.09215771 0.09235727 0.09255718
 0.09279394 0.0931091 0.09350421 0.09393751 0.094365 0.09476779 0.0951437 0.09548928 0.09579393 0.09604616
 0.09624383 0.09639844 0.09653134 0.09666918 0.09683697 0.09703989 0.09724945 0.0974194 0.09751646 0.09752353
 0.09741939 0.09718422 0.0968367 0.0964402 0.09604585 0.09563509 0.09513612 0.09449272 0.09370026 0.09278074
 0.09175027 0.09062392 0.08943945 0.08826323 0.08717299 0.0862368 0.08550734 0.08503461 0.0848719 0.08504552
 0.08550537 0.08611384 0.08669142 0.0870723 0.08713301 0.08681053 0.08612175 0.08515806 0.08404294 0.08288874
 0.08177671 0.0807439 0.07977547 0.07883398 0.07792242 0.07711986 0.07656088 0.07640918 0.07685968 0.0781095
 0.08024051 0.08308935 0.08625898 0.08930296 0.09193217 0.09408207 0.09583728 0.09732562 0.09865309 0.09987423
 0.1009919 0.1019906 0.1028744 0.1036664 0.1043788 0.1049987 0.1054997 0.1058613 0.1060852 0.1062025
 0.1062601 0.1062958 0.1063352 0.1064022 0.1065097 0.1066316 0.1066988 0.1066302 0.1063634 0.1058663
 0.1051411 0.1042577 0.1034267 0.1030524 0.103631 0.1054631 0.1083971 0.1118734 0.1152553 0.1181375
 0.12041 0.1221442 0.1234757 0.1245423 0.1254502 0.1262615 0.1270076 0.1277059 0.1283662 0.1289926
 0.1295898 0.1301679 0.1307404 0.1313161 0.1318905 0.1324497 0.1329874 0.1335138 0.134046 0.1345905
 0.135138 0.135673 0.1361889 0.1366938 0.1371971 0.137695 0.1381755 0.1386367 0.1390896 0.1395473
 0.1400174 0.1405 0.140981 0.1414327 0.1418373 0.1422058 0.1425665 0.142938 0.1433209 0.143708
 0.1440946 0.1444765 0.1448511 0.1452242 0.1456106 0.1460162 0.1464217 0.1467935 0.1471178 0.1474145
 0.1477161 0.1480364 0.1483661 0.1486924 0.1490177 0.1493601 0.1497365 0.150145 0.1505615 0.1509556
 0.151311 0.1516334 0.1519418 0.1522572 0.152593 0.15295 0.153316 0.1536748 0.1540215 0.1543656
 0.1547184 0.1550802 0.1554411 0.1557917 0.1561293 0.1564591 0.1567895 0.1571259 0.1574692 0.1578217
 0.1581887 0.158569 0.1589475 0.1593033 0.1596254 0.1599182 0.1601973 0.1604806 0.1607794 0.1610948
 0.1614206 0.1617497 0.162076 0.1623944 0.1627046 0.1630146 0.1633332 0.1636606 0.1639865 0.1643015
 0.1646079 0.1649185 0.1652432 0.165576 0.1658998 0.166205 0.1664997 0.1668014 0.1671194 0.1674474
 0.1677684 0.16807 0.1683554 0.1686394 0.1689321 0.1692312 0.1695299 0.1698264 0.1701241 0.1704258
 0.1707289 0.1710264 0.1713142 0.1715975 0.1718872 0.1721875 0.1724931 0.1727977 0.1731023 0.1734115
 0.1737247 0.174035 0.1743374 0.1746339 0.1749272 0.1752153 0.1754956 0.1757729 0.1760572 0.1763552
 0.1766649 0.1769762 0.1772771 0.1775613 0.1778314 0.1780952 0.1783597 0.1786293 0.1789049 0.1791856
 0.1794713 0.1797616 0.1800538 0.180345 0.1806348 0.1809206 0.1811967 0.1814636 0.1817327 0.1820147
 0.1823085 0.1826031 0.182887 0.1831554 0.1834132 0.1836685 0.1839228 0.184174 0.1844237 0.1846744
 0.1849249 0.1851761 0.1854339 0.1856983 0.1859612 0.1862186 0.1864749 0.1867345 0.1869985 0.1872682
 0.187543 0.1878184 0.1880878 0.1883475 0.1886022 0.1888627 0.1891333 0.1894038 0.1896634 0.1899162
 0.1901722 0.1904325 0.1906931 0.1909508 0.1912014 0.1914442 0.1916866 0.1919342 0.1921849 0.1924365
 0.1926882 0.1929339 0.1931698 0.1934057 0.1936519 0.1939051 0.1941569 0.194405 0.1946476 0.1948823
 0.1951103 0.1953316 0.1955462 0.1957637 0.1959958 0.1962378 0.1964766 0.1967082 0.196933 0.1971481
 0.197358 0.1975731 0.1977934 0.1980127 0.1982312 0.1984489 0.1986615 0.1988687 0.1990677 0.1992368
 0.1993289 0.199226 0.1986221 0.1969042 0.1931427 0.1862771 0.1755406 0.1609469 0.1434524 0.1246099
 0.1059967 0.08881366 0.07377382 0.06119408 0.05114961 0.04357437 0.03831867 0.03524588 0.03434242 0.03584112
 0.04035157 0.0484905 0.05950514 0.07007273 0.07561111 0.0739051 0.06722697 0.0602638 0.0562273 0.0553197
 0.05615212 0.05755585 0.05917013 0.06121132 0.06403784 0.06774253 0.07214633 0.07725095 0.08344744 0.09101973
 0.09956232 0.1081548 0.1161527 0.1236895 0.1313651 0.1395259 0.1479044 0.1558838 0.1629888 0.1691253
 0.1744895 0.1793512 0.1838984 0.1882136 0.1923278 0.1962276 0.1997753 0.2026729 0.2046036 0.2054739
 0.2055299 0.2052201 0.2049309 0.2048366 0.2049526 0.2052535 0.2057185 0.2063213 0.2070318 0.2078256
 0.2086783 0.2095628 0.2104538 0.2113274 0.2121611 0.2129424 0.2136685 0.2143337 0.2149294 0.2154588
 0.215938 0.2163843 0.2168059 0.2172006 0.2175616 0.2178913 0.2182058 0.2185186 0.2188244 0.2191075
 0.2193589 0.2195831 0.2197921 0.2199958 0.2201937 0.2203792 0.2205567 0.2207431 0.2209464 0.2211551
 0.2213542 0.2215413 0.2217202 0.2218912 0.2220538 0.2222118 0.2223723 0.2225403 0.2227149 0.2228898
 0.223062 0.2232364 0.223417 0.2235981 0.223768 0.223922 0.2240667 0.2242154 0.2243769 0.2245485
 0.2247235 0.2249025 0.225087 0.2252672 0.2254344 0.225598 0.2257731 0.2259592 0.2261462 0.2263311
 0.2265098 0.2266657 0.2267849 0.2268811 0.2269932 0.2271525 0.2273517 0.22755 0.227715 0.2278529
 0.227992 0.2281477 0.2283112 0.2284635 0.2285965 0.2287301 0.2288968 0.2291004 0.229309 0.2295014
 0.2296906 0.2298937 0.2301092 0.2303294 0.2305399 0.2307078 0.2308076 0.2308664 0.2309631 0.2311707
 0.231492 0.2318484 0.2321461 0.2323585 0.2325305 0.2327174 0.2329445 0.2331859 0.2333446 0.2333186
 0.2331586 0.233098 0.2333422 0.2338608 0.2344453 0.2349211 0.2352544 0.2355002 0.2357115 0.2358922
 0.2360001 0.2359967 0.2359235 0.2359302 0.2361745 0.2366591 0.2372114 0.2376557 0.2379529 0.2381517
 0.2383021 0.2384393 0.2385291 0.2384069 0.2379512 0.2373827 0.2372089 0.2377322 0.2387133 0.2396313
 0.2402012 0.240517 0.2407645 0.240988 0.2411503 0.2411688 0.2407921 0.2397446 0.2382621 0.2372432
 0.237504 0.2389528 0.2407441 0.242128 0.2429219 0.2433146 0.2435384 0.2437162 0.2437657 0.243407
 0.2424772 0.2413448 0.2408089 0.2413616 0.2426371 0.2438049 0.2444123 0.2446187 0.2447561 0.2449621
 0.2450913 0.244662 0.2431244 0.2406644 0.2386201 0.2385416 0.2406712 0.2436559 0.2458948 0.2469192
 0.2472676 0.2473086 0.2466972 0.244996 0.2423331 0.239347 0.2369837 0.236365 0.2380498 0.2411074
 0.2436409 0.2446565 0.2449049 0.245636 0.2471037 0.2485715 0.2492755 0.2490115 0.2480022 0.2464899
 0.2446241 0.2428451 0.2421117 0.2432265 0.2458633 0.2486831 0.2505725 0.2514904 0.2518823 0.2513736
 0.2485073 0.2424914 0.2353897 0.2315559 0.2337861 0.2403927 0.2470216 0.2509379 0.2525234 0.2532295
 0.2536336 0.2532798 0.2509466 0.2453206 0.2370699 0.2301382 0.229076 0.2345392 0.2425418 0.2481759
 0.2489594 0.2450906 0.2385497 0.2325116 0.2300642 0.2323378 0.238002 0.2445853 0.2499614 0.2529288
 0.2532032 0.2513123 0.2485528 0.2466679 0.246593 0.2470787 0.245631 0.2416603 0.2374648 0.234859
 0.2323667 0.2279497 0.2234535 0.2233889 0.2290656 0.2364163 0.2405679 0.2407796 0.2395935 0.2382032
 0.2344218 0.2258444 0.2144087 0.2064801 0.2072841 0.2154986 0.2244406 0.2285989 0.2280104 0.2263212
 0.2258995 0.2254201 0.221756 0.2140574 0.2058058 0.2019015 0.2034729 0.2068564 0.2079352 0.2054692
 0.1996993 0.190946 0.1818491 0.1782467 0.1842528 0.1971989 0.2097306 0.2158927 0.2133456 0.2020203
 0.1848049 0.1691396 0.1634203 0.1695409 0.1806381 0.1874277 0.1855886 0.1765246 0.1633471 0.1486991
 0.1359352 0.1295169 0.1323059 0.1426232 0.1544642 0.1605922 0.1565258 0.1439115 0.130612 0.1250652
 0.1287438 0.1352459 0.1374998 0.1341702 0.1286481 0.1245561 0.123596 0.1254378 0.1281245 0.1298235
 0.1302967 0.129069 0.1234604 0.1118802 0.09846544 0.09044009 0.0905719 0.09568074 0.1024642 0.1104536
 0.1182952 0.121728 0.1184063 0.1124111 0.1108187 0.1162005 0.1243933 0.1295583 0.1299442 0.1282398
 0.1273425 0.1272001 0.1263088 0.1251842 0.1264736 0.1313376 0.1374466 0.1415868 0.1430171 0.1431895
 0.1432864 0.1433312 0.1430282 0.1422879 0.1411615 0.1399189 0.1389637 0.1383543 0.1377289 0.1367983
 0.1353399 0.1325183 0.1271113 0.1193302 0.1119111 0.108015 0.1079637 0.1094425 0.1109045 0.1124709
 0.1127779 0.1080796 0.09715608 0.08535565 0.08072168 0.08624794 0.09765705 0.1082708 0.1140856 0.1141179
 0.1084736 0.09864652 0.08932765 0.08695708 0.09449746 0.1086312 0.1233555 0.1351233 0.1432303 0.1470358
 0.1455409 0.1396419 0.1329806 0.1299085 0.1329076 0.1414749 0.1521825 0.1594287 0.1581692 0.1490113
 0.1406636 0.1434981 0.1584987 0.1754457 0.1843787 0.185756 0.1863379 0.1886841 0.1898971 0.189141
 0.1906245 0.1977854 0.2081286 0.2156222 0.2159771 0.208345 0.1946797 0.1800626 0.1714219 0.1721271
 0.1783369 0.1832907 0.1839073 0.1804494 0.1725267 0.1607404 0.1509562 0.1507917 0.1607676 0.1732
 0.1809638 0.1840276 0.1862826 0.1888582 0.188762 0.1834182 0.1749218 0.1687545 0.1683312 0.1719602
 0.1756411 0.1772373 0.176586 0.1732003 0.1665461 0.158565 0.1536572 0.1549011 0.1609297 0.1672704
 0.1703947 0.1699565 0.1676928 0.165276 0.1632583 0.1612113 0.1587389 0.1568176 0.157644 0.1622196
 0.1686129 0.1738726 0.1773806 0.1810462 0.1862902 0.1920488 0.1960179 0.1971379 0.1966211 0.1969272
 0.1997615 0.2046441 0.2092072 0.2111837 0.2105553 0.2097801 0.2115415 0.2161831 0.2216607 0.2258646
 0.228359 0.2299364 0.2313465 0.2326704 0.233265 0.2322499 0.2297475 0.2276311 0.2282079 0.2319355
 0.2369812 0.2411046 0.2434545 0.2444911 0.2448013 0.244444 0.2433001 0.2416667 0.2402684 0.2397049
 0.2400375 0.2409325 0.2420323 0.2431192 0.2440909 0.2449358 0.2456976 0.2464065 0.2470649 0.2476906
 0.2482966 0.2488275 0.2492081 0.2494875 0.2498502 0.2504187 0.2511006 0.2516933 0.2520773 0.2522212
 0.2520551 0.2514804 0.2505142 0.2493022 0.2479449 0.2464204 0.244787 0.2434282 0.2429571 0.2437716
 0.2456946 0.2480812 0.2502664 0.2519058 0.2529827 0.2536384 0.2540469 0.2543641 0.2546923 0.2550611
 0.2554495 0.255833 0.2562035 0.2565541 0.256875 0.2571804 0.2575234 0.2579568 0.2584778 0.2590183
 0.2594876 0.2598265 0.2600389 0.2601801 0.2603068 0.2604292 0.2605087 0.2604941 0.260362 0.2601348
 0.2598731 0.2596379 0.2594385 0.2592154 0.2588885 0.2584198 0.2578053 0.2570156 0.2560002 0.2547734
 0.2534491 0.2521494 0.2509077 0.2496828 0.2484243 0.2470964 0.245678 0.2441736 0.2426114 0.2410155
 0.2393937 0.2377513 0.2360955 0.2344245 0.2327293 0.2310042 0.2292463 0.2274464 0.2255897 0.2236589
 0.221622 0.2194082 0.2169056 0.2139905 0.2105625 0.2065596 0.2019755 0.1968921 0.1914891 0.1859972
 0.1806278 0.1755384 0.1708438 0.1666443 0.163036 0.1600914 0.1578322 0.1562348 0.1552677 0.1549173
 0.155181 0.1560435 0.1574541 0.1593154 0.1614898 0.1638136 0.1661158 0.1682518 0.1701551 0.171863
 0.173476 0.1750748 0.1766685 0.1782151 0.1796785 0.1810472 0.1822994 0.1833892 0.1842905 0.1850334
 0.1856747 0.186245 0.1867357 0.1871171 0.187357 0.1874336 0.1873451 0.1871148 0.1867946 0.1864565
 0.1861611 0.1859346 0.18579 0.1857612 0.1858961 0.1862213 0.1867242 0.1873684 0.1881199 0.1889569
 0.1898557 0.1907812 0.1917076 0.1926471 0.19364 0.1947204 0.1958974 0.1971587 0.1984808 0.1998418
 0.2012325 0.2026583 0.2041409 0.205715 0.2074039 0.2091849 0.2109952 0.2127715 0.214479 0.2161179
 0.2177163 0.2192997 0.2208528 0.2223219 0.2236541 0.2248207 0.2258149 0.2266524 0.2273653 0.2279759
 0.2284862 0.2289042 0.2292679 0.2296285 0.2300085 0.2303778 0.2306763 0.2308671 0.2309587 0.2309742
 0.2309157 0.230766 0.2304972 0.2300728 0.2294647 0.2286757 0.2277276 0.2266327 0.2253988 0.2240482
 0.2226126 0.2211124 0.2195469 0.2178947 0.2161275 0.2142394 0.2122525 0.2101869 0.208046 0.205848
 0.2036524 0.2015375 0.199551 0.1976829 0.1958813 0.1941014 0.1923393 0.1906166 0.1889484 0.1873405
 0.1858021 0.1843396 0.1829474 0.1816223 0.180384 0.1792749 0.1783349 0.1775675 0.1769324 0.1763794
 0.1758855 0.1754526 0.1750897 0.1748143 0.1746469 0.1745736 0.1745275 0.1744247 0.174217 0.1739144
 0.1735724 0.1732528 0.1729829 0.1727483 0.1725172 0.1722511 0.171893 0.1713647 0.1705808 0.169469
 0.1680018 0.1662178 0.1642061 0.1620782 0.15996 0.1579822 0.1562445 0.1547945 0.1536357 0.1527292
 0.1519941 0.1513497 0.150778 0.1503318 0.1500783 0.1500196 0.1500473 0.1499997 0.1498004 0.1495344
 0.149369 0.1494199 0.1496942 0.150111 0.1505555 0.150934 0.1511928 0.1512991 0.1512416 0.1510525
 0.1507859 0.1504706 0.150109 0.1497047 0.1492606 0.1487709 0.1482285 0.1476211 0.1469318 0.1461658
 0.1453491 0.1444868 0.1435594 0.142554 0.1414497 0.1402179 0.1389203 0.1377735 0.1370413 0.136868
 0.1372116 0.1378833 0.1386642 0.1394361 0.1401453 0.1406305 0.1406799 0.1404121 0.140443 0.1414275
 0.1434126 0.1457601 0.1477033 0.1488761 0.1493145 0.1491535 0.1484809 0.1473641 0.145828 0.1438395
 0.1414171 0.1386781 0.1357358 0.1326891 0.1297224 0.1270518 0.124786 0.1229373 0.1214908 0.1204806
 0.1200362 0.1197937 0.1179017 0.1119858 0.1028031 0.09589914 0.09696795 0.1054531 0.1149084 0.1198113
 0.1199818 0.1183396 0.1169043 0.1159798 0.1154693 0.1155201 0.1162536 0.1175189 0.1189283 0.1200868
 0.1208309 0.1211876 0.1211065 0.1202592 0.1179809 0.113466 0.1064095 0.097619 0.08875771 0.08136673
 0.07617274 0.07309687 0.07155921 0.07081158 0.070319 0.07001747 0.07021012 0.07120654 0.07306127 0.07561298
 0.07865542 0.08194181 0.08508214 0.08767115 0.0895915 0.09102723 0.0921304 0.09282815 0.09298287 0.09258708
 0.09176028 0.09066352 0.08945487 0.08825512 0.08709779 0.0859312 0.08474055 0.08368827 0.08304079 0.08289713
 0.08307964 0.08334152 0.0835744 0.08377597 0.08394548 0.08406958 0.08414167 0.08419255 0.08433141 0.08468205
 0.08522864 0.08579651 0.08621679 0.08646154 0.08661714 0.08673909 0.08671907 0.08637793 0.08577314 0.08524487
 0.08496495 0.08462053 0.08382458 0.08271943 0.08188799 0.08171411 0.08204553 0.08245122 0.08261867 0.08249883
 0.08225463 0.0821719 0.08248869 0.08312985</values></Ydata></ScSm><ScRf><Ydata ylabel="Single channel"><values byteorder="INTEL" format="FLOAT32" numvalues="1820"> 0.06066324 0.06082518 0.06092191 0.06095417 0.0609498 0.06095737 0.06102481 0.0611689 0.06136201 0.06154787
 0.06167862 0.06174353 0.06175667 0.06172466 0.06165554 0.0615995 0.06163655 0.06179781 0.0620178 0.06217983
 0.06221 0.06214175 0.06209563 0.06216383 0.06228882 0.06228032 0.06199239 0.06148822 0.06099964 0.0607135
 0.06065377 0.06081177 0.06126107 0.06194907 0.0624577 0.06229912 0.06152682 0.06076764 0.06052673 0.06070291
 0.0608791 0.06080685 0.06048327 0.06005662 0.05987203 0.06038067 0.0616965 0.06322764 0.06388831 0.06278507
 0.05985609 0.05607487 0.053089 0.05233373 0.05402099 0.05685396 0.05900121 0.05955698 0.05897526 0.05814236
 0.0574218 0.05676658 0.05634023 0.0565587 0.0575179 0.0585974 0.05877711 0.05751165 0.05537847 0.05366802
 0.05320489 0.05382988 0.05508664 0.05671919 0.05797395 0.05720802 0.05350635 0.048719 0.04663209 0.04936928
 0.0551251 0.05992818 0.06117225 0.05907768 0.05553821 0.05255046 0.05145599 0.05258122 0.05518945 0.05809462
 0.06037842 0.06142137 0.06073745 0.05840124 0.05546753 0.05345816 0.05342502 0.05553972 0.05905839 0.06238461
 0.06379279 0.06270495 0.06007782 0.05739193 0.05567578 0.0555097 0.05717237 0.06034957 0.06411248 0.06745563
 0.06970984 0.0706116 0.07035742 0.06948037 0.06844586 0.06757115 0.06730366 0.06794375 0.0689134 0.06898149
 0.06760907 0.06567733 0.06458058 0.06478633 0.06546851 0.06550892 0.06462453 0.06317607 0.06105838 0.05768134
 0.05332159 0.04948425 0.04739698 0.04707423 0.04821568 0.05068407 0.05344356 0.05449507 0.05306286 0.05099314
 0.0509207 0.05345888 0.0568831 0.0592409 0.06016117 0.06072053 0.06205377 0.06419043 0.06591034 0.06566466
 0.06311303 0.05998671 0.05886532 0.0606442 0.06367262 0.06578432 0.06658373 0.06720272 0.06832732 0.06913454
 0.0681491 0.06499569 0.06133968 0.05985287 0.06187918 0.06608527 0.06943092 0.06941934 0.0657776 0.06051406
 0.05635672 0.05486792 0.05603254 0.05930221 0.06419501 0.0697436 0.07424913 0.07623174 0.07550159 0.07307827
 0.07002541 0.0664646 0.06212865 0.05800455 0.05653877 0.05932986 0.06508562 0.07069901 0.0740191 0.07492308
 0.07410994 0.07177636 0.06782122 0.06313731 0.06003452 0.06044582 0.06359863 0.06645147 0.06687712 0.06560211
 0.06464548 0.06480327 0.06534995 0.06558616 0.06584312 0.06692012 0.06893827 0.07103902 0.07221115 0.07220532
 0.07157953 0.07105181 0.07084816 0.07053413 0.06963091 0.06857716 0.06867778 0.07067104 0.07370877 0.07622724
 0.07751439 0.07796606 0.07803831 0.07744496 0.07556799 0.07261488 0.07009949 0.06972395 0.07173143 0.07474642
 0.07720482 0.0784853 0.07876982 0.07847303 0.07795743 0.07741956 0.0769543 0.07680672 0.07730913 0.07840525
 0.07954125 0.08021784 0.08039846 0.08026314 0.07985623 0.07916091 0.07835183 0.07779093 0.07776553 0.07827531
 0.0790852 0.07993269 0.08061275 0.08093618 0.08080232 0.08034778 0.07986523 0.07953524 0.07936181 0.07935731
 0.07960673 0.08010201 0.08065866 0.08106995 0.08126941 0.0813071 0.08124021 0.08109385 0.08089343 0.0807042
 0.08063392 0.08076191 0.08104073 0.08132201 0.08152807 0.0817315 0.08199798 0.08222692 0.08225445 0.08207412
 0.08185661 0.08176377 0.08181719 0.08193956 0.08204498 0.08205399 0.08188249 0.08151314 0.08109519 0.08088988
 0.08106121 0.08155924 0.08221304 0.08285484 0.08334637 0.08360639 0.08367084 0.08365244 0.08360773 0.08349907
 0.08329993 0.08308781 0.08301534 0.08319503 0.08359993 0.08407721 0.08446929 0.08470777 0.08480747 0.08483836
 0.08490675 0.08507417 0.08526899 0.08535288 0.08529647 0.08522315 0.0852581 0.08538554 0.08547994 0.08545522
 0.08536398 0.0853444 0.0854737 0.0856964 0.08590411 0.08605847 0.08621307 0.08642068 0.08663481 0.08672565
 0.08661842 0.08639695 0.08622238 0.08616374 0.08617193 0.08621019 0.0863207 0.08653188 0.08676966 0.08691778
 0.08694615 0.08693707 0.08697871 0.08705838 0.08708099 0.08698195 0.08679789 0.08662842 0.0865525 0.08658314
 0.0866739 0.08675089 0.08675461 0.08667409 0.08654758 0.08642476 0.08633079 0.08627618 0.08629479 0.0864352
 0.08668493 0.08692075 0.08698243 0.08681793 0.08654197 0.0863342 0.08627886 0.0863049 0.08627184 0.0861011
 0.08582722 0.08554493 0.08532667 0.0851858 0.08509457 0.08502537 0.08498494 0.08501506 0.0851419 0.0853097
 0.08538777 0.0852797 0.08502205 0.08474888 0.08456852 0.08449778 0.08449233 0.08450128 0.08450547 0.08453193
 0.08461208 0.08470982 0.08473291 0.084642 0.08450885 0.08444437 0.08450752 0.08468808 0.08491822 0.08508723
 0.08510875 0.08500504 0.08488946 0.08485241 0.0848956 0.0849756 0.08506593 0.0851604 0.08525244 0.08534075
 0.0854463 0.08560288 0.08582573 0.08609079 0.08634271 0.08652797 0.08663693 0.08672343 0.08687188 0.08712892
 0.08746326 0.0877941 0.08805834 0.0882534 0.08842246 0.0886026 0.08879535 0.08899285 0.08921487 0.08949216
 0.08981744 0.09014373 0.09043575 0.09070072 0.090966 0.09124691 0.09154353 0.09185956 0.09221651 0.09263425
 0.09308468 0.0934803 0.0937416 0.09387876 0.09399089 0.09418822 0.09451596 0.0949208 0.09527481 0.09547329
 0.09554384 0.09562846 0.09582707 0.09609529 0.09633461 0.09654458 0.09682418 0.09723038 0.09769091 0.09807411
 0.098318 0.09847482 0.09863926 0.0988446 0.09903666 0.09915254 0.09920904 0.09928548 0.09942672 0.09961038
 0.09982114 0.1001007 0.1004823 0.1009143 0.1012973 0.10158 0.1017798 0.1019323 0.1020562 0.1021536
 0.1022142 0.1022336 0.1022421 0.1022897 0.1023837 0.1024745 0.1025233 0.1025559 0.1026264 0.1027614
 0.1029631 0.1032329 0.1035528 0.103868 0.1041382 0.1044014 0.1047325 0.1051238 0.1054561 0.1056249
 0.1056567 0.1056564 0.1056786 0.1057117 0.1057659 0.1059009 0.1061532 0.1064884 0.1068458 0.1071968
 0.1075455 0.1078911 0.1082042 0.108436 0.1085507 0.1085582 0.1085208 0.108526 0.1086444 0.1088913
 0.1092173 0.1095415 0.109805 0.1099858 0.1100714 0.1100542 0.1099765 0.1099445 0.1100473 0.1102557
 0.1104319 0.1104444 0.1102526 0.1098842 0.1093728 0.1087466 0.1080588 0.1073938 0.106832 0.1064185
 0.106173 0.1061255 0.1063222 0.106777 0.1074226 0.1081313 0.1087887 0.1093202 0.109649 0.1096813
 0.1093728 0.1087866 0.1080571 0.1073093 0.1066183 0.1060061 0.1054436 0.1048907 0.1043799 0.1040566
 0.1041109 0.1046641 0.1057063 0.1071035 0.10864 0.1100905 0.111308 0.112274 0.1130666 0.1137751
 0.1144462 0.1150999 0.1157591 0.1164314 0.1170786 0.1176451 0.1181188 0.1185354 0.1189267 0.1192938
 0.1196234 0.1199045 0.1201375 0.1203443 0.1205516 0.1207407 0.120845 0.1208231 0.1207128 0.1205845
 0.1204621 0.1203077 0.120066 0.1197119 0.119283 0.1188947 0.1187232 0.118937 0.1196056 0.1206517
 0.1219046 0.12321 0.1244786 0.1256374 0.1265898 0.1272692 0.1277062 0.128006 0.1282669 0.1285373
 0.1288289 0.1291375 0.1294521 0.1297604 0.1300552 0.1303417 0.130639 0.130962 0.1312953 0.1315975
 0.1318465 0.1320735 0.1323418 0.1326873 0.1330819 0.133459 0.1337835 0.1340839 0.1344014 0.1347208
 0.1349856 0.135178 0.1353478 0.1355617 0.1358504 0.1362014 0.1365687 0.1368874 0.1371153 0.137271
 0.1374158 0.1375962 0.1378167 0.1380616 0.1383215 0.1385911 0.1388641 0.1391409 0.1394334 0.1397434
 0.1400407 0.1402786 0.140443 0.1405743 0.1407301 0.1409319 0.1411534 0.1413575 0.1415411 0.1417439
 0.1420109 0.1423397 0.1426688 0.1429271 0.1430944 0.1432099 0.1433284 0.1434794 0.1436652 0.143878
 0.144106 0.1443309 0.1445372 0.1447272 0.1449193 0.1451265 0.1453433 0.1455569 0.1457617 0.1459611
 0.1461617 0.1463693 0.1465902 0.1468337 0.1471089 0.1474105 0.1477063 0.1479536 0.1481323 0.1482584
 0.1483666 0.1484872 0.1486373 0.1488199 0.149025 0.1492379 0.1494486 0.1496563 0.1498643 0.1500756
 0.150291 0.1505078 0.1507203 0.1509235 0.1511203 0.1513234 0.151544 0.1517765 0.1520006 0.1521997
 0.1523769 0.1525509 0.1527402 0.1529472 0.1531566 0.1533512 0.1535309 0.1537094 0.153897 0.1540914
 0.1542875 0.1544832 0.1546788 0.1548741 0.1550704 0.1552697 0.1554706 0.1556693 0.1558646 0.1560598
 0.1562575 0.1564545 0.1566456 0.156832 0.1570206 0.1572168 0.1574212 0.1576339 0.1578526 0.15807
 0.1582779 0.1584746 0.1586643 0.1588531 0.1590447 0.1592392 0.1594336 0.1596269 0.1598209 0.1600157
 0.1602085 0.1603992 0.1605916 0.1607897 0.1609966 0.1612131 0.1614344 0.1616523 0.1618643 0.1620741
 0.1622868 0.1625055 0.1627311 0.1629603 0.163188 0.1634129 0.163636 0.1638545 0.1640624 0.1642562
 0.164436 0.1646048 0.1647679 0.1649315 0.1651004 0.1652786 0.1654673 0.1656625 0.1658603 0.1660614
 0.1662654 0.1664663 0.1666601 0.1668505 0.167043 0.1672376 0.1674324 0.1676263 0.1678214 0.1680247
 0.1682411 0.168463 0.168676 0.1688763 0.1690715 0.1692695 0.1694733 0.1696819 0.1698904 0.1700948
 0.1702963 0.1704993 0.1707067 0.1709211 0.1711422 0.1713628 0.1715775 0.1717891 0.1720002 0.1722102
 0.1724236 0.1726471 0.1728749 0.1730917 0.1732931 0.1734898 0.1736939 0.1739092 0.1741292 0.1743428
 0.1745481 0.1747541 0.1749649 0.1751772 0.1753908 0.175606 0.1758147 0.1760135 0.176215 0.1764297
 0.1766531 0.1768768 0.1770922 0.1772773 0.1773886 0.1773209 0.1768052 0.1752983 0.1719676 0.1658584
 0.1562776 0.1432314 0.1275718 0.1106908 0.09400856 0.07860988 0.06514144 0.05389232 0.04492769 0.03817546
 0.03348558 0.03072893 0.02990048 0.03122218 0.03524988 0.04254057 0.05242585 0.06193535 0.06695638 0.06547743
 0.05950958 0.05325425 0.04961344 0.04878999 0.04954441 0.05082121 0.05228489 0.05412346 0.05666512 0.06000528
 0.06398585 0.06859761 0.07418069 0.08098969 0.08866899 0.09640163 0.1036153 0.11043 0.117375 0.1247459
 0.132295 0.1394779 0.1458836 0.1514316 0.1562885 0.1606865 0.1647899 0.168673 0.1723705 0.175883
 0.1790949 0.1817336 0.1834992 0.1842936 0.1843327 0.1840295 0.1837507 0.1836648 0.1837781 0.1840505
 0.1844578 0.1849895 0.1856361 0.1863814 0.1871949 0.1880365 0.1888698 0.1896681 0.190417 0.1911159
 0.1917691 0.1923729 0.1929217 0.1934199 0.193879 0.1943086 0.1947171 0.1951102 0.1954872 0.1958477
 0.1961943 0.1965215 0.196814 0.1970682 0.1973013 0.197531 0.1977582 0.1979772 0.1981879 0.198394
 0.1985998 0.1988089 0.1990217 0.1992337 0.1994398 0.1996386 0.1998311 0.2000209 0.2002131 0.2004102
 0.2006102 0.2008097 0.2010075 0.2012059 0.2014098 0.201621 0.2018314 0.2020294 0.2022128 0.2023897
 0.2025696 0.2027569 0.202951 0.2031462 0.2033367 0.2035254 0.203721 0.2039266 0.2041419 0.2043706
 0.204612 0.2048534 0.2050799 0.2052885 0.2054814 0.2056552 0.2058105 0.2059637 0.2061395 0.2063492
 0.2065772 0.2067938 0.2069846 0.2071627 0.2073497 0.2075499 0.2077491 0.2079313 0.2080972 0.2082736
 0.2084937 0.2087578 0.2090293 0.2092799 0.2095156 0.209751 0.2099884 0.2102278 0.2104643 0.2106722
 0.2108254 0.2109428 0.2110932 0.2113408 0.2116846 0.2120524 0.2123666 0.2126125 0.2128319 0.2130696
 0.2133441 0.2136298 0.2138348 0.2138636 0.2137657 0.213761 0.2140383 0.2145656 0.2151512 0.2156399
 0.2160027 0.2162833 0.2165243 0.2167315 0.2168715 0.2169095 0.2168829 0.216933 0.2172078 0.2177024
 0.2182461 0.218677 0.2189736 0.2191938 0.2193806 0.2195534 0.219674 0.2195963 0.2192166 0.2187442
 0.2186475 0.2191991 0.2201651 0.2210543 0.221604 0.2219158 0.2221805 0.2224483 0.2226744 0.2227604
 0.2224605 0.2215264 0.2201935 0.2193049 0.2196128 0.2210244 0.2227539 0.2241071 0.2249108 0.2253338
 0.2255925 0.225809 0.2259119 0.2256377 0.2248307 0.2238328 0.2233897 0.223962 0.2252118 0.2263682
 0.227011 0.2272877 0.2275016 0.2277705 0.2279466 0.227577 0.2261627 0.2239027 0.2220628 0.2220857
 0.2241795 0.2270613 0.2292227 0.2302271 0.2305932 0.2306783 0.2301553 0.2286056 0.2261533 0.2234085
 0.2212634 0.2207656 0.2224282 0.2253641 0.2277888 0.228782 0.2290665 0.2298219 0.231278 0.2327296
 0.2334513 0.2332547 0.2323579 0.2309885 0.229285 0.2276706 0.2270605 0.2282064 0.2307829 0.2335176
 0.2353636 0.2362883 0.2367159 0.2362929 0.2336416 0.2280164 0.2213713 0.2178172 0.2199913 0.2263014
 0.2326394 0.2364187 0.2379931 0.2387312 0.239182 0.2389221 0.2368011 0.2315667 0.2238334 0.2173327
 0.2163868 0.2216233 0.2292651 0.2346669 0.2354802 0.2318835 0.2257464 0.2200879 0.2178501 0.2201089
 0.2255965 0.2319551 0.2371559 0.2400634 0.2404213 0.2387324 0.2362213 0.2345454 0.2345943 0.2351723
 0.2339056 0.2302434 0.2263735 0.2240071 0.221729 0.2176156 0.2134693 0.2136298 0.219339 0.2266637
 0.230913 0.2313905 0.2305465 0.2295053 0.2261307 0.2180957 0.2072926 0.1999178 0.201056 0.2094023
 0.2184314 0.2227936 0.2225627 0.2213095 0.2213394 0.2213441 0.2182376 0.2111785 0.2036311 0.2004648
 0.2027713 0.2068817 0.2087124 0.2070252 0.2019975 0.1939134 0.1855198 0.1828761 0.1902436 0.2048686
 0.2191379 0.2268496 0.2254784 0.2148078 0.197822 0.1825483 0.1781518 0.1867141 0.2006947 0.2098649
 0.2094235 0.2008483 0.1875286 0.172458 0.1596295 0.1544658 0.1605788 0.1761069 0.1937198 0.2042358
 0.2016964 0.188033 0.1735314 0.169432 0.1776631 0.1894787 0.195245 0.1931871 0.1880198 0.184904
 0.1864779 0.1923605 0.1995448 0.2052285 0.2090494 0.2099014 0.2029192 0.1853246 0.164168 0.1516832
 0.1525847 0.1616538 0.1735228 0.1874955 0.2011704 0.2071301 0.2013072 0.1906925 0.187381 0.1957278
 0.2086208 0.2161816 0.2155448 0.2113757 0.2086785 0.2074721 0.2052789 0.2028893 0.2045749 0.2121942
 0.2219577 0.2286649 0.2311167 0.2316504 0.2321713 0.232703 0.2327205 0.2320215 0.2306655 0.2291132
 0.2280773 0.2277195 0.2275031 0.2270081 0.2259137 0.2227713 0.2153103 0.2036309 0.1922393 0.1864764
 0.1868516 0.1894104 0.1916182 0.1938376 0.1938325 0.1852215 0.1658999 0.1449604 0.1360796 0.1443018
 0.162279 0.178651 0.1867515 0.1851824 0.1744239 0.1570441 0.1404066 0.1343556 0.1431878 0.1615332
 0.1800945 0.1936532 0.2016573 0.2037825 0.1989462 0.188464 0.177317 0.171304 0.1735087 0.1829436
 0.194882 0.2020775 0.1983105 0.1845745 0.1718011 0.1727953 0.1888022 0.2074276 0.2165659 0.2166536
 0.2157551 0.2170269 0.2171573 0.2151705 0.2159507 0.2235485 0.2352211 0.244133 0.2453582 0.2378288
 0.2236961 0.2088074 0.2011773 0.2045303 0.2140008 0.2213661 0.2229687 0.2192278 0.2097957 0.1956004
 0.1839846 0.1842927 0.1970536 0.2127559 0.2226589 0.2267545 0.2298035 0.2331279 0.2330033 0.2263041
 0.2157344 0.2081625 0.2078322 0.2126519 0.2177347 0.2205522 0.2209629 0.2182827 0.2117103 0.2036502
 0.1997513 0.203993 0.2145396 0.225426 0.2318671 0.2332443 0.2317205 0.2294325 0.2270527 0.2239485
 0.2196022 0.215459 0.2146477 0.2186353 0.2248861 0.2294674 0.2315508 0.2336847 0.2377997 0.2425617
 0.2450023 0.2437566 0.2403561 0.2378874 0.2385106 0.2417462 0.2448367 0.2451013 0.2424843 0.2398439
 0.2403218 0.2443491 0.2495852 0.253589 0.2558078 0.2570629 0.2581201 0.2590179 0.2590371 0.2572366
 0.25379 0.2507802 0.2507363 0.2541309 0.2589258 0.2626746 0.2645039 0.2649973 0.264859 0.2641782
 0.2628042 0.2609953 0.2594576 0.2587857 0.2590291 0.2598258 0.2607825 0.2616494 0.2623076 0.262753
 0.2630559 0.2632688 0.2634051 0.2634975 0.2635838 0.263626 0.2635504 0.2634056 0.2633796 0.2635926
 0.2639383 0.2641955 0.2642274 0.2639914 0.2634258 0.2624667 0.2611758 0.2597218 0.2581923 0.2565369
 0.2548078 0.2534125 0.2529855 0.2539088 0.255956 0.2584296 0.260635 0.2622236 0.2631865 0.2636734
 0.2638656 0.2639215 0.2639334 0.2639084 0.2638093 0.2636154 0.2633386 0.262998 0.2626045 0.2621793
 0.2617703 0.2614284 0.261157 0.2608984 0.2605759 0.2601498 0.2596354 0.259083 0.2585365 0.2579925
 0.2573944 0.2566747 0.2558087 0.2548355 0.2538429 0.2529242 0.25212 0.2513881 0.2506461 0.2498407
 0.2489554 0.2479673 0.2468589 0.2456909 0.2446077 0.2437246 0.243026 0.2423968 0.2417273 0.2409652
 0.2401007 0.2391469 0.2381312 0.2370748 0.2359785 0.2348348 0.2336402 0.2323851 0.2310514 0.2296298
 0.2281291 0.2265676 0.2249669 0.2233464 0.2216944 0.2199384 0.2179547 0.215611 0.2127984 0.2094451
 0.2055309 0.2011096 0.1963204 0.1913641 0.1864519 0.181761 0.1774235 0.1735342 0.170162 0.1673675
 0.1652186 0.163779 0.1630797 0.1631113 0.1638418 0.1652244 0.1671869 0.1696264 0.1724128 0.1753886
 0.1783766 0.1812115 0.1837978 0.1861494 0.1883558 0.1904833 0.1925088 0.194357 0.1959839 0.1973966
 0.1986094 0.1996202 0.2004361 0.2010982 0.2016643 0.202173 0.2026269 0.2030121 0.2033246 0.2035771
 0.2037882 0.2039778 0.2041694 0.2043825 0.2046199 0.2048665 0.2051077 0.2053569 0.205662 0.2060674
 0.2065673 0.2071136 0.2076709 0.2082445 0.2088574 0.2095262 0.2102664 0.2111042 0.2120692 0.2131795
 0.2144276 0.2157756 0.217162 0.2185087 0.2197269 0.2207365 0.2214955 0.2220078 0.2222993 0.2223966
 0.2223291 0.2221335 0.2218417 0.2214685 0.2210172 0.2204961 0.2199227 0.2193103 0.2186595 0.2179679
 0.2172463 0.2165196 0.2158134 0.2151392 0.2144891 0.2138471 0.2132089 0.2125838 0.2119764 0.2113776
 0.2107796 0.2101878 0.2096115 0.2090516 0.2084999 0.2079355 0.2073187 0.2066022 0.2057609 0.2048047
 0.2037588 0.2026364 0.2014381 0.2001657 0.198824 0.1974101 0.1959156 0.1943413 0.1927007 0.1910002
 0.1892183 0.1873209 0.1853097 0.1832533 0.1812564 0.1793964 0.1776923 0.1761238 0.1746574 0.1732607
 0.1719131 0.1706108 0.1693577 0.1681589 0.1670212 0.1659518 0.164951 0.1640144 0.163142 0.1623435
 0.1616351 0.1610271 0.1605081 0.1600475 0.159621 0.1592345 0.158925 0.1587381 0.1586896 0.158738
 0.1588044 0.1588255 0.1587808 0.1586809 0.1585522 0.1584255 0.1583177 0.1582285 0.1581543 0.1580825
 0.1579631 0.1577012 0.1571874 0.1563396 0.1551352 0.1536179 0.1518757 0.1500188 0.1481764 0.1464818
 0.1450329 0.1438733 0.143 0.1423637 0.1418778 0.1414692 0.1411273 0.1409036 0.1408686 0.1410342
 0.1412913 0.1414715 0.1415159 0.1415405 0.1417096 0.1420994 0.1426895 0.1434071 0.1441551 0.1448468
 0.1454271 0.1458595 0.1461306 0.1462681 0.1463084 0.1462563 0.1461124 0.1459039 0.1456537 0.1453574
 0.1450041 0.144584 0.1440856 0.1435162 0.1428874 0.1421757 0.1413521 0.1404317 0.1394273 0.1383083
 0.1371027 0.1359966 0.1352569 0.1350741 0.1354706 0.1362936 0.1373155 0.1383866 0.139421 0.1402319
 0.1405907 0.140591 0.1408053 0.1418706 0.1438895 0.1463126 0.1484153 0.1498149 0.150515 0.1506224
 0.1501996 0.149298 0.1479257 0.1460252 0.1436063 0.1408098 0.1377821 0.134648 0.1316154 0.1289119
 0.1266374 0.124798 0.1233888 0.1224541 0.1221169 0.1219763 0.1200988 0.1140455 0.1046444 0.09762736
 0.09879504 0.1075043 0.1171455 0.1221206 0.122281 0.1206087 0.1191545 0.1182141 0.1176731 0.1176855
 0.1183945 0.1196542 0.1210639 0.1222127 0.1229265 0.1232394 0.1231191 0.1222241 0.1198276 0.1150707
 0.1076646 0.09849629 0.0893229 0.0817361 0.07643233 0.07325631 0.07159476 0.07073592 0.07019143 0.0699093
 0.07017656 0.07126991 0.07321499 0.07586285 0.07905044 0.0825431 0.08591758 0.08874018 0.09089649 0.09258465
 0.09396872 0.09498795 0.09551603 0.09555471 0.09522216 0.09465009 0.09394227 0.09316306 0.09229444 0.0912457
 0.0900085 0.08880115 0.08794102 0.08754379 0.087448 0.08744109 0.08743667 0.08742846 0.08740634 0.087355
 0.08727428 0.08721086 0.0872853 0.08760792 0.08812936 0.08864141 0.08895824 0.08906349 0.0890712 0.08903843
 0.08882403 0.08823567 0.08736846 0.08660855 0.0861356 0.08561257 0.08462679 0.08331925 0.08230495 0.08200331
 0.08225965 0.08261101 0.08272555 0.08255906 0.08228987 0.08222027 0.08258451 0.08326863 0.08379938 0.08378082
</values></Ydata></ScRf><Data_Parameters_AB><parameter name="DPF">1</parameter><parameter name="NPT">3497</parameter><parameter name="FXV">3996</parameter><parameter name="LXV">500</parameter><parameter name="CSF">1</parameter><parameter name="MXY">0.238332659006119</parameter><parameter name="MNY">-0.0751728713512421</parameter><parameter name="DAT">31/05/2022</parameter><parameter name="TIM">11:50:10.055 (GMT+2)</parameter><parameter name="DXU">WN</parameter></Data_Parameters_AB><AB__Qtest><MainReport name="Quality Test Report"><Header><Line><Legend>Test result ok/not ok [1/0]: </Legend><Value>0</Value></Line><Line><Legend>Method file: </Legend><Value>C:\Users\Public\Documents\Bruker\OPUS_8.2.28\QT\IRBT_v3_default.QT</Value></Line></Header><Matrix><Line><Legend></Legend><Legend>min</Legend><Legend>max</Legend><Legend>measured</Legend></Line><Line><Value>Absorption (X-Range 1):</Value><Value>0.400000</Value><Value>2.000000</Value><Value>0.270474</Value></Line><Line><Value>Noise (X-Range 4):</Value><Value></Value><Value>0.000300</Value><Value>0.000041</Value></Line><Line><Value>Signal/Noise (X-Range 2):</Value><Value>200.000000</Value><Value></Value><Value>131.774705</Value></Line><Line><Value>Signal/Noise (X-Range 3):</Value><Value>40.000000</Value><Value></Value><Value>73.209060</Value></Line><Line><Value>Water vapour (X-Range 5):</Value><Value></Value><Value>0.000300</Value><Value>0.000019</Value></Line><Line><Value>Signal/Water (X-Range 2):</Value><Value>100.000000</Value><Value></Value><Value>276.229799</Value></Line><Line><Value>Signal/Water (X-Range 3):</Value><Value>20.000000</Value><Value></Value><Value>153.462867</Value></Line><Line><Value>Fringes (X-Range 6):</Value><Value></Value><Value>0.000100</Value><Value>0.000081</Value></Line></Matrix></MainReport></AB__Qtest><Data_Parameters_ScSm><parameter name="DPF">1</parameter><parameter name="NPT">1814</parameter><parameter name="FXV">3996.33169228125</parameter><parameter name="LXV">499.541461535156</parameter><parameter name="CSF">1</parameter><parameter name="MXY">0.26050865650177</parameter><parameter name="MNY">0.0343424156308174</parameter><parameter name="DAT">31/05/2022</parameter><parameter name="TIM">11:50:10.055 (GMT+2)</parameter><parameter name="DXU">WN</parameter></Data_Parameters_ScSm><Data_Parameters_ScRf><parameter name="DPF">1</parameter><parameter name="NPT">1820</parameter><parameter name="FXV">4004.04661832813</parameter><parameter name="LXV">495.683998511719</parameter><parameter name="CSF">1</parameter><parameter name="MXY">0.26499730348587</parameter><parameter name="MNY">0.0299004763364792</parameter><parameter name="DAT">31/05/2022</parameter><parameter name="TIM">11:49:43.654 (GMT+2)</parameter><parameter name="DXU">WN</parameter></Data_Parameters_ScRf><Optic_Parameters_Rf><parameter name="APR">0</parameter><parameter name="APT">Open</parameter><parameter name="BMS">KBr</parameter><parameter name="DTC">RT-DLaTGS_IR-Biotyper [Microplate reader]</parameter><parameter name="HPF">0</parameter><parameter name="LPF">10.0</parameter><parameter name="LPV">4000</parameter><parameter name="PGR">0</parameter><parameter name="RCH">Module port</parameter><parameter name="RDX">0</parameter><parameter name="SRC">MIR</parameter><parameter name="VEL">10.0</parameter><parameter name="SON">Off</parameter></Optic_Parameters_Rf><Acquisition_Parameters_Rf><parameter name="ADT">1</parameter><parameter name="AQM">DD</parameter><parameter name="CFE">0</parameter><parameter name="COR">0</parameter><parameter name="DEL">0</parameter><parameter name="DLY">0</parameter><parameter name="HFW">8000</parameter><parameter name="LFW">0</parameter><parameter name="NSR">32</parameter><parameter name="PLF">AB</parameter><parameter name="RES">6</parameter><parameter name="RGN">-1</parameter><parameter name="STR">0</parameter><parameter name="TCL">MakeCompatibleScalar (0, {WSV=1.000000, ARV=0});</parameter><parameter name="TDL">37</parameter><parameter name="RPO">0</parameter></Acquisition_Parameters_Rf><FT_-_Parameters_Rf><parameter name="APF">B3</parameter><parameter name="HFQ">500</parameter><parameter name="LFQ">4000</parameter><parameter name="NLI">0</parameter><parameter name="PHR">24</parameter><parameter name="PHZ">ML</parameter><parameter name="SPZ">NO</parameter><parameter name="ZFF">1</parameter></FT_-_Parameters_Rf><Optic_Parameters_><parameter name="APR">0</parameter><parameter name="APT">Open</parameter><parameter name="BMS">KBr</parameter><parameter name="CHN">Module port</parameter><parameter name="DTC">RT-DLaTGS_IR-Biotyper [Microplate reader]</parameter><parameter name="HPF">0</parameter><parameter name="LPF">10.0</parameter><parameter name="LPV">4000</parameter><parameter name="PGN">0</parameter><parameter name="RDX">0</parameter><parameter name="SRC">MIR</parameter><parameter name="VEL">10.0</parameter><parameter name="SON">Off</parameter></Optic_Parameters_><FT_-_Parameters_><parameter name="APF">B3</parameter><parameter name="HFQ">500</parameter><parameter name="LFQ">4000</parameter><parameter name="NLI">0</parameter><parameter name="PHR">24</parameter><parameter name="PHZ">ML</parameter><parameter name="SPZ">NO</parameter><parameter name="ZFF">1</parameter></FT_-_Parameters_><Acquisition_Parameters_><parameter name="ADT">1</parameter><parameter name="AQM">DD</parameter><parameter name="CFE">0</parameter><parameter name="COR">0</parameter><parameter name="DEL">0</parameter><parameter name="DLY">0</parameter><parameter name="HFW">8000</parameter><parameter name="LFW">0</parameter><parameter name="NSS">32</parameter><parameter name="PLF">AB</parameter><parameter name="RES">6</parameter><parameter name="SOT">0</parameter><parameter name="TCL">MakeCompatibleScalar (0, {WSV=1.000000, ARV=0});</parameter><parameter name="TDL">37</parameter><parameter name="SPO">0</parameter><parameter name="SGN">-1</parameter></Acquisition_Parameters_><Instrument_Parameters_Rf><parameter name="HFL">15800.168544</parameter><parameter name="LFL">0</parameter><parameter name="LWN">15800.168544</parameter><parameter name="ABP">32197</parameter><parameter name="SSP">1</parameter><parameter name="ARG">2</parameter><parameter name="ASG">2</parameter><parameter name="ASS">32</parameter><parameter name="GFW">16</parameter><parameter name="GBW">16</parameter><parameter name="BFW">0</parameter><parameter name="BBW">0</parameter><parameter name="PKA">7263</parameter><parameter name="PKL">4996</parameter><parameter name="PRA">7449</parameter><parameter name="PRL">5001</parameter><parameter name="P2A">1</parameter><parameter name="P2L">1</parameter><parameter name="P2R">1</parameter><parameter name="P2K">1</parameter><parameter name="DAQ">0</parameter><parameter name="AG2">1</parameter><parameter name="SSM">1</parameter><parameter name="RSN">25505</parameter><parameter name="CRR">0</parameter><parameter name="SRT">1653997783.655</parameter><parameter name="DUR">19.6369934082031</parameter><parameter name="TSC">28.9</parameter><parameter name="MVD">0.302616387605667</parameter><parameter name="AN1">0.225811849477816</parameter><parameter name="AN2">0</parameter><parameter name="VSN">2.485 Apr  4 2017</parameter><parameter name="SRN">0085</parameter><parameter name="CAM">0</parameter><parameter name="INS">IR-Biotyper</parameter><parameter name="FOC">69</parameter><parameter name="RDY">1</parameter><parameter name="ARS">32</parameter></Instrument_Parameters_Rf><Sample_Parameters_><parameter name="BLD"></parameter><parameter name="CNM">Admin</parameter><parameter name="CPY"></parameter><parameter name="DPM"></parameter><parameter name="EXP">IRBT_v3_32Scans.XPM</parameter><parameter name="LCT"></parameter><parameter name="SFM">Microplate, HTS-XT</parameter><parameter name="SNM">220531-1021(v.3)_AGF29F (D_1)_F10_6be61a09-ad77-43a1-a172-8b24e44f7fce.0</parameter><parameter name="XPP">C:\Users\Public\Documents\Bruker\OPUS_8.2.28\XPM</parameter><parameter name="IST">OK</parameter><parameter name="CPG">1252</parameter><parameter name="UID">c97a761a-4035-4cb6-8543-f0c20e2aa993</parameter></Sample_Parameters_><Instrument_Parameters_><parameter name="HFL">15800.168544</parameter><parameter name="LFL">0</parameter><parameter name="LWN">15800.168544</parameter><parameter name="ABP">32197</parameter><parameter name="SSP">1</parameter><parameter name="ASG">2</parameter><parameter name="ARG">2</parameter><parameter name="ASS">32</parameter><parameter name="GFW">16</parameter><parameter name="GBW">16</parameter><parameter name="BFW">0</parameter><parameter name="BBW">0</parameter><parameter name="PKA">7158</parameter><parameter name="PKL">4988</parameter><parameter name="PRA">7449</parameter><parameter name="PRL">4993</parameter><parameter name="P2A">1</parameter><parameter name="P2L">1</parameter><parameter name="P2R">1</parameter><parameter name="P2K">1</parameter><parameter name="DAQ">0</parameter><parameter name="AG2">1</parameter><parameter name="SSM">1</parameter><parameter name="RSN">13378</parameter><parameter name="CRR">0</parameter><parameter name="SRT">1653997810.056</parameter><parameter name="DUR">19.6369934082031</parameter><parameter name="TSC">28.9</parameter><parameter name="MVD">0.319327622652054</parameter><parameter name="AN1">0.225800216146896</parameter><parameter name="AN2">0</parameter><parameter name="VSN">2.485 Apr  4 2017</parameter><parameter name="SRN">0085</parameter><parameter name="CAM">0</parameter><parameter name="INS">IR-Biotyper</parameter><parameter name="FOC">69</parameter><parameter name="RDY">1</parameter></Instrument_Parameters_><History/></OPUSDataFile>
