<?xml version="1.0" encoding="UTF-8" ?>
<OPUSDataFile><AB><Ydata ylabel="Absorbance Units"><values byteorder="INTEL" format="FLOAT32" numvalues="3497"> -0.07229525 -0.07235535 -0.07239554 -0.07241637 -0.07240838 -0.0723711 -0.07231317 -0.07223591 -0.07215751 -0.07208006
 -0.07202535 -0.07199361 -0.0719989 -0.07203628 -0.07210311 -0.07219022 -0.07228211 -0.07237147 -0.07244333 -0.07249692
 -0.07252511 -0.07253546 -0.07252797 -0.07251713 -0.07250762 -0.07251161 -0.07253446 -0.07257403 -0.07263198 -0.07269438
 -0.07275995 -0.07282013 -0.07287443 -0.07292639 -0.0729761 -0.07302566 -0.07307404 -0.07311507 -0.07314967 -0.07317653
 -0.07320008 -0.07323096 -0.07327004 -0.07332626 -0.07339101 -0.07345935 -0.07352005 -0.0735617 -0.07358133 -0.07357289
 -0.0735421 -0.07348856 -0.07342239 -0.07334441 -0.07327061 -0.07320285 -0.07315848 -0.07313997 -0.0731502 -0.07318946
 -0.07323983 -0.07329997 -0.07334665 -0.07338128 -0.07339935 -0.07340562 -0.07341576 -0.07343096 -0.07346366 -0.07350855
 -0.07356248 -0.07362049 -0.07367454 -0.07372537 -0.07377128 -0.07381274 -0.07385154 -0.07388042 -0.07389739 -0.07389557
 -0.07387032 -0.07383208 -0.07377958 -0.07373969 -0.07371446 -0.07372987 -0.07378753 -0.07389837 -0.0740611 -0.07426301
 -0.07449814 -0.07472567 -0.07493751 -0.07507876 -0.07515422 -0.07514159 -0.07506472 -0.07495206 -0.07482535 -0.07472332
 -0.07464968 -0.07462366 -0.07463025 -0.07466976 -0.07471624 -0.07475972 -0.07478474 -0.07478292 -0.07476195 -0.07472073
 -0.07467614 -0.07462992 -0.07459165 -0.07456201 -0.07454378 -0.07453751 -0.07455095 -0.0745855 -0.07465466 -0.07475758
 -0.07490122 -0.07507744 -0.07527308 -0.0754736 -0.07564736 -0.07578897 -0.07587495 -0.07592025 -0.07592852 -0.07591517
 -0.07589178 -0.07585941 -0.07581877 -0.07577825 -0.07573587 -0.07572139 -0.07573886 -0.07581531 -0.075957 -0.07614239
 -0.0763713 -0.07653022 -0.07661495 -0.07653184 -0.07630103 -0.07600787 -0.07567002 -0.07540283 -0.07519922 -0.07509941
 -0.07508975 -0.07517003 -0.07531556 -0.07550438 -0.07569662 -0.07585215 -0.07594821 -0.07594977 -0.07589243 -0.07577525
 -0.07565907 -0.07556322 -0.07550609 -0.07549711 -0.07551504 -0.07555871 -0.07561003 -0.07566776 -0.07573103 -0.07579995
 -0.07587696 -0.07596096 -0.0760463 -0.07613103 -0.0762056 -0.07626736 -0.07630567 -0.07631732 -0.07628982 -0.07622779
 -0.07612713 -0.07600725 -0.07588013 -0.0757686 -0.07569003 -0.07565311 -0.07566883 -0.07572298 -0.07581755 -0.07592022
 -0.07602639 -0.07610923 -0.07616453 -0.07618763 -0.0761779 -0.07614247 -0.07608176 -0.07600281 -0.07590646 -0.07580076
 -0.0756878 -0.0755791 -0.0754779 -0.07539794 -0.07534152 -0.07532094 -0.07533103 -0.07537474 -0.07543366 -0.07549605
 -0.07554013 -0.075547 -0.0755164 -0.07543802 -0.07534184 -0.07523165 -0.07514212 -0.07508145 -0.07505894 -0.07507768
 -0.07512496 -0.07520025 -0.07529107 -0.07539689 -0.07550915 -0.07562608 -0.07573199 -0.07582393 -0.0758803 -0.07590337
 -0.07588538 -0.07583616 -0.07576811 -0.07569253 -0.07562725 -0.07558145 -0.07556787 -0.07559375 -0.07566708 -0.07578972
 -0.07596859 -0.07618471 -0.07644121 -0.07668591 -0.07691184 -0.07706948 -0.07715019 -0.07715572 -0.07708551 -0.07695525
 -0.07676558 -0.07652277 -0.07623275 -0.07593828 -0.0756484 -0.07542501 -0.07526556 -0.07519954 -0.0752089 -0.07528047
 -0.07538437 -0.075476 -0.07554344 -0.07555392 -0.07553053 -0.07547741 -0.07541612 -0.07535989 -0.07530586 -0.07525806
 -0.07519875 -0.07512452 -0.07502814 -0.07490667 -0.07477812 -0.07464323 -0.07452866 -0.07443529 -0.07437962 -0.0743603
 -0.07437894 -0.07442869 -0.07448613 -0.07453895 -0.07453816 -0.07448841 -0.07436827 -0.07420601 -0.07403187 -0.07385714
 -0.07370795 -0.07356725 -0.07343294 -0.07328694 -0.07311773 -0.07293 -0.07272014 -0.07250876 -0.07229961 -0.07210344
 -0.07192337 -0.07174805 -0.07157735 -0.07138205 -0.07116143 -0.07089967 -0.07060201 -0.07029956 -0.06999721 -0.0697346
 -0.0695058 -0.06931481 -0.06915524 -0.06901797 -0.06889726 -0.06878699 -0.06866923 -0.06852977 -0.06834491 -0.06809223
 -0.06777425 -0.06738466 -0.06693897 -0.06644379 -0.06589077 -0.0652772 -0.06461024 -0.06388703 -0.06315442 -0.06241538
 -0.06170172 -0.06101363 -0.06034863 -0.05970624 -0.05908201 -0.058477 -0.05789473 -0.05733363 -0.05679143 -0.05626592
 -0.05575331 -0.05524858 -0.05475247 -0.05423496 -0.05367763 -0.05303308 -0.05225288 -0.05136237 -0.05034415 -0.04929764
 -0.04825354 -0.04724852 -0.04630027 -0.04537978 -0.04448604 -0.04358989 -0.04268887 -0.04177886 -0.04086099 -0.03996206
 -0.03908359 -0.03825685 -0.03746853 -0.03668787 -0.03588301 -0.03493874 -0.03386522 -0.03260191 -0.03123923 -0.02987858
 -0.02856259 -0.02738537 -0.02629265 -0.02528129 -0.0242884 -0.02328044 -0.02224452 -0.02116508 -0.02007049 -0.01896505
 -0.01786267 -0.01676859 -0.01565514 -0.01452125 -0.01332515 -0.01206655 -0.01074534 -0.009368759 -0.007994254 -0.006625399
 -0.005311057 -0.004042529 -0.002820474 -0.00163665 -0.0004764409 0.0006663275 0.001802527 0.002944689 0.004110773 0.005298774
 0.006519545 0.007742835 0.008953915 0.01014925 0.01131401 0.01250781 0.01374017 0.01505416 0.01646416 0.01790497
 0.01937431 0.02077335 0.02210014 0.02333822 0.02449486 0.02561922 0.02671781 0.02784665 0.02900238 0.03020921
 0.03144949 0.03270013 0.03394952 0.03516334 0.03636527 0.03755899 0.03878516 0.04008085 0.04143391 0.04286132
 0.04429002 0.04569949 0.04705065 0.04832637 0.04955045 0.05072202 0.05188046 0.05302825 0.05420104 0.0554001
 0.05664569 0.05793456 0.05925089 0.06058875 0.06191121 0.06322037 0.06450127 0.06576312 0.06701856 0.06826967
 0.06952702 0.07078259 0.07203203 0.0732706 0.07449128 0.0757017 0.07690205 0.07810481 0.07931513 0.08053374
 0.08176326 0.08299068 0.08421391 0.08543148 0.08664248 0.08786731 0.08910666 0.09037197 0.09166054 0.09295421
 0.09425065 0.09552902 0.09679137 0.09803437 0.09925726 0.1004578 0.1016328 0.1027752 0.1038894 0.1049751
 0.1060442 0.1071036 0.1081646 0.1092334 0.1103184 0.1114246 0.1125509 0.1136997 0.1148571 0.1160211
 0.1171852 0.1183483 0.1195227 0.1207087 0.1219116 0.1231287 0.1243394 0.12554 0.1267025 0.127827
 0.1288971 0.1299192 0.1308943 0.1318377 0.1327696 0.1337039 0.1346651 0.1356466 0.1366532 0.1376701
 0.1386877 0.1397118 0.1407421 0.1417857 0.1428484 0.1439053 0.1449545 0.1459714 0.1469528 0.1479177
 0.1488673 0.1498323 0.1508105 0.1517961 0.152784 0.153746 0.1546819 0.1555757 0.1564324 0.1572529
 0.1580458 0.1588231 0.1595932 0.160371 0.161153 0.161942 0.1627301 0.1635107 0.1642933 0.1650782
 0.1658801 0.1667047 0.1675432 0.1683961 0.1692453 0.1700889 0.1709285 0.1717642 0.172605 0.1734506
 0.1743026 0.175163 0.1760427 0.1769434 0.1778803 0.178842 0.1798154 0.1807816 0.1817055 0.1825845
 0.1833991 0.1841662 0.1848907 0.1855881 0.1862679 0.1869344 0.1875903 0.1882381 0.1888769 0.1895189
 0.1901642 0.190834 0.1915302 0.1922637 0.1930342 0.1938251 0.1946345 0.1954387 0.1962393 0.1970341
 0.1978239 0.198613 0.1993936 0.2001511 0.2008814 0.2015661 0.202223 0.2028585 0.2035018 0.2041786
 0.2048943 0.2056675 0.2064574 0.2072609 0.2080165 0.2087068 0.2093158 0.2098326 0.2103158 0.2107687
 0.2112488 0.2117572 0.2122594 0.2127489 0.2131433 0.2134514 0.2136654 0.2138138 0.2139811 0.2141831
 0.2145011 0.2149167 0.2154443 0.2160431 0.2166796 0.2173182 0.2179183 0.2184826 0.2189906 0.2194995
 0.2200195 0.2206119 0.2213011 0.2220638 0.2229095 0.223721 0.2244904 0.2251123 0.2255832 0.2259081
 0.2260962 0.2262398 0.226343 0.2264768 0.2266319 0.2268108 0.2270164 0.2272471 0.2275318 0.2279177
 0.2284075 0.2290429 0.2297489 0.2304964 0.2311932 0.2317726 0.2322444 0.2325796 0.2328904 0.2331955
 0.2335829 0.2340749 0.2346491 0.2353089 0.2359576 0.2365904 0.2371186 0.2375438 0.2378415 0.2380266
 0.2381551 0.2382499 0.2384137 0.238656 0.239056 0.2395884 0.2402618 0.2410177 0.2418044 0.2425665
 0.2432415 0.2438286 0.244299 0.2447148 0.2450863 0.2454807 0.245917 0.2464194 0.2469942 0.2476466
 0.2483767 0.2492086 0.2501432 0.2511896 0.2523402 0.2535267 0.2547294 0.2558109 0.2567604 0.2574603
 0.2579386 0.2581814 0.2582609 0.2582714 0.2582847 0.2584226 0.2586832 0.259127 0.2596498 0.2602317
 0.2607314 0.2610945 0.261249 0.2611558 0.2608655 0.2603705 0.2598031 0.2591732 0.2585898 0.2580578
 0.257591 0.2571848 0.256791 0.25641 0.256016 0.255619 0.2552409 0.2548839 0.2545721 0.2542798
 0.2539898 0.253648 0.2531963 0.252583 0.2517436 0.2506854 0.2493758 0.2479104 0.2463017 0.2446803
 0.2430784 0.2415734 0.2401851 0.2389133 0.2377616 0.2366876 0.2356887 0.2347029 0.233727 0.2327014
 0.2316332 0.2305218 0.2293885 0.2283058 0.2272789 0.2263686 0.2255343 0.224748 0.223954 0.2230736
 0.222104 0.2210003 0.2198361 0.2186251 0.217469 0.2164078 0.2154948 0.2147612 0.2141586 0.213695
 0.2132324 0.2127613 0.2121518 0.2113977 0.2104824 0.2094154 0.2082939 0.2071293 0.2060364 0.2050126
 0.2041127 0.2033219 0.2026369 0.2020377 0.201496 0.2009877 0.2004783 0.1999476 0.1993675 0.1987387
 0.1980491 0.197325 0.1965701 0.1958189 0.1950808 0.1943742 0.1937051 0.1930652 0.1924552 0.1918511
 0.1912515 0.1906358 0.1900039 0.1893482 0.1886695 0.1879683 0.1872465 0.186509 0.18576 0.1850109
 0.1842658 0.1835381 0.1828237 0.1821265 0.1814316 0.1807307 0.1800085 0.1792533 0.1784644 0.1776363
 0.1767844 0.1759098 0.1750332 0.1741577 0.1732982 0.1724565 0.1716374 0.1708413 0.170064 0.1693051
 0.1685584 0.1678241 0.167101 0.1663883 0.1656854 0.1649878 0.1642857 0.1635727 0.1628331 0.162068
 0.1612687 0.1604497 0.1596144 0.1587912 0.1579911 0.1572507 0.1565862 0.1560154 0.1555544 0.1551584
 0.1548316 0.1544664 0.1540541 0.1535026 0.1528069 0.1519745 0.1510141 0.1500314 0.1490381 0.1481584
 0.1473885 0.1467902 0.1463312 0.1459778 0.1456787 0.1453354 0.1449218 0.1443547 0.1436801 0.1428912
 0.1420829 0.1413069 0.1406121 0.1400413 0.1395494 0.1391369 0.1387402 0.138343 0.1379585 0.1375829
 0.1372892 0.1370811 0.1369907 0.1370119 0.1370786 0.1371763 0.1371859 0.1371046 0.1368512 0.1364506
 0.1359128 0.135281 0.1346302 0.1339862 0.133414 0.1328996 0.1324547 0.132055 0.1316844 0.131351
 0.1310525 0.1308075 0.1306276 0.1304817 0.1303713 0.1302304 0.1300506 0.1298186 0.1295335 0.1292627
 0.12901 0.128844 0.1287584 0.1287525 0.1288131 0.1288924 0.1289847 0.1290514 0.129096 0.1291076
 0.1290901 0.129047 0.1289712 0.1288648 0.1287001 0.1284664 0.1281316 0.1276739 0.1271093 0.1264242
 0.1257114 0.1249783 0.124335 0.1237963 0.1233848 0.1231025 0.1228554 0.1226363 0.1223233 0.1219211
 0.1213903 0.1207539 0.1200724 0.1193659 0.118717 0.1181195 0.1176055 0.117148 0.1167295 0.1163255
 0.11591 0.1154736 0.1150019 0.1145022 0.1139701 0.1134314 0.1128899 0.1123755 0.1118972 0.1114464
 0.1110266 0.1105787 0.1100995 0.1095449 0.1089184 0.1082578 0.1075726 0.1069459 0.1063712 0.1058749
 0.1054299 0.1049812 0.104515 0.1039737 0.1033825 0.1027428 0.1020957 0.1014768 0.1009041 0.1003995
 0.09995855 0.09958303 0.09927293 0.09902749 0.09885339 0.09875393 0.0987166 0.09874323 0.09878656 0.09884417
 0.09884892 0.09879834 0.09864184 0.09838481 0.09802998 0.0975939 0.09713572 0.09667411 0.09628511 0.09597485
 0.09579024 0.0957223 0.09577956 0.09594899 0.09622246 0.0965917 0.09705072 0.09759264 0.09821593 0.09890638
 0.09966136 0.1004641 0.1013091 0.1022017 0.1031384 0.1041704 0.1053002 0.1066078 0.1080953 0.1098115
 0.111747 0.1138717 0.116166 0.118542 0.1209861 0.1234182 0.1258417 0.1282247 0.1305802 0.1329115
 0.1352298 0.1375436 0.1398657 0.1422009 0.1445733 0.1469912 0.1494794 0.15205 0.1546945 0.1574201
 0.1601652 0.1629281 0.1656123 0.1682122 0.1706277 0.1728534 0.1747979 0.1764569 0.1777524 0.1786917
 0.1792447 0.1794541 0.1793889 0.179139 0.1788755 0.1786985 0.1788002 0.1792177 0.1800633 0.1812767
 0.1828661 0.184729 0.1868259 0.1890961 0.1915122 0.1940682 0.1967599 0.1995855 0.2025466 0.2056145
 0.2087876 0.21202 0.2153096 0.2186172 0.2219454 0.2252878 0.2286578 0.2321015 0.2356339 0.2393301
 0.2431631 0.2471651 0.2511832 0.2551261 0.2586298 0.2614451 0.2630456 0.2630719 0.2611717 0.2570291
 0.2509023 0.2426778 0.2332684 0.2227541 0.2122297 0.2018192 0.1922582 0.1836039 0.1760413 0.1695592
 0.1639636 0.1592252 0.1550585 0.1514485 0.1481906 0.1452787 0.1425993 0.1401407 0.1378326 0.1356657
 0.1335961 0.1316357 0.1297756 0.1280441 0.1264569 0.1250281 0.1237719 0.1226718 0.1217279 0.1209148
 0.1202261 0.1196583 0.1192081 0.1189015 0.1187395 0.1187532 0.1189414 0.1192894 0.1197831 0.1203234
 0.1208861 0.1213193 0.1216178 0.1216767 0.1215391 0.1212182 0.1207957 0.1203706 0.1200224 0.1198502
 0.1199037 0.1202378 0.1208765 0.1218378 0.1231456 0.1248025 0.1268605 0.1293275 0.1322594 0.1356788
 0.1394621 0.1436132 0.1475352 0.1511696 0.1534302 0.1542668 0.1527254 0.1489498 0.1429155 0.1349883
 0.1260778 0.1165295 0.1074062 0.09880576 0.09131397 0.08478457 0.07930858 0.07465564 0.07071678 0.06731855
 0.06436579 0.0617641 0.05947323 0.05743203 0.05562632 0.05400484 0.05256121 0.05125499 0.05008337 0.04901052
 0.04803427 0.04711623 0.04625441 0.04541497 0.04459913 0.04379169 0.04299946 0.04223142 0.0414963 0.0408162
 0.04019054 0.03963294 0.039124 0.03865603 0.03819867 0.03773012 0.03723661 0.03670082 0.03614636 0.03557159
 0.03502268 0.03450895 0.03405425 0.03366568 0.03331737 0.03300868 0.03269045 0.03236147 0.03200161 0.03161493
 0.03122312 0.03082807 0.03045254 0.03008793 0.02972335 0.0293489 0.02893692 0.0284939 0.02801214 0.02751407
 0.02701575 0.02653722 0.02609643 0.02569961 0.02535482 0.02505763 0.02481074 0.02459716 0.02441723 0.02423702
 0.02405334 0.02383419 0.02357665 0.02327933 0.02294336 0.02259537 0.02223697 0.02189293 0.02156191 0.02125113
 0.02095896 0.02068481 0.02042733 0.02018504 0.01995378 0.01972759 0.01950351 0.01927381 0.01904733 0.01882437
 0.01862309 0.01845297 0.01831869 0.01822874 0.01815624 0.01810058 0.01801901 0.01790545 0.017741 0.017523
 0.01727416 0.01699631 0.01672843 0.01647044 0.01624049 0.01603425 0.01584286 0.01566279 0.01547858 0.01529199
 0.01509777 0.01490232 0.01471143 0.01453147 0.01437233 0.01423076 0.01411186 0.01399612 0.01387879 0.01373578
 0.01355726 0.01333817 0.01307292 0.012782 0.01246626 0.01215174 0.01184048 0.01154429 0.01126331 0.01099525
 0.01073965 0.01049201 0.0102524 0.01001913 0.009791769 0.009568196 0.009348057 0.00912865 0.00891271 0.008701898
 0.008501094 0.008316811 0.008147409 0.007996957 0.007851457 0.007707158 0.007548282 0.007367427 0.007165513 0.006939303
 0.006706915 0.006469779 0.006245539 0.006035811 0.005844196 0.005670598 0.005509459 0.005361036 0.005224682 0.005101901
 0.004999971 0.004918103 0.004860322 0.004819154 0.004784069 0.004743757 0.004677928 0.00458191 0.00444124 0.004265024
 0.004052225 0.003820734 0.003577368 0.003337247 0.003106843 0.002891342 0.002693639 0.002509755 0.00233993 0.002176529
 0.002019034 0.001861436 0.001703569 0.00154397 0.001383038 0.001223151 0.001065045 0.0009134739 0.0007684195 0.0006331186
 0.0005051887 0.0003824155 0.0002603453 0.0001316172 -5.501105E-06 -0.0001567745 -0.0003174434 -0.0004875032 -0.0006578737 -0.0008247257
 -0.0009812709 -0.001123841 -0.001253145 -0.001367668 -0.001475855 -0.001577949 -0.001686696 -0.001803038 -0.001936601 -0.002087557
 -0.002255284 -0.00243833 -0.002624427 -0.002811786 -0.002984908 -0.003144919 -0.003285692 -0.003412397 -0.003532145 -0.003649497
 -0.003774856 -0.003907078 -0.004049667 -0.004197634 -0.004348227 -0.004499558 -0.004649504 -0.004799974 -0.004951432 -0.005104015
 -0.005258118 -0.005411599 -0.005564016 -0.005716042 -0.005867619 -0.006021693 -0.006178281 -0.006336118 -0.006494525 -0.006646761
 -0.006792665 -0.006927407 -0.007052443 -0.007169319 -0.007279941 -0.007388892 -0.007497164 -0.007607809 -0.007721798 -0.007841071
 -0.007966246 -0.008098673 -0.008237151 -0.008381761 -0.008530211 -0.008681689 -0.008835406 -0.008991421 -0.009147331 -0.009303476
 -0.009451655 -0.009591325 -0.009714534 -0.009821208 -0.009915504 -0.009998925 -0.01008687 -0.01018014 -0.01029139 -0.01041857
 -0.01056279 -0.01072034 -0.01088454 -0.01105196 -0.0112151 -0.01137173 -0.01151663 -0.01165022 -0.01177036 -0.01188118
 -0.01198364 -0.0120825 -0.01217974 -0.01227684 -0.01237486 -0.01247142 -0.0125663 -0.01265774 -0.01274538 -0.01283234
 -0.01291887 -0.01301285 -0.01311437 -0.01322834 -0.01335309 -0.0134838 -0.01361764 -0.01374312 -0.01385975 -0.01395972
 -0.0140472 -0.014124 -0.0141963 -0.01427143 -0.01435136 -0.01444135 -0.01453543 -0.0146332 -0.01472542 -0.01480836
 -0.0148796 -0.01493656 -0.01498806 -0.01503445 -0.01508739 -0.01514804 -0.01521961 -0.01530211 -0.01539007 -0.0154833
 -0.01557751 -0.01567363 -0.01577415 -0.01587951 -0.01599324 -0.01611302 -0.01623621 -0.01635945 -0.01647586 -0.01658614
 -0.01668698 -0.01678449 -0.01688171 -0.0169837 -0.01709525 -0.01721231 -0.017336 -0.01745546 -0.01756813 -0.01766905
 -0.01775604 -0.0178378 -0.01791455 -0.01800008 -0.01809489 -0.01820192 -0.01831994 -0.01843782 -0.0185546 -0.0186588
 -0.01875257 -0.018836 -0.01891273 -0.01899077 -0.01907161 -0.01916149 -0.01925871 -0.01936447 -0.01947493 -0.01958846
 -0.01969989 -0.01980628 -0.01990465 -0.01999234 -0.02007326 -0.02014691 -0.02022234 -0.0203009 -0.02038713 -0.02048175
 -0.0205818 -0.0206871 -0.02079304 -0.02089955 -0.02100453 -0.02110752 -0.02120525 -0.02129687 -0.02137736 -0.02144776
 -0.02150703 -0.02155853 -0.02160704 -0.0216542 -0.02170432 -0.02175504 -0.02180587 -0.02185511 -0.02190078 -0.02194622
 -0.02199166 -0.02204196 -0.02209871 -0.02216195 -0.02223229 -0.02230534 -0.02238081 -0.02245542 -0.02252905 -0.02260204
 -0.02267445 -0.02274713 -0.02281953 -0.0228893 -0.02295559 -0.02301387 -0.02306502 -0.02310776 -0.02314562 -0.02318343
 -0.02322353 -0.02327151 -0.02332391 -0.02338106 -0.02343603 -0.02348512 -0.02352544 -0.02355418 -0.02357541 -0.02358885
 -0.02360217 -0.02361627 -0.02363797 -0.02366818 -0.02370717 -0.02375484 -0.02380121 -0.02384559 -0.02387632 -0.02389478
 -0.02390146 -0.02389984 -0.02390223 -0.02390916 -0.02392915 -0.02395758 -0.02399104 -0.02402572 -0.02405489 -0.02408119
 -0.02410374 -0.02412771 -0.02415623 -0.02418959 -0.02422947 -0.02427087 -0.02431293 -0.0243522 -0.02438771 -0.02442065
 -0.02445104 -0.02448015 -0.02450804 -0.02453341 -0.02455647 -0.0245784 -0.02460055 -0.02463029 -0.02466946 -0.02472791
 -0.02480667 -0.02491233 -0.02504632 -0.02521259 -0.02541482 -0.02565717 -0.02594579 -0.02628581 -0.02668315 -0.02714242
 -0.02766539 -0.02825508 -0.02890489 -0.02961463 -0.03037414 -0.0311813 -0.03203523 -0.03293577 -0.03388502 -0.03488249
 -0.03588311 -0.03687676 -0.03773759 -0.03845269 -0.03888132 -0.03903054 -0.03884273 -0.03834677 -0.03756591 -0.03655583
 -0.03539542 -0.03417076 -0.03300125 -0.03194589 -0.03109004 -0.03044093 -0.03002561 -0.02982908 -0.02985696 -0.03007208
 -0.03047987 -0.03097733 -0.03155927 -0.03207096 -0.03249577 -0.0327682 -0.03288503 -0.03290142 -0.03282118 -0.03270377
 -0.03254884 -0.03238382 -0.03220801 -0.03203447 -0.03186122 -0.0316908 -0.03151993 -0.03134463 -0.03116253 -0.03097019
 -0.03076447 -0.03054206 -0.0303009 -0.03003749 -0.02975741 -0.02945985 -0.02915854 -0.02885534 -0.02856668 -0.02829502
 -0.02805351 -0.02784401 -0.02766829 -0.02752641 -0.02740508 -0.02730344 -0.02720686 -0.02711656 -0.02703174 -0.02695462
 -0.02689328 -0.02684691 -0.02681855 -0.02680439 -0.02679994 -0.02680184 -0.0268048 -0.02680684 -0.02680484 -0.02679801
 -0.0267848 -0.0267665 -0.02674264 -0.02671718 -0.02669071 -0.0266676 -0.02664868 -0.02663616 -0.0266304 -0.02663166
 -0.02663999 -0.02665686 -0.02668246 -0.02671977 -0.0267684 -0.02682842 -0.02689794 -0.02697069 -0.0270447 -0.02711146
 -0.02717237 -0.02722513 -0.02727378 -0.02732251 -0.02737254 -0.02742759 -0.02748285 -0.02753748 -0.02758495 -0.02762207
 -0.0276478 -0.02766017 -0.02766599 -0.02766542 -0.02766872 -0.02767698 -0.02769559 -0.02772488 -0.02776191 -0.02780621
 -0.02785087 -0.02789575 -0.0279365 -0.02797348 -0.02800563 -0.02803347 -0.02805743 -0.0280784 -0.02809778 -0.02811675
 -0.02813739 -0.02815963 -0.02818451 -0.02821025 -0.02823656 -0.02826053 -0.02828114 -0.0282962 -0.02830458 -0.02830754
 -0.02830448 -0.02830166 -0.02829947 -0.02830481 -0.02831808 -0.02833982 -0.02836953 -0.02840081 -0.0284333 -0.02846138
 -0.02848581 -0.02850651 -0.02852405 -0.02854021 -0.02855415 -0.02856498 -0.02857284 -0.02857642 -0.0285796 -0.02858465
 -0.02859545 -0.02861621 -0.02864311 -0.02867725 -0.02870784 -0.02873214 -0.02874415 -0.02874135 -0.02872998 -0.02870998
 -0.02869305 -0.02867986 -0.02867724 -0.02868508 -0.0287037 -0.02873246 -0.02876817 -0.02880956 -0.02885092 -0.02889018
 -0.02891924 -0.02893789 -0.02894079 -0.02893249 -0.02891497 -0.02889561 -0.02888132 -0.02887532 -0.0288826 -0.0288987
 -0.02892371 -0.02895077 -0.02897765 -0.02900289 -0.02902554 -0.02904863 -0.02907256 -0.02909703 -0.02912206 -0.02914082
 -0.02915296 -0.02915144 -0.02913723 -0.029112 -0.02907852 -0.02904769 -0.02902155 -0.02901129 -0.0290152 -0.02903657
 -0.02907004 -0.02911113 -0.02915445 -0.02919401 -0.02922754 -0.02925148 -0.02926807 -0.02927659 -0.02928275 -0.02928772
 -0.02929626 -0.02930993 -0.02932673 -0.02934697 -0.02936337 -0.02937551 -0.02937983 -0.02937671 -0.02937135 -0.02936462
 -0.02936493 -0.02937173 -0.02938815 -0.02941169 -0.02943806 -0.02946486 -0.02948536 -0.02950037 -0.02950731 -0.02951023
 -0.02951181 -0.02951426 -0.02952063 -0.02952764 -0.02953482 -0.02953899 -0.02953828 -0.02953633 -0.02953301 -0.0295352
 -0.02954387 -0.02956017 -0.02958428 -0.02961093 -0.0296398 -0.02966487 -0.02968616 -0.02970051 -0.02970849 -0.02971022
 -0.02970675 -0.02970061 -0.02969271 -0.02968579 -0.02968025 -0.02967757 -0.02967796 -0.02968228 -0.02968976 -0.0297006
 -0.02971257 -0.02972489 -0.02973595 -0.02974484 -0.02975268 -0.0297594 -0.02976704 -0.02977585 -0.02978691 -0.02980031
 -0.02981731 -0.02983801 -0.02986391 -0.02989471 -0.02992931 -0.02996687 -0.03000359 -0.03003884 -0.03006917 -0.03009434
 -0.03011222 -0.03012338 -0.03012717 -0.0301258 -0.03012057 -0.03011417 -0.03010882 -0.03010482 -0.0301027 -0.03010263
 -0.03010397 -0.03011104 -0.03012433 -0.03014842 -0.03018446 -0.03022773 -0.0302781 -0.03032407 -0.03036542 -0.03039729
 -0.03042084 -0.03044193 -0.03046104 -0.03048381 -0.03050822 -0.03053158 -0.03055297 -0.03056842 -0.0305809 -0.0305926
 -0.03060569 -0.03062418 -0.03064443 -0.03066556 -0.03068398 -0.03069625 -0.03070846 -0.03072072 -0.03074303 -0.03077827
 -0.03082486 -0.03088384 -0.03094149 -0.03099701 -0.0310412 -0.03107432 -0.03110067 -0.03112099 -0.03114298 -0.03116562
 -0.03118902 -0.03121184 -0.03122967 -0.03124438 -0.03125644 -0.03127019 -0.03129186 -0.03132214 -0.03136532 -0.03141564
 -0.03147159 -0.03152623 -0.03157558 -0.03161924 -0.03165555 -0.03168967 -0.03172236 -0.0317569 -0.03179405 -0.03183186
 -0.0318703 -0.03190625 -0.03193979 -0.0319723 -0.03200427 -0.03204013 -0.03207938 -0.03212302 -0.03216859 -0.03221019
 -0.03224595 -0.03226862 -0.03228086 -0.03228178 -0.03227798 -0.03227462 -0.03227687 -0.03229006 -0.03231354 -0.03234928
 -0.03239146 -0.03243946 -0.032486 -0.03252975 -0.03256556 -0.03259253 -0.03260972 -0.03261697 -0.03261698 -0.03261004
 -0.03260124 -0.03259107 -0.03258579 -0.03258515 -0.0325921 -0.03260484 -0.03262003 -0.0326363 -0.03264874 -0.03265928
 -0.03266793 -0.03267799 -0.03269306 -0.03271294 -0.03273971 -0.03276823 -0.03279752 -0.03282119 -0.03283718 -0.03284214
 -0.03283454 -0.03281702 -0.03278917 -0.03275959 -0.03272874 -0.03270713 -0.03269507 -0.03269817 -0.03271543 -0.03274281
 -0.03277827 -0.03281097 -0.03284066 -0.03286001 -0.03287258 -0.03288133 -0.03288981 -0.03290524 -0.03292511 -0.03295094
 -0.03297584 -0.03299544 -0.03300736 -0.0330083 -0.03300325 -0.03299272 -0.03298208 -0.03297266 -0.03296592 -0.03296235
 -0.03296059 -0.03296059 -0.03295979 -0.03295813 -0.03295466 -0.03294987 -0.03294699 -0.03294634 -0.03295141 -0.03296132
 -0.03297566 -0.03299319 -0.03301161 -0.03302964 -0.03304531 -0.03305608 -0.03305865 -0.03305269 -0.03303541 -0.03301327
 -0.03298789 -0.03296604 -0.03295135 -0.03294052 -0.03293458 -0.03292242 -0.03290263 -0.03286965 -0.03282274 -0.03276905
 -0.03270926 -0.03265723 -0.03261315 -0.03258562 -0.03257294 -0.03257264 -0.03258276 -0.03259608 -0.03261311 -0.03263147
 -0.03265214 -0.03267685 -0.0327021 -0.03272637 -0.03274374 -0.03274947 -0.03274231 -0.0327195 -0.03268596 -0.03264176
 -0.03259492 -0.03254655 -0.03250488 -0.03247135 -0.03244769 -0.03243434 -0.03242392 -0.03241621 -0.03240642 -0.03239585
 -0.03239264 -0.03239782 -0.03242186 -0.03246128 -0.03251355 -0.03257102 -0.03261802 -0.0326494 -0.03264968 -0.03262385
 -0.03256869 -0.03249727 -0.03241653 -0.03233664 -0.03226511 -0.03220085 -0.03214612 -0.03209262 -0.03203851 -0.03198184
 -0.03192148 -0.03186432 -0.03181069 -0.03176806 -0.03173663 -0.03171954 -0.03171585 -0.03172096 -0.03173158 -0.03173062
 -0.03171626 -0.03167145 -0.03160395 -0.03151962 -0.03142839 -0.03134823 -0.03127821 -0.03122454 -0.0311818 -0.0311478
 -0.03112016 -0.03109847 -0.03107673 -0.03105458 -0.03102023 -0.03097064 -0.03090264 -0.03081451 -0.03071568 -0.0306067
 -0.03049405 -0.03037789 -0.0302591 -0.03013802 -0.03001813 -0.02989992 -0.02978761 -0.02968101 -0.0295819 -0.02948946
 -0.02940426 -0.0293221 -0.02923872 -0.02914747 -0.02903842 -0.02891491 -0.02877309 -0.02862823 -0.02848736 -0.02835595
 -0.02823997 -0.02812613 -0.02801322 -0.02788766 -0.02774672 -0.02759135 -0.02742117 -0.02724556 -0.02706483 -0.02688343
 -0.02670002 -0.02650579 -0.02629812 -0.02605836 -0.02578956 -0.02548842 -0.02516455 -0.0248373 -0.02450781 -0.02418874
 -0.0238693 -0.02354265 -0.02320375 -0.02284371 -0.02247368 -0.02209564 -0.02172221 -0.02135917 -0.02100646 -0.02066698
 -0.02032642 -0.0199853 -0.01961218 -0.01920472 -0.01873947 -0.01821676 -0.01766319 -0.01708206 -0.01651594 -0.01596054
 -0.01541954 -0.01488433 -0.01433173 -0.0137564 -0.01313743 -0.01247181 -0.01174603 -0.01096165 -0.01011332 -0.00921028
 -0.008260525 -0.007258403 -0.006210269 -0.005080988 -0.003857032 -0.00253324 -0.001095623 0.0003819632 0.001891323 0.003381036
 0.004843936 0.006320924 0.007813627 0.009355688 0.01094138 0.01252939 0.01411935 0.01567858 0.01723101 0.01883312
 0.02049924 0.02230404 0.02419975 0.02615601 0.02811626 0.02999767 0.03182261 0.03357338 0.03530628 0.03704679
 0.03881685 0.04063019 0.04248425 0.04437128 0.04634561 0.04840294 0.05069391 0.05323309 0.05606127 0.0591718
 0.06226866 0.06533919 0.06812703 0.07067594 0.07306147 0.07532633 0.07764225 0.08001225 0.08251975 0.08516349
 0.08795387 0.09095313 0.09419415 0.09782393 0.1019527 0.1066691 0.1121083 0.1180292 0.1244388 0.1308701
 0.1372159 0.1432407 0.148883 0.1541851 0.1591399 0.163913 0.1685171 0.1732663 0.1781917 0.1837568
 0.1899096 0.1967273 0.2039722 0.2109005 0.2174805 0.2232018 0.2283613 0.2331803 0.2378736 0.2427721
 0.247867 0.2532642 0.2588647 0.2646401 0.270546 0.2765821 0.2826295 0.2886758 0.2945527 0.3002198
 0.3057344 0.3110963 0.3164132 0.3216827 0.3266687 0.3313474 0.335369 0.3387723 0.341555 0.3437918
 0.3457363 0.3473753 0.3488251 0.3499898 0.3507366 0.3511188 0.3511085 0.3508676 0.3505134 0.3501062
 0.3497218 0.3493032 0.3488542 0.3482889 0.3475915 0.3466927 0.3455828 0.3442011 0.3425395 0.340607
 0.3384059 0.3360547 0.3335552 0.3309776 0.3283057 0.3254927 0.322529 0.3193508 0.3159822 0.3124265
 0.3087531 0.3050612 0.3014095 0.2979095 0.2945396 0.2913247 0.2882125 0.285168 0.2822197 0.2793551
 0.2766733 0.2742008 0.27196 0.2699648 0.2681485 0.2665058 0.2650031 0.2636396 0.2624544 0.2614493
 0.2606641 0.260091 0.259713 0.259519 0.2594644 0.2595455 0.2597327 0.2600276 0.2604184 0.2609124
 0.2615071 0.262226 0.2630778 0.2641041 0.2653196 0.2667808 0.2685008 0.2705545 0.2729602 0.2757693
 0.2790031 0.2825887 0.2865293 0.2906177 0.2948419 0.2989639 0.3029647 0.3065796 0.3097723 0.3122011
 0.3138753 0.3146053 0.3145133 0.3137532 0.3124706 0.3109422 0.3092721 0.3076707 0.3061782 0.3048983
 0.3037918 0.3028622 0.3020783 0.3014078 0.3009398 0.3006782 0.3007664 0.3012543 0.3019726 0.3029214
 0.3037574 0.3044665 0.3049931 0.3053484 0.3056311 0.3058468 0.3060739 0.3063094 0.3065951 0.3069043
 0.3072499 0.3074771 0.3074443 0.3067845 0.3050146 0.3020411 0.2975096 0.2919138 0.2854184 0.2783585
 0.2708774 0.2631713 0.2552616 0.2475408 0.2400634 0.2331399 0.2268163 0.2210226 0.2157548 0.2107686
 0.2060612 0.2015212 0.1971652 0.1930353 0.1891252 0.1854516 0.1819637 0.1785605 0.175196 0.1717471
 0.1682187 0.1645718 0.1608183 0.1569809 0.1529797 0.1487904 0.1443096 0.1394179 0.1344281 0.1293329
 0.1247454 0.1208052 0.1174705 0.1147704 0.1122549 0.1099027 0.1074601 0.1049389 0.1023921 0.09984567
 0.09747665 0.09527367 0.09328712 0.09150278 0.08989187 0.08850189 0.08738356 0.08660555 0.08627561 0.08638745
 0.08698322 0.08799805 0.08941347 0.0911665 0.09323394 0.09556552 0.09813769 0.100968 0.104044 0.1074962
 0.1113423 0.1155802 0.1202068 0.1247224 0.1290926 0.1327341 0.1356861 0.1378641 0.1393356 0.1402833
 0.1407413 0.1408627 0.1406866 0.1403205 0.1398404 0.1393511 0.1389553 0.1387754 0.1388232 0.1391794
 0.1396587 0.1402131 0.1407053 0.1410749 0.1413656 0.1415735 0.1417687 0.1419603 0.1421495 0.1423365
 0.1424764 0.1425688 0.1425942 0.1425606 0.1425001 0.1424254 0.1423999 0.1424251 0.1425459 0.1427338
 0.1429631 0.1432116 0.1434272 0.1436568 0.1439041 0.1442615 0.1447794 0.1455115 0.1464985 0.1477133
 0.1491602 0.1507907 0.1525953 0.1545684 0.1567101 0.1590001 0.1614366 0.16388 0.1663199 0.1685786
 0.1706635 0.1725232 0.1741763 0.1756648 0.1769877 0.1781688 0.1791865 0.1800181 0.1806424 0.1810271
 0.1811617 0.1810293 0.1806232 0.1799357 0.1789647 0.1777044 0.176169 0.1743519 0.1723153 0.1700574
 0.1677076 0.1652763 0.1628831 0.1605349 0.1582511 0.1560279 0.1538201 0.151628 0.1494309 0.1472365
 0.1450672 0.1429174 0.1407934 0.1386671 0.1364994 0.1342592 0.1318943 0.1293938 0.1267221 0.1239145
 0.1209629 0.1179632 0.1149389 0.1119981 0.109177 0.1065094 0.1040136 0.1016345 0.09937016 0.09715282
 0.09497861 0.0928515 0.09077753 0.08883962 0.08704286 0.08546457 0.08409353 0.08293356 0.08196533 0.08114617
 0.08046108 0.07986861 0.07935665 0.07889787 0.07848012 0.07808638 0.07770733 0.07733303 0.07696176 0.07658931
 0.07622313 0.07586393 0.07552027 0.07519552 0.07488067 0.07457715 0.0742484 0.07389244 0.07346891 0.07297842
 0.072418 0.0717957 0.07115638 0.07051126 0.06992478 0.0694018 0.06898844 0.06867769 0.06848022 0.06838289
 0.06837597 0.06844556 0.06858145 0.06876202 0.06897797 0.06919669 0.06940544 0.06957798 0.06970314 0.06977972
 0.06980383 0.06979473 0.06975363 0.06969983 0.06963456 0.06955998 0.0694747 0.06935976 0.06921275 0.06900793
 0.068747 0.0684202 0.06803546 0.06760547 0.06714038 0.06666183 0.06617854 0.06570812 0.0652575 0.06483765
 0.06445216 0.06410656 0.06379904 0.06353106 0.06329637 0.06309453 0.06291623 0.06276037 0.06261698 0.06248491
 0.06235856 0.06223753 0.06212099 0.0620089 0.0619006 0.06179625 0.06169552 0.06160059 0.06151825 0.06145307
 0.06141929 0.06142074 0.06147075 0.06156947 0.06172327 0.06192781 0.06218277 0.06248057 0.06281731 0.0631865
 0.06358503 0.06400856 0.06445632 0.06492133 0.0654033 0.06589031 0.06638137 0.06686521 0.06734112 0.06779944
 0.06823936 0.06864756 0.06902299 0.06935145 0.06963394 0.06986618 0.07005098 0.07019415 0.07029524 0.07035807
 0.07037584 0.07034364 0.070251 0.07008851 0.06984689 0.06951825 0.06909834 0.06858253 0.06797479 0.06727328
 0.06649262 0.06563344 0.06471802 0.0637484 0.06274389 0.0617058 0.06064064 0.05954829 0.05842626 0.05727526
 0.05609787 0.05489687 0.05368385 0.05246174 0.0512432 0.05003054 0.04883267 0.04765259 0.04649752 0.04536865
 0.04427107 0.04319897 0.04215226 0.0411193 0.04009596 0.03907269 0.03804556 0.03701286 0.03597283 0.03493182
 0.03388973 0.03285826 0.03183804 0.03084386 0.02987665 0.02895235 0.02807187 0.02724941 0.02648465 0.02578456
 0.02514681 0.02456922 0.0240494 0.02358144 0.0231661 0.02280035 0.02249041 0.02223789 0.0220562 0.02195051
 0.0219408 0.02203431 0.02225125 0.02259876 0.02308682 0.02372074 0.02448774 0.02538989 0.02638209 0.02746224
 0.02856031 0.02967291 0.03073757 0.03175549 0.03270251 0.03358526 0.03441606 0.03520175 0.03596598 0.03671237
 0.03745827 0.03820381 0.03895671 0.03971355 0.04047501 0.0412347 0.0419905 0.04273282 0.04345959 0.04415502
 0.04481566 0.04542466 0.04597719 0.04647227 0.04690752 0.04730542 0.04766696 0.04802524 0.04838187 0.04876509
 0.04917601 0.04963522 0.05014434 0.05071978 0.05136469 0.052095 0.05291412 0.05383712 0.05486069 0.05599073
 0.05721106 0.05851322 0.05987383 0.06127839 0.06270681 0.0641491 0.06558853 0.06701989 0.06842741 0.0698072
 0.07115205 0.0724599 0.07373716 0.07498398 0.07621336 0.0774257 0.07862967 0.07982294 0.08099606 0.08214132
 0.08322275 0.08423414 0.08513548 0.08593813 0.08663733 0.0872639 0.08785117 0.08843233 0.08904706 0.08971559
 0.09046389 0.09128905 0.09220199 0.09316938 0.0941878 0.0952123 0.0962325 0.09723148 0.09820413 0.09916723
 0.1001214 0.101087 0.1020646 0.1030634 0.1040828 0.1051255 0.1061879 0.1072595 0.108331 0.1093737
 0.1103779 0.1113128 0.1121723 0.1129373 0.1136033 0.1141595 0.1146064 0.1149389 0.1151685 0.1152966
 0.1153418 0.1153081 0.1152137 0.1150615 0.1148688 0.1146374 0.1143819 0.1141034 0.1138106 0.1135039
 0.1131909 0.1128721 0.1125556 0.1122407 0.1119282 0.1116178 0.1113068 0.1110017 0.1107111 0.1104476
 0.1102305 0.11007 0.1099828 0.10997 0.1100405 0.1101799 0.1103899 0.1106347 0.110908 0.1111659
 0.111399 0.11158 0.1117045 0.1117603 0.1117465 0.111642 0.1114451 0.1111234 0.1106764 0.1100834
 0.1093487 0.1084778 0.1074792 0.1063777 0.1051826 0.1039219 0.1026013 0.1012386 0.09983679 0.09840264
 0.09694213 0.0954598 0.09396271 0.09245568 0.09093938 0.08941527 0.087881 0.08633576 0.08478171 0.08321904
 0.08164904 0.08007185 0.07848617 0.07689253 0.0753026 0.07371949 0.07217316 0.07066581 0.06922492 0.067846
 0.06653325 0.06527556 0.06405511 0.06286062 0.06166776 0.06047712 0.05927559 0.05808368 0.05690723 0.05577368
 0.05469816 0.05368922 0.05275663 0.0518805 0.05106229 0.05026142 0.04947537 0.04865274 0.04778989 0.04684534
 0.04581834 0.04470524 0.04351053 0.04226767 0.04098155 0.03969086 0.0383977 0.03712708 0.03588023 0.03467172
 0.03349998 0.03237078 0.03127626 0.03021178 0.02916946 0.02814267 0.02712819 0.02612481 0.02512429 0.02412715
 0.02311173 0.02207531 0.02099307 0.01986073 0.0186711 0.01742242 0.01613868 0.01482199 0.01351896 0.01223169
 0.0109993 0.009818988 0.008699732 0.007636698 0.006619461 0.005648307 0.004717834 0.003832585 0.002996971 0.0022131
 0.001485419 0.0008117306 0.0001922276 -0.000376347 -0.0008958807 -0.001366421 -0.001788983 -0.00215968 -0.002476915 -0.002743943
 -0.002959171 -0.003144199 -0.003300114 -0.003453995 -0.00360667 -0.003766789 -0.00393314 -0.00409882 -0.00426371 -0.004424834
 -0.00458091 -0.004729351 -0.004862816 -0.004965085 -0.005032369 -0.005047042 -0.005025362 -0.004970654 -0.004915352 -0.004881092
 -0.004890336 -0.004962768 -0.005090467 -0.005279976 -0.005496455 -0.005736531 -0.00595849 -0.006156636 -0.006304281 -0.00639861
 -0.006434272 -0.006411254 -0.006335182 -0.006206293 -0.006028852 -0.005802581 -0.005527831 -0.005205452 -0.004836165 -0.004425476
 -0.003982101 -0.003517073 -0.003049332 -0.00258572 -0.002143536 -0.001712067 -0.001291872 -0.00086402 -0.0004156437 4.725772E-05
 0.0005326204 0.0009970925 0.001435475 0.001800919 0.002084434 0.002279366 0.002383072 0.002431348 0.002426316 0.002412995
 0.002392434 0.002392645 0.002412596 0.002462441 0.002540897 0.002649826 0.002787784 0.002953434 0.003144076 0.00335645
 0.003585575 0.003826483 0.004072755 0.004317831 0.004561062 0.004797633 0.005040482 0.005291164 0.005567103 0.005874193
 0.006210592 0.006579369 0.006951571 0.007325593 0.007669868 0.007983441 0.008261706 0.008507188 0.008740786 0.008964713
 0.009200609 0.009448014 0.009716069 0.01000494 0.0103191 0.01065917 0.01103033 0.0114255 0.01184246 0.0122663
 0.01268597 0.01309326 0.01348017 0.01384983 0.0142026 0.01453711 0.01485396 0.01514589 0.01541044 0.01565777
 0.01588762 0.0161293 0.01638394 0.01666556 0.01697182 0.01728608 0.01760625 0.0179117 0.01820622 0.01848936
 0.01876846 0.01905913 0.01936443 0.01969844 0.02005241 0.02042564 0.02080096 0.02116401 0.02151229 0.02183515
 0.02215824 0.02248573 0.0228461 0.02324878 0.023694 0.0241848 0.02470078 0.02524069 0.02578688 0.02633867
 0.02689043 0.02744338 0.02800638 0.02858122 0.02918292 0.02980871 0.03045935 0.03112801 0.03180015 0.03247302
 0.03313785 0.03379011 0.03442724 0.03503012 0.03558481 0.03607861 0.03649333 0.03685889 0.0371752 0.03749604
 0.03783572 0.03821211 0.03863347 0.03906879 0.03951671 0.03994218 0.04034394 0.04071829 0.04106734 0.04141105
 0.04175043 0.04210176 0.04246247 0.04283257 0.04321066 0.04359268 0.04398119 0.04438045 0.04478604 0.04519853
 0.04560282 0.04598577 0.04634703 0.04667676 0.04700333 0.04733396 0.04768981 0.04808167 0.04848997 0.0489154
 0.04932227 0.0497072 0.05005558 0.05036698 0.05064946 0.05090523 0.05115678 0.05140965 0.05170206 0.05204131
 0.05247154 0.05299387 0.05363619 0.05438538 0.05523967 0.05617077 0.05715193 0.05815421 0.05914981 0.06012053
 0.06105679 0.06192668 0.0627274 0.06339177 0.06390361 0.06422211 0.06432919 0.06429497 0.06411926 0.06394693
 0.0637851 0.06374015 0.06381047 0.06401996 0.06435904 0.06479466 0.06531411 0.0658605 0.06642523 0.06696121
 0.067469 0.06793123 0.06834616 0.0687099 0.06900869 0.06923109 0.06936954 0.06941204 0.06937731 0.06926403
 0.06911111 0.06892379 0.06874755 0.06858891 0.06848352 0.06843627 0.06844588 0.06851206 0.06860347 0.06872036
 0.06885353 0.06900736 0.06920352 0.06943876 0.0697168 0.07002562 0.07034095 0.0706538 0.07094186 0.07119598
 0.07139844 0.07154451 0.07161611 0.07164486 0.07162941 0.07164466 0.07172247 0.07188106 0.07214736 0.07241572
 0.07267289 0.07285365 0.07294797 0.07297687 0.07294124 0.07287084 0.0727675 0.07266037 0.07255115 0.07246742
 0.07240398 0.07235986 0.07232591 0.07227954 0.07221995 0.07213586 0.07202996 0.07190177 0.07175151 0.07157582
 0.07138675 0.07118604 0.07099605 0.07082554 0.07068503 0.07057884 0.07050927 0.07047743 0.07048381 0.0705305
 0.07058498 0.07064527 0.07064145 0.0705718 0.07039091 0.07010598 0.06973165 0.06927773 0.06878409 0.06825639
 0.06772606 0.067196 0.06668652 0.06619134 0.06571189 0.06524012 0.06476215 0.06430192 0.06386193 0.06348489
 0.06319042 0.06298552 0.06287956 0.0628462 0.06288408 0.06296272 0.06308016 0.06319928 0.06331819 0.06342307
 0.06351879 0.06365941 0.06384994 0.06415376 0.06455597 0.06504247 0.06559046 0.06613827 0.06668086 0.06718086
 0.06764826 0.06807502 0.06848718 0.06889383 0.06934119 0.06985733 0.07046349 0.07118332 0.07197625 0.07283885
 0.07372577 0.07462519 0.07554793 0.07649332 0.07748524 0.07852471 0.07958905 0.08067346 0.08171749 0.08271153
 0.08357317 0.08429139 0.08477687 0.08504271 0.08506119 0.08488353 0.08457775 0.08418474 0.08378654 0.08336802
 0.08294598 0.08249141 0.08198417 0.08144007 0.08085452 0.08026979 0.07969664 0.07915531 0.07865346 0.0781756
 0.07772207 0.07726181 0.0767932 0.076307 0.07580473 0.07530568 0.07480812 0.07431372 0.07381493 0.07328174
 0.07271906 0.07211948 0.07150019 0.07089043 0.07028832 0.06970678 0.06912854 0.0685381 0.06794453 0.06734468
 0.06676295 0.06621457 0.06568281 0.0651727 0.06463119 0.0640493 0.06340061 0.06267861 0.06191611 0.06111462
 0.06034145 0.05959783 0.05892154 0.05830291 0.05770537 0.05711744 0.05647079 0.05578011 0.05503715 0.05428166
 0.05357756 0.0529439 0.05243497 0.05203029 0.0517364 0.05151538 0.05135525 0.05120491 0.05104609 0.05083278
 0.05054131 0.0501979 0.0497945 0.04943062 0.04911646 0.04889995 0.04878427</values></Ydata></AB><ScSm><Ydata ylabel="Single channel"><values byteorder="INTEL" format="FLOAT32" numvalues="1814"> 0.07202441 0.07204407 0.07212101 0.07227533 0.07248117 0.07268024 0.07282334 0.07290246 0.07293424 0.07292201
 0.07286744 0.07281926 0.07286447 0.07304492 0.0732995 0.07350209 0.07356162 0.07350514 0.0734655 0.07354829
 0.07368879 0.07367335 0.07334262 0.0727734 0.07222696 0.07190836 0.07183959 0.07201453 0.07252795 0.07332476
 0.07391722 0.07373297 0.07283373 0.0719533 0.07168227 0.07189973 0.07211344 0.07203063 0.07165302 0.07116503
 0.07097675 0.07160898 0.07317868 0.07498105 0.07574564 0.07443693 0.07099326 0.06655867 0.06306256 0.06218818
 0.06418598 0.06753118 0.07006607 0.07072294 0.07003681 0.06905036 0.06819101 0.06741013 0.06691186 0.06718908
 0.06834359 0.06963129 0.06984847 0.06835993 0.06585212 0.06384666 0.06331424 0.06406558 0.06556036 0.06749577
 0.06898542 0.06809349 0.06373809 0.05809564 0.05562717 0.0588368 0.06560029 0.07124606 0.07271245 0.07025822
 0.06609885 0.06257126 0.06126072 0.06257565 0.06566637 0.06912936 0.07185991 0.07311003 0.07230371 0.0695361
 0.06606124 0.06368389 0.06365059 0.06616139 0.07032923 0.07426234 0.07592604 0.07464676 0.07155679 0.06839605
 0.06636994 0.06616466 0.06811699 0.07186089 0.07629988 0.08024582 0.08290872 0.08397803 0.08368442 0.0826505
 0.08141624 0.08035511 0.0800095 0.08075468 0.08191837 0.08203753 0.0804542 0.07819356 0.07690389 0.07714745
 0.07795268 0.07799678 0.07694629 0.07523243 0.07273316 0.06874777 0.06359695 0.05905485 0.05657307 0.05617042
 0.05748611 0.06035008 0.06354675 0.0647412 0.06303865 0.06061611 0.06056312 0.06358396 0.06763688 0.0704214
 0.07150208 0.07214721 0.07369746 0.07619749 0.07821632 0.07792631 0.07491885 0.07122694 0.0698853 0.07194982
 0.07548259 0.07793537 0.07883768 0.07951645 0.08077884 0.08166099 0.08043275 0.07665212 0.07226853 0.07041831
 0.07269293 0.07754533 0.08141556 0.08137201 0.07708205 0.07087459 0.0659221 0.06404941 0.06523997 0.06884086
 0.07428133 0.08045182 0.08540588 0.08744821 0.08637704 0.08338445 0.07970171 0.07547332 0.07039035 0.06554067
 0.06364281 0.06647487 0.07259589 0.07854259 0.08191942 0.08259656 0.08137199 0.07850373 0.07391198 0.06855267
 0.06487567 0.06493831 0.0679353 0.07064313 0.07079073 0.06913026 0.06779131 0.06761667 0.06784456 0.06773271
 0.06760818 0.06829366 0.06993255 0.07166776 0.07247581 0.07210358 0.07111251 0.07021518 0.06963503 0.06895687
 0.06771457 0.06631056 0.06598777 0.06747055 0.0699698 0.07199536 0.07285324 0.0729008 0.07256807 0.07161315
 0.06949219 0.06640238 0.0637162 0.06297423 0.06439476 0.06673086 0.06856909 0.06934883 0.06922893 0.06857896
 0.06773271 0.06687875 0.06610204 0.06560473 0.06566274 0.06622357 0.06681749 0.0670273 0.06682624 0.06636664
 0.0656866 0.06476888 0.06375019 0.06292881 0.0625506 0.06261812 0.06293026 0.06326956 0.06347983 0.06341998
 0.06301086 0.06235323 0.06166827 0.06109489 0.06064259 0.06032441 0.06019966 0.06025724 0.0603608 0.06036204
 0.06022 0.05997992 0.05968107 0.05932775 0.05893011 0.05853727 0.05822581 0.05805065 0.05798702 0.05793912
 0.05784434 0.05773918 0.05766907 0.05757688 0.05736267 0.05702844 0.05668619 0.05643369 0.05627753 0.0561634
 0.05602873 0.05581793 0.0554847 0.05502952 0.05455178 0.05421926 0.05413654 0.05426088 0.05446766 0.054652
 0.05474697 0.05471768 0.05458582 0.05441256 0.05422547 0.05399721 0.05370802 0.05340113 0.05317011 0.05309324
 0.05316326 0.05328424 0.05335388 0.05333513 0.05324535 0.05312199 0.05301221 0.05294285 0.0528817 0.05277124
 0.05260738 0.05244864 0.05234915 0.05230827 0.05227862 0.05221178 0.05210702 0.0520127 0.05196756 0.05195749
 0.05194533 0.05191877 0.05188807 0.05185342 0.05179168 0.0516756 0.0515091 0.05134006 0.05122057 0.05115634
 0.05111428 0.05107196 0.05103457 0.05100922 0.05098599 0.05094546 0.05087638 0.05078602 0.05068926 0.05058506
 0.05045728 0.05030487 0.05015396 0.05002986 0.04993048 0.04983429 0.04972412 0.04959853 0.04946539 0.04932852
 0.04918354 0.04902555 0.04885365 0.04866923 0.04848229 0.04831859 0.04820111 0.04811952 0.04803289 0.04790917
 0.04775406 0.04759923 0.04746933 0.04736518 0.04727678 0.04720482 0.04716029 0.04714599 0.04715221 0.0471708
 0.04720009 0.04723675 0.04728019 0.04734908 0.04747593 0.04767344 0.04791376 0.04815089 0.04836074 0.04855289
 0.04874729 0.04895025 0.04915617 0.04936545 0.04959263 0.04985107 0.05012732 0.05038029 0.05058097 0.05075008
 0.05093839 0.05117105 0.05142996 0.05168752 0.05193129 0.05215451 0.05235204 0.05253634 0.05273457 0.05295619
 0.05317837 0.05337501 0.0535493 0.05372769 0.05393044 0.05416042 0.05441556 0.05469856 0.05500988 0.05533659
 0.05565178 0.05592931 0.05616731 0.0564009 0.05668215 0.05703644 0.05743817 0.05783311 0.05818565 0.05850466
 0.0588248 0.05916579 0.05951699 0.05986558 0.06022587 0.06062287 0.06105264 0.06148133 0.06188495 0.0622724
 0.06266621 0.06307644 0.06349854 0.06392491 0.06435138 0.06477637 0.06519645 0.06560379 0.06599108 0.06636022
 0.06672272 0.06709145 0.06747332 0.06786302 0.06823788 0.06856988 0.06885694 0.06913455 0.06943899 0.06976403
 0.07007416 0.07035692 0.07063819 0.07094179 0.07125792 0.07156369 0.07185813 0.07216017 0.07247843 0.07279408
 0.07307145 0.07328278 0.07343024 0.07354939 0.07368618 0.07386853 0.07410302 0.07438768 0.07470813 0.07502538
 0.07529248 0.07549024 0.07563481 0.07575527 0.07588096 0.07604165 0.07625368 0.07650329 0.07675631 0.07698136
 0.07716246 0.07730946 0.07746525 0.07767966 0.07796254 0.07828188 0.07861504 0.07897435 0.07936976 0.07977674
 0.08016729 0.08055501 0.08097695 0.08143262 0.08186854 0.08223084 0.0825115 0.08273478 0.08292694 0.08312225
 0.08337347 0.08371904 0.0841416 0.08458152 0.08498949 0.0853516 0.08567178 0.08595141 0.08618927 0.08638963
 0.08656311 0.0867192 0.08686136 0.08699336 0.08712686 0.08726911 0.08740015 0.08747503 0.0874548 0.08732464
 0.08707826 0.08670489 0.08620736 0.08561876 0.08497673 0.08428181 0.08349794 0.08259536 0.08157861 0.08047101
 0.07928641 0.07802642 0.07670239 0.07535592 0.07405658 0.072879 0.0718876 0.07114848 0.07074056 0.07072024
 0.07105324 0.07158501 0.07208879 0.07235135 0.07223725 0.0717112 0.07082599 0.06968542 0.06839872 0.06705269
 0.06570707 0.06439342 0.06311017 0.06183513 0.06056579 0.05935745 0.05833183 0.05767827 0.05766566 0.05860658
 0.06070522 0.06386088 0.06762278 0.07139006 0.07470635 0.07741129 0.07957967 0.0813723 0.08293132 0.08434384
 0.08564216 0.08682383 0.08787806 0.08880028 0.08959106 0.09025151 0.09077843 0.09115994 0.09138367 0.0914592
 0.09143096 0.0913659 0.09132931 0.09135987 0.0914446 0.09150859 0.09143902 0.09112844 0.09050362 0.08952869
 0.08820131 0.08658554 0.08492591 0.08377381 0.08390315 0.08589492 0.08967255 0.09446055 0.09925152 0.1033431
 0.1065169 0.1088789 0.1106421 0.1120096 0.1131335 0.1141065 0.1149753 0.1157644 0.1164933 0.1171805
 0.117839 0.1184715 0.1190782 0.119663 0.1202292 0.1207749 0.1213 0.1218138 0.1223314 0.1228627
 0.1234046 0.1239409 0.1244563 0.1249534 0.1254454 0.1259332 0.1264027 0.1268483 0.1272836 0.127726
 0.1281829 0.1286518 0.1291188 0.1295589 0.1299526 0.1303067 0.1306508 0.13101 0.1313864 0.1317674
 0.1321433 0.1325127 0.1328767 0.1332364 0.1335958 0.1339567 0.1343086 0.1346345 0.1349311 0.1352156
 0.135511 0.1358263 0.1361524 0.136473 0.1367841 0.1371029 0.1374529 0.1378361 0.1382258 0.13859
 0.1389185 0.1392263 0.1395362 0.1398634 0.1402109 0.1405723 0.1409349 0.1412848 0.1416159 0.1419321
 0.142242 0.1425516 0.1428656 0.1431884 0.1435203 0.1438554 0.1441847 0.1445033 0.144814 0.1451271
 0.1454531 0.1457899 0.1461206 0.1464263 0.1467033 0.1469637 0.1472233 0.1474921 0.1477727 0.1480633
 0.1483606 0.1486634 0.1489715 0.149283 0.1495933 0.1498993 0.1502028 0.1505091 0.1508198 0.1511304
 0.1514356 0.1517375 0.1520435 0.1523552 0.1526656 0.1529684 0.1532653 0.1535629 0.1538641 0.154166
 0.1544639 0.1547547 0.1550428 0.1553366 0.1556405 0.1559475 0.1562472 0.1565378 0.1568288 0.1571289
 0.1574343 0.1577324 0.1580175 0.158296 0.1585765 0.1588631 0.1591592 0.1594687 0.1597877 0.1601046
 0.1604109 0.1607068 0.160995 0.1612769 0.1615556 0.1618365 0.1621224 0.1624135 0.1627085 0.1630062
 0.163303 0.1635932 0.1638738 0.1641491 0.1644278 0.164713 0.1650018 0.1652932 0.1655918 0.1659009
 0.166217 0.166531 0.1668326 0.1671161 0.1673855 0.1676514 0.1679209 0.1681938 0.1684683 0.1687447
 0.1690254 0.1693115 0.1696007 0.1698894 0.1701756 0.1704573 0.1707286 0.1709862 0.1712374 0.1714955
 0.1717657 0.1720413 0.1723114 0.172573 0.1728377 0.1731203 0.1734195 0.1737171 0.1739998 0.1742719
 0.1745423 0.1748153 0.1750942 0.1753802 0.1756681 0.1759528 0.1762359 0.1765204 0.1768064 0.1770954
 0.1773897 0.1776869 0.1779804 0.1782646 0.1785377 0.1788044 0.1790717 0.1793392 0.1796023 0.1798656
 0.1801389 0.1804209 0.1807004 0.1809714 0.1812349 0.1814945 0.1817574 0.1820265 0.1822932 0.1825506
 0.1828049 0.1830614 0.1833151 0.1835634 0.1838116 0.1840612 0.1843113 0.1845641 0.1848155 0.1850577
 0.1852968 0.1855476 0.1858089 0.1860684 0.1863249 0.1865823 0.1868361 0.1870822 0.1873197 0.1875353
 0.1876858 0.1876511 0.1871321 0.1855496 0.1820354 0.1756 0.1655228 0.1518082 0.1353457 0.1175955
 0.1000526 0.08385985 0.06969477 0.0578559 0.04841145 0.0412942 0.03635526 0.03346025 0.03259972 0.03400321
 0.03825329 0.04593575 0.05634764 0.06636161 0.0716466 0.07008556 0.06379892 0.05721246 0.0533823 0.05252238
 0.05332562 0.05467601 0.0562194 0.05815976 0.06084818 0.06438234 0.06858909 0.07345814 0.07935284 0.08654338
 0.09465104 0.1028122 0.1104269 0.1176259 0.1249677 0.1327628 0.1407489 0.148351 0.1551365 0.1610243
 0.1661915 0.1708751 0.1752395 0.179363 0.183289 0.1870217 0.1904365 0.1932431 0.1951306 0.1960073
 0.1961098 0.1958647 0.1956364 0.195589 0.1957373 0.1960557 0.1965218 0.1971136 0.1978129 0.198608
 0.1994789 0.2003921 0.2013117 0.2022077 0.2030573 0.2038485 0.2045797 0.2052509 0.2058622 0.2064176
 0.2069246 0.2073916 0.207831 0.2082544 0.2086634 0.209053 0.2094229 0.2097762 0.2101087 0.2104123
 0.2106855 0.2109359 0.2111751 0.2114142 0.2116582 0.2119024 0.2121404 0.2123734 0.2126063 0.2128412
 0.2130778 0.213316 0.2135558 0.2137948 0.2140276 0.214248 0.2144563 0.2146622 0.2148756 0.2150968
 0.2153197 0.2155423 0.2157644 0.2159813 0.2161866 0.2163803 0.2165713 0.2167728 0.2169942 0.2172325
 0.2174764 0.2177185 0.2179571 0.2181907 0.2184227 0.2186636 0.2189156 0.2191633 0.2193932 0.2196118
 0.2198291 0.2200394 0.2202313 0.22041 0.2206001 0.2208244 0.2210803 0.221339 0.2215755 0.2217923
 0.2220072 0.2222286 0.2224499 0.2226589 0.2228513 0.2230474 0.2232818 0.2235621 0.2238562 0.2241356
 0.2244035 0.2246682 0.2249248 0.2251715 0.2254098 0.2256235 0.2257926 0.2259392 0.2261348 0.2264448
 0.2268595 0.2272888 0.227642 0.2279088 0.2281451 0.2284032 0.2287026 0.2290215 0.2292698 0.2293415
 0.229274 0.2292905 0.2295963 0.2301683 0.2308063 0.2313442 0.2317551 0.2320923 0.2323953 0.2326527
 0.2328224 0.2328817 0.2328856 0.2329799 0.2333072 0.233861 0.2344721 0.2349777 0.2353499 0.2356392
 0.2358834 0.2361003 0.2362496 0.236182 0.2357993 0.2353305 0.2352678 0.2358912 0.2369524 0.2379372
 0.2385707 0.2389544 0.2392761 0.2395786 0.2398188 0.239911 0.2396077 0.2386404 0.2372482 0.2363274
 0.2366892 0.238236 0.2401156 0.2415712 0.242419 0.2428547 0.2431224 0.2433566 0.2434835 0.2432252
 0.2424089 0.2413809 0.2409227 0.2415301 0.2428596 0.2440992 0.2447985 0.2451093 0.2453529 0.2456536
 0.2458539 0.2454742 0.2439824 0.2415811 0.2396136 0.2396266 0.2418578 0.2449463 0.2472796 0.2483798
 0.2487858 0.2488749 0.2483119 0.2466632 0.2440539 0.2411189 0.2388078 0.2382527 0.2400178 0.2431624
 0.2457715 0.2468438 0.2471388 0.2479202 0.2494451 0.2509695 0.2517191 0.2514903 0.2505218 0.2490694
 0.2472749 0.2455602 0.2448845 0.2460691 0.2487937 0.251701 0.2536614 0.2546363 0.2550784 0.2546071
 0.2517494 0.2457114 0.2385882 0.2347831 0.2371133 0.2438565 0.2506027 0.2545934 0.256225 0.2569702
 0.2574143 0.2570943 0.2547663 0.2490909 0.2407411 0.2337169 0.2326404 0.2381922 0.2463424 0.2521083
 0.2529534 0.2490611 0.2424359 0.2363087 0.2338275 0.2361427 0.2418941 0.2485656 0.2540055 0.2570078
 0.2572914 0.255389 0.2526023 0.2506839 0.2505809 0.2510416 0.2495501 0.2455061 0.241228 0.2385438
 0.2359533 0.2314033 0.2267867 0.2266831 0.2324035 0.2398053 0.2439424 0.2440702 0.2427773 0.241285
 0.237382 0.2286294 0.2169835 0.2088765 0.2095764 0.2177282 0.2265707 0.2305435 0.2296971 0.2277139
 0.2269619 0.2260872 0.221958 0.2137526 0.2049654 0.2004803 0.2014222 0.2041558 0.2045985 0.2015447
 0.1952915 0.1862037 0.1768596 0.1729192 0.1783469 0.1905045 0.202214 0.2076998 0.2047524 0.1933899
 0.1764282 0.1609596 0.1549548 0.1602194 0.1702544 0.1762438 0.1740659 0.1650434 0.1521267 0.1377829
 0.1250732 0.1180454 0.1192716 0.1272115 0.1364961 0.1407692 0.1361788 0.1241938 0.1115783 0.105561
 0.1074623 0.1119184 0.1129338 0.1093051 0.1038256 0.09949199 0.09767072 0.09808785 0.0992225 0.09964378
 0.09916674 0.09752383 0.09281656 0.08387012 0.07371818 0.06772426 0.06796122 0.07204041 0.07745875 0.08384419
 0.09015661 0.0931399 0.09098825 0.08683045 0.08614279 0.09096508 0.09810124 0.1029835 0.1041988 0.1038458
 0.1042103 0.1052032 0.1055661 0.1057426 0.1079711 0.1132232 0.1194936 0.1240085 0.1260936 0.1269538
 0.1275862 0.1280178 0.1280047 0.1274763 0.1264862 0.1252798 0.1242047 0.1232879 0.1221741 0.1205663
 0.1182574 0.1145979 0.1087114 0.1010014 0.09398348 0.09042206 0.09054217 0.09223185 0.09398442 0.09573566
 0.09624492 0.09231582 0.08289522 0.07248481 0.06790034 0.07173078 0.08042651 0.08839468 0.09231034 0.09144741
 0.08603314 0.07738052 0.06930161 0.06700117 0.07298349 0.08479974 0.09775177 0.1088372 0.1171142 0.1217101
 0.1216535 0.1176843 0.1128774 0.1109583 0.1141529 0.1221855 0.1322222 0.1394102 0.1392307 0.1320932
 0.1256691 0.1292174 0.1436316 0.1597253 0.1685272 0.1704723 0.171684 0.1744271 0.1759733 0.1755068
 0.1768679 0.1831799 0.1920865 0.1980225 0.1971525 0.1889024 0.1752244 0.1607714 0.1517906 0.1513884
 0.1562739 0.1604865 0.1612142 0.1585504 0.1520109 0.1420003 0.1336212 0.1336216 0.1425503 0.1536755
 0.1606796 0.1634921 0.165547 0.1678584 0.1677768 0.163001 0.1553812 0.1498187 0.1494216 0.1527418
 0.1562006 0.1578162 0.1573735 0.1544272 0.1485419 0.1415127 0.1373248 0.138761 0.1446003 0.1508099
 0.1541794 0.1543509 0.1528541 0.1511706 0.1497679 0.1482331 0.146213 0.1446317 0.1455247 0.1498108
 0.1556991 0.1604566 0.1635103 0.1666445 0.1712188 0.1763073 0.179834 0.1808575 0.1805069 0.1810255
 0.1839385 0.1887629 0.1933005 0.1954652 0.1952418 0.1948857 0.1968514 0.2014331 0.2067202 0.2107454
 0.2131038 0.2145409 0.2157659 0.2168625 0.2172366 0.2160722 0.2134949 0.2112778 0.2116125 0.2149586
 0.2196033 0.2234069 0.2255073 0.2262947 0.2263281 0.225704 0.2243503 0.2225705 0.2210583 0.220377
 0.2205671 0.2212844 0.2221634 0.2229916 0.2237011 0.2243303 0.2249532 0.2255877 0.226194 0.2267467
 0.2272356 0.2276061 0.2277969 0.2278658 0.2279956 0.228308 0.2287221 0.2290535 0.2291926 0.229103
 0.2287062 0.2279027 0.226711 0.2252707 0.2236766 0.2219108 0.2200299 0.2183798 0.2175069 0.2177652
 0.2190017 0.2206555 0.2221591 0.2232322 0.2238706 0.2241921 0.2243435 0.2244706 0.2246805 0.2250116
 0.2254536 0.2259891 0.2266038 0.2272743 0.2279783 0.2287265 0.2295624 0.2305125 0.2315435 0.2325727
 0.2335144 0.234321 0.2350015 0.2356087 0.2361939 0.2367648 0.2372832 0.2376965 0.2379712 0.2381082
 0.238143 0.23812 0.2380507 0.2378968 0.2376057 0.2371528 0.2365214 0.2356519 0.2344674 0.2329756
 0.2312976 0.2295728 0.2278688 0.2262011 0.2245789 0.2229941 0.2214069 0.2197803 0.218112 0.2164173
 0.2147032 0.212971 0.2112278 0.209487 0.2077624 0.206058 0.2043561 0.2026191 0.2008105 0.1989033
 0.1968557 0.1945838 0.1919751 0.1889353 0.1854122 0.1813861 0.1768732 0.1719608 0.166817 0.1616439
 0.1566154 0.1518545 0.1474521 0.1434993 0.1400954 0.1373194 0.135192 0.1336773 0.1327173 0.1322634
 0.1322924 0.132803 0.1337793 0.1351465 0.1367728 0.1385109 0.1402228 0.1417888 0.1431447 0.1443247
 0.1454398 0.1465896 0.1477961 0.1490186 0.1502127 0.1513559 0.1524244 0.1533835 0.1542184 0.1549511
 0.1556127 0.1562159 0.1567624 0.157252 0.1576723 0.1579961 0.1581991 0.1582772 0.1582606 0.1582152
 0.1582161 0.158312 0.158528 0.1589012 0.1594874 0.1603238 0.1613957 0.1626477 0.1640279 0.1655125
 0.1670908 0.1687447 0.1704674 0.1722882 0.1742533 0.1763838 0.1786647 0.1810545 0.1834818 0.1858442
 0.1880378 0.189997 0.1917104 0.1932018 0.19449 0.1955646 0.1964039 0.1970142 0.1974467 0.1977908
 0.1981503 0.1986007 0.1991464 0.1997304 0.2002854 0.2007682 0.2011642 0.201489 0.2017778 0.2020538
 0.2023172 0.2025799 0.202894 0.2033251 0.2038932 0.204543 0.2051738 0.2057064 0.2061232 0.2064484
 0.2067006 0.2068656 0.2068965 0.2067368 0.2063581 0.2057765 0.205024 0.2041202 0.2030825 0.2019406
 0.2007196 0.1994229 0.1980382 0.1965463 0.1949267 0.1931766 0.1913238 0.1894116 0.1874813 0.1855748
 0.1837339 0.1819804 0.1803044 0.1786752 0.1770635 0.1754552 0.1738507 0.1722559 0.1706823 0.1691559
 0.1677044 0.1663254 0.1649907 0.1636989 0.1625082 0.1614976 0.1606995 0.1600745 0.1595452 0.159052
 0.1585793 0.15814 0.1577559 0.1574526 0.1572478 0.157122 0.1570122 0.1568432 0.1565698 0.1562036
 0.1558121 0.1554728 0.1552099 0.1549856 0.1547488 0.1544631 0.1540817 0.1535312 0.1527327 0.1516312
 0.150213 0.1485181 0.1466391 0.1446941 0.1427958 0.1410324 0.1394682 0.138152 0.137107 0.1362973
 0.1356288 0.1350199 0.1344745 0.134069 0.1338688 0.133849 0.1338778 0.1337949 0.1335471 0.1332431
 0.1330578 0.1330913 0.1333208 0.1336429 0.1339428 0.1341501 0.134254 0.1342722 0.1342224 0.1341148
 0.1339425 0.1336826 0.1333302 0.132915 0.1324629 0.1319719 0.131433 0.1308398 0.1301761 0.1294295
 0.1286085 0.1277259 0.1267841 0.1257776 0.1246789 0.1234572 0.1221721 0.1210244 0.1202547 0.1199915
 0.1201817 0.1206237 0.1210969 0.1215105 0.1218689 0.1220708 0.121929 0.1215349 0.1214516 0.122299
 0.1241266 0.1263193 0.1281265 0.1291828 0.1295265 0.1293099 0.1286422 0.1276048 0.1262309 0.1244904
 0.1223889 0.1200233 0.1174962 0.1148915 0.1123524 0.1100462 0.1080571 0.1063964 0.1050617 0.1041035
 0.1036533 0.1034011 0.1017399 0.09661274 0.08867066 0.08269373 0.08358589 0.09086718 0.09899296 0.1032176
 0.1033857 0.1020028 0.1008019 0.1000419 0.09963033 0.09968846 0.1003351 0.1014597 0.1027238 0.10376
 0.1044098 0.1047023 0.1046108 0.1038636 0.1018874 0.09797913 0.09186721 0.08424684 0.0765631 0.07016347
 0.06568919 0.06306905 0.06178237 0.06116255 0.06074266 0.06048196 0.06066557 0.06157215 0.06323413 0.06548707
 0.0681449 0.07100422 0.07373623 0.07599605 0.07769175 0.07898301 0.07998416 0.08062044 0.08078483 0.08048777
 0.07983246 0.07894845 0.07796529 0.07698144 0.07602237 0.07504527 0.07403301 0.07310744 0.07248596 0.07227218
 0.07235406 0.07254934 0.072762 0.07296365 0.0731322 0.07325803 0.07335499 0.07347043 0.0737061 0.07415154
 0.07475708 0.07535216 0.07581269 0.07614681 0.07642016 0.07663316 0.07666066 0.07636549 0.07584246 0.07541674
 0.07523158 0.07498557 0.07432076 0.07336825 0.07266048 0.07254948 0.0729029 0.07333225 0.07354688 0.07349335
 0.07332225 0.07329952 0.07363309 0.07424386</values></Ydata></ScSm><ScRf><Ydata ylabel="Single channel"><values byteorder="INTEL" format="FLOAT32" numvalues="1820"> 0.06067073 0.06084368 0.06095137 0.06098904 0.06098301 0.06098411 0.06104435 0.06118463 0.06137886 0.06156808
 0.06169916 0.06175855 0.06176363 0.06172841 0.06166495 0.06161853 0.06165911 0.06181326 0.06202149 0.06217709
 0.06220975 0.06214688 0.06209954 0.06215625 0.06226503 0.06224513 0.06195575 0.06145819 0.06097914 0.06070141
 0.06064773 0.0608107 0.06126489 0.06195525 0.06246036 0.06229465 0.06151947 0.0607661 0.0605346 0.06071442
 0.06088394 0.0607988 0.06046598 0.06004244 0.05987422 0.06040446 0.06173601 0.06327005 0.06392059 0.06279965
 0.05985262 0.05605759 0.05306315 0.05230566 0.05399887 0.05684373 0.05900057 0.05955689 0.05896816 0.05812787
 0.05740585 0.05675859 0.05635013 0.05659088 0.05756482 0.05864089 0.05879871 0.05750315 0.05534481 0.05362228
 0.05315967 0.0537908 0.05505233 0.05668763 0.0579476 0.05719122 0.05349959 0.04871794 0.04663159 0.04936658
 0.05511992 0.05992214 0.06116673 0.05907118 0.0555268 0.05253296 0.05143707 0.05256797 0.05518549 0.05809748
 0.06038103 0.06141581 0.06071994 0.05837435 0.05543654 0.05342614 0.05339324 0.05551112 0.0590371 0.06237215
 0.06378746 0.06270535 0.06008453 0.05740501 0.05569162 0.05552155 0.05717456 0.06034196 0.06410086 0.06744669
 0.06970482 0.0706047 0.07034165 0.06945566 0.06842047 0.0675535 0.06729387 0.06793688 0.06890987 0.06898764
 0.06762511 0.06569151 0.06458126 0.06477658 0.06546382 0.06552199 0.06465551 0.06321442 0.06108962 0.05769377
 0.05331179 0.0494579 0.04736381 0.047041 0.0481823 0.0506455 0.05339603 0.05444216 0.0530144 0.0509565
 0.05089389 0.05343354 0.05685362 0.05920883 0.06013115 0.06069476 0.06203194 0.06417338 0.06590064 0.0656633
 0.06311744 0.05999318 0.05887185 0.06065012 0.06367752 0.06578914 0.06659181 0.06721725 0.06834783 0.06915753
 0.06817216 0.06501849 0.06136041 0.05986651 0.06188259 0.06608306 0.06943373 0.06943589 0.0658084 0.06055159
 0.05638977 0.05488681 0.0560335 0.05928955 0.06417965 0.06973781 0.07425912 0.07625321 0.07552303 0.07309027
 0.07002719 0.06646181 0.06212531 0.05799819 0.0565245 0.05930901 0.06506795 0.07069428 0.0740281 0.07493954
 0.07412875 0.07179533 0.06783611 0.06314211 0.06002954 0.06044168 0.06360834 0.0664791 0.06691581 0.06564201
 0.06468064 0.06483109 0.06536789 0.06559174 0.06583714 0.06690875 0.0689314 0.07104456 0.07222848 0.07222538
 0.07159384 0.07106055 0.07085684 0.07054373 0.06963517 0.06857061 0.06866407 0.07066151 0.07371226 0.07624173
 0.0775307 0.07797852 0.07804742 0.07744917 0.07555936 0.07258803 0.07006031 0.06968442 0.07169862 0.0747195
 0.0771795 0.07845826 0.07874139 0.07844752 0.07793888 0.0774059 0.07693906 0.07678626 0.07728424 0.07837635
 0.07950775 0.08018408 0.08037513 0.08025895 0.07986906 0.07917903 0.07836412 0.07779683 0.07777505 0.07829803
 0.07911913 0.07996555 0.08063401 0.08094454 0.08080184 0.08034086 0.07985133 0.07951368 0.07933384 0.07932697
 0.07958099 0.08008748 0.08065386 0.0810625 0.08124533 0.08126564 0.08119638 0.08106433 0.08088323 0.08070874
 0.08064868 0.08078539 0.08107162 0.08135922 0.08157109 0.08177657 0.08203548 0.08224758 0.08225831 0.08207145
 0.0818595 0.08177754 0.08183743 0.08195539 0.08204612 0.08203799 0.08185688 0.08149005 0.08108346 0.08089241
 0.08107799 0.08158821 0.08224665 0.08288099 0.08335756 0.08360663 0.08366995 0.08365501 0.08360992 0.08349515
 0.08328818 0.08306977 0.08299257 0.08316935 0.08357576 0.08406073 0.0844638 0.0847124 0.08482161 0.08486538
 0.08495064 0.085133 0.08533299 0.08541019 0.08534151 0.08525862 0.08528706 0.08540314 0.08547713 0.08543181
 0.0853335 0.08532216 0.08546306 0.08568913 0.08589236 0.08604291 0.0861989 0.08640976 0.08662525 0.08671878
 0.08662222 0.08641933 0.08626273 0.08621228 0.08621694 0.08624652 0.0863527 0.08656701 0.08680779 0.08694878
 0.08695969 0.0869314 0.08695838 0.08702879 0.08704816 0.08695208 0.08677179 0.08659883 0.08651127 0.08652963
 0.08661476 0.08669451 0.08670788 0.08664228 0.08653376 0.08642879 0.08634983 0.08630627 0.08633155 0.08647357
 0.08671962 0.08694835 0.08700269 0.08683316 0.08655581 0.08635005 0.08629666 0.08631869 0.08627442 0.08609449
 0.08582647 0.08556759 0.08537757 0.08525321 0.0851603 0.08507691 0.08501796 0.08502864 0.08513646 0.08529069
 0.08536807 0.08527392 0.08503683 0.08477892 0.08460075 0.08451878 0.08449432 0.08448412 0.08447386 0.0844911
 0.08456692 0.0846687 0.08470859 0.08464426 0.08453354 0.08447172 0.08451558 0.08467076 0.08488963 0.08506673
 0.08510337 0.08500875 0.08489585 0.0848612 0.08490606 0.0849814 0.08506129 0.08514819 0.08524208 0.08533953
 0.08545551 0.08562171 0.08585465 0.08612978 0.08638869 0.08657633 0.08668449 0.08676837 0.08691294 0.08716673
 0.08750033 0.08783017 0.08808756 0.08826945 0.08842437 0.08859261 0.08877411 0.08896172 0.0891809 0.08946579
 0.08980586 0.09014964 0.09046 0.09074018 0.09100883 0.091276 0.09154853 0.09184493 0.09219591 0.0926189
 0.09307766 0.09347929 0.09374231 0.09387545 0.0939783 0.09416635 0.09449174 0.09490274 0.09526531 0.09546551
 0.09552602 0.09559329 0.09577978 0.09605174 0.09630995 0.09654351 0.09684156 0.09725938 0.09772833 0.09811889
 0.09836644 0.09851827 0.09866852 0.09885915 0.09904844 0.0991773 0.09925191 0.09933564 0.09946708 0.09963147
 0.09982611 0.1001003 0.100488 0.1009341 0.1013326 0.1016224 0.1018148 0.1019502 0.10206 0.1021539
 0.1022176 0.1022409 0.1022561 0.102316 0.1024211 0.1025084 0.1025359 0.1025417 0.1025972 0.1027362
 0.1029531 0.1032353 0.1035569 0.1038656 0.1041273 0.1043831 0.1047084 0.1050971 0.105432 0.1056091
 0.1056527 0.1056641 0.1056927 0.1057252 0.1057766 0.1059115 0.106163 0.1064899 0.1068341 0.1071797
 0.1075378 0.1078989 0.1082198 0.1084457 0.1085466 0.1085423 0.1084994 0.1085014 0.1086111 0.1088434
 0.1091593 0.1094901 0.1097773 0.1099866 0.1100925 0.1100842 0.1100097 0.1099797 0.1100807 0.1102781
 0.1104338 0.1104233 0.1102166 0.1098483 0.1093508 0.1087414 0.1080604 0.1073896 0.1068216 0.1064118
 0.1061746 0.1061266 0.1063133 0.1067618 0.1074118 0.1081278 0.1087844 0.1093062 0.1096222 0.1096427
 0.1093259 0.10874 0.1080249 0.107303 0.1066384 0.1060402 0.105473 0.1048992 0.1043601 0.104012
 0.1040533 0.1046061 0.1056544 0.107056 0.1085921 0.11004 0.1112583 0.1122332 0.113041 0.1137637
 0.1144415 0.1150916 0.1157374 0.1163901 0.1170192 0.1175775 0.1180555 0.118487 0.1189012 0.1192915
 0.1196313 0.1199021 0.1201133 0.1203059 0.1205166 0.120724 0.1208532 0.1208561 0.1207634 0.1206396
 0.1205082 0.1203374 0.1200793 0.1197132 0.1192775 0.1188889 0.1187239 0.1189473 0.1196207 0.1206637
 0.1219112 0.1232175 0.1244937 0.1256597 0.1266136 0.1272901 0.127724 0.1280237 0.1282889 0.1285689
 0.1288727 0.1291895 0.1295 0.1297895 0.1300582 0.1303238 0.1306147 0.1309464 0.1312959 0.1316123
 0.1318675 0.1320935 0.1323591 0.1327051 0.1331033 0.1334852 0.1338135 0.1341137 0.134422 0.1347222
 0.1349663 0.1351472 0.1353163 0.135531 0.1358164 0.1361677 0.136551 0.1369004 0.1371588 0.1373308
 0.1374769 0.1376513 0.1378648 0.1381031 0.1383521 0.1386004 0.1388402 0.1390833 0.13936 0.1396823
 0.1400096 0.1402743 0.1404489 0.1405758 0.1407221 0.1409173 0.1411404 0.141356 0.1415555 0.1417687
 0.1420351 0.1423566 0.1426793 0.1429356 0.1431041 0.1432222 0.1433443 0.1435006 0.1436927 0.1439088
 0.1441333 0.1443493 0.1445479 0.1447384 0.14494 0.1451598 0.1453831 0.1455913 0.1457826 0.1459714
 0.1461701 0.1463792 0.1465963 0.1468318 0.1471048 0.1474148 0.1477242 0.1479797 0.1481563 0.1482743
 0.1483767 0.1484982 0.1486515 0.1488313 0.1490254 0.1492247 0.1494274 0.1496347 0.1498482 0.1500678
 0.15029 0.1505075 0.150714 0.1509103 0.1511053 0.1513129 0.1515411 0.1517815 0.1520109 0.1522108
 0.1523844 0.1525543 0.1527429 0.1529534 0.1531684 0.1533689 0.1535554 0.1537434 0.1539414 0.1541412
 0.1543319 0.1545143 0.154697 0.1548855 0.1550779 0.1552704 0.155463 0.155659 0.1558598 0.1560635
 0.1562698 0.1564799 0.1566914 0.1568963 0.1570878 0.1572697 0.1574552 0.1576553 0.1578673 0.1580761
 0.1582688 0.1584451 0.1586158 0.1587933 0.1589838 0.159184 0.1593852 0.159584 0.1597857 0.1599958
 0.1602136 0.1604341 0.1606516 0.160864 0.1610757 0.1612946 0.1615205 0.1617416 0.1619468 0.1621381
 0.1623296 0.1625358 0.16276 0.1629921 0.1632185 0.1634357 0.1636479 0.1638565 0.1640566 0.1642422
 0.1644136 0.164579 0.1647482 0.1649239 0.1651007 0.165276 0.1654544 0.1656414 0.1658372 0.1660383
 0.1662399 0.1664393 0.1666389 0.166841 0.1670407 0.1672322 0.1674187 0.1676082 0.167806 0.1680137
 0.1682283 0.16844 0.1686421 0.1688394 0.1690403 0.169246 0.1694558 0.1696709 0.1698897 0.1701075
 0.1703237 0.17054 0.1707556 0.1709703 0.171186 0.1714005 0.171609 0.1718102 0.1720048 0.172196
 0.1723942 0.1726086 0.172831 0.1730451 0.1732475 0.1734473 0.173652 0.1738665 0.1740907 0.1743149
 0.174528 0.1747317 0.1749362 0.1751494 0.175375 0.1756079 0.1758354 0.1760542 0.1762752 0.1765006
 0.176717 0.1769183 0.1771105 0.1772866 0.1774048 0.1773501 0.1768411 0.1753279 0.1719786 0.1658451
 0.1562421 0.1431781 0.1275016 0.1106016 0.09390128 0.07849273 0.06502632 0.05378597 0.04482585 0.03806828
 0.03336987 0.03061376 0.0297986 0.03113703 0.03517293 0.04246214 0.05234564 0.06185986 0.06688758 0.06540811
 0.0594308 0.05316363 0.04951496 0.04868991 0.04944868 0.05073378 0.05220584 0.05404924 0.05659053 0.05992503
 0.0638969 0.06850283 0.07408835 0.08090883 0.08860623 0.09636013 0.1035923 0.1104165 0.1173631 0.1247344
 0.1322837 0.13946 0.1458514 0.1513874 0.1562435 0.1606496 0.1647637 0.1686588 0.17237 0.1758942
 0.17911 0.1817429 0.1834974 0.1842836 0.1843251 0.1840348 0.1837688 0.1836832 0.1837822 0.184036
 0.1844309 0.1849584 0.1856052 0.1863503 0.1871595 0.1879922 0.188819 0.1896221 0.1903869 0.191104
 0.1917706 0.1923835 0.1929381 0.1934369 0.1938901 0.1943114 0.1947166 0.1951154 0.1954993 0.1958527
 0.1961747 0.1964778 0.1967672 0.1970353 0.1972783 0.1975047 0.1977258 0.1979432 0.1981515 0.1983512
 0.1985552 0.1987763 0.1990104 0.199241 0.1994561 0.1996552 0.1998444 0.2000329 0.2002307 0.2004402
 0.2006516 0.2008539 0.2010444 0.2012286 0.2014135 0.2016012 0.2017876 0.201969 0.2021503 0.2023425
 0.2025489 0.2027618 0.2029699 0.2031672 0.203357 0.2035499 0.2037536 0.2039648 0.2041761 0.2043887
 0.204607 0.2048279 0.2050445 0.205254 0.205452 0.205629 0.2057841 0.2059352 0.2061084 0.2063162
 0.2065492 0.2067852 0.2070069 0.2072111 0.2074032 0.2075886 0.2077697 0.207945 0.2081161 0.2083009
 0.2085266 0.208794 0.2090697 0.2093255 0.2095652 0.2098013 0.2100328 0.2102565 0.2104705 0.2106573
 0.2107959 0.2109046 0.2110528 0.2113088 0.2116705 0.2120579 0.2123863 0.2126407 0.2128658 0.213108
 0.2133846 0.2136676 0.2138651 0.2138859 0.213784 0.2137755 0.2140417 0.2145522 0.2151259 0.2156141
 0.2159852 0.216281 0.2165439 0.2167718 0.2169154 0.2169352 0.2168838 0.2169195 0.2171912 0.2176857
 0.2182326 0.218681 0.2190121 0.2192686 0.2194705 0.2196271 0.2197119 0.2196025 0.2192115 0.2187434
 0.2186491 0.2191916 0.2201446 0.2210276 0.2215782 0.2218903 0.2221519 0.2224164 0.222641 0.2227277
 0.2224293 0.2214944 0.2201561 0.2192608 0.219571 0.2209986 0.2227479 0.2241075 0.2248954 0.2252885
 0.225521 0.2257269 0.2258353 0.2255786 0.2247941 0.2238135 0.2233756 0.2239476 0.2252072 0.2263859
 0.2270464 0.2273194 0.2275119 0.2277602 0.2279308 0.2275702 0.2261693 0.223918 0.2220778 0.2220906
 0.2241687 0.2270403 0.2292066 0.2302268 0.2306049 0.2306919 0.2301709 0.2286339 0.2261989 0.2234605
 0.2213057 0.2207924 0.222447 0.2253856 0.2278181 0.22882 0.2291155 0.2298868 0.23136 0.2328194
 0.2335311 0.2333115 0.2323968 0.2310292 0.2293392 0.2277274 0.2270998 0.2282247 0.2307971 0.2335424
 0.2353953 0.236315 0.2367342 0.2363069 0.2336502 0.2280105 0.2213459 0.2177793 0.2199538 0.2262721
 0.2326149 0.236392 0.2379649 0.2387148 0.2391903 0.2389484 0.2368179 0.2315484 0.2237784 0.2172603
 0.2163172 0.2215666 0.2292241 0.23464 0.2354596 0.2318591 0.2257172 0.2200643 0.2178389 0.2201014
 0.2255781 0.2319235 0.2371237 0.2400415 0.2404074 0.2387182 0.236205 0.2345316 0.2345841 0.2351593
 0.2338827 0.2302113 0.2263428 0.2239923 0.221737 0.2176391 0.2134928 0.2136432 0.2193424 0.2266587
 0.2308959 0.2313578 0.2305045 0.2294709 0.2261208 0.2181134 0.2073234 0.1999432 0.2010741 0.209428
 0.2184731 0.2228354 0.2225785 0.2212918 0.2213038 0.2213079 0.2182043 0.2111429 0.2035887 0.2004105
 0.2026995 0.2067946 0.2086249 0.2069554 0.2019532 0.1938911 0.1855131 0.1828847 0.1902743 0.2049265
 0.2192134 0.2269177 0.2255172 0.214815 0.1978088 0.1825232 0.1781172 0.1866766 0.2006685 0.2098636
 0.2094496 0.200891 0.1875698 0.172483 0.159633 0.1544495 0.1605478 0.1760685 0.193683 0.2042081
 0.20168 0.1880245 0.1735267 0.169432 0.1776761 0.1895141 0.1953057 0.1932647 0.1880972 0.1849625
 0.1865069 0.1923644 0.199538 0.2052225 0.2090449 0.2098919 0.2028984 0.185291 0.1641252 0.1516373
 0.1525391 0.1616072 0.173472 0.187442 0.2011222 0.2070949 0.2012823 0.1906641 0.1873347 0.1956578
 0.2085301 0.216078 0.2154388 0.211277 0.208589 0.2073849 0.2051881 0.2028003 0.2045031 0.2121515
 0.2219398 0.2286531 0.2310958 0.2316222 0.2321462 0.2326826 0.2326981 0.2319986 0.2306542 0.2291177
 0.2280836 0.2277095 0.2274741 0.2269721 0.2258786 0.2227297 0.2152489 0.2035465 0.1921427 0.1863815
 0.1867662 0.1893382 0.1915614 0.1937906 0.1937777 0.1851414 0.1657961 0.1448544 0.1359929 0.1442384
 0.1622281 0.1786031 0.1867087 0.1851572 0.1744279 0.157075 0.1404455 0.1343794 0.1431835 0.1615029
 0.1800494 0.1936058 0.201615 0.2037426 0.1988979 0.1883944 0.177215 0.1711641 0.1733399 0.1827734
 0.194743 0.201985 0.1982574 0.1845464 0.1717898 0.172795 0.1888006 0.2074082 0.2165215 0.2165927
 0.2156931 0.2169727 0.2171095 0.2151223 0.2158959 0.2234847 0.2351526 0.2440717 0.2453162 0.2378071
 0.2236809 0.2087817 0.2011353 0.2044813 0.2139582 0.2213346 0.2229419 0.2191952 0.2097518 0.1955499
 0.1839402 0.1842646 0.1970426 0.2127562 0.2226632 0.2267539 0.229788 0.2330939 0.2329585 0.2262593
 0.2156933 0.2081226 0.2077928 0.2126192 0.2177165 0.2205477 0.2209558 0.21825 0.2116411 0.2035568
 0.19966 0.2039265 0.2145048 0.2254127 0.2318582 0.2332297 0.2317033 0.2294188 0.2270408 0.223931
 0.2195732 0.2154146 0.2145832 0.2185491 0.2247863 0.229369 0.2314654 0.2336147 0.2377405 0.2425058
 0.2449433 0.2436922 0.2402898 0.2378255 0.2384577 0.2417021 0.2447959 0.2450546 0.242423 0.2397689
 0.2402476 0.2442982 0.2495712 0.2536027 0.255819 0.2570437 0.2580671 0.2589492 0.2589694 0.257175
 0.2537414 0.2507607 0.2507543 0.2541705 0.2589614 0.2626995 0.2645347 0.265049 0.264923 0.2642294
 0.2628257 0.2609916 0.2594458 0.258778 0.2590256 0.2598224 0.2607792 0.2616503 0.262314 0.2627606
 0.2630603 0.2632729 0.2634166 0.2635204 0.2636136 0.2636545 0.2635724 0.2634211 0.2633896 0.2635953
 0.2639313 0.2641817 0.2642191 0.2640036 0.2634651 0.2625268 0.2612442 0.2597914 0.2582665 0.2566243
 0.2549078 0.2535034 0.2530305 0.2538817 0.2558613 0.258297 0.2604946 0.2620924 0.2630736 0.2635872
 0.2638085 0.263885 0.2639013 0.263866 0.2637484 0.2635334 0.2632368 0.2628811 0.2624838 0.2620727
 0.2616944 0.2613864 0.2611379 0.2608877 0.260566 0.2601434 0.2596431 0.2591123 0.2585777 0.2580215
 0.2573953 0.256656 0.2557941 0.254845 0.2538825 0.2529844 0.252176 0.2514093 0.2506143 0.2497619
 0.2488518 0.2478594 0.2467566 0.2456001 0.2445391 0.2436911 0.2430331 0.242439 0.2417946 0.2410462
 0.2401814 0.2392153 0.238187 0.23713 0.236048 0.2349255 0.2337457 0.2324874 0.2311308 0.2296781
 0.2281526 0.2265762 0.2249627 0.2233219 0.2216389 0.2198497 0.21785 0.2155239 0.2127565 0.209447
 0.2055471 0.2011069 0.196285 0.1913044 0.1863839 0.1816953 0.1773655 0.1734931 0.1701534 0.1674023
 0.1652898 0.1638617 0.1631465 0.1631504 0.1638603 0.1652376 0.1672045 0.1696451 0.1724183 0.1753698
 0.1783409 0.1811815 0.1837855 0.1861392 0.1883208 0.1904124 0.1924129 0.1942578 0.1959045 0.1973546
 0.1986093 0.1996536 0.2004934 0.2011735 0.201748 0.2022468 0.2026743 0.2030304 0.2033247 0.2035722
 0.2037848 0.2039726 0.2041501 0.2043338 0.2045365 0.204766 0.2050279 0.205331 0.2056916 0.2061222
 0.2066141 0.2071441 0.2077027 0.2082991 0.2089391 0.2096175 0.2103423 0.2111526 0.2120992 0.2132071
 0.2144566 0.2157947 0.2171579 0.2184813 0.2196949 0.2207293 0.2215312 0.2220762 0.2223713 0.2224509
 0.2223617 0.2221428 0.2218221 0.2214245 0.2209703 0.2204679 0.2199167 0.2193163 0.2186684 0.2179778
 0.2172599 0.2165398 0.2158373 0.2151537 0.2144769 0.2138011 0.2131399 0.2125152 0.2119332 0.2113768
 0.2108224 0.2102564 0.2096764 0.2090892 0.2085064 0.207925 0.2073079 0.2065968 0.2057571 0.2048042
 0.2037754 0.2026837 0.2015101 0.2002399 0.1988833 0.197454 0.1959462 0.1943509 0.1926799 0.1909541
 0.1891693 0.1872932 0.1853108 0.1832682 0.1812621 0.1793812 0.1776569 0.1760673 0.1745742 0.1731554
 0.1718085 0.1705329 0.169318 0.1681513 0.1670324 0.1659705 0.1649699 0.1640261 0.1631383 0.1623207
 0.1615954 0.1609695 0.1604256 0.1599422 0.1595174 0.1591663 0.1589073 0.1587579 0.158723 0.1587683
 0.1588258 0.1588365 0.1587796 0.1586658 0.1585273 0.1584027 0.1583113 0.1582423 0.1581727 0.1580787
 0.1579197 0.1576242 0.1570975 0.1562522 0.155053 0.1535407 0.1518083 0.1499705 0.1481571 0.1464941
 0.1450638 0.1438976 0.1429976 0.1423305 0.141821 0.1414007 0.141064 0.140862 0.1408538 0.1410441
 0.1413318 0.141553 0.1416285 0.1416522 0.1418035 0.1422012 0.1428391 0.1436063 0.144359 0.1450057
 0.145519 0.1458822 0.1460869 0.1461773 0.1462153 0.1462038 0.146105 0.1459101 0.1456424 0.1453227
 0.14496 0.1445466 0.1440601 0.1434903 0.1428394 0.1420951 0.1412537 0.1403428 0.1393603 0.138252
 0.1370447 0.1359464 0.1352387 0.1350964 0.1355093 0.1363067 0.1372726 0.1382913 0.1393116 0.1401546
 0.1405607 0.1405813 0.1407801 0.1418242 0.1438446 0.1462914 0.1484257 0.1498586 0.1505889 0.1507098
 0.1502771 0.1493544 0.1479651 0.1460471 0.1435926 0.140741 0.1376666 0.1345262 0.1315272 0.1288621
 0.1265966 0.124735 0.1232941 0.1223318 0.1219726 0.1218217 0.1199581 0.1139402 0.1045718 0.09756616
 0.09873262 0.1074482 0.1171051 0.1220866 0.1222331 0.1205411 0.1190859 0.1181682 0.1176535 0.1176719
 0.1183622 0.1195926 0.1209768 0.1221094 0.1228201 0.1231492 0.1230647 0.1222125 0.1198501 0.1151161
 0.1077277 0.09856547 0.0893652 0.0817133 0.07634111 0.07314302 0.07151795 0.07071562 0.07020106 0.06991206
 0.07015933 0.07124486 0.07320137 0.07587273 0.0790851 0.08259686 0.08598247 0.0888074 0.0909581 0.09264375
 0.09404632 0.09510578 0.09566633 0.0956976 0.09532006 0.09469883 0.09396692 0.09319146 0.09233557 0.09128262
 0.09000924 0.0887436 0.08782977 0.08740161 0.08729891 0.0873079 0.08734427 0.08739203 0.08741595 0.08738375
 0.08730571 0.08725001 0.087336 0.08764783 0.08812372 0.08858667 0.08889896 0.08905642 0.08914086 0.08917339
 0.08899963 0.08842363 0.08753761 0.08674118 0.08624377 0.08572139 0.08473761 0.08340007 0.0823206 0.08195247
 0.08218457 0.08257215 0.08275596 0.08263128 0.08232905 0.08216159 0.08242528 0.08306609 0.08362027 0.08365425
</values></Ydata></ScRf><Data_Parameters_AB><parameter name="DPF">1</parameter><parameter name="NPT">3497</parameter><parameter name="FXV">3996</parameter><parameter name="LXV">500</parameter><parameter name="CSF">1</parameter><parameter name="MXY">0.351118832826614</parameter><parameter name="MNY">-0.0771557241678238</parameter><parameter name="DAT">31/05/2022</parameter><parameter name="TIM">11:57:33.010 (GMT+2)</parameter><parameter name="DXU">WN</parameter></Data_Parameters_AB><AB__Qtest><MainReport name="Quality Test Report"><Header><Line><Legend>Test result ok/not ok [1/0]: </Legend><Value>0</Value></Line><Line><Legend>Method file: </Legend><Value>C:\Users\Public\Documents\Bruker\OPUS_8.2.28\QT\IRBT_v3_default.QT</Value></Line></Header><Matrix><Line><Legend></Legend><Legend>min</Legend><Legend>max</Legend><Legend>measured</Legend></Line><Line><Value>Absorption (X-Range 1):</Value><Value>0.400000</Value><Value>2.000000</Value><Value>0.384177</Value></Line><Line><Value>Noise (X-Range 4):</Value><Value></Value><Value>0.000300</Value><Value>0.000051</Value></Line><Line><Value>Signal/Noise (X-Range 2):</Value><Value>200.000000</Value><Value></Value><Value>194.709595</Value></Line><Line><Value>Signal/Noise (X-Range 3):</Value><Value>40.000000</Value><Value></Value><Value>58.304368</Value></Line><Line><Value>Water vapour (X-Range 5):</Value><Value></Value><Value>0.000300</Value><Value>0.000051</Value></Line><Line><Value>Signal/Water (X-Range 2):</Value><Value>100.000000</Value><Value></Value><Value>196.981246</Value></Line><Line><Value>Signal/Water (X-Range 3):</Value><Value>20.000000</Value><Value></Value><Value>58.984597</Value></Line><Line><Value>Fringes (X-Range 6):</Value><Value></Value><Value>0.000100</Value><Value>0.000075</Value></Line></Matrix></MainReport></AB__Qtest><Data_Parameters_ScSm><parameter name="DPF">1</parameter><parameter name="NPT">1814</parameter><parameter name="FXV">3996.33169228125</parameter><parameter name="LXV">499.541461535156</parameter><parameter name="CSF">1</parameter><parameter name="MXY">0.257414251565933</parameter><parameter name="MNY">0.0325997248291969</parameter><parameter name="DAT">31/05/2022</parameter><parameter name="TIM">11:57:33.010 (GMT+2)</parameter><parameter name="DXU">WN</parameter></Data_Parameters_ScSm><Data_Parameters_ScRf><parameter name="DPF">1</parameter><parameter name="NPT">1820</parameter><parameter name="FXV">4004.04661832813</parameter><parameter name="LXV">495.683998511719</parameter><parameter name="CSF">1</parameter><parameter name="MXY">0.265048980712891</parameter><parameter name="MNY">0.0297986045479774</parameter><parameter name="DAT">31/05/2022</parameter><parameter name="TIM">11:57:06.098 (GMT+2)</parameter><parameter name="DXU">WN</parameter></Data_Parameters_ScRf><Optic_Parameters_Rf><parameter name="APR">0</parameter><parameter name="APT">Open</parameter><parameter name="BMS">KBr</parameter><parameter name="DTC">RT-DLaTGS_IR-Biotyper [Microplate reader]</parameter><parameter name="HPF">0</parameter><parameter name="LPF">10.0</parameter><parameter name="LPV">4000</parameter><parameter name="PGR">0</parameter><parameter name="RCH">Module port</parameter><parameter name="RDX">0</parameter><parameter name="SRC">MIR</parameter><parameter name="VEL">10.0</parameter><parameter name="SON">Off</parameter></Optic_Parameters_Rf><Acquisition_Parameters_Rf><parameter name="ADT">1</parameter><parameter name="AQM">DD</parameter><parameter name="CFE">0</parameter><parameter name="COR">0</parameter><parameter name="DEL">0</parameter><parameter name="DLY">0</parameter><parameter name="HFW">8000</parameter><parameter name="LFW">0</parameter><parameter name="NSR">32</parameter><parameter name="PLF">AB</parameter><parameter name="RES">6</parameter><parameter name="RGN">-1</parameter><parameter name="STR">0</parameter><parameter name="TCL">MakeCompatibleScalar (0, {WSV=1.000000, ARV=0});</parameter><parameter name="TDL">37</parameter><parameter name="RPO">0</parameter></Acquisition_Parameters_Rf><FT_-_Parameters_Rf><parameter name="APF">B3</parameter><parameter name="HFQ">500</parameter><parameter name="LFQ">4000</parameter><parameter name="NLI">0</parameter><parameter name="PHR">24</parameter><parameter name="PHZ">ML</parameter><parameter name="SPZ">NO</parameter><parameter name="ZFF">1</parameter></FT_-_Parameters_Rf><Optic_Parameters_><parameter name="APR">0</parameter><parameter name="APT">Open</parameter><parameter name="BMS">KBr</parameter><parameter name="CHN">Module port</parameter><parameter name="DTC">RT-DLaTGS_IR-Biotyper [Microplate reader]</parameter><parameter name="HPF">0</parameter><parameter name="LPF">10.0</parameter><parameter name="LPV">4000</parameter><parameter name="PGN">0</parameter><parameter name="RDX">0</parameter><parameter name="SRC">MIR</parameter><parameter name="VEL">10.0</parameter><parameter name="SON">Off</parameter></Optic_Parameters_><FT_-_Parameters_><parameter name="APF">B3</parameter><parameter name="HFQ">500</parameter><parameter name="LFQ">4000</parameter><parameter name="NLI">0</parameter><parameter name="PHR">24</parameter><parameter name="PHZ">ML</parameter><parameter name="SPZ">NO</parameter><parameter name="ZFF">1</parameter></FT_-_Parameters_><Acquisition_Parameters_><parameter name="ADT">1</parameter><parameter name="AQM">DD</parameter><parameter name="CFE">0</parameter><parameter name="COR">0</parameter><parameter name="DEL">0</parameter><parameter name="DLY">0</parameter><parameter name="HFW">8000</parameter><parameter name="LFW">0</parameter><parameter name="NSS">32</parameter><parameter name="PLF">AB</parameter><parameter name="RES">6</parameter><parameter name="SOT">0</parameter><parameter name="TCL">MakeCompatibleScalar (0, {WSV=1.000000, ARV=0});</parameter><parameter name="TDL">37</parameter><parameter name="SPO">0</parameter><parameter name="SGN">-1</parameter></Acquisition_Parameters_><Instrument_Parameters_Rf><parameter name="HFL">15800.168544</parameter><parameter name="LFL">0</parameter><parameter name="LWN">15800.168544</parameter><parameter name="ABP">32197</parameter><parameter name="SSP">1</parameter><parameter name="ARG">2</parameter><parameter name="ASG">2</parameter><parameter name="ASS">32</parameter><parameter name="GFW">16</parameter><parameter name="GBW">16</parameter><parameter name="BFW">0</parameter><parameter name="BBW">0</parameter><parameter name="PKA">7261</parameter><parameter name="PKL">4996</parameter><parameter name="PRA">7447</parameter><parameter name="PRL">5001</parameter><parameter name="P2A">1</parameter><parameter name="P2L">1</parameter><parameter name="P2R">1</parameter><parameter name="P2K">1</parameter><parameter name="DAQ">0</parameter><parameter name="AG2">1</parameter><parameter name="SSM">1</parameter><parameter name="RSN">25521</parameter><parameter name="CRR">0</parameter><parameter name="SRT">1653998226.099</parameter><parameter name="DUR">19.6379852294922</parameter><parameter name="TSC">28.9</parameter><parameter name="MVD">0.269280940294266</parameter><parameter name="AN1">0.225815211676627</parameter><parameter name="AN2">0</parameter><parameter name="VSN">2.485 Apr  4 2017</parameter><parameter name="SRN">0085</parameter><parameter name="CAM">0</parameter><parameter name="INS">IR-Biotyper</parameter><parameter name="FOC">69</parameter><parameter name="RDY">1</parameter><parameter name="ARS">32</parameter></Instrument_Parameters_Rf><Sample_Parameters_><parameter name="BLD"></parameter><parameter name="CNM">Admin</parameter><parameter name="CPY"></parameter><parameter name="DPM"></parameter><parameter name="EXP">IRBT_v3_32Scans.XPM</parameter><parameter name="LCT"></parameter><parameter name="SFM">Microplate, HTS-XT</parameter><parameter name="SNM">220531-1021(v.3)_AGF29F (D_1)_F11_7e0e1a67-af5a-430e-8894-f23309113efd.0</parameter><parameter name="XPP">C:\Users\Public\Documents\Bruker\OPUS_8.2.28\XPM</parameter><parameter name="IST">OK</parameter><parameter name="CPG">1252</parameter><parameter name="UID">7412754b-8a8c-4de1-baff-1a52f3b532f6</parameter></Sample_Parameters_><Instrument_Parameters_><parameter name="HFL">15800.168544</parameter><parameter name="LFL">0</parameter><parameter name="LWN">15800.168544</parameter><parameter name="ABP">32197</parameter><parameter name="SSP">1</parameter><parameter name="ASG">2</parameter><parameter name="ARG">2</parameter><parameter name="ASS">32</parameter><parameter name="GFW">16</parameter><parameter name="GBW">16</parameter><parameter name="BFW">0</parameter><parameter name="BBW">0</parameter><parameter name="PKA">6679</parameter><parameter name="PKL">4988</parameter><parameter name="PRA">6964</parameter><parameter name="PRL">4993</parameter><parameter name="P2A">1</parameter><parameter name="P2L">1</parameter><parameter name="P2R">1</parameter><parameter name="P2K">1</parameter><parameter name="DAQ">0</parameter><parameter name="AG2">1</parameter><parameter name="SSM">1</parameter><parameter name="RSN">13386</parameter><parameter name="CRR">0</parameter><parameter name="SRT">1653998253.011</parameter><parameter name="DUR">19.6369934082031</parameter><parameter name="TSC">28.9</parameter><parameter name="MVD">0.348802804946899</parameter><parameter name="AN1">0.225798421498848</parameter><parameter name="AN2">0</parameter><parameter name="VSN">2.485 Apr  4 2017</parameter><parameter name="SRN">0085</parameter><parameter name="CAM">0</parameter><parameter name="INS">IR-Biotyper</parameter><parameter name="FOC">69</parameter><parameter name="RDY">1</parameter></Instrument_Parameters_><History/></OPUSDataFile>
