<?xml version="1.0" encoding="UTF-8" ?>
<OPUSDataFile><AB><Ydata ylabel="Absorbance Units"><values byteorder="INTEL" format="FLOAT32" numvalues="3497"> -0.07408906 -0.0741211 -0.07414915 -0.07417447 -0.07417752 -0.07415731 -0.07410982 -0.07403648 -0.07395341 -0.07386334
 -0.07379089 -0.07373589 -0.07371246 -0.07371528 -0.07373953 -0.0737794 -0.07382244 -0.073868 -0.07390987 -0.07395124
 -0.07399312 -0.07403658 -0.074083 -0.07413056 -0.07417897 -0.07422651 -0.07427289 -0.07431616 -0.0743563 -0.07438923
 -0.07441459 -0.074429 -0.07443226 -0.07442544 -0.07440881 -0.07438588 -0.07435721 -0.0743276 -0.07429809 -0.07427493
 -0.07425883 -0.07425521 -0.07426247 -0.07428111 -0.07430756 -0.07433807 -0.07436975 -0.07439905 -0.07442484 -0.07444597
 -0.07446079 -0.07446893 -0.07446717 -0.07445417 -0.07443053 -0.07439501 -0.07435752 -0.07431845 -0.07429221 -0.07427964
 -0.07428712 -0.07431392 -0.07435181 -0.0743992 -0.07444195 -0.07448033 -0.07450762 -0.07452536 -0.07453418 -0.07453477
 -0.07452793 -0.07451565 -0.07449939 -0.07448409 -0.07447437 -0.07447235 -0.07448203 -0.07449754 -0.07451846 -0.07453608
 -0.07454734 -0.07455133 -0.07454652 -0.07454095 -0.07453489 -0.07453991 -0.07455672 -0.07459326 -0.07464922 -0.07472315
 -0.0748122 -0.07489972 -0.07498084 -0.07502738 -0.07504038 -0.07500406 -0.07493189 -0.07483704 -0.07473652 -0.07465649
 -0.07460298 -0.07459391 -0.074614 -0.07466403 -0.07471406 -0.07475083 -0.07476461 -0.07474536 -0.07472004 -0.07469095
 -0.07468498 -0.07470707 -0.07474613 -0.0748019 -0.07484292 -0.07486928 -0.07487555 -0.07486585 -0.07486405 -0.07487167
 -0.07490911 -0.07497024 -0.07505242 -0.0751443 -0.07522509 -0.07528878 -0.07531754 -0.0753179 -0.07528838 -0.0752387
 -0.07517379 -0.07510038 -0.07501991 -0.07494583 -0.07487919 -0.07484357 -0.07484244 -0.07489707 -0.07501195 -0.0751777
 -0.07539467 -0.07557385 -0.07571003 -0.07569844 -0.07555443 -0.0753236 -0.07502729 -0.07477355 -0.07456212 -0.07444792
 -0.07441796 -0.07448072 -0.07460739 -0.07477245 -0.07493874 -0.07506344 -0.07513876 -0.07513967 -0.07510321 -0.07503767
 -0.07497361 -0.07492542 -0.07488255 -0.07484609 -0.07479842 -0.07473616 -0.07466979 -0.07459957 -0.07455429 -0.07453468
 -0.07455736 -0.07461926 -0.07471044 -0.07482446 -0.07493199 -0.07502861 -0.07508694 -0.07511027 -0.07509004 -0.07503603
 -0.07495505 -0.07485926 -0.07475987 -0.07466786 -0.07459205 -0.07453959 -0.07451592 -0.0745209 -0.07455707 -0.07461457
 -0.07469345 -0.07477632 -0.07486212 -0.0749295 -0.07497712 -0.07498673 -0.07495845 -0.07489203 -0.07479031 -0.0746716
 -0.07453879 -0.07441241 -0.0742937 -0.07419613 -0.07411961 -0.07407165 -0.07404699 -0.07404549 -0.07405263 -0.07405762
 -0.074046 -0.07400292 -0.0739343 -0.07383433 -0.07373121 -0.07363027 -0.07355735 -0.07351948 -0.07351879 -0.07355721
 -0.07362135 -0.07371056 -0.07381192 -0.07392461 -0.07403502 -0.07414135 -0.07422425 -0.07428309 -0.07430314 -0.07428941
 -0.07424551 -0.07418054 -0.07411186 -0.07404628 -0.07399969 -0.07397278 -0.07397148 -0.07399435 -0.0740407 -0.07411439
 -0.07421762 -0.07434987 -0.07451623 -0.07468963 -0.07486928 -0.07501096 -0.0751089 -0.07514503 -0.07511763 -0.07502893
 -0.07487942 -0.07467403 -0.07441809 -0.07414835 -0.07387427 -0.07365449 -0.07349109 -0.07342353 -0.07343858 -0.07353958
 -0.07368996 -0.07384715 -0.07398096 -0.07404152 -0.07404671 -0.07398903 -0.07390378 -0.07380512 -0.07370976 -0.07362706
 -0.07355297 -0.07348925 -0.07342229 -0.0733504 -0.07326828 -0.0731752 -0.07308233 -0.0729908 -0.07292184 -0.07287618
 -0.07287171 -0.07290331 -0.07296476 -0.07304054 -0.07308465 -0.07309148 -0.07302046 -0.07289805 -0.07273985 -0.07257249
 -0.07242968 -0.07230907 -0.07222323 -0.07214808 -0.07207695 -0.07199074 -0.07187961 -0.07175071 -0.07160217 -0.07145394
 -0.07130858 -0.07117412 -0.07105156 -0.07093087 -0.07081166 -0.07068548 -0.0705542 -0.07042838 -0.07030858 -0.07020408
 -0.07011096 -0.07002184 -0.06993739 -0.0698537 -0.06977717 -0.0697163 -0.06966981 -0.069645 -0.06962142 -0.06959109
 -0.06953106 -0.06942733 -0.06927861 -0.06908185 -0.06883946 -0.06855194 -0.06821704 -0.06783328 -0.06741367 -0.06695859
 -0.06649387 -0.06602097 -0.06556582 -0.06513 -0.06473809 -0.0643896 -0.06409861 -0.06385742 -0.06365397 -0.06347845
 -0.06330567 -0.06313452 -0.06295499 -0.06276404 -0.06256216 -0.06232599 -0.06204042 -0.06169355 -0.06126722 -0.06079902
 -0.06029455 -0.05979083 -0.05929821 -0.05882053 -0.05836001 -0.05790868 -0.05746599 -0.05703109 -0.0566045 -0.05619821
 -0.0558125 -0.05545888 -0.05513046 -0.0548095 -0.05447844 -0.05407557 -0.05360067 -0.05301018 -0.05235001 -0.05166227
 -0.05098275 -0.05036747 -0.04980374 -0.04930357 -0.04883566 -0.04838995 -0.0479424 -0.04748207 -0.04700669 -0.04651269
 -0.04601219 -0.04550699 -0.04499826 -0.0444868 -0.04395097 -0.04338967 -0.04277968 -0.04212357 -0.04142861 -0.04070196
 -0.03997774 -0.03926127 -0.03858541 -0.03794942 -0.03737099 -0.03683679 -0.03634121 -0.03585921 -0.03536456 -0.03484621
 -0.03428342 -0.03369651 -0.0330893 -0.03247898 -0.03187666 -0.03126383 -0.03063957 -0.02998105 -0.02928192 -0.02856625
 -0.0278345 -0.02713412 -0.02646628 -0.02584544 -0.02526806 -0.02471325 -0.02417685 -0.02362872 -0.0230697 -0.0224839
 -0.02188055 -0.02126955 -0.02065918 -0.02006868 -0.01948986 -0.01892648 -0.01835541 -0.01776215 -0.01713458 -0.01645829
 -0.01575266 -0.0150176 -0.01428437 -0.01355926 -0.01286121 -0.01219423 -0.01155932 -0.01095743 -0.01036843 -0.00979098
 -0.009196927 -0.008586582 -0.007949085 -0.007287708 -0.006611674 -0.005922289 -0.005227855 -0.004528229 -0.003824924 -0.003123
 -0.002428422 -0.00174923 -0.001096791 -0.0004699258 0.0001256868 0.0007040899 0.001269192 0.001835061 0.002408916 0.00298743
 0.003573103 0.004147511 0.004707888 0.005248769 0.005768768 0.006289292 0.006811415 0.00735738 0.007925226 0.008508598
 0.009103944 0.009689789 0.01026913 0.01083828 0.01140448 0.01198211 0.01257092 0.01318056 0.01379695 0.01441248
 0.01500921 0.01557039 0.01609611 0.01657634 0.01703976 0.0174905 0.01796263 0.01846563 0.01900718 0.01959137
 0.02019979 0.02083169 0.02146446 0.02209704 0.02271215 0.02330949 0.023878 0.02441924 0.02493324 0.02542373
 0.02590127 0.02636895 0.02683836 0.02730932 0.02778771 0.02826849 0.02874928 0.02922485 0.02968807 0.03014686
 0.0306001 0.03106695 0.03155611 0.03206521 0.03260002 0.03312329 0.03363034 0.03409901 0.03452531 0.03494859
 0.03537143 0.03585549 0.03639814 0.03700666 0.03766773 0.03832312 0.03896381 0.03952821 0.04002702 0.04044791
 0.0408154 0.04115955 0.04149451 0.04184958 0.04221433 0.04259139 0.04296644 0.04332887 0.04368894 0.04404486
 0.0444205 0.04482233 0.04525433 0.04571979 0.04619921 0.04669159 0.0471757 0.04765072 0.04810661 0.04854498
 0.04897423 0.04939919 0.04984773 0.05032178 0.05084591 0.05140887 0.05200316 0.05260922 0.0531951 0.05375212
 0.05425731 0.05471857 0.05513403 0.05551337 0.05586177 0.0561807 0.05647074 0.05673613 0.05697532 0.05720754
 0.057434 0.05767957 0.05794656 0.05824479 0.05857444 0.05892934 0.05930948 0.05971278 0.06014 0.06059667
 0.06107788 0.06157499 0.06207558 0.06254897 0.06298993 0.06337184 0.06371273 0.06401543 0.06431276 0.06463014
 0.06498054 0.06538497 0.06581128 0.06625853 0.06667589 0.06704868 0.06736806 0.06762639 0.06786919 0.06809964
 0.06835046 0.06862184 0.06887881 0.06911749 0.06928267 0.0693818 0.06941819 0.06941019 0.06941676 0.06944729
 0.06955343 0.06972551 0.06997542 0.07028028 0.07062402 0.07098199 0.0713297 0.07166285 0.07196528 0.07227202
 0.07258754 0.07295647 0.07339612 0.07389075 0.07444832 0.07497638 0.0754689 0.07583904 0.07608415 0.07621245
 0.07623247 0.07623178 0.07621399 0.07624602 0.07631734 0.07642692 0.07657164 0.07673793 0.07694352 0.07721253
 0.07754719 0.0779728 0.07844143 0.07893335 0.079392 0.07977493 0.08009252 0.08032811 0.0805537 0.08078215
 0.08106522 0.08141702 0.08181807 0.08227024 0.08270782 0.0831275 0.08346825 0.08373104 0.08389778 0.08397906
 0.08401396 0.08401991 0.08407201 0.08417995 0.08440652 0.08473683 0.0851851 0.08570797 0.08627234 0.08682784
 0.08732523 0.08774924 0.08806901 0.08832877 0.0885293 0.08874207 0.08898358 0.0892957 0.08968873 0.09016301
 0.0907197 0.09135076 0.0920558 0.09283005 0.09366939 0.09453614 0.09541568 0.0962144 0.09691912 0.0974293
 0.09776336 0.09789683 0.09789089 0.09781907 0.09774642 0.09777716 0.09791515 0.09821378 0.09859477 0.09904505
 0.0994573 0.09979186 0.09998722 0.1000143 0.09989572 0.09962368 0.09928595 0.098888 0.09851886 0.09818258
 0.09791057 0.0976995 0.0975254 0.09738509 0.09724861 0.0971192 0.09699242 0.09687101 0.09676392 0.096659
 0.09655086 0.09640312 0.0961819 0.0958428 0.09533784 0.09466188 0.09378427 0.09277424 0.09163685 0.09048048
 0.0893295 0.08825894 0.08728591 0.08642557 0.0856824 0.0850322 0.08447342 0.08395184 0.08346316 0.08293911
 0.08238268 0.08176833 0.08111352 0.08046364 0.07982802 0.07925911 0.0787323 0.07823741 0.07773875 0.07718609
 0.07658443 0.07590877 0.07521545 0.07452089 0.07388747 0.07334439 0.07290791 0.0725957 0.07235752 0.07219453
 0.07201344 0.07180655 0.07150097 0.07109331 0.07058401 0.06997873 0.06933998 0.06867425 0.06804924 0.06746504
 0.06695893 0.06652452 0.0661689 0.06587827 0.06563821 0.06542809 0.06522137 0.06500244 0.06474917 0.06446302
 0.06413613 0.06378482 0.06341174 0.06303511 0.06265961 0.06229644 0.06194877 0.0616152 0.0612965 0.06097962
 0.06066385 0.0603334 0.05998818 0.05962101 0.05923388 0.05883282 0.05842183 0.05801739 0.05762232 0.05725284
 0.05690487 0.05658199 0.05627157 0.05596273 0.05564187 0.05529404 0.05491652 0.05450074 0.05406057 0.05359665
 0.05313105 0.05266932 0.05222442 0.05180062 0.05139158 0.05099767 0.05060363 0.05020871 0.04980632 0.04939696
 0.04898487 0.04857019 0.04815636 0.04774191 0.04732363 0.04690019 0.04646648 0.04602338 0.04556928 0.04510747
 0.04463932 0.0441724 0.04370948 0.04326701 0.04285084 0.04248465 0.04217943 0.041944 0.04178974 0.04167727
 0.04160864 0.04149913 0.04134159 0.04106742 0.04067295 0.04016991 0.03956539 0.03894809 0.03832671 0.0377996
 0.03736176 0.03705534 0.03685469 0.03672746 0.03663855 0.03651533 0.0363442 0.03607149 0.03573063 0.03532191
 0.03490303 0.03450857 0.03415895 0.03387773 0.03362936 0.03340941 0.03318812 0.03295409 0.03274053 0.03254712
 0.03244004 0.03242277 0.03251167 0.03270065 0.03291938 0.03315572 0.03330026 0.03335346 0.03325059 0.03301785
 0.03267788 0.03226915 0.03186694 0.03148538 0.03117784 0.0309179 0.03070413 0.03050533 0.03029712 0.03008922
 0.02987495 0.02968907 0.02954271 0.02943783 0.02938036 0.02933333 0.02929312 0.02924123 0.02917649 0.02912818
 0.02909822 0.02912168 0.02919453 0.02931229 0.02946647 0.0296239 0.02978121 0.02991273 0.03002244 0.03010565
 0.03016647 0.03021099 0.030232 0.03023113 0.03018427 0.03008017 0.02989743 0.02961822 0.02926482 0.0288292
 0.02839005 0.02795579 0.02760693 0.02735541 0.02720609 0.02715999 0.02713435 0.02712367 0.0270313 0.02686166
 0.02658702 0.02622621 0.02583086 0.02541758 0.02505564 0.02474107 0.02450291 0.02431878 0.02417604 0.02405101
 0.02392036 0.02377182 0.02358998 0.02338046 0.02313725 0.02288844 0.02263759 0.02241898 0.02224186 0.02210371
 0.02200863 0.02190073 0.02177705 0.02158444 0.021325 0.02101605 0.02066683 0.02034682 0.02005384 0.0198227
 0.01963248 0.0194485 0.01925799 0.01901524 0.01874122 0.01843699 0.01813959 0.01788185 0.01767838 0.01754981
 0.01748532 0.01748417 0.01754102 0.01765221 0.01782754 0.01806936 0.0183765 0.01875151 0.0191596 0.01959909
 0.0200106 0.02039133 0.02068887 0.02090527 0.02102398 0.0210543 0.02101989 0.02093182 0.02082906 0.02071676
 0.02062105 0.02054235 0.02048964 0.02046623 0.0204759 0.02052623 0.02062201 0.02076919 0.02097139 0.02123009
 0.02154577 0.02192137 0.02235569 0.02286316 0.02344321 0.02413137 0.02492951 0.02588705 0.02700531 0.02831488
 0.02980987 0.03147174 0.0332875 0.03519951 0.03719787 0.03922725 0.04128987 0.04336124 0.0454565 0.04757998
 0.04975701 0.05200497 0.05435653 0.05683139 0.05946101 0.06226316 0.06524935 0.06843189 0.07178157 0.07530259
 0.07891776 0.08262404 0.08631045 0.08997078 0.09347534 0.09681502 0.09983804 0.1025313 0.1047294 0.1064334
 0.1075375 0.1080984 0.1081714 0.1078878 0.1074746 0.1070873 0.1070013 0.1073042 0.1081752 0.1095857
 0.1115826 0.1140638 0.1170048 0.1203096 0.123949 0.1278641 0.1320414 0.1364449 0.1410699 0.1458906
 0.150905 0.1560943 0.1614575 0.1669805 0.1726633 0.1785007 0.1844917 0.1906379 0.1969222 0.2033239
 0.2097755 0.2161975 0.222409 0.2282459 0.2333177 0.2373471 0.2397359 0.2400881 0.2379602 0.2329713
 0.2254177 0.215146 0.2033188 0.1900333 0.1767134 0.1635196 0.1514083 0.140454 0.1308938 0.122713
 0.1156613 0.109701 0.1044653 0.09993423 0.09584059 0.0921751 0.08878597 0.08565854 0.08270204 0.07990111
 0.07719957 0.07459772 0.07207274 0.06964564 0.06731937 0.06512244 0.06306596 0.06117173 0.05944695 0.05790707
 0.05655438 0.05540778 0.05446823 0.05376456 0.05329854 0.05309861 0.05316395 0.05348668 0.05405449 0.0547852
 0.05565529 0.05652587 0.05738662 0.05812693 0.05878219 0.05934633 0.05990459 0.06054655 0.06137482 0.06250149
 0.06400533 0.06596423 0.0684106 0.07137582 0.07486356 0.07887443 0.08343858 0.08855963 0.09428462 0.1006405
 0.1074397 0.1146869 0.1215238 0.1278659 0.1321409 0.1342779 0.1329052 0.1282395 0.1202903 0.1095818
 0.09744811 0.08436006 0.07180617 0.0599212 0.04951178 0.04040704 0.03275597 0.02627187 0.02083495 0.01620191
 0.01225151 0.008824772 0.005860662 0.003251415 0.0009721963 -0.001059961 -0.002855788 -0.004478839 -0.005933857 -0.007264769
 -0.008473226 -0.009585911 -0.01060381 -0.01154624 -0.01241531 -0.01323081 -0.01399278 -0.01471314 -0.01538679 -0.0160087
 -0.01657786 -0.01708545 -0.01754856 -0.01797449 -0.01839178 -0.0188216 -0.01927454 -0.01976662 -0.02027152 -0.02078943
 -0.02127512 -0.02171913 -0.02209912 -0.02240828 -0.02267166 -0.02288976 -0.02311349 -0.02334441 -0.02361035 -0.02390742
 -0.02421964 -0.02454316 -0.02485046 -0.02514766 -0.02543564 -0.02572532 -0.02604062 -0.02637945 -0.02675369 -0.02714411
 -0.02753924 -0.02791953 -0.02826811 -0.02858035 -0.02884855 -0.02908062 -0.02927566 -0.02944901 -0.02960179 -0.02975567
 -0.029913 -0.03009205 -0.03029455 -0.03052049 -0.03076914 -0.03102384 -0.03128353 -0.03153242 -0.03177128 -0.03199491
 -0.03220483 -0.03240257 -0.03258914 -0.03276719 -0.03293683 -0.03310033 -0.0332543 -0.03339778 -0.03352392 -0.033628
 -0.03370659 -0.03375446 -0.03378163 -0.0337868 -0.03379426 -0.03380701 -0.03385138 -0.03393168 -0.03405583 -0.0342254
 -0.03441861 -0.03463366 -0.03483339 -0.03501735 -0.03516307 -0.03527563 -0.03536364 -0.03543448 -0.03551447 -0.03560376
 -0.03571821 -0.03584632 -0.03598086 -0.03610809 -0.03620972 -0.03628833 -0.0363348 -0.03637398 -0.03641248 -0.03647635
 -0.03657724 -0.03671614 -0.03689807 -0.03709962 -0.0373192 -0.03753238 -0.03773709 -0.03792546 -0.03809756 -0.03825837
 -0.03840835 -0.03855312 -0.0386926 -0.0388289 -0.03896293 -0.03909796 -0.0392358 -0.03938241 -0.03953611 -0.03969921
 -0.03986361 -0.04002345 -0.04017037 -0.04029592 -0.04040099 -0.04048221 -0.04054929 -0.040604 -0.04065555 -0.04070628
 -0.04075985 -0.04081688 -0.04088009 -0.04094963 -0.04102961 -0.04112006 -0.04122083 -0.04133049 -0.04143786 -0.04154073
 -0.04162191 -0.0416832 -0.04171838 -0.04173603 -0.04174911 -0.04176594 -0.04180513 -0.04186495 -0.0419526 -0.04205723
 -0.04217434 -0.04229451 -0.04241174 -0.04252403 -0.04262897 -0.04272981 -0.04282638 -0.04292461 -0.04302526 -0.04313207
 -0.04324562 -0.04336065 -0.04347674 -0.04358429 -0.04368369 -0.04377375 -0.04385621 -0.04393902 -0.04402189 -0.04410899
 -0.04419704 -0.04428075 -0.04435969 -0.04442945 -0.04449545 -0.04456092 -0.04463109 -0.04471189 -0.04480037 -0.04489814
 -0.04499589 -0.04509098 -0.04517761 -0.04525305 -0.04532187 -0.04538363 -0.04544944 -0.04552007 -0.04560418 -0.04570193
 -0.04581279 -0.04593582 -0.04606295 -0.04619336 -0.04631855 -0.04643955 -0.04655457 -0.04666593 -0.04677768 -0.04689065
 -0.04700868 -0.04712869 -0.04724965 -0.04736709 -0.04747716 -0.04757924 -0.04767095 -0.04775744 -0.04783921 -0.04792318
 -0.04801112 -0.04810566 -0.04820788 -0.04831399 -0.04842393 -0.04853098 -0.04863488 -0.04873164 -0.04882158 -0.04890555
 -0.04898426 -0.04906137 -0.04913747 -0.04921629 -0.04929777 -0.0493841 -0.0494735 -0.04956482 -0.04965535 -0.0497417
 -0.04982335 -0.04989816 -0.04996929 -0.05003743 -0.05010607 -0.05017678 -0.05025017 -0.05032697 -0.05040497 -0.05048414
 -0.05056121 -0.05063596 -0.05070503 -0.05076831 -0.05082532 -0.05087668 -0.05092758 -0.05097905 -0.05103911 -0.05110763
 -0.0511888 -0.0512808 -0.05138223 -0.05149063 -0.0516023 -0.05171465 -0.0518245 -0.05192842 -0.05202353 -0.05210666
 -0.05217504 -0.05222954 -0.0522689 -0.05229921 -0.05232116 -0.05234158 -0.05236147 -0.05238488 -0.05241212 -0.05244728
 -0.05249062 -0.05254773 -0.05261835 -0.05270338 -0.05280044 -0.05289898 -0.05299596 -0.05307559 -0.0531389 -0.0531787
 -0.05320171 -0.05321382 -0.05322228 -0.05323721 -0.05326005 -0.05329604 -0.05334032 -0.05339253 -0.05344608 -0.05349874
 -0.05354663 -0.05358799 -0.05362433 -0.05365507 -0.05368715 -0.05372098 -0.05376429 -0.05381738 -0.0538817 -0.0539566
 -0.05403645 -0.05412063 -0.05420301 -0.05428374 -0.05436021 -0.05443258 -0.05449979 -0.0545623 -0.0546197 -0.05467428
 -0.05472779 -0.05478317 -0.0548434 -0.05490854 -0.05497984 -0.05505477 -0.05513275 -0.05521201 -0.05529215 -0.05537187
 -0.05545127 -0.05552661 -0.05559764 -0.05566054 -0.0557152 -0.05576302 -0.05580467 -0.05584697 -0.0558904 -0.05594137
 -0.05599916 -0.0560652 -0.0561379 -0.05621462 -0.05629444 -0.0563749 -0.05645585 -0.05653678 -0.05661613 -0.05669335
 -0.05676506 -0.05682915 -0.05688508 -0.05693103 -0.05697306 -0.05701155 -0.05705493 -0.05710466 -0.05716394 -0.05723335
 -0.05731017 -0.05739421 -0.05747981 -0.05756651 -0.05764757 -0.05772237 -0.05778375 -0.05783218 -0.05786435 -0.05788358
 -0.05789436 -0.05790195 -0.05791625 -0.05793982 -0.05798009 -0.05803392 -0.05810209 -0.05817884 -0.05826128 -0.0583468
 -0.05843404 -0.05852164 -0.05861004 -0.05869257 -0.05876885 -0.05882931 -0.05887276 -0.05889888 -0.05890784 -0.05891281
 -0.05891475 -0.05892928 -0.0589554 -0.05899692 -0.05905056 -0.05910769 -0.0591664 -0.05921711 -0.05926296 -0.05930346
 -0.05934481 -0.05939409 -0.05945291 -0.05952663 -0.05960807 -0.05969634 -0.05978059 -0.05985658 -0.05991941 -0.05996618
 -0.06000132 -0.06002438 -0.06004547 -0.06006534 -0.06009271 -0.06012797 -0.06017229 -0.06022503 -0.06027963 -0.06033522
 -0.0603836 -0.06042514 -0.06045615 -0.06047866 -0.06049481 -0.06050763 -0.06052258 -0.06054169 -0.06056972 -0.06060539
 -0.06065003 -0.06069936 -0.06075191 -0.06080346 -0.06085228 -0.0608959 -0.06093333 -0.06096426 -0.06098811 -0.06100875
 -0.06102627 -0.06104744 -0.06107259 -0.06110572 -0.06114672 -0.06119526 -0.06125184 -0.06131837 -0.0613967 -0.061494
 -0.06161149 -0.06175581 -0.06192597 -0.06212341 -0.0623468 -0.06259427 -0.06286811 -0.06316749 -0.06350088 -0.06387001
 -0.06428978 -0.06476443 -0.0653094 -0.06593022 -0.06662908 -0.0674105 -0.06824508 -0.06913297 -0.07001194 -0.07087857
 -0.07166456 -0.07236826 -0.07295099 -0.0734119 -0.07373125 -0.07389835 -0.07386754 -0.07362887 -0.0731183 -0.07238296
 -0.07144482 -0.07041063 -0.0694046 -0.06849301 -0.06777167 -0.06723904 -0.06692076 -0.06679296 -0.066857 -0.06707416
 -0.06744644 -0.06788447 -0.06838215 -0.06881636 -0.06917303 -0.06941249 -0.06953276 -0.06958546 -0.06957202 -0.06952459
 -0.0694392 -0.06930815 -0.0691315 -0.06890254 -0.06863022 -0.06832936 -0.06801274 -0.06770738 -0.06741892 -0.06716625
 -0.06694201 -0.06674819 -0.06657197 -0.06640652 -0.06624644 -0.06608688 -0.06593286 -0.06578422 -0.06564846 -0.06552716
 -0.06542164 -0.06533271 -0.06525194 -0.06517887 -0.06510013 -0.06501549 -0.06491817 -0.06480947 -0.06469316 -0.06457103
 -0.06445085 -0.0643342 -0.06422818 -0.06413443 -0.06405923 -0.06400169 -0.06396483 -0.06394244 -0.06393156 -0.06392507
 -0.06391773 -0.06390844 -0.06389484 -0.0638813 -0.06386858 -0.0638593 -0.06385443 -0.06385145 -0.06385041 -0.06384632
 -0.06383892 -0.06382646 -0.06380942 -0.06379292 -0.06377771 -0.06377123 -0.06377245 -0.06378223 -0.06379833 -0.06381514
 -0.06383345 -0.063851 -0.06387198 -0.06390108 -0.06393855 -0.06398813 -0.06404216 -0.06409822 -0.06414826 -0.06418785
 -0.06421708 -0.0642343 -0.06424586 -0.06425256 -0.06425888 -0.06426549 -0.06427238 -0.06427957 -0.06428526 -0.06428941
 -0.06429122 -0.06429057 -0.0642861 -0.06427773 -0.06426374 -0.06424563 -0.06422518 -0.06420586 -0.06419437 -0.06419197
 -0.06420422 -0.06422614 -0.06425676 -0.06428839 -0.06431614 -0.06433721 -0.06434879 -0.0643535 -0.06435135 -0.06434542
 -0.06433631 -0.06432485 -0.06431112 -0.06429645 -0.0642809 -0.0642677 -0.06425704 -0.06425244 -0.06425369 -0.06426165
 -0.06427554 -0.06429323 -0.06431393 -0.06433465 -0.06435532 -0.06437449 -0.06439264 -0.0644098 -0.0644263 -0.06444259
 -0.06445823 -0.06447376 -0.06448618 -0.06449516 -0.06449555 -0.06448556 -0.06446426 -0.06443004 -0.06439213 -0.06435081
 -0.06432012 -0.0643009 -0.06429933 -0.06431484 -0.06434102 -0.06437674 -0.06441183 -0.06444632 -0.06447479 -0.06449826
 -0.06451662 -0.0645301 -0.06453927 -0.06454361 -0.06454252 -0.06453632 -0.06452438 -0.06450928 -0.06449172 -0.06447554
 -0.0644622 -0.06445473 -0.06445451 -0.06446145 -0.06447631 -0.06449438 -0.06451546 -0.06453296 -0.06454644 -0.06455402
 -0.06455612 -0.06455886 -0.06456279 -0.0645751 -0.06459471 -0.06462192 -0.06465454 -0.06468742 -0.06471916 -0.06474508
 -0.0647651 -0.0647772 -0.06478216 -0.06477913 -0.06477145 -0.06475978 -0.06475003 -0.06474464 -0.06474715 -0.06475987
 -0.06477904 -0.06480501 -0.06482945 -0.06485154 -0.06486537 -0.06487053 -0.0648668 -0.06485445 -0.06483696 -0.0648148
 -0.0647923 -0.06477002 -0.06475245 -0.06473958 -0.06473418 -0.06473469 -0.06474008 -0.06474797 -0.06475441 -0.06476001
 -0.06476291 -0.06476752 -0.06477595 -0.06479076 -0.0648149 -0.06484267 -0.06487415 -0.06489903 -0.06491512 -0.06491923
 -0.06491008 -0.06489638 -0.06487854 -0.06486821 -0.06486548 -0.06487332 -0.0648907 -0.06491238 -0.06493784 -0.06496233
 -0.0649863 -0.06500883 -0.06502952 -0.06504739 -0.06506156 -0.06507001 -0.06507406 -0.06507348 -0.06507168 -0.06507068
 -0.06507206 -0.06507749 -0.06508476 -0.06509393 -0.06510142 -0.06510659 -0.06510752 -0.06510375 -0.06509658 -0.06508603
 -0.06507584 -0.0650662 -0.06506025 -0.06505796 -0.06506049 -0.0650678 -0.06508058 -0.06509831 -0.06512071 -0.06514578
 -0.06517019 -0.06519181 -0.06520583 -0.06521398 -0.0652151 -0.06521428 -0.06521434 -0.06521779 -0.06522701 -0.06523944
 -0.06525487 -0.06527083 -0.06528639 -0.06530375 -0.06532298 -0.06534714 -0.06537651 -0.06540779 -0.06544046 -0.06546459
 -0.06548002 -0.06548012 -0.06546707 -0.06544537 -0.06541812 -0.06539606 -0.0653793 -0.06537351 -0.06537614 -0.06538612
 -0.06540191 -0.06542169 -0.06544517 -0.06547239 -0.06550088 -0.06553009 -0.0655564 -0.06557833 -0.06559573 -0.06560802
 -0.06561823 -0.06562664 -0.06563581 -0.06564594 -0.06565733 -0.06566995 -0.06568342 -0.0656976 -0.06571131 -0.06572437
 -0.06573524 -0.06574415 -0.06575055 -0.06575543 -0.06576017 -0.06576601 -0.06577528 -0.06578793 -0.0658054 -0.06582499
 -0.06584575 -0.06586482 -0.06588028 -0.06589289 -0.06590199 -0.06591137 -0.0659218 -0.06593448 -0.06594998 -0.06596451
 -0.06597791 -0.06598555 -0.06598742 -0.065983 -0.06597292 -0.06596102 -0.06594792 -0.06593825 -0.06593199 -0.06593157
 -0.06593628 -0.06594617 -0.06596015 -0.06597701 -0.06599568 -0.06601477 -0.06603387 -0.06605208 -0.06607041 -0.06608894
 -0.06610917 -0.06613192 -0.06615594 -0.06618143 -0.06620499 -0.06622621 -0.06624339 -0.06625632 -0.06626657 -0.0662742
 -0.06628084 -0.06628636 -0.06629062 -0.06629322 -0.06629249 -0.06628803 -0.06627768 -0.06626198 -0.06624031 -0.06621503
 -0.06618856 -0.06616358 -0.06614337 -0.06612889 -0.0661217 -0.06612152 -0.06612881 -0.06614213 -0.06616192 -0.06618334
 -0.06620607 -0.06622318 -0.06623366 -0.06623511 -0.06622719 -0.06621432 -0.06619681 -0.06618062 -0.06616575 -0.06615499
 -0.06614798 -0.06614476 -0.06614509 -0.06614843 -0.06615475 -0.06616408 -0.06617559 -0.0661888 -0.06620134 -0.06621125
 -0.06621597 -0.06621293 -0.06620245 -0.06618346 -0.06615927 -0.06613036 -0.06610037 -0.06606989 -0.06604227 -0.06601793
 -0.06599935 -0.06598682 -0.06597842 -0.06597397 -0.06596877 -0.0659632 -0.06595735 -0.06595235 -0.06595357 -0.06596056
 -0.06597578 -0.06599616 -0.06601743 -0.06603641 -0.06604692 -0.06604808 -0.06603615 -0.06601392 -0.0659809 -0.06594378
 -0.06590487 -0.06587029 -0.06584288 -0.06582259 -0.06581058 -0.06580063 -0.06579233 -0.06577911 -0.06576044 -0.06573393
 -0.06569973 -0.06566184 -0.06562107 -0.06558573 -0.0655561 -0.06553838 -0.06553086 -0.06553245 -0.0655406 -0.06554985
 -0.06555912 -0.06556469 -0.06556661 -0.06556363 -0.06555624 -0.06554413 -0.06552884 -0.06551103 -0.06549149 -0.06547097
 -0.06544773 -0.06542142 -0.06539138 -0.06535714 -0.06532212 -0.06528647 -0.06525499 -0.06522795 -0.06520965 -0.06520044
 -0.06520527 -0.06522374 -0.06525834 -0.06530531 -0.06535716 -0.06540683 -0.06543656 -0.06544417 -0.0654162 -0.06536303
 -0.06528754 -0.06520471 -0.06512574 -0.06505629 -0.06500342 -0.06496031 -0.06492717 -0.06489359 -0.06485692 -0.06481494
 -0.06476638 -0.0647181 -0.06467038 -0.06463229 -0.06460422 -0.06459359 -0.06459974 -0.06462273 -0.06465838 -0.06468932
 -0.06471033 -0.0646947 -0.06464736 -0.06456234 -0.0644535 -0.06433805 -0.06422255 -0.06412038 -0.06402952 -0.06395209
 -0.06388648 -0.06383268 -0.06378862 -0.06375498 -0.06372371 -0.06369396 -0.06365585 -0.06360786 -0.06354607 -0.06346997
 -0.06338037 -0.06327742 -0.06316442 -0.06304212 -0.06291768 -0.06279194 -0.06267243 -0.06255936 -0.06245738 -0.06236583
 -0.06228671 -0.06221641 -0.06215218 -0.06208736 -0.06201355 -0.06193062 -0.06183326 -0.061733 -0.06163378 -0.06154358
 -0.06146812 -0.06139837 -0.06133467 -0.0612609 -0.06117447 -0.06107067 -0.06094856 -0.06081771 -0.06067855 -0.06053941
 -0.06039916 -0.06025216 -0.06009598 -0.05991481 -0.05971093 -0.05948081 -0.05923234 -0.05898061 -0.05872779 -0.05848526
 -0.05824632 -0.05800792 -0.05776652 -0.05751647 -0.05726501 -0.0570135 -0.05676994 -0.05653885 -0.05631616 -0.05610391
 -0.05588435 -0.05565718 -0.05539203 -0.05508655 -0.05472024 -0.05429323 -0.05382445 -0.0533157 -0.05279359 -0.05225265
 -0.05168336 -0.0510759 -0.05039589 -0.04963985 -0.04878196 -0.04783006 -0.04678169 -0.04565215 -0.04445488 -0.04320145
 -0.04190834 -0.04056322 -0.03917038 -0.03769341 -0.03611585 -0.0344429 -0.03266083 -0.03086007 -0.02905097 -0.02729652
 -0.02560542 -0.02393181 -0.02227333 -0.02057305 -0.01883698 -0.01709293 -0.01535322 -0.01368942 -0.0121083 -0.01065966
 -0.009360288 -0.00826549 -0.007390666 -0.006797518 -0.00644096 -0.006314041 -0.006330756 -0.006436325 -0.00655944 -0.006656314
 -0.006681831 -0.00661153 -0.00643395 -0.006142581 -0.005738576 -0.005224534 -0.004568252 -0.00376687 -0.002803327 -0.001680266
 -0.0005104985 0.0006981537 0.001819964 0.002869548 0.003850494 0.004781059 0.005719086 0.006669457 0.007666269 0.008716126
 0.009831016 0.01104819 0.01239148 0.01394097 0.01575485 0.01789363 0.02043286 0.02326384 0.02640099 0.02958832
 0.03277192 0.03579906 0.03863351 0.04128249 0.04374081 0.04608785 0.04832953 0.05060676 0.05293385 0.05551758
 0.05833979 0.06145759 0.06477221 0.06799025 0.07109041 0.07385176 0.07638986 0.07878082 0.0811123 0.08351169
 0.08598498 0.08857294 0.09126676 0.09406496 0.09698728 0.1000529 0.1032096 0.1064598 0.109693 0.1128877
 0.1160394 0.1191455 0.1222366 0.1253104 0.128235 0.1309974 0.1334098 0.1354851 0.1371887 0.1385418
 0.139599 0.1403537 0.1408089 0.1409778 0.1408621 0.1405263 0.1400356 0.1394357 0.1387727 0.1380858
 0.1374022 0.1367512 0.1361596 0.1355828 0.1350279 0.1343815 0.133633 0.1326618 0.1314535 0.1300057
 0.1283216 0.1265727 0.1247625 0.1229971 0.1212524 0.1194616 0.1176042 0.1155744 0.1133846 0.1109939
 0.1084629 0.1058572 0.1032405 0.1007148 0.09827138 0.09594194 0.09368059 0.09145766 0.08930186 0.0872008
 0.0852584 0.0835017 0.08196121 0.08065312 0.0795074 0.07851946 0.07763781 0.07686086 0.07620768 0.07568072
 0.07531437 0.07510386 0.07504288 0.07512451 0.07532189 0.07563572 0.07605477 0.07658163 0.07721599 0.07795813
 0.07880516 0.07976694 0.08084309 0.08206355 0.08343573 0.08500721 0.08678918 0.08884105 0.09117905 0.0938347
 0.09682486 0.1000748 0.1035864 0.1071756 0.1108319 0.1143466 0.1177045 0.1206832 0.1232592 0.125179
 0.1264582 0.1269848 0.1268511 0.1261874 0.1251015 0.1237962 0.1223746 0.1210126 0.1197784 0.1187896
 0.1180136 0.1174729 0.1170902 0.1168353 0.1166982 0.1166601 0.1167983 0.1171296 0.1176401 0.1183369
 0.1190711 0.1198363 0.1205723 0.1212831 0.1219948 0.1227102 0.1234583 0.1242359 0.1250573 0.1258988
 0.1267548 0.1275048 0.1280249 0.1280497 0.1272152 0.1254776 0.122597 0.1189359 0.1146284 0.1098837
 0.1047962 0.09948846 0.09396385 0.08853259 0.08323352 0.07833789 0.07388377 0.06983614 0.06619266 0.06275727
 0.05952694 0.05640116 0.0533947 0.05054007 0.04783909 0.04532401 0.0429663 0.0407205 0.03855807 0.03641219
 0.03427814 0.03213006 0.02995885 0.02776745 0.02549063 0.02310113 0.02053321 0.01770588 0.0148337 0.01191653
 0.009344995 0.007211192 0.005463507 0.004118381 0.00287399 0.001716122 0.0004857783 -0.0008084224 -0.002120339 -0.003433619
 -0.004628358 -0.005716183 -0.006674436 -0.007519159 -0.008288416 -0.008957213 -0.009511519 -0.009904927 -0.01007492 -0.01001487
 -0.009694532 -0.009138557 -0.008355989 -0.007351038 -0.006136754 -0.004670463 -0.002963771 -0.0008737186 0.00160089 0.004730461
 0.008547738 0.01313426 0.01848992 0.02396891 0.02951216 0.03419933 0.03805706 0.0407525 0.04237267 0.0430188
 0.04278538 0.04190609 0.04050347 0.03886353 0.03707489 0.03533884 0.03369614 0.03223332 0.03097777 0.02998261
 0.02918522 0.02859207 0.02806954 0.02758262 0.02707082 0.02651372 0.02593726 0.02534027 0.02477538 0.02424523
 0.0237716 0.02335238 0.02296847 0.02261679 0.02226979 0.02192829 0.02157888 0.0212276 0.02088036 0.02054531
 0.02023705 0.0199632 0.01973105 0.01956547 0.01947594 0.01951889 0.01972203 0.02013703 0.02079536 0.0216914
 0.02283525 0.02418047 0.02572207 0.02742287 0.02928098 0.03124574 0.03331407 0.03536919 0.03740436 0.03929954
 0.04106044 0.04265799 0.04410313 0.04542207 0.04661215 0.04768422 0.04862171 0.04940542 0.05001557 0.05042417
 0.05061545 0.05056883 0.05027587 0.04972487 0.04892085 0.0478575 0.04656515 0.04503924 0.0433624 0.04153757
 0.03969872 0.03785833 0.03611487 0.03447416 0.03293915 0.031507 0.03014002 0.02883949 0.02759458 0.02640947
 0.02529857 0.0242526 0.0232645 0.02230583 0.02133264 0.02031056 0.01918401 0.01793408 0.01651835 0.01496572
 0.01326249 0.01150444 0.009713007 0.008002122 0.006407985 0.004974442 0.00372177 0.002600761 0.001611244 0.000672529
 -0.000219893 -0.001102281 -0.001971541 -0.002794525 -0.003565811 -0.00423347 -0.004802391 -0.005260552 -0.00562001 -0.005903295
 -0.006118865 -0.006290616 -0.006421795 -0.006523664 -0.006601239 -0.006658856 -0.006709669 -0.006759624 -0.006825617 -0.006916377
 -0.007036373 -0.007191226 -0.007364852 -0.007556957 -0.007743043 -0.007920457 -0.00807559 -0.008207499 -0.008323472 -0.008424803
 -0.008531385 -0.008643527 -0.008774832 -0.008921039 -0.009076007 -0.00923125 -0.009363966 -0.009467326 -0.009518974 -0.009518714
 -0.009456719 -0.009338103 -0.00916237 -0.008938761 -0.008669254 -0.008371134 -0.008047625 -0.007726131 -0.007411683 -0.007135346
 -0.006902762 -0.006734578 -0.00663451 -0.006599676 -0.006630214 -0.0067003 -0.006808067 -0.006921968 -0.007041428 -0.007146491
 -0.007239047 -0.007314574 -0.007376785 -0.007431524 -0.007483513 -0.007543347 -0.007613482 -0.007702152 -0.007806007 -0.007926104
 -0.008055528 -0.008191001 -0.008326968 -0.008461138 -0.008588286 -0.008707923 -0.008810182 -0.00889435 -0.008946231 -0.008964401
 -0.008937855 -0.008865803 -0.008750159 -0.008592205 -0.008410482 -0.008207737 -0.008011204 -0.007821061 -0.007654483 -0.007505519
 -0.007370317 -0.007238253 -0.007090178 -0.006917613 -0.006702045 -0.006442875 -0.006132059 -0.00577656 -0.005376928 -0.00494335
 -0.004478122 -0.003995239 -0.003496331 -0.003003397 -0.002519323 -0.002066658 -0.00164868 -0.001271149 -0.0009347565 -0.0006243382
 -0.0003386475 -5.621769E-05 0.0002233321 0.0005134056 0.0008126764 0.001124445 0.0014449 0.001768315 0.002086752 0.002386492
 0.002655467 0.002875495 0.003034524 0.003116248 0.003116129 0.003024096 0.002851498 0.002596443 0.00228617 0.001925017
 0.001544657 0.00115097 0.0007648927 0.0003900552 2.819871E-05 -0.0003201682 -0.0006719257 -0.001028611 -0.001416562 -0.001836971
 -0.002311519 -0.002838454 -0.003424478 -0.004063357 -0.004745243 -0.005459411 -0.00618475 -0.006909211 -0.007610425 -0.008280556
 -0.008905216 -0.009483364 -0.01000961 -0.01048877 -0.01091987 -0.01131427 -0.01167287 -0.01201392 -0.01234009 -0.01266806
 -0.01300041 -0.0133409 -0.01369007 -0.01403787 -0.01438319 -0.01470791 -0.01501002 -0.01526765 -0.01547893 -0.01562446
 -0.01570468 -0.01570968 -0.01564393 -0.01550841 -0.01531353 -0.01506923 -0.01479255 -0.01449996 -0.0142058 -0.01392647
 -0.0136552 -0.01339849 -0.01312452 -0.01282797 -0.01247529 -0.01205767 -0.0115698 -0.01100756 -0.01040216 -0.009754887
 -0.009114676 -0.00848354 -0.00789885 -0.007359122 -0.006873849 -0.00643801 -0.006038452 -0.005668623 -0.005306874 -0.004945198
 -0.00456075 -0.004146066 -0.003681586 -0.003168076 -0.00259563 -0.001980527 -0.00132477 -0.0006585022 9.057858E-06 0.0006441181
 0.001236478 0.001762316 0.002214733 0.002588987 0.002882603 0.003108781 0.003267898 0.003385937 0.003465007 0.003542106
 0.00362036 0.003739879 0.003901412 0.004130388 0.004423428 0.004784638 0.005210609 0.005696587 0.006241944 0.006844524
 0.00750287 0.00821637 0.008979668 0.009791558 0.01064067 0.01152472 0.0124251 0.01333715 0.01424427 0.01514135
 0.01602913 0.01690633 0.01778528 0.01866683 0.01955308 0.02044336 0.02132491 0.02219573 0.02303746 0.02384575
 0.02459435 0.02527789 0.02586531 0.02636277 0.02676049 0.02708387 0.02735688 0.02761101 0.02788175 0.02818775
 0.02855317 0.02897335 0.02945684 0.02997487 0.03052392 0.03106761 0.03159722 0.03210044 0.03257269 0.03303519
 0.03348889 0.03395854 0.03444408 0.03494331 0.03545214 0.03594066 0.03640407 0.03680621 0.03714647 0.03740399
 0.0375825 0.03768029 0.03769809 0.03763784 0.03749463 0.03726345 0.03694497 0.03653444 0.03604707 0.03548526
 0.03487189 0.03421196 0.03352962 0.03282848 0.03213488 0.03145215 0.03079869 0.03017631 0.0295823 0.02901601
 0.02846245 0.02792149 0.02738518 0.02685484 0.02633201 0.02581755 0.02531474 0.02482331 0.02434483 0.02387709
 0.02341834 0.02296552 0.02251453 0.02206614 0.02161911 0.02117666 0.02074133 0.02030903 0.01988095 0.01944407
 0.01899715 0.01852452 0.01802466 0.01748187 0.01689483 0.01625695 0.01556898 0.01484966 0.01410169 0.01335654
 0.01261154 0.01187403 0.01113545 0.01037376 0.009588399 0.008763693 0.007913883 0.00704994 0.006187184 0.005346027
 0.00452618 0.003737584 0.002961036 0.002193611 0.001408419 0.0005965264 -0.0002560155 -0.001155807 -0.002091934 -0.003065266
 -0.004050881 -0.005047216 -0.006033361 -0.007008481 -0.00795975 -0.00888699 -0.009782606 -0.01064705 -0.01147807 -0.01227643
 -0.01304241 -0.01377818 -0.0144857 -0.01517264 -0.01584902 -0.01652299 -0.01720944 -0.01789962 -0.01859776 -0.01927569
 -0.01992274 -0.02051765 -0.02104781 -0.02152395 -0.02194195 -0.02234081 -0.02272313 -0.02313434 -0.02357803 -0.02407972
 -0.02463919 -0.02524232 -0.02588411 -0.02651858 -0.027142 -0.02771202 -0.02823198 -0.02868804 -0.02908856 -0.02944251
 -0.02975771 -0.03004823 -0.03031861 -0.03057734 -0.03082797 -0.03107253 -0.03132181 -0.03157736 -0.03186142 -0.03217969
 -0.03255276 -0.03298729 -0.03348379 -0.03404506 -0.03464906 -0.03529504 -0.03594823 -0.03660673 -0.03723551 -0.03783407
 -0.03838163 -0.03888093 -0.03933275 -0.03974016 -0.04011266 -0.04045076 -0.0407593 -0.04103933 -0.04129345 -0.04152464
 -0.04173751 -0.04193095 -0.04210653 -0.04225942 -0.04238671 -0.04248983 -0.04256744 -0.04262727 -0.042671 -0.0427017
 -0.04272036 -0.04272394 -0.04271219 -0.04268473 -0.04264183 -0.04259036 -0.04253151 -0.04247836 -0.04243125 -0.04240084
 -0.04238212 -0.04236862 -0.04235001 -0.04230173 -0.04222044 -0.04208679 -0.04191498 -0.04170857 -0.04148952 -0.04127362
 -0.04107296 -0.04089767 -0.04074878 -0.04062869 -0.04053551 -0.04046963 -0.04042703 -0.04040812 -0.04040135 -0.04040621
 -0.04040588 -0.04039947 -0.0403713 -0.04032107 -0.04023932 -0.04012671 -0.03998114 -0.03980357 -0.03959576 -0.03935803
 -0.03909101 -0.03879684 -0.03847618 -0.03813828 -0.03778923 -0.03744531 -0.03711822 -0.03682079 -0.03656398 -0.03634436
 -0.03616542 -0.03601048 -0.03587653 -0.0357528 -0.0356364 -0.03553309 -0.03544304 -0.0353738 -0.03532519 -0.03528628
 -0.03525478 -0.0352052 -0.03513741 -0.03503545 -0.03490503 -0.03475371 -0.0345892 -0.0344314 -0.03428255 -0.03415575
 -0.03404579 -0.03395317 -0.03387023 -0.03379213 -0.03371333 -0.03362996 -0.03353978 -0.03344072 -0.03333512 -0.03322256
 -0.033109 -0.03299526 -0.03288467 -0.03277766 -0.03267243 -0.03256899 -0.03246899 -0.03237322 -0.03229007 -0.03221959
 -0.03216734 -0.03213073 -0.03210552 -0.03208787 -0.03206829 -0.03204359 -0.03200507 -0.03195193 -0.031879 -0.03179083
 -0.03168716 -0.03157814 -0.03146773 -0.03136538 -0.03127539 -0.03120063 -0.03114365 -0.0310975 -0.03106281 -0.03102233
 -0.03097494 -0.03090364 -0.0308079 -0.03068573 -0.03053831 -0.0303763 -0.03019986 -0.03001518 -0.0298216 -0.02961907
 -0.02940991 -0.02919794 -0.02898767 -0.02878704 -0.02859929 -0.02843035 -0.02828209 -0.02815907 -0.02805628 -0.02797651
 -0.02789921 -0.02782115 -0.0277144 -0.0275715 -0.02738103 -0.02713817 -0.02685958 -0.02654525 -0.0262299 -0.02591524
 -0.02563085 -0.02537564 -0.02515237 -0.02495626 -0.02476539 -0.02457652 -0.02436739 -0.0241397 -0.02388559 -0.02360977
 -0.02331374 -0.02300699 -0.02269701 -0.02239857 -0.02212501 -0.02188203 -0.02167963 -0.02150269 -0.02135034 -0.02120082
 -0.02104902 -0.02088291 -0.02070002 -0.02049545 -0.02026843 -0.02001979 -0.01974973 -0.01946774 -0.01917425 -0.01887693
 -0.01857549 -0.01827069 -0.01796556 -0.01766889 -0.01738587 -0.01713426 -0.01691015 -0.0167177 -0.01654546 -0.01638221
 -0.01622325 -0.01606223 -0.01589655 -0.01572708 -0.01553805 -0.01532579 -0.01507319 -0.01477392 -0.0144302 -0.01404014
 -0.01362003 -0.01317083 -0.01270932 -0.01223625 -0.01176103 -0.01128138 -0.01078069 -0.0102513 -0.009645436 -0.008958087
 -0.008145354 -0.007213958 -0.006154296 -0.00498138 -0.003710021 -0.00236077 -0.0009541217 0.0004778911 0.001916482 0.003307578
 0.004636239 0.005806106 0.006796385 0.007476939 0.007811158 0.007741412 0.007237126 0.00642974 0.005319598 0.004167042
 0.002985193 0.001982289 0.001157623 0.0005820568 0.0002411114 0.0001030389 0.0001481954 0.0003005721 0.000543018 0.000802124
 0.001070478 0.001306251 0.00150767 0.001660023 0.001757781 0.001792316 0.001762249 0.001660385 0.001504734 0.00129534
 0.001066903 0.0008249355 0.0006059785 0.00041585 0.0002789163 0.0001986811 0.0001728663 0.0002012153 0.0002621735 0.0003551689
 0.0004673504 0.0005988139 0.0007456213 0.000903573 0.001056353 0.00120144 0.001322801 0.001426821 0.001517394 0.00159711
 0.001670875 0.001737416 0.001790338 0.001852893 0.001930718 0.002058525 0.002263634 0.002498235 0.002765376 0.002966465
 0.00307844 0.003118588 0.003083729 0.003044666 0.003004527 0.002985496 0.002985539 0.002987867 0.002992626 0.002991172
 0.002988191 0.002995214 0.003014831 0.003060081 0.003126958 0.003218558 0.003320385 0.003419275 0.003501283 0.003546294
 0.003567319 0.003560953 0.003558638 0.003573168 0.003612524 0.003683545 0.003770615 0.003871604 0.003981579 0.004100044
 0.004224357 0.004354057 0.004456944 0.004529818 0.004525054 0.004442464 0.004254099 0.003966662 0.003582021 0.003119096
 0.002614218 0.002098364 0.001637222 0.001243974 0.0009672545 0.0007776631 0.0006725041 0.0006122342 0.0005735854 0.0005413092
 0.0005018247 0.0004651817 0.0004263339 0.0004257124 0.0004680128 0.0005902527 0.000799816 0.001058265 0.001363569 0.001639297
 0.001887597 0.002109771 0.002315434 0.002564507 0.00285131 0.003188892 0.003564705 0.003951696 0.004354431 0.004769125
 0.005199806 0.005655565 0.006119686 0.006583628 0.007030999 0.007448793 0.007837319 0.008193011 0.008522509 0.008824651
 0.009117164 0.00940186 0.009699035 0.01001303 0.01031997 0.01061855 0.01084522 0.01099984 0.01105905 0.01103263
 0.01096375 0.01086127 0.01077844 0.010717 0.0107073 0.01074657 0.01084798 0.01099555 0.01117883 0.01137843
 0.01157157 0.01176342 0.01195066 0.01214123 0.01234317 0.01253349 0.01270636 0.01285404 0.01296871 0.01309793
 0.01324582 0.01344392 0.01369391 0.01394965 0.01420725 0.01440264 0.01453925 0.01460373 0.01460382 0.01456051
 0.01447565 0.01436578 0.01422452 0.01405009 0.01383339 0.01355761 0.01323566 0.01286195 0.01248268 0.01212303
 0.01180548 0.01155742 0.01132334 0.01109958 0.01081269 0.01044467 0.009997439 0.00946576 0.008916038 0.008351683
 0.00782209 0.007325536 0.006852579 0.006397133 0.005916031 0.005411657 0.004862351 0.004290128 0.003733993 0.003216236
 0.002801207 0.002468932 0.00223139 0.002036309 0.001842974 0.001628763 0.00136168 0.001069941 0.0007522465 0.0004544155
 0.0001865406 -1.568446E-05 -0.0001432856 -0.0001896889 -0.0001507117 -6.918343E-05 5.265712E-05</values></Ydata></AB><ScSm><Ydata ylabel="Single channel"><values byteorder="INTEL" format="FLOAT32" numvalues="1814"> 0.07245105 0.07245895 0.07253905 0.07270954 0.07293276 0.07313885 0.0732751 0.07333814 0.073351 0.07332073
 0.07325097 0.07319381 0.07323876 0.07342447 0.07368222 0.07388119 0.0739313 0.07386221 0.07380886 0.07388028
 0.07401507 0.07399623 0.07365528 0.07306489 0.07249342 0.0721568 0.07208273 0.07226601 0.07279938 0.0736185
 0.07421987 0.07402323 0.07310165 0.07220832 0.07193919 0.07216074 0.07236795 0.07226793 0.07186894 0.07135932
 0.071153 0.07177995 0.0733647 0.07519495 0.075977 0.07465225 0.07115389 0.06664439 0.063085 0.06218444
 0.06419565 0.06757389 0.07013765 0.07080868 0.07012445 0.0691323 0.06826182 0.06746665 0.06695499 0.06722356
 0.0683751 0.06966089 0.0698681 0.06835702 0.06582297 0.06380247 0.0632698 0.06402555 0.06552055 0.06745183
 0.06893029 0.06800973 0.06360681 0.05792053 0.05544413 0.05869119 0.06551224 0.07119734 0.07266366 0.07017668
 0.06597517 0.06241858 0.06110244 0.06243063 0.06554016 0.06901541 0.07174669 0.07298699 0.07216341 0.06937456
 0.06587911 0.06348829 0.06345606 0.06598609 0.07018474 0.0741436 0.07581158 0.07451144 0.0713869 0.0681954
 0.06615474 0.06595317 0.06792168 0.07168685 0.07614683 0.08010913 0.08277789 0.08383812 0.08352325 0.08246548
 0.08121455 0.08014906 0.07981195 0.0805735 0.08175047 0.08186926 0.08027105 0.07798955 0.07668167 0.07691288
 0.07771109 0.07775164 0.07669757 0.07497453 0.07245581 0.06844245 0.0632643 0.05870495 0.05621833 0.05582095
 0.05715068 0.0600329 0.0632385 0.06442015 0.06268815 0.06024083 0.06018374 0.06321602 0.06727728 0.07005718
 0.07113068 0.07178348 0.07335924 0.07588783 0.07792161 0.07762749 0.07460413 0.07089989 0.06956351 0.07165208
 0.07521705 0.07770202 0.07863601 0.07934445 0.08062769 0.08151731 0.08028726 0.07650794 0.07214412 0.0703416
 0.0726877 0.07761842 0.08155069 0.08153449 0.07724027 0.07102618 0.06609626 0.06428514 0.06557518 0.06932038
 0.07495137 0.08133133 0.08647022 0.08864594 0.08766092 0.08472893 0.08109061 0.07687101 0.07174873 0.06686896
 0.06506404 0.06817326 0.07469068 0.0810221 0.08468834 0.08555806 0.0844526 0.0816199 0.07696091 0.07149121
 0.06781611 0.0681072 0.07148537 0.07452391 0.07483603 0.07324644 0.07202114 0.0720426 0.07248921 0.07257484
 0.07266433 0.07364263 0.07564651 0.07773643 0.07881106 0.07860895 0.07774328 0.07698591 0.07657155 0.07603062
 0.07484881 0.07349581 0.07337652 0.07529375 0.07834215 0.08083908 0.08201383 0.08228631 0.08214393 0.08128828
 0.07907618 0.07573982 0.07287849 0.07227051 0.074152 0.07707327 0.07940754 0.08051835 0.08059539 0.08006313
 0.0792966 0.07850279 0.07778251 0.07739261 0.07768041 0.07858827 0.07954241 0.08002755 0.08000938 0.07967982
 0.07908836 0.07820819 0.0771974 0.07641506 0.07616593 0.07646759 0.0770819 0.07772804 0.07819149 0.07829622
 0.07796501 0.07734207 0.07670265 0.07620549 0.0758494 0.07565302 0.07570432 0.07599606 0.07634921 0.07656456
 0.07657915 0.07644279 0.07621066 0.07590666 0.0755558 0.07521653 0.07498179 0.07492681 0.07502441 0.07514627
 0.07519924 0.07521799 0.07525915 0.0752627 0.07511495 0.07481804 0.07450703 0.07430743 0.07423558 0.07422585
 0.07419364 0.07405583 0.07374038 0.07324899 0.07272857 0.07241325 0.07243833 0.0727393 0.07314834 0.07352349
 0.07376941 0.07383601 0.07375724 0.07362669 0.07349186 0.07331436 0.07305515 0.07276674 0.07258274 0.07261128
 0.07283001 0.07309864 0.07328476 0.07335134 0.07332845 0.0732664 0.07322706 0.07324468 0.07327113 0.07321954
 0.07307798 0.07293388 0.07287706 0.07290855 0.072947 0.07291566 0.07282529 0.07276134 0.07278162 0.07285514
 0.07291752 0.07295019 0.07297803 0.07301132 0.07301438 0.0729344 0.07276405 0.07256879 0.07242964 0.07236375
 0.07232973 0.07230275 0.07230316 0.07234646 0.07239926 0.07240421 0.07233991 0.07224182 0.07215546 0.07207754
 0.0719641 0.07179635 0.07161145 0.07146108 0.07136011 0.07128394 0.07119963 0.07109074 0.07095964 0.07081443
 0.07065669 0.07048116 0.07028344 0.0700707 0.06987178 0.06972782 0.06965461 0.06961329 0.06953467 0.06938009
 0.06917504 0.06898071 0.06883417 0.06871866 0.06859449 0.06845169 0.0683193 0.06822643 0.06817332 0.0681424
 0.06811853 0.06809576 0.06808579 0.0681268 0.06826086 0.06848451 0.06873288 0.06893281 0.06906834 0.06918262
 0.0693215 0.06949157 0.06967032 0.06984248 0.07002155 0.07023585 0.07048663 0.07072705 0.07090458 0.07102382
 0.07114174 0.0713034 0.07151113 0.07174997 0.07200071 0.07222523 0.07238472 0.07248969 0.07259904 0.07275327
 0.07293317 0.07309902 0.07324542 0.0733978 0.0735729 0.07376909 0.07398941 0.07425082 0.07456255 0.07490474
 0.07523209 0.07550284 0.07571506 0.07591948 0.07618441 0.07653783 0.07694528 0.07734426 0.07769571 0.07800569
 0.0783059 0.07861666 0.07893346 0.07925355 0.07960014 0.07999942 0.08044095 0.08088438 0.08130384 0.08170686
 0.08211245 0.08252853 0.08295148 0.08337724 0.08380963 0.08425629 0.08471134 0.08514714 0.08553568 0.0858775
 0.08620258 0.08654729 0.08693141 0.08734065 0.08772298 0.08802542 0.08825423 0.08848201 0.08877128 0.08910526
 0.08941969 0.08969271 0.08996828 0.09028951 0.09064245 0.09098133 0.09128699 0.09157936 0.09188067 0.09218162
 0.09244508 0.09264014 0.09277494 0.09289317 0.09303541 0.09321426 0.09343402 0.09371051 0.09404436 0.09438936
 0.09468111 0.09489429 0.09504943 0.09517635 0.09529921 0.0954439 0.09562549 0.09583033 0.09602904 0.09619959
 0.09633041 0.0964266 0.09652673 0.09668465 0.09691587 0.09718782 0.09747618 0.09779733 0.0981642 0.09854439
 0.09889808 0.09923813 0.09961193 0.1000235 0.10041 0.1007081 0.1009132 0.10106 0.101176 0.1012881
 0.1014476 0.1017017 0.1020397 0.1023979 0.102719 0.1029851 0.1032002 0.1033645 0.1034727 0.1035238
 0.1035281 0.1035094 0.1035038 0.103555 0.1037005 0.1039454 0.1042435 0.1045149 0.1046896 0.1047282
 0.104606 0.1043078 0.1038549 0.1033137 0.1027425 0.1021279 0.1013941 0.100476 0.09936394 0.09807719
 0.09662069 0.09498784 0.09319708 0.09131239 0.08942828 0.0876421 0.08604611 0.08474825 0.08388482 0.08357333
 0.08381368 0.08442438 0.0850843 0.08545253 0.08528149 0.08447525 0.08309019 0.08128546 0.07924216 0.07709739
 0.07492585 0.07275148 0.07056294 0.06834556 0.06613724 0.06406461 0.06232327 0.06115157 0.06085662 0.0618194
 0.0643363 0.06833805 0.07326393 0.07829149 0.08275716 0.08640627 0.08932716 0.09173909 0.09383877 0.09574654
 0.09750798 0.09912982 0.1006221 0.1020025 0.1032683 0.1043852 0.1053041 0.1059795 0.106384 0.1065268
 0.1064561 0.1062384 0.1059407 0.1056158 0.1052675 0.1048127 0.1040961 0.102965 0.1013352 0.09919634
 0.09657726 0.09357508 0.0905343 0.08825392 0.08786929 0.09024262 0.09529015 0.1019209 0.1086912 0.1145592
 0.1191514 0.1225671 0.1250874 0.1270005 0.1285302 0.129822 0.1309595 0.1319833 0.1329057 0.1337337
 0.1344863 0.1351888 0.1358603 0.1365107 0.1371403 0.1377402 0.1383019 0.1388337 0.1393616 0.1399084
 0.1404728 0.1410309 0.1415642 0.1420812 0.1425997 0.143113 0.1435941 0.144033 0.1444518 0.1448826
 0.1453447 0.1458371 0.1463362 0.1468045 0.1472166 0.1475815 0.1479297 0.1482836 0.148647 0.1490161
 0.1493879 0.1497559 0.15011 0.1504499 0.1507922 0.1511523 0.1515169 0.1518507 0.1521353 0.1523912
 0.1526567 0.1529518 0.1532661 0.1535778 0.1538804 0.1541925 0.1545404 0.1549279 0.1553245 0.1556883
 0.1559993 0.156273 0.1565436 0.1568368 0.1571564 0.15749 0.1578219 0.1581436 0.1584576 0.1587732
 0.159094 0.159412 0.1597154 0.1600002 0.1602741 0.160549 0.1608343 0.1611318 0.161439 0.1617575
 0.1620929 0.1624424 0.1627862 0.1630983 0.1633665 0.1636007 0.1638229 0.1640528 0.1643006 0.1645678
 0.1648521 0.1651486 0.1654511 0.1657529 0.1660494 0.1663397 0.1666253 0.1669108 0.1672011 0.1674981
 0.167799 0.168101 0.1684051 0.1687127 0.1690216 0.1693268 0.1696254 0.1699193 0.1702135 0.1705118
 0.1708124 0.1711085 0.1713953 0.171675 0.1719546 0.17224 0.1725325 0.1728284 0.1731223 0.173411
 0.1736955 0.1739791 0.1742633 0.1745481 0.1748337 0.175122 0.1754126 0.1757013 0.1759832 0.1762591
 0.1765351 0.176816 0.1771013 0.1773883 0.1776742 0.1779571 0.1782367 0.1785163 0.1788005 0.1790917
 0.1793859 0.1796725 0.1799419 0.180196 0.1804469 0.1807047 0.1809721 0.1812499 0.1815386 0.1818337
 0.1821272 0.1824129 0.182689 0.182959 0.1832291 0.1835022 0.1837757 0.1840479 0.1843213 0.1845985
 0.1848808 0.1851716 0.1854709 0.1857703 0.1860573 0.1863235 0.1865677 0.1868005 0.187041 0.1873003
 0.1875722 0.187846 0.1881202 0.1883952 0.1886672 0.1889344 0.1892 0.1894679 0.1897418 0.1900232
 0.1903073 0.1905884 0.1908682 0.19115 0.191431 0.19171 0.1919938 0.1922871 0.1925856 0.1928846
 0.1931833 0.1934818 0.1937793 0.1940723 0.1943564 0.1946347 0.1949182 0.1952102 0.195503 0.1957942
 0.1960881 0.1963798 0.1966591 0.1969286 0.1972006 0.1974803 0.1977665 0.1980545 0.1983348 0.1986047
 0.1988766 0.1991616 0.1994552 0.1997479 0.2000352 0.2003145 0.2005905 0.2008753 0.2011701 0.2014602
 0.20174 0.2020178 0.2022967 0.2025718 0.2028425 0.2031091 0.2033719 0.2036398 0.2039157 0.2041716
 0.2043449 0.2043038 0.2037277 0.201981 0.1981034 0.1910047 0.1798976 0.1647963 0.1466915 0.1272035
 0.1079836 0.09028274 0.07483081 0.06194034 0.05167134 0.04393521 0.03855994 0.03540124 0.03445557 0.03597148
 0.04057461 0.04890146 0.06020059 0.07108518 0.07684673 0.07517289 0.06835829 0.06121011 0.05705211 0.05612024
 0.05699537 0.05846273 0.06013377 0.0622282 0.06513011 0.06895389 0.07352242 0.07883279 0.08528229 0.09316252
 0.1020556 0.1110094 0.1193558 0.1272332 0.1352668 0.1438181 0.152604 0.1609733 0.1684286 0.174882
 0.1805486 0.1857054 0.1905338 0.1951117 0.1994774 0.2036272 0.2074174 0.2105224 0.2125913 0.2135179
 0.2135689 0.2132303 0.2129191 0.212826 0.2129713 0.2133227 0.2138447 0.2145036 0.2152762 0.2161454
 0.2170822 0.2180491 0.2190176 0.2199659 0.2208685 0.221707 0.2224813 0.2231998 0.2238661 0.2244776
 0.2250316 0.225532 0.2259922 0.2264273 0.2268445 0.2272467 0.2276394 0.2280227 0.2283843 0.2287115
 0.2290064 0.2292825 0.2295505 0.2298131 0.2300667 0.230307 0.2305353 0.2307603 0.2309927 0.2312395
 0.2314999 0.2317637 0.2320184 0.2322596 0.2324916 0.2327155 0.2329297 0.2331402 0.2333599 0.233593
 0.2338315 0.2340677 0.2343011 0.2345318 0.2347575 0.2349809 0.2352119 0.2354597 0.235721 0.2359792
 0.2362195 0.2364466 0.23668 0.236932 0.2371997 0.2374739 0.2377441 0.2380013 0.2382464 0.2384875
 0.2387217 0.2389302 0.2391037 0.2392648 0.2394566 0.2397076 0.2400056 0.2403069 0.2405757 0.2408114
 0.2410347 0.2412598 0.2414849 0.2416986 0.2418971 0.2421044 0.2423593 0.242667 0.2429876 0.2432859
 0.2435657 0.2438426 0.2441203 0.2444009 0.244679 0.2449241 0.245107 0.2452536 0.2454462 0.2457572
 0.2461785 0.2466208 0.2469936 0.2472849 0.2475479 0.2478339 0.2481632 0.2485071 0.2487616 0.2488153
 0.2487199 0.2487207 0.2490319 0.2496245 0.2502899 0.2508557 0.2512897 0.2516454 0.2519708 0.2522591
 0.2524548 0.2525128 0.2524827 0.2525352 0.2528483 0.2534262 0.2540768 0.2546085 0.2549855 0.2552658
 0.2554964 0.2557026 0.2558438 0.2557544 0.2553186 0.2547797 0.2546749 0.2553154 0.2564339 0.25747
 0.2581248 0.2585115 0.2588391 0.2591549 0.2594088 0.2595015 0.2591595 0.2580907 0.2565555 0.2555271
 0.2558879 0.2575384 0.2595595 0.2611305 0.2620488 0.2625252 0.2628205 0.2630684 0.2631767 0.2628469
 0.2619122 0.2607729 0.2602866 0.2609772 0.2624444 0.2637883 0.2645222 0.2648248 0.2650596 0.2653719
 0.2655895 0.2651742 0.2635285 0.2608762 0.2587017 0.2587041 0.2611338 0.2644917 0.2670166 0.2682002
 0.2686395 0.2687369 0.2681093 0.2662817 0.2634073 0.2601936 0.2576752 0.2570755 0.2590007 0.2624222
 0.2652544 0.2664112 0.2667268 0.2675804 0.2692467 0.2709052 0.2717096 0.2714432 0.2703684 0.2687629
 0.2667896 0.2649231 0.2642065 0.265512 0.2684764 0.271631 0.2737597 0.2748194 0.2752931 0.2747639
 0.2716367 0.2650554 0.2572965 0.2531412 0.2556545 0.2629746 0.2703132 0.2746671 0.2764587 0.2772796
 0.2777586 0.2773964 0.2748572 0.2686969 0.2596474 0.2520489 0.2509104 0.2569512 0.2657837 0.2720066
 0.272881 0.268617 0.2614019 0.254751 0.2520767 0.2546177 0.2608949 0.2681746 0.2741113 0.277384
 0.2776827 0.2755946 0.2725589 0.2705031 0.2704489 0.2710035 0.2694122 0.2650296 0.2603933 0.2575032
 0.2547336 0.249849 0.2449059 0.2448905 0.2512293 0.2594032 0.2640262 0.2642996 0.2630439 0.2615699
 0.2574483 0.2480145 0.2354077 0.2266592 0.2275257 0.2365099 0.2461943 0.250475 0.2493842 0.2469345
 0.2457411 0.244385 0.2394958 0.2301923 0.220282 0.2150843 0.215838 0.2186191 0.2189945 0.2156138
 0.2087871 0.199004 0.1892223 0.1857092 0.192821 0.2076733 0.2223475 0.2303177 0.2288416 0.2176577
 0.1998623 0.1836452 0.1782811 0.1858965 0.1989615 0.2072456 0.2059557 0.1965964 0.1825603 0.1667551
 0.1529503 0.1462307 0.1499274 0.1622277 0.1763296 0.1839214 0.1797864 0.1657863 0.1510319 0.1453246
 0.1503426 0.1585788 0.1617661 0.1583487 0.1522916 0.1478535 0.1470706 0.1495673 0.1530138 0.1552537
 0.1560396 0.1547729 0.1481824 0.1343949 0.1185116 0.1093 0.1100548 0.1169037 0.1259113 0.1365304
 0.1469458 0.1517212 0.1479513 0.140871 0.139436 0.1468509 0.1578024 0.1648982 0.1659793 0.1645474
 0.1643228 0.1651753 0.1651066 0.1648057 0.1677528 0.1754105 0.1846121 0.1910648 0.1937853 0.1946886
 0.1953268 0.1957283 0.195495 0.1944882 0.1927696 0.190721 0.1889054 0.1873959 0.1856742 0.183316
 0.1800307 0.1748093 0.1662365 0.1548397 0.1444096 0.1391413 0.1393555 0.1418436 0.1443751 0.1468979
 0.1474795 0.1411991 0.1265218 0.1104684 0.1035021 0.1094639 0.1227607 0.13477 0.1404512 0.1387775
 0.130175 0.1167022 0.1041242 0.1001518 0.1083036 0.1247045 0.142316 0.1568521 0.1672011 0.1723321
 0.170972 0.1642402 0.1565264 0.1530216 0.1566741 0.1668769 0.1795429 0.1880136 0.1863233 0.1752396
 0.1651192 0.1682309 0.1856936 0.2054097 0.2156434 0.2169611 0.2173197 0.2197063 0.2207071 0.2193555
 0.2206018 0.2284726 0.2400438 0.2482677 0.2481308 0.238587 0.2217646 0.2033644 0.1913495 0.1899301
 0.1953541 0.2004814 0.2019226 0.1995755 0.192389 0.1806312 0.1708875 0.1719221 0.1844203 0.1996536
 0.2094881 0.2138844 0.2172748 0.2208756 0.221139 0.2150837 0.2052857 0.1983116 0.1982335 0.2030419
 0.2079736 0.2104443 0.2101814 0.2065437 0.1989157 0.1897299 0.1843881 0.1866468 0.194828 0.2034557
 0.2081788 0.2085027 0.2064866 0.204145 0.2021309 0.1998891 0.1969305 0.1944945 0.1953126 0.2005913
 0.2078921 0.213536 0.2167577 0.2199481 0.2249233 0.2304559 0.2338184 0.2338279 0.2320337 0.231386
 0.233826 0.2386725 0.2430792 0.2444149 0.242739 0.2409901 0.2423103 0.247076 0.2528825 0.25726
 0.2596818 0.2610341 0.2621555 0.2631405 0.263288 0.2616295 0.2583033 0.2554018 0.2555021 0.2591068
 0.2641643 0.2681936 0.2702799 0.2709523 0.2708525 0.2700284 0.2683369 0.2661005 0.2641214 0.2630831
 0.2630953 0.2638216 0.264851 0.2658748 0.2667031 0.2672842 0.2676774 0.2679545 0.2681652 0.2683731
 0.2686192 0.2688412 0.2689305 0.2689061 0.2689372 0.2691322 0.269378 0.2694622 0.2692878 0.2688669
 0.2681591 0.2670635 0.2655737 0.2638106 0.2618594 0.2596972 0.2574057 0.2554191 0.2544103 0.254806
 0.2564038 0.2584961 0.2603593 0.2616178 0.2622477 0.2624057 0.2623053 0.2621545 0.2620995 0.2621866
 0.2623779 0.2626003 0.2627852 0.262889 0.2629098 0.2629061 0.262986 0.2632462 0.2636997 0.264258
 0.2647824 0.2651618 0.2653611 0.26541 0.2653506 0.2651963 0.2649353 0.2645571 0.2640663 0.2634862
 0.2628539 0.2621982 0.2615056 0.2607109 0.2597469 0.2586081 0.2573428 0.2559779 0.2544939 0.2529012
 0.2512934 0.2497796 0.2483919 0.2470911 0.2458278 0.244562 0.2432539 0.2418726 0.2403991 0.2388133
 0.2371022 0.2352907 0.2334421 0.2316197 0.2298584 0.2281628 0.2265107 0.2248547 0.2231387 0.22132
 0.2193665 0.2172214 0.2147799 0.2119122 0.2085084 0.2045052 0.1999049 0.1947997 0.1893733 0.1838517
 0.1784377 0.1732815 0.1684977 0.1642016 0.1605206 0.157556 0.1553333 0.1538074 0.1529183 0.1526353
 0.1529541 0.1538704 0.1553468 0.1572869 0.159541 0.1619439 0.1643481 0.1666424 0.1687788 0.1707938
 0.172777 0.1747951 0.1768409 0.1788578 0.1807989 0.1826428 0.1843574 0.1858864 0.1871957 0.188312
 0.1892936 0.1901799 0.1909874 0.1917335 0.1924401 0.1931168 0.1937539 0.1943365 0.1948688 0.1953862
 0.1959397 0.1965768 0.1973355 0.1982355 0.1992621 0.2003752 0.201545 0.202768 0.2040445 0.2053631
 0.2067112 0.2080961 0.2095563 0.2111586 0.212966 0.2149973 0.2172135 0.2195354 0.221866 0.2241033
 0.2261513 0.2279374 0.2294347 0.2306668 0.2316734 0.232468 0.2330399 0.2333903 0.2335546 0.2335989
 0.2336057 0.2336375 0.2336917 0.233701 0.2335893 0.2333234 0.2329219 0.2324339 0.2319102 0.2313859
 0.230895 0.2304926 0.2302394 0.2301528 0.2301827 0.2302332 0.2302124 0.2300793 0.229854 0.2295786
 0.2292688 0.2288996 0.2284198 0.2277761 0.2269461 0.2259545 0.2248456 0.2236398 0.2223278 0.2209001
 0.2193669 0.2177537 0.2160766 0.2143178 0.2124355 0.2104049 0.2082376 0.2059618 0.203617 0.2012765
 0.1990375 0.1969695 0.1950779 0.1933224 0.1916515 0.1900246 0.1884159 0.1868117 0.1852127 0.1836436
 0.1821501 0.1807711 0.1795158 0.1783652 0.1772937 0.1762969 0.1754045 0.1746505 0.1740263 0.1734789
 0.172962 0.1724715 0.1720398 0.1717148 0.1715337 0.1714848 0.1714942 0.1714695 0.1713589 0.1711715
 0.1709548 0.1707547 0.170593 0.1704732 0.1703905 0.1703127 0.1701576 0.1698099 0.1691652 0.1681613
 0.1667908 0.1650998 0.1631711 0.1611121 0.159057 0.1571513 0.1555053 0.1541636 0.1531107 0.1522844
 0.1515998 0.1510035 0.1505143 0.1502032 0.1501264 0.1502546 0.1504439 0.1505159 0.1504181 0.1502871
 0.150321 0.1506166 0.1511333 0.1517542 0.1523537 0.1528495 0.1532171 0.1534573 0.1535719 0.1535741
 0.1534822 0.1532978 0.1530172 0.1526527 0.152216 0.1517067 0.1511315 0.1505063 0.1498342 0.149108
 0.1483161 0.147433 0.1464336 0.1453125 0.1440528 0.1426223 0.1410798 0.1396496 0.138614 0.1381311
 0.1381488 0.1384473 0.1387841 0.139049 0.1392211 0.1391768 0.1387562 0.1381771 0.1381922 0.1395413
 0.142209 0.1453564 0.1480018 0.14967 0.150409 0.150418 0.1498379 0.1487659 0.1472447 0.1452564
 0.1428323 0.140096 0.1371555 0.1340967 0.1310948 0.1283691 0.126041 0.1241367 0.1226485 0.1216152
 0.1211723 0.1209487 0.1190469 0.1130344 0.1036829 0.09665358 0.0977493 0.1063908 0.116003 0.1209672
 0.1211093 0.119405 0.1179085 0.1169269 0.1163575 0.1163513 0.1170472 0.1183053 0.119724 0.1208829
 0.1216155 0.1219677 0.1218934 0.1210365 0.1186993 0.1140698 0.1068639 0.0979178 0.08891932 0.08142558
 0.0761646 0.07304305 0.07146609 0.07068442 0.0701689 0.06985662 0.07005147 0.07106739 0.07295336 0.07552887
 0.07857668 0.08185912 0.08499798 0.08759318 0.08954106 0.09105175 0.0922966 0.09320579 0.09363754 0.09357457
 0.09311716 0.09240735 0.09159082 0.09076278 0.08989939 0.08888149 0.0876644 0.08643898 0.0855304 0.08508417
 0.08494626 0.08489105 0.08483498 0.08478183 0.08471172 0.08460154 0.08447237 0.0843944 0.08447997 0.08481327
 0.08533714 0.08587013 0.08626139 0.08648748 0.0866138 0.08668126 0.08659956 0.08621792 0.08559771 0.08506542
 0.08478847 0.08445591 0.08366985 0.08255574 0.08169518 0.08148807 0.08180408 0.0822306 0.08245637 0.08240807
 0.08222048 0.08217636 0.08252473 0.08318399</values></Ydata></ScSm><ScRf><Ydata ylabel="Single channel"><values byteorder="INTEL" format="FLOAT32" numvalues="1820"> 0.06080283 0.06096442 0.06106474 0.06109876 0.06108961 0.06108776 0.06114943 0.06129875 0.06150584 0.0617034
 0.06183427 0.06188884 0.06189033 0.06185255 0.06178229 0.06172243 0.06174749 0.06189084 0.06209554 0.06225251
 0.06228803 0.06222885 0.06218816 0.06225587 0.06237752 0.06236663 0.06207834 0.06157443 0.06108437 0.06079321
 0.06072571 0.06087869 0.06133213 0.06203179 0.06254861 0.06238611 0.06160277 0.06083789 0.06060068 0.06078178
 0.06095535 0.0608738 0.06054199 0.06011443 0.05993752 0.06046036 0.06179254 0.06333525 0.06399502 0.06287415
 0.05991331 0.05609499 0.05308 0.05231712 0.05402341 0.05689121 0.05906729 0.0596315 0.05904222 0.05819911
 0.05747113 0.05680757 0.05637125 0.05658457 0.05754703 0.05863059 0.05880319 0.05751754 0.05536361 0.05364721
 0.05319589 0.05384047 0.05511425 0.05675846 0.05801756 0.05724052 0.05350709 0.04867996 0.04657244 0.04932653
 0.05512664 0.05996932 0.06122061 0.05909903 0.0555196 0.05250243 0.05139818 0.0525304 0.05515844 0.05809338
 0.06040885 0.06147104 0.06078258 0.05841918 0.0554493 0.05341359 0.05337806 0.0555161 0.05907185 0.0624306
 0.06385416 0.06276336 0.06012074 0.0574131 0.05567493 0.05549434 0.05715724 0.06035117 0.06414247 0.06751616
 0.06979136 0.07069606 0.07042953 0.06953819 0.06849924 0.0676306 0.06737399 0.06802651 0.06900829 0.06908186
 0.06770023 0.0657454 0.06462482 0.0648209 0.06551033 0.06556403 0.06468573 0.06322993 0.06109047 0.05767804
 0.05327497 0.04939827 0.04728689 0.04695845 0.04810796 0.0505892 0.05335423 0.05439398 0.0529347 0.0508387
 0.05075752 0.05330629 0.05674798 0.05911831 0.06004575 0.06061441 0.06196516 0.064127 0.06587153 0.06563659
 0.06307361 0.05992322 0.05878875 0.06058112 0.06364153 0.06578296 0.06659793 0.06722064 0.06834266 0.06914179
 0.06814187 0.06497002 0.06129703 0.05979995 0.06182751 0.0660498 0.06942253 0.06943327 0.06579202 0.0605054
 0.05631609 0.05480154 0.05595275 0.05922594 0.06414658 0.06974639 0.07430775 0.07632494 0.07559628 0.0731506
 0.07006712 0.06647183 0.06209358 0.05792622 0.05643993 0.0592522 0.06506171 0.07073051 0.07408237 0.07499043
 0.0741615 0.0717974 0.06779987 0.06307387 0.05995151 0.06037818 0.06356597 0.06644243 0.06686547 0.06557521
 0.06461128 0.06477255 0.06532058 0.06554757 0.06579271 0.06687116 0.06891017 0.07103981 0.07222974 0.07222134
 0.0715809 0.07104271 0.07084003 0.07052974 0.06962046 0.06855395 0.06865515 0.07067589 0.07375556 0.07630418
 0.07759964 0.07805027 0.07812222 0.07751843 0.07560484 0.07259735 0.07004307 0.06967034 0.0717172 0.07478088
 0.07727318 0.07856482 0.0788435 0.07853518 0.07801034 0.07746487 0.07699235 0.07684579 0.07736716 0.07849444
 0.07965554 0.08034293 0.08053 0.08040598 0.08000714 0.07930076 0.07845859 0.07785851 0.07780885 0.07831877
 0.07914712 0.08001797 0.0807147 0.0810411 0.08089476 0.08041811 0.07991554 0.07957773 0.0794118 0.07942755
 0.07970406 0.08022401 0.08079256 0.08119945 0.08138505 0.08141001 0.0813359 0.08118381 0.08097436 0.08077485
 0.08069953 0.08083039 0.08111593 0.0814037 0.0816173 0.08183254 0.08211296 0.08235107 0.08237928 0.0821953
 0.08197683 0.08188788 0.08194556 0.08206663 0.08216296 0.08215889 0.08197798 0.0816087 0.08119959 0.08100615
 0.08118837 0.08169561 0.08235607 0.08299989 0.08348888 0.08374436 0.08380421 0.08378191 0.08373411 0.0836208
 0.0834108 0.08318108 0.08309166 0.08326373 0.08367164 0.08415745 0.08455884 0.08480632 0.08491533 0.08495639
 0.08503538 0.08521116 0.08540767 0.08548503 0.08541879 0.08533959 0.08537383 0.08549981 0.08558705 0.0855525
 0.08545567 0.08543626 0.08556646 0.08578655 0.08599055 0.08614552 0.08630516 0.08651654 0.08672951 0.08681753
 0.08671093 0.08649388 0.08632454 0.08626987 0.08628047 0.0863212 0.08643848 0.08666203 0.08690999 0.08705571
 0.08706966 0.08704528 0.08707859 0.08715551 0.08717724 0.08707777 0.08689182 0.08671594 0.08662888 0.08664823
 0.08673425 0.08681785 0.08683815 0.08677629 0.08666261 0.08654655 0.08645841 0.08641099 0.08643465 0.08657423
 0.08681776 0.08704483 0.08709645 0.08692095 0.0866355 0.08642316 0.08636686 0.08638895 0.08634596 0.08616655
 0.08589667 0.08563383 0.0854412 0.08531936 0.08523327 0.08515503 0.08509606 0.08510736 0.085226 0.08540037
 0.08549182 0.08539064 0.08512741 0.08484164 0.08465136 0.08457989 0.08458327 0.08460425 0.084613 0.08462989
 0.08469152 0.08477591 0.08480167 0.08472729 0.08461088 0.08455005 0.08460301 0.08477197 0.08500205 0.08518294
 0.0852173 0.08511788 0.08499862 0.08495583 0.08499368 0.08506788 0.08515391 0.08525074 0.08535297 0.08545336
 0.08556664 0.08572713 0.08595485 0.08622654 0.08648103 0.08665947 0.0867552 0.08683206 0.08698142 0.08724692
 0.08758849 0.08791988 0.08817829 0.08836359 0.08852127 0.08869222 0.0888827 0.08908635 0.08931872 0.08960409
 0.08993313 0.09026259 0.09056079 0.09083217 0.09109738 0.091369 0.09165205 0.09195952 0.09231907 0.09274971
 0.09321637 0.09362368 0.09388769 0.09401833 0.09411824 0.09430373 0.09462435 0.09502618 0.09537881 0.09557746
 0.09565005 0.09573572 0.09593221 0.0961983 0.09644008 0.09665739 0.0969475 0.09736794 0.09784562 0.09824177
 0.09848693 0.09863435 0.09878711 0.09898581 0.09917747 0.09929501 0.09934887 0.09941465 0.09954062 0.09971285
 0.09992121 0.1002048 0.1005908 0.1010245 0.1014072 0.1016886 0.1018867 0.1020377 0.1021603 0.1022556
 0.1023142 0.1023374 0.1023609 0.1024316 0.1025435 0.102635 0.1026681 0.1026814 0.1027417 0.1028785
 0.1030889 0.1033673 0.1036915 0.1040047 0.104265 0.1045112 0.1048247 0.1052096 0.1055543 0.105749
 0.1058059 0.1058203 0.1058463 0.1058749 0.1059189 0.106042 0.1062834 0.1066065 0.106948 0.1072847
 0.1076285 0.1079784 0.1082977 0.1085322 0.1086459 0.1086508 0.1086105 0.1086118 0.1087229 0.1089612
 0.1092868 0.1096269 0.1099168 0.110118 0.1102079 0.1101835 0.1100988 0.1100667 0.1101737 0.1103834
 0.1105542 0.1105552 0.1103486 0.1099645 0.1094398 0.1088065 0.1081177 0.1074554 0.1068995 0.106495
 0.106258 0.106214 0.1064104 0.1068666 0.1075154 0.1082239 0.1088755 0.1093983 0.1097161 0.1097321
 0.1094017 0.1087966 0.1080619 0.1073243 0.1066491 0.106044 0.1054722 0.1048973 0.1043623 0.1040215
 0.104067 0.1046168 0.1056605 0.1070688 0.1086289 0.110108 0.1113474 0.1123243 0.1131222 0.1138368
 0.1145168 0.1151812 0.1158501 0.116527 0.11717 0.117725 0.1181872 0.1186023 0.1190082 0.1194001
 0.1197476 0.1200261 0.120239 0.1204258 0.1206274 0.1208263 0.1209483 0.1209443 0.1208452 0.1207159
 0.12058 0.1204082 0.1201565 0.1198021 0.1193725 0.1189754 0.1187931 0.1190078 0.1196922 0.1207589
 0.1220264 0.1233395 0.1246143 0.1257819 0.1267461 0.1274374 0.1278819 0.1281815 0.1284362 0.1287
 0.1289882 0.1292944 0.1296024 0.1298983 0.1301793 0.1304591 0.1307636 0.1311073 0.1314656 0.1317839
 0.1320306 0.1322398 0.1324882 0.1328261 0.1332282 0.1336183 0.1339499 0.1342485 0.1345591 0.13487
 0.1351257 0.1353084 0.1354675 0.1356696 0.1359469 0.1362917 0.1366641 0.1370031 0.1372639 0.1374544
 0.1376213 0.1378034 0.1380101 0.1382359 0.1384743 0.1387177 0.1389618 0.139218 0.1395089 0.1398376
 0.1401622 0.1404179 0.1405769 0.1406829 0.1408133 0.1410106 0.1412524 0.1414853 0.1416869 0.1418916
 0.1421541 0.1424828 0.1428178 0.1430824 0.1432515 0.1433652 0.1434841 0.1436422 0.1438378 0.144053
 0.1442702 0.1444764 0.1446663 0.1448489 0.1450422 0.1452562 0.1454828 0.145707 0.145923 0.1461356
 0.1463495 0.1465617 0.1467711 0.1469938 0.1472553 0.1475573 0.1478597 0.1481103 0.1482909 0.1484254
 0.1485507 0.1486904 0.1488506 0.1490254 0.1492081 0.1494003 0.1496074 0.1498241 0.1500368 0.1502406
 0.1504445 0.150657 0.1508738 0.1510856 0.1512914 0.1515014 0.1517251 0.1519594 0.1521887 0.1523978
 0.1525847 0.1527614 0.152943 0.1531344 0.1533278 0.1535124 0.1536881 0.1538658 0.1540547 0.1542538
 0.1544544 0.1546491 0.1548372 0.1550242 0.155216 0.1554142 0.1556152 0.1558136 0.1560075 0.1562016
 0.1564023 0.1566087 0.1568124 0.1570083 0.1572006 0.1573958 0.1575979 0.1578088 0.1580263 0.1582413
 0.1584431 0.1586292 0.1588072 0.1589867 0.1591721 0.1593624 0.159556 0.1597548 0.1599614 0.1601751
 0.160392 0.160607 0.1608133 0.1610075 0.1611983 0.1614021 0.1616252 0.161857 0.1620826 0.1622959
 0.1624999 0.1627035 0.1629159 0.1631379 0.1633618 0.1635802 0.1637914 0.1639953 0.1641897 0.1643708
 0.1645392 0.1647037 0.164876 0.165059 0.1652454 0.1654292 0.1656119 0.1657962 0.1659838 0.1661782
 0.1663799 0.1665831 0.1667823 0.1669773 0.1671686 0.1673555 0.1675415 0.167733 0.1679337 0.1681446
 0.1683636 0.1685825 0.1687922 0.168992 0.1691893 0.1693941 0.1696159 0.1698547 0.1700966 0.1703257
 0.1705384 0.1707396 0.1709323 0.1711206 0.1713115 0.1715104 0.1717217 0.1719484 0.1721827 0.1724082
 0.1726195 0.1728263 0.1730343 0.1732384 0.1734342 0.1736234 0.1738124 0.1740116 0.1742271 0.1744519
 0.1746756 0.1748962 0.175113 0.175323 0.175533 0.1757551 0.1759867 0.1762126 0.1764233 0.1766186
 0.1768062 0.1770019 0.1772133 0.1774167 0.1775527 0.1774967 0.1769645 0.175404 0.1719785 0.1657339
 0.1559851 0.1427567 0.1269266 0.1099113 0.09314418 0.07770512 0.06422417 0.0529759 0.04402105 0.03728832
 0.03262388 0.02988794 0.02906377 0.03036634 0.03435145 0.04158432 0.05141215 0.06088162 0.06589037 0.06442568
 0.05848703 0.05226028 0.04863583 0.04781399 0.04856039 0.0498282 0.05129033 0.05313779 0.05569258 0.05903989
 0.06301837 0.06762601 0.07321186 0.08003286 0.08772928 0.09547672 0.1026961 0.1095106 0.1164691 0.1238907
 0.1315295 0.1388154 0.1453079 0.1509192 0.1558299 0.1602871 0.1644604 0.1684219 0.1721995 0.1757856
 0.1790591 0.1817457 0.1835449 0.184357 0.1844013 0.1840975 0.1838143 0.1837181 0.1838165 0.1840777
 0.1844839 0.1850222 0.185675 0.1864189 0.1872212 0.1880494 0.1888812 0.1896994 0.1904842 0.1912216
 0.1919062 0.1925315 0.1930915 0.1935922 0.1940481 0.1944712 0.1948704 0.1952537 0.1956252 0.1959851
 0.1963328 0.1966631 0.196964 0.1972289 0.1974651 0.1976868 0.1979031 0.1981154 0.1983214 0.1985229
 0.1987306 0.1989544 0.1991891 0.199418 0.1996306 0.1998285 0.2000177 0.2002036 0.20039 0.2005772
 0.2007651 0.2009584 0.201163 0.2013743 0.2015787 0.2017691 0.2019524 0.2021393 0.2023309 0.2025194
 0.2027023 0.202888 0.2030842 0.2032863 0.2034855 0.2036858 0.2038968 0.2041166 0.2043347 0.2045482
 0.2047621 0.204979 0.2052003 0.2054272 0.205649 0.2058415 0.2059924 0.206125 0.2062846 0.2064976
 0.2067445 0.2069811 0.2071856 0.2073756 0.2075756 0.2077842 0.2079806 0.2081502 0.2082987 0.2084549
 0.2086546 0.208905 0.2091752 0.209433 0.209674 0.2099069 0.210138 0.2103754 0.2106184 0.2108387
 0.2110048 0.2111335 0.2112933 0.2115457 0.2118857 0.2122448 0.2125552 0.2128058 0.2130308 0.2132674
 0.2135361 0.2138169 0.2140169 0.2140357 0.2139239 0.2139094 0.2141867 0.2147205 0.2153105 0.2157981
 0.2161589 0.2164443 0.2166976 0.2169184 0.2170665 0.2171046 0.2170702 0.2171054 0.2173626 0.2178459
 0.2183924 0.2188403 0.2191591 0.2193947 0.2195823 0.2197415 0.2198432 0.219752 0.2193685 0.2188949
 0.2187903 0.2193283 0.220287 0.2211859 0.2217607 0.2220999 0.2223784 0.2226377 0.2228381 0.2228988
 0.222587 0.2216503 0.2203093 0.219402 0.2196916 0.2210958 0.222823 0.2241659 0.2249515 0.225364
 0.2256314 0.2258681 0.225987 0.2257215 0.2249234 0.2239361 0.2234988 0.2240706 0.2253209 0.2264821
 0.2271288 0.2274035 0.2276129 0.2278817 0.2280632 0.2276958 0.2262698 0.2239848 0.2221235 0.2221458
 0.224261 0.2271746 0.2293673 0.2303971 0.2307799 0.2308691 0.2303349 0.2287592 0.2262711 0.2234907
 0.221322 0.220823 0.2225109 0.2254879 0.2279475 0.228954 0.2292349 0.2299882 0.2314545 0.2329211
 0.2336442 0.2334257 0.2324954 0.2311053 0.2294047 0.2278048 0.227202 0.2283433 0.2309144 0.2336556
 0.2355222 0.2364704 0.2369059 0.2364608 0.233753 0.2280456 0.2213209 0.2177306 0.2199326 0.2263094
 0.2327027 0.2365033 0.2380817 0.2388287 0.239292 0.2390289 0.2368698 0.2315568 0.2237264 0.2171575
 0.2162121 0.2215153 0.2292476 0.2347162 0.235547 0.2319187 0.2257229 0.2200112 0.2177497 0.2200193
 0.2255455 0.2319629 0.2372295 0.2401839 0.240544 0.2388134 0.2362504 0.2345495 0.2346052 0.2351868
 0.2338831 0.2301467 0.2262097 0.2238193 0.2215475 0.2174351 0.2132806 0.213455 0.2192159 0.226602
 0.230887 0.2313722 0.2305293 0.2294911 0.2261051 0.218028 0.2071611 0.1997375 0.2008772 0.209275
 0.2183655 0.2227545 0.2225065 0.2212177 0.2212188 0.2211967 0.2180396 0.2108956 0.2032556 0.2000333
 0.2023423 0.2064993 0.2083906 0.2067552 0.2017574 0.1936739 0.1852584 0.1825971 0.1899823 0.2046691
 0.2190214 0.226799 0.2254436 0.2147231 0.1976345 0.1822512 0.1777952 0.1863728 0.2004141 0.2096374
 0.2092111 0.2006186 0.1872649 0.1721479 0.1592637 0.154056 0.1601668 0.1757426 0.1934212 0.2039709
 0.2014034 0.1876639 0.1730888 0.1689714 0.1772547 0.1891565 0.1949882 0.1929425 0.1877422 0.1845833
 0.1861394 0.1920423 0.1992692 0.2049956 0.2088471 0.2097046 0.202683 0.1850046 0.1637577 0.1512169
 0.1521014 0.1611773 0.1730784 0.1871157 0.2008628 0.206856 0.2010126 0.1903603 0.1870431 0.195428
 0.2083738 0.2159652 0.2153243 0.2111309 0.2084096 0.2071894 0.204997 0.2026339 0.204383 0.2120923
 0.2219371 0.2286864 0.2311431 0.2316688 0.2321835 0.2327084 0.2327172 0.2320185 0.2306773 0.2291412
 0.228106 0.2277345 0.227509 0.2270263 0.22596 0.2228315 0.2153379 0.2035753 0.1920853 0.1862532
 0.1866007 0.1891536 0.1913595 0.193579 0.1935679 0.1849229 0.1655357 0.1445323 0.1356289 0.1438744
 0.1618927 0.1782957 0.1864046 0.1848151 0.1740023 0.1565419 0.139828 0.1337411 0.1425855 0.1609646
 0.1795535 0.1931327 0.2011568 0.2032852 0.1984111 0.187858 0.1766462 0.1706056 0.1728207 0.1822901
 0.1942718 0.2014963 0.1977204 0.1839467 0.1711593 0.1722113 0.1883318 0.207056 0.2162307 0.2163146
 0.2154216 0.2167159 0.2168543 0.2148511 0.2156249 0.2232593 0.2350019 0.2439817 0.2452426 0.237697
 0.2234879 0.2084925 0.200794 0.2041652 0.2137153 0.2211538 0.2227816 0.2190153 0.2095165 0.1952384
 0.18358 0.1839315 0.196796 0.2125822 0.2225019 0.2265785 0.2296321 0.2329965 0.2329025 0.2261798
 0.2155405 0.2079042 0.2075555 0.2124011 0.2175264 0.2203814 0.2208144 0.2181344 0.211537 0.2034385
 0.1995172 0.2037826 0.2144012 0.2253725 0.2318659 0.2332468 0.231697 0.2293775 0.2269636 0.2238106
 0.2193989 0.2151982 0.2143706 0.2183913 0.2246974 0.2293216 0.2314294 0.2335896 0.2377457 0.2425471
 0.2449957 0.2437181 0.2402707 0.2377757 0.2384073 0.2416713 0.2447825 0.2450404 0.242391 0.2397203
 0.2402062 0.2442897 0.2495994 0.2536492 0.255868 0.2570981 0.25814 0.2590458 0.259077 0.2572647
 0.2537811 0.2507364 0.2506866 0.254105 0.2589353 0.2627185 0.2645808 0.2651051 0.2649813 0.2642809
 0.2628543 0.2609873 0.2594166 0.2587461 0.2590127 0.2598384 0.260822 0.261713 0.2623925 0.2628534
 0.2631627 0.263373 0.2635033 0.2635949 0.2636912 0.2637502 0.2636833 0.2635246 0.2634636 0.2636389
 0.2639636 0.2642249 0.2642851 0.2640952 0.2635803 0.2626588 0.2613814 0.25992 0.2583761 0.2567116
 0.2549777 0.2535679 0.2531023 0.2539628 0.25594 0.2583614 0.260549 0.2621546 0.2631568 0.26369
 0.2639197 0.2639904 0.2639895 0.2639354 0.2638114 0.2636094 0.263338 0.2630054 0.2626163 0.262193
 0.2617861 0.2614448 0.2611708 0.2609083 0.2605857 0.2601654 0.2596628 0.259124 0.2585824 0.2580237
 0.2573946 0.2566467 0.2557755 0.2548253 0.2538722 0.2529923 0.2522143 0.2514937 0.2507531 0.2499436
 0.2490452 0.2480287 0.2468788 0.245673 0.2445763 0.2437102 0.2430452 0.242446 0.2417905 0.2410233
 0.240138 0.2391586 0.2381262 0.2370701 0.2359904 0.2348743 0.2337096 0.2324788 0.231162 0.2297523
 0.2282539 0.2266726 0.2250251 0.2233447 0.2216447 0.2198711 0.2179031 0.2155973 0.2128283 0.209509
 0.2056057 0.2011662 0.1963418 0.1913623 0.186456 0.1817837 0.1774495 0.1735506 0.1701882 0.1674372
 0.1653348 0.1639013 0.1631609 0.1631382 0.1638373 0.1652186 0.1671928 0.1696374 0.1724185 0.1753922
 0.1783953 0.1812601 0.1838743 0.1862392 0.1884442 0.1905581 0.1925573 0.1943739 0.1959808 0.1973971
 0.198634 0.1996793 0.2005309 0.201217 0.2017784 0.2022452 0.2026385 0.2029832 0.2033045 0.203607
 0.2038711 0.2040801 0.2042446 0.2043953 0.2045628 0.2047675 0.2050207 0.2053322 0.2057173 0.2061836
 0.2067077 0.207245 0.2077734 0.2083153 0.2089098 0.2095783 0.2103251 0.2111607 0.212114 0.2132153
 0.2144656 0.2158229 0.2172158 0.21856 0.2197683 0.2207715 0.2215367 0.2220598 0.2223483 0.2224278
 0.2223517 0.2221745 0.2219182 0.2215756 0.2211406 0.2206265 0.2200589 0.2194605 0.2188378 0.2181823
 0.2174872 0.2167622 0.216029 0.2153048 0.2145952 0.2139051 0.2132482 0.2126359 0.2120593 0.2114916
 0.2109101 0.2103129 0.2097162 0.20914 0.2085876 0.2080281 0.2074041 0.2066664 0.2058039 0.2048376
 0.2037946 0.2026864 0.2015083 0.2002509 0.198911 0.1974899 0.195988 0.1944078 0.1927586 0.1910469
 0.1892576 0.187364 0.1853682 0.1833299 0.1813407 0.1794718 0.1777466 0.1761538 0.1746693 0.173269
 0.1719314 0.1706403 0.1693928 0.1682041 0.1670935 0.1660611 0.1650875 0.164156 0.1632662 0.162431
 0.1616722 0.1610138 0.1604633 0.1600053 0.1596157 0.1592761 0.158985 0.1587676 0.1586621 0.1586721
 0.1587411 0.1587892 0.1587659 0.1586719 0.1585464 0.1584334 0.1583504 0.15829 0.1582419 0.1581839
 0.1580558 0.1577652 0.1572221 0.1563626 0.1551624 0.1536479 0.1518905 0.1499987 0.1481188 0.1464061
 0.1449651 0.143825 0.1429641 0.1423233 0.1418163 0.1413801 0.1410219 0.1408023 0.14078 0.1409545
 0.1412277 0.1414491 0.1415515 0.1416232 0.1418174 0.1422241 0.1428329 0.1435612 0.1442996 0.1449636
 0.1455092 0.1459066 0.1461416 0.1462429 0.1462564 0.1462013 0.1460814 0.145907 0.1456781 0.1453845
 0.1450293 0.1446134 0.1441177 0.1435347 0.1428745 0.1421266 0.1412738 0.1403314 0.139305 0.1381618
 0.1369393 0.1358352 0.1351165 0.1349623 0.135382 0.1362147 0.1372329 0.1382999 0.1393468 0.1401834
 0.1405526 0.1405286 0.1407025 0.1417449 0.143767 0.1462016 0.1483135 0.1497308 0.1504682 0.1506193
 0.1502148 0.149284 0.1478405 0.1458496 0.1433396 0.1404608 0.1373695 0.134198 0.1311485 0.1284354
 0.1261556 0.1243199 0.1229139 0.1219579 0.1215734 0.1213946 0.1195232 0.1135152 0.1041678 0.0971965
 0.0984067 0.107156 0.1168238 0.1218036 0.1219449 0.1202308 0.1187229 0.117743 0.1172001 0.1172447
 0.1179937 0.1192807 0.1207086 0.1218887 0.1226673 0.123078 0.1230674 0.1222698 0.1199459 0.1152305
 0.1078246 0.09860605 0.08934113 0.08165792 0.07630253 0.0731473 0.07155643 0.07076177 0.07023683 0.06994158
 0.07020123 0.07131216 0.07328613 0.07594518 0.07910781 0.0825457 0.08586205 0.08865021 0.09080698 0.09252675
 0.09396175 0.09503449 0.09560263 0.09566061 0.0953242 0.09471907 0.09394798 0.09309472 0.09217167 0.09110108
 0.08986212 0.08865619 0.08779906 0.08741575 0.08734709 0.08736712 0.08737442 0.08736661 0.08735435 0.08733469
 0.08729809 0.08727331 0.08736783 0.08768446 0.08817527 0.08864801 0.0889339 0.08901802 0.08901154 0.08898348
 0.08880436 0.08826448 0.08742571 0.08666766 0.08619384 0.08567989 0.08469404 0.08335712 0.08229377 0.08195106
 0.08219022 0.0825448 0.08267028 0.08250806 0.08222827 0.08214185 0.08250359 0.08320759 0.08376269 0.08374751
</values></Ydata></ScRf><Data_Parameters_AB><parameter name="DPF">1</parameter><parameter name="NPT">3497</parameter><parameter name="FXV">3996</parameter><parameter name="LXV">500</parameter><parameter name="CSF">1</parameter><parameter name="MXY">0.240088105201721</parameter><parameter name="MNY">-0.0757100284099579</parameter><parameter name="DAT">31/05/2022</parameter><parameter name="TIM">14:24:53.306 (GMT+2)</parameter><parameter name="DXU">WN</parameter></Data_Parameters_AB><AB__Qtest><MainReport name="Quality Test Report"><Header><Line><Legend>Test result ok/not ok [1/0]: </Legend><Value>0</Value></Line><Line><Legend>Method file: </Legend><Value>C:\Users\Public\Documents\Bruker\OPUS_8.2.28\QT\IRBT_v3_default.QT</Value></Line></Header><Matrix><Line><Legend></Legend><Legend>min</Legend><Legend>max</Legend><Legend>measured</Legend></Line><Line><Value>Absorption (X-Range 1):</Value><Value>0.400000</Value><Value>2.000000</Value><Value>0.207271</Value></Line><Line><Value>Noise (X-Range 4):</Value><Value></Value><Value>0.000300</Value><Value>0.000042</Value></Line><Line><Value>Signal/Noise (X-Range 2):</Value><Value>200.000000</Value><Value></Value><Value>135.309236</Value></Line><Line><Value>Signal/Noise (X-Range 3):</Value><Value>40.000000</Value><Value></Value><Value>44.623549</Value></Line><Line><Value>Water vapour (X-Range 5):</Value><Value></Value><Value>0.000300</Value><Value>0.000103</Value></Line><Line><Value>Signal/Water (X-Range 2):</Value><Value>100.000000</Value><Value></Value><Value>55.254105</Value></Line><Line><Value>Signal/Water (X-Range 3):</Value><Value>20.000000</Value><Value></Value><Value>18.222217</Value></Line><Line><Value>Fringes (X-Range 6):</Value><Value></Value><Value>0.000100</Value><Value>0.000069</Value></Line></Matrix></MainReport></AB__Qtest><Data_Parameters_ScSm><parameter name="DPF">1</parameter><parameter name="NPT">1814</parameter><parameter name="FXV">3996.33169228125</parameter><parameter name="LXV">499.541461535156</parameter><parameter name="CSF">1</parameter><parameter name="MXY">0.277758568525314</parameter><parameter name="MNY">0.0344555675983429</parameter><parameter name="DAT">31/05/2022</parameter><parameter name="TIM">14:24:53.306 (GMT+2)</parameter><parameter name="DXU">WN</parameter></Data_Parameters_ScSm><Data_Parameters_ScRf><parameter name="DPF">1</parameter><parameter name="NPT">1820</parameter><parameter name="FXV">4004.04661832813</parameter><parameter name="LXV">495.683998511719</parameter><parameter name="CSF">1</parameter><parameter name="MXY">0.265105068683624</parameter><parameter name="MNY">0.0290637705475092</parameter><parameter name="DAT">31/05/2022</parameter><parameter name="TIM">14:24:27.108 (GMT+2)</parameter><parameter name="DXU">WN</parameter></Data_Parameters_ScRf><Optic_Parameters_Rf><parameter name="APR">0</parameter><parameter name="APT">Open</parameter><parameter name="BMS">KBr</parameter><parameter name="DTC">RT-DLaTGS_IR-Biotyper [Microplate reader]</parameter><parameter name="HPF">0</parameter><parameter name="LPF">10.0</parameter><parameter name="LPV">4000</parameter><parameter name="PGR">0</parameter><parameter name="RCH">Module port</parameter><parameter name="RDX">0</parameter><parameter name="SRC">MIR</parameter><parameter name="VEL">10.0</parameter><parameter name="SON">Off</parameter></Optic_Parameters_Rf><Acquisition_Parameters_Rf><parameter name="ADT">1</parameter><parameter name="AQM">DD</parameter><parameter name="CFE">0</parameter><parameter name="COR">0</parameter><parameter name="DEL">0</parameter><parameter name="DLY">0</parameter><parameter name="HFW">8000</parameter><parameter name="LFW">0</parameter><parameter name="NSR">32</parameter><parameter name="PLF">AB</parameter><parameter name="RES">6</parameter><parameter name="RGN">-1</parameter><parameter name="STR">0</parameter><parameter name="TCL">MakeCompatibleScalar (0, {WSV=1.000000, ARV=0});</parameter><parameter name="TDL">37</parameter><parameter name="RPO">0</parameter></Acquisition_Parameters_Rf><FT_-_Parameters_Rf><parameter name="APF">B3</parameter><parameter name="HFQ">500</parameter><parameter name="LFQ">4000</parameter><parameter name="NLI">0</parameter><parameter name="PHR">24</parameter><parameter name="PHZ">ML</parameter><parameter name="SPZ">NO</parameter><parameter name="ZFF">1</parameter></FT_-_Parameters_Rf><Optic_Parameters_><parameter name="APR">0</parameter><parameter name="APT">Open</parameter><parameter name="BMS">KBr</parameter><parameter name="CHN">Module port</parameter><parameter name="DTC">RT-DLaTGS_IR-Biotyper [Microplate reader]</parameter><parameter name="HPF">0</parameter><parameter name="LPF">10.0</parameter><parameter name="LPV">4000</parameter><parameter name="PGN">0</parameter><parameter name="RDX">0</parameter><parameter name="SRC">MIR</parameter><parameter name="VEL">10.0</parameter><parameter name="SON">Off</parameter></Optic_Parameters_><FT_-_Parameters_><parameter name="APF">B3</parameter><parameter name="HFQ">500</parameter><parameter name="LFQ">4000</parameter><parameter name="NLI">0</parameter><parameter name="PHR">24</parameter><parameter name="PHZ">ML</parameter><parameter name="SPZ">NO</parameter><parameter name="ZFF">1</parameter></FT_-_Parameters_><Acquisition_Parameters_><parameter name="ADT">1</parameter><parameter name="AQM">DD</parameter><parameter name="CFE">0</parameter><parameter name="COR">0</parameter><parameter name="DEL">0</parameter><parameter name="DLY">0</parameter><parameter name="HFW">8000</parameter><parameter name="LFW">0</parameter><parameter name="NSS">32</parameter><parameter name="PLF">AB</parameter><parameter name="RES">6</parameter><parameter name="SOT">0</parameter><parameter name="TCL">MakeCompatibleScalar (0, {WSV=1.000000, ARV=0});</parameter><parameter name="TDL">37</parameter><parameter name="SPO">0</parameter><parameter name="SGN">-1</parameter></Acquisition_Parameters_><Instrument_Parameters_Rf><parameter name="HFL">15800.168544</parameter><parameter name="LFL">0</parameter><parameter name="LWN">15800.168544</parameter><parameter name="ABP">32197</parameter><parameter name="SSP">1</parameter><parameter name="ARG">2</parameter><parameter name="ASG">2</parameter><parameter name="ASS">32</parameter><parameter name="GFW">16</parameter><parameter name="GBW">16</parameter><parameter name="BFW">0</parameter><parameter name="BBW">0</parameter><parameter name="PKA">7266</parameter><parameter name="PKL">4996</parameter><parameter name="PRA">7445</parameter><parameter name="PRL">5001</parameter><parameter name="P2A">1</parameter><parameter name="P2L">1</parameter><parameter name="P2R">1</parameter><parameter name="P2K">1</parameter><parameter name="DAQ">0</parameter><parameter name="AG2">1</parameter><parameter name="SSM">1</parameter><parameter name="RSN">25791</parameter><parameter name="CRR">0</parameter><parameter name="SRT">1654007067.109</parameter><parameter name="DUR">19.6379852294922</parameter><parameter name="TSC">29.1</parameter><parameter name="MVD">0.759055018424988</parameter><parameter name="AN1">0.225810425756279</parameter><parameter name="AN2">0</parameter><parameter name="VSN">2.485 Apr  4 2017</parameter><parameter name="SRN">0085</parameter><parameter name="CAM">0</parameter><parameter name="INS">IR-Biotyper</parameter><parameter name="FOC">69</parameter><parameter name="RDY">1</parameter><parameter name="ARS">32</parameter></Instrument_Parameters_Rf><Sample_Parameters_><parameter name="BLD"></parameter><parameter name="CNM">Admin</parameter><parameter name="CPY"></parameter><parameter name="DPM"></parameter><parameter name="EXP">IRBT_v3_32Scans.XPM</parameter><parameter name="LCT"></parameter><parameter name="SFM">Microplate, HTS-XT</parameter><parameter name="SNM">220531-1301_AJC32M (D_3)_C10_9add0225-930d-4368-b127-a13632d8dc41.0</parameter><parameter name="XPP">C:\Users\Public\Documents\Bruker\OPUS_8.2.28\XPM</parameter><parameter name="IST">OK</parameter><parameter name="CPG">1252</parameter><parameter name="UID">8e592fb8-e2ff-400f-8c6f-8997ead2079d</parameter></Sample_Parameters_><Instrument_Parameters_><parameter name="HFL">15800.168544</parameter><parameter name="LFL">0</parameter><parameter name="LWN">15800.168544</parameter><parameter name="ABP">32197</parameter><parameter name="SSP">1</parameter><parameter name="ASG">2</parameter><parameter name="ARG">2</parameter><parameter name="ASS">32</parameter><parameter name="GFW">16</parameter><parameter name="GBW">16</parameter><parameter name="BFW">0</parameter><parameter name="BBW">0</parameter><parameter name="PKA">7521</parameter><parameter name="PKL">4988</parameter><parameter name="PRA">7842</parameter><parameter name="PRL">4993</parameter><parameter name="P2A">1</parameter><parameter name="P2L">1</parameter><parameter name="P2R">1</parameter><parameter name="P2K">1</parameter><parameter name="DAQ">0</parameter><parameter name="AG2">1</parameter><parameter name="SSM">1</parameter><parameter name="RSN">13521</parameter><parameter name="CRR">0</parameter><parameter name="SRT">1654007093.307</parameter><parameter name="DUR">19.6389923095703</parameter><parameter name="TSC">29.1</parameter><parameter name="MVD">0.325415879487991</parameter><parameter name="AN1">0.225823290824944</parameter><parameter name="AN2">0</parameter><parameter name="VSN">2.485 Apr  4 2017</parameter><parameter name="SRN">0085</parameter><parameter name="CAM">0</parameter><parameter name="INS">IR-Biotyper</parameter><parameter name="FOC">69</parameter><parameter name="RDY">1</parameter></Instrument_Parameters_><History/></OPUSDataFile>
