<?xml version="1.0" encoding="UTF-8" ?>
<OPUSDataFile><AB><Ydata ylabel="Absorbance Units"><values byteorder="INTEL" format="FLOAT32" numvalues="3497"> -0.07066591 -0.07067996 -0.07068434 -0.07067961 -0.07065759 -0.07061786 -0.07055739 -0.07047727 -0.07038987 -0.07029777
 -0.07022307 -0.07016539 -0.07013649 -0.07013128 -0.07014356 -0.07016963 -0.0701997 -0.07023533 -0.07027527 -0.07031936
 -0.07036954 -0.07041725 -0.07045902 -0.07048672 -0.07049455 -0.07048775 -0.07046498 -0.07044034 -0.07041597 -0.07040086
 -0.07039639 -0.07040341 -0.07042202 -0.07045125 -0.07049082 -0.07053769 -0.07059033 -0.07063843 -0.07068035 -0.07070363
 -0.07071057 -0.07069862 -0.07067506 -0.0706504 -0.07063051 -0.07062836 -0.07063961 -0.07066768 -0.07069893 -0.07072771
 -0.07074184 -0.07073474 -0.07070355 -0.07064463 -0.07056738 -0.07047077 -0.07037824 -0.07029118 -0.07023823 -0.07022107
 -0.07024983 -0.07032246 -0.07041413 -0.07052096 -0.07060444 -0.07066815 -0.07070244 -0.07071726 -0.07073342 -0.07075293
 -0.07079158 -0.070839 -0.07088988 -0.07093386 -0.07095875 -0.07096633 -0.07095251 -0.07092754 -0.07089482 -0.0708594
 -0.07082375 -0.07078659 -0.07074717 -0.07071055 -0.07067612 -0.07066263 -0.07067108 -0.07072221 -0.0708157 -0.07095414
 -0.07113204 -0.07131971 -0.07150753 -0.07164231 -0.07172395 -0.07171993 -0.07164905 -0.07152575 -0.07137231 -0.07122108
 -0.07108268 -0.07097798 -0.07090355 -0.07086515 -0.07084925 -0.07085203 -0.07086376 -0.07088 -0.07090272 -0.07093155
 -0.07097007 -0.07101925 -0.07107222 -0.07112867 -0.07117592 -0.07121398 -0.07123988 -0.07125563 -0.07127234 -0.07129145
 -0.07132576 -0.07137175 -0.07142903 -0.07148933 -0.07153787 -0.07157108 -0.07157638 -0.07156137 -0.07152788 -0.07148329
 -0.0714328 -0.07137842 -0.07131974 -0.0712674 -0.07122091 -0.07120512 -0.07122358 -0.0712985 -0.0714351 -0.07161606
 -0.07184139 -0.07200219 -0.07209342 -0.07200807 -0.0717656 -0.071439 -0.07104924 -0.07071827 -0.0704411 -0.07026669
 -0.07018134 -0.07018792 -0.07026321 -0.0703867 -0.07052407 -0.0706401 -0.07071585 -0.07072282 -0.07068659 -0.07060673
 -0.07052334 -0.07045034 -0.07039323 -0.07035697 -0.07032525 -0.0702962 -0.07026671 -0.07023638 -0.07021654 -0.07020734
 -0.07021312 -0.070232 -0.07025407 -0.07027693 -0.07028638 -0.07028154 -0.07025246 -0.07020105 -0.07012435 -0.07002918
 -0.06992071 -0.06980984 -0.06970597 -0.06962035 -0.06956068 -0.06953754 -0.06955762 -0.06962287 -0.06973927 -0.06988359
 -0.07005673 -0.07021148 -0.07034366 -0.07041163 -0.07041237 -0.07033706 -0.07018744 -0.06998993 -0.06974877 -0.06950471
 -0.06926004 -0.0690456 -0.06886019 -0.06871691 -0.06861209 -0.06854682 -0.0685138 -0.06850726 -0.0685139 -0.0685221
 -0.06851869 -0.06849077 -0.06843988 -0.06836084 -0.06826999 -0.06817001 -0.06807638 -0.06799218 -0.06792652 -0.06788063
 -0.06786097 -0.06786814 -0.0678997 -0.06795442 -0.06801188 -0.0680697 -0.06810042 -0.06810566 -0.06807555 -0.06801633
 -0.06793918 -0.06784841 -0.06775743 -0.06766558 -0.06757706 -0.06749103 -0.06740487 -0.06732893 -0.06726431 -0.06723438
 -0.06725004 -0.06732105 -0.06746009 -0.06762749 -0.06782383 -0.06797603 -0.06807505 -0.06808654 -0.0680073 -0.06784645
 -0.06760551 -0.06730829 -0.06696134 -0.06662045 -0.06629262 -0.06603881 -0.06585389 -0.06576043 -0.06573836 -0.06576745
 -0.06581799 -0.06584162 -0.06583066 -0.06575363 -0.06564043 -0.06549903 -0.06535719 -0.06523247 -0.06512128 -0.06503052
 -0.06492848 -0.06481037 -0.06465348 -0.06445187 -0.06422772 -0.06398159 -0.06375814 -0.06355884 -0.06341075 -0.06331124
 -0.06325894 -0.06324327 -0.06322517 -0.06318799 -0.06306042 -0.0628525 -0.06253906 -0.06216302 -0.06177354 -0.06138585
 -0.0610384 -0.06070589 -0.06038505 -0.06004928 -0.05968257 -0.05928766 -0.05885902 -0.05841998 -0.05797439 -0.05753623
 -0.05710953 -0.05667884 -0.05624402 -0.05576009 -0.05522602 -0.05461906 -0.05394835 -0.05327145 -0.05259455 -0.05197994
 -0.05141305 -0.05088526 -0.05038537 -0.04988775 -0.04939067 -0.04888743 -0.04836167 -0.04780272 -0.04718003 -0.04646738
 -0.04566473 -0.04476228 -0.04378173 -0.04273167 -0.04160329 -0.04039368 -0.03911201 -0.03775456 -0.03638251 -0.03499981
 -0.03364588 -0.03232064 -0.03101495 -0.02972749 -0.02844436 -0.02716679 -0.02589295 -0.02462435 -0.02336287 -0.02211241
 -0.02088531 -0.01967244 -0.01848303 -0.01726027 -0.01596422 -0.01453032 -0.01287888 -0.01108276 -0.009133417 -0.007183646
 -0.005290375 -0.003471388 -0.001746444 -5.556486E-05 0.001607388 0.003271103 0.004938446 0.00660604 0.008273193 0.009923263
 0.01155677 0.01316198 0.01475415 0.01638438 0.01808132 0.01996987 0.02201702 0.02424682 0.02654715 0.02876157
 0.03087301 0.03278475 0.03459689 0.03634273 0.0381055 0.03994091 0.04184138 0.04382527 0.04582259 0.0478204
 0.0497849 0.05170504 0.05362548 0.05554754 0.05754631 0.05962266 0.06178362 0.06401764 0.06623499 0.06843173
 0.07053689 0.07256943 0.07454617 0.07648295 0.07841888 0.08035748 0.08231617 0.08430299 0.08633433 0.08840378
 0.09052105 0.09264559 0.09475833 0.0968478 0.09889566 0.1009595 0.1030488 0.1051994 0.1074239 0.1096614
 0.1119087 0.1141069 0.1162559 0.1183771 0.1204742 0.1225869 0.1247122 0.1268592 0.1290186 0.1311717
 0.1333079 0.1353923 0.1374359 0.1394248 0.1414137 0.1434442 0.1455692 0.1478551 0.1502517 0.1527713
 0.1552894 0.1577628 0.1601544 0.162441 0.1646756 0.1668618 0.1690432 0.1712234 0.1734184 0.1756283
 0.177853 0.1800902 0.1823196 0.1845408 0.186737 0.188918 0.191101 0.193298 0.1955424 0.197833
 0.2001865 0.2025852 0.2050224 0.2074705 0.20991 0.2123239 0.2146949 0.2170383 0.2193535 0.2216647
 0.2239803 0.2262896 0.2285936 0.2308664 0.2331054 0.2353153 0.2374967 0.2396672 0.2418267 0.2439802
 0.2461313 0.2482996 0.2504883 0.2527242 0.2549904 0.2572692 0.2595389 0.2617536 0.263927 0.266048
 0.2681558 0.2702745 0.2724224 0.2746205 0.2768469 0.2791068 0.2813418 0.2835444 0.2856508 0.2876475
 0.2895388 0.2913209 0.2930837 0.2948314 0.2966406 0.2985076 0.3004324 0.3024104 0.304421 0.3064631
 0.3085288 0.3106052 0.3126635 0.3146921 0.3166558 0.3185708 0.3204399 0.322278 0.3241032 0.3258964
 0.3276519 0.3293589 0.3310053 0.3326246 0.33422 0.335828 0.3374559 0.3391024 0.3407692 0.3424201
 0.3440525 0.3456087 0.3470894 0.3484667 0.3497578 0.3510248 0.3522878 0.3536471 0.3550896 0.3566442
 0.3582719 0.3599282 0.3615928 0.3632272 0.3648348 0.3664081 0.367948 0.3694537 0.3709243 0.3723591
 0.3737581 0.3751227 0.3764435 0.3777188 0.3789505 0.3801374 0.3813109 0.3824722 0.3836405 0.3848118
 0.3859597 0.38708 0.3881363 0.3891336 0.390065 0.3909444 0.3917924 0.3926294 0.3934936 0.3943951
 0.3953654 0.3963816 0.3974413 0.3985122 0.3995731 0.4006273 0.4016707 0.4027155 0.4037694 0.4048041
 0.4058179 0.4067778 0.4076799 0.4085344 0.409342 0.4101164 0.4108559 0.4115457 0.4121881 0.4127843
 0.4133446 0.4139026 0.41446 0.4150386 0.415629 0.4162267 0.4168236 0.4174119 0.4179818 0.4185256
 0.4190331 0.4194947 0.4199167 0.4202978 0.4206523 0.4209839 0.4212949 0.4215853 0.4218639 0.4221308
 0.4224108 0.4227045 0.4230107 0.4233257 0.4236107 0.4238661 0.4240697 0.4242316 0.4243713 0.4244963
 0.4246326 0.4247784 0.4249428 0.4251193 0.4253058 0.425493 0.4256723 0.4258436 0.4259995 0.4261635
 0.4263415 0.4265512 0.4268046 0.4270663 0.4273375 0.427547 0.4276884 0.4277269 0.4276619 0.4275294
 0.4273348 0.4271464 0.4269636 0.4268218 0.4267095 0.4266074 0.4265114 0.4263969 0.4262831 0.4261882
 0.4261268 0.4261316 0.4261723 0.4262433 0.4263005 0.4263123 0.4262882 0.426217 0.4261511 0.4261027
 0.4260927 0.4261301 0.4261824 0.4262486 0.4262829 0.4262833 0.4262214 0.4260985 0.4259147 0.4256782
 0.4254278 0.4251761 0.4249847 0.4248582 0.4248412 0.4249189 0.4250956 0.4253362 0.4256114 0.4258806
 0.4261032 0.4262674 0.426348 0.4263828 0.4263733 0.426377 0.4264066 0.4265001 0.4266645 0.4269224
 0.4272762 0.427745 0.4283293 0.4290168 0.4298002 0.4306055 0.4314179 0.4321236 0.4327152 0.4331003
 0.4333003 0.4333017 0.4331659 0.4329698 0.4327816 0.4327107 0.4327605 0.4329896 0.4333046 0.4336883
 0.4340159 0.4342389 0.4342975 0.4341597 0.4338656 0.4334102 0.4328905 0.4323139 0.4317558 0.4312195
 0.4307105 0.430225 0.4297235 0.4292057 0.4286482 0.4280588 0.4274517 0.4268318 0.426222 0.4256092
 0.4249913 0.4243325 0.4235998 0.4227514 0.4217434 0.4205654 0.4191902 0.417663 0.4159841 0.4142322
 0.4124218 0.410625 0.4088534 0.4071554 0.4055371 0.4040141 0.4025868 0.4012189 0.3999058 0.3985815
 0.3972484 0.3958809 0.3944939 0.393126 0.3917817 0.3904988 0.3892514 0.3880198 0.3867716 0.3854572
 0.3840828 0.3826241 0.3811382 0.3796393 0.3782018 0.3768568 0.3756379 0.3745689 0.3735991 0.372733
 0.3718519 0.3709464 0.3699219 0.3687738 0.3675096 0.3661366 0.3647396 0.3633234 0.3619607 0.3606457
 0.3593976 0.3582087 0.3570727 0.3559832 0.3549325 0.3539048 0.3528834 0.3518472 0.3507724 0.3496574
 0.3484899 0.3472951 0.3460783 0.3448621 0.343655 0.3424543 0.3412619 0.3400635 0.338858 0.3376387
 0.3364054 0.335153 0.333881 0.33258 0.331252 0.3298995 0.3285306 0.3271729 0.325834 0.3245481
 0.3233095 0.3221296 0.3209859 0.3198613 0.3187294 0.317564 0.3163544 0.3150841 0.3137682 0.3124057
 0.3110242 0.3096299 0.3082415 0.3068632 0.3055005 0.3041545 0.3028271 0.3015184 0.3002257 0.2989478
 0.2976707 0.296393 0.2950995 0.2937921 0.292469 0.2911352 0.2898003 0.2884693 0.2871537 0.2858587
 0.2845947 0.2833637 0.2821716 0.2810133 0.2798869 0.278791 0.2777235 0.2766913 0.2756998 0.2747315
 0.2737913 0.2728084 0.2717781 0.2706201 0.2693301 0.2679039 0.2663499 0.2647662 0.2631669 0.2616872
 0.260325 0.2591567 0.2581471 0.2572634 0.2564489 0.255596 0.2546775 0.2536047 0.2524258 0.2511357
 0.2498269 0.2485523 0.2473507 0.2462612 0.2452319 0.2442589 0.2432866 0.2422978 0.2413249 0.2403657
 0.2395098 0.238762 0.238155 0.2376812 0.2372565 0.236864 0.236359 0.2357405 0.2349162 0.2339201
 0.2327771 0.2315388 0.2303044 0.2290921 0.2279722 0.2269076 0.2258931 0.2248913 0.2238682 0.2228499
 0.2218322 0.2208696 0.2199824 0.2191625 0.2184177 0.2176822 0.2169483 0.2161955 0.2154224 0.2146896
 0.2139994 0.2134041 0.2128938 0.2124373 0.2120204 0.2115711 0.2110922 0.2105507 0.2099644 0.2093503
 0.2087158 0.2080838 0.2074318 0.2067569 0.2060165 0.2051858 0.2042422 0.203161 0.2019824 0.2006999
 0.1994153 0.1981406 0.1969753 0.1959338 0.1950306 0.1942675 0.1935528 0.1928791 0.1921234 0.1912886
 0.1903231 0.1892491 0.1881159 0.1869472 0.1858271 0.1847562 0.1837787 0.1828708 0.1820256 0.1812126
 0.1804063 0.1795862 0.1787306 0.1778459 0.1769221 0.1760019 0.1750914 0.1742388 0.1734584 0.1727369
 0.1720794 0.1713967 0.1706841 0.1698666 0.1689475 0.1679547 0.1669002 0.165876 0.1648781 0.1639469
 0.1630585 0.1621713 0.1612772 0.160334 0.1593705 0.1584015 0.1574576 0.156575 0.1557471 0.1549829
 0.1542595 0.1535655 0.1529063 0.1522775 0.1517064 0.1511993 0.1507588 0.1503889 0.1500488 0.1497365
 0.1493896 0.1490058 0.1485362 0.1479847 0.1473452 0.1466318 0.1458893 0.1451352 0.144436 0.1437988
 0.1432676 0.1428348 0.1425089 0.142278 0.1421347 0.1420709 0.1420815 0.1421564 0.1422936 0.1424741
 0.1426944 0.1429326 0.1431834 0.1434423 0.1437055 0.144006 0.1443453 0.1447884 0.1453382 0.1460481
 0.146912 0.1479226 0.1490637 0.1502717 0.1515339 0.1527856 0.1540281 0.1552342 0.1564113 0.1575591
 0.1586801 0.1597767 0.1608497 0.1618995 0.16293 0.163945 0.164937 0.1659102 0.1668276 0.1676879
 0.1684328 0.169057 0.1695104 0.1697894 0.1698728 0.1697613 0.169461 0.168975 0.168322 0.1675082
 0.1665604 0.1654984 0.1643744 0.1632289 0.1621492 0.161177 0.1604017 0.1598269 0.1594951 0.1593636
 0.1594223 0.1596258 0.1599501 0.1603852 0.1609225 0.1615695 0.162329 0.1631876 0.1641467 0.1651625
 0.1662329 0.1672921 0.1683355 0.1692844 0.1701362 0.1708295 0.1713741 0.1717678 0.1720347 0.1722332
 0.1723824 0.1725525 0.1727235 0.1729241 0.1730543 0.1730765 0.1727961 0.1721123 0.1708211 0.1687991
 0.1660199 0.162406 0.1582268 0.1534836 0.1486302 0.1437096 0.1391012 0.1348329 0.1310419 0.1277242
 0.1248143 0.1222988 0.1200574 0.1180836 0.1162937 0.1146801 0.113187 0.1117974 0.1104565 0.1091542
 0.10785 0.1065623 0.1052871 0.1040616 0.1029068 0.1018457 0.1008951 0.100053 0.09932248 0.09869613
 0.09817223 0.09775182 0.09743457 0.09722542 0.0971248 0.09713061 0.09724065 0.09742182 0.09766246 0.09787077
 0.09802791 0.09800625 0.09780408 0.09733977 0.09665164 0.0957588 0.09472731 0.09364212 0.09256135 0.09156317
 0.09067736 0.08994356 0.08936755 0.0889603 0.08872013 0.08864695 0.08874729 0.08902341 0.08947603 0.09011284
 0.090854 0.09169869 0.09240095 0.09294112 0.09295245 0.09242692 0.09110484 0.08904395 0.08630737 0.08301825
 0.07952111 0.07592235 0.07258683 0.06951802 0.0668878 0.0645986 0.06263112 0.06087635 0.05925626 0.05773208
 0.05626244 0.05487036 0.05355478 0.05233778 0.05122662 0.05021109 0.0492924 0.04844305 0.04766143 0.04692366
 0.04622887 0.04556267 0.04492476 0.0443061 0.04370637 0.04311862 0.04254432 0.04198249 0.04143795 0.04091986
 0.04042928 0.03997561 0.03954512 0.03913232 0.03871537 0.03827684 0.03781331 0.0373127 0.03680503 0.03629286
 0.03581792 0.03539032 0.03502312 0.03472227 0.03445445 0.03421845 0.03396103 0.03368084 0.03335501 0.03298851
 0.03260827 0.03221824 0.03185397 0.031505 0.03116416 0.03081376 0.03041277 0.02996387 0.02944515 0.02888969
 0.02831544 0.02776052 0.02725569 0.02681413 0.02645304 0.02615591 0.02592568 0.02572547 0.0255516 0.02535938
 0.02514295 0.02487509 0.02455278 0.02418856 0.02378414 0.02337706 0.02296841 0.02258422 0.02222221 0.02188604
 0.02157432 0.02128526 0.02101836 0.02077399 0.02054631 0.02032923 0.02011443 0.01988997 0.0196589 0.01941612
 0.0191788 0.01895376 0.01875004 0.01857639 0.01841185 0.01825673 0.01807359 0.01785682 0.01759382 0.01728232
 0.01695284 0.0166075 0.01629053 0.01600112 0.01575503 0.01554564 0.01535344 0.01517246 0.01497462 0.01476183
 0.01452226 0.01426609 0.01400081 0.01373781 0.01349217 0.01326363 0.01306053 0.01286483 0.01267305 0.01246211
 0.01222319 0.01194941 0.01163561 0.0112965 0.01093216 0.01056606 0.01019981 0.009851817 0.009522631 0.009219682
 0.008941728 0.008683235 0.008441488 0.008201755 0.007962435 0.007710283 0.007448123 0.007174028 0.006894075 0.006615698
 0.006342771 0.006082722 0.005833047 0.005595075 0.005363202 0.005135016 0.004907952 0.004680569 0.004452925 0.004225102
 0.003995365 0.003763494 0.00352816 0.003289059 0.003051147 0.002814928 0.00259171 0.002382075 0.00219637 0.002033587
 0.001896041 0.001779854 0.001676729 0.001580228 0.00147426 0.00135428 0.001206201 0.001032409 0.0008285888 0.0006032372
 0.0003599742 0.0001070359 -0.0001512162 -0.0004096752 -0.0006663481 -0.0009168646 -0.001160292 -0.001392557 -0.001612982 -0.001819619
 -0.002012133 -0.002193185 -0.002363161 -0.002531312 -0.002698685 -0.002878644 -0.003070772 -0.003281832 -0.003507543 -0.003739933
 -0.003973535 -0.004193058 -0.004397784 -0.004578811 -0.004741947 -0.0048887 -0.00502672 -0.00516148 -0.005297454 -0.005438623
 -0.005584026 -0.005734627 -0.005886499 -0.006038701 -0.006190302 -0.006340412 -0.00649554 -0.006655946 -0.006831313 -0.007021852
 -0.007228678 -0.007450294 -0.007674729 -0.007900033 -0.008110378 -0.008306326 -0.00848048 -0.00863633 -0.008776583 -0.008905972
 -0.009031652 -0.009158046 -0.009292034 -0.009435423 -0.00959306 -0.009759163 -0.00993425 -0.01010542 -0.0102685 -0.01041648
 -0.01054533 -0.01066438 -0.01077333 -0.01089006 -0.01101609 -0.01115889 -0.01131842 -0.01148602 -0.0116607 -0.01182957
 -0.01199313 -0.01214613 -0.01229104 -0.01243218 -0.01257194 -0.01271786 -0.01286913 -0.01302913 -0.01319245 -0.0133556
 -0.01351288 -0.01365833 -0.01379283 -0.01391367 -0.01402953 -0.01414225 -0.01425971 -0.01438468 -0.01451626 -0.01465532
 -0.0147938 -0.01493115 -0.01506164 -0.01518518 -0.01530414 -0.01541924 -0.01553818 -0.01566109 -0.01579338 -0.01593321
 -0.01607848 -0.01622606 -0.01636836 -0.01650411 -0.01662694 -0.01674086 -0.01684639 -0.01695077 -0.01705971 -0.01717553
 -0.01730249 -0.01743346 -0.01756792 -0.01769587 -0.01781452 -0.01792152 -0.01801543 -0.01810344 -0.01818581 -0.01827241
 -0.01836363 -0.01846436 -0.01857395 -0.01868882 -0.01880763 -0.01892185 -0.01903156 -0.01913184 -0.01922517 -0.0193141
 -0.01940104 -0.01949121 -0.01958375 -0.01968036 -0.01977767 -0.01987365 -0.01996672 -0.02005497 -0.02014041 -0.0202229
 -0.02030609 -0.02039086 -0.02047879 -0.02057045 -0.02066429 -0.0207603 -0.02085509 -0.02094848 -0.02103705 -0.02112086
 -0.02119849 -0.02127079 -0.02134042 -0.02140942 -0.02148545 -0.02156984 -0.02167035 -0.0217838 -0.02191052 -0.02204282
 -0.02217292 -0.02229629 -0.02240543 -0.02250577 -0.02259685 -0.02268838 -0.02278449 -0.02288613 -0.02299544 -0.02310367
 -0.02320974 -0.02330827 -0.02339833 -0.02348528 -0.02356939 -0.02365782 -0.02375016 -0.02384541 -0.02394249 -0.02403527
 -0.02412377 -0.0242048 -0.02427909 -0.02434668 -0.02440803 -0.02446306 -0.02451419 -0.02456242 -0.02461383 -0.02467273
 -0.02474369 -0.02483149 -0.02493211 -0.02504654 -0.02516478 -0.02528469 -0.02540039 -0.02551031 -0.02561609 -0.02571774
 -0.02581758 -0.02591567 -0.02600976 -0.02609968 -0.02618247 -0.0262587 -0.02632971 -0.02639649 -0.02646304 -0.02652962
 -0.02659874 -0.02667007 -0.02674436 -0.02682067 -0.02689862 -0.02697651 -0.02705293 -0.02712719 -0.02719784 -0.02726779
 -0.02733748 -0.0274102 -0.0274874 -0.0275672 -0.02765003 -0.02772931 -0.02780454 -0.02787031 -0.02792641 -0.02797342
 -0.02801197 -0.02804855 -0.02808395 -0.0281264 -0.02817488 -0.02823148 -0.02829259 -0.02835127 -0.0284054 -0.02844725
 -0.02848088 -0.02850658 -0.02853145 -0.02856144 -0.02859835 -0.02864559 -0.02869909 -0.02875798 -0.02882009 -0.0288845
 -0.02895205 -0.02902313 -0.02909506 -0.02916797 -0.02923361 -0.02929158 -0.02933645 -0.02936877 -0.02939224 -0.02940807
 -0.02942499 -0.02944261 -0.02946466 -0.02948916 -0.02951306 -0.02953629 -0.02955622 -0.02957667 -0.02960051 -0.02963118
 -0.02967324 -0.02972427 -0.02978535 -0.02984959 -0.02991498 -0.02997656 -0.03003266 -0.03008201 -0.03012433 -0.03015841
 -0.03018415 -0.03019928 -0.03020371 -0.0301996 -0.03018789 -0.0301792 -0.03017518 -0.03019044 -0.03022524 -0.03028867
 -0.030379 -0.03049672 -0.0306404 -0.03080734 -0.03099877 -0.03121407 -0.03145736 -0.03173083 -0.03203955 -0.03238602
 -0.03277551 -0.03321006 -0.03369395 -0.0342287 -0.03481592 -0.03545748 -0.03614271 -0.03687264 -0.03760958 -0.03835117
 -0.03902714 -0.03963318 -0.04009705 -0.0404195 -0.04056615 -0.04054225 -0.04034718 -0.03998473 -0.03945263 -0.03877942
 -0.03799226 -0.03715844 -0.03635897 -0.03564188 -0.03507296 -0.03465521 -0.03440921 -0.03431749 -0.03438314 -0.03456948
 -0.03487899 -0.03522493 -0.03560112 -0.03589054 -0.03607932 -0.03613672 -0.03606135 -0.03592766 -0.03573978 -0.03556998
 -0.03541422 -0.03528908 -0.03518456 -0.03507429 -0.03495535 -0.03480355 -0.03463239 -0.03445276 -0.03427522 -0.03412243
 -0.03397751 -0.03383878 -0.03367857 -0.03347736 -0.0332369 -0.0329478 -0.03264283 -0.03232702 -0.03203007 -0.03175808
 -0.03152085 -0.03132021 -0.03115475 -0.03102445 -0.03092221 -0.03084723 -0.03078815 -0.03074409 -0.03070402 -0.03066813
 -0.03063096 -0.03059363 -0.03055602 -0.03051913 -0.03048459 -0.03045259 -0.03042427 -0.03039862 -0.03037543 -0.03035319
 -0.03033101 -0.03030806 -0.03028359 -0.03025846 -0.03023244 -0.030208 -0.0301853 -0.03016758 -0.03015517 -0.03014976
 -0.03015142 -0.03015978 -0.03017468 -0.0301943 -0.03021834 -0.03024428 -0.03027186 -0.03029867 -0.03032502 -0.03035034
 -0.03037533 -0.03040132 -0.03042739 -0.03045341 -0.03047729 -0.03049678 -0.0305126 -0.03052362 -0.03053446 -0.03054668
 -0.03056294 -0.03058502 -0.03060912 -0.03063529 -0.03065686 -0.03067303 -0.03068182 -0.03068309 -0.03068181 -0.03067843
 -0.03068059 -0.03068792 -0.0307027 -0.03072312 -0.03074401 -0.03076436 -0.03077852 -0.03078829 -0.03079397 -0.0307976
 -0.03080239 -0.03080719 -0.03081239 -0.0308158 -0.03081556 -0.03081325 -0.03080826 -0.03080554 -0.03080622 -0.03081363
 -0.0308288 -0.03085076 -0.03087971 -0.03091166 -0.03094639 -0.03097918 -0.0310099 -0.03103528 -0.03105554 -0.03107004
 -0.03107957 -0.03108634 -0.03109149 -0.03109906 -0.03110895 -0.03112359 -0.03114003 -0.03115623 -0.03116871 -0.03117313
 -0.03117072 -0.03115955 -0.03114672 -0.03113396 -0.03112842 -0.03113264 -0.03114812 -0.03117601 -0.03121224 -0.0312567
 -0.0313038 -0.03135322 -0.03140179 -0.0314496 -0.03149729 -0.03154515 -0.03159531 -0.03164737 -0.03170146 -0.03175604
 -0.0318077 -0.03185486 -0.03189288 -0.03192245 -0.03194153 -0.03195431 -0.03196286 -0.03197243 -0.03198693 -0.03200752
 -0.03203607 -0.0320699 -0.03210854 -0.03215045 -0.0321951 -0.03224345 -0.03229565 -0.03235082 -0.03240892 -0.03246597
 -0.03252182 -0.03257339 -0.03262106 -0.03266532 -0.03270708 -0.03274994 -0.03279448 -0.03284445 -0.03289852 -0.03295702
 -0.03301616 -0.0330714 -0.0331208 -0.03315999 -0.03319295 -0.03321984 -0.0332474 -0.03327863 -0.03331599 -0.03336129
 -0.0334119 -0.03346784 -0.03352537 -0.03358416 -0.03364116 -0.03369617 -0.03374757 -0.03379549 -0.03384151 -0.03388606
 -0.03393286 -0.03398196 -0.03403568 -0.03409365 -0.03415602 -0.03422287 -0.03429439 -0.03437066 -0.03445241 -0.03453795
 -0.03462686 -0.03471553 -0.03480197 -0.03488348 -0.03495802 -0.03502669 -0.03508895 -0.03514851 -0.03520595 -0.03526353
 -0.03532159 -0.03538063 -0.03544071 -0.03550394 -0.03557057 -0.03564504 -0.03572712 -0.03581801 -0.03591627 -0.03601723
 -0.03611936 -0.03621639 -0.03630802 -0.03639081 -0.0364655 -0.03653135 -0.03659 -0.03664178 -0.03669053 -0.03673762
 -0.03678889 -0.03684701 -0.03691499 -0.03699519 -0.03708305 -0.0371789 -0.03727308 -0.03736455 -0.03744746 -0.03752133
 -0.03758931 -0.0376518 -0.03771576 -0.03778115 -0.03785132 -0.03792571 -0.03800396 -0.03808556 -0.03816935 -0.03825445
 -0.03833903 -0.03842195 -0.03850069 -0.03857602 -0.03864725 -0.03871695 -0.0387866 -0.03885725 -0.03892995 -0.03900361
 -0.03907798 -0.03915316 -0.03922897 -0.03930681 -0.03938689 -0.03946931 -0.03955409 -0.03963948 -0.03972539 -0.03981004
 -0.03989337 -0.03997388 -0.04005184 -0.04012702 -0.04020062 -0.04027551 -0.04035274 -0.04043622 -0.04052428 -0.04061705
 -0.04071109 -0.04080301 -0.04089241 -0.04097726 -0.04106122 -0.0411454 -0.04123203 -0.04132285 -0.04141384 -0.04150508
 -0.04158957 -0.0416664 -0.04173261 -0.04178787 -0.04183553 -0.04187598 -0.04191646 -0.04195725 -0.04200391 -0.04205595
 -0.04211464 -0.04217881 -0.04224605 -0.04231592 -0.04238629 -0.04245779 -0.04253028 -0.0426044 -0.04268086 -0.04275933
 -0.04283991 -0.04292198 -0.04300561 -0.04308917 -0.04317284 -0.0432523 -0.04332711 -0.04339228 -0.04344694 -0.0434912
 -0.04352489 -0.04355515 -0.04358239 -0.04361413 -0.04365001 -0.04369143 -0.04373734 -0.04378407 -0.04383161 -0.0438777
 -0.04392358 -0.04397092 -0.04401926 -0.04406962 -0.04411867 -0.04416366 -0.04420307 -0.04423386 -0.04426063 -0.04428425
 -0.04430973 -0.04433963 -0.04437136 -0.04440533 -0.04443513 -0.0444597 -0.04447905 -0.04449302 -0.04450829 -0.04452511
 -0.04454843 -0.04457787 -0.04461342 -0.0446544 -0.04469809 -0.04474397 -0.04478931 -0.04483394 -0.04487637 -0.04491641
 -0.04495382 -0.04498662 -0.04501356 -0.04503151 -0.04503782 -0.04503224 -0.04501286 -0.04498522 -0.04494969 -0.04491455
 -0.04488144 -0.04485521 -0.04483692 -0.04482523 -0.04482022 -0.04481605 -0.04481244 -0.04480416 -0.04479147 -0.04477385
 -0.04475208 -0.04472906 -0.04470534 -0.04468394 -0.04466494 -0.04465007 -0.0446386 -0.0446307 -0.04462444 -0.04461807
 -0.04461077 -0.04460092 -0.04459064 -0.04458054 -0.04457184 -0.04456568 -0.044559 -0.0445515 -0.04454007 -0.04452404
 -0.04450436 -0.04448102 -0.0444569 -0.04443211 -0.04440837 -0.04438564 -0.04436427 -0.04434417 -0.04432468 -0.0443067
 -0.04429178 -0.04428201 -0.04428299 -0.04429341 -0.04431662 -0.04434266 -0.044365 -0.04437255 -0.04435406 -0.04431299
 -0.04424555 -0.04416744 -0.04408231 -0.04400169 -0.04392898 -0.04386584 -0.0438131 -0.04376788 -0.04373007 -0.04369596
 -0.04366535 -0.04363408 -0.04360197 -0.04356559 -0.04352517 -0.04347939 -0.04342959 -0.04337847 -0.04332769 -0.0432824
 -0.04324123 -0.04320592 -0.04317061 -0.04313045 -0.04308182 -0.04301955 -0.0429478 -0.04286648 -0.04278194 -0.04269632
 -0.04261189 -0.04252942 -0.0424499 -0.04237356 -0.04230076 -0.04223163 -0.04216395 -0.04209773 -0.0420334 -0.04197183
 -0.04192043 -0.04187921 -0.0418536 -0.04183966 -0.04183077 -0.0418199 -0.04179002 -0.04173838 -0.04165138 -0.04153803
 -0.04139943 -0.04125124 -0.04110433 -0.04096606 -0.04084467 -0.04073206 -0.04062835 -0.04052172 -0.04040856 -0.04029049
 -0.0401665 -0.04004788 -0.03993541 -0.03983559 -0.03974859 -0.03967605 -0.03961748 -0.03957142 -0.03953464 -0.03949323
 -0.03944249 -0.03935964 -0.039248 -0.03910127 -0.03892953 -0.0387442 -0.03855095 -0.03835841 -0.03817088 -0.03799224
 -0.03782914 -0.03768676 -0.03756309 -0.03746104 -0.03736505 -0.03727311 -0.03717007 -0.03705343 -0.0369182 -0.03676375
 -0.03659064 -0.03639914 -0.03619589 -0.03598199 -0.03576974 -0.03555938 -0.03535892 -0.03516703 -0.03498408 -0.03480875
 -0.03463973 -0.03447339 -0.03430536 -0.03412996 -0.03393824 -0.0337338 -0.03351341 -0.03329157 -0.03307514 -0.0328688
 -0.03267808 -0.03249011 -0.03230357 -0.03210623 -0.03189544 -0.0316736 -0.03144037 -0.0312076 -0.03097574 -0.03075222
 -0.03053531 -0.03031489 -0.0300869 -0.02982507 -0.0295319 -0.02919776 -0.02883468 -0.02846354 -0.02808846 -0.02772664
 -0.02736973 -0.02701444 -0.02665808 -0.02629497 -0.02593489 -0.02558141 -0.0252394 -0.02491319 -0.02459421 -0.02428316
 -0.02396246 -0.02363146 -0.02326213 -0.02285203 -0.02238744 -0.02186924 -0.0213345 -0.02078607 -0.02026784 -0.01977358
 -0.0192988 -0.01883389 -0.01834685 -0.01783642 -0.0172834 -0.01669421 -0.01606872 -0.01541591 -0.01474311 -0.01406023
 -0.01337948 -0.01269342 -0.01201001 -0.01128668 -0.0105124 -0.009654297 -0.008695776 -0.007673422 -0.006588466 -0.005486877
 -0.004373765 -0.003237033 -0.002076276 -0.0008796698 0.0003490929 0.001577755 0.002808517 0.00402741 0.005254613 0.006544799
 0.007908953 0.00940892 0.01100945 0.0126908 0.01441131 0.01611158 0.01780555 0.01947986 0.02117077 0.0228952
 0.02466336 0.02648272 0.02834962 0.03025464 0.03225521 0.03434623 0.03668964 0.03929972 0.04225194 0.04554151
 0.04890922 0.05234103 0.05558255 0.05867545 0.0616859 0.0646579 0.06776415 0.07100505 0.07446137 0.07812371
 0.08198743 0.08611666 0.0905353 0.09541105 0.1008725 0.1069981 0.1139479 0.1213679 0.1292453 0.1369791
 0.1444194 0.1513235 0.1576163 0.1634207 0.1687344 0.1737953 0.1786193 0.183549 0.1886134 0.1942636
 0.20045 0.2072484 0.214438 0.2213315 0.2278977 0.2336644 0.2388969 0.2437882 0.2485247 0.2533942
 0.2583877 0.2635924 0.2689356 0.2743948 0.2799526 0.2856168 0.2912912 0.2969693 0.302499 0.3078449
 0.3130512 0.3181172 0.3231334 0.3280977 0.3328038 0.3372293 0.3410601 0.3443203 0.3469602 0.349026
 0.3506432 0.351817 0.3526089 0.3530313 0.3531045 0.3529036 0.352507 0.3519784 0.3513808 0.3507611
 0.3501554 0.349591 0.3490937 0.3486267 0.3481923 0.3477227 0.3472076 0.3466137 0.3459349 0.3452079
 0.3444346 0.3436635 0.342888 0.3420675 0.3411834 0.3401277 0.3388774 0.3373034 0.3353964 0.3330526
 0.3303332 0.3272589 0.3239551 0.3205548 0.3171466 0.3138252 0.3106561 0.3076645 0.3049995 0.3027008
 0.3009323 0.2997496 0.2991632 0.2991885 0.2997489 0.3008384 0.3024226 0.3045001 0.3070621 0.3101065
 0.3136067 0.3175597 0.3219352 0.3267311 0.3319251 0.3375172 0.3434935 0.3498647 0.3566407 0.3638308
 0.3714576 0.3794965 0.3879474 0.3967528 0.4058871 0.4153037 0.4249811 0.434901 0.4450644 0.4554158
 0.4659629 0.4765256 0.4870923 0.4974617 0.5076269 0.5176428 0.5275304 0.5375748 0.5477198 0.5578727
 0.5678618 0.577025 0.5853902 0.5926403 0.5990103 0.6047771 0.6099459 0.6146792 0.6187662 0.6220701
 0.6245607 0.6261931 0.6269621 0.6269533 0.6256956 0.6231108 0.6187458 0.6123929 0.6050118 0.5966506
 0.5883814 0.580246 0.5720645 0.5638126 0.5551584 0.5461398 0.5367998 0.5271694 0.5174271 0.5074516
 0.4971426 0.4861884 0.4739656 0.460584 0.4455905 0.4302227 0.4153066 0.4014716 0.3895043 0.3785861
 0.3685955 0.3588887 0.3492213 0.3396974 0.3302824 0.3212853 0.3127441 0.3046169 0.2969002 0.2893095
 0.2818406 0.2743423 0.2668478 0.2594554 0.2521988 0.2452512 0.2385982 0.2322985 0.2263097 0.2205914
 0.215114 0.2098457 0.2047247 0.1997408 0.1947002 0.1895223 0.1839981 0.1779316 0.171714 0.1653174
 0.1595871 0.1547114 0.1506543 0.1474581 0.1445078 0.1417745 0.1388949 0.1358851 0.1328058 0.1296931
 0.1267897 0.1240732 0.1215973 0.1193178 0.1171392 0.1150909 0.1131609 0.1114288 0.1099908 0.1088558
 0.1080767 0.107588 0.1073661 0.1073743 0.107586 0.1080248 0.108684 0.1096305 0.1108678 0.1124962
 0.1145291 0.1169802 0.1198482 0.1228374 0.1259227 0.1287051 0.1312025 0.1333065 0.1350581 0.1365425
 0.1377744 0.1388215 0.1397015 0.1404482 0.1411374 0.1418425 0.1426832 0.1437957 0.1451686 0.1468819
 0.1487004 0.1505461 0.1523088 0.1539194 0.1555047 0.1570699 0.1587577 0.1605853 0.1625844 0.1647569
 0.1670223 0.1693766 0.1717401 0.1741286 0.1765787 0.1791311 0.181947 0.1850497 0.1885953 0.1925256
 0.1968205 0.2014155 0.2062002 0.211236 0.2165252 0.222157 0.2282053 0.2346201 0.241415 0.2484661
 0.2557223 0.263238 0.2709853 0.2792698 0.2881205 0.2977344 0.3081213 0.3188158 0.3297589 0.3400651
 0.3497331 0.3583055 0.3658326 0.3722884 0.3776212 0.3817267 0.3844752 0.3855907 0.3850526 0.3826825
 0.3786577 0.3730201 0.3660395 0.3578541 0.348688 0.3386388 0.3278781 0.3164228 0.3045964 0.292408
 0.2804362 0.268736 0.257722 0.2474187 0.2377296 0.2286336 0.2198178 0.2112957 0.2029759 0.1949168
 0.1872897 0.1801049 0.1734937 0.167386 0.1617313 0.1564557 0.1514526 0.1466905 0.1421094 0.1377072
 0.1334658 0.1293982 0.1255042 0.1217997 0.1182923 0.1149708 0.1118391 0.1088489 0.1059959 0.1032419
 0.1005845 0.09805667 0.09566505 0.09350751 0.09158772 0.08998116 0.08867688 0.08767653 0.08696677 0.08651614
 0.08631919 0.08635459 0.08661729 0.0870994 0.08778016 0.08865459 0.08966195 0.09078769 0.09191758 0.09302159
 0.09395893 0.09469583 0.09511009 0.09517657 0.09482756 0.09404894 0.0928719 0.09129716 0.08946518 0.08738624
 0.08522958 0.08300229 0.08082952 0.07871721 0.07675172 0.07493908 0.07333943 0.07194749 0.07078554 0.06983392
 0.06908132 0.06850377 0.06808147 0.06779019 0.06761499 0.06752972 0.06752466 0.06757084 0.06766302 0.06776357
 0.0678687 0.06792998 0.06794245 0.06787011 0.0677105 0.06746866 0.06714732 0.06678646 0.06638949 0.06599837
 0.06561176 0.06524926 0.06490302 0.06456646 0.06422668 0.06386004 0.06345588 0.06299111 0.06246535 0.06186844
 0.06121087 0.0604931 0.05973357 0.05893663 0.05812623 0.05730782 0.056504 0.05571946 0.05496598 0.05424554
 0.05356007 0.05290978 0.05229529 0.05171687 0.05117835 0.05068083 0.0502324 0.04983531 0.04950198 0.0492343
 0.04904345 0.04892924 0.04889628 0.0489441 0.04907415 0.04928519 0.04957867 0.0499468 0.05038845 0.05088744
 0.05143901 0.05202547 0.05264258 0.05327361 0.05391642 0.0545514 0.05517673 0.0557743 0.0563429 0.05687452
 0.0573692 0.05782703 0.05824797 0.05863182 0.05897781 0.05928292 0.0595464 0.05976494 0.05993798 0.06006343
 0.06014006 0.06016649 0.06013918 0.06005562 0.05991058 0.05969977 0.05942258 0.05907616 0.05866836 0.0582
 0.05768073 0.05711261 0.05649936 0.05584162 0.05514017 0.05439502 0.05361022 0.05278614 0.05192899 0.05103877
 0.05011877 0.04916834 0.04818648 0.04717324 0.04612682 0.04505092 0.04394903 0.04282989 0.04170408 0.04058141
 0.03947331 0.03838579 0.03732507 0.03629458 0.03529671 0.03433421 0.03340888 0.03251861 0.03166404 0.03083733
 0.03003753 0.02926093 0.02850712 0.02778425 0.02709301 0.02644647 0.02584445 0.0252926 0.02478919 0.02433039
 0.02391523 0.02353856 0.02320218 0.02290648 0.02265423 0.02244917 0.02229239 0.0221856 0.02213051 0.02212711
 0.02218182 0.0222963 0.02247878 0.02273209 0.02305953 0.02346283 0.02393815 0.02448598 0.02509504 0.0257649
 0.02647351 0.02721928 0.02797315 0.02873448 0.02948326 0.03022296 0.03095512 0.03168613 0.03243358 0.03320059
 0.03400274 0.03483487 0.03569852 0.03658332 0.03748105 0.0383843 0.03928681 0.04018385 0.04107432 0.04194656
 0.04279876 0.04361477 0.04439046 0.0451229 0.04580991 0.04646789 0.04709751 0.04772303 0.04834594 0.04899228
 0.049664 0.05038778 0.05116379 0.0520083 0.0529171 0.05388754 0.05491554 0.05599164 0.05711641 0.05828706
 0.05950414 0.06076921 0.06207614 0.06342449 0.06479982 0.06619906 0.06760035 0.06899852 0.07037191 0.0717146
 0.07302244 0.07429282 0.07554301 0.07677383 0.0780042 0.07923432 0.08046734 0.08170154 0.08292642 0.08414024
 0.08532931 0.08649538 0.08763374 0.08875247 0.08986332 0.09097417 0.09210215 0.09324369 0.09440284 0.09557047
 0.09674007 0.09791332 0.0990885 0.1002724 0.101469 0.10267 0.1038764 0.1050657 0.1062356 0.1073701
 0.1084678 0.1095328 0.110566 0.1115862 0.1125943 0.1136066 0.1146203 0.1156335 0.1166384 0.1176155
 0.1185541 0.1194286 0.1202261 0.1209218 0.1215036 0.1219513 0.1222625 0.1224271 0.1224562 0.1223492
 0.1221275 0.1217926 0.1213808 0.1208946 0.1203894 0.1198703 0.1193934 0.1189631 0.1186113 0.1183385
 0.1181491 0.1180408 0.1179997 0.1180223 0.118086 0.1181903 0.1183214 0.1184838 0.1186826 0.1189131
 0.1191794 0.1194516 0.1197109 0.1199136 0.1200281 0.1200257 0.1198845 0.1196018 0.1191695 0.1186061
 0.1179103 0.1171206 0.116239 0.1153178 0.1143603 0.1134173 0.1124911 0.1116197 0.1108036 0.1100642
 0.1094006 0.1088195 0.108322 0.1079118 0.1075948 0.1073843 0.1072827 0.1073046 0.1074319 0.1076642
 0.1079514 0.1082755 0.1085552 0.1087627 0.1088007 0.1086397 0.1082011 0.1074623 0.1063992 0.105002
 0.1033077 0.1013167 0.09910717 0.09668437 0.09414714 0.09150292 0.08885296 0.08620415 0.08364007 0.0811634
 0.07882572 0.07662286 0.07457279 0.07266503 0.07089403 0.06924841 0.06771675 0.06628916 0.06495914 0.06371084
 0.06253873 0.06142133 0.06034981 0.05931871 0.05832227 0.05738244 0.05650052 0.05570117 0.05498669 0.05435837
 0.05381559 0.05334191 0.0529352 0.05257332 0.05225189 0.05194158 0.05163604 0.05130257 0.05093716 0.05051672
 0.05004086 0.04949911 0.04889425 0.04822281 0.0474957 0.04671534 0.04590229 0.04506442 0.04422161 0.04338159
 0.04255393 0.04174242 0.04094629 0.0401661 0.03939759 0.03864028 0.03789729 0.03716922 0.03647082 0.03580293
 0.03517948 0.03459925 0.0340637 0.03357212 0.03312241 0.03271655 0.03235845 0.03204716 0.03178439 0.03156487
 0.03138239 0.03123933 0.03113204 0.03107549 0.03107514 0.03114254 0.03128388 0.03149693 0.03178237 0.03213605
 0.03255707 0.03304804 0.03360949 0.03423442 0.03492111 0.03562833 0.03634809 0.03699913 0.03756917 0.03795967
 0.03816425 0.0381081 0.03780485 0.03723647 0.03644314 0.03546288 0.03435338 0.0331766 0.03198753 0.03083754
 0.02976282 0.02879141 0.02793967 0.02721854 0.02663082 0.02617993 0.02585788 0.02566485 0.02558678 0.0256229
 0.02575812 0.02599134 0.02630034 0.02668221 0.02710206 0.02755798 0.02802059 0.02849404 0.02897539 0.02946874
 0.02998402 0.0305149 0.03105763 0.03160396 0.03214046 0.03267586 0.03320863 0.03375875 0.03433797 0.03494675
 0.03559355 0.03624588 0.03690166 0.03751612 0.0380831 0.03857475 0.03898782 0.03932206 0.03957795 0.03977414
 0.03991295 0.04002089 0.04010188 0.04018693 0.04028083 0.04041446 0.04058867 0.04082169 0.04110712 0.04144449
 0.04182525 0.04224041 0.0426861 0.04315758 0.04365175 0.04416865 0.04469613 0.0452327 0.04575868 0.04626935
 0.0467544 0.04721029 0.04764768 0.0480667 0.04848675 0.04890858 0.04934029 0.04978142 0.05023032 0.05068773
 0.05115681 0.05163775 0.0521347 0.05264291 0.05315452 0.05366601 0.05416549 0.05466204 0.05515742 0.05566863
 0.05620902 0.05678453 0.05740503 0.05805609 0.05873819 0.05942499 0.06011207 0.06077545 0.06141084 0.0620085
 0.06256671 0.06309375 0.06359032 0.06407578 0.06455124 0.0650355 0.06552762 0.06603485 0.06655192 0.06706779
 0.06757544 0.06805355 0.06850226 0.0689105 0.06928731 0.06963751 0.06996892 0.07028891 0.07059959 0.07090152
 0.07120381 0.07150526 0.0718325 0.07218849 0.07260743 0.07309525 0.07366605 0.07432307 0.07503843 0.07581012
 0.07658401 0.07735897 0.07810153 0.0788164 0.07950953 0.08018453 0.08085643 0.08152378 0.08218956 0.08285437
 0.08352049 0.08418783 0.08486038 0.08552714 0.08618214 0.08681587 0.08741819 0.08800119 0.08856436 0.08912952
 0.08970251 0.09028985 0.09089445 0.09150704 0.09212753 0.09273987 0.09334321 0.09392145 0.09447546 0.09500635
 0.0955184 0.0960354 0.09655708 0.09709878 0.09764917 0.09819238 0.09871738 0.09919732 0.09963798 0.1000299
 0.100398 0.1007534 0.1011263 0.1015371 0.1019913 0.1025027 0.1030324 0.1035772 0.1040878 0.1045542
 0.1049715 0.1053369 0.1056822 0.1060089 0.1063369 0.1066665 0.1070032 0.1073497 0.107723 0.1081261
 0.1085783 0.1090771 0.109627 0.1102223 0.1108587 0.1115251 0.1122118 0.1129009 0.1135756 0.1142285
 0.114849 0.1154464 0.1160224 0.1165813 0.1171252 0.1176498 0.1181528 0.1186488 0.1191379 0.1196498
 0.120186 0.1207603 0.1213712 0.1220088 0.1226685 0.1233233 0.1239667 0.1245611 0.1251076 0.1255862
 0.1260113 0.1263985 0.1267518 0.12709 0.1273857 0.1276264 0.1277859 0.1278397 0.1278062 0.1276798
 0.1275104 0.1273072 0.1271104 0.1269277 0.1267783 0.1266645 0.126591 0.126558 0.1265683 0.1266235
 0.1267411 0.1269214 0.1271792 0.1275072 0.1278901 0.128322 0.1287825 0.1292712 0.1297847 0.1303083
 0.1308246 0.1313252 0.1317764 0.1322544 0.1327648 0.1334605 0.1344209 0.1356205 0.137106 0.1385925
 0.1400315 0.1413391 0.1424941 0.1436379 0.1447763 0.1459911 0.1472743 0.1485683 0.149855 0.1510114
 0.1520227 0.1527786 0.1532682 0.1534104 0.1532122 0.1526383 0.15173 0.1505066 0.149036 0.1473632
 0.1455669 0.1436914 0.1418066 0.1399423 0.1381513 0.1364466 0.1348814 0.133464 0.1322402 0.1312173
 0.130381 0.1297302 0.1291803 0.1287258 0.1282757 0.1278289 0.1273328 0.1267877 0.126166 0.1254687
 0.124683 0.1238151 0.1228703 0.1218505 0.1207582 0.1195994 0.1183671 0.1171086 0.11584 0.1146181
 0.1134719 0.1124064 0.111427 0.1105321 0.1097162 0.1090298 0.1084777 0.108087 0.1078587 0.1077247
 0.1076802 0.1076454 0.1076271 0.1076212 0.1076403 0.1077257 0.1078805 0.1081361 0.1084791 0.1089097
 0.1093949 0.1099008 0.1103993 0.1108488 0.1112689 0.1116503 0.1120479 0.1124807 0.1129789 0.1135576
 0.1142045 0.1149222 0.1156774 0.1164682 0.117256 0.1180388 0.1188044 0.1195553 0.1203244 0.1211113
 0.1219366 0.1227831 0.1236031 0.12438 0.1250476 0.12561 0.1260453 0.1263617 0.1265603 0.1266461
 0.1266156 0.1264979 0.126302 0.1260682 0.1258161 0.1255542 0.1252902 0.1250118 0.1247181 0.124401
 0.1240606 0.1236746 0.1232416 0.1227374 0.1221645 0.1215482 0.1208945 0.1202548 0.1196226 0.1190029
 0.118384 0.1177361 0.117065 0.1163649 0.1156489 0.1149326 0.1142158 0.1135051 0.1127907 0.1120721
 0.1113303 0.110563 0.1097362 0.1088411 0.1078553 0.1067697 0.1056088 0.104372 0.1031155 0.1018425
 0.1005909 0.09935984 0.09814427 0.09694228 0.09573539 0.09453253 0.09335078 0.0922099 0.09116872 0.09022958
 0.08943226 0.08874419 0.08814546 0.08760428 0.0870848 0.08658522 0.08609712 0.08561756 0.08514937 0.0846651
 0.08415847 0.08361072 0.08301488 0.08238597 0.08172368 0.08105896 0.08039357</values></Ydata></AB><ScSm><Ydata ylabel="Single channel"><values byteorder="INTEL" format="FLOAT32" numvalues="1814"> 0.07179059 0.0717883 0.07185752 0.07201846 0.07223485 0.07243854 0.0725778 0.07264775 0.07266888 0.07264771
 0.07258882 0.07254268 0.0725935 0.07277519 0.07301943 0.07320094 0.07323723 0.07316402 0.07311682 0.07319886
 0.07334095 0.0733244 0.07298639 0.07240531 0.07184838 0.07152475 0.07145559 0.07163177 0.0721453 0.07293861
 0.07352372 0.07333241 0.07243045 0.07154995 0.07127766 0.07149369 0.07170971 0.07163104 0.07125103 0.07074822
 0.07053636 0.07114644 0.07270317 0.07450105 0.07526354 0.07395174 0.07050689 0.06607775 0.06259277 0.06172585
 0.06371699 0.06704114 0.06955239 0.07019448 0.06950291 0.06851472 0.06765519 0.06687556 0.06637633 0.06664539
 0.06778409 0.06905292 0.06925499 0.06776115 0.06525797 0.06325843 0.0627217 0.06345425 0.06492108 0.06682953
 0.06830421 0.06741913 0.06309318 0.05748526 0.0550265 0.05820345 0.06490523 0.07049257 0.07192659 0.06946768
 0.06532084 0.06180912 0.06050406 0.06180694 0.06487176 0.06830287 0.07100089 0.07222375 0.07140484 0.06864373
 0.06518637 0.06282149 0.06278338 0.06527081 0.06940632 0.0733119 0.07496132 0.07368046 0.07059729 0.06744894
 0.06543611 0.06523131 0.06715406 0.07083465 0.07519431 0.07907063 0.08168831 0.08273576 0.08243372 0.08139543
 0.08015838 0.07909647 0.07874513 0.07946871 0.08059989 0.08069896 0.07912073 0.07687221 0.07557319 0.07578164
 0.07655023 0.07658035 0.07553712 0.07383393 0.07134755 0.06739822 0.06231248 0.05783435 0.05538272 0.0549729
 0.05625225 0.05905173 0.06217238 0.06332116 0.06162523 0.05922674 0.0591564 0.06209702 0.06603905 0.06873068
 0.06975658 0.07036532 0.0718658 0.0742946 0.07624695 0.07593408 0.07295796 0.0693057 0.06793936 0.06989081
 0.07327656 0.07561627 0.0764451 0.07704368 0.07819174 0.07895823 0.07767803 0.07393409 0.06961055 0.06772714
 0.06981169 0.07436837 0.07796654 0.07779327 0.07354572 0.06746861 0.06259719 0.06066711 0.0616499 0.06490313
 0.06986587 0.07548336 0.07992558 0.08160985 0.0803661 0.07733184 0.07367433 0.06954077 0.06464451 0.05997168
 0.05800154 0.06035064 0.06568696 0.07083772 0.07362963 0.07397327 0.0726175 0.06980766 0.06547732 0.06047911
 0.05698209 0.05679894 0.05921404 0.06138454 0.06130992 0.05964692 0.05825888 0.05788508 0.05786929 0.05756891
 0.05725625 0.05762785 0.05880526 0.06006073 0.0605261 0.05999126 0.0589356 0.05795839 0.05724771 0.05646828
 0.05524375 0.05390304 0.05345403 0.05447105 0.05628929 0.0576879 0.05811916 0.05789956 0.05739731 0.05642782
 0.05455248 0.05191285 0.0495831 0.04877672 0.04966387 0.0512589 0.05245283 0.05281638 0.05248617 0.05175967
 0.05090043 0.05005077 0.04926444 0.04868021 0.04849394 0.04866314 0.0488489 0.04875822 0.04837513 0.04780556
 0.0470809 0.04620253 0.04527646 0.04451029 0.04406389 0.04392101 0.04393306 0.0439614 0.04391395 0.04368846
 0.04321236 0.0425503 0.04187094 0.04129545 0.04084638 0.04052221 0.04033165 0.04024328 0.04016342 0.03999812
 0.03972437 0.03938474 0.03902125 0.0386397 0.0382411 0.03785992 0.03755116 0.03734155 0.03719676 0.03704934
 0.03687671 0.03672798 0.03663494 0.03652847 0.036307 0.03596852 0.03561227 0.03532342 0.03510843 0.0349299
 0.03475217 0.03454543 0.03427912 0.03394552 0.03359804 0.03333908 0.03324145 0.03329281 0.03342473 0.03356156
 0.03363242 0.03359273 0.03346126 0.03329641 0.03312483 0.03292899 0.03270233 0.03248148 0.03232639 0.03228281
 0.03234597 0.03245299 0.03252902 0.03253973 0.03249474 0.0324279 0.03238471 0.03238951 0.0324102 0.03238967
 0.03231879 0.03224634 0.03221633 0.03222194 0.03222154 0.03218551 0.03212895 0.0320983 0.03212079 0.03217747
 0.03223233 0.0322719 0.03230691 0.03234821 0.03238743 0.0323993 0.03236939 0.03231876 0.0322849 0.03228098
 0.03229427 0.03231959 0.03236851 0.03244381 0.03252397 0.03257887 0.03259715 0.03259713 0.03260628 0.03262786
 0.03263792 0.03261863 0.03258099 0.03254961 0.03253724 0.03253838 0.0325387 0.03252684 0.03250097 0.03246552
 0.03242384 0.03237575 0.03231847 0.03224995 0.03217807 0.03212376 0.03210212 0.03209973 0.03208275 0.03202972
 0.03194997 0.03187022 0.03180879 0.03176369 0.03172289 0.03168291 0.0316525 0.0316399 0.03164545 0.03166755
 0.0317058 0.03175752 0.03182199 0.03191083 0.03204208 0.03221613 0.03240524 0.03257726 0.03272796 0.03288166
 0.03306103 0.03326479 0.0334755 0.03368123 0.03388612 0.03410288 0.03433375 0.03456016 0.03476026 0.03493784
 0.03512103 0.03532998 0.03555996 0.03579731 0.03603247 0.03625378 0.03644933 0.03662501 0.03680614 0.03701127
 0.03723329 0.03745377 0.03766769 0.03788601 0.03811832 0.03836354 0.03861999 0.03889617 0.03920293 0.03953546
 0.03986905 0.04017757 0.04045752 0.04073405 0.04104041 0.04138895 0.04176181 0.04212961 0.04247794 0.04281612
 0.04316268 0.04352423 0.0438908 0.04425415 0.04462466 0.04502084 0.04544374 0.04587382 0.04629449 0.04670711
 0.04711951 0.04753128 0.04793803 0.04834378 0.04876066 0.04919556 0.0496406 0.05007938 0.05050287 0.05091664
 0.05133093 0.05174865 0.0521667 0.05258178 0.05298629 0.05336701 0.05372155 0.05407162 0.05444292 0.05483269
 0.05521386 0.05557281 0.05592506 0.05628954 0.05666549 0.05704437 0.05742929 0.05782878 0.05823888 0.05864194
 0.05901828 0.05935468 0.05965082 0.05992413 0.06020137 0.06050084 0.06082779 0.0611837 0.06156569 0.06195667
 0.06233019 0.06266843 0.06296915 0.06324286 0.06351441 0.06381659 0.06416431 0.06453902 0.06490623 0.06523965
 0.06552801 0.0657821 0.06604327 0.06636009 0.06674218 0.06715567 0.06757352 0.06800667 0.06847169 0.0689522
 0.0694172 0.06986472 0.07032019 0.07079232 0.07125355 0.07166991 0.07203221 0.07235204 0.07264809 0.07294974
 0.07329524 0.07370524 0.07416402 0.0746377 0.07510258 0.07554834 0.07596518 0.07634182 0.07667322 0.07696437
 0.0772272 0.07747347 0.07770982 0.07794254 0.07818442 0.07844377 0.07870354 0.07892475 0.0790765 0.07915127
 0.07914772 0.07905889 0.07889076 0.07867549 0.07844387 0.07818668 0.07785846 0.07741995 0.07686694 0.07621965
 0.07549842 0.0747201 0.07391678 0.0731506 0.07250218 0.07203999 0.07180314 0.07181412 0.07209392 0.07264381
 0.07340655 0.07425801 0.07504716 0.07564352 0.07595611 0.07593688 0.07559234 0.07498837 0.07422522 0.07339954
 0.07258594 0.07183608 0.07117715 0.07061771 0.07017514 0.06990202 0.06987919 0.07019071 0.07091895 0.07214838
 0.07392462 0.07617062 0.07865299 0.08107056 0.08320341 0.08498831 0.08647777 0.08776079 0.08891836 0.09000632
 0.09104283 0.09201358 0.09289826 0.09368901 0.09438515 0.09498143 0.09546518 0.09582182 0.09604857 0.09617071
 0.09624282 0.09633049 0.09648901 0.09674787 0.09709538 0.09747051 0.09777929 0.09793097 0.0978681 0.09757628
 0.09708758 0.09650326 0.09603566 0.09601298 0.09677012 0.09844697 0.100855 0.1035591 0.1061192 0.1082842
 0.1100132 0.1113795 0.1124807 0.1133998 0.1141987 0.1149207 0.1155946 0.1162358 0.1168483 0.1174303
 0.1179831 0.1185145 0.1190374 0.119562 0.1200882 0.1206055 0.1211049 0.1215904 0.1220762 0.1225725
 0.1230759 0.123575 0.1240653 0.124554 0.1250481 0.1255425 0.1260258 0.1264945 0.126954 0.1274116
 0.1278728 0.1283401 0.1288065 0.1292538 0.1296671 0.1300504 0.1304234 0.1308041 0.1311964 0.1315922
 0.1319827 0.1323663 0.1327469 0.1331295 0.1335186 0.1339143 0.1343071 0.1346802 0.1350231 0.1353422
 0.1356564 0.1359828 0.1363246 0.1366736 0.1370237 0.1373852 0.1377765 0.1382 0.1386304 0.1390346
 0.1394007 0.139745 0.1400912 0.1404502 0.1408182 0.1411888 0.1415599 0.1419307 0.1422985 0.1426623
 0.1430252 0.1433889 0.1437505 0.1441056 0.1444547 0.1448039 0.1451578 0.1455143 0.1458668 0.1462142
 0.1465634 0.1469193 0.1472752 0.147617 0.1479372 0.1482392 0.1485325 0.1488272 0.1491331 0.1494569
 0.1497962 0.1501407 0.1504812 0.1508174 0.1511543 0.1514916 0.1518227 0.1521426 0.1524546 0.1527673
 0.1530882 0.1534211 0.1537641 0.154109 0.1544465 0.1547752 0.155101 0.1554289 0.1557563 0.1560749
 0.156376 0.156661 0.1569458 0.1572482 0.1575675 0.1578825 0.1581764 0.1584556 0.1587416 0.1590474
 0.1593672 0.159685 0.1599917 0.1602923 0.1605971 0.160909 0.1612205 0.1615225 0.1618131 0.1620997
 0.1623917 0.1626936 0.1630035 0.1633171 0.1636295 0.1639357 0.1642355 0.1645333 0.1648311 0.1651251
 0.1654136 0.1657 0.1659867 0.1662709 0.1665496 0.1668266 0.1671087 0.1673984 0.1676904 0.1679791
 0.1682662 0.1685583 0.1688563 0.1691541 0.1694484 0.1697421 0.1700382 0.1703363 0.1706342 0.1709285
 0.1712178 0.1715062 0.1717977 0.1720879 0.1723682 0.1726372 0.1729027 0.1731727 0.1734476 0.1737207
 0.1739869 0.1742494 0.1745127 0.1747747 0.1750323 0.1752899 0.175553 0.175822 0.1760985 0.1763868
 0.1766813 0.1769689 0.177246 0.1775228 0.1778081 0.1781013 0.178397 0.1786907 0.1789819 0.1792735
 0.1795659 0.1798562 0.1801441 0.1804309 0.1807143 0.1809942 0.1812751 0.1815582 0.1818391 0.1821189
 0.1824023 0.1826842 0.1829543 0.1832119 0.1834633 0.1837157 0.1839787 0.1842558 0.1845331 0.1847939
 0.1850416 0.1852907 0.185547 0.1858112 0.186085 0.186364 0.1866411 0.1869153 0.1871878 0.1874572
 0.1877259 0.1879945 0.1882547 0.1885042 0.1887573 0.189023 0.189292 0.1895548 0.1898062 0.190027
 0.1901693 0.1901146 0.1895673 0.1879399 0.1843389 0.1777457 0.1674274 0.1534039 0.1366009 0.1185165
 0.1006709 0.08421764 0.06983725 0.05782863 0.04825584 0.04104242 0.0360316 0.03308847 0.03220674 0.033617
 0.03790424 0.04566171 0.05618542 0.06631725 0.07167203 0.07009664 0.06372675 0.05703939 0.05313323 0.05223309
 0.05302419 0.05438229 0.05594532 0.05790764 0.06061671 0.06417716 0.06842282 0.07334114 0.07929179 0.08655038
 0.09474448 0.1030025 0.1107071 0.1179859 0.1254153 0.1333239 0.1414433 0.1491715 0.1560521 0.162002
 0.1672143 0.1719465 0.176375 0.1805785 0.1845914 0.1884048 0.1918836 0.1947326 0.1966387 0.1975091
 0.1975805 0.1972871 0.1970074 0.1969194 0.1970413 0.1973428 0.1977998 0.1983951 0.1991124 0.1999276
 0.2008013 0.2016932 0.2025818 0.203458 0.2043066 0.2051069 0.2058453 0.2065168 0.2071234 0.207673
 0.2081756 0.2086398 0.2090763 0.2094959 0.2099012 0.2102877 0.2106546 0.2110038 0.2113335 0.2116398
 0.2119242 0.2121921 0.2124479 0.2126942 0.2129329 0.2131653 0.2133973 0.2136368 0.2138871 0.214145
 0.2144084 0.2146765 0.2149444 0.2152051 0.2154564 0.215698 0.2159281 0.2161503 0.2163768 0.2166172
 0.2168702 0.2171271 0.2173809 0.2176291 0.2178727 0.2181148 0.2183595 0.2186132 0.2188788 0.2191492
 0.2194141 0.2196756 0.2199442 0.2202209 0.2204997 0.220783 0.2210771 0.2213773 0.2216733 0.2219625
 0.2222405 0.2224943 0.2227193 0.222938 0.2231878 0.2234893 0.2238266 0.2241606 0.2244649 0.2247462
 0.2250255 0.2253113 0.2255969 0.2258717 0.2261346 0.2264053 0.2267147 0.2270658 0.2274252 0.2277662
 0.2280955 0.2284272 0.2287616 0.2290972 0.2294286 0.2297278 0.2299675 0.2301717 0.2304197 0.2307838
 0.2312577 0.2317503 0.2321666 0.2324944 0.2327944 0.2331244 0.2335002 0.2338873 0.2341882 0.2343041
 0.2342854 0.2343599 0.234729 0.2353697 0.2360885 0.2367197 0.2372236 0.2376422 0.238021 0.2383613
 0.2386144 0.2387331 0.2387584 0.2388538 0.2391942 0.2397893 0.2404614 0.2410329 0.2414692 0.2418188
 0.2421165 0.24238 0.2425715 0.2425391 0.2421757 0.2417096 0.2416486 0.2422899 0.2433846 0.2444036
 0.245061 0.2454615 0.2458073 0.2461527 0.2464516 0.2465973 0.2463139 0.24532 0.2438722 0.2429083
 0.243273 0.244869 0.2468171 0.2483383 0.2492459 0.2497415 0.2500677 0.2503477 0.2504936 0.2502144
 0.2493376 0.2482375 0.2477401 0.2483638 0.2497403 0.2510104 0.2516989 0.2519685 0.2521657 0.2524323
 0.2526107 0.2521998 0.2506384 0.2481318 0.2460744 0.2460708 0.2483606 0.2515265 0.2539024 0.255008
 0.2554113 0.2554971 0.2549036 0.2531759 0.2504544 0.2474113 0.245028 0.2444544 0.2462527 0.2494493
 0.2520838 0.2531419 0.2534164 0.2542045 0.255757 0.2572958 0.2580233 0.2577386 0.2566949 0.2551548
 0.2532623 0.251452 0.25071 0.2518744 0.254612 0.257534 0.2594888 0.260436 0.2608328 0.2602876
 0.2572952 0.2510427 0.2436697 0.2396814 0.2419694 0.2487876 0.2556361 0.2596867 0.2613209 0.2620234
 0.2623929 0.2619733 0.2595104 0.2536421 0.2450534 0.2378215 0.2366551 0.2422365 0.2504426 0.2561895
 0.2569061 0.2528075 0.2459571 0.2396458 0.237062 0.2393592 0.2451444 0.2518557 0.2573043 0.2602624
 0.2604451 0.2584008 0.2554656 0.2534319 0.2532606 0.2536649 0.2520781 0.2478936 0.2434724 0.2406721
 0.2379767 0.233317 0.2286163 0.2284991 0.2342714 0.2417308 0.2458806 0.245984 0.2446694 0.2431651
 0.2392195 0.2303649 0.2185938 0.2104161 0.211148 0.2194157 0.2283969 0.2324801 0.2317094 0.2298024
 0.229169 0.2284636 0.2245259 0.2165163 0.2079653 0.203812 0.2051741 0.2083376 0.2091487 0.2063773
 0.2002944 0.1912387 0.181866 0.1780297 0.1838211 0.1965045 0.2086745 0.2143894 0.2113762 0.1996407
 0.182081 0.166019 0.1596622 0.1648236 0.174753 0.1803618 0.1774596 0.1675012 0.15361 0.1383499
 0.1247982 0.1169849 0.1174744 0.1247551 0.1335214 0.1374888 0.1328469 0.1210311 0.108671 0.1028145
 0.1046926 0.1090301 0.1100051 0.1064995 0.1012542 0.09717008 0.09555823 0.09613274 0.09739105 0.09793889
 0.09760641 0.09610253 0.09152392 0.0827487 0.07284571 0.06711422 0.06752856 0.07169388 0.07718086 0.08364122
 0.08996621 0.09283317 0.09043808 0.08592341 0.0847219 0.0888162 0.0950508 0.09902691 0.09952078 0.09871046
 0.09884608 0.09977576 0.1001631 0.1002792 0.1021071 0.1064498 0.1113389 0.1141531 0.1143206 0.1130627
 0.1113795 0.1093277 0.1067053 0.1034793 0.0997241 0.09567383 0.09167428 0.08785056 0.084048 0.08015457
 0.07612801 0.07163926 0.0661719 0.0598689 0.0540227 0.05012113 0.04833952 0.04756638 0.04697468 0.04659535
 0.04598202 0.04366979 0.03915945 0.03464981 0.03345548 0.03680585 0.0429347 0.04904746 0.05335224 0.05518905
 0.05430618 0.05125547 0.04849594 0.04963737 0.05643245 0.06706559 0.07816859 0.08773846 0.09523586 0.09994975
 0.1009855 0.09887351 0.09613749 0.09590778 0.100097 0.1084707 0.1184977 0.1257825 0.1262258 0.1202617
 0.1149882 0.118908 0.1327659 0.1480426 0.1565085 0.1586595 0.1601822 0.1631191 0.1649218 0.1649286
 0.1668685 0.173761 0.1834162 0.190528 0.1912715 0.1848009 0.1727868 0.1597812 0.1520174 0.1525105
 0.1578208 0.1619343 0.1621454 0.158738 0.151404 0.1406478 0.1315552 0.1307625 0.1387288 0.1487528
 0.1545971 0.1561621 0.1567523 0.1573773 0.1556274 0.14944 0.1405338 0.1333151 0.1304839 0.1306436
 0.1305996 0.1287337 0.1251181 0.1196521 0.1120615 0.1035889 0.09704802 0.09446529 0.0951698 0.09663366
 0.09694357 0.09613828 0.09544288 0.09585054 0.09749506 0.09984825 0.1024363 0.1057489 0.1111553 0.1192105
 0.1283873 0.1364785 0.1430922 0.1497352 0.1574205 0.165122 0.1708386 0.1736638 0.1746794 0.1761247
 0.1796457 0.1849416 0.189942 0.1925791 0.192775 0.1927063 0.1947831 0.1992912 0.2043166 0.2078738
 0.2095277 0.2099914 0.2099716 0.2096521 0.2086937 0.2066262 0.203837 0.2021334 0.2035208 0.2081951
 0.214241 0.219406 0.2227548 0.2246147 0.2255113 0.2255506 0.224689 0.2232474 0.2219217 0.2212886
 0.2214474 0.2221559 0.2231357 0.2241771 0.2251234 0.2258994 0.2265223 0.2270503 0.227556 0.228131
 0.2288317 0.2296091 0.2303622 0.2310813 0.2318754 0.2328146 0.2337972 0.2346313 0.2351943 0.2354333
 0.2352591 0.2345725 0.2334006 0.2318939 0.2301571 0.22819 0.2260817 0.2242216 0.223195 0.2233724
 0.2245878 0.2262442 0.2277367 0.2287674 0.2293395 0.2295892 0.2296725 0.2297253 0.2298368 0.2300333
 0.2302967 0.2306016 0.2309381 0.2313098 0.2317266 0.2322083 0.2327876 0.2334887 0.2342993 0.235168
 0.2360263 0.2368182 0.237522 0.238151 0.2387178 0.2391956 0.2395274 0.2396742 0.2396441 0.2394795
 0.2392348 0.2389601 0.2386772 0.2383581 0.2379409 0.2373719 0.2366171 0.2356379 0.234409 0.2329876
 0.2315175 0.2301195 0.2287982 0.2274821 0.2261158 0.224676 0.2231376 0.2214777 0.2197082 0.2178718
 0.2160056 0.214122 0.2122215 0.2103069 0.2083824 0.2064458 0.2044879 0.2024974 0.2004582 0.1983438
 0.196114 0.1937065 0.1910318 0.1879857 0.184483 0.1804833 0.1760067 0.1711468 0.1660651 0.1609487
 0.155959 0.1512137 0.1468035 0.1428131 0.1393211 0.1363807 0.134008 0.1321979 0.1309464 0.1302515
 0.1301008 0.1304703 0.1313196 0.1325751 0.13412 0.1358089 0.1374933 0.1390495 0.1404144 0.141616
 0.142756 0.1439375 0.1451974 0.1465073 0.1478287 0.1491391 0.150399 0.1515312 0.1524621 0.1531721
 0.15369 0.1540589 0.1543155 0.1544824 0.1545698 0.1545989 0.1546243 0.1547249 0.1549735 0.1554154
 0.1560535 0.1568446 0.1577184 0.1586093 0.1594752 0.1602953 0.1610548 0.1617266 0.1622713 0.1626696
 0.1629579 0.1632403 0.1636817 0.1644808 0.1658101 0.1677477 0.1702507 0.1731766 0.1763265 0.1794886
 0.1824759 0.1851495 0.187431 0.1893056 0.1908072 0.1919937 0.1929295 0.1936682 0.1942305 0.1946075
 0.1947948 0.1948092 0.1946761 0.1944274 0.1941179 0.1938178 0.1935833 0.1934457 0.1934155 0.1934751
 0.1935802 0.1936873 0.1937816 0.1938749 0.1939802 0.1940854 0.1941532 0.1941478 0.1940589 0.1938927
 0.1936522 0.1933278 0.192891 0.1922929 0.1914892 0.1904743 0.189273 0.1878999 0.1863474 0.1846225
 0.1827918 0.1809914 0.1793861 0.1780931 0.1771199 0.1763569 0.1756254 0.17475 0.1736284 0.1722613
 0.1707218 0.1690956 0.1674407 0.1657829 0.1641322 0.1625031 0.1609133 0.1593667 0.1578523 0.1563689
 0.1549318 0.1535507 0.1522202 0.1509412 0.1497378 0.148651 0.1477184 0.1469538 0.1463369 0.1458276
 0.1453857 0.1449796 0.1445915 0.1442307 0.1439197 0.1436545 0.1433918 0.1430854 0.1427206 0.1423115
 0.1418846 0.1414678 0.1410778 0.1407142 0.1403628 0.1399949 0.1395593 0.1389807 0.1381732 0.1370661
 0.1356384 0.1339363 0.1320525 0.1300962 0.1281854 0.126433 0.1249127 0.1236452 0.1226184 0.1218005
 0.1211358 0.1205669 0.1200784 0.1197093 0.1195117 0.1194779 0.1194933 0.1193936 0.1191122 0.1187568
 0.1185106 0.1184765 0.1186304 0.118883 0.1191465 0.1193602 0.1194858 0.1194945 0.1193753 0.1191508
 0.1188574 0.1185085 0.1181007 0.117644 0.1171568 0.1166441 0.1160967 0.1155029 0.1148547 0.1141573
 0.1134167 0.1126153 0.1117292 0.1107615 0.1097208 0.108598 0.1074321 0.1063788 0.1056461 0.1053577
 0.1054875 0.1058919 0.1064052 0.1069344 0.107431 0.1077632 0.1077527 0.1074598 0.1073305 0.1078763
 0.1091772 0.1107843 0.1121181 0.1128867 0.1131165 0.1129221 0.1123676 0.1114811 0.1102639 0.1087015
 0.1068334 0.1047614 0.1025632 0.1002938 0.0980738 0.0960544 0.09431084 0.09284887 0.09166154 0.09078648
 0.09032686 0.0900041 0.08842604 0.0838141 0.07671992 0.07125591 0.0716517 0.07750277 0.0840372 0.087175
 0.08680809 0.08513798 0.08371089 0.08281203 0.08242515 0.08269095 0.08369277 0.08526659 0.08703676 0.0886151
 0.08980921 0.09060524 0.09096193 0.09064029 0.0891383 0.08584411 0.08054654 0.0739036 0.06722443 0.06170948
 0.05792493 0.05580532 0.05488268 0.05455825 0.0544114 0.05438716 0.0547034 0.05558988 0.0571105 0.05918261
 0.06166796 0.06435127 0.06688576 0.06894481 0.07047389 0.07165976 0.07262681 0.07329342 0.07353318 0.07334355
 0.07283126 0.07212424 0.07132007 0.07046345 0.06953983 0.06850803 0.06739035 0.06635288 0.06563029 0.06531666
 0.06528822 0.06536689 0.06547388 0.06559683 0.0657194 0.06583202 0.06594689 0.0660956 0.06634621 0.0667682
 0.06733183 0.06789683 0.06833647 0.06863958 0.06888446 0.06911969 0.06925993 0.06916298 0.06887302 0.06865701
 0.06864683 0.06858261 0.06813457 0.06739701 0.06684156 0.06680785 0.06720337 0.06768014 0.06795867 0.06798013
 0.06789493 0.06797847 0.06844088 0.06918223</values></Ydata></ScSm><ScRf><Ydata ylabel="Single channel"><values byteorder="INTEL" format="FLOAT32" numvalues="1820"> 0.06075326 0.06091306 0.06100576 0.06102877 0.06101105 0.06100566 0.06106633 0.06121395 0.06141885 0.06161648
 0.0617516 0.06181449 0.06182672 0.06179959 0.06173798 0.06168526 0.06171837 0.06187174 0.06208552 0.06224598
 0.06227781 0.06221049 0.0621598 0.06221551 0.06232451 0.06230722 0.06202531 0.06153755 0.06106299 0.06077997
 0.06071486 0.06086833 0.06132158 0.06202164 0.06254167 0.06238333 0.06159794 0.06082182 0.06057223 0.06075015
 0.06092871 0.06085004 0.06051438 0.06008264 0.05990742 0.06043451 0.0617667 0.06330492 0.06396148 0.0628434
 0.05989193 0.05608748 0.0530859 0.05232838 0.05402763 0.05688188 0.05905069 0.05962014 0.05904076 0.05820003
 0.05746539 0.05679552 0.05635938 0.05657416 0.05753098 0.05860314 0.05876958 0.05749103 0.05535269 0.05364715
 0.05319314 0.05382358 0.05508045 0.05671382 0.05797512 0.05721666 0.05351286 0.04871156 0.04661081 0.04934876
 0.05512112 0.05994337 0.06119451 0.0590903 0.0555305 0.05252198 0.05141491 0.05254065 0.05516289 0.05808999
 0.06039249 0.06144046 0.06074636 0.05839323 0.0554468 0.05343555 0.05341347 0.05555125 0.05909979 0.06245207
 0.06387032 0.06276973 0.06011084 0.05738787 0.05564518 0.05547131 0.05714221 0.06033593 0.06411837 0.06748149
 0.06975213 0.07066111 0.07040298 0.06951518 0.06846969 0.06758723 0.06731617 0.067959 0.06893951 0.06902216
 0.06765714 0.06571834 0.064605 0.06479782 0.06547997 0.06553235 0.06466468 0.06322961 0.06111439 0.05772327
 0.05333375 0.04946068 0.04734567 0.0470118 0.04815552 0.05062719 0.05337991 0.05441521 0.05296885 0.05089775
 0.05083584 0.05338495 0.05680962 0.05915682 0.06006517 0.06062323 0.06197121 0.06413359 0.06587651 0.06563714
 0.06307189 0.05992376 0.05878956 0.06057248 0.06361672 0.06574738 0.06656446 0.06719751 0.06832914 0.06913492
 0.06814373 0.06498687 0.06133177 0.05984671 0.06187328 0.06608173 0.06943598 0.06943484 0.06579378 0.06051469
 0.05633172 0.05481973 0.05597271 0.05924643 0.06416059 0.06974424 0.07428537 0.07628696 0.07555223 0.07311087
 0.07004201 0.066471 0.06212251 0.05798013 0.05650166 0.05930025 0.0650832 0.07072599 0.07405965 0.07495822
 0.07413055 0.07178152 0.06780854 0.06310251 0.05998269 0.06039654 0.06357217 0.06645077 0.06688845 0.06561249
 0.06465269 0.064808 0.06534667 0.06556843 0.06581551 0.06689785 0.06893353 0.07104976 0.07222328 0.07220367
 0.0715574 0.07101403 0.0708068 0.07049891 0.06960228 0.06855004 0.0686523 0.07065715 0.07371742 0.07625829
 0.07755639 0.07800649 0.0780687 0.0774554 0.07554512 0.07255428 0.07001828 0.06965364 0.07169688 0.07475314
 0.07724227 0.07853547 0.07881396 0.07849787 0.07796018 0.07740654 0.07693607 0.0767947 0.07731293 0.07842891
 0.07958244 0.08027259 0.080465 0.08033892 0.07993278 0.0792253 0.07839437 0.07781123 0.07777096 0.07827447
 0.07908436 0.07993844 0.08063357 0.08097632 0.08085506 0.08040023 0.07991129 0.07958001 0.07941221 0.07941239
 0.07965894 0.08014414 0.08068681 0.08108361 0.08127323 0.08131187 0.08125767 0.08112854 0.08094063 0.08075552
 0.08068289 0.08080482 0.0810762 0.08135266 0.08156003 0.08176908 0.08203842 0.08226218 0.0822794 0.08209331
 0.08188221 0.08180527 0.08187273 0.08199883 0.08209983 0.08210443 0.08193272 0.0815656 0.08114918 0.08094255
 0.08110885 0.08159996 0.08225012 0.08289594 0.08339763 0.08366695 0.08373433 0.08371453 0.08367015 0.08356358
 0.08335944 0.08312857 0.08303015 0.0831919 0.08359601 0.08408546 0.08449161 0.08473964 0.08484735 0.08489119
 0.08497773 0.08515993 0.08535635 0.08542673 0.08534974 0.08526088 0.08529238 0.08542474 0.08552192 0.08549195
 0.08539109 0.08536351 0.08548827 0.08571026 0.08592361 0.08608986 0.08625471 0.08646168 0.0866652 0.08674787
 0.08664601 0.0864411 0.08628128 0.08622481 0.08622263 0.08624645 0.08634742 0.08655679 0.08679603 0.08694265
 0.08696527 0.08694988 0.08698812 0.08706816 0.08709382 0.08699726 0.08681045 0.08663138 0.0865425 0.08656152
 0.08664402 0.08671772 0.08672552 0.08665639 0.08654384 0.08643275 0.08634818 0.08630359 0.08633287 0.08648039
 0.08673014 0.08696039 0.08701362 0.0868375 0.08654678 0.08632521 0.08625992 0.08627655 0.08623353 0.08606181
 0.0858065 0.08555743 0.08536921 0.08524236 0.08514958 0.08506858 0.0850086 0.08501472 0.08512229 0.08528614
 0.0853775 0.08528914 0.08504128 0.08475967 0.08455963 0.08447413 0.08446921 0.08448938 0.08450128 0.08452196
 0.08458529 0.08466774 0.08469032 0.0846168 0.08450694 0.08445391 0.08451052 0.08467749 0.08490109 0.08507238
 0.08509746 0.08499527 0.08488378 0.08485623 0.08490893 0.08499289 0.08508534 0.08518873 0.08529674 0.08539812
 0.08550608 0.0856576 0.08587636 0.08614165 0.08639373 0.0865721 0.08666452 0.08673012 0.08686255 0.08711296
 0.08744633 0.08777593 0.08803774 0.0882334 0.0884094 0.08860065 0.08880275 0.08900478 0.08922954 0.08951107
 0.08984017 0.09016658 0.09045741 0.09072523 0.09099767 0.09128553 0.09158628 0.0919049 0.09226297 0.09267808
 0.09312144 0.09350813 0.0937607 0.09388836 0.09398866 0.09417289 0.09448884 0.09488587 0.09523922 0.09544536
 0.09552681 0.09561742 0.09581566 0.09608421 0.09633049 0.09655222 0.09684362 0.09726058 0.09773169 0.0981238
 0.09837222 0.0985287 0.09869006 0.09889218 0.09908202 0.09919597 0.09924881 0.09931734 0.09944533 0.0996132
 0.09981236 0.1000903 0.1004803 0.1009256 0.1013216 0.1016138 0.1018181 0.1019697 0.1020888 0.1021787
 0.1022318 0.1022478 0.1022604 0.1023164 0.1024138 0.1024953 0.1025245 0.1025382 0.1026007 0.1027386
 0.1029483 0.1032277 0.1035596 0.1038862 0.1041598 0.1044152 0.1047354 0.105125 0.1054701 0.1056594
 0.1057054 0.1057038 0.1057121 0.1057314 0.1057825 0.1059229 0.1061762 0.1064991 0.1068375 0.1071785
 0.1075319 0.1078861 0.1081991 0.1084232 0.1085327 0.1085435 0.1085134 0.1085204 0.1086279 0.1088537
 0.1091613 0.1094844 0.1097674 0.10998 0.1100981 0.1101067 0.1100436 0.1100113 0.1100981 0.1102791
 0.1104247 0.1104117 0.1102036 0.1098274 0.1093143 0.1086896 0.1080034 0.1073398 0.1067848 0.1063893
 0.1061689 0.106139 0.106336 0.1067776 0.1074075 0.1081061 0.1087618 0.1092981 0.1096306 0.1096569
 0.1093321 0.1087294 0.1079928 0.1072465 0.1065577 0.105942 0.1053713 0.1048106 0.1042946 0.1039659
 0.1040109 0.1045522 0.1055868 0.1069857 0.1085325 0.1099968 0.1112273 0.1122054 0.1130095 0.1137268
 0.1144013 0.1150538 0.1157125 0.1163886 0.1170418 0.1176109 0.1180822 0.1184963 0.1188908 0.1192666
 0.1196039 0.1198867 0.1201169 0.1203221 0.1205315 0.1207262 0.1208411 0.120837 0.1207471 0.1206309
 0.1205038 0.1203293 0.1200613 0.1196855 0.1192462 0.1188623 0.1187081 0.1189431 0.1196245 0.1206707
 0.1219188 0.123225 0.1245005 0.1256638 0.1266136 0.1272873 0.1277229 0.1280298 0.1283052 0.1285922
 0.1288961 0.1292091 0.1295198 0.1298163 0.130093 0.13036 0.1306436 0.1309624 0.131297 0.1316006
 0.1318514 0.1320856 0.1323681 0.1327281 0.1331285 0.133501 0.1338173 0.1341144 0.1344353 0.1347585
 0.1350197 0.1351981 0.1353484 0.1355463 0.1358304 0.1361904 0.1365755 0.1369132 0.1371552 0.1373182
 0.1374643 0.1376417 0.1378595 0.138107 0.1383727 0.1386421 0.1389004 0.139152 0.1394233 0.1397293
 0.1400379 0.1402882 0.1404536 0.140574 0.1407185 0.1409206 0.1411588 0.1413895 0.1415946 0.1418015
 0.1420552 0.1423651 0.1426827 0.1429415 0.1431164 0.1432396 0.1433632 0.1435208 0.1437171 0.143938
 0.1441626 0.1443741 0.1445698 0.1447621 0.1449658 0.1451825 0.1454013 0.1456133 0.1458181 0.1460199
 0.146222 0.1464284 0.1466463 0.1468866 0.1471575 0.14745 0.1477322 0.1479689 0.1481491 0.1482888
 0.148412 0.1485382 0.1486842 0.1488622 0.1490726 0.1493014 0.1495278 0.1497353 0.1499221 0.1501013
 0.1502887 0.1504907 0.1507039 0.1509224 0.1511437 0.151371 0.151607 0.1518449 0.1520679 0.152263
 0.1524354 0.1526058 0.1527921 0.1529946 0.1531988 0.1533922 0.1535767 0.1537628 0.1539562 0.1541551
 0.1543544 0.1545502 0.1547413 0.1549309 0.1551235 0.1553197 0.1555163 0.1557114 0.1559041 0.1560946
 0.1562854 0.15648 0.1566784 0.1568762 0.1570709 0.1572664 0.1574706 0.1576866 0.1579066 0.1581159
 0.1583082 0.158492 0.1586813 0.1588811 0.1590845 0.159281 0.1594659 0.159645 0.15983 0.160029
 0.1602399 0.1604522 0.1606549 0.1608475 0.1610433 0.1612544 0.1614766 0.1616957 0.1619073 0.1621196
 0.1623394 0.1625642 0.1627867 0.163001 0.1632077 0.1634152 0.1636317 0.1638547 0.1640708 0.1642672
 0.1644405 0.1646023 0.1647706 0.1649526 0.1651383 0.1653158 0.1654859 0.1656573 0.1658347 0.1660159
 0.1661973 0.1663808 0.1665764 0.1667925 0.1670237 0.1672562 0.1674813 0.1676954 0.1678964 0.1680874
 0.1682777 0.1684728 0.168671 0.1688724 0.1690802 0.1692954 0.1695152 0.1697348 0.1699482 0.1701544
 0.1703595 0.1705683 0.1707788 0.1709879 0.1711951 0.1713974 0.1715944 0.1717929 0.171998 0.1722069
 0.1724173 0.1726313 0.1728482 0.1730638 0.1732765 0.1734845 0.1736864 0.1738877 0.1740937 0.1742999
 0.1745037 0.1747155 0.1749439 0.1751818 0.1754191 0.1756517 0.1758765 0.1760938 0.1763091 0.1765214
 0.176724 0.1769189 0.1771105 0.1772842 0.1773973 0.1773422 0.1768394 0.1753239 0.171941 0.1657308
 0.1560172 0.1428349 0.1270604 0.1100983 0.09337039 0.07795504 0.06448772 0.0532461 0.04428915 0.03754675
 0.03287453 0.03014351 0.02933826 0.03066531 0.03467152 0.04191878 0.05175456 0.06122506 0.06622565 0.06474234
 0.05877808 0.05252756 0.04889191 0.04807692 0.04884286 0.05012862 0.05159471 0.05343218 0.05597264 0.05930737
 0.06327266 0.06786516 0.07344145 0.08026855 0.08798891 0.09577127 0.1030259 0.109864 0.1168229 0.1242158
 0.1318023 0.1390268 0.1454634 0.1510318 0.1559099 0.1603384 0.1644843 0.1684228 0.1721851 0.1757591
 0.1790138 0.1816705 0.1834373 0.1842302 0.1842748 0.1839795 0.1836982 0.1835948 0.183688 0.1839544
 0.1843714 0.1849153 0.1855655 0.1863046 0.187106 0.1879353 0.1887652 0.1895759 0.1903507 0.1910791
 0.1917572 0.192379 0.1929399 0.1934481 0.193917 0.194353 0.1947576 0.1951347 0.1954873 0.1958179
 0.196133 0.1964398 0.1967373 0.1970174 0.1972742 0.1975099 0.1977352 0.1979631 0.1981955 0.1984211
 0.1986311 0.1988287 0.1990229 0.1992196 0.1994222 0.1996291 0.1998323 0.2000265 0.2002167 0.2004116
 0.2006113 0.2008098 0.2010053 0.2012019 0.2014018 0.2015999 0.2017886 0.2019675 0.2021437 0.202325
 0.2025137 0.2027092 0.2029081 0.2031056 0.2033037 0.203513 0.2037373 0.2039637 0.2041799 0.2043915
 0.2046109 0.2048389 0.2050688 0.2052951 0.2055078 0.2056905 0.2058389 0.2059731 0.2061273 0.2063243
 0.2065581 0.2067993 0.2070231 0.2072294 0.2074333 0.207641 0.2078424 0.2080207 0.2081736 0.2083288
 0.2085269 0.2087774 0.2090501 0.2093166 0.209574 0.2098219 0.2100529 0.2102727 0.2104926 0.2106976
 0.2108577 0.2109835 0.2111418 0.2113998 0.2117543 0.2121266 0.2124349 0.2126683 0.2128765 0.2131092
 0.213382 0.2136635 0.213862 0.2138876 0.2137893 0.2137781 0.2140402 0.2145537 0.2151359 0.2156285
 0.2159978 0.2162916 0.2165552 0.2167829 0.2169258 0.2169474 0.2168975 0.2169305 0.2171993 0.2176996
 0.2182604 0.2187183 0.2190472 0.2192951 0.2194937 0.219657 0.2197514 0.2196405 0.2192312 0.2187384
 0.218631 0.2191773 0.2201398 0.2210266 0.221577 0.2218926 0.2221599 0.2224247 0.2226456 0.222735
 0.2224501 0.2215286 0.2201917 0.2192895 0.2195952 0.2210211 0.2227623 0.2241066 0.224886 0.225288
 0.2255373 0.2257487 0.2258451 0.2255703 0.2247779 0.2238078 0.223394 0.2239878 0.2252471 0.2263985
 0.2270239 0.2272794 0.2274783 0.2277424 0.2279234 0.2275656 0.2261637 0.2239086 0.222062 0.2220683
 0.2241411 0.2270068 0.2291675 0.2301889 0.230578 0.2306788 0.2301638 0.2286223 0.2261763 0.2234216
 0.2212449 0.2207114 0.2223616 0.2253184 0.2277824 0.2288106 0.2291119 0.2298635 0.2312997 0.2327248
 0.233424 0.2332168 0.2323248 0.2309749 0.2292975 0.2277029 0.2270973 0.2282353 0.2308033 0.2335369
 0.235389 0.2363211 0.2367507 0.23632 0.2336476 0.2279873 0.2213018 0.2177209 0.2198978 0.226238
 0.2326141 0.2364247 0.2380234 0.238784 0.2392505 0.2389858 0.2368309 0.2315377 0.2237369 0.2171817
 0.2162146 0.221473 0.2291687 0.2346257 0.2354625 0.2318467 0.2256659 0.2199682 0.2177118 0.2199728
 0.2254792 0.2318696 0.2371069 0.2400396 0.240398 0.2386883 0.2361571 0.2344828 0.2345543 0.2351513
 0.2338783 0.2301893 0.2262965 0.2239239 0.2216433 0.2175148 0.2133488 0.2135101 0.2192475 0.2266041
 0.2308621 0.2313243 0.2304582 0.2293973 0.226001 0.2179397 0.2071144 0.1997325 0.2008825 0.2092516
 0.2182998 0.2226657 0.2224241 0.2211575 0.221176 0.2211598 0.2180082 0.2108829 0.2032721 0.20007
 0.2023771 0.2065176 0.2083934 0.2067511 0.2017561 0.1936874 0.1852953 0.1826488 0.1900225 0.204671
 0.2189751 0.2267161 0.2253555 0.214674 0.1976577 0.1823397 0.1779004 0.1864435 0.2004361 0.2096342
 0.2092135 0.2006395 0.1873018 0.1721976 0.1593278 0.1541321 0.1602416 0.1757973 0.1934463 0.2039759
 0.2014135 0.1877025 0.1731579 0.1690455 0.1772999 0.1891589 0.1949643 0.1929258 0.1877588 0.1846329
 0.1861933 0.192064 0.1992418 0.2049279 0.2087578 0.2096153 0.202624 0.1850048 0.1638189 0.1513093
 0.1521912 0.1612485 0.1731223 0.1871209 0.2008325 0.2068223 0.2010147 0.1904075 0.1871076 0.1954714
 0.2083741 0.2159269 0.2152712 0.2110902 0.2083953 0.2071965 0.2050107 0.2026393 0.2043687 0.2120513
 0.2218696 0.2285978 0.2310395 0.2315557 0.2320667 0.2325896 0.2325905 0.2318762 0.2305193 0.2289751
 0.227939 0.2275686 0.2273417 0.2268506 0.2257685 0.2226284 0.2151464 0.2034275 0.1919985 0.1862177
 0.1865925 0.1891561 0.191369 0.1935943 0.1935865 0.1849498 0.1655842 0.1446092 0.1357237 0.1439677
 0.1619696 0.1783488 0.1864357 0.1848415 0.1740551 0.1566466 0.1399852 0.1339279 0.1427748 0.1611394
 0.1797054 0.1932552 0.2012496 0.2033638 0.1985048 0.187988 0.1768077 0.1707745 0.1729774 0.1824338
 0.1944161 0.2016606 0.197922 0.1841872 0.1714127 0.1724331 0.1884902 0.2071551 0.2162995 0.2163761
 0.2154773 0.2167591 0.2168884 0.2148864 0.2156618 0.2232843 0.2350026 0.2439589 0.2452091 0.2376741
 0.2235063 0.208578 0.200939 0.2043207 0.2138242 0.2211935 0.2227744 0.2190077 0.2095515 0.1953289
 0.1836934 0.1840084 0.1968021 0.2125395 0.2224605 0.2265585 0.2296051 0.2329265 0.2327929 0.2260723
 0.2154713 0.2078718 0.2075313 0.2123627 0.2174737 0.2203258 0.2207635 0.2180894 0.2114979 0.2034053
 0.1994827 0.203726 0.2142976 0.2252176 0.2316918 0.2331028 0.2316103 0.2293331 0.2269292 0.2237739
 0.2193715 0.2151859 0.2143536 0.2183431 0.2246157 0.229233 0.2313604 0.2335383 0.2376816 0.2424408
 0.2448476 0.2435576 0.2401288 0.2376621 0.2383135 0.2415874 0.2447082 0.2449839 0.2423614 0.2397173
 0.2402136 0.2442821 0.2495589 0.2535779 0.255782 0.2570103 0.2580512 0.2589497 0.2589722 0.2571594
 0.2536903 0.2506769 0.2506665 0.2541138 0.2589466 0.2627056 0.2645277 0.2650049 0.2648343 0.2640995
 0.2626631 0.2608114 0.2592719 0.2586369 0.2589305 0.259761 0.2607228 0.2615789 0.2622313 0.2626843
 0.2629982 0.2632149 0.2633473 0.2634329 0.263512 0.2635486 0.2634754 0.2633445 0.2633372 0.2635626
 0.263912 0.2641717 0.2642154 0.264006 0.263476 0.2625421 0.2612459 0.2597562 0.258184 0.2565031
 0.254767 0.2533664 0.2529236 0.2538236 0.2558481 0.2583047 0.260501 0.2620915 0.2630682 0.2635759
 0.2637855 0.2638456 0.2638447 0.2637951 0.2636706 0.2634588 0.2631711 0.2628222 0.2624264 0.2620153
 0.2616382 0.2613282 0.2610683 0.2607992 0.2604616 0.2600335 0.2595361 0.2590132 0.2584936 0.2579575
 0.2573407 0.2565871 0.2556992 0.2547399 0.2537941 0.2529251 0.2521465 0.2514178 0.2506763 0.2498765
 0.2489887 0.247978 0.2468325 0.2456302 0.2445293 0.2436484 0.2429675 0.2423645 0.2417214 0.2409746
 0.2401039 0.239124 0.2380785 0.2370075 0.2359187 0.2347986 0.2336306 0.2323914 0.2310523 0.2296041
 0.2280676 0.2264772 0.2248659 0.223253 0.2216184 0.2198801 0.2179102 0.2155761 0.2127688 0.2094152
 0.2054939 0.2010582 0.19625 0.19128 0.1863683 0.1816881 0.1773576 0.1734703 0.1701119 0.1673561
 0.1652577 0.1638492 0.1631386 0.1631189 0.1637848 0.1651254 0.1670897 0.1695621 0.1723764 0.1753531
 0.1783271 0.1811587 0.1837563 0.1861134 0.1883039 0.1904005 0.1923975 0.1942315 0.1958607 0.1972896
 0.1985292 0.1995727 0.2004215 0.201108 0.2016807 0.2021724 0.2025926 0.2029485 0.2032596 0.2035419
 0.2037878 0.2039841 0.2041446 0.2043071 0.2045025 0.2047389 0.2050138 0.2053301 0.2057003 0.2061369
 0.2066365 0.2071779 0.207741 0.2083224 0.2089307 0.2095782 0.2102872 0.2110967 0.2120529 0.2131817
 0.2144653 0.2158408 0.2172248 0.2185409 0.2197282 0.2207336 0.2215118 0.2220396 0.2223304 0.2224261
 0.2223661 0.2221671 0.2218394 0.2214118 0.2209251 0.2204033 0.2198449 0.2192409 0.2185923 0.2179102
 0.2172086 0.2165008 0.2157979 0.2151056 0.2144223 0.2137454 0.2130826 0.2124486 0.2118512 0.2112833
 0.2107292 0.2101737 0.2096087 0.2090387 0.2084737 0.2079029 0.2072818 0.2065586 0.2057146 0.2047687
 0.2037458 0.2026526 0.2014802 0.2002167 0.1988562 0.1974026 0.1958675 0.1942632 0.1925983 0.190876
 0.1890874 0.1872107 0.18524 0.1832207 0.1812376 0.1793655 0.1776391 0.1760567 0.1745902 0.1732007
 0.1718649 0.1705835 0.1693567 0.1681717 0.1670232 0.1659313 0.1649241 0.1640085 0.1631674 0.1623834
 0.1616589 0.161009 0.1604389 0.1599433 0.1595249 0.1591934 0.1589542 0.1588118 0.1587719 0.1588178
 0.1588938 0.15893 0.158881 0.158746 0.1585666 0.1583981 0.1582705 0.1581828 0.1581231 0.1580624
 0.157929 0.1576222 0.1570564 0.1561819 0.1549881 0.1535075 0.1518066 0.1499768 0.1481408 0.1464407
 0.1449878 0.14383 0.1429617 0.1423299 0.1418427 0.141422 0.1410626 0.1408266 0.1407831 0.1409369
 0.1411869 0.1413819 0.1414597 0.1415156 0.1417066 0.1421194 0.1427344 0.143464 0.1442073 0.1448944
 0.1454791 0.1459082 0.146149 0.1462404 0.1462541 0.1462168 0.146114 0.1459381 0.1456935 0.1453893
 0.1450425 0.1446518 0.1441803 0.143597 0.1429065 0.1421252 0.1412733 0.1403699 0.1393817 0.1382375
 0.1369774 0.1358336 0.1350963 0.1349349 0.1353394 0.1361509 0.1371625 0.138245 0.1393123 0.1401571
 0.1405254 0.1404996 0.1406677 0.1416998 0.1437237 0.1461881 0.1483469 0.149798 0.1505329 0.1506487
 0.1502059 0.1492649 0.147844 0.1458839 0.1433927 0.1405271 0.137457 0.1343103 0.1312728 0.1285508
 0.1262472 0.1243846 0.1229636 0.1220151 0.1216553 0.1215006 0.1196405 0.1136335 0.1042811 0.09729468
 0.09847468 0.1071869 0.1168303 0.1218135 0.121987 0.1203203 0.1188502 0.1178709 0.1172834 0.1172653
 0.1179796 0.1192813 0.1207467 0.1219349 0.1226633 0.1229898 0.1229187 0.1221215 0.119845 0.1151842
 0.1078191 0.09863088 0.08938394 0.08169239 0.07630028 0.07310347 0.07149622 0.07071975 0.07022873 0.06995018
 0.07018839 0.0712495 0.07317843 0.07582622 0.07901597 0.08250356 0.08587139 0.08869663 0.09086663 0.09257529
 0.09398627 0.09503945 0.09560123 0.0956597 0.09532341 0.09472606 0.09398478 0.0931804 0.09230226 0.0912514
 0.09000251 0.08876213 0.08785141 0.08740556 0.08728661 0.08729313 0.08733217 0.08738047 0.08740923 0.08738969
 0.08732311 0.0872702 0.08735503 0.08766899 0.08814923 0.08860935 0.0888997 0.08901204 0.08904164 0.08903472
 0.08885352 0.08829939 0.08744996 0.08668669 0.08620056 0.08566019 0.08464733 0.08330408 0.08226021 0.08195075
 0.08222773 0.08262339 0.08278481 0.08263692 0.08234431 0.08222662 0.08254413 0.08319206 0.08369519 0.0836594
</values></Ydata></ScRf><Data_Parameters_AB><parameter name="DPF">1</parameter><parameter name="NPT">3497</parameter><parameter name="FXV">3996</parameter><parameter name="LXV">500</parameter><parameter name="CSF">1</parameter><parameter name="MXY">0.626962125301361</parameter><parameter name="MNY">-0.0720934197306633</parameter><parameter name="DAT">31/05/2022</parameter><parameter name="TIM">13:39:15.749 (GMT+2)</parameter><parameter name="DXU">WN</parameter></Data_Parameters_AB><AB__Qtest><MainReport name="Quality Test Report"><Header><Line><Legend>Test result ok/not ok [1/0]: </Legend><Value>0</Value></Line><Line><Legend>Method file: </Legend><Value>C:\Users\Public\Documents\Bruker\OPUS_8.2.28\QT\IRBT_v3_default.QT</Value></Line></Header><Matrix><Line><Legend></Legend><Legend>min</Legend><Legend>max</Legend><Legend>measured</Legend></Line><Line><Value>Absorption (X-Range 1):</Value><Value>0.400000</Value><Value>2.000000</Value><Value>0.398142</Value></Line><Line><Value>Noise (X-Range 4):</Value><Value></Value><Value>0.000300</Value><Value>0.000055</Value></Line><Line><Value>Signal/Noise (X-Range 2):</Value><Value>200.000000</Value><Value></Value><Value>190.691515</Value></Line><Line><Value>Signal/Noise (X-Range 3):</Value><Value>40.000000</Value><Value></Value><Value>71.534150</Value></Line><Line><Value>Water vapour (X-Range 5):</Value><Value></Value><Value>0.000300</Value><Value>0.000116</Value></Line><Line><Value>Signal/Water (X-Range 2):</Value><Value>100.000000</Value><Value></Value><Value>90.336536</Value></Line><Line><Value>Signal/Water (X-Range 3):</Value><Value>20.000000</Value><Value></Value><Value>33.887965</Value></Line><Line><Value>Fringes (X-Range 6):</Value><Value></Value><Value>0.000100</Value><Value>0.000047</Value></Line></Matrix></MainReport></AB__Qtest><Data_Parameters_ScSm><parameter name="DPF">1</parameter><parameter name="NPT">1814</parameter><parameter name="FXV">3996.33169228125</parameter><parameter name="LXV">499.541461535156</parameter><parameter name="CSF">1</parameter><parameter name="MXY">0.26239287853241</parameter><parameter name="MNY">0.0316398963332176</parameter><parameter name="DAT">31/05/2022</parameter><parameter name="TIM">13:39:15.749 (GMT+2)</parameter><parameter name="DXU">WN</parameter></Data_Parameters_ScSm><Data_Parameters_ScRf><parameter name="DPF">1</parameter><parameter name="NPT">1820</parameter><parameter name="FXV">4004.04661832813</parameter><parameter name="LXV">495.683998511719</parameter><parameter name="CSF">1</parameter><parameter name="MXY">0.265004873275757</parameter><parameter name="MNY">0.0293382573872805</parameter><parameter name="DAT">31/05/2022</parameter><parameter name="TIM">13:38:49.895 (GMT+2)</parameter><parameter name="DXU">WN</parameter></Data_Parameters_ScRf><Optic_Parameters_Rf><parameter name="APR">0</parameter><parameter name="APT">Open</parameter><parameter name="BMS">KBr</parameter><parameter name="DTC">RT-DLaTGS_IR-Biotyper [Microplate reader]</parameter><parameter name="HPF">0</parameter><parameter name="LPF">10.0</parameter><parameter name="LPV">4000</parameter><parameter name="PGR">0</parameter><parameter name="RCH">Module port</parameter><parameter name="RDX">0</parameter><parameter name="SRC">MIR</parameter><parameter name="VEL">10.0</parameter><parameter name="SON">Off</parameter></Optic_Parameters_Rf><Acquisition_Parameters_Rf><parameter name="ADT">1</parameter><parameter name="AQM">DD</parameter><parameter name="CFE">0</parameter><parameter name="COR">0</parameter><parameter name="DEL">0</parameter><parameter name="DLY">0</parameter><parameter name="HFW">8000</parameter><parameter name="LFW">0</parameter><parameter name="NSR">32</parameter><parameter name="PLF">AB</parameter><parameter name="RES">6</parameter><parameter name="RGN">-1</parameter><parameter name="STR">0</parameter><parameter name="TCL">MakeCompatibleScalar (0, {WSV=1.000000, ARV=0});</parameter><parameter name="TDL">37</parameter><parameter name="RPO">0</parameter></Acquisition_Parameters_Rf><FT_-_Parameters_Rf><parameter name="APF">B3</parameter><parameter name="HFQ">500</parameter><parameter name="LFQ">4000</parameter><parameter name="NLI">0</parameter><parameter name="PHR">24</parameter><parameter name="PHZ">ML</parameter><parameter name="SPZ">NO</parameter><parameter name="ZFF">1</parameter></FT_-_Parameters_Rf><Optic_Parameters_><parameter name="APR">0</parameter><parameter name="APT">Open</parameter><parameter name="BMS">KBr</parameter><parameter name="CHN">Module port</parameter><parameter name="DTC">RT-DLaTGS_IR-Biotyper [Microplate reader]</parameter><parameter name="HPF">0</parameter><parameter name="LPF">10.0</parameter><parameter name="LPV">4000</parameter><parameter name="PGN">0</parameter><parameter name="RDX">0</parameter><parameter name="SRC">MIR</parameter><parameter name="VEL">10.0</parameter><parameter name="SON">Off</parameter></Optic_Parameters_><FT_-_Parameters_><parameter name="APF">B3</parameter><parameter name="HFQ">500</parameter><parameter name="LFQ">4000</parameter><parameter name="NLI">0</parameter><parameter name="PHR">24</parameter><parameter name="PHZ">ML</parameter><parameter name="SPZ">NO</parameter><parameter name="ZFF">1</parameter></FT_-_Parameters_><Acquisition_Parameters_><parameter name="ADT">1</parameter><parameter name="AQM">DD</parameter><parameter name="CFE">0</parameter><parameter name="COR">0</parameter><parameter name="DEL">0</parameter><parameter name="DLY">0</parameter><parameter name="HFW">8000</parameter><parameter name="LFW">0</parameter><parameter name="NSS">32</parameter><parameter name="PLF">AB</parameter><parameter name="RES">6</parameter><parameter name="SOT">0</parameter><parameter name="TCL">MakeCompatibleScalar (0, {WSV=1.000000, ARV=0});</parameter><parameter name="TDL">37</parameter><parameter name="SPO">0</parameter><parameter name="SGN">-1</parameter></Acquisition_Parameters_><Instrument_Parameters_Rf><parameter name="HFL">15800.168544</parameter><parameter name="LFL">0</parameter><parameter name="LWN">15800.168544</parameter><parameter name="ABP">32197</parameter><parameter name="SSP">1</parameter><parameter name="ARG">2</parameter><parameter name="ASG">2</parameter><parameter name="ASS">32</parameter><parameter name="GFW">16</parameter><parameter name="GBW">16</parameter><parameter name="BFW">0</parameter><parameter name="BBW">0</parameter><parameter name="PKA">7258</parameter><parameter name="PKL">4996</parameter><parameter name="PRA">7446</parameter><parameter name="PRL">5001</parameter><parameter name="P2A">1</parameter><parameter name="P2L">1</parameter><parameter name="P2R">1</parameter><parameter name="P2K">1</parameter><parameter name="DAQ">0</parameter><parameter name="AG2">1</parameter><parameter name="SSM">1</parameter><parameter name="RSN">25691</parameter><parameter name="CRR">0</parameter><parameter name="SRT">1654004329.896</parameter><parameter name="DUR">19.6379852294922</parameter><parameter name="TSC">28.9</parameter><parameter name="MVD">0.229041054844856</parameter><parameter name="AN1">0.225801861666281</parameter><parameter name="AN2">0</parameter><parameter name="VSN">2.485 Apr  4 2017</parameter><parameter name="SRN">0085</parameter><parameter name="CAM">0</parameter><parameter name="INS">IR-Biotyper</parameter><parameter name="FOC">69</parameter><parameter name="RDY">1</parameter><parameter name="ARS">32</parameter></Instrument_Parameters_Rf><Sample_Parameters_><parameter name="BLD"></parameter><parameter name="CNM">Admin</parameter><parameter name="CPY"></parameter><parameter name="DPM"></parameter><parameter name="EXP">IRBT_v3_32Scans.XPM</parameter><parameter name="LCT"></parameter><parameter name="SFM">Microplate, HTS-XT</parameter><parameter name="SNM">220531-1301_AJL34M (D_1)_A4_3ceb8246-7fc7-42b1-ad26-3892d58ed751.0</parameter><parameter name="XPP">C:\Users\Public\Documents\Bruker\OPUS_8.2.28\XPM</parameter><parameter name="IST">OK</parameter><parameter name="CPG">1252</parameter><parameter name="UID">54b96a10-1fa6-4d1b-afb9-ff2822097ee0</parameter></Sample_Parameters_><Instrument_Parameters_><parameter name="HFL">15800.168544</parameter><parameter name="LFL">0</parameter><parameter name="LWN">15800.168544</parameter><parameter name="ABP">32197</parameter><parameter name="SSP">1</parameter><parameter name="ASG">2</parameter><parameter name="ARG">2</parameter><parameter name="ASS">32</parameter><parameter name="GFW">16</parameter><parameter name="GBW">16</parameter><parameter name="BFW">0</parameter><parameter name="BBW">0</parameter><parameter name="PKA">6473</parameter><parameter name="PKL">4988</parameter><parameter name="PRA">6713</parameter><parameter name="PRL">4993</parameter><parameter name="P2A">1</parameter><parameter name="P2L">1</parameter><parameter name="P2R">1</parameter><parameter name="P2K">1</parameter><parameter name="DAQ">0</parameter><parameter name="AG2">1</parameter><parameter name="SSM">1</parameter><parameter name="RSN">13471</parameter><parameter name="CRR">0</parameter><parameter name="SRT">1654004355.749</parameter><parameter name="DUR">19.6379852294922</parameter><parameter name="TSC">28.9</parameter><parameter name="MVD">0.230444952845573</parameter><parameter name="AN1">0.225812539330585</parameter><parameter name="AN2">0</parameter><parameter name="VSN">2.485 Apr  4 2017</parameter><parameter name="SRN">0085</parameter><parameter name="CAM">0</parameter><parameter name="INS">IR-Biotyper</parameter><parameter name="FOC">69</parameter><parameter name="RDY">1</parameter></Instrument_Parameters_><History/></OPUSDataFile>
