<?xml version="1.0" encoding="UTF-8" ?>
<OPUSDataFile><AB><Ydata ylabel="Absorbance Units"><values byteorder="INTEL" format="FLOAT32" numvalues="3497"> -0.06987883 -0.06992929 -0.06997044 -0.07000329 -0.0700111 -0.06999306 -0.06995973 -0.06991238 -0.06987043 -0.06983376
 -0.06981219 -0.06980303 -0.06980183 -0.06980699 -0.06981117 -0.06981762 -0.06982791 -0.06984638 -0.0698806 -0.06992658
 -0.06998618 -0.07004691 -0.07010211 -0.07014547 -0.07017067 -0.07018722 -0.07019544 -0.07020844 -0.07022936 -0.07025804
 -0.07029554 -0.0703285 -0.0703562 -0.07036579 -0.07035744 -0.07032948 -0.07028412 -0.07023277 -0.07017856 -0.0701387
 -0.07011437 -0.07011803 -0.07014623 -0.07020038 -0.07027266 -0.07035573 -0.07044113 -0.07051946 -0.07058761 -0.07064062
 -0.07068124 -0.07071008 -0.07072682 -0.07073233 -0.07072079 -0.0706903 -0.07064518 -0.07058433 -0.07053152 -0.07048804
 -0.07047855 -0.07050243 -0.07055845 -0.07064212 -0.07072563 -0.07080627 -0.07085828 -0.07088521 -0.07088113 -0.07085425
 -0.07081378 -0.07077046 -0.0707405 -0.07072921 -0.07075022 -0.07079051 -0.07085072 -0.07090414 -0.07093962 -0.07094592
 -0.07091387 -0.07086377 -0.07079535 -0.07074229 -0.07070765 -0.07071746 -0.07077339 -0.07088745 -0.07105856 -0.07127821
 -0.07153916 -0.07179683 -0.07203829 -0.07218845 -0.07224952 -0.07217892 -0.07201064 -0.07177828 -0.07152018 -0.07129725
 -0.07112089 -0.07102733 -0.07099118 -0.07101489 -0.07104999 -0.07107674 -0.07107255 -0.07102089 -0.0709535 -0.07087062
 -0.07081985 -0.07080792 -0.07084022 -0.07091767 -0.07099533 -0.07107132 -0.07110685 -0.07110708 -0.07108352 -0.07104516
 -0.07103312 -0.07104797 -0.07111616 -0.07122295 -0.07135843 -0.07150167 -0.07162238 -0.07171318 -0.0717558 -0.07175745
 -0.07171588 -0.0716437 -0.07154207 -0.07143325 -0.07131997 -0.07123416 -0.0711805 -0.07118863 -0.07126406 -0.07140259
 -0.07160506 -0.07176895 -0.07188771 -0.07183097 -0.07161728 -0.07129993 -0.07090532 -0.07056639 -0.07028123 -0.07011339
 -0.07004563 -0.07008271 -0.07019359 -0.07034929 -0.07050979 -0.07063099 -0.07069606 -0.07067426 -0.07059801 -0.07046928
 -0.07033163 -0.07020028 -0.07008228 -0.06998224 -0.06989059 -0.06980583 -0.06973425 -0.06967609 -0.06964162 -0.06963027
 -0.06963428 -0.06965166 -0.06966481 -0.06967434 -0.0696738 -0.06966345 -0.06964286 -0.06960665 -0.06954379 -0.06945463
 -0.0693309 -0.06918761 -0.06903236 -0.06888326 -0.06875329 -0.06865066 -0.06858369 -0.06854534 -0.06853756 -0.06854122
 -0.06855341 -0.06856043 -0.06856009 -0.06855135 -0.0685342 -0.0684971 -0.06843868 -0.06833332 -0.06818222 -0.06797817
 -0.06772846 -0.0674556 -0.0671691 -0.06690371 -0.06666584 -0.06648441 -0.06635542 -0.06629089 -0.0662684 -0.06627678
 -0.06628735 -0.06627747 -0.06624217 -0.06616972 -0.06608225 -0.06598303 -0.06589158 -0.06581279 -0.06575052 -0.06570587
 -0.06567826 -0.06566781 -0.06566839 -0.06567899 -0.06568211 -0.06567654 -0.06564445 -0.06558778 -0.06550364 -0.06539664
 -0.06527637 -0.06514768 -0.06502407 -0.06490629 -0.06480303 -0.064706 -0.06460974 -0.06451214 -0.06440432 -0.06430937
 -0.06423379 -0.06419806 -0.06421678 -0.06425862 -0.06432492 -0.06435471 -0.0643395 -0.06426489 -0.06412928 -0.06393861
 -0.06369247 -0.06337807 -0.06300132 -0.06259359 -0.06216838 -0.06179926 -0.06148765 -0.06128 -0.06115775 -0.06111724
 -0.06111937 -0.06111549 -0.061075 -0.06094528 -0.06074575 -0.06046736 -0.06015333 -0.05982139 -0.05949066 -0.05917447
 -0.05885465 -0.05853049 -0.05818158 -0.05780318 -0.05741188 -0.05700808 -0.05662492 -0.05626344 -0.05594288 -0.05566191
 -0.05542497 -0.0552227 -0.05502541 -0.05481344 -0.05451199 -0.05412881 -0.0536315 -0.05306626 -0.0524856 -0.05190143
 -0.05135272 -0.05080387 -0.05024372 -0.04964609 -0.04899093 -0.04829368 -0.04755281 -0.04679398 -0.04602359 -0.04524508
 -0.04446203 -0.04364653 -0.04279787 -0.04185134 -0.04080504 -0.03961676 -0.03830028 -0.03693545 -0.03553736 -0.03421972
 -0.03296596 -0.03179022 -0.03067063 -0.02957522 -0.0284864 -0.0273795 -0.02621327 -0.02494767 -0.02354214 -0.02194559
 -0.02019611 -0.01829237 -0.01629257 -0.0142243 -0.01206048 -0.009796461 -0.007432657 -0.004961107 -0.002475945 1.6772E-05
 0.002460671 0.004856435 0.007229042 0.009581744 0.011949 0.01433103 0.0167473 0.01919517 0.02168202 0.0241942
 0.0267016 0.02921699 0.03171392 0.03429928 0.0370526 0.04007119 0.04350176 0.04715165 0.05100646 0.05477112
 0.05831982 0.06167855 0.06481631 0.06790404 0.07096149 0.07407047 0.07723924 0.08046073 0.08373297 0.08700838
 0.0902873 0.09353642 0.09678338 0.1001188 0.1035854 0.1073885 0.1114469 0.1157472 0.1200943 0.1241787
 0.128023 0.1314893 0.1348034 0.1380696 0.14144 0.1450341 0.1487981 0.1527595 0.1567503 0.1607362
 0.1646464 0.1684587 0.1722476 0.1760154 0.1798732 0.1838218 0.1878644 0.1919851 0.1960548 0.2000737
 0.2039637 0.2077591 0.2115192 0.2152633 0.2190622 0.2229029 0.2267954 0.2307288 0.2347005 0.23869
 0.242691 0.2466622 0.2505703 0.2544498 0.2582861 0.2622082 0.2662479 0.2704334 0.274787 0.2791436
 0.2834929 0.2877215 0.2918304 0.2958884 0.2999038 0.3039742 0.3080945 0.3122985 0.3165652 0.3208603
 0.3251508 0.3293467 0.3334605 0.3374407 0.3414003 0.345419 0.3495997 0.3540776 0.3587322 0.3635767
 0.368362 0.3729919 0.377437 0.3816555 0.3858002 0.3898858 0.3940158 0.3982004 0.402461 0.4067968
 0.4111758 0.4155901 0.4199592 0.4242821 0.4285027 0.4326452 0.4367452 0.4408323 0.4449832 0.4492058
 0.453549 0.4579902 0.4625368 0.4671307 0.4717381 0.4763159 0.4808204 0.4853013 0.4897573 0.4942717
 0.498873 0.5035329 0.5082589 0.5129415 0.5175729 0.522099 0.5265184 0.5308258 0.5350243 0.5391257
 0.5431501 0.5471951 0.5512742 0.5554993 0.5598167 0.5641794 0.5685242 0.572717 0.5768065 0.5807738
 0.5847267 0.5887457 0.5928448 0.5970707 0.601329 0.6056102 0.6097931 0.613852 0.6177076 0.6213366
 0.6247995 0.6280944 0.6314116 0.6347582 0.638236 0.6418328 0.6454785 0.6491722 0.652871 0.6565928
 0.660385 0.6642218 0.6680819 0.6719205 0.6756476 0.6792929 0.6828481 0.6863607 0.6898813 0.6933613
 0.6967981 0.7001219 0.7032945 0.7063547 0.7092932 0.7122183 0.7151434 0.7181422 0.7212251 0.724344
 0.7274916 0.7304626 0.7332513 0.7356957 0.7378507 0.7398745 0.7418463 0.7441089 0.7466341 0.7495576
 0.7527477 0.7560721 0.7594466 0.7627264 0.765925 0.7690097 0.7720062 0.7749246 0.7777599 0.7805176
 0.7831678 0.7857069 0.7880989 0.7903317 0.7924482 0.7944467 0.7964676 0.7985163 0.8006705 0.8029169
 0.8051696 0.8074114 0.8095129 0.8114765 0.8132371 0.8148179 0.81622 0.8175029 0.8187425 0.8200046
 0.8213962 0.8229025 0.8245574 0.8262922 0.8280708 0.829897 0.8317611 0.8336946 0.8357183 0.8377517
 0.8397918 0.8417247 0.8435386 0.8452267 0.846789 0.8482498 0.849606 0.8508305 0.851931 0.8529255
 0.8538371 0.8547515 0.8556676 0.8566297 0.857614 0.8586062 0.8595834 0.8605258 0.8613933 0.8621501
 0.8627812 0.8632448 0.8636456 0.863996 0.8644361 0.8650141 0.8657097 0.8665382 0.8673505 0.8681343
 0.8688232 0.8694162 0.8699769 0.8705087 0.8710724 0.8716581 0.8722532 0.8728426 0.873372 0.8738366
 0.8741938 0.8744603 0.87464 0.8747551 0.8748336 0.8748746 0.874882 0.8748643 0.8748137 0.8747875
 0.8748038 0.8748975 0.8750924 0.8753217 0.8755845 0.8757782 0.8758926 0.8758925 0.8757772 0.8755785
 0.8753015 0.8750058 0.8746958 0.8744282 0.874196 0.8740082 0.8738528 0.873701 0.8735647 0.8734484
 0.8733675 0.8733558 0.8733701 0.8733988 0.8733779 0.873258 0.8730643 0.8727807 0.8725042 0.8722556
 0.8720853 0.8720088 0.8719985 0.8720555 0.872114 0.8721701 0.872135 0.8720068 0.871724 0.8713046
 0.8708001 0.8702431 0.8697678 0.8693784 0.8691593 0.8690727 0.8691038 0.8692068 0.8693286 0.8694436
 0.8695125 0.869544 0.8695236 0.8694995 0.8694797 0.8695209 0.8696386 0.8698576 0.8701846 0.8706202
 0.8711648 0.8718226 0.8725933 0.8734645 0.8744289 0.8754134 0.8764009 0.8772651 0.8779973 0.8784905
 0.8787765 0.8788528 0.8787984 0.8787262 0.8787011 0.878852 0.8791438 0.8796156 0.8801396 0.8806691
 0.8810912 0.8813509 0.881424 0.8812881 0.8809891 0.880527 0.8799717 0.8793293 0.8786505 0.8779377
 0.8771879 0.8763976 0.8755268 0.8745785 0.8735405 0.8724284 0.8712873 0.8701265 0.868999 0.8678776
 0.8667575 0.865575 0.864264 0.8627743 0.8610378 0.8590707 0.8568518 0.8544514 0.8518859 0.849219
 0.8464678 0.84367 0.8408304 0.8379942 0.8351647 0.8323917 0.8296778 0.827033 0.8244543 0.8219103
 0.8194 0.8169017 0.8144197 0.8119607 0.8095208 0.8070987 0.804679 0.8022354 0.7997637 0.7972419
 0.7946963 0.792132 0.7895951 0.7871085 0.7847085 0.7824153 0.7802343 0.7781758 0.7762052 0.7743239
 0.7724619 0.770615 0.7687007 0.7667148 0.7646067 0.7623807 0.7600622 0.757668 0.7553003 0.7529736
 0.7507978 0.7487563 0.7468792 0.7451122 0.7433908 0.7416597 0.7398301 0.7378889 0.7357898 0.7335669
 0.7312189 0.7288017 0.7263295 0.7238618 0.7214129 0.7190295 0.7167231 0.7145005 0.7123655 0.7102802
 0.7082427 0.7061992 0.7041476 0.702047 0.6998987 0.6976851 0.6954126 0.6930907 0.6907303 0.6883615
 0.6859896 0.6836404 0.6813027 0.6789767 0.6766436 0.674287 0.6719035 0.6694816 0.6670442 0.6645939
 0.6621611 0.6597548 0.6573859 0.6550597 0.6527628 0.6504951 0.648235 0.6459814 0.6437175 0.6414433
 0.6391519 0.6368456 0.6345327 0.6322161 0.6299121 0.6276187 0.6253408 0.6230707 0.6207969 0.6185191
 0.6162285 0.6139379 0.611652 0.6093884 0.6071553 0.6049714 0.6028445 0.6007882 0.5988131 0.5968916
 0.5950297 0.5931332 0.5911959 0.5891137 0.5868809 0.5844862 0.5819391 0.5793512 0.5767388 0.5742557
 0.5718987 0.56975 0.5677704 0.5659205 0.5641418 0.5623209 0.5604299 0.5583792 0.5562104 0.5539128
 0.5515734 0.5492346 0.5469562 0.5447757 0.5426898 0.5407063 0.538801 0.5369676 0.5352173 0.533549
 0.5320001 0.5305727 0.5292635 0.5280647 0.5268822 0.5257 0.5243723 0.5228991 0.5211893 0.5192826
 0.5172163 0.5150512 0.5129076 0.5108074 0.5088367 0.5069475 0.5051335 0.5033397 0.5015205 0.4997004
 0.4978686 0.4960982 0.4944136 0.4928162 0.4913191 0.4898357 0.4883576 0.4868387 0.4852759 0.4837354
 0.4822217 0.480818 0.4795155 0.4783073 0.4771741 0.4760412 0.4749021 0.4737008 0.4724494 0.4711428
 0.4697938 0.4684218 0.467014 0.4655772 0.4640644 0.4624541 0.4607069 0.4587894 0.4567456 0.4545627
 0.4523805 0.4502153 0.4482032 0.4463644 0.4447075 0.4432343 0.4418096 0.4404239 0.4389123 0.4372802
 0.4354672 0.4335034 0.4314615 0.4293709 0.4273453 0.4253808 0.4235298 0.421756 0.4200403 0.4183451
 0.4166315 0.4148865 0.4130865 0.4112526 0.4093797 0.4075213 0.4056875 0.4039285 0.4022604 0.4006637
 0.3991435 0.3976003 0.3960286 0.3943496 0.3925678 0.3907266 0.388841 0.3870319 0.3852936 0.3836803
 0.3821546 0.3806515 0.3791456 0.3775516 0.3758985 0.3741775 0.3724475 0.3707564 0.3691317 0.3676074
 0.3661686 0.3648163 0.363538 0.3623272 0.3611975 0.3601508 0.359194 0.3583313 0.3575214 0.3567625
 0.3559664 0.3551289 0.3541695 0.3530952 0.3519001 0.350608 0.3492999 0.3480017 0.3468191 0.3457587
 0.3448827 0.3441751 0.3436441 0.3432632 0.3430159 0.3428761 0.342825 0.3428465 0.3429279 0.3430729
 0.343278 0.3435605 0.3439221 0.3443802 0.3449354 0.3456179 0.3464292 0.3474328 0.3486321 0.3500939
 0.3518119 0.3537865 0.3559937 0.3583477 0.360823 0.363311 0.3658082 0.3682562 0.3706719 0.3730546
 0.3754165 0.3777731 0.3801136 0.3824406 0.3847283 0.3869711 0.3891358 0.3912207 0.3931628 0.3949606
 0.3965017 0.3977777 0.3986663 0.3991593 0.3992004 0.3987924 0.39797 0.396743 0.3951874 0.393316
 0.3912045 0.3888862 0.3864622 0.3840046 0.3816696 0.3795401 0.3777822 0.3764221 0.3755541 0.3751163
 0.3751111 0.3754387 0.3760623 0.3769112 0.3779615 0.3791696 0.38053 0.3819813 0.3835205 0.3850565
 0.3865838 0.3880066 0.3893202 0.3904434 0.3913754 0.392067 0.3925274 0.3927602 0.3927844 0.3926513
 0.3923687 0.3919898 0.3914699 0.3908097 0.3898655 0.3885586 0.3866508 0.3839948 0.3804038 0.375727
 0.3700626 0.3633427 0.3560278 0.3481504 0.3403148 0.3325872 0.3253935 0.3187668 0.3128106 0.3075177
 0.3027648 0.2985356 0.2946635 0.2911427 0.2878654 0.2848274 0.2819684 0.2792745 0.2766947 0.2742184
 0.2718061 0.2694754 0.26722 0.2650834 0.2630873 0.2612687 0.2596493 0.2582397 0.2570487 0.2560697
 0.2553041 0.2547375 0.2543694 0.2541783 0.254163 0.2542908 0.254557 0.2548892 0.2552694 0.2555449
 0.2556877 0.2554975 0.2549727 0.2539872 0.2526029 0.2508522 0.2488443 0.2467185 0.244575 0.2425462
 0.2406844 0.2390597 0.2376765 0.2365539 0.2356772 0.2350435 0.2346528 0.2345058 0.2346013 0.23495
 0.2354348 0.2360546 0.2364481 0.2365869 0.2359394 0.2344961 0.231894 0.2282179 0.2235737 0.2181347
 0.2123942 0.2065012 0.200967 0.1958079 0.1912747 0.1872541 0.1837435 0.1806022 0.1777408 0.1750874
 0.172586 0.1702336 0.1680199 0.1659503 0.1640275 0.1622344 0.1605709 0.1590085 0.1575457 0.1561566
 0.1548398 0.1535733 0.1523561 0.1511697 0.1500139 0.1488762 0.1477591 0.1466608 0.145588 0.1445522
 0.1435566 0.1426149 0.1417117 0.1408437 0.1399801 0.1390999 0.1381895 0.1372305 0.1362535 0.1352582
 0.1342986 0.1333863 0.1325433 0.1317777 0.1310512 0.1303624 0.1296486 0.1289085 0.1281203 0.1272902
 0.1264558 0.1256209 0.1248271 0.1240609 0.1233099 0.1225549 0.1217479 0.1208956 0.1199778 0.1190329
 0.118086 0.1171726 0.1163264 0.1155491 0.1148539 0.1142163 0.1136346 0.1130756 0.112535 0.1119771
 0.1113976 0.1107727 0.1101 0.1093901 0.1086449 0.1079035 0.1071679 0.1064705 0.1058081 0.1051848
 0.1045956 0.104028 0.1034803 0.1029433 0.1024176 0.1019004 0.1013914 0.1008889 0.1003946 0.09990711
 0.09943478 0.09898087 0.09855117 0.0981519 0.09776565 0.09739389 0.09699628 0.09656779 0.09608396 0.0955416
 0.09496627 0.09436051 0.09377985 0.09322456 0.09272499 0.09227279 0.09184954 0.09144533 0.09102115 0.09057755
 0.09009382 0.08958364 0.08905508 0.08852378 0.0880094 0.08751252 0.08704388 0.0865832 0.08612661 0.08564905
 0.08514094 0.08459477 0.08400518 0.08338656 0.08273883 0.08208597 0.08142957 0.08078964 0.08016687 0.07957096
 0.07900105 0.07845541 0.07793183 0.07742016 0.0769181 0.07641362 0.07590681 0.07539091 0.07487068 0.07434863
 0.07383201 0.07332916 0.07284191 0.07237618 0.07192315 0.07148176 0.07103939 0.07059123 0.07013377 0.06966414
 0.06919102 0.06871457 0.06824777 0.06779157 0.06735437 0.06693646 0.0665407 0.06616709 0.06581747 0.06549148
 0.06519024 0.0649101 0.06464348 0.06438226 0.06410736 0.06381293 0.06348093 0.0631161 0.06271426 0.06228824
 0.06184494 0.06139352 0.06094025 0.06048712 0.06003558 0.05958742 0.05914275 0.0587056 0.05827643 0.05785854
 0.05745223 0.05705898 0.05667885 0.0563128 0.05596038 0.05561901 0.05528697 0.05495539 0.05462274 0.05427918
 0.05392639 0.053562 0.05319063 0.05281756 0.05244616 0.05208213 0.05172486 0.05137565 0.05103325 0.05069685
 0.050368 0.05004722 0.04973478 0.04943189 0.04913153 0.0488336 0.04852648 0.04820925 0.04787518 0.04752428
 0.04716018 0.04678416 0.0464084 0.04603422 0.04567476 0.04532892 0.04500151 0.04468791 0.04438148 0.0440781
 0.04376804 0.04345302 0.04313014 0.04280528 0.04248187 0.04216249 0.04185018 0.04154154 0.04123629 0.04093079
 0.04062399 0.04031547 0.04000496 0.03969333 0.03938056 0.03906814 0.03875618 0.03844758 0.03814241 0.03784306
 0.03754869 0.03725693 0.03696631 0.03667064 0.03637046 0.03606267 0.03575159 0.03544149 0.03513714 0.03484581
 0.03456644 0.03430213 0.03404501 0.03379255 0.03353764 0.0332767 0.03301007 0.03273658 0.03246181 0.03218625
 0.03191477 0.03164783 0.03138781 0.03113482 0.03088951 0.03065158 0.03041903 0.03019096 0.02996209 0.02973164
 0.02949404 0.02925006 0.0289978 0.02874039 0.02848077 0.02822335 0.02797346 0.02773391 0.02750897 0.02729689
 0.0270987 0.02690933 0.02672755 0.02654923 0.02637353 0.0261969 0.02601931 0.0258332 0.02563813 0.02542435
 0.02519158 0.02493887 0.02466777 0.02439149 0.02411227 0.02384821 0.02359918 0.02337521 0.02317262 0.02298985
 0.02282049 0.02265543 0.02248842 0.02230919 0.02211718 0.02190686 0.02168689 0.02145863 0.0212342 0.02101781
 0.02081663 0.02063338 0.02046839 0.02032259 0.02019041 0.02007185 0.01995512 0.01983951 0.01971063 0.01956841
 0.01940594 0.01922475 0.01902835 0.01881846 0.01860208 0.01837995 0.01815648 0.01793305 0.0177128 0.01749855
 0.01729458 0.01710138 0.01692212 0.01675095 0.01658701 0.01642125 0.01624996 0.01607036 0.0158799 0.01568655
 0.01549083 0.01530161 0.01512 0.01494397 0.0147733 0.01459842 0.01441946 0.01423335 0.01404192 0.01385293
 0.01366699 0.01349112 0.01332238 0.01315837 0.01299544 0.01282627 0.01265141 0.01246759 0.01227982 0.01209058
 0.01190366 0.0117226 0.01154481 0.01137079 0.01119501 0.01101595 0.01083245 0.01064374 0.01045344 0.01026169
 0.01007252 0.009886082 0.009704581 0.009527989 0.009357261 0.009191843 0.009029685 0.008869824 0.008707873 0.008543949
 0.008376091 0.008205023 0.00803136 0.007854586 0.007674219 0.007490368 0.007301678 0.007112886 0.006925159 0.006745061
 0.006575697 0.006417693 0.006272488 0.006134789 0.006004157 0.00587564 0.005748744 0.005621209 0.005492921 0.005362822
 0.005230961 0.005097212 0.004961975 0.00482712 0.004693236 0.004562947 0.0044371 0.004318663 0.004208413 0.004109254
 0.004020107 0.003941975 0.003870409 0.003803237 0.003734928 0.003662169 0.003581972 0.003491878 0.0033943 0.003288506
 0.003181976 0.003075467 0.002976379 0.002885733 0.002802513 0.002726533 0.002645805 0.002559521 0.002454124 0.002330799
 0.002187506 0.002028215 0.001864359 0.001699478 0.001547573 0.001408051 0.001287052 0.00118 0.001084676 0.0009963858
 0.0009107275 0.0008261001 0.0007399766 0.0006545545 0.0005694806 0.0004894541 0.000415574 0.0003505834 0.0002957497 0.0002461959
 0.0002019639 0.0001524411 9.71304E-05 3.056226E-05 -4.651946E-05 -0.0001276318 -0.0002120093 -0.0002909651 -0.0003670567 -0.0004424793
 -0.0005236178 -0.0006247286 -0.000752338 -0.000922815 -0.001138692 -0.001409882 -0.001732766 -0.00210868 -0.002530715 -0.002994203
 -0.003500537 -0.00404571 -0.004648271 -0.00530962 -0.006056731 -0.00689557 -0.007829316 -0.008861492 -0.009946318 -0.01108096
 -0.01217736 -0.01322799 -0.01412429 -0.01485635 -0.01531352 -0.01549196 -0.01531228 -0.01479504 -0.01392597 -0.0127797
 -0.01144445 -0.01003413 -0.008704821 -0.00752271 -0.006592027 -0.005912356 -0.00551287 -0.005366066 -0.005477329 -0.005784263
 -0.006291644 -0.006848194 -0.007441975 -0.007878936 -0.008134742 -0.008180269 -0.008014347 -0.007779215 -0.007480498 -0.007228758
 -0.007015748 -0.006854111 -0.00673105 -0.006609556 -0.006485203 -0.006327187 -0.006143682 -0.005934292 -0.005706445 -0.005472234
 -0.005223092 -0.004958272 -0.004663816 -0.004327958 -0.003959246 -0.003552161 -0.003143067 -0.002737502 -0.002372988 -0.002057302
 -0.0018026 -0.001612266 -0.001466383 -0.001363902 -0.001268064 -0.00117782 -0.001068655 -0.0009435214 -0.0008055735 -0.0006594619
 -0.000523101 -0.0003978553 -0.000296566 -0.0002161244 -0.0001579495 -0.0001168627 -8.804021E-05 -6.683513E-05 -4.831181E-05 -2.968326E-05
 -8.134813E-06 1.699851E-05 4.701071E-05 7.968742E-05 0.0001152052 0.0001489411 0.000180188 0.0002059104 0.0002255275 0.0002411727
 0.0002529381 0.0002633913 0.0002722212 0.0002762466 0.0002749166 0.0002626397 0.0002407864 0.0002105726 0.0001748441 0.0001411369
 0.0001103214 8.76829E-05 7.140538E-05 6.13763E-05 5.615362E-05 5.460048E-05 5.581073E-05 5.965838E-05 6.317286E-05 6.539802E-05
 6.369096E-05 5.652324E-05 4.661184E-05 3.363401E-05 2.444504E-05 1.977489E-05 2.279166E-05 3.36883E-05 4.800926E-05 6.538859E-05
 7.949551E-05 9.097602E-05 0.0001000843 0.0001083627 0.0001218995 0.0001404379 0.0001672181 0.0001992911 0.0002333566 0.0002670037
 0.0002955911 0.0003199897 0.0003392002 0.000355071 0.0003688801 0.0003797775 0.0003880905 0.0003913155 0.0003887652 0.0003794704
 0.0003628749 0.0003409736 0.0003136999 0.0002854784 0.0002565492 0.0002338222 0.000217657 0.0002149118 0.0002249791 0.0002487291
 0.0002834919 0.0003204821 0.0003571432 0.0003817501 0.0003966678 0.0003989759 0.0003959388 0.000395354 0.000400395 0.0004186032
 0.0004422358 0.0004706916 0.0004915259 0.0004991263 0.0004896485 0.0004593715 0.0004173126 0.0003635625 0.0003119261 0.000263869
 0.0002272492 0.000202599 0.0001869321 0.0001797037 0.0001724908 0.0001653343 0.0001540439 0.0001396517 0.0001239893 0.0001071807
 9.060098E-05 7.353462E-05 5.493738E-05 3.554582E-05 1.566516E-05 -3.60533E-06 -2.042022E-05 -3.710984E-05 -5.378627E-05 -7.487807E-05
 -0.0001023342 -0.0001377213 -0.0001821252 -0.000234103 -0.000293584 -0.0003593422 -0.0004313185 -0.0005079127 -0.0005890448 -0.0006706479
 -0.0007524447 -0.00082959 -0.0009021543 -0.000967942 -0.001027595 -0.001082289 -0.001132544 -0.001180339 -0.001225508 -0.001268483
 -0.001309463 -0.001348283 -0.001386838 -0.001426366 -0.001468955 -0.001516493 -0.001568518 -0.001625135 -0.001686214 -0.001750892
 -0.001823993 -0.001906078 -0.002001792 -0.002112232 -0.002232443 -0.002362247 -0.002489574 -0.002614097 -0.002728709 -0.002834244
 -0.00293253 -0.003024218 -0.003112871 -0.00319805 -0.003280173 -0.003359321 -0.003435194 -0.003509685 -0.003584571 -0.003662266
 -0.003745371 -0.003835056 -0.003932807 -0.004038458 -0.004152482 -0.004273604 -0.004401978 -0.004534501 -0.004671027 -0.00480671
 -0.004941048 -0.005070646 -0.005195258 -0.005314889 -0.005429637 -0.005540955 -0.005649051 -0.005755588 -0.005861321 -0.005969945
 -0.006082101 -0.006201983 -0.006327927 -0.006459334 -0.006593646 -0.006726723 -0.006859577 -0.006991084 -0.007124499 -0.007262452
 -0.007403015 -0.007547146 -0.007687975 -0.007823587 -0.007950868 -0.008068156 -0.008180494 -0.00828792 -0.008398547 -0.008512868
 -0.008636794 -0.008770322 -0.008914372 -0.009068007 -0.009225857 -0.009386613 -0.009542099 -0.009692416 -0.009833285 -0.009966425
 -0.01009271 -0.01021404 -0.0103327 -0.01045088 -0.01057051 -0.01069495 -0.0108267 -0.01096743 -0.01111936 -0.01127864
 -0.01144553 -0.01161208 -0.01177694 -0.01193471 -0.01208426 -0.01222779 -0.01236528 -0.01250409 -0.01264444 -0.01279112
 -0.01294332 -0.01309814 -0.01325428 -0.01340488 -0.01355001 -0.01368588 -0.01381443 -0.013937 -0.01405619 -0.01417567
 -0.0142973 -0.01442428 -0.01455597 -0.01469354 -0.01483351 -0.01497485 -0.0151146 -0.01525114 -0.01538615 -0.01551923
 -0.01565543 -0.01579531 -0.01594171 -0.0160949 -0.01625243 -0.01641399 -0.01657432 -0.01673314 -0.01688602 -0.01703304
 -0.01717206 -0.01730366 -0.01742773 -0.017546 -0.01766077 -0.01777514 -0.01789367 -0.01801894 -0.01815535 -0.01830184
 -0.01846035 -0.01862446 -0.01879307 -0.01895719 -0.01911455 -0.01925739 -0.01938369 -0.01949114 -0.01957858 -0.01965337
 -0.01971572 -0.01978119 -0.01985047 -0.01993677 -0.02003901 -0.02015704 -0.02028766 -0.02041795 -0.02054596 -0.02065891
 -0.02075928 -0.02084471 -0.02092063 -0.02099292 -0.02106526 -0.0211434 -0.02122711 -0.02131862 -0.02141405 -0.02151314
 -0.02160942 -0.02170106 -0.02178373 -0.02185547 -0.02192033 -0.02197803 -0.02203866 -0.02210294 -0.02217452 -0.02225304
 -0.02233094 -0.02240764 -0.02247465 -0.02253335 -0.02258425 -0.02262998 -0.02267804 -0.02272928 -0.02278948 -0.02285638
 -0.02292963 -0.02300651 -0.02308429 -0.02316201 -0.02323863 -0.02331291 -0.02338525 -0.02344999 -0.02350595 -0.0235473
 -0.0235719 -0.02358257 -0.02357883 -0.02357026 -0.02355749 -0.02354634 -0.02353682 -0.02352843 -0.02352088 -0.02351213
 -0.02350207 -0.02348909 -0.02347352 -0.02345461 -0.02343487 -0.02341795 -0.02340746 -0.02341039 -0.02342606 -0.02345839
 -0.02349884 -0.02354454 -0.02358482 -0.02361359 -0.02362864 -0.02362623 -0.02361673 -0.02360087 -0.02359112 -0.02358967
 -0.02359703 -0.02361358 -0.02362955 -0.02364482 -0.02365756 -0.02366937 -0.02369223 -0.02372621 -0.02377949 -0.02384756
 -0.02392262 -0.02400021 -0.02406779 -0.02412507 -0.02416645 -0.02419326 -0.02420452 -0.02420236 -0.02418662 -0.02416319
 -0.02413392 -0.02410513 -0.02407931 -0.02405832 -0.02404323 -0.0240324 -0.02402612 -0.02401907 -0.02401104 -0.02399227
 -0.0239625 -0.0239175 -0.02385859 -0.02379389 -0.02372499 -0.02366346 -0.02360862 -0.02356469 -0.02352983 -0.02350263
 -0.02348138 -0.02346369 -0.0234472 -0.02342904 -0.02340761 -0.02338091 -0.0233491 -0.02331218 -0.02326894 -0.02321907
 -0.02316141 -0.02309492 -0.02302425 -0.02294967 -0.02287669 -0.02280583 -0.02273642 -0.02266848 -0.02260205 -0.0225381
 -0.02248487 -0.02244272 -0.02241907 -0.02241043 -0.02241269 -0.02241852 -0.02241273 -0.02238894 -0.02233013 -0.02224071
 -0.02211535 -0.02197044 -0.02181389 -0.0216603 -0.02151975 -0.02139197 -0.02128007 -0.02117514 -0.02107542 -0.02097815
 -0.0208826 -0.02078976 -0.02069972 -0.02061032 -0.02052161 -0.02043571 -0.0203527 -0.0202765 -0.02020343 -0.02012023
 -0.02002189 -0.01988371 -0.01971243 -0.01950678 -0.01928104 -0.01905552 -0.01883454 -0.01862982 -0.01843968 -0.018266
 -0.01810778 -0.01796677 -0.01783472 -0.01771126 -0.01758152 -0.01744194 -0.0172871 -0.01711538 -0.01693045 -0.01673258
 -0.01652109 -0.01629614 -0.0160606 -0.01581582 -0.01557465 -0.01533727 -0.01511174 -0.01489625 -0.01468944 -0.01449059
 -0.014299 -0.01411085 -0.01392316 -0.01372567 -0.01350646 -0.01326321 -0.01298711 -0.01269271 -0.01238408 -0.01207321
 -0.01176617 -0.01146087 -0.01115794 -0.01085383 -0.01054794 -0.01024056 -0.00993178 -0.00961908 -0.009302082 -0.008972714
 -0.008629069 -0.008251911 -0.007839187 -0.007366869 -0.006843596 -0.006278441 -0.005687987 -0.005113592 -0.004553464 -0.004027567
 -0.003514337 -0.00299866 -0.002469574 -0.001910042 -0.001335445 -0.0007475432 -0.0001637152 0.0004076068 0.0009697491 0.001518884
 0.002079667 0.002652215 0.003281687 0.003971929 0.004744697 0.005598735 0.006478302 0.007379225 0.00823703 0.009060404
 0.009854227 0.01063155 0.01143462 0.01226634 0.01315318 0.01409116 0.01508631 0.0161323 0.01722677 0.01835971
 0.01951826 0.02071635 0.0219457 0.02326652 0.02469809 0.02627075 0.02800753 0.02982926 0.03172922 0.03363796
 0.0355465 0.03749865 0.03949631 0.04158145 0.04374765 0.04594831 0.04818559 0.05043104 0.05272133 0.0551523
 0.05774949 0.06063719 0.06374934 0.06705608 0.07046732 0.07386161 0.07725942 0.08062865 0.08403648 0.0875153
 0.09107331 0.09472122 0.09844461 0.1022206 0.1061739 0.1102954 0.1149148 0.1200623 0.125866 0.1323149
 0.1388636 0.1454844 0.1516638 0.1574856 0.163081 0.1685371 0.1741941 0.1800548 0.1862833 0.1928599
 0.1997805 0.2071558 0.2150249 0.2236888 0.2333777 0.2442324 0.2565434 0.2696588 0.2835529 0.297125
 0.3100967 0.3220469 0.3328386 0.3427355 0.3517362 0.3603033 0.3684662 0.3768522 0.3855122 0.3952484
 0.4059713 0.4178117 0.430371 0.4424071 0.4538579 0.4638537 0.4728791 0.4812814 0.489408 0.4977924
 0.5064146 0.5154427 0.5247077 0.5341555 0.5437207 0.5533934 0.5630339 0.5726284 0.5819646 0.5909881
 0.599802 0.6084077 0.6169816 0.6255209 0.6336961 0.6414712 0.6483349 0.6543409 0.6594748 0.6638335
 0.6677486 0.6711779 0.6742133 0.6767314 0.6785171 0.6797032 0.6803041 0.6805722 0.6807004 0.6807998
 0.6809844 0.6812344 0.6815705 0.6819355 0.6823109 0.6827139 0.6831334 0.6836961 0.6844119 0.6853681
 0.6865636 0.6878173 0.6891097 0.6901786 0.6910214 0.6915123 0.6916156 0.6911731 0.6901125 0.6881732
 0.6853965 0.6816728 0.6772301 0.6722463 0.6669321 0.6614781 0.6560318 0.6506494 0.6456461 0.6410922
 0.6374023 0.6346962 0.6331134 0.6327044 0.6333722 0.6351135 0.6378403 0.6415476 0.6461578 0.6516644
 0.6579697 0.6650742 0.6729301 0.681542 0.6909034 0.7010086 0.7118369 0.7233973 0.7356893 0.7487345
 0.7625694 0.7771621 0.79252 0.8085496 0.8252113 0.8424267 0.8601644 0.8783709 0.8970469 0.9160593
 0.9354113 0.9548092 0.9742312 0.9934067 1.012328 1.031159 1.049934 1.069172 1.088748 1.108386
 1.127723 1.145313 1.161226 1.174784 1.186535 1.197149 1.206652 1.21545 1.223041 1.229091
 1.23358 1.236368 1.237702 1.237796 1.236063 1.232469 1.226127 1.216726 1.205378 1.192123
 1.178456 1.164434 1.149872 1.134747 1.118744 1.101934 1.084558 1.066638 1.048483 1.029805
 1.010262 0.9892377 0.9653804 0.9390808 0.9095785 0.8794634 0.850587 0.8240068 0.8012215 0.7805344
 0.7616507 0.7433397 0.7251287 0.7071952 0.6894727 0.6725032 0.6563528 0.6409456 0.626275 0.6118354
 0.597616 0.5833112 0.5689755 0.5547311 0.5406495 0.5270435 0.5139126 0.501418 0.4895038 0.4781504
 0.4673186 0.456988 0.4470433 0.4374857 0.4279165 0.4181843 0.4078203 0.3964339 0.3846923 0.3725143
 0.3615084 0.3520207 0.3440648 0.3377274 0.331894 0.3265119 0.3208786 0.3150217 0.3090227 0.302952
 0.2972637 0.2919189 0.2870344 0.2825179 0.2781805 0.2740625 0.2701091 0.2664761 0.2633319 0.2607202
 0.2587582 0.2573373 0.2564286 0.2559575 0.2558753 0.256217 0.2569658 0.2582515 0.2600752 0.2626725
 0.2660682 0.2703993 0.2756693 0.2813997 0.2875337 0.293231 0.2985068 0.3030072 0.306808 0.3099836
 0.3125743 0.3146875 0.3163813 0.3177481 0.3189529 0.3201732 0.3216333 0.3236037 0.3260483 0.3291087
 0.3323507 0.335624 0.3387496 0.3416043 0.3444418 0.347277 0.3503717 0.3537593 0.3574793 0.3615341
 0.3657611 0.3701544 0.3745777 0.3790637 0.3837045 0.388576 0.3939914 0.3999872 0.4068461 0.4144519
 0.4227462 0.4316179 0.4408556 0.4506071 0.4608966 0.4719252 0.4838585 0.496605 0.510205 0.5243842
 0.5390441 0.5542262 0.5698692 0.5865036 0.6041776 0.6232634 0.6437789 0.6648756 0.6864395 0.7067673
 0.7258543 0.7427985 0.7577094 0.7705756 0.7812958 0.789694 0.795489 0.7981074 0.7974949 0.7932721
 0.7857835 0.7751034 0.7617484 0.7459741 0.7282393 0.7087348 0.6878338 0.6655855 0.6426119 0.6189369
 0.5956365 0.5728136 0.5512356 0.5309481 0.5117641 0.493646 0.4760233 0.45893 0.4422535 0.4261124
 0.4108953 0.3966147 0.3835365 0.3715108 0.3604237 0.3501178 0.340367 0.3310949 0.3221667 0.3135703
 0.3052593 0.2972648 0.2895859 0.2822615 0.2753085 0.268709 0.2624698 0.2565126 0.2508295 0.245374
 0.2401431 0.2352131 0.2305949 0.2264556 0.2227981 0.2197322 0.2172366 0.2152941 0.2138837 0.2129438
 0.2124716 0.2124371 0.2128385 0.2136752 0.2149075 0.2165332 0.218426 0.2205554 0.2226909 0.2247708
 0.2265147 0.2278561 0.2285449 0.2285305 0.2276679 0.2259269 0.2233779 0.2200225 0.2161704 0.2118431
 0.2074016 0.2028575 0.1984584 0.1942108 0.190267 0.1866356 0.1834177 0.1806052 0.1782364 0.1762797
 0.1747173 0.1735122 0.1726326 0.172045 0.1717294 0.1716443 0.1717795 0.172068 0.1725023 0.1729775
 0.1734832 0.1738908 0.1741872 0.1742762 0.1741512 0.1738042 0.1732407 0.1725362 0.1717009 0.1708359
 0.1699447 0.1690973 0.168282 0.1675108 0.1667565 0.165982 0.1651577 0.1642342 0.1631967 0.1620141
 0.1606925 0.1592219 0.1576302 0.1559185 0.1541388 0.1522992 0.1504644 0.1486452 0.1468913 0.1452097
 0.1436189 0.1421203 0.1407117 0.139393 0.1381603 0.1370154 0.1359651 0.1350145 0.1341842 0.1334808
 0.1329308 0.1325394 0.1323279 0.1322976 0.1324605 0.1328084 0.1333439 0.1340411 0.1348935 0.1358556
 0.1369146 0.1380149 0.1391433 0.1402465 0.1413144 0.1423099 0.1432271 0.1440558 0.1447948 0.1454554
 0.1460387 0.1465601 0.1470202 0.1474289 0.1477873 0.1481042 0.1483814 0.1486286 0.1488445 0.1490343
 0.1491886 0.1493019 0.1493552 0.1493337 0.1492174 0.1489891 0.1486455 0.1481771 0.1476043 0.1469281
 0.1461796 0.145364 0.1445042 0.1436037 0.1426687 0.1416998 0.1406856 0.1396248 0.1384951 0.1372956
 0.1360075 0.1346323 0.1331646 0.1316082 0.1299687 0.1282532 0.1264739 0.1246443 0.1227823 0.1209053
 0.119032 0.117177 0.1153535 0.1135701 0.1118336 0.1101452 0.1085074 0.1069128 0.1053605 0.1038448
 0.1023638 0.1009297 0.099543 0.09822989 0.09699127 0.09584444 0.09478731 0.09381486 0.0929239 0.09209858
 0.09133948 0.09063845 0.09000152 0.08943415 0.08894502 0.08854651 0.08824518 0.08805036 0.08796605 0.08799614
 0.08814547 0.088416 0.08881406 0.08934221 0.09000183 0.09079503 0.09171136 0.09275124 0.09389113 0.09512986
 0.0964348 0.09780416 0.09920566 0.1006385 0.1020806 0.103534 0.1049926 0.1064626 0.1079551 0.1094787
 0.1110555 0.1126858 0.1143847 0.1161331 0.117925 0.1197275 0.1215207 0.1232805 0.1249911 0.1266471
 0.1282436 0.1297825 0.1312634 0.1326886 0.1340574 0.135379 0.1366534 0.1379058 0.1391385 0.1403922
 0.1416707 0.1430195 0.1444414 0.1459715 0.1476104 0.1493779 0.1512723 0.1533026 0.155459 0.1577384
 0.1601176 0.1625791 0.1650948 0.1676433 0.1702091 0.1727805 0.1753531 0.1779251 0.1804874 0.1830398
 0.1855628 0.1880552 0.1904938 0.1928769 0.1951872 0.1974248 0.1995928 0.201695 0.2037596 0.2057903
 0.2078187 0.209843 0.2118751 0.2139113 0.2159495 0.2179891 0.2200276 0.2220677 0.2241095 0.2261595
 0.2282213 0.2303008 0.232405 0.2345194 0.2366462 0.2387473 0.2408167 0.2428236 0.2447624 0.2466299
 0.2484253 0.2501576 0.2518274 0.2534444 0.2550108 0.2565453 0.2580502 0.2595476 0.261031 0.2625011
 0.2639345 0.2652967 0.2665485 0.2676315 0.2685036 0.2691076 0.2694217 0.2694101 0.2690923 0.2684575
 0.2675701 0.2664358 0.2651529 0.2637335 0.2622878 0.2608276 0.2594469 0.2581526 0.2570069 0.2560121
 0.2552004 0.2545701 0.254126 0.2538621 0.2537572 0.2538053 0.2539799 0.2542771 0.2546836 0.2551819
 0.2557576 0.2563556 0.2569377 0.2574146 0.2577296 0.2577963 0.2575637 0.2569919 0.2560504 0.2547741
 0.2531539 0.2512966 0.2492075 0.2470266 0.2447628 0.2425432 0.2403731 0.2383435 0.2364553 0.2347601
 0.233256 0.2319619 0.2308769 0.2300069 0.2293534 0.2289246 0.2287145 0.2287276 0.2289326 0.2293189
 0.2298106 0.2303822 0.2308943 0.2313073 0.2314253 0.2311969 0.2304354 0.2290934 0.2270876 0.2243927
 0.2210718 0.2171239 0.2127255 0.2078886 0.2028398 0.1975938 0.1923668 0.1871695 0.1821641 0.1773521
 0.172824 0.1685695 0.1646143 0.1609381 0.1575263 0.1543587 0.1514118 0.1486738 0.1461334 0.1437756
 0.1415978 0.139565 0.1376705 0.1358715 0.1341574 0.1325104 0.1309246 0.1294179 0.1279907 0.1266742
 0.1254693 0.1243899 0.1234318 0.1225724 0.1218015 0.1210642 0.1203492 0.1195965 0.1188009 0.117923
 0.1169669 0.1159191 0.1147948 0.113599 0.112357 0.111084 0.1098039 0.1085311 0.1072761 0.106045
 0.1048402 0.103662 0.1025183 0.1014095 0.1003488 0.09933715 0.09838294 0.09748645 0.09664914 0.09587169
 0.09515858 0.09451374 0.09395548 0.0934903 0.09314795 0.09292781 0.09284779 0.09289119 0.0930459 0.09328928
 0.09359313 0.09395277 0.09435192 0.09481036 0.09532998 0.09593891 0.09664469 0.09747136 0.09842408 0.09952244
 0.1007702 0.1021733 0.1037338 0.1054172 0.107219 0.1090365 0.1108538 0.1124991 0.1139497 0.115011
 0.1156734 0.1157979 0.1154139 0.1144943 0.1131207 0.1113724 0.109371 0.1072445 0.1051162 0.1030989
 0.1012722 0.09970109 0.09840764 0.09741462 0.0967069 0.09628812 0.09612334 0.09621094 0.09650239 0.09699441
 0.09764127 0.09844098 0.09936607 0.1004152 0.1015683 0.10282 0.1041368 0.1055094 0.106893 0.1082812
 0.1096376 0.1109664 0.112254 0.1135191 0.1147718 0.1160359 0.1173327 0.1186679 0.1200551 0.121469
 0.1229083 0.1243344 0.1257398 0.1270962 0.1283997 0.1296284 0.1307811 0.1318245 0.1327568 0.1335423
 0.1341837 0.1346836 0.1350566 0.1353671 0.1356359 0.1359583 0.1363443 0.1368629 0.1375046 0.1382884
 0.1391914 0.1402009 0.1412893 0.1424364 0.1436175 0.1448155 0.1460215 0.1472262 0.1484425 0.1496704
 0.1509264 0.1522144 0.1535283 0.1548693 0.1562034 0.1575288 0.1588067 0.1600379 0.1612124 0.1623374
 0.1634414 0.1645328 0.1656533 0.1668035 0.168006 0.169253 0.1705429 0.1718683 0.1732204 0.1745985
 0.175999 0.177425 0.178879 0.1803556 0.1818569 0.1833625 0.1848688 0.1863587 0.1878275 0.1892843
 0.1907292 0.1921821 0.1936434 0.1951059 0.1965665 0.1979939 0.1993868 0.2007228 0.2020025 0.2032164
 0.2043645 0.2054392 0.2064504 0.2074038 0.2083229 0.2092316 0.2101502 0.2111 0.2120911 0.2131314
 0.2142333 0.2154028 0.2166446 0.2179652 0.2193387 0.2207651 0.222199 0.2236366 0.2250464 0.2264271
 0.2277739 0.2290891 0.2303912 0.2316844 0.233 0.2343387 0.2357202 0.2371389 0.2385926 0.2400753
 0.2415791 0.243096 0.2446204 0.246131 0.2476138 0.249048 0.2504157 0.2517254 0.2529726 0.2541858
 0.255372 0.2565426 0.2577019 0.258838 0.2599503 0.2610283 0.2620716 0.2630896 0.2640847 0.2650846
 0.2660904 0.2671249 0.2681807 0.2692483 0.2703171 0.2713568 0.27237 0.2733451 0.2742961 0.2752349
 0.2761675 0.2771024 0.2780389 0.2789768 0.2799225 0.2808783 0.281847 0.2828316 0.2838206 0.2848125
 0.2857999 0.2867815 0.2877625 0.2887429 0.2897213 0.2906968 0.2916591 0.29261 0.2935503 0.294487
 0.2954403 0.2964191 0.2974536 0.2985445 0.2997122 0.3009357 0.3022057 0.3034897 0.3047592 0.3060041
 0.307209 0.3083855 0.3095364 0.3106608 0.3117593 0.3128266 0.3138593 0.3148801 0.3158902 0.3169158
 0.3179579 0.3190109 0.3200739 0.3211344 0.3221936 0.323254 0.3243129 0.3253649 0.3264033 0.3274099
 0.3283816 0.3293093 0.3301819 0.3309922 0.3317075 0.3323033 0.3327553 0.3330359 0.3331715 0.3331542
 0.333059 0.3328958 0.3327498 0.3326344 0.3326031 0.3326631 0.3328129 0.3330526 0.3333578 0.3337291
 0.3341668 0.3346711 0.3352451 0.3358817 0.3365541 0.3372656 0.3380066 0.3387907 0.3396437 0.3405499
 0.3415005 0.3424872 0.3434664 0.3445574 0.3457783 0.3473406 0.349368 0.3517668 0.3545912 0.3573999
 0.3601099 0.3626482 0.3649879 0.3673603 0.3697748 0.3723043 0.3749317 0.3774969 0.3799773 0.3821694
 0.3840689 0.3855631 0.3866391 0.387221 0.3872819 0.3867407 0.3856023 0.3838164 0.3814768 0.3786
 0.3753839 0.3719086 0.3683936 0.3649274 0.361653 0.3586204 0.3558915 0.3534842 0.3514096 0.3496731
 0.3482263 0.3470665 0.3461005 0.3453237 0.3446557 0.3440943 0.3435895 0.3431341 0.3426804 0.3422166
 0.3416965 0.3411057 0.3404104 0.3395797 0.338569 0.3373568 0.335895 0.3342391 0.3323897 0.3304521
 0.3284593 0.3264954 0.3245769 0.3228014 0.3211792 0.319831 0.3187724 0.3180198 0.3175734 0.3173056
 0.3172086 0.3171526 0.3171401 0.3171188 0.317096 0.3170621 0.3170359 0.3170488 0.3171309 0.3173497
 0.3177042 0.3182332 0.3188828 0.3196301 0.3204148 0.3211946 0.3219548 0.3226752 0.3233829 0.324079
 0.3247974 0.3255455 0.3263272 0.3271451 0.32797 0.3288003 0.3296251 0.3304458 0.3312845 0.3321353
 0.3329809 0.333804 0.3345305 0.3351614 0.3356568 0.3360374 0.3363247 0.3365173 0.3366239 0.336634
 0.3365301 0.3363465 0.3360917 0.3358101 0.3355278 0.3352322 0.3349293 0.334578 0.3341721 0.3336906
 0.3331309 0.33248 0.3317372 0.3309045 0.3299849 0.3290187 0.3280092 0.3269969 0.3259799 0.3249696
 0.3239701 0.3229969 0.322055 0.3211665 0.3203122 0.3194841 0.3186516 0.3177902 0.3168762 0.3159004
 0.3148131 0.3136031 0.3121982 0.3105718 0.3087178 0.3066199 0.3043782 0.3019964 0.2996148 0.2972412
 0.2949771 0.2928216 0.2907921 0.2888762 0.2870094 0.2851827 0.2833229 0.2814445 0.2795426 0.2776394
 0.2757735 0.2739452 0.2721677 0.2704428 0.2687705 0.26717 0.2656591 0.2642222 0.262866 0.261536
 0.2602124 0.2589017 0.2575921 0.2563805 0.2552762 0.2543321 0.2535517</values></Ydata></AB><ScSm><Ydata ylabel="Single channel"><values byteorder="INTEL" format="FLOAT32" numvalues="1814"> 0.07174133 0.07174794 0.07181211 0.07195835 0.07216375 0.07236837 0.0725172 0.07259618 0.07261995 0.07259506
 0.0725292 0.07247603 0.07252283 0.07270693 0.07296204 0.07316081 0.07321453 0.07315168 0.07310358 0.07317435
 0.07330078 0.07327183 0.07292995 0.07235346 0.07180487 0.07148805 0.07142352 0.07160758 0.07213689 0.07294931
 0.07354565 0.07335299 0.0724459 0.0715683 0.07130577 0.07152425 0.07172584 0.07162485 0.07123376 0.07073912
 0.07054432 0.07116618 0.07272692 0.07452784 0.07529685 0.07399241 0.07055059 0.06611813 0.06262615 0.06175292
 0.06373946 0.06705886 0.06956601 0.07020902 0.06952378 0.0685395 0.06767377 0.06688133 0.06637476 0.06664863
 0.06779738 0.06906971 0.06926619 0.06776589 0.06526412 0.06327486 0.06275186 0.06349497 0.06496511 0.0668686
 0.06832998 0.06742414 0.06307621 0.05745634 0.05500092 0.05818776 0.06489287 0.07047497 0.0719042 0.06944731
 0.06530624 0.06179835 0.06049427 0.06179661 0.06485689 0.0682751 0.07095452 0.0721629 0.07133774 0.06857117
 0.06510136 0.06272065 0.0626719 0.06515357 0.06927861 0.07316352 0.07478884 0.07349086 0.07039873 0.06724317
 0.06522319 0.06501607 0.06694088 0.07061785 0.07495815 0.07879761 0.08136886 0.08237524 0.08205167 0.0810125
 0.07978243 0.07872212 0.07836202 0.07906803 0.08017864 0.08026163 0.07867408 0.07641861 0.07511083 0.0753083
 0.07606442 0.07608174 0.07502667 0.07331222 0.07081763 0.06687096 0.06179977 0.05733477 0.05488361 0.05446373
 0.05572224 0.0584816 0.06154898 0.06265768 0.06094881 0.05854562 0.05845005 0.06133586 0.06520666 0.06782979
 0.06879756 0.06934914 0.07077885 0.07312079 0.07498671 0.07461704 0.07163218 0.06799571 0.06661112 0.0684755
 0.07173059 0.07394048 0.0746491 0.07511701 0.07611716 0.07674369 0.07537198 0.07159752 0.06724824 0.06524114
 0.0670462 0.07122176 0.07447462 0.07411872 0.06987681 0.06389192 0.05904455 0.05697345 0.05763421 0.06038914
 0.06468759 0.06954767 0.07329047 0.074481 0.07298981 0.06987061 0.06619163 0.06210826 0.05738347 0.0528754
 0.05073293 0.05235425 0.05657297 0.06062442 0.06262378 0.06250554 0.06093509 0.05815567 0.05414452 0.04961473
 0.04632967 0.04575717 0.04732209 0.0487227 0.04832519 0.0466395 0.04515976 0.04449011 0.04412106 0.04354025
 0.0429393 0.04284371 0.0433546 0.04393257 0.04392778 0.04318649 0.04207146 0.04102612 0.04018844 0.03932184
 0.03815546 0.03690547 0.03626341 0.036623 0.03752207 0.03812453 0.03806552 0.03756654 0.03688683 0.03593256
 0.03443843 0.03248142 0.03071702 0.02990356 0.03015419 0.0308524 0.03130354 0.03124328 0.03076221 0.03005156
 0.02928176 0.0285417 0.0278545 0.02728642 0.02693673 0.02677462 0.0266163 0.02631136 0.02585119 0.02528603
 0.02463898 0.02392832 0.02322004 0.02262245 0.02221082 0.02195823 0.02177228 0.02158866 0.02137802 0.02109054
 0.02068047 0.02018004 0.01968176 0.01925242 0.01890437 0.01862764 0.01841014 0.01823194 0.01805868 0.01785064
 0.01759119 0.01730128 0.01700906 0.01671705 0.01641987 0.01613608 0.01589789 0.01571568 0.01556406 0.01540469
 0.01523142 0.01508361 0.01498744 0.01489742 0.01473983 0.01450481 0.01425176 0.01403358 0.01385581 0.01369976
 0.01354993 0.01339752 0.01323508 0.0130575 0.01287504 0.01272022 0.01262514 0.0125933 0.01260366 0.01262753
 0.01263094 0.01258683 0.01249938 0.01239462 0.01228317 0.01215719 0.0120199 0.01189258 0.01179801 0.01175052
 0.01174851 0.01176748 0.01177556 0.01175828 0.01172077 0.01167866 0.01165376 0.01165658 0.01166541 0.01164597
 0.01159566 0.01154597 0.01152068 0.01151123 0.011494 0.01145891 0.01141991 0.01140056 0.01140998 0.01143663
 0.01146492 0.01148823 0.01150685 0.01152303 0.01153669 0.01154175 0.01153314 0.01151887 0.01151324 0.0115191
 0.01152915 0.01154169 0.01156194 0.01159097 0.01162264 0.01164878 0.01166452 0.01167257 0.01167985 0.01168681
 0.01168687 0.01167971 0.01167493 0.01167927 0.01168961 0.01170031 0.01170905 0.01171451 0.0117148 0.01170822
 0.01169344 0.01166994 0.01163883 0.01160265 0.01156632 0.01153756 0.01152158 0.01151422 0.01150403 0.01148172
 0.01144685 0.01140728 0.01137298 0.01134813 0.01132946 0.0113137 0.01130342 0.01130329 0.01131478 0.0113374
 0.01137095 0.01141394 0.01146395 0.01152284 0.01159813 0.01169428 0.01180398 0.01191345 0.01201793 0.01212691
 0.01225219 0.01239442 0.01254386 0.01269058 0.01283235 0.01297509 0.01312547 0.01328146 0.01343285 0.01357361
 0.01370953 0.01385083 0.01400226 0.01416137 0.01432016 0.01446759 0.01459908 0.01472541 0.01486314 0.01501384
 0.01516178 0.01529582 0.01542519 0.01556853 0.01573473 0.01591991 0.01611761 0.0163242 0.01653605 0.01674709
 0.0169501 0.01714097 0.01732441 0.01751523 0.01772899 0.0179691 0.01822437 0.01847959 0.01872717 0.01897024
 0.01921596 0.01946594 0.01971452 0.019959 0.02020838 0.02047536 0.02076081 0.02105226 0.02133873 0.02162091
 0.02190574 0.0221966 0.0224922 0.02279201 0.0230978 0.02340947 0.02372225 0.02403083 0.02433594 0.02464397
 0.02495869 0.02527708 0.02559528 0.02591296 0.02622733 0.0265306 0.02682253 0.02711831 0.02743089 0.0277493
 0.0280491 0.02832323 0.02858918 0.02886579 0.02915691 0.02946013 0.0297774 0.03010881 0.0304445 0.03077083
 0.03108095 0.03137387 0.03164888 0.03190871 0.0321654 0.03243503 0.03272617 0.03303637 0.033356 0.03367188
 0.03397283 0.03425605 0.03452571 0.03478799 0.03505464 0.03534526 0.03567227 0.0360237 0.03637046 0.03668891
 0.03697348 0.03723963 0.03752128 0.03785015 0.03822637 0.03862078 0.03901315 0.03941313 0.03983599 0.04027468
 0.04071037 0.04113919 0.0415723 0.04201285 0.04244649 0.04285531 0.04323007 0.04356868 0.04387801 0.04418478
 0.04452917 0.04493264 0.04537674 0.04582257 0.04624445 0.04663723 0.04700083 0.0473323 0.04763296 0.04791398
 0.04818935 0.04846334 0.04872771 0.0489729 0.04919836 0.04940718 0.0495939 0.04974452 0.04984558 0.04988455
 0.04984457 0.04971224 0.04949421 0.04921515 0.04889201 0.04851589 0.04806595 0.04753561 0.04693752 0.0462871
 0.04559344 0.04486985 0.04414738 0.04347593 0.04291526 0.04252285 0.0423422 0.04239757 0.04269522 0.0432194
 0.04391725 0.04468977 0.04540847 0.04595075 0.04623183 0.04622125 0.0459445 0.04546992 0.04488458 0.04427162
 0.0436966 0.04319911 0.04279024 0.04246587 0.04223491 0.04213771 0.04223847 0.04260964 0.04333272 0.04449597
 0.0461464 0.04821089 0.05047496 0.05267367 0.0546255 0.05628953 0.05771897 0.05898756 0.06015255 0.06124692
 0.06227773 0.06323339 0.06410056 0.0648729 0.06554363 0.06609735 0.06651454 0.0667854 0.0669219 0.06696288
 0.06697198 0.06703033 0.06721814 0.06758107 0.06809759 0.06867862 0.06920684 0.06958544 0.06976207 0.06972456
 0.06949438 0.06914905 0.06887321 0.06897645 0.06979631 0.07150023 0.07393972 0.07670733 0.07936346 0.08164088
 0.08348492 0.0849652 0.08618046 0.08721678 0.08814 0.088993 0.08979589 0.09055451 0.09127232 0.09195648
 0.09261659 0.09326084 0.09389462 0.09452044 0.0951376 0.09574308 0.0963355 0.09691887 0.09750254 0.09809607
 0.09870168 0.09931103 0.09991209 0.1005 0.1010789 0.1016531 0.1022202 0.1027739 0.1033107 0.1038362
 0.1043646 0.1049085 0.1054637 0.10601 0.1065295 0.1070199 0.1074918 0.1079557 0.1084177 0.108879
 0.1093366 0.1097846 0.1102209 0.1106521 0.1110891 0.1115354 0.1119812 0.1124116 0.1128207 0.1132148
 0.1136035 0.1139923 0.1143847 0.1147859 0.1152041 0.1156492 0.1161268 0.1166293 0.1171342 0.1176176
 0.1180726 0.1185127 0.1189562 0.1194098 0.1198679 0.1203236 0.120776 0.1212283 0.1216815 0.1221328
 0.1225782 0.1230159 0.1234467 0.123872 0.124295 0.124719 0.1251426 0.1255572 0.1259552 0.1263412
 0.1267307 0.1271343 0.1275466 0.127953 0.1283449 0.1287253 0.1291024 0.1294821 0.1298659 0.1302541
 0.1306451 0.1310359 0.1314232 0.1318074 0.1321932 0.1325866 0.1329879 0.1333914 0.1337902 0.1341827
 0.134572 0.1349623 0.1353558 0.1357512 0.1361434 0.1365279 0.1369053 0.137281 0.1376585 0.1380366
 0.1384118 0.1387818 0.1391473 0.1395114 0.139878 0.1402483 0.1406192 0.1409865 0.1413517 0.1417201
 0.1420938 0.1424681 0.1428387 0.1432061 0.1435723 0.1439352 0.1442914 0.1446418 0.1449921 0.1453487
 0.1457136 0.1460821 0.1464464 0.1468018 0.14715 0.1474963 0.1478453 0.148197 0.1485457 0.1488856
 0.1492165 0.1495411 0.1498616 0.1501798 0.1504981 0.1508176 0.1511404 0.1514708 0.1518113 0.152157
 0.1525019 0.1528442 0.1531846 0.1535234 0.1538624 0.1542026 0.1545406 0.1548727 0.1551984 0.1555173
 0.1558295 0.1561418 0.1564651 0.156803 0.1571481 0.1574883 0.1578128 0.1581181 0.1584106 0.1587002
 0.1589947 0.1593006 0.1596209 0.1599476 0.1602681 0.1605808 0.1608923 0.1612027 0.1615054 0.1618012
 0.1621006 0.1624144 0.1627446 0.1630831 0.1634186 0.1637482 0.1640768 0.1644066 0.1647372 0.1650723
 0.1654155 0.1657639 0.1661134 0.1664618 0.1668047 0.1671388 0.167469 0.1678008 0.168132 0.1684593
 0.1687836 0.1691026 0.1694129 0.1697179 0.1700222 0.1703238 0.170621 0.1709163 0.1712081 0.1714909
 0.1717654 0.1720361 0.1723064 0.1725807 0.1728624 0.1731475 0.1734323 0.1737233 0.1740259 0.1743367
 0.1746518 0.1749687 0.1752793 0.1755784 0.1758715 0.1761601 0.1764367 0.1767005 0.1769553 0.1771882
 0.1773549 0.1773429 0.1768727 0.1753888 0.1720522 0.1659143 0.1562998 0.1432336 0.1275777 0.1107228
 0.09408021 0.07872677 0.06530829 0.05411628 0.0452117 0.03851175 0.03385807 0.03111919 0.03028722 0.03157808
 0.03554337 0.04274314 0.05252275 0.06193989 0.06691658 0.06545705 0.05955027 0.05335405 0.04974137 0.04891522
 0.04965001 0.05090009 0.05233336 0.05413845 0.05664338 0.0599438 0.06388229 0.06844881 0.07398048 0.08073159
 0.08835326 0.0960383 0.1032176 0.1100068 0.116933 0.1242977 0.1318554 0.1390525 0.1454679 0.1510246
 0.1559002 0.1603287 0.1644662 0.1683798 0.1721034 0.17564 0.1788741 0.1815304 0.1833088 0.1841179
 0.184182 0.1839103 0.1836537 0.1835715 0.183678 0.1839479 0.1843632 0.1849078 0.1855629 0.186305
 0.1871006 0.187916 0.1887309 0.189533 0.1903041 0.1910245 0.1916842 0.1922838 0.1928298 0.193332
 0.1937979 0.1942316 0.1946391 0.1950285 0.1954016 0.1957532 0.1960792 0.1963778 0.1966492 0.1969018
 0.1971487 0.1973933 0.1976263 0.1978414 0.198045 0.1982482 0.1984595 0.1986817 0.1989107 0.1991398
 0.1993676 0.1995955 0.1998193 0.2000333 0.2002395 0.2004448 0.200653 0.2008662 0.2010874 0.2013165
 0.2015516 0.2017941 0.2020441 0.2022938 0.2025329 0.2027607 0.2029884 0.2032296 0.2034859 0.2037442
 0.203995 0.2042501 0.204527 0.2048216 0.2051149 0.2054023 0.2056929 0.2059899 0.2062908 0.2065975
 0.2069034 0.2071853 0.2074279 0.2076496 0.2078916 0.2081819 0.208512 0.2088494 0.2091722 0.2094863
 0.2098062 0.2101313 0.2104468 0.2107389 0.2110104 0.2112913 0.2116205 0.2120021 0.2123998 0.2127832
 0.213153 0.2135142 0.2138664 0.2142203 0.2145846 0.2149332 0.2152285 0.2154825 0.215768 0.216158
 0.216654 0.2171759 0.2176336 0.2180087 0.2183531 0.2187226 0.2191373 0.2195662 0.2199148 0.2200879
 0.2201355 0.2202758 0.2206965 0.2213674 0.2220971 0.2227278 0.2232311 0.2236607 0.2240664 0.2244442
 0.2247412 0.2249181 0.2250264 0.2252209 0.2256494 0.2263003 0.2270011 0.2275934 0.2280564 0.2284437
 0.2287935 0.2291233 0.2293914 0.2294405 0.2291575 0.2287581 0.2287359 0.2293894 0.230493 0.2315424
 0.232255 0.2327154 0.233104 0.2334686 0.233772 0.2339265 0.2336831 0.2327789 0.2314531 0.23059
 0.2309911 0.2325675 0.2344839 0.2359905 0.2368975 0.2373924 0.2377164 0.2380027 0.2381753 0.2379551
 0.2371728 0.236181 0.23576 0.236397 0.2377398 0.2389733 0.2396498 0.2399291 0.2401434 0.2404215
 0.2406031 0.2402096 0.23872 0.2363443 0.2344119 0.2344401 0.2366506 0.2397019 0.2420181 0.2431361
 0.2435776 0.2437018 0.2431758 0.2415764 0.2390284 0.2361591 0.233907 0.2333878 0.2351519 0.2382639
 0.2408324 0.2418775 0.2421633 0.2429384 0.2444392 0.245916 0.2466117 0.2463423 0.2453483 0.243876
 0.2420646 0.2403382 0.239645 0.240784 0.2434273 0.2462392 0.2481178 0.2490278 0.2494081 0.2488856
 0.2460238 0.2400496 0.2330156 0.2292344 0.2314599 0.237996 0.2445235 0.2483536 0.2498848 0.2505571
 0.2509349 0.2505555 0.2481989 0.2425658 0.2343271 0.2273861 0.2262402 0.2315457 0.2393734 0.2448659
 0.245554 0.2416271 0.2350486 0.2289695 0.2264526 0.228608 0.2340998 0.2404755 0.2456458 0.2484383
 0.2485797 0.2465957 0.2437579 0.2417609 0.2415097 0.2417829 0.2401482 0.2360433 0.2317326 0.2289862
 0.2263406 0.2218007 0.2171805 0.2168763 0.2221442 0.2290163 0.2327559 0.2326462 0.2311685 0.2295059
 0.2255564 0.2169938 0.2056776 0.1977162 0.1981039 0.2055627 0.2136983 0.2172351 0.2161948 0.2140537
 0.2130734 0.2120071 0.2079202 0.2000264 0.1915704 0.1871025 0.1876715 0.1898736 0.1898808 0.1865748
 0.1802667 0.1713068 0.1620296 0.1575685 0.1614946 0.1713607 0.1806415 0.1841786 0.1801343 0.168698
 0.1524181 0.1373822 0.1303146 0.1326763 0.1389675 0.141833 0.1379374 0.1285435 0.1162362 0.1030261
 0.09113121 0.0833877 0.08156285 0.08455822 0.08871756 0.08985023 0.08551097 0.0766578 0.06748001 0.06237411
 0.06213794 0.06358768 0.06318064 0.06019752 0.056248 0.0530209 0.05122028 0.05064625 0.050482 0.04997569
 0.04902933 0.04756594 0.04474072 0.04002753 0.03487817 0.03182344 0.0318009 0.03362956 0.03609186 0.03898184
 0.04178178 0.04295686 0.04166363 0.03933018 0.038446 0.03994183 0.04241892 0.04392472 0.04396402 0.04358192
 0.04381724 0.04457103 0.04518305 0.04571633 0.04699851 0.04930396 0.05165033 0.05279785 0.05250162 0.05137488
 0.04992444 0.04820184 0.04613681 0.04374828 0.04110406 0.0383305 0.03559678 0.03297922 0.03043793 0.02795072
 0.02552979 0.02309772 0.02051816 0.01784387 0.0154459 0.01374881 0.01280804 0.01228572 0.0118888 0.01159512
 0.01131904 0.01070399 0.009600114 0.008539453 0.00835975 0.009397291 0.01125223 0.01325058 0.01491571 0.01600292
 0.0163602 0.01612301 0.01611359 0.01760265 0.02124918 0.02645863 0.0320761 0.03739263 0.04210299 0.04570316
 0.04763098 0.04805527 0.04816149 0.04952613 0.05321729 0.05924022 0.06631035 0.07194093 0.07365402 0.07162238
 0.07012118 0.0743513 0.0847124 0.09582355 0.1025396 0.1052759 0.107687 0.1109673 0.1133392 0.1144046
 0.1167611 0.122456 0.1298916 0.1353048 0.1359793 0.1312926 0.1223951 0.1124592 0.1058526 0.1047902
 0.1071166 0.1088945 0.108346 0.1056412 0.100498 0.09311485 0.08673087 0.08569621 0.09036297 0.09636171
 0.09957592 0.09989159 0.09945075 0.09896159 0.09695768 0.0921573 0.08559046 0.07992636 0.07679431 0.07533247
 0.07359332 0.07062109 0.06657182 0.06159217 0.05567898 0.04948099 0.04433393 0.0411889 0.03978728 0.03905576
 0.03819853 0.03728878 0.03691024 0.03750327 0.03911134 0.04149707 0.04443898 0.04814149 0.05323635 0.0599672
 0.06751917 0.07472904 0.08139854 0.08830646 0.09587561 0.103347 0.1094348 0.1135587 0.1164137 0.1194887
 0.1239177 0.1295146 0.13484 0.1384123 0.140121 0.1414622 0.1441294 0.1483071 0.1525826 0.1554837
 0.1566774 0.156695 0.1561086 0.1551756 0.1538365 0.1519592 0.1500062 0.149399 0.1515899 0.1565876
 0.1627788 0.1682967 0.1722897 0.1749062 0.1764984 0.1771348 0.1767852 0.1757183 0.1745236 0.1737364
 0.1735529 0.173911 0.1746792 0.1757 0.1767831 0.1777765 0.1786268 0.1793659 0.1800883 0.1809311
 0.1819962 0.1832647 0.1846302 0.1860273 0.1874827 0.1890106 0.1905095 0.191818 0.1928343 0.1935057
 0.193739 0.1934255 0.1925637 0.1912654 0.1896235 0.1876684 0.1855308 0.1836027 0.1824261 0.1823321
 0.1831755 0.1844436 0.18562 0.1864425 0.1868915 0.1870604 0.1870751 0.1870651 0.1871327 0.1873251
 0.1876373 0.1880417 0.1885127 0.1890332 0.1895949 0.1902168 0.1909559 0.1918752 0.1929901 0.1942508
 0.1955713 0.1968728 0.1981127 0.1992864 0.2003977 0.2014267 0.2023309 0.2030694 0.2036176 0.2039768
 0.2041841 0.2043026 0.2043735 0.2043744 0.2042343 0.2038866 0.2032888 0.2024034 0.2012082 0.1997497
 0.1981492 0.1965195 0.1948897 0.1932261 0.1914945 0.1896787 0.1877663 0.1857485 0.1836295 0.1814286
 0.1791797 0.1769269 0.1747077 0.1725386 0.1704208 0.1683474 0.1662996 0.164242 0.1621324 0.1599309
 0.1575931 0.1550552 0.1522382 0.149078 0.1455477 0.1416523 0.1374205 0.1329227 0.1282881 0.1236826
 0.1192582 0.1151186 0.1113168 0.1078795 0.1048338 0.1022119 0.100035 0.098302 0.09699653 0.0960994
 0.09559618 0.09547807 0.09572753 0.09629701 0.09710631 0.09805705 0.09904002 0.09994444 0.1006986 0.1013196
 0.1019104 0.1025957 0.1034538 0.1045002 0.1057104 0.1070335 0.108386 0.1096608 0.1107644 0.1116446
 0.1122886 0.1127096 0.1129398 0.1130139 0.1129591 0.1128182 0.1126821 0.1126833 0.1129492 0.1135525
 0.1144859 0.1156644 0.1169601 0.1182513 0.1194561 0.1205322 0.1214516 0.1221802 0.1226879 0.1229776
 0.1231071 0.1232006 0.1234602 0.124152 0.1255313 0.1277415 0.1307579 0.134404 0.1384124 0.1424937
 0.146393 0.1499273 0.153005 0.1556158 0.1577927 0.159581 0.1610401 0.162246 0.1632632 0.1641152
 0.1647912 0.1652753 0.1655706 0.1657153 0.1657807 0.165847 0.1659788 0.1662159 0.1665634 0.1669826
 0.167413 0.1678131 0.1681737 0.1684962 0.1687716 0.1689807 0.169104 0.1691258 0.1690259 0.1687751
 0.1683533 0.167768 0.1670365 0.1661508 0.1650748 0.1637732 0.1622257 0.1604208 0.1583645 0.1561153
 0.1538229 0.1517263 0.1500823 0.1490479 0.1485933 0.1485043 0.1484707 0.1482121 0.1475778 0.1465649
 0.1452537 0.1437341 0.1420727 0.1403097 0.1384674 0.1365742 0.1346824 0.1328512 0.1311131 0.129464
 0.1278786 0.1263274 0.1247954 0.1232974 0.1218728 0.1205672 0.1194215 0.1184695 0.1177226 0.1171496
 0.1166749 0.1162105 0.1157015 0.1151495 0.1145894 0.1140423 0.1134951 0.1129142 0.1122686 0.1115502
 0.1107895 0.1100473 0.109375 0.1087786 0.1082187 0.1076353 0.1069652 0.1061479 0.1051305 0.1038782
 0.1023908 0.1007117 0.09891643 0.09708751 0.09529954 0.09361869 0.09210207 0.09079195 0.08970756 0.08883512
 0.08812551 0.08751528 0.0869634 0.08647097 0.08606051 0.08572446 0.08539294 0.08497446 0.08444878 0.08390675
 0.08347803 0.08322315 0.08310062 0.08301914 0.08290437 0.0827275 0.08249106 0.0822019 0.08186382 0.08148528
 0.08107597 0.08063858 0.08017633 0.07969834 0.07920512 0.07868293 0.0781225 0.07752915 0.07691085 0.07626979
 0.07560316 0.07490371 0.0741667 0.07339235 0.07256807 0.07167091 0.07072343 0.06983405 0.06915037 0.06877113
 0.06869319 0.06881368 0.06899623 0.06916389 0.06929637 0.06932434 0.06913261 0.06875672 0.06849302 0.068679
 0.06936061 0.07024193 0.07095157 0.07129961 0.0712915 0.07099666 0.0704705 0.06975114 0.06885245 0.0677723
 0.06654152 0.06522384 0.0638506 0.06242574 0.06100428 0.0596851 0.05852848 0.05754125 0.05671804 0.0560862
 0.05570943 0.0554085 0.05432513 0.05136965 0.04687026 0.04332657 0.04331921 0.04660714 0.05028351 0.05187242
 0.05133947 0.05006443 0.04901163 0.04835618 0.04808321 0.04828513 0.04903186 0.0502308 0.05162542 0.05292622
 0.05396677 0.05470701 0.05510531 0.05501503 0.05414581 0.05214789 0.04891138 0.04484808 0.0407631 0.03739813
 0.03511129 0.03387131 0.03339268 0.0333027 0.0333294 0.03341813 0.03368867 0.03428455 0.03525256 0.03654604
 0.03809233 0.03978027 0.04139805 0.04270969 0.04364163 0.04430937 0.04483187 0.04519808 0.04532943 0.04519733
 0.04485356 0.04438529 0.04386202 0.04331487 0.04274391 0.04213113 0.04147823 0.04086597 0.04043258 0.04024475
 0.04023305 0.04028873 0.04036451 0.04045708 0.0405634 0.04068166 0.04081362 0.04097019 0.04119324 0.04152619
 0.04194132 0.04234481 0.04266488 0.04290374 0.04311696 0.04335324 0.04358367 0.04372115 0.04376624 0.04385229
 0.04403722 0.04414807 0.04398901 0.0436439 0.04342663 0.04355648 0.04397934 0.04447673 0.04486233 0.04508349
 0.0452208 0.04543304 0.04584304 0.04639531</values></Ydata></ScSm><ScRf><Ydata ylabel="Single channel"><values byteorder="INTEL" format="FLOAT32" numvalues="1820"> 0.06075312 0.06092466 0.06103928 0.06108589 0.06108148 0.06107379 0.06112041 0.06124929 0.06143607 0.06162027
 0.06175032 0.06181672 0.06183543 0.06181017 0.06174311 0.06168136 0.0617072 0.06185748 0.06207176 0.0622348
 0.06227069 0.06221014 0.06217119 0.06224289 0.06236497 0.06234821 0.06205197 0.06154382 0.06105428 0.06076489
 0.06069692 0.06084647 0.06129578 0.06199488 0.06251754 0.06236474 0.06158775 0.06082088 0.06057635 0.0607528
 0.06092907 0.06085473 0.06052808 0.06009997 0.05991914 0.06044012 0.06177509 0.0633225 0.06398383 0.06285924
 0.05989129 0.05606617 0.05304845 0.05228896 0.05400298 0.0568779 0.05905698 0.05962111 0.05903204 0.05819183
 0.05747035 0.05681606 0.05638777 0.05660275 0.05756012 0.0586387 0.05881403 0.05753805 0.05539098 0.0536692
 0.0532005 0.05382451 0.05508355 0.05672338 0.05799011 0.05723203 0.05352269 0.04871386 0.04661004 0.04935167
 0.05512905 0.05995044 0.06119422 0.05908228 0.05551996 0.05251499 0.05141618 0.0525534 0.05518724 0.05812147
 0.06042469 0.06146919 0.06077007 0.05840974 0.05545171 0.05342572 0.05339149 0.0555249 0.05907546 0.06243059
 0.06385151 0.06275976 0.06012087 0.05742344 0.0556988 0.0555267 0.05718588 0.060366 0.06414415 0.06751399
 0.0697936 0.07070424 0.07043988 0.06954473 0.06849459 0.06760717 0.06732669 0.06795615 0.06892395 0.06899881
 0.06763177 0.06569467 0.06458528 0.06478394 0.0654709 0.06552079 0.06464085 0.06319088 0.06106859 0.05768149
 0.053302 0.04943878 0.0473299 0.04699612 0.04813416 0.05059969 0.05335229 0.0543919 0.05294412 0.05085994
 0.05078176 0.05332693 0.05676571 0.05913616 0.06006462 0.06063486 0.06198875 0.06415322 0.06589557 0.06565405
 0.06308701 0.05994042 0.05881268 0.06060335 0.06364885 0.06576975 0.06656955 0.06718566 0.06830541 0.069104
 0.06810727 0.06494422 0.06128298 0.05979608 0.06182928 0.06605139 0.06941839 0.06942227 0.06578025 0.06050168
 0.05632358 0.05481613 0.05596922 0.05924112 0.06415549 0.06974041 0.07428147 0.07628305 0.07555036 0.07310957
 0.07003434 0.0664511 0.06209245 0.05794817 0.05647407 0.05927613 0.06505734 0.07069638 0.07403132 0.07493898
 0.07412267 0.07177855 0.06780069 0.06308459 0.05995616 0.06036519 0.06353761 0.0664119 0.06684408 0.06556515
 0.06461128 0.06478465 0.06534598 0.06557918 0.06581688 0.06687665 0.0688941 0.07100773 0.07219253 0.07218986
 0.07155913 0.07102553 0.07081911 0.07050283 0.06959531 0.06854177 0.06865872 0.07068574 0.07375928 0.07629719
 0.07758355 0.078025 0.07808715 0.07748084 0.07557885 0.07259046 0.07004689 0.06966756 0.07169615 0.0747432
 0.07723054 0.07852981 0.07882107 0.07852019 0.07799347 0.07744128 0.07696296 0.07681067 0.07732091 0.07843105
 0.07957519 0.0802508 0.08042948 0.08029801 0.07989698 0.07920082 0.07838099 0.07780614 0.0777755 0.07829517
 0.07912423 0.07998826 0.08067681 0.08100353 0.0808699 0.08041081 0.07991983 0.07958381 0.07941137 0.0794123
 0.07966508 0.0801575 0.08070461 0.08110274 0.08129212 0.08133028 0.08127532 0.0811438 0.08095148 0.08076265
 0.08069034 0.08081554 0.08108798 0.08136153 0.08156782 0.08178442 0.08206809 0.08230317 0.08232114 0.08212657
 0.08190475 0.08182082 0.0818861 0.08201031 0.08210253 0.08208929 0.08189972 0.08152871 0.08112778 0.08094898
 0.08114481 0.08166024 0.08232434 0.08296855 0.08345281 0.08369654 0.08373995 0.0837023 0.08364587 0.08353364
 0.08333311 0.08311476 0.08303046 0.08319922 0.08360136 0.08408518 0.08448625 0.08472864 0.08482856 0.08486548
 0.08495107 0.08513991 0.08534802 0.08543238 0.08537036 0.08529591 0.08533777 0.08547304 0.08556563 0.08552748
 0.0854198 0.08538938 0.08551462 0.08573753 0.08594865 0.0861075 0.08626135 0.08645785 0.08665425 0.08673231
 0.08662634 0.08641851 0.08626026 0.08621216 0.0862238 0.08626297 0.08637694 0.0865943 0.08683455 0.08697438
 0.08698463 0.08695577 0.08698237 0.08705233 0.08706924 0.08696739 0.08678067 0.086606 0.08652348 0.08655001
 0.08664213 0.08672863 0.08675161 0.08669491 0.08658493 0.08646435 0.08636425 0.08630639 0.08632898 0.08647683
 0.08673209 0.08696899 0.0870272 0.08685656 0.08657409 0.08635831 0.0862876 0.08628729 0.08622544 0.08604288
 0.08578711 0.08554377 0.08536032 0.08523117 0.08512869 0.08503704 0.08497319 0.08498462 0.08510303 0.08527873
 0.0853819 0.08530612 0.08507033 0.0847973 0.08460191 0.08451898 0.08451337 0.08452474 0.08451869 0.08452055
 0.08457644 0.08466651 0.08470159 0.08463153 0.08451511 0.08445963 0.08452918 0.08471708 0.08495223 0.08511991
 0.08513688 0.08503412 0.08492973 0.08490774 0.08495553 0.08502114 0.08508578 0.08516153 0.0852527 0.08535267
 0.08547061 0.08563608 0.08586776 0.08614203 0.08639726 0.0865759 0.08667384 0.08675402 0.0869019 0.08715639
 0.08747965 0.08779196 0.08803762 0.08822428 0.08840219 0.08860359 0.08881373 0.08901314 0.08922668 0.08949699
 0.08982119 0.09015058 0.09045014 0.09072574 0.09099655 0.09127145 0.09155647 0.09186836 0.09223373 0.09266534
 0.09312423 0.09351808 0.09377114 0.09390109 0.09401079 0.09420888 0.09453833 0.09494738 0.09530905 0.09551241
 0.09557532 0.09563997 0.09582125 0.09608971 0.09634548 0.09657397 0.09686368 0.09727233 0.09773292 0.09811707
 0.09836327 0.09852231 0.09868719 0.0988937 0.09909296 0.09922206 0.09928935 0.09936626 0.0994992 0.09967313
 0.09987684 0.1001515 0.1005303 0.1009634 0.1013517 0.1016383 0.1018348 0.1019772 0.1020908 0.1021818
 0.1022377 0.1022532 0.1022651 0.1023275 0.1024383 0.1025318 0.1025666 0.1025841 0.1026544 0.102803
 0.1030175 0.1032889 0.1035997 0.1039012 0.1041581 0.1044103 0.1047344 0.1051254 0.105466 0.1056486
 0.1056919 0.105695 0.1057139 0.1057436 0.1058001 0.1059431 0.1062027 0.106537 0.1068839 0.1072223
 0.1075632 0.1079066 0.1082195 0.1084502 0.1085621 0.1085672 0.1085325 0.1085455 0.1086684 0.1089092
 0.1092234 0.1095429 0.109814 0.1100088 0.110105 0.1100906 0.1100089 0.1099703 0.1100671 0.1102693
 0.1104354 0.1104328 0.1102262 0.1098498 0.1093386 0.1087141 0.1080228 0.1073523 0.106794 0.1063974
 0.1061723 0.106135 0.1063295 0.1067785 0.1074212 0.1081308 0.1087926 0.1093324 0.1096689 0.1096997
 0.1093758 0.1087671 0.1080208 0.1072703 0.1065895 0.1059904 0.1054324 0.1048698 0.1043385 0.1039922
 0.1040282 0.1045699 0.1056078 0.1070089 0.1085591 0.1100312 0.1112701 0.1122494 0.1130457 0.1137544
 0.1144283 0.1150877 0.1157521 0.1164263 0.1170686 0.11762 0.1180717 0.1184741 0.1188743 0.1192712
 0.119632 0.1199291 0.1201635 0.1203687 0.120576 0.1207643 0.1208672 0.1208489 0.120748 0.1206272
 0.1205032 0.120339 0.1200834 0.1197108 0.1192567 0.1188445 0.118663 0.118883 0.1195626 0.1206178
 0.1218843 0.1232133 0.1245057 0.1256734 0.1266172 0.1272787 0.127698 0.127988 0.1282537 0.1285446
 0.1288626 0.1291893 0.1295065 0.1298052 0.1300867 0.1303641 0.1306613 0.130995 0.1313445 0.1316582
 0.1319072 0.1321273 0.1323931 0.1327463 0.1331519 0.1335334 0.1338525 0.1341435 0.1344532 0.1347648
 0.1350158 0.135186 0.1353304 0.135524 0.135804 0.1361614 0.13655 0.1369003 0.1371613 0.137342
 0.1374992 0.1376832 0.1379052 0.1381514 0.1384056 0.1386566 0.1388996 0.1391449 0.1394177 0.1397311
 0.1400534 0.1403194 0.1404933 0.1406111 0.1407464 0.1409383 0.1411656 0.1413857 0.1415863 0.1417989
 0.1420645 0.1423845 0.1427067 0.1429666 0.143142 0.1432644 0.1433843 0.1435339 0.1437183 0.1439264
 0.1441439 0.1443588 0.1445652 0.144767 0.1449753 0.1451955 0.1454182 0.1456276 0.1458205 0.1460103
 0.1462109 0.1464231 0.1466421 0.1468758 0.1471416 0.1474376 0.1477277 0.1479686 0.1481498 0.1482946
 0.14843 0.1485689 0.1487165 0.1488779 0.1490561 0.1492495 0.1494553 0.1496697 0.1498861 0.1500987
 0.1503068 0.1505137 0.1507219 0.1509316 0.1511452 0.1513691 0.1516062 0.1518464 0.1520698 0.1522626
 0.1524306 0.1525956 0.1527782 0.1529815 0.15319 0.1533863 0.1535692 0.1537511 0.1539422 0.1541405
 0.1543374 0.1545274 0.1547128 0.1549016 0.1550995 0.1553042 0.1555069 0.1557002 0.1558837 0.1560646
 0.1562524 0.15645 0.1566526 0.156855 0.157058 0.1572634 0.1574692 0.157674 0.1578803 0.1580907
 0.1583028 0.1585089 0.1587018 0.1588825 0.1590622 0.1592527 0.1594555 0.1596656 0.1598788 0.1600906
 0.1602928 0.1604777 0.1606473 0.1608151 0.1609991 0.1612105 0.1614444 0.1616823 0.1619062 0.1621099
 0.1623017 0.1624973 0.162709 0.1629384 0.1631783 0.1634198 0.1636551 0.1638792 0.1640895 0.164284
 0.1644592 0.1646186 0.1647775 0.1649497 0.165135 0.1653253 0.1655177 0.1657135 0.1659116 0.1661083
 0.1662984 0.1664788 0.1666534 0.1668318 0.1670194 0.1672148 0.1674166 0.1676244 0.167835 0.1680432
 0.1682458 0.1684429 0.1686385 0.1688419 0.16906 0.1692909 0.1695268 0.1697592 0.1699806 0.1701884
 0.1703869 0.1705815 0.1707777 0.1709838 0.1712032 0.1714271 0.1716446 0.1718556 0.172063 0.1722651
 0.1724631 0.172664 0.1728717 0.1730853 0.1733046 0.1735258 0.1737403 0.1739458 0.1741482 0.1743542
 0.1745709 0.1748032 0.1750398 0.1752585 0.1754546 0.1756448 0.175844 0.1760556 0.1762775 0.1764999
 0.1767097 0.1769083 0.1771068 0.1772968 0.1774273 0.1773712 0.1768416 0.1752933 0.1718997 0.1657086
 0.1560244 0.1428572 0.1270752 0.1100935 0.09334709 0.07791879 0.06444312 0.05319802 0.04424207 0.03749898
 0.03281571 0.03006114 0.02922652 0.03052841 0.03452136 0.0417693 0.05161432 0.06109275 0.06609347 0.06460585
 0.05864414 0.05241305 0.04881208 0.04803156 0.0488136 0.05009092 0.05153201 0.05333893 0.05585006 0.05916198
 0.06311671 0.06771173 0.07329666 0.08012974 0.08784842 0.0956196 0.1028546 0.1096729 0.1166267 0.1240395
 0.1316653 0.1389311 0.1453977 0.1509842 0.1558758 0.1603168 0.1644707 0.1684073 0.1721581 0.1757194
 0.1789706 0.1816381 0.1834246 0.1842334 0.1842815 0.1839819 0.1836993 0.1836016 0.1837018 0.1839714
 0.1843898 0.1849353 0.1855844 0.1863167 0.1871093 0.1879332 0.1887619 0.1895742 0.1903529 0.191088
 0.1917736 0.1924024 0.1929715 0.1934893 0.1939666 0.1944066 0.194811 0.195186 0.1955361 0.1958638
 0.1961763 0.1964821 0.1967815 0.1970661 0.1973293 0.1975734 0.1978083 0.1980418 0.1982681 0.1984739
 0.1986571 0.1988335 0.1990219 0.1992288 0.1994488 0.1996701 0.1998819 0.2000813 0.2002726 0.200461
 0.2006517 0.2008499 0.2010547 0.2012572 0.2014512 0.2016396 0.2018248 0.2020022 0.202168 0.2023298
 0.2025021 0.2026962 0.2029103 0.2031302 0.2033453 0.2035627 0.2037942 0.2040352 0.2042668 0.2044763
 0.2046653 0.2048444 0.2050309 0.2052382 0.2054569 0.2056581 0.2058256 0.2059769 0.2061472 0.2063563
 0.2065912 0.2068189 0.2070199 0.2072057 0.2073991 0.2076056 0.2078109 0.2079988 0.2081686 0.2083428
 0.2085526 0.2088052 0.2090734 0.2093278 0.2095623 0.2097842 0.2100056 0.2102438 0.2104997 0.2107337
 0.2108986 0.2110052 0.2111351 0.2113743 0.2117316 0.2121254 0.2124607 0.2127119 0.2129203 0.2131349
 0.2133812 0.2136439 0.2138412 0.2138779 0.2137903 0.2137829 0.2140434 0.2145545 0.2151365 0.2156319
 0.2160035 0.2162952 0.2165545 0.2167839 0.2169395 0.2169811 0.2169499 0.2169901 0.2172479 0.2177212
 0.2182519 0.2186915 0.2190193 0.2192798 0.2194968 0.2196757 0.219776 0.2196602 0.2192396 0.2187378
 0.2186317 0.2191932 0.2201784 0.2210826 0.2216377 0.2219508 0.2222181 0.2224868 0.2227046 0.222772
 0.2224483 0.2214911 0.2201423 0.2192522 0.2195758 0.2210106 0.2227554 0.224111 0.224912 0.2253345
 0.2255916 0.225799 0.2258873 0.2256005 0.2247833 0.2237738 0.223323 0.2239039 0.2251787 0.226359
 0.2270094 0.2272819 0.227495 0.2277735 0.2279651 0.2276057 0.2261847 0.2238979 0.2220242 0.2220266
 0.2241235 0.2270273 0.2292216 0.2302649 0.2306676 0.2307718 0.2302407 0.2286615 0.2261728 0.2233968
 0.2212332 0.220737 0.2224239 0.2253964 0.227851 0.2288546 0.2291322 0.2298755 0.2313262 0.232782
 0.2335102 0.2333136 0.2324113 0.2310409 0.2293421 0.2277263 0.2270983 0.2282171 0.2307755 0.2335105
 0.2353691 0.2363066 0.2367389 0.2363094 0.2336377 0.2279772 0.2212927 0.2177176 0.2199044 0.2262492
 0.232615 0.236402 0.2379764 0.2387222 0.2391833 0.2389174 0.2367633 0.2314753 0.2236874 0.2171535
 0.2162132 0.2214977 0.229213 0.2346788 0.2355137 0.2318899 0.2257025 0.2200046 0.2177532 0.2200194
 0.2255289 0.2319206 0.237157 0.2400854 0.2404371 0.2387189 0.2361736 0.2344782 0.2345293 0.2351171
 0.2338457 0.2301584 0.2262625 0.2238884 0.2216146 0.2175018 0.2133572 0.2135412 0.2192937 0.2266464
 0.2308785 0.2313048 0.2304134 0.2293526 0.2259764 0.2179328 0.2071036 0.199703 0.2008452 0.2092341
 0.218318 0.2227047 0.2224499 0.2211464 0.2211354 0.2211185 0.2179896 0.2108901 0.2032955 0.2000997
 0.2024032 0.2065274 0.2083791 0.2067183 0.2017166 0.1936443 0.18524 0.1825758 0.1899425 0.2046097
 0.2189574 0.2267465 0.2254091 0.21471 0.1976511 0.1823026 0.1778696 0.1864446 0.2004631 0.2096621
 0.2092245 0.2006332 0.187287 0.1721836 0.1593231 0.1541445 0.1602727 0.1758382 0.1934822 0.2039946
 0.201412 0.1876884 0.1731456 0.1690493 0.177325 0.1891963 0.1949943 0.1929283 0.1877238 0.1845657
 0.1861104 0.1919827 0.1991716 0.2048717 0.2087168 0.2095875 0.2025987 0.1849663 0.1637585 0.1512315
 0.1521067 0.161167 0.1730561 0.1870843 0.2008265 0.2068256 0.2009995 0.1903636 0.1870465 0.1954122
 0.2083321 0.2159068 0.215264 0.2110789 0.2083712 0.2071669 0.2049883 0.202628 0.2043606 0.2120343
 0.2218373 0.2285576 0.231008 0.2315443 0.2320756 0.2326151 0.2326293 0.2319177 0.2305461 0.2289792
 0.2279329 0.2275748 0.2273728 0.2269008 0.2258203 0.2226656 0.215167 0.2034443 0.1920249 0.1862541
 0.1866279 0.1891809 0.1913836 0.1936057 0.1935992 0.1849597 0.1655808 0.1445842 0.1356787 0.143913
 0.1619162 0.1783023 0.1863937 0.184796 0.1739984 0.1565788 0.1399156 0.1338677 0.1427289 0.1611058
 0.1796802 0.1932364 0.2012357 0.2033499 0.198481 0.1879469 0.1767549 0.1707283 0.1729535 0.1824292
 0.1944103 0.2016287 0.1978493 0.1840769 0.1712845 0.172311 0.1883889 0.2070769 0.2162414 0.216335
 0.2154486 0.2167353 0.2168617 0.2148542 0.2156303 0.2232645 0.235 0.2439685 0.2452217 0.2376821
 0.2234982 0.2085354 0.2008508 0.2042023 0.2137127 0.2211165 0.2227259 0.2189575 0.2094779 0.1952382
 0.1836097 0.1839489 0.1967658 0.2125165 0.2224468 0.2265604 0.2296303 0.2329726 0.2328478 0.2261259
 0.2155226 0.2079205 0.2075688 0.2123792 0.2174717 0.2203198 0.2207651 0.2180999 0.2115153 0.2034307
 0.1995177 0.2037682 0.2143396 0.2252465 0.2316889 0.2330517 0.2315142 0.2292217 0.2268391 0.2237208
 0.2193457 0.2151726 0.2143504 0.2183541 0.2246363 0.2292483 0.2313606 0.2335304 0.2376851 0.2424701
 0.2449 0.2436175 0.2401836 0.2377118 0.2383633 0.2416312 0.2447255 0.2449583 0.2423003 0.2396503
 0.2401695 0.2442705 0.2495694 0.2535902 0.2557782 0.2569838 0.258008 0.2589015 0.2589269 0.2571178
 0.253648 0.2506267 0.2506019 0.2540317 0.258848 0.2625965 0.264425 0.2649373 0.2648273 0.2641539
 0.2627504 0.2608927 0.259321 0.2586506 0.2589272 0.2597715 0.2607729 0.261671 0.2623429 0.2627872
 0.2630798 0.2632775 0.2633978 0.2634817 0.2635748 0.2636342 0.2635669 0.263407 0.2633487 0.2635305
 0.2638583 0.2641115 0.2641505 0.2639304 0.2633834 0.262435 0.2611407 0.259675 0.2581388 0.2564905
 0.2547753 0.2533838 0.2529406 0.2538331 0.2558472 0.258295 0.2604854 0.2620696 0.2630379 0.2635413
 0.2637604 0.2638443 0.2638668 0.2638217 0.2636777 0.2634373 0.2631375 0.2628089 0.2624556 0.2620789
 0.2617083 0.2613877 0.2611247 0.2608668 0.2605391 0.2601036 0.259582 0.2590306 0.2584902 0.257945
 0.2573287 0.2565809 0.2556995 0.2547425 0.2537929 0.2529173 0.2521327 0.2513966 0.2506424 0.2498277
 0.2489331 0.24793 0.2468037 0.2456221 0.244533 0.2436497 0.2429566 0.2423428 0.2416972 0.2409526
 0.2400827 0.239104 0.2380703 0.2370253 0.235963 0.2348462 0.2336519 0.2323794 0.2310331 0.2296114
 0.2281099 0.2265314 0.2248967 0.2232364 0.2215518 0.2197831 0.2178161 0.2155143 0.2127466 0.2094154
 0.2054926 0.2010475 0.196244 0.1912982 0.1864146 0.1817447 0.1774 0.1734867 0.1701124 0.1673636
 0.1652892 0.1639034 0.1632024 0.1631851 0.1638565 0.1652011 0.1671525 0.1695958 0.1723904 0.1753778
 0.1783791 0.181221 0.1837984 0.1861226 0.1882901 0.1903791 0.1923772 0.1942143 0.1958456 0.1972757
 0.1985189 0.199573 0.2004379 0.2011375 0.2017125 0.2021987 0.2026172 0.20298 0.2032974 0.2035756
 0.2038152 0.2040179 0.2041929 0.2043578 0.2045342 0.2047401 0.2049827 0.2052683 0.2056182 0.2060572
 0.2065804 0.2071508 0.2077354 0.2083314 0.2089542 0.2096227 0.2103596 0.211195 0.2121617 0.2132802
 0.2145392 0.2158881 0.217254 0.2185646 0.2197531 0.2207574 0.2215301 0.2220487 0.2223211 0.222387
 0.2223035 0.2221118 0.2218189 0.2214211 0.2209357 0.2203989 0.2198387 0.2192582 0.2186407 0.2179696
 0.2172488 0.2165101 0.215793 0.2151139 0.2144584 0.213805 0.2131525 0.2125183 0.2119142 0.2113316
 0.2107511 0.2101651 0.2095864 0.209034 0.2085063 0.207968 0.2073646 0.2066521 0.2058145 0.2048608
 0.2038097 0.2026766 0.2014677 0.200183 0.1988238 0.1973985 0.1959173 0.1943782 0.1927606 0.191038
 0.1891962 0.1872433 0.1852187 0.1831945 0.1812515 0.179437 0.1777491 0.1761596 0.1746457 0.1732018
 0.1718344 0.1705446 0.1693176 0.1681376 0.1670086 0.1659466 0.1649529 0.1640141 0.1631259 0.1623073
 0.1615837 0.16096 0.1604132 0.1599171 0.1594703 0.1590949 0.158816 0.1586547 0.1586186 0.1586771
 0.1587599 0.1587971 0.1587568 0.1586471 0.1585027 0.1583665 0.1582648 0.1581979 0.158152 0.1580988
 0.1579749 0.1576821 0.1571197 0.1562237 0.1549892 0.1534674 0.1517407 0.1499094 0.1480978 0.1464321
 0.1449952 0.1438222 0.1429228 0.1422694 0.1417837 0.1413873 0.1410664 0.1408707 0.140864 0.1410562
 0.1413419 0.1415404 0.141562 0.1415186 0.1416236 0.1420071 0.1426406 0.143394 0.1441346 0.1447956
 0.1453587 0.1457937 0.1460665 0.1461937 0.1462263 0.1461858 0.1460658 0.1458709 0.1456138 0.1453018
 0.1449414 0.1445243 0.1440247 0.1434355 0.1427739 0.1420419 0.141233 0.1403551 0.139387 0.1382707
 0.1370392 0.1359061 0.1351594 0.1349883 0.1353986 0.1362227 0.1372343 0.138302 0.1393553 0.1401937
 0.1405502 0.140498 0.1406398 0.1416706 0.1437226 0.1462233 0.148398 0.1498292 0.1505183 0.1505911
 0.1501303 0.1491915 0.1477709 0.1458005 0.1433007 0.1404417 0.1373913 0.1342662 0.1312467 0.1285423
 0.1262558 0.1243984 0.1229571 0.1219655 0.1215599 0.1213781 0.1195177 0.1135309 0.1042043 0.09723727
 0.09843409 0.1071731 0.11685 0.1218472 0.1219958 0.1202811 0.118781 0.1178189 0.1172872 0.1173249
 0.1180573 0.1193341 0.1207637 0.121947 0.1227168 0.1231008 0.1230492 0.1222057 0.1198461 0.115125
 0.1077547 0.09860039 0.08939493 0.08173558 0.0763611 0.07316162 0.07152874 0.07071128 0.070179 0.06987539
 0.07011668 0.07120796 0.07317682 0.07585341 0.0790547 0.08254768 0.08592634 0.08876469 0.09093901 0.09264404
 0.09405883 0.09512997 0.09570467 0.09574538 0.09536157 0.09471387 0.09393996 0.0931177 0.09222716 0.091171
 0.08992684 0.08869164 0.0877743 0.08731328 0.08718571 0.08719542 0.08723713 0.08727491 0.08728416 0.08725095
 0.08718191 0.08712891 0.08720935 0.08752385 0.08802535 0.0885299 0.08887108 0.08901878 0.08905864 0.08904438
 0.08885494 0.08830506 0.08747353 0.08673298 0.08626659 0.08574231 0.08473814 0.08337674 0.08226363 0.08183637
 0.08199055 0.08231526 0.082483 0.08239396 0.08216182 0.08207688 0.08241896 0.08312293 0.08371545 0.08375494
</values></Ydata></ScRf><Data_Parameters_AB><parameter name="DPF">1</parameter><parameter name="NPT">3497</parameter><parameter name="FXV">3996</parameter><parameter name="LXV">500</parameter><parameter name="CSF">1</parameter><parameter name="MXY">1.2377964258194</parameter><parameter name="MNY">-0.07224952429533</parameter><parameter name="DAT">31/05/2022</parameter><parameter name="TIM">13:53:45.871 (GMT+2)</parameter><parameter name="DXU">WN</parameter></Data_Parameters_AB><AB__Qtest><MainReport name="Quality Test Report"><Header><Line><Legend>Test result ok/not ok [1/0]: </Legend><Value>1</Value></Line><Line><Legend>Method file: </Legend><Value>C:\Users\Public\Documents\Bruker\OPUS_8.2.28\QT\IRBT_v3_default.QT</Value></Line></Header><Matrix><Line><Legend></Legend><Legend>min</Legend><Legend>max</Legend><Legend>measured</Legend></Line><Line><Value>Absorption (X-Range 1):</Value><Value>0.400000</Value><Value>2.000000</Value><Value>0.736041</Value></Line><Line><Value>Noise (X-Range 4):</Value><Value></Value><Value>0.000300</Value><Value>0.000083</Value></Line><Line><Value>Signal/Noise (X-Range 2):</Value><Value>200.000000</Value><Value></Value><Value>217.542530</Value></Line><Line><Value>Signal/Noise (X-Range 3):</Value><Value>40.000000</Value><Value></Value><Value>92.257059</Value></Line><Line><Value>Water vapour (X-Range 5):</Value><Value></Value><Value>0.000300</Value><Value>0.000098</Value></Line><Line><Value>Signal/Water (X-Range 2):</Value><Value>100.000000</Value><Value></Value><Value>182.983533</Value></Line><Line><Value>Signal/Water (X-Range 3):</Value><Value>20.000000</Value><Value></Value><Value>77.601022</Value></Line><Line><Value>Fringes (X-Range 6):</Value><Value></Value><Value>0.000100</Value><Value>0.000069</Value></Line></Matrix></MainReport></AB__Qtest><Data_Parameters_ScSm><parameter name="DPF">1</parameter><parameter name="NPT">1814</parameter><parameter name="FXV">3996.33169228125</parameter><parameter name="LXV">499.541461535156</parameter><parameter name="CSF">1</parameter><parameter name="MXY">0.250934898853302</parameter><parameter name="MNY">0.00835974980145693</parameter><parameter name="DAT">31/05/2022</parameter><parameter name="TIM">13:53:45.871 (GMT+2)</parameter><parameter name="DXU">WN</parameter></Data_Parameters_ScSm><Data_Parameters_ScRf><parameter name="DPF">1</parameter><parameter name="NPT">1820</parameter><parameter name="FXV">4004.04661832813</parameter><parameter name="LXV">495.683998511719</parameter><parameter name="CSF">1</parameter><parameter name="MXY">0.264937341213226</parameter><parameter name="MNY">0.0292265191674232</parameter><parameter name="DAT">31/05/2022</parameter><parameter name="TIM">13:53:20.019 (GMT+2)</parameter><parameter name="DXU">WN</parameter></Data_Parameters_ScRf><Optic_Parameters_Rf><parameter name="APR">0</parameter><parameter name="APT">Open</parameter><parameter name="BMS">KBr</parameter><parameter name="DTC">RT-DLaTGS_IR-Biotyper [Microplate reader]</parameter><parameter name="HPF">0</parameter><parameter name="LPF">10.0</parameter><parameter name="LPV">4000</parameter><parameter name="PGR">0</parameter><parameter name="RCH">Module port</parameter><parameter name="RDX">0</parameter><parameter name="SRC">MIR</parameter><parameter name="VEL">10.0</parameter><parameter name="SON">Off</parameter></Optic_Parameters_Rf><Acquisition_Parameters_Rf><parameter name="ADT">1</parameter><parameter name="AQM">DD</parameter><parameter name="CFE">0</parameter><parameter name="COR">0</parameter><parameter name="DEL">0</parameter><parameter name="DLY">0</parameter><parameter name="HFW">8000</parameter><parameter name="LFW">0</parameter><parameter name="NSR">32</parameter><parameter name="PLF">AB</parameter><parameter name="RES">6</parameter><parameter name="RGN">-1</parameter><parameter name="STR">0</parameter><parameter name="TCL">MakeCompatibleScalar (0, {WSV=1.000000, ARV=0});</parameter><parameter name="TDL">37</parameter><parameter name="RPO">0</parameter></Acquisition_Parameters_Rf><FT_-_Parameters_Rf><parameter name="APF">B3</parameter><parameter name="HFQ">500</parameter><parameter name="LFQ">4000</parameter><parameter name="NLI">0</parameter><parameter name="PHR">24</parameter><parameter name="PHZ">ML</parameter><parameter name="SPZ">NO</parameter><parameter name="ZFF">1</parameter></FT_-_Parameters_Rf><Optic_Parameters_><parameter name="APR">0</parameter><parameter name="APT">Open</parameter><parameter name="BMS">KBr</parameter><parameter name="CHN">Module port</parameter><parameter name="DTC">RT-DLaTGS_IR-Biotyper [Microplate reader]</parameter><parameter name="HPF">0</parameter><parameter name="LPF">10.0</parameter><parameter name="LPV">4000</parameter><parameter name="PGN">0</parameter><parameter name="RDX">0</parameter><parameter name="SRC">MIR</parameter><parameter name="VEL">10.0</parameter><parameter name="SON">Off</parameter></Optic_Parameters_><FT_-_Parameters_><parameter name="APF">B3</parameter><parameter name="HFQ">500</parameter><parameter name="LFQ">4000</parameter><parameter name="NLI">0</parameter><parameter name="PHR">24</parameter><parameter name="PHZ">ML</parameter><parameter name="SPZ">NO</parameter><parameter name="ZFF">1</parameter></FT_-_Parameters_><Acquisition_Parameters_><parameter name="ADT">1</parameter><parameter name="AQM">DD</parameter><parameter name="CFE">0</parameter><parameter name="COR">0</parameter><parameter name="DEL">0</parameter><parameter name="DLY">0</parameter><parameter name="HFW">8000</parameter><parameter name="LFW">0</parameter><parameter name="NSS">32</parameter><parameter name="PLF">AB</parameter><parameter name="RES">6</parameter><parameter name="SOT">0</parameter><parameter name="TCL">MakeCompatibleScalar (0, {WSV=1.000000, ARV=0});</parameter><parameter name="TDL">37</parameter><parameter name="SPO">0</parameter><parameter name="SGN">-1</parameter></Acquisition_Parameters_><Instrument_Parameters_Rf><parameter name="HFL">15800.168544</parameter><parameter name="LFL">0</parameter><parameter name="LWN">15800.168544</parameter><parameter name="ABP">32197</parameter><parameter name="SSP">1</parameter><parameter name="ARG">2</parameter><parameter name="ASG">2</parameter><parameter name="ASS">32</parameter><parameter name="GFW">16</parameter><parameter name="GBW">16</parameter><parameter name="BFW">0</parameter><parameter name="BBW">0</parameter><parameter name="PKA">7260</parameter><parameter name="PKL">4996</parameter><parameter name="PRA">7445</parameter><parameter name="PRL">5001</parameter><parameter name="P2A">1</parameter><parameter name="P2L">1</parameter><parameter name="P2R">1</parameter><parameter name="P2K">1</parameter><parameter name="DAQ">0</parameter><parameter name="AG2">1</parameter><parameter name="SSM">1</parameter><parameter name="RSN">25723</parameter><parameter name="CRR">0</parameter><parameter name="SRT">1654005200.019</parameter><parameter name="DUR">19.6379852294922</parameter><parameter name="TSC">29</parameter><parameter name="MVD">0.200672283768654</parameter><parameter name="AN1">0.22579743639933</parameter><parameter name="AN2">0</parameter><parameter name="VSN">2.485 Apr  4 2017</parameter><parameter name="SRN">0085</parameter><parameter name="CAM">0</parameter><parameter name="INS">IR-Biotyper</parameter><parameter name="FOC">69</parameter><parameter name="RDY">1</parameter><parameter name="ARS">32</parameter></Instrument_Parameters_Rf><Sample_Parameters_><parameter name="BLD"></parameter><parameter name="CNM">Admin</parameter><parameter name="CPY"></parameter><parameter name="DPM"></parameter><parameter name="EXP">IRBT_v3_32Scans.XPM</parameter><parameter name="LCT"></parameter><parameter name="SFM">Microplate, HTS-XT</parameter><parameter name="SNM">220531-1301_AJL34M (D_1)_A6_b8d81951-b61b-4e94-b94d-1c54484f3024.0</parameter><parameter name="XPP">C:\Users\Public\Documents\Bruker\OPUS_8.2.28\XPM</parameter><parameter name="IST">OK</parameter><parameter name="CPG">1252</parameter><parameter name="UID">d3a906ac-8e58-46db-b5d6-4aaa5119c18c</parameter></Sample_Parameters_><Instrument_Parameters_><parameter name="HFL">15800.168544</parameter><parameter name="LFL">0</parameter><parameter name="LWN">15800.168544</parameter><parameter name="ABP">32197</parameter><parameter name="SSP">1</parameter><parameter name="ASG">4</parameter><parameter name="ARG">2</parameter><parameter name="ASS">32</parameter><parameter name="GFW">16</parameter><parameter name="GBW">16</parameter><parameter name="BFW">0</parameter><parameter name="BBW">0</parameter><parameter name="PKA">5498</parameter><parameter name="PKL">4988</parameter><parameter name="PRA">5676</parameter><parameter name="PRL">4993</parameter><parameter name="P2A">1</parameter><parameter name="P2L">1</parameter><parameter name="P2R">1</parameter><parameter name="P2K">1</parameter><parameter name="DAQ">0</parameter><parameter name="AG2">1</parameter><parameter name="SSM">1</parameter><parameter name="RSN">13487</parameter><parameter name="CRR">0</parameter><parameter name="SRT">1654005225.872</parameter><parameter name="DUR">19.6379852294922</parameter><parameter name="TSC">29</parameter><parameter name="MVD">0.312303453683853</parameter><parameter name="AN1">0.225804121141931</parameter><parameter name="AN2">0</parameter><parameter name="VSN">2.485 Apr  4 2017</parameter><parameter name="SRN">0085</parameter><parameter name="CAM">0</parameter><parameter name="INS">IR-Biotyper</parameter><parameter name="FOC">69</parameter><parameter name="RDY">1</parameter></Instrument_Parameters_><History/></OPUSDataFile>
