<?xml version="1.0" encoding="UTF-8" ?>
<OPUSDataFile><AB><Ydata ylabel="Absorbance Units"><values byteorder="INTEL" format="FLOAT32" numvalues="3497"> -0.08055602 -0.08057047 -0.08058567 -0.08060248 -0.08060802 -0.08060161 -0.08057169 -0.08051928 -0.08045335 -0.08037744
 -0.08031761 -0.08027431 -0.08026498 -0.08028322 -0.08032339 -0.08037818 -0.08043196 -0.08048456 -0.08052876 -0.08056966
 -0.08060919 -0.08065053 -0.08069632 -0.08074666 -0.08080269 -0.08086158 -0.08092394 -0.08098138 -0.08103314 -0.08106953
 -0.08108907 -0.08109238 -0.08107943 -0.08106259 -0.08104239 -0.08102915 -0.08102228 -0.08102294 -0.08103109 -0.0810471
 -0.08107166 -0.08110803 -0.08115324 -0.08120574 -0.08125782 -0.08129974 -0.08132774 -0.08133326 -0.08132383 -0.08130009
 -0.08127289 -0.08124755 -0.08122537 -0.08120862 -0.08119082 -0.08117071 -0.08114738 -0.08111998 -0.08109827 -0.08108271
 -0.0810834 -0.08110005 -0.08113167 -0.08117647 -0.08122318 -0.08127097 -0.08131025 -0.08134251 -0.0813665 -0.08138403
 -0.08139771 -0.08140828 -0.08141743 -0.08142586 -0.08143494 -0.08144405 -0.08145436 -0.08146072 -0.08146191 -0.08145216
 -0.08142828 -0.08139538 -0.08135191 -0.08131759 -0.08129364 -0.08130262 -0.08134588 -0.08143437 -0.08156709 -0.08173449
 -0.0819314 -0.08212353 -0.08230309 -0.08242104 -0.08247912 -0.08245139 -0.08235722 -0.08221509 -0.08204655 -0.08188454
 -0.08173922 -0.08163068 -0.08155717 -0.08152505 -0.08152225 -0.08154641 -0.08158495 -0.08163334 -0.08168926 -0.08175111
 -0.08182365 -0.08190783 -0.08199935 -0.08209809 -0.08218535 -0.08226045 -0.08230866 -0.08233271 -0.08234115 -0.08233912
 -0.08235104 -0.08237772 -0.08243647 -0.08251809 -0.08261736 -0.08271942 -0.08280396 -0.08286408 -0.08288597 -0.08287301
 -0.08282115 -0.08274302 -0.082638 -0.08253542 -0.0824395 -0.08238785 -0.08238792 -0.08246041 -0.08261143 -0.0828123
 -0.0830624 -0.08324617 -0.08335926 -0.08330567 -0.08310523 -0.08283989 -0.08252728 -0.08228119 -0.08209401 -0.08200389
 -0.0819966 -0.08206884 -0.08219884 -0.08236475 -0.08253574 -0.0826795 -0.08277768 -0.08280433 -0.08277939 -0.08270048
 -0.08260487 -0.08250386 -0.08241006 -0.0823287 -0.08225281 -0.08218136 -0.0821189 -0.08206545 -0.08204093 -0.08204591
 -0.0820934 -0.08218028 -0.08229444 -0.08242932 -0.08255304 -0.0826629 -0.08273422 -0.08277217 -0.08277395 -0.08274639
 -0.08269604 -0.08262928 -0.0825514 -0.08247311 -0.08239986 -0.0823458 -0.08231737 -0.08232424 -0.08237227 -0.08245503
 -0.08257531 -0.0827046 -0.08284175 -0.08294589 -0.08301447 -0.08301899 -0.08296015 -0.08284555 -0.08267972 -0.08249602
 -0.0822976 -0.0821138 -0.08194552 -0.08180945 -0.08170553 -0.08164288 -0.08161577 -0.08162408 -0.08165301 -0.08169103
 -0.08172522 -0.08174163 -0.08174674 -0.08173738 -0.08173217 -0.08173684 -0.08175661 -0.08179495 -0.08184013 -0.08189108
 -0.08194111 -0.08198963 -0.08204024 -0.08209287 -0.0821475 -0.08220269 -0.08224814 -0.08228357 -0.08230095 -0.08230431
 -0.08229978 -0.08229138 -0.08229057 -0.0822951 -0.08230693 -0.08232259 -0.08233556 -0.08235765 -0.08238949 -0.08245686
 -0.08257376 -0.08274159 -0.08297331 -0.08321167 -0.08345248 -0.08362287 -0.08371077 -0.08371658 -0.08363909 -0.0835159
 -0.08334743 -0.08313847 -0.08289118 -0.08261902 -0.08233229 -0.08208032 -0.08186883 -0.08174232 -0.08168945 -0.08171793
 -0.08179518 -0.08188312 -0.0819609 -0.0819881 -0.08198868 -0.08196338 -0.08194232 -0.08194255 -0.08196253 -0.08200987
 -0.08205316 -0.0820888 -0.08208665 -0.08204076 -0.08195889 -0.08184057 -0.08172562 -0.08161598 -0.08154865 -0.08152241
 -0.08155002 -0.08162272 -0.08171623 -0.08181445 -0.08185835 -0.08184928 -0.08175342 -0.08160283 -0.08142538 -0.08124278
 -0.08108876 -0.08095565 -0.08085093 -0.08075447 -0.08065886 -0.08055376 -0.08043245 -0.08030341 -0.08016656 -0.08003409
 -0.07990841 -0.07978575 -0.07966638 -0.07952859 -0.07937193 -0.07918651 -0.07897709 -0.07877477 -0.07858237 -0.07843074
 -0.07831263 -0.07822291 -0.07815789 -0.07810675 -0.07807314 -0.07806011 -0.07806287 -0.07808475 -0.07810017 -0.07809736
 -0.07804877 -0.07793767 -0.07776013 -0.07751054 -0.07719678 -0.07681774 -0.07639141 -0.07591798 -0.07543064 -0.07493152
 -0.07444669 -0.07397704 -0.07353625 -0.07312572 -0.0727632 -0.07244859 -0.07219516 -0.07199323 -0.07182541 -0.07167877
 -0.07151836 -0.07134528 -0.07114645 -0.07092731 -0.07069405 -0.07043209 -0.07013515 -0.06978913 -0.06937913 -0.06893034
 -0.06844499 -0.0679539 -0.06746466 -0.06698562 -0.06651891 -0.066064 -0.06562091 -0.06519236 -0.06477878 -0.06438962
 -0.064025 -0.06369385 -0.06338935 -0.06309283 -0.06278662 -0.06240857 -0.06195809 -0.06139073 -0.06075211 -0.06008359
 -0.05942082 -0.05881863 -0.05826709 -0.05777779 -0.05732796 -0.05691109 -0.05650885 -0.05611529 -0.05571693 -0.05531022
 -0.05488883 -0.05445184 -0.05399404 -0.05351539 -0.05299849 -0.05244255 -0.05183102 -0.05116716 -0.05046671 -0.04973705
 -0.04901852 -0.04831465 -0.04765639 -0.04704189 -0.0464839 -0.0459742 -0.04551075 -0.04507584 -0.04465345 -0.04422936
 -0.0437873 -0.04333112 -0.0428603 -0.04237351 -0.04187552 -0.04133723 -0.04075298 -0.04010586 -0.03938778 -0.03864924
 -0.03789231 -0.03718787 -0.03653733 -0.03595265 -0.03542881 -0.03493164 -0.03445782 -0.03397402 -0.03348301 -0.03297379
 -0.03245421 -0.03193394 -0.0314192 -0.03092515 -0.03044593 -0.02998626 -0.02952427 -0.02904898 -0.02853974 -0.02798039
 -0.02737907 -0.02673084 -0.02606651 -0.02539088 -0.02472819 -0.02408277 -0.02346062 -0.02286294 -0.02227851 -0.02170655
 -0.02112987 -0.02054843 -0.01995398 -0.01934781 -0.01873123 -0.01810533 -0.01747295 -0.01683673 -0.0162016 -0.01557339
 -0.01496214 -0.01437092 -0.01380798 -0.013268 -0.01275133 -0.01224836 -0.01175551 -0.01126434 -0.01077136 -0.01027318
 -0.009767896 -0.009259169 -0.008747258 -0.008235357 -0.007724018 -0.007206087 -0.006681141 -0.006139448 -0.005582101 -0.005013386
 -0.004435934 -0.003864925 -0.003299621 -0.002746908 -0.002202049 -0.001658049 -0.001113876 -0.0005625137 -1.23735E-05 0.0005325519
 0.001060893 0.001561456 0.00203714 0.002481755 0.002919553 0.003355314 0.003813155 0.004300904 0.004817924 0.005366577
 0.005928089 0.00650129 0.007071564 0.007638368 0.00819566 0.008742999 0.009274179 0.009788197 0.01027675 0.01073995
 0.01117246 0.01157821 0.01196038 0.01232771 0.01269299 0.01306368 0.01345309 0.01385921 0.01428564 0.0147254
 0.01517602 0.01563355 0.01609765 0.0165596 0.01701937 0.01745869 0.01787429 0.01826248 0.01862156 0.01898159
 0.01934429 0.01974699 0.02018788 0.02066968 0.02118403 0.02169418 0.02219305 0.02263782 0.02303365 0.02336591
 0.02365424 0.02391871 0.02417751 0.02445952 0.02476085 0.02509128 0.02543003 0.02576904 0.0260973 0.02640769
 0.02670566 0.02699067 0.02727114 0.02754767 0.02782999 0.02811868 0.02842553 0.02875083 0.02909531 0.02945796
 0.02982859 0.03020862 0.03059908 0.03100275 0.03143165 0.03187978 0.03234365 0.03280965 0.03325623 0.03367723
 0.03405699 0.03440033 0.03470619 0.03497851 0.03521863 0.03542978 0.03561077 0.03577555 0.0359248 0.03608123
 0.03624809 0.0364389 0.03665546 0.03689403 0.0371544 0.03742866 0.03771745 0.0380239 0.03834873 0.03869983
 0.03907163 0.03945451 0.03983589 0.04018426 0.0404945 0.04073959 0.04093836 0.04109392 0.04124089 0.04140579
 0.04160325 0.04185474 0.04213111 0.04243174 0.04271136 0.04295702 0.04316026 0.04331439 0.04345709 0.04359082
 0.04374548 0.04392145 0.04409571 0.04426484 0.0443842 0.04445814 0.04448098 0.04446641 0.04445349 0.04445157
 0.04450163 0.04459854 0.04475562 0.04495575 0.04518837 0.04543504 0.04567761 0.04591378 0.04613227 0.04635859
 0.04659674 0.04687585 0.04720846 0.04757752 0.04798843 0.04836714 0.04870886 0.04894248 0.04906567 0.04907747
 0.04898449 0.04885041 0.04868037 0.04853461 0.04840917 0.04832102 0.04826932 0.04825715 0.04829319 0.04839548
 0.04855821 0.04879212 0.04905849 0.04933624 0.04958899 0.04978514 0.04994193 0.05005082 0.05016793 0.05030572
 0.05049263 0.05073879 0.05101582 0.05132363 0.05161 0.05187246 0.05207541 0.05221988 0.05230008 0.05232206
 0.0523098 0.0522741 0.05226034 0.05227721 0.05236843 0.05252759 0.05277029 0.05306957 0.05340754 0.05375151
 0.05407086 0.05435452 0.05458414 0.05477976 0.05494123 0.05509958 0.05526075 0.05544952 0.05566888 0.0559444
 0.05627791 0.05669864 0.05720765 0.05780741 0.058492 0.05920608 0.0599367 0.06058786 0.06115349 0.0615564
 0.06181554 0.06192336 0.06192707 0.06188818 0.06185593 0.06191057 0.06205717 0.06233871 0.062695 0.06311761
 0.06351896 0.06386719 0.06411162 0.06422874 0.06423557 0.06412666 0.06396399 0.06375171 0.06354635 0.06335053
 0.06318404 0.0630457 0.06292935 0.06283511 0.06276004 0.06270712 0.06268606 0.06269577 0.0627438 0.06281464
 0.0628958 0.06295317 0.06295116 0.06285242 0.06261459 0.06223368 0.06168514 0.0610214 0.06024589 0.05944135
 0.05862568 0.05785993 0.0571574 0.05653432 0.0559948 0.05551814 0.05510302 0.05470242 0.0543139 0.05389108
 0.05343933 0.05295912 0.05246476 0.05200687 0.05158665 0.05124057 0.05094029 0.05066177 0.05037225 0.05002041
 0.04961152 0.04912177 0.04860297 0.04806892 0.04758146 0.04716809 0.04685017 0.04664685 0.046508 0.04643555
 0.04633074 0.04618504 0.04592838 0.04555765 0.0450918 0.04453763 0.04397714 0.04341486 0.04291963 0.04248549
 0.04213094 0.04184377 0.04160814 0.04140979 0.04122118 0.04103051 0.04081245 0.04056945 0.04029103 0.03999769
 0.03969653 0.03940489 0.03913371 0.03887633 0.0386355 0.03838939 0.03813467 0.03785981 0.03756271 0.03725049
 0.0369235 0.03659479 0.03626469 0.03594053 0.03562229 0.03531328 0.03501434 0.03473024 0.03446124 0.03421174
 0.03397764 0.03375627 0.03353912 0.03331625 0.03308126 0.03282435 0.03254928 0.03225331 0.03194914 0.03164035
 0.03133707 0.03104378 0.03075722 0.03047868 0.03019475 0.02990445 0.02959632 0.02926977 0.02892374 0.02855907
 0.02818477 0.02780265 0.02742726 0.0270597 0.02671211 0.02638287 0.0260748 0.02578459 0.02550776 0.02524352
 0.02498847 0.02474524 0.02451419 0.0242994 0.02410188 0.02392905 0.02378413 0.02367075 0.02359492 0.02353198
 0.02348366 0.02339156 0.02325061 0.02301529 0.02268319 0.02227411 0.02179379 0.02131775 0.02085125 0.0204656
 0.02015505 0.01994251 0.01980881 0.01972603 0.01966758 0.01957808 0.01944403 0.01922054 0.01893237 0.0185752
 0.0182025 0.01784316 0.01752461 0.01727173 0.01705468 0.01687266 0.01668718 0.01648692 0.01628997 0.01609404
 0.01596355 0.01590185 0.01594249 0.01608077 0.01626892 0.01649447 0.01665937 0.01675984 0.01672394 0.01657107
 0.0163047 0.0159588 0.01559145 0.01521967 0.01489176 0.01459052 0.01431881 0.01405645 0.01378555 0.01352418
 0.01327085 0.0130611 0.01290881 0.01280571 0.01275732 0.01271206 0.01266452 0.01259188 0.01249264 0.01240596
 0.0123344 0.01232435 0.0123711 0.01247201 0.0126172 0.01276974 0.01292526 0.01305473 0.01315967 0.01323046
 0.01326797 0.01327112 0.01323603 0.0131618 0.01303731 0.0128573 0.01261057 0.01228683 0.01190224 0.01145032
 0.01099394 0.01053864 0.0101589 0.009865117 0.009669842 0.00957444 0.009504154 0.009453467 0.009326651 0.009128073
 0.008830229 0.008452345 0.008048412 0.007633718 0.007276341 0.006969048 0.006734346 0.006549426 0.006396975 0.006258863
 0.006113844 0.005956752 0.005777699 0.005582267 0.005367709 0.005151617 0.004936293 0.004743783 0.004580283 0.004442379
 0.004332941 0.004209145 0.004068712 0.003871363 0.003618847 0.003326477 0.003001553 0.002700032 0.002419789 0.002187576
 0.001986141 0.001785602 0.001576195 0.001320571 0.00103759 0.0007306447 0.0004295143 0.0001632296 -6.306726E-05 -0.0002339227
 -0.000369845 -0.0004763351 -0.0005642582 -0.0006407546 -0.0006916614 -0.0007156088 -0.0007005161 -0.0006428884 -0.0005642996 -0.000465598
 -0.000398158 -0.0003642798 -0.0004087648 -0.0005279834 -0.0007253456 -0.0009890677 -0.00127932 -0.001583784 -0.001851517 -0.002079589
 -0.002238617 -0.002335221 -0.002365422 -0.00233737 -0.002256536 -0.002128084 -0.001955684 -0.001744317 -0.001495225 -0.001217513
 -0.000912498 -0.0005930347 -0.0002617581 7.457685E-05 0.0004133132 0.0007726965 0.001153368 0.001603285 0.002124803 0.002763623
 0.0035157 0.004381689 0.005348988 0.006371516 0.007438891 0.008500237 0.009557533 0.01058946 0.01160652 0.01261297
 0.01361729 0.01462802 0.0156494 0.01668552 0.01774012 0.01881611 0.01991311 0.02103494 0.02216263 0.02329773
 0.02439511 0.02545216 0.02641216 0.02727154 0.02799122 0.02857091 0.02900202 0.02928636 0.02943055 0.02943668
 0.02931137 0.02906542 0.02871967 0.02830596 0.02788085 0.02748759 0.0272014 0.02704367 0.02706406 0.02724361
 0.0275894 0.02806456 0.02865589 0.02934044 0.03010958 0.03095278 0.0318685 0.03284061 0.03386826 0.03492834
 0.03601953 0.0371169 0.03821858 0.03929284 0.04033723 0.04131843 0.04223777 0.04308104 0.04385439 0.04456813
 0.0452223 0.0458292 0.04636624 0.04682424 0.04714424 0.04729113 0.04716748 0.04671702 0.04584533 0.04449029
 0.04265338 0.04029544 0.03758325 0.03451829 0.03138358 0.02820492 0.02523367 0.02248795 0.02006706 0.01796802
 0.01614232 0.01457883 0.01317976 0.01194167 0.01080029 0.009757284 0.008787696 0.007886856 0.007036933 0.006230009
 0.00544679 0.004690919 0.003955381 0.003257315 0.002604209 0.002010417 0.001484744 0.001028876 0.0006455574 0.0003303592
 8.282215E-05 -0.0001002417 -0.0002197259 -0.0002717766 -0.0002563671 -0.0001597264 1.809249E-05 0.00028116 0.0006222625 0.0009984913
 0.001393272 0.001717121 0.001961002 0.002048064 0.001998159 0.00180165 0.001506093 0.001161105 0.0008176625 0.0005357476
 0.0003450765 0.0002829425 0.0003475322 0.0005495074 0.0008680371 0.001298795 0.001829528 0.0024564 0.003182665 0.00401214
 0.004908881 0.00587363 0.006744511 0.007506006 0.007870859 0.007825566 0.007117595 0.005782537 0.00380149 0.001274203
 -0.001562808 -0.004600838 -0.007530292 -0.01030983 -0.01274901 -0.01489304 -0.01670782 -0.01827532 -0.01963481 -0.02084472
 -0.02193996 -0.02294191 -0.02386319 -0.02470943 -0.02548279 -0.02618932 -0.02682957 -0.02741089 -0.02793372 -0.02840668
 -0.02883046 -0.02921716 -0.02956834 -0.02990071 -0.03021585 -0.03053036 -0.03084247 -0.03115761 -0.03146939 -0.03176826
 -0.03205052 -0.03230429 -0.03253822 -0.03275295 -0.03296538 -0.0331871 -0.03342448 -0.03368723 -0.03395816 -0.03423714
 -0.03449545 -0.03472688 -0.03491839 -0.03506557 -0.0351873 -0.03528412 -0.03539127 -0.03550977 -0.03565726 -0.03583091
 -0.03601751 -0.0362146 -0.03640277 -0.03658675 -0.03676869 -0.03695548 -0.03716367 -0.03738956 -0.03763847 -0.03789563
 -0.03815015 -0.03838996 -0.03860328 -0.03878895 -0.03894256 -0.03907049 -0.03917184 -0.03926117 -0.03933896 -0.03943026
 -0.03953795 -0.03968078 -0.03986078 -0.04006736 -0.04029909 -0.0405251 -0.04074491 -0.0409399 -0.04111328 -0.04126911
 -0.04140943 -0.04154245 -0.04166706 -0.0417839 -0.04189441 -0.04199978 -0.04210411 -0.04221325 -0.04232411 -0.0424389
 -0.04254553 -0.04263851 -0.04271319 -0.04276359 -0.04280676 -0.04284312 -0.04289892 -0.04297819 -0.04308894 -0.04323264
 -0.04338997 -0.04355968 -0.04371549 -0.04385802 -0.04397897 -0.04408216 -0.04417948 -0.04427399 -0.04438165 -0.0445
 -0.04463407 -0.04477464 -0.04491295 -0.045038 -0.04513495 -0.04520339 -0.04523387 -0.04524666 -0.04524464 -0.04525815
 -0.04529718 -0.04537792 -0.04550794 -0.04567536 -0.0458813 -0.04609708 -0.04632088 -0.0465286 -0.04671962 -0.04688714
 -0.04703245 -0.04716217 -0.04727777 -0.04738918 -0.04749667 -0.0476061 -0.04771692 -0.04783095 -0.0479471 -0.04806488
 -0.0481826 -0.04829826 -0.04841166 -0.04852131 -0.04863023 -0.04873938 -0.04885105 -0.04896714 -0.04908353 -0.04920029
 -0.04931004 -0.04941146 -0.04950399 -0.04958726 -0.04966962 -0.04975134 -0.04983737 -0.04992633 -0.05000937 -0.05008439
 -0.05013587 -0.05016625 -0.05017203 -0.05016215 -0.05015142 -0.05014862 -0.05017325 -0.05022522 -0.05031348 -0.05042845
 -0.05056796 -0.0507194 -0.05087728 -0.05103138 -0.05117742 -0.05131043 -0.0514279 -0.05153329 -0.05162612 -0.05171577
 -0.05180291 -0.05189372 -0.05198827 -0.05208471 -0.05218268 -0.05227821 -0.05237164 -0.05246258 -0.05255142 -0.05263926
 -0.05272581 -0.05281073 -0.05289444 -0.05297676 -0.05305993 -0.05314589 -0.05323657 -0.05333488 -0.05343773 -0.05354584
 -0.0536507 -0.05375002 -0.05383719 -0.05390932 -0.05397053 -0.0540202 -0.0540705 -0.0541223 -0.05418397 -0.05425567
 -0.05433577 -0.05442366 -0.05451347 -0.05460511 -0.05469513 -0.054784 -0.05487132 -0.05495746 -0.05504313 -0.0551281
 -0.05521276 -0.05529564 -0.05537578 -0.05545105 -0.05551902 -0.05558121 -0.05563634 -0.05569169 -0.05574871 -0.05581518
 -0.05589368 -0.055984 -0.05608716 -0.05619465 -0.05630596 -0.05641309 -0.05651584 -0.05661346 -0.05670652 -0.05679972
 -0.05689301 -0.05698916 -0.05708658 -0.05718233 -0.05727432 -0.0573566 -0.05742891 -0.05748747 -0.05753547 -0.05757372
 -0.05760798 -0.05764187 -0.05768076 -0.05772819 -0.05778611 -0.05785651 -0.05793654 -0.05802657 -0.05812003 -0.05821631
 -0.05830893 -0.05839728 -0.05847884 -0.05855356 -0.05862288 -0.05868693 -0.05874752 -0.05880463 -0.0588589 -0.05891074
 -0.05896149 -0.059012 -0.0590649 -0.05911999 -0.05917833 -0.05923887 -0.05930049 -0.05936386 -0.0594285 -0.0594972
 -0.05957169 -0.05965159 -0.05973824 -0.05982536 -0.05991212 -0.05999216 -0.06006395 -0.0601295 -0.06018859 -0.0602493
 -0.06031191 -0.06037999 -0.06045286 -0.0605255 -0.06059738 -0.06066271 -0.06072263 -0.06077761 -0.06082894 -0.06088021
 -0.06093014 -0.06097866 -0.06102365 -0.06106196 -0.06109548 -0.06112335 -0.06115173 -0.06118322 -0.06122235 -0.06127216
 -0.06132984 -0.06139626 -0.06146244 -0.06152743 -0.06158352 -0.0616298 -0.06166589 -0.06169192 -0.0617151 -0.06173592
 -0.06176219 -0.06179376 -0.06183426 -0.06188281 -0.0619387 -0.06200108 -0.06206796 -0.06213851 -0.06221078 -0.06228425
 -0.0623574 -0.06243096 -0.06250469 -0.06258026 -0.06265877 -0.06273974 -0.06282407 -0.06290697 -0.0629878 -0.06306146
 -0.06312672 -0.06318463 -0.06323492 -0.06328499 -0.06333519 -0.06339133 -0.06345305 -0.06351929 -0.06358927 -0.0636583
 -0.06372643 -0.06379109 -0.06385321 -0.06391343 -0.06397258 -0.06403235 -0.06409273 -0.06415477 -0.06421699 -0.06427902
 -0.0643383 -0.06439324 -0.06444333 -0.0644872 -0.06452911 -0.06456935 -0.06461379 -0.06466354 -0.06472018 -0.06478415
 -0.06485126 -0.06492129 -0.06498975 -0.06505691 -0.06512406 -0.06519178 -0.06526437 -0.06534066 -0.0654199 -0.0654991
 -0.06557103 -0.06563519 -0.06568652 -0.065729 -0.06576465 -0.06579724 -0.06583066 -0.06586479 -0.06590044 -0.06593727
 -0.06597482 -0.0660152 -0.06605895 -0.0661066 -0.06615853 -0.06621259 -0.06626849 -0.06632726 -0.06638898 -0.06645729
 -0.06653177 -0.06661021 -0.06669093 -0.06676371 -0.06682792 -0.06687512 -0.06690808 -0.06692787 -0.06693935 -0.06695025
 -0.06696349 -0.06698556 -0.06701555 -0.06705517 -0.06710165 -0.06715396 -0.06721036 -0.06727033 -0.06733174 -0.06739464
 -0.06745391 -0.06750896 -0.06755513 -0.06759169 -0.06762155 -0.06764493 -0.06767022 -0.06769744 -0.06773028 -0.06776728
 -0.06780258 -0.06783512 -0.06785736 -0.06787151 -0.06787775 -0.06788079 -0.06788836 -0.06790209 -0.06792796 -0.06796152
 -0.06800199 -0.06804351 -0.06808218 -0.06811764 -0.06814845 -0.06817765 -0.06820618 -0.06823329 -0.06825931 -0.06828027
 -0.06829573 -0.06830517 -0.06830863 -0.06831144 -0.06831416 -0.06832459 -0.06834321 -0.06837674 -0.06842519 -0.06849228
 -0.06857754 -0.06868151 -0.06880421 -0.06894554 -0.0691066 -0.06928825 -0.06949207 -0.06971871 -0.06997178 -0.07025077
 -0.07056768 -0.070924 -0.07133964 -0.07181934 -0.07237694 -0.07301727 -0.07373037 -0.07451776 -0.07533869 -0.07619058
 -0.07699642 -0.07774918 -0.07834508 -0.07877991 -0.07897118 -0.07893099 -0.07864885 -0.07815383 -0.07749586 -0.07671978
 -0.07590982 -0.07511226 -0.07441206 -0.07382038 -0.07337569 -0.07306115 -0.07287762 -0.07281011 -0.07285445 -0.07299795
 -0.07324354 -0.07354557 -0.07390486 -0.07422567 -0.07449916 -0.07466291 -0.07471398 -0.07468793 -0.07458959 -0.07448776
 -0.07438134 -0.07430219 -0.07423978 -0.07417542 -0.07410091 -0.07398336 -0.0738337 -0.07365136 -0.07345688 -0.07327676
 -0.07311088 -0.07297339 -0.07283992 -0.07270129 -0.07254052 -0.0723451 -0.07212766 -0.07188606 -0.07164907 -0.07142034
 -0.07122289 -0.07105972 -0.07093623 -0.0708527 -0.07079375 -0.07075777 -0.07072055 -0.07068224 -0.07063043 -0.07056841
 -0.07050088 -0.07043054 -0.07036644 -0.07030799 -0.07025839 -0.0702159 -0.07017912 -0.07014875 -0.0701244 -0.07010853
 -0.07010319 -0.07010682 -0.07012093 -0.07013644 -0.07015204 -0.07015769 -0.07015075 -0.07013264 -0.07010257 -0.07007374
 -0.07004683 -0.0700333 -0.07003279 -0.07004415 -0.07006607 -0.07009015 -0.07011632 -0.07013942 -0.07016119 -0.07018316
 -0.07020655 -0.07023481 -0.07026614 -0.07030059 -0.07033413 -0.07036336 -0.07038662 -0.07040085 -0.07041078 -0.07041681
 -0.07042577 -0.07044009 -0.07046012 -0.07048706 -0.07051348 -0.07053878 -0.07055734 -0.07056883 -0.07057628 -0.07058014
 -0.07058724 -0.07059742 -0.07061356 -0.07063458 -0.07065835 -0.07068384 -0.07070782 -0.07072924 -0.07074502 -0.07075453
 -0.07075495 -0.070749 -0.0707364 -0.07072438 -0.07071654 -0.07071836 -0.070734 -0.07075996 -0.07079739 -0.07083551
 -0.07087286 -0.07090108 -0.07091893 -0.0709256 -0.07092099 -0.07091044 -0.07089441 -0.07088029 -0.07086825 -0.07086354
 -0.07086536 -0.07087386 -0.07088783 -0.07090452 -0.07092317 -0.07094153 -0.07095883 -0.07097363 -0.07098469 -0.07099008
 -0.07099091 -0.07098635 -0.07098113 -0.0709769 -0.07097666 -0.07098247 -0.07099004 -0.07099936 -0.07100368 -0.07100195
 -0.07099474 -0.07098198 -0.07097292 -0.07096798 -0.07097563 -0.07099504 -0.07102582 -0.07106604 -0.07110861 -0.07115237
 -0.07119071 -0.07122421 -0.0712509 -0.07127181 -0.07128758 -0.07129826 -0.07130419 -0.07130499 -0.07129998 -0.07129105
 -0.07127777 -0.07126619 -0.07125749 -0.07125752 -0.07126808 -0.07128744 -0.07131618 -0.07134409 -0.07137062 -0.07138598
 -0.07139028 -0.07138273 -0.07136458 -0.07134286 -0.07131886 -0.07130103 -0.07128973 -0.07129051 -0.071302 -0.07132506
 -0.07135638 -0.0713928 -0.07143095 -0.07146695 -0.07149951 -0.07152688 -0.07154882 -0.07156484 -0.07157513 -0.07157921
 -0.07157966 -0.0715763 -0.07157509 -0.07157665 -0.07158488 -0.07160007 -0.07161964 -0.07164328 -0.07166571 -0.07168711
 -0.07170577 -0.07172251 -0.07173969 -0.07175745 -0.07177775 -0.07179945 -0.07182181 -0.07184312 -0.07186113 -0.07187461
 -0.07188173 -0.07188231 -0.07187546 -0.0718624 -0.07184282 -0.07182033 -0.07179534 -0.07177291 -0.07175392 -0.07174178
 -0.0717371 -0.07173987 -0.07175013 -0.07176528 -0.07178509 -0.07180564 -0.07182668 -0.07184453 -0.07185962 -0.07187138
 -0.07188094 -0.07189099 -0.07190172 -0.07191499 -0.07192951 -0.07194424 -0.07195873 -0.07197169 -0.07198501 -0.07199945
 -0.0720163 -0.07203677 -0.07205921 -0.07208364 -0.07210744 -0.07213012 -0.0721505 -0.07216835 -0.07218362 -0.0721963
 -0.07220677 -0.07221508 -0.07222211 -0.07222784 -0.07223262 -0.07223622 -0.07223762 -0.07223712 -0.07223436 -0.07223123
 -0.07223057 -0.0722346 -0.07224794 -0.07226928 -0.07230053 -0.07233527 -0.07237107 -0.0724007 -0.07242027 -0.07242794
 -0.07242168 -0.07240582 -0.07238034 -0.07235234 -0.07232238 -0.07229767 -0.07227869 -0.07227015 -0.07227201 -0.07228421
 -0.0723063 -0.0723352 -0.07237074 -0.07241092 -0.07245516 -0.07250181 -0.07254848 -0.07259028 -0.07262552 -0.07264914
 -0.07266393 -0.07266985 -0.0726718 -0.07267328 -0.07267491 -0.07267845 -0.07268036 -0.07267972 -0.07267551 -0.07266695
 -0.07265731 -0.0726468 -0.07263857 -0.07263283 -0.07263026 -0.07263085 -0.07263481 -0.0726423 -0.07265478 -0.0726721
 -0.07269496 -0.07272208 -0.07275101 -0.0727796 -0.07280275 -0.07281987 -0.0728273 -0.072828 -0.07282238 -0.07281574
 -0.07281113 -0.0728125 -0.07282278 -0.07284103 -0.07286858 -0.07289848 -0.0729302 -0.072955 -0.07297157 -0.07297738
 -0.07297201 -0.07296241 -0.07294907 -0.07294143 -0.07293913 -0.07294454 -0.07295603 -0.07296826 -0.07298014 -0.07298544
 -0.07298557 -0.07297985 -0.07297082 -0.07296195 -0.0729534 -0.07294717 -0.07294052 -0.07293203 -0.07292087 -0.07290555
 -0.07288947 -0.07287317 -0.0728599 -0.07285071 -0.07284472 -0.07284202 -0.07284085 -0.07284109 -0.07284142 -0.07284167
 -0.07283835 -0.07283131 -0.0728171 -0.07279681 -0.0727728 -0.07274656 -0.07272394 -0.07270394 -0.072688 -0.07267317
 -0.07265577 -0.07263532 -0.07260901 -0.07258088 -0.07255215 -0.07252736 -0.07250927 -0.07249791 -0.07249472 -0.0724944
 -0.07249654 -0.07249475 -0.07248805 -0.07247487 -0.07245494 -0.07243156 -0.07240498 -0.0723796 -0.07235543 -0.07233473
 -0.07231724 -0.07230324 -0.07229231 -0.07228358 -0.07227654 -0.07226992 -0.07226334 -0.07225591 -0.07224713 -0.07223661
 -0.07222279 -0.07220477 -0.07218096 -0.07215005 -0.0721131 -0.07206951 -0.07202375 -0.07197643 -0.07193164 -0.07189012
 -0.07185184 -0.07181688 -0.07178333 -0.07175127 -0.0717223 -0.07169697 -0.07168055 -0.0716725 -0.07167425 -0.07168292
 -0.07169174 -0.07169776 -0.07169167 -0.07167413 -0.07164129 -0.07159747 -0.07154471 -0.07148793 -0.07143071 -0.07137577
 -0.07132526 -0.07127943 -0.07123884 -0.07120261 -0.07117076 -0.07114204 -0.07111654 -0.07109067 -0.07106424 -0.07103168
 -0.07099286 -0.0709461 -0.07089222 -0.07083671 -0.07078022 -0.0707287 -0.07068144 -0.07063927 -0.07060178 -0.07056823
 -0.0705395 -0.07051715 -0.07049994 -0.07048886 -0.07047758 -0.07046304 -0.07043876 -0.07040003 -0.07034834 -0.0702816
 -0.0702103 -0.07013561 -0.07006868 -0.07001153 -0.06996537 -0.0699307 -0.0698979 -0.06986661 -0.06982947 -0.06978777
 -0.06974813 -0.06971236 -0.0696933 -0.0696887 -0.06970101 -0.06972215 -0.06973859 -0.06974275 -0.06971665 -0.0696639
 -0.06957873 -0.06947498 -0.06935881 -0.06924323 -0.06913603 -0.06904132 -0.0689631 -0.06889567 -0.06883918 -0.06878456
 -0.06873051 -0.06867313 -0.06861182 -0.06855247 -0.0684956 -0.06845271 -0.06842342 -0.06841177 -0.06841366 -0.06841406
 -0.06840796 -0.06837086 -0.0683068 -0.06820972 -0.06809107 -0.06796435 -0.06783587 -0.06771668 -0.06760772 -0.06751237
 -0.06743115 -0.06736606 -0.06731291 -0.0672728 -0.0672325 -0.06719021 -0.06713261 -0.06705713 -0.06696329 -0.06685054
 -0.06673023 -0.06660293 -0.06647975 -0.06636027 -0.06624632 -0.06613633 -0.06602368 -0.0659088 -0.06578813 -0.065666
 -0.06554959 -0.06544077 -0.06534746 -0.06526262 -0.06518307 -0.06510112 -0.06500859 -0.06490957 -0.06480286 -0.06469721
 -0.06459637 -0.06449902 -0.06440658 -0.06430964 -0.06420696 -0.06409417 -0.06397059 -0.06384171 -0.06370778 -0.06357464
 -0.06344127 -0.06330203 -0.06315503 -0.06298681 -0.0628002 -0.06259481 -0.06237784 -0.06216478 -0.06195629 -0.06176156
 -0.06157362 -0.0613887 -0.06120247 -0.06100952 -0.06081317 -0.06061333 -0.06041428 -0.06021763 -0.06002449 -0.05983599
 -0.05964884 -0.0594642 -0.0592647 -0.05904945 -0.05879574 -0.05850335 -0.0581796 -0.05782731 -0.05747575 -0.05712366
 -0.05678186 -0.0564443 -0.0560993 -0.05574126 -0.05535308 -0.05493345 -0.05447124 -0.05397367 -0.05344093 -0.05288826
 -0.05232705 -0.05176254 -0.05120499 -0.05063389 -0.05004579 -0.04942035 -0.04874793 -0.04804957 -0.04732529 -0.04660857
 -0.04590274 -0.04520858 -0.04452602 -0.04384712 -0.04317322 -0.04251457 -0.04187088 -0.0412487 -0.04064138 -0.04003165
 -0.03941631 -0.03877679 -0.03812343 -0.03746335 -0.03680417 -0.03616013 -0.03552119 -0.03488595 -0.03424187 -0.0335806
 -0.03290392 -0.03220937 -0.03150744 -0.03080366 -0.0300824 -0.02934808 -0.02852897 -0.0276199 -0.02656232 -0.02535695
 -0.02408724 -0.02276135 -0.02149583 -0.02027718 -0.01910212 -0.01795248 -0.01677025 -0.01555137 -0.01426272 -0.01290001
 -0.01145425 -0.009891669 -0.008188456 -0.006281015 -0.004110729 -0.001669639 0.001099935 0.004027933 0.007095568 0.01006234
 0.01286362 0.01542166 0.01770868 0.01978519 0.02165143 0.02340578 0.02505474 0.0267367 0.02846365 0.03041883
 0.03258379 0.03499635 0.03757037 0.04004249 0.04239847 0.04445288 0.04630498 0.04802366 0.0496783 0.05137474
 0.05311054 0.05491653 0.05677314 0.05867387 0.06062243 0.06262694 0.06465036 0.06669245 0.06868362 0.07060912
 0.07247677 0.07428508 0.0760727 0.07783927 0.07952234 0.08111411 0.08250844 0.08371387 0.08471525 0.08553012
 0.08620943 0.08675206 0.08717982 0.08748647 0.0876594 0.08773093 0.08772086 0.0876795 0.08764845 0.08765475
 0.08772925 0.08785017 0.08802196 0.08819798 0.08836617 0.08851217 0.08862829 0.08874939 0.0888771 0.08905408
 0.08928105 0.0895281 0.08978873 0.08998708 0.09012099 0.09014493 0.09005286 0.08980626 0.08939131 0.08875398
 0.08790291 0.08681592 0.08553896 0.08410906 0.0825648 0.08094212 0.07926842 0.07754749 0.0758656 0.07423854
 0.07278828 0.07155285 0.07055238 0.06980281 0.06922655 0.06881853 0.06851982 0.06832815 0.0682418 0.06826241
 0.06840706 0.06867379 0.06906155 0.06956632 0.07017394 0.07088413 0.07168866 0.0725908 0.07359269 0.07469486
 0.0759015 0.07720321 0.07859792 0.08006702 0.08160184 0.08318704 0.08481369 0.08648387 0.0881959 0.08995837
 0.09177467 0.09362904 0.09552135 0.0974193 0.09932176 0.1012333 0.1031556 0.1051191 0.1071069 0.1090555
 0.1109298 0.1125685 0.1139857 0.1151209 0.1160337 0.1167944 0.1174281 0.1179962 0.1184769 0.1188719
 0.1191649 0.1193472 0.1194143 0.1193678 0.1191822 0.1188493 0.1183658 0.1177213 0.1170007 0.1162118
 0.1153864 0.114525 0.1135584 0.1124836 0.1112451 0.1098484 0.1082922 0.1065845 0.1047585 0.1027994
 0.1007076 0.09842471 0.09584629 0.09297845 0.08971883 0.08631043 0.08290328 0.07965153 0.07672696 0.07396877
 0.07135726 0.06875896 0.06611995 0.06348612 0.06085182 0.05831278 0.05588048 0.05355347 0.05133135 0.04914799
 0.04700292 0.04486729 0.0427487 0.04067447 0.0386477 0.0366965 0.03481086 0.03298407 0.03120243 0.02944173
 0.02769451 0.02594819 0.02418637 0.02240717 0.02055158 0.0185932 0.01647583 0.0141311 0.01173558 0.009287109
 0.007118179 0.005304896 0.003822243 0.002685608 0.001653883 0.0007156538 -0.0002698339 -0.00129776 -0.002359256 -0.003442463
 -0.004474208 -0.005460192 -0.006382465 -0.007249632 -0.008083057 -0.008859805 -0.009560045 -0.01014585 -0.01056079 -0.01080735
 -0.01086242 -0.01076102 -0.01051731 -0.01014846 -0.009668464 -0.00906242 -0.008336631 -0.007435561 -0.006359189 -0.005000824
 -0.003348255 -0.001357845 0.0009710026 0.003400338 0.005907214 0.008137171 0.01010104 0.01167501 0.01289153 0.01379387
 0.01440443 0.01478577 0.0149688 0.01501813 0.0149826 0.01493193 0.01491835 0.01501063 0.01520773 0.01554711
 0.01593517 0.01634556 0.01671677 0.01701949 0.01728242 0.01750369 0.01772987 0.01796583 0.01823026 0.01852422
 0.01883539 0.01916285 0.01949028 0.0198202 0.02015666 0.02050645 0.02089461 0.02132625 0.02182798 0.0223945
 0.02302824 0.02372555 0.02447633 0.02530044 0.02620646 0.02722057 0.02836422 0.02963074 0.03102841 0.03251963
 0.03409471 0.0357395 0.03744589 0.03924846 0.04115064 0.04316892 0.04530396 0.04745777 0.04962054 0.05163884
 0.05351429 0.05517917 0.05664127 0.05789905 0.05894103 0.05974437 0.06028576 0.0605136 0.06042563 0.05999123
 0.05924139 0.05818579 0.05686391 0.0553 0.05351401 0.05151718 0.04932137 0.04692041 0.04438187 0.04170309
 0.03903452 0.03638925 0.03388717 0.03153528 0.02932654 0.02725641 0.02526061 0.02334185 0.02148205 0.01969248
 0.01800778 0.01642599 0.01496608 0.01360565 0.0123193 0.01108258 0.009857594 0.008632488 0.007382999 0.006116183
 0.004824304 0.003535874 0.002256521 0.001020749 -0.0001599704 -0.001275977 -0.002321144 -0.003317442 -0.004266161 -0.005189296
 -0.006088156 -0.00694854 -0.00776746 -0.008499936 -0.009145819 -0.009678487 -0.01010655 -0.01044597 -0.0107058 -0.0109162
 -0.01107937 -0.01121255 -0.01131382 -0.01138653 -0.01143121 -0.01144665 -0.01144212 -0.01141975 -0.01139579 -0.01137636
 -0.01137311 -0.01139074 -0.01143104 -0.01149471 -0.0115834 -0.01169677 -0.01184396 -0.01202547 -0.01225034 -0.01251817
 -0.01282665 -0.01317299 -0.01354089 -0.01392475 -0.01429712 -0.01465141 -0.01495785 -0.01521414 -0.01540174 -0.01552556
 -0.01558265 -0.0155827 -0.01553117 -0.01543928 -0.01531362 -0.01516433 -0.0149959 -0.01481678 -0.0146285 -0.0144431
 -0.01426115 -0.01410318 -0.01397091 -0.01388367 -0.01384269 -0.01385211 -0.01391109 -0.0140089 -0.01414369 -0.01429939
 -0.01447413 -0.01465249 -0.014834 -0.01500878 -0.01518 -0.01534799 -0.01551725 -0.01569411 -0.01587856 -0.01607394
 -0.0162749 -0.01648001 -0.01668292 -0.01688151 -0.01706926 -0.01724477 -0.01740043 -0.01753479 -0.01764317 -0.0177246
 -0.01778095 -0.01781224 -0.0178251 -0.01781999 -0.01780473 -0.01777996 -0.01775393 -0.01772672 -0.017704 -0.01768345
 -0.01766396 -0.01763924 -0.01759944 -0.01753651 -0.01743639 -0.01729668 -0.01710832 -0.01687997 -0.01661205 -0.01631929
 -0.01600681 -0.01568666 -0.01536225 -0.01504369 -0.01473251 -0.01443991 -0.01416743 -0.01391994 -0.01369794 -0.01349228
 -0.01330216 -0.01311293 -0.01292503 -0.01273305 -0.01253997 -0.01235368 -0.01217749 -0.01202402 -0.01189364 -0.01179378
 -0.01172066 -0.01167306 -0.01164662 -0.01163634 -0.01164287 -0.01166401 -0.01170556 -0.01176899 -0.01185977 -0.01198034
 -0.0121299 -0.01230961 -0.01251115 -0.01273415 -0.01296734 -0.01320999 -0.01345615 -0.01370601 -0.01396243 -0.01422584
 -0.01450092 -0.0147868 -0.01508277 -0.01538748 -0.01569677 -0.0160109 -0.01632812 -0.01664994 -0.01697776 -0.01731195
 -0.01765424 -0.0180015 -0.01835358 -0.01870381 -0.0190499 -0.019386 -0.01970962 -0.0200203 -0.02031744 -0.02060274
 -0.02087665 -0.02113622 -0.02138134 -0.02160483 -0.02180657 -0.02198353 -0.02213666 -0.02227069 -0.02238674 -0.02249212
 -0.02258635 -0.02267237 -0.02274816 -0.02281135 -0.02286102 -0.02289491 -0.02291336 -0.02291744 -0.02290236 -0.0228685
 -0.02280171 -0.02269773 -0.02254155 -0.022327 -0.02205243 -0.02171468 -0.0213287 -0.02089478 -0.020436 -0.01995373
 -0.01947001 -0.01898561 -0.01851458 -0.01805615 -0.01761256 -0.01718185 -0.01675783 -0.01633886 -0.01591745 -0.01549341
 -0.01506254 -0.01462663 -0.01418576 -0.01374293 -0.0133009 -0.01286107 -0.01242473 -0.01199348 -0.01156626 -0.01115262
 -0.0107534 -0.01038375 -0.01004743 -0.009747595 -0.00948653 -0.009246326 -0.009026193 -0.008800903 -0.008569573 -0.008316319
 -0.008041669 -0.00774176 -0.007417125 -0.00706841 -0.00669429 -0.006291995 -0.005859289 -0.005389706 -0.004885215 -0.00434355
 -0.003773394 -0.003180898 -0.002574103 -0.001959977 -0.001340836 -0.0007183836 -9.645503E-05 0.0005244987 0.001137083 0.001739268
 0.002330776 0.002910686 0.003487685 0.004062247 0.004641855 0.005226869 0.00582359 0.006432253 0.007059609 0.007702308
 0.008352871 0.009002671 0.009624489 0.01021405 0.01074781 0.01123434 0.01167243 0.01207834 0.01246446 0.01284641
 0.01323684 0.01364478 0.01407839 0.01453448 0.0150149 0.01550921 0.01601565 0.01652828 0.01704661 0.01756329
 0.01807808 0.01857357 0.01904924 0.0194947 0.01991254 0.02031692 0.02071074 0.02111534 0.0215276 0.02195171
 0.02237963 0.02280042 0.02320318 0.02357172 0.02389303 0.02414942 0.02433629 0.02444174 0.02448088 0.0244541
 0.0243869 0.02428599 0.02417059 0.02404519 0.02392113 0.02380013 0.02368932 0.02358929 0.02350313 0.02343119
 0.02337945 0.0233494 0.02335532 0.02339761 0.02348749 0.02362012 0.02378977 0.02398805 0.02419709 0.02441066
 0.02461285 0.02480287 0.02497395 0.02512939 0.02527055 0.0253961 0.02550863 0.02559468 0.02565196 0.02566516
 0.02562954 0.02554619 0.0254136 0.02524662 0.0250461 0.02482513 0.02458421 0.02433083 0.02406532 0.02379377
 0.02351645 0.02323738 0.02295756 0.02268091 0.02241032 0.02215369 0.02191127 0.02168834 0.02147893 0.02127982
 0.02108514 0.02088978 0.02069251 0.0204924 0.02028629 0.02007403 0.01984886 0.01960933 0.01935221 0.01907707
 0.01878116 0.01846449 0.01811665 0.01773717 0.01731703 0.01685772 0.0163659 0.01584516 0.01531473 0.01477632
 0.01424585 0.0137199 0.01320069 0.01268099 0.01215109 0.01160911 0.01104634 0.01047486 0.009897646 0.009331833
 0.008787052 0.008267172 0.007776733 0.007307927 0.00685953 0.006428327 0.006013424 0.005617506 0.005240835 0.004881255
 0.004538478 0.004205992 0.003883372 0.003564631 0.0032492 0.002931058 0.002610557 0.002284617 0.001956161 0.001629608
 0.00130657 0.0009924938 0.0006835144 0.0003780551 7.252595E-05 -0.0002367877 -0.0005483314 -0.0008620255 -0.001177361 -0.001493287
 -0.001814279 -0.002141419 -0.002475552 -0.002817571 -0.003160356 -0.003503465 -0.00384128 -0.004173733 -0.004502438 -0.004827082
 -0.005147147 -0.005459679 -0.005751438 -0.006019326 -0.006244976 -0.00643367 -0.006583333 -0.006709449 -0.006832365 -0.006962232
 -0.007120738 -0.007295669 -0.007489247 -0.007676324 -0.007844746 -0.007984532 -0.008086959 -0.0081655 -0.008220587 -0.008269266
 -0.008314464 -0.008359361 -0.008404653 -0.008443713 -0.008476436 -0.008501822 -0.008521363 -0.008547258 -0.008580922 -0.008636714
 -0.00871174 -0.008806396 -0.00891431 -0.009022938 -0.009128558 -0.009220117 -0.009298616 -0.009360504 -0.009409646 -0.009446591
 -0.009477759 -0.009505967 -0.009536212 -0.009572646 -0.009607585 -0.00964256 -0.00965524 -0.009643427 -0.009586744 -0.009483092
 -0.009330032 -0.009127979 -0.008892382 -0.008625029 -0.008347952 -0.00806169 -0.007780894 -0.007503814 -0.007232215 -0.006965976
 -0.006703893 -0.006451086 -0.006214671 -0.005996887 -0.005806125 -0.005630807 -0.005468106 -0.005300612 -0.005117382 -0.004917563
 -0.004694866 -0.004470652 -0.004247171 -0.004047535 -0.003876078 -0.00373671 -0.003630689 -0.003542614 -0.003471703 -0.003402417
 -0.003335075 -0.00326635 -0.003196811 -0.003128345 -0.003058924 -0.002984138 -0.002900451 -0.002798411 -0.002676533 -0.002527736
 -0.002355045 -0.002156702 -0.001942631 -0.001716417 -0.00149396 -0.001283364 -0.001094611 -0.0009350956 -0.0007963921 -0.0006805018
 -0.0005634181 -0.0004429176 -0.0002954399 -0.0001185885 9.422863E-05 0.0003426693 0.0006070249 0.0008843757 0.001139528 0.001371996
 0.001558848 0.001705929 0.001817941 0.001902337 0.001976881 0.002044832 0.002118476 0.002197708 0.002286665 0.00238456
 0.002492666 0.002607844 0.002729227 0.002853397 0.002978709 0.003105098 0.003231968 0.003361853 0.003495205 0.003632255
 0.00377332 0.003912531 0.004049452 0.004172574 0.00428194 0.004371331 0.004444594 0.004515574 0.004590812 0.004699059
 0.0048401 0.00503158 0.005259281 0.005513026 0.005773199 0.006014276 0.006231823 0.00640888 0.00656878 0.006714703
 0.006879669 0.007077531 0.00731598 0.007602974 0.007913744 0.008246725 0.008575343 0.008896797 0.009206045 0.009502987
 0.009794436 0.01008031 0.0103623 0.01063976 0.01090949 0.01117281 0.01143051 0.01168776 0.01195512 0.01223792
 0.01255107 0.01288911 0.01325611 0.01363319 0.01400826 0.01436934 0.01470391 0.01502221 0.01532411 0.01562347
 0.01592538 0.01622522 0.01652387 0.01680812 0.01707656 0.01732825 0.01756344 0.01779632 0.01802838 0.01828038
 0.01855198 0.01885501 0.01918304 0.01952384 0.01986825 0.02018935 0.02048659 0.02074541 0.02097475 0.02117816
 0.0213639 0.02153892 0.0217077 0.02187461 0.02203961 0.02220562 0.02236171 0.02250622 0.022629 0.02272625
 0.02281203 0.02288648 0.02297657 0.02308338 0.023213 0.02336437 0.02352723 0.02370324 0.02389528 0.0241067
 0.02435119 0.02462703 0.0249385 0.02527948 0.02564366 0.02602376 0.02641025 0.02679794 0.02717933 0.02755569
 0.027927 0.02829067 0.02865051 0.0289819 0.02928173 0.02952136 0.02969338 0.02980622 0.0298582 0.0298922
 0.02991044 0.02995415 0.03002429 0.03014657 0.03031873 0.03054588 0.03081937 0.03111533 0.03142501 0.03171586
 0.03198947 0.03223535 0.03245433 0.03264878 0.03280273 0.03290669 0.03294532 0.03290372 0.03279369 0.03261183
 0.03238923 0.03213027 0.03186795 0.03160631 0.03137746 0.03118489 0.0310436 0.03095409 0.03089901 0.03087685
 0.0308644 0.03086306 0.0308696 0.03088406 0.03090523 0.03093131 0.03095527 0.03098234 0.03101772 0.03106507
 0.03113303 0.03121413 0.0313019 0.03140321 0.0315112 0.03166692 0.03188788 0.03217946 0.03255975 0.03294015
 0.03330928 0.03361061 0.03383543 0.03400185 0.03411066 0.0341928 0.03424948 0.03430475 0.03435748 0.03441612
 0.03447522 0.03452066 0.0345498 0.03454805 0.03452012 0.03446901 0.03439307 0.03429438 0.03416242 0.03398668
 0.03377192 0.03351289 0.03323451 0.03294326 0.03266094 0.03239362 0.03215428 0.03194589 0.03177437 0.03164165
 0.0315314 0.03144269 0.03134349 0.03123342 0.03109797 0.03093871 0.03075772 0.030554 0.03032216 0.0300675
 0.02979382 0.02951989 0.02928179 0.02907711 0.0289277 0.02879275 0.02864264 0.02846918 0.02824834 0.02802977
 0.02783034 0.02766501 0.02754878 0.02743336 0.02731173 0.0271615 0.02697619 0.02680879 0.02666206 0.02660944
 0.02665082 0.02681078 0.02707905 0.02741253 0.02780057 0.02817957 0.02855689 0.02891654 0.02927248 0.02964756
 0.03002866 0.03041407 0.03077888 0.03109423 0.03137767 0.03162204 0.03187877 0.03216711 0.03250896 0.0329162
 0.03337758 0.03389237 0.03445587 0.03506761 0.03572578 0.03643014 0.03716232 0.03792017 0.03867508 0.0394218
 0.04011793 0.04075602 0.04128353 0.04170715 0.04200972 0.04221702 0.04236411 0.04246523 0.04255456 0.04262135
 0.04266765 0.04268413 0.04266663 0.04260831 0.04250953 0.04234882 0.04211986 0.04181496 0.04142819 0.04098909
 0.04049921 0.03999053 0.03946483 0.03894199 0.03842436 0.03794705 0.03751167 0.03715004 0.03685314 0.03660722
 0.03640143 0.03620032 0.03600733 0.03581176 0.03562121 0.03544267 0.03527395 0.03511902 0.0349636 0.03480669
 0.03461677 0.03438443 0.03407843 0.0336832 0.03321714 0.0326747 0.03212541 0.03157491 0.03107949 0.03064247
 0.0302706 0.02996192 0.02969451 0.02946344 0.02923073 0.02898973 0.02869289 0.02834594 0.02793157 0.02747597
 0.02701216 0.02656478 0.02617741 0.0258533 0.02561296 0.02543916 0.02533335 0.02526033 0.02520796 0.0251505
 0.02507302 0.02499964 0.02493009 0.02490388 0.02492822 0.02497319 0.02503742</values></Ydata></AB><ScSm><Ydata ylabel="Single channel"><values byteorder="INTEL" format="FLOAT32" numvalues="1814"> 0.07350805 0.07350899 0.07357702 0.07374012 0.07396487 0.07418052 0.07433151 0.07440993 0.07443394 0.07440901
 0.07434228 0.07429098 0.07434633 0.07454359 0.07480833 0.07500663 0.07505085 0.07497697 0.07492462 0.07500204
 0.07514259 0.07512552 0.0747836 0.07419305 0.07362276 0.07328643 0.07321154 0.07339626 0.07393597 0.07476386
 0.07537004 0.0751702 0.07424045 0.07334222 0.07307826 0.07331549 0.07354316 0.07345921 0.0730633 0.07254237
 0.07232031 0.07294201 0.07453898 0.07639098 0.07718696 0.07585306 0.07231968 0.06776294 0.06416865 0.06326543
 0.0653054 0.06872075 0.07130235 0.07196307 0.07125525 0.07024673 0.06937359 0.06858288 0.06807842 0.06836045
 0.06953324 0.07083784 0.07104526 0.06951025 0.06694093 0.06489356 0.06435168 0.0651134 0.06662802 0.06859333
 0.07010622 0.06918799 0.06473576 0.05897603 0.05646256 0.05974524 0.06665079 0.07241101 0.07390353 0.0713947
 0.06714772 0.06354925 0.0622168 0.06356379 0.06671822 0.07024471 0.07301736 0.07427808 0.07344382 0.07061201
 0.06706007 0.06463014 0.06459965 0.06717674 0.07145188 0.07548304 0.07718349 0.07586443 0.07269102 0.06945387
 0.06739143 0.0671971 0.0691987 0.07301317 0.07752518 0.08153249 0.08423723 0.08532558 0.08503024 0.08398115
 0.08272748 0.08165402 0.08131613 0.08209105 0.08328363 0.08339721 0.08176413 0.07943785 0.0781075 0.0783514
 0.07917786 0.07923134 0.07816398 0.07641181 0.07385321 0.0697806 0.06452538 0.05989432 0.05736329 0.05695337
 0.05830167 0.06123083 0.06448804 0.06568655 0.06392549 0.06144081 0.06138549 0.06446711 0.06859466 0.07142589
 0.07253007 0.07321015 0.07482798 0.07741262 0.07949145 0.07919857 0.07612402 0.07235159 0.07098545 0.0731038
 0.07672423 0.07924408 0.08018564 0.08090217 0.0822103 0.0831205 0.08186933 0.07801595 0.07356393 0.07172452
 0.07411931 0.07915133 0.08316275 0.08314631 0.07876984 0.07243713 0.06741112 0.06556189 0.066872 0.07067807
 0.07639451 0.0828671 0.08807941 0.09028415 0.08927955 0.08629881 0.08260459 0.07832541 0.07313345 0.06818798
 0.06636061 0.06951492 0.0761207 0.0825339 0.08624786 0.0871363 0.08602987 0.08317073 0.07845138 0.07290207
 0.06917153 0.06946985 0.07290657 0.07599895 0.07631972 0.07470956 0.07347676 0.07351907 0.07399532 0.07409883
 0.07419766 0.07519571 0.07723927 0.0793753 0.08047931 0.08028284 0.07941589 0.07867095 0.07828337 0.07776321
 0.07657826 0.07520751 0.07508933 0.07705098 0.08017628 0.08274888 0.08397617 0.08428176 0.08416434 0.08332305
 0.08110104 0.07772917 0.07483321 0.07422895 0.07616569 0.07917035 0.08157989 0.08273797 0.08283716 0.08231558
 0.08155786 0.08076979 0.08004859 0.07965812 0.07996002 0.08090027 0.08189322 0.08241153 0.08241753 0.08210136
 0.08150918 0.0806174 0.07959555 0.07881208 0.07857212 0.07888905 0.07952292 0.08019409 0.08068812 0.08082394
 0.0805167 0.07990709 0.07927248 0.07877325 0.07840759 0.07819748 0.07823995 0.0785339 0.07889812 0.07912961
 0.07916772 0.07906537 0.07887077 0.07859233 0.07824741 0.07790629 0.07768276 0.07765882 0.07779296 0.07794119
 0.07801354 0.07805963 0.07814017 0.07818311 0.07806386 0.07778735 0.07749704 0.07731913 0.07726438 0.07726739
 0.07725344 0.07714763 0.07687286 0.07641785 0.07592469 0.07563618 0.07569826 0.07604828 0.07651312 0.07694352
 0.07723584 0.0773346 0.07727771 0.07716954 0.07706259 0.07691333 0.0766768 0.07640776 0.07624789 0.07631209
 0.0765788 0.07690167 0.07713914 0.07724888 0.07726319 0.07723967 0.07724723 0.07732096 0.07740322 0.07739305
 0.07727498 0.07714825 0.07711411 0.07716857 0.07721725 0.07718338 0.07709525 0.07705639 0.07712711 0.07726265
 0.0773797 0.07745089 0.07751039 0.07758584 0.07764514 0.07761856 0.07748206 0.07730582 0.07718974 0.07715988
 0.07716857 0.07718617 0.07723896 0.07734647 0.07746556 0.07752419 0.07749899 0.07743856 0.07740068 0.07737857
 0.07731216 0.07717048 0.07699537 0.07685601 0.0767824 0.07675201 0.07672282 0.07666594 0.07657377 0.07645071
 0.07630461 0.07614405 0.07597479 0.07580319 0.0756526 0.07556411 0.07555367 0.07556926 0.07551855 0.07535236
 0.07511102 0.0748816 0.07471476 0.07458836 0.07444859 0.07427533 0.07409777 0.07395406 0.07385433 0.07378399
 0.07372436 0.07366542 0.07361749 0.07361853 0.07370842 0.07387694 0.07405065 0.07415505 0.07418671 0.07420674
 0.07426974 0.07437985 0.07451077 0.07464503 0.07479004 0.0749654 0.07516935 0.07535832 0.0754821 0.07554601
 0.07561231 0.07573435 0.07591702 0.07613935 0.07637414 0.07657967 0.07671814 0.07680237 0.07689178 0.07702531
 0.0771829 0.0773275 0.07745878 0.07760465 0.07777789 0.0779686 0.07817572 0.07842194 0.07872735 0.07907631
 0.07941679 0.07969508 0.07990004 0.0800802 0.08031097 0.08063365 0.08102228 0.08141001 0.08174694 0.08203521
 0.08231178 0.08260055 0.08289257 0.08318056 0.08349453 0.08387411 0.08431186 0.08475414 0.08516026 0.08553544
 0.08590409 0.08627616 0.08664873 0.08702547 0.08742175 0.08784895 0.08829306 0.08871428 0.08907808 0.08938774
 0.0896816 0.09000322 0.09037375 0.09077488 0.09114978 0.09144468 0.09166981 0.09190044 0.09219471 0.0925291
 0.09284145 0.09312037 0.0934144 0.09375677 0.09411883 0.0944504 0.09474146 0.0950263 0.09533732 0.0956661
 0.09596683 0.09619547 0.09635168 0.09648157 0.09663571 0.09683371 0.09707762 0.09737708 0.09773125 0.09809789
 0.09841424 0.09865093 0.09882542 0.0989714 0.09911859 0.09929082 0.09949528 0.09971528 0.09992719 0.1001154
 0.1002679 0.1003854 0.1005036 0.1006756 0.1009166 0.1011946 0.1014891 0.1018219 0.1022079 0.1026098
 0.1029797 0.1033299 0.1037145 0.1041398 0.1045344 0.1048267 0.105018 0.1051573 0.1052799 0.1054111
 0.1055991 0.1058902 0.1062738 0.1066878 0.1070818 0.1074465 0.1077894 0.1081069 0.1083861 0.108616
 0.1087933 0.1089239 0.109027 0.1091386 0.1093013 0.1095337 0.1098036 0.1100452 0.1102051 0.1102618
 0.1102049 0.1100282 0.1097594 0.109467 0.1092023 0.1089367 0.1085799 0.1080592 0.1073653 0.1065254
 0.1055601 0.1044826 0.1033314 0.1021865 0.1011488 0.100305 0.09971379 0.09942024 0.09946758 0.09986916
 0.1005606 0.101392 0.1021791 0.1027584 0.1030068 0.1028481 0.1022795 0.1013858 0.100303 0.09915929
 0.09804276 0.09699632 0.09602252 0.09511288 0.09430693 0.09372546 0.09353215 0.09386161 0.09478262 0.0962995
 0.09834322 0.1007456 0.1032513 0.1056022 0.1076398 0.1093417 0.1107768 0.1120399 0.1132104 0.1143287
 0.1153874 0.1163554 0.1172191 0.1179915 0.118682 0.1192764 0.1197486 0.1200815 0.120279 0.1203682
 0.1203877 0.1203699 0.1203416 0.1203368 0.1203801 0.120447 0.1204539 0.1203008 0.1199227 0.1193121
 0.1185229 0.117683 0.1170189 0.1168558 0.117528 0.1191992 0.1217183 0.1246639 0.127556 0.130058
 0.1320393 0.1335291 0.1346428 0.1355154 0.1362526 0.1369166 0.1375376 0.1381282 0.1386911 0.1392274
 0.1397417 0.1402411 0.140735 0.141231 0.1417239 0.142194 0.1426286 0.1430443 0.1434795 0.1439583
 0.1444655 0.1449606 0.1454218 0.1458679 0.1463263 0.1467882 0.147216 0.1475928 0.1479431 0.1483064
 0.1487082 0.1491518 0.1496151 0.1500566 0.1504436 0.1507795 0.1510967 0.1514252 0.1517716 0.1521267
 0.1524808 0.152832 0.1531827 0.1535379 0.1539041 0.1542821 0.1546548 0.1549914 0.155277 0.1555324
 0.1557965 0.1560918 0.1564095 0.1567268 0.1570349 0.1573492 0.1576923 0.1580657 0.1584411 0.1587836
 0.1590823 0.1593568 0.1596364 0.1599357 0.16025 0.1605683 0.1608842 0.1611961 0.1615046 0.1618126
 0.1621251 0.1624432 0.1627622 0.1630762 0.1633835 0.1636863 0.1639866 0.1642846 0.1645833 0.1648924
 0.1652231 0.1655722 0.1659166 0.1662301 0.1665057 0.166758 0.1670059 0.167259 0.1675209 0.1677949
 0.1680818 0.168376 0.1686692 0.1689591 0.1692499 0.1695452 0.169843 0.1701401 0.1704366 0.1707366
 0.1710446 0.1713624 0.1716855 0.1720027 0.1723023 0.1725825 0.1728545 0.1731352 0.1734334 0.1737408
 0.1740377 0.1743117 0.1745693 0.1748262 0.1750918 0.1753674 0.1756543 0.1759521 0.1762543 0.1765517
 0.1768406 0.1771242 0.1774061 0.1776867 0.1779646 0.1782406 0.178518 0.1787985 0.1790799 0.1793605
 0.1796424 0.1799289 0.1802216 0.1805204 0.1808211 0.1811152 0.181396 0.1816646 0.1819274 0.1821895
 0.1824553 0.1827307 0.1830177 0.1833102 0.1835974 0.1838738 0.1841455 0.1844232 0.1847088 0.1849941
 0.1852756 0.1855604 0.1858536 0.1861491 0.186438 0.1867183 0.186996 0.1872802 0.187575 0.1878743
 0.1881674 0.1884535 0.1887403 0.1890305 0.189317 0.1895902 0.1898478 0.1900975 0.1903508 0.1906128
 0.1908806 0.1911518 0.1914268 0.1917025 0.1919747 0.192246 0.1925222 0.1928046 0.1930936 0.1933896
 0.1936878 0.1939804 0.1942669 0.1945501 0.1948285 0.1951025 0.1953796 0.1956661 0.1959611 0.1962608
 0.1965611 0.1968595 0.1971591 0.1974621 0.1977616 0.1980502 0.198331 0.1986091 0.198884 0.1991588
 0.1994408 0.1997271 0.2000087 0.2002892 0.2005789 0.2008779 0.2011787 0.2014739 0.2017576 0.2020297
 0.2022992 0.2025725 0.2028486 0.203131 0.2034251 0.2037231 0.2040118 0.2042911 0.2045672 0.2048406
 0.2051127 0.2053877 0.2056647 0.2059444 0.2062335 0.2065283 0.2068123 0.2070791 0.2073321 0.2075584
 0.2077083 0.2076496 0.207053 0.2052716 0.2013295 0.1941153 0.1828261 0.1674807 0.1490915 0.1292993
 0.1097686 0.09176451 0.0760378 0.06292002 0.05247862 0.04462081 0.03916521 0.03595853 0.03499392 0.03652726
 0.04120257 0.0496725 0.06117014 0.07224237 0.07809325 0.07637233 0.06942329 0.06214476 0.0579167 0.05697106
 0.05786017 0.05935243 0.06105738 0.06319711 0.06615754 0.07005255 0.07470123 0.08009806 0.08664337 0.09463254
 0.1036424 0.112709 0.1211593 0.1291411 0.1372914 0.1459723 0.1548918 0.1633892 0.1709583 0.177502
 0.1832335 0.1884402 0.1933188 0.1979529 0.2023734 0.2065654 0.2103826 0.21351 0.21561 0.2165746
 0.216653 0.2163201 0.2160029 0.2159082 0.2160564 0.2164035 0.2169108 0.2175577 0.2183358 0.2192314
 0.2202051 0.2212055 0.2221982 0.2231664 0.2240944 0.224966 0.2257701 0.2265015 0.2271619 0.2277637
 0.2283207 0.2288396 0.2293252 0.2297845 0.2302216 0.2306364 0.2310296 0.2314028 0.2317549 0.2320839
 0.2323914 0.2326809 0.232958 0.2332294 0.2334982 0.2337625 0.2340215 0.2342764 0.2345254 0.2347659
 0.2350022 0.2352429 0.2354931 0.235752 0.236014 0.2362691 0.2365098 0.2367392 0.2369668 0.2371976
 0.2374334 0.2376772 0.2379279 0.2381748 0.2384062 0.2386218 0.2388335 0.239058 0.2393046 0.2395671
 0.2398325 0.2400988 0.2403717 0.2406469 0.2409107 0.2411605 0.2414074 0.2416615 0.2419256 0.2421952
 0.2424539 0.2426797 0.2428679 0.2430441 0.2432474 0.2434997 0.2437871 0.2440712 0.2443258 0.2445589
 0.2447931 0.2450364 0.245279 0.2455075 0.2457211 0.2459442 0.2462109 0.2465228 0.246844 0.2471483
 0.2474426 0.2477375 0.2480318 0.2483293 0.2486286 0.248895 0.2490876 0.2492242 0.2493926 0.2496838
 0.2501075 0.2505775 0.2509897 0.2513146 0.2515957 0.2518834 0.2521991 0.2525173 0.2527413 0.2527704
 0.2526658 0.2526789 0.253024 0.253664 0.2543759 0.2549744 0.255423 0.2557801 0.2560996 0.2563749
 0.2565486 0.2565801 0.2565306 0.2565798 0.2569013 0.2574879 0.2581433 0.2586815 0.2590707 0.2593634
 0.2595982 0.2597995 0.2599337 0.2598403 0.2594018 0.2588579 0.258746 0.2593793 0.2604924 0.2615268
 0.2621847 0.2625781 0.262912 0.2632321 0.2634897 0.2635827 0.2632253 0.2621148 0.2605208 0.2594445
 0.25979 0.2614563 0.2635069 0.2651023 0.2660281 0.2664948 0.2667749 0.2670147 0.2671209 0.2667794
 0.2658104 0.2646189 0.2640833 0.2647471 0.266211 0.2675604 0.2682941 0.2685868 0.2688035 0.2690931
 0.2692885 0.2688517 0.2671773 0.2644833 0.2622625 0.2622311 0.2646498 0.2680146 0.2705482 0.2717266
 0.2721442 0.2722153 0.2715678 0.2697227 0.2668189 0.2635553 0.2609763 0.2603292 0.2622371 0.2656626
 0.268496 0.2696407 0.2699413 0.2707884 0.2724542 0.2741084 0.2748974 0.2746027 0.2734885 0.2718351
 0.2698074 0.2678865 0.2671269 0.2684089 0.2713648 0.2745154 0.2766373 0.2776859 0.2781414 0.2775765
 0.2743821 0.2677022 0.2598419 0.255625 0.2581353 0.2654875 0.2728519 0.2772073 0.2789903 0.2798092
 0.2802884 0.2799088 0.2773193 0.271073 0.2619155 0.2542216 0.2530389 0.2590955 0.2679721 0.2742245
 0.2750925 0.2707887 0.2635166 0.2568152 0.2541155 0.25666 0.2629597 0.2702655 0.2762147 0.2794761
 0.2797436 0.2776169 0.2745467 0.2724679 0.272404 0.2729514 0.271342 0.2669322 0.2622731 0.2593686
 0.2565828 0.2516764 0.2467221 0.2467286 0.2531266 0.261373 0.266052 0.2663604 0.2651374 0.2636991
 0.2595911 0.2501309 0.237489 0.2287673 0.2297754 0.2390076 0.2489956 0.2536084 0.2529092 0.2509707
 0.2504306 0.2498163 0.2456596 0.2370438 0.2278757 0.2236108 0.2254741 0.2293726 0.2307445 0.228223
 0.2220545 0.2125871 0.20282 0.1993548 0.2068171 0.2221628 0.2370592 0.244751 0.2425449 0.2302991
 0.2112785 0.19404 0.1882852 0.1962065 0.2098354 0.2183732 0.2167734 0.2066475 0.1916088 0.1747544
 0.1600738 0.1529369 0.1568778 0.1700189 0.1852095 0.1936616 0.1897969 0.1754976 0.1603718 0.1548385
 0.1607182 0.1700297 0.1739485 0.1708057 0.1648512 0.1606961 0.1606051 0.1642064 0.1689325 0.1723843
 0.174248 0.1737351 0.1670194 0.1519028 0.134137 0.1236762 0.1243142 0.1317157 0.141422 0.1528108
 0.1639109 0.1686981 0.1638747 0.1551203 0.1522697 0.1589024 0.1693069 0.1755257 0.1753002 0.1724881
 0.171172 0.1712915 0.1707162 0.1700285 0.1726911 0.1801361 0.1890978 0.1951961 0.1974643 0.1979041
 0.1981224 0.1981391 0.1975346 0.1961672 0.1941004 0.1917278 0.1896662 0.188085 0.1865682 0.1847692
 0.1824133 0.1783646 0.1709026 0.1601998 0.1498599 0.1441255 0.1434629 0.1447911 0.1460371 0.1473916
 0.1471563 0.1404997 0.1258259 0.1100488 0.1035712 0.1102445 0.1245178 0.137778 0.1449203 0.1447598
 0.1374789 0.1249491 0.1130296 0.1097551 0.1187488 0.1357323 0.1531391 0.1666346 0.1755549 0.1793045
 0.1767384 0.1689606 0.1604066 0.1563437 0.1597143 0.1698061 0.1823809 0.1906522 0.1886057 0.177058
 0.1664809 0.1692503 0.1865043 0.2060649 0.2161052 0.2171842 0.217329 0.219597 0.2205938 0.219333
 0.2207491 0.2288928 0.2408969 0.2497553 0.2504469 0.241908 0.2263425 0.2096586 0.1999536 0.2011383
 0.2086726 0.2146489 0.2155152 0.2115992 0.2024099 0.1886559 0.1773033 0.1773658 0.1894223 0.2043445
 0.2136811 0.2173716 0.2199837 0.222826 0.2223699 0.2156267 0.2051443 0.1974363 0.196525 0.2003994
 0.2043662 0.2059708 0.205087 0.2011757 0.1936007 0.1846113 0.1793515 0.1814367 0.1892746 0.1976156
 0.202308 0.2029408 0.2015502 0.2000584 0.1989975 0.1977049 0.1956237 0.1939713 0.1954975 0.2014468
 0.2094072 0.2157062 0.2195848 0.2234393 0.2290583 0.2351319 0.2388218 0.2388646 0.2368098 0.2357089
 0.2376732 0.2421741 0.2464148 0.2476995 0.2459867 0.2441627 0.2453853 0.2500668 0.2558179 0.2601634
 0.2625697 0.2639166 0.2650219 0.265944 0.2659544 0.2640971 0.260577 0.2575794 0.2577468 0.2615755
 0.2669436 0.2712837 0.2736268 0.2744943 0.2745468 0.2738539 0.2722906 0.2701924 0.2683595 0.2674489
 0.2675328 0.2682608 0.2692491 0.2702383 0.2710809 0.2717435 0.2722748 0.2727128 0.2730667 0.2733753
 0.273682 0.2739474 0.2740881 0.2741361 0.2742635 0.2745852 0.2750005 0.2752951 0.2753385 0.2750936
 0.2744944 0.2734579 0.2720201 0.2703349 0.2684938 0.2664645 0.2643225 0.2625043 0.2616854 0.2622872
 0.2640947 0.2663856 0.2684306 0.2698647 0.270686 0.2710587 0.2711687 0.2711688 0.2711515 0.2711401
 0.2711169 0.2710645 0.2709807 0.2708665 0.2707256 0.2705854 0.2705026 0.2705197 0.2706183 0.2707265
 0.270771 0.270722 0.2706019 0.2704572 0.27031 0.2701246 0.2698277 0.269361 0.2687195 0.2679536
 0.2671484 0.2663845 0.2656867 0.2650046 0.2642592 0.2634072 0.2624359 0.2613091 0.259982 0.2584941
 0.2569919 0.2556108 0.2543657 0.2531793 0.2519738 0.2507021 0.2493355 0.2478688 0.2463292 0.2447532
 0.2431591 0.2415426 0.23989 0.238194 0.2364622 0.2347056 0.2329168 0.2310694 0.2291436 0.2271396
 0.22505 0.2228162 0.2203253 0.2174516 0.2140917 0.2101728 0.2056734 0.2006691 0.1953402 0.1899107
 0.1845755 0.1794779 0.1747256 0.170416 0.1666503 0.1635237 0.1610983 0.1593938 0.1584013 0.1580974
 0.1584494 0.1594195 0.160954 0.1629608 0.1653048 0.1678266 0.1703577 0.1727411 0.1748819 0.176792
 0.1785632 0.1802846 0.1819825 0.183629 0.1851846 0.1866196 0.1879023 0.1889947 0.1898791 0.190578
 0.1911314 0.191564 0.191885 0.1921049 0.1922415 0.1923172 0.1923579 0.1923935 0.19246 0.1925972
 0.1928341 0.1931736 0.1936002 0.1941034 0.1946855 0.195347 0.1960696 0.1968182 0.1975645 0.1983081
 0.1990684 0.1998646 0.2007221 0.2016888 0.2028205 0.2041471 0.2056627 0.2073341 0.209099 0.2108614
 0.2125133 0.2139735 0.2152126 0.2162427 0.2170796 0.2177207 0.2181635 0.2184307 0.2185574 0.2185672
 0.2184729 0.2182904 0.2180402 0.2177415 0.217408 0.2170419 0.2166414 0.2162196 0.2158014 0.215399
 0.2150109 0.2146452 0.2143199 0.2140357 0.2137712 0.2135063 0.2132342 0.212949 0.2126317 0.2122622
 0.2118433 0.2113973 0.2109216 0.2103632 0.2096622 0.2088086 0.2078352 0.2067644 0.2055906 0.2043069
 0.2029266 0.2014774 0.1999835 0.198454 0.1968792 0.1952314 0.1934669 0.1915506 0.1895018 0.1874056
 0.1853613 0.183421 0.1815836 0.1798276 0.1781354 0.1765015 0.1749287 0.1734179 0.1719682 0.1705902
 0.1692999 0.1680924 0.1669419 0.165836 0.1647954 0.1638544 0.1630333 0.1623268 0.1617124 0.1611702
 0.1606949 0.1602876 0.1599495 0.1596898 0.1595203 0.1594251 0.1593516 0.1592407 0.1590614 0.158816
 0.1585296 0.1582389 0.1579812 0.1577811 0.1576345 0.1574948 0.1572794 0.1568957 0.15626 0.1553085
 0.1540194 0.1524295 0.1506224 0.1487093 0.1468209 0.1450851 0.1435888 0.1423664 0.1414115 0.1406763
 0.140079 0.1395539 0.139101 0.1387765 0.1386372 0.1386769 0.1387912 0.1388302 0.1387264 0.1385649
 0.1385104 0.1386832 0.1390946 0.1396506 0.1402078 0.1406597 0.1409739 0.1411506 0.1411908 0.1411157
 0.140964 0.1407541 0.1404816 0.1401468 0.1397551 0.1393059 0.1387976 0.1382264 0.1375831 0.1368705
 0.1361025 0.1352757 0.1343747 0.1334009 0.1323475 0.1311842 0.1299466 0.128819 0.1280599 0.1278409
 0.1281513 0.1288105 0.1295892 0.1303616 0.1310852 0.1316161 0.1317336 0.1315072 0.1315031 0.132383
 0.1342601 0.1365608 0.1385309 0.1397735 0.1402936 0.1402169 0.1396313 0.1386033 0.1371621 0.1352909
 0.1330245 0.1304837 0.1277723 0.1249677 0.1222242 0.1197369 0.1176171 0.1158908 0.1145464 0.1136113
 0.1132107 0.1130032 0.1112225 0.1056059 0.09688225 0.09032285 0.09130661 0.0992726 0.1081151 0.112643
 0.1127168 0.1111052 0.1097187 0.1088462 0.108384 0.1084551 0.1091836 0.1104552 0.1119132 0.1131584
 0.1140015 0.1144534 0.1144685 0.1137283 0.1115758 0.1072308 0.1004298 0.09199007 0.08352083 0.07647874
 0.07153389 0.06859958 0.06712611 0.06641598 0.06597986 0.06576301 0.06603213 0.0670442 0.06883092 0.07125697
 0.07416441 0.07733698 0.08039282 0.0829366 0.08486467 0.08635554 0.08753954 0.08833914 0.0886374 0.08844151
 0.08785836 0.08702159 0.08606133 0.08506885 0.08404884 0.08293166 0.08169849 0.08051689 0.07966843 0.0792837
 0.07923003 0.07930343 0.07941763 0.07956538 0.07972527 0.07986589 0.0799721 0.08006492 0.08023188 0.08057068
 0.08105723 0.08153851 0.0818825 0.08208321 0.08222121 0.08233468 0.08230784 0.08196297 0.08135305 0.08080852
 0.08050275 0.08014005 0.0793481 0.07826459 0.07745332 0.07728247 0.07759929 0.07798348 0.07813192 0.07799663
 0.07773927 0.07764879 0.07796648 0.07861966</values></Ydata></ScSm><ScRf><Ydata ylabel="Single channel"><values byteorder="INTEL" format="FLOAT32" numvalues="1820"> 0.06078785 0.06093878 0.06103285 0.06106859 0.06106378 0.06106064 0.06111322 0.06125087 0.06145103 0.06164992
 0.06178802 0.06185044 0.06185684 0.06182152 0.06175442 0.06170078 0.06173376 0.06188197 0.062085 0.0622361
 0.06226764 0.06220935 0.06217105 0.06223739 0.06235221 0.06233191 0.06203666 0.06153243 0.06104992 0.06077124
 0.06071585 0.06087563 0.06132799 0.06202037 0.06253038 0.06236847 0.06159286 0.06083636 0.06060477 0.06079227
 0.06097568 0.06090286 0.06057226 0.06013796 0.05995152 0.06046744 0.06179825 0.063345 0.06401035 0.06289162
 0.05992793 0.05610484 0.05308667 0.05232214 0.05402612 0.0568914 0.05906905 0.05964122 0.05906032 0.05821721
 0.05748089 0.05680967 0.05637077 0.05658025 0.05753198 0.05860403 0.05877517 0.05749938 0.05535595 0.05363879
 0.05317374 0.05380147 0.0550679 0.05671819 0.05799076 0.05722811 0.05350981 0.04869884 0.04660131 0.0493485
 0.05512457 0.05994239 0.06118785 0.05908291 0.05552652 0.05252177 0.05141862 0.05255111 0.05518315 0.0581208
 0.06043369 0.06149085 0.06079898 0.05843393 0.05546293 0.05342647 0.0533895 0.05552314 0.05907208 0.06242648
 0.06385156 0.06276533 0.06012513 0.05741728 0.0556803 0.05550407 0.057171 0.06036414 0.06414949 0.06751691
 0.06979235 0.07070726 0.07045653 0.06957592 0.06853352 0.06764653 0.06736411 0.06799446 0.06896693 0.06904598
 0.06767817 0.06573685 0.06462532 0.06482498 0.06551078 0.06555435 0.06466726 0.06321292 0.06108408 0.05768188
 0.05328344 0.04941012 0.04730517 0.04698225 0.04812963 0.0506017 0.05335987 0.05440489 0.05296467 0.05089304
 0.05082835 0.05337635 0.05679978 0.0591426 0.060045 0.06060069 0.06195305 0.06412487 0.06587753 0.06564366
 0.06307802 0.05992691 0.05879313 0.06058216 0.06363355 0.06576577 0.06657724 0.06720164 0.06832545 0.06912342
 0.06812103 0.06495018 0.06128638 0.05980795 0.06185766 0.06609453 0.06946692 0.0694658 0.06581081 0.06051473
 0.05632094 0.0548079 0.05596868 0.05925534 0.06418188 0.0697728 0.07431583 0.0763157 0.07557495 0.07312202
 0.07003985 0.06646109 0.06211333 0.05797634 0.05650168 0.05929817 0.06507309 0.07070815 0.07404287 0.07495266
 0.07413682 0.07178986 0.06781001 0.06309916 0.05998384 0.060406 0.06358232 0.06645004 0.06687126 0.0655806
 0.06461184 0.06476682 0.06531383 0.0655454 0.0657951 0.06687459 0.06891233 0.07104053 0.07223004 0.07222326
 0.07158564 0.07104743 0.07083802 0.07051624 0.06959888 0.06853411 0.06864376 0.0706705 0.07374994 0.07629723
 0.07759436 0.07804628 0.07811637 0.07751332 0.07560933 0.07261409 0.07006044 0.06967152 0.07169617 0.07474701
 0.07724197 0.07854713 0.07884237 0.07854865 0.07803462 0.07749483 0.07701971 0.07685912 0.07735654 0.07845843
 0.079602 0.08028123 0.08046356 0.08033508 0.07993707 0.07924267 0.0784212 0.07784094 0.07780227 0.07831284
 0.07913427 0.07999521 0.08068518 0.08101419 0.08088242 0.08042814 0.07994629 0.07961689 0.07944039 0.0794286
 0.0796717 0.08016577 0.08072251 0.0811283 0.08131695 0.0813465 0.08127898 0.08113497 0.08093389 0.08074321
 0.08067726 0.08081546 0.0811035 0.08138935 0.08159809 0.08180488 0.08207336 0.08230088 0.08232557 0.08214533
 0.08193361 0.08185117 0.08191453 0.0820398 0.08213709 0.08212845 0.08193716 0.08155753 0.08114816 0.08096905
 0.0811718 0.08169242 0.0823532 0.08298776 0.08346344 0.08370493 0.08375213 0.08372073 0.08367072 0.08356519
 0.08337151 0.08315908 0.08308044 0.08325665 0.08366718 0.08415665 0.08455954 0.08480219 0.08490074 0.08493175
 0.08500706 0.08518609 0.08538787 0.08546668 0.08539569 0.08530813 0.08533557 0.08545839 0.08554323 0.0855044
 0.08540509 0.08539195 0.08553894 0.08578053 0.08600216 0.08616603 0.08632791 0.08654163 0.08676142 0.0868578
 0.08675366 0.08652742 0.08633664 0.08625381 0.08623942 0.08626576 0.08637659 0.0865929 0.08682955 0.08696616
 0.08698169 0.08697142 0.0870242 0.08711508 0.08713991 0.087038 0.08685364 0.08668585 0.08660609 0.08662306
 0.08669559 0.08676288 0.08677611 0.08672085 0.08661748 0.08649997 0.08639555 0.08633128 0.08635386 0.08650964
 0.08677449 0.08701693 0.08707578 0.08690085 0.08660838 0.08638131 0.08630832 0.08632086 0.08628112 0.08611748
 0.08587013 0.08562608 0.08543752 0.08530259 0.08519654 0.0851066 0.08505136 0.08507608 0.08520605 0.08538298
 0.08547142 0.08536939 0.08511074 0.08483136 0.08464332 0.08456604 0.08455559 0.08455946 0.08455572 0.08457032
 0.08463832 0.08473158 0.08476389 0.084693 0.0845786 0.08452068 0.08457901 0.08475343 0.08498199 0.08514968
 0.08516517 0.0850558 0.08494493 0.08492371 0.08498116 0.08506009 0.08513288 0.08520614 0.08528845 0.08538459
 0.08550969 0.08568636 0.08592136 0.08618844 0.0864348 0.08661105 0.08671096 0.08679039 0.08693486 0.08719124
 0.08752638 0.08785602 0.08811611 0.08830966 0.08848669 0.08868198 0.08888467 0.08907753 0.08928421 0.08954607
 0.08986183 0.09018548 0.09048307 0.09076199 0.09104402 0.09133716 0.09164025 0.0919615 0.09232434 0.09274449
 0.09318849 0.09356967 0.09381675 0.09394868 0.09406464 0.09426542 0.09458713 0.09497841 0.09532242 0.0955224
 0.09560281 0.0956966 0.09589905 0.09616785 0.09640772 0.09661853 0.0968989 0.09730771 0.09777497 0.09816752
 0.09841821 0.0985754 0.09873547 0.09893759 0.09913077 0.09924907 0.09930427 0.09937511 0.09951058 0.09969145
 0.09990126 0.1001795 0.1005609 0.1009979 0.1013928 0.1016879 0.1018913 0.1020347 0.1021432 0.1022283
 0.1022843 0.1023065 0.1023249 0.1023875 0.1024944 0.1025853 0.1026191 0.1026317 0.1026906 0.102825
 0.1030299 0.1033013 0.1036239 0.103946 0.1042215 0.1044789 0.104793 0.1051686 0.1054983 0.1056776
 0.1057224 0.1057295 0.1057536 0.1057883 0.1058493 0.1059975 0.1062637 0.1066026 0.106948 0.1072788
 0.1076127 0.1079567 0.1082787 0.1085231 0.1086477 0.108659 0.1086177 0.1086122 0.1087146 0.1089453
 0.109263 0.109594 0.1098785 0.1100852 0.1101905 0.1101815 0.1101022 0.110064 0.1101574 0.1103505
 0.1105046 0.1104927 0.1102832 0.1099101 0.1094062 0.1087922 0.1081117 0.1074477 0.1068892 0.1064894
 0.106263 0.1062271 0.1064218 0.1068685 0.1075076 0.1082093 0.108852 0.1093611 0.109669 0.109691
 0.1093842 0.1088069 0.1080867 0.1073426 0.1066474 0.1060244 0.1054482 0.1048821 0.1043603 0.1040282
 0.1040753 0.1046228 0.1056637 0.1070669 0.1086152 0.1100763 0.1112974 0.1122606 0.11305 0.1137589
 0.1144317 0.1150824 0.1157325 0.1163965 0.1170449 0.1176242 0.1181194 0.1185649 0.1189916 0.1193921
 0.1197383 0.1200107 0.1202178 0.1203993 0.1205933 0.1207816 0.1208941 0.1208877 0.1207943 0.1206759
 0.1205529 0.1203914 0.120139 0.1197679 0.1193153 0.1189066 0.1187279 0.1189461 0.1196208 0.1206714
 0.1219321 0.1232496 0.1245268 0.125686 0.1266386 0.1273279 0.1277823 0.1280947 0.1283556 0.1286172
 0.1289005 0.1292079 0.1295286 0.129845 0.1301436 0.1304273 0.1307187 0.1310377 0.1313704 0.1316731
 0.1319203 0.1321448 0.1324151 0.1327701 0.1331773 0.1335624 0.1338867 0.1341818 0.1344929 0.1348064
 0.1350681 0.1352614 0.135433 0.1356433 0.1359227 0.1362679 0.1366412 0.1369756 0.1372198 0.1373881
 0.1375436 0.1377339 0.1379603 0.1382047 0.1384569 0.1387112 0.1389617 0.1392148 0.1394928 0.1398046
 0.1401163 0.1403694 0.14054 0.1406677 0.140817 0.1410167 0.1412435 0.1414579 0.141649 0.1418495
 0.1421057 0.1424271 0.1427631 0.14304 0.143223 0.1433406 0.1434521 0.1435994 0.1437867 0.1439961
 0.1442097 0.1444185 0.1446208 0.1448208 0.1450266 0.1452406 0.1454548 0.1456603 0.1458603 0.1460655
 0.1462786 0.1464908 0.1467 0.1469263 0.1471977 0.1475116 0.1478224 0.1480761 0.1482553 0.1483851
 0.1485024 0.1486334 0.1487896 0.1489711 0.1491674 0.1493659 0.1495613 0.149756 0.1499542 0.1501579
 0.1503654 0.150573 0.1507765 0.1509748 0.1511753 0.1513916 0.1516296 0.1518752 0.1521037 0.1523029
 0.1524845 0.1526704 0.1528728 0.1530849 0.1532885 0.1534727 0.1536463 0.1538275 0.1540233 0.1542249
 0.1544219 0.1546132 0.1548031 0.1549935 0.1551824 0.1553667 0.155547 0.1557286 0.1559194 0.1561246
 0.1563423 0.1565631 0.1567741 0.1569691 0.1571529 0.157337 0.1575317 0.1577401 0.1579574 0.1581738
 0.158382 0.1585809 0.1587721 0.1589587 0.1591465 0.1593399 0.1595361 0.1597297 0.1599196 0.1601096
 0.1603033 0.1605001 0.1606973 0.1608944 0.1610954 0.1613054 0.161524 0.1617474 0.1619724 0.1621957
 0.1624124 0.1626219 0.1628305 0.1630445 0.1632657 0.163494 0.1637268 0.163956 0.1641705 0.1643634
 0.1645363 0.1646993 0.164865 0.1650374 0.1652111 0.1653843 0.165564 0.165755 0.1659525 0.1661494
 0.1663429 0.1665359 0.166735 0.166944 0.1671571 0.167365 0.167566 0.1677648 0.1679651 0.1681688
 0.1683766 0.1685855 0.1687921 0.1689982 0.169206 0.1694119 0.1696129 0.169814 0.1700208 0.1702338
 0.1704493 0.1706629 0.1708717 0.1710787 0.171287 0.1714932 0.1716923 0.1718857 0.172078 0.1722737
 0.1724812 0.1727057 0.1729376 0.1731616 0.1733727 0.1735742 0.1737694 0.1739648 0.1741688 0.1743825
 0.1746012 0.174821 0.175036 0.175242 0.1754492 0.1756714 0.1759051 0.1761358 0.1763598 0.1765798
 0.1767932 0.1769972 0.1771913 0.177365 0.1774811 0.1774276 0.1769149 0.1753788 0.1719762 0.1657551
 0.1560351 0.1428418 0.1270494 0.1100672 0.09332037 0.07788496 0.06439497 0.05313262 0.0441616 0.03740957
 0.0327273 0.02998732 0.02918125 0.03051798 0.03453616 0.04178471 0.05160503 0.06105185 0.06603871 0.06456332
 0.05862292 0.05239652 0.04877556 0.04796684 0.04873357 0.05001326 0.05146526 0.05328594 0.05581626 0.0591522
 0.06312613 0.0677275 0.07330957 0.08014072 0.08786395 0.09564459 0.1028886 0.1097089 0.116654 0.1240516
 0.1316665 0.1389325 0.1454076 0.151004 0.1559031 0.1603481 0.1645011 0.1684338 0.1721852 0.1757584
 0.1790287 0.1817103 0.1834989 0.1843038 0.1843497 0.1840484 0.1837598 0.1836547 0.183753 0.1840263
 0.1844472 0.1849914 0.1856404 0.1863802 0.1871878 0.1880282 0.1888679 0.1896824 0.1904544 0.191174
 0.1918384 0.1924493 0.1930128 0.1935349 0.1940119 0.194437 0.1948177 0.1951773 0.1955339 0.1958894
 0.1962361 0.1965634 0.1968621 0.1971309 0.1973764 0.1976066 0.1978305 0.1980579 0.1982903 0.1985175
 0.1987323 0.1989416 0.1991548 0.199369 0.1995734 0.1997622 0.1999411 0.2001226 0.2003136 0.2005093
 0.2007017 0.2008931 0.2010919 0.201299 0.2015049 0.2017014 0.2018896 0.2020768 0.2022686 0.2024659
 0.2026662 0.2028683 0.2030707 0.2032683 0.2034597 0.2036543 0.2038628 0.2040831 0.2043037 0.2045178
 0.2047249 0.2049269 0.2051302 0.2053393 0.2055429 0.2057181 0.2058583 0.2059877 0.2061455 0.2063554
 0.2066072 0.2068666 0.2071046 0.2073185 0.2075208 0.207718 0.2079061 0.2080808 0.2082473 0.208427
 0.2086432 0.2088945 0.2091531 0.2093987 0.2096339 0.2098641 0.2100909 0.2103222 0.2105591 0.2107728
 0.210928 0.211038 0.2111771 0.2114236 0.2117852 0.2121813 0.2125139 0.212758 0.2129642 0.2131926
 0.2134675 0.2137607 0.2139775 0.2140193 0.2139296 0.2139213 0.2141811 0.2146819 0.2152398 0.2157098
 0.216071 0.2163691 0.2166378 0.2168679 0.2170163 0.217051 0.2170188 0.2170657 0.2173373 0.2178266
 0.2183652 0.2187954 0.2190967 0.2193251 0.2195197 0.219696 0.2198119 0.2197206 0.2193228 0.2188339
 0.2187244 0.2192639 0.2202165 0.2210937 0.2216401 0.2219611 0.2222415 0.2225197 0.2227461 0.222831
 0.2225383 0.2216146 0.2202819 0.2193804 0.2196753 0.2210843 0.2228185 0.2241744 0.2249762 0.2253963
 0.2256541 0.2258722 0.2259811 0.2257194 0.2249267 0.2239345 0.223484 0.2240448 0.2252912 0.2264528
 0.2270997 0.2273718 0.2275735 0.2278306 0.2280039 0.2276407 0.2262311 0.2239619 0.2221012 0.2221068
 0.2241991 0.2270965 0.2292853 0.2303199 0.2307066 0.2307928 0.2302536 0.2286826 0.2262138 0.2234596
 0.2213109 0.2208157 0.2224898 0.2254451 0.2278897 0.2288933 0.229175 0.2299221 0.2313763 0.2328353
 0.2335634 0.2333631 0.2324566 0.2310827 0.229379 0.2277572 0.2271298 0.228263 0.2308457 0.233601
 0.2354651 0.2363955 0.2368172 0.2363788 0.2336954 0.2280145 0.2213018 0.2177015 0.2198785 0.2262352
 0.2326305 0.2364523 0.2380534 0.2388126 0.2392798 0.2390198 0.2368668 0.2315631 0.2237422 0.2171749
 0.2162177 0.2215013 0.22922 0.2346876 0.2355246 0.2319032 0.2257164 0.2200212 0.2177831 0.2200725
 0.2255998 0.2319908 0.2372147 0.2401376 0.2404972 0.2387875 0.2362397 0.2345348 0.2345787 0.235161
 0.2338783 0.2301734 0.2262606 0.2238772 0.2216034 0.2174953 0.2133525 0.2135306 0.219275 0.2266302
 0.230883 0.231341 0.2304776 0.2294304 0.2260528 0.2179974 0.2071526 0.1997397 0.2008783 0.2092708
 0.2183564 0.2227367 0.2224724 0.2211667 0.2211628 0.2211522 0.2180165 0.2108962 0.2032787 0.2000733
 0.2023866 0.2065315 0.2083987 0.2067388 0.201729 0.1936536 0.1852608 0.1826204 0.1900123 0.2046934
 0.2190389 0.2268161 0.2254676 0.2147588 0.1976803 0.1822961 0.1778256 0.186386 0.2004215 0.2096523
 0.209236 0.2006471 0.187295 0.1721886 0.159326 0.1541386 0.160253 0.1758109 0.1934594 0.2039818
 0.2014035 0.1876765 0.1731309 0.1690404 0.1773304 0.1892191 0.1950316 0.1929713 0.1877608 0.1845923
 0.1861398 0.1920353 0.1992535 0.2049672 0.2088071 0.2096672 0.2026725 0.1850364 0.1638217 0.1512833
 0.152143 0.1611827 0.1730479 0.1870576 0.2007977 0.2068119 0.2010061 0.1903824 0.1870674 0.1954331
 0.2083593 0.2159487 0.2153235 0.211147 0.2084303 0.2072047 0.2050074 0.2026404 0.2043782 0.2120661
 0.2218887 0.2286262 0.2310822 0.231609 0.232118 0.2326288 0.2326184 0.2318971 0.2305331 0.2289848
 0.2279604 0.2276228 0.2274356 0.2269717 0.2258951 0.2227415 0.2152342 0.2034859 0.1920313 0.1862347
 0.1866041 0.1891675 0.191381 0.1936083 0.1936032 0.1849634 0.1655839 0.1445894 0.1356892 0.1439283
 0.1619354 0.1783297 0.1864354 0.1848523 0.1740656 0.1566558 0.1399992 0.1339443 0.1427825 0.1611359
 0.1797031 0.1932641 0.2012602 0.2033555 0.1984666 0.1879278 0.1767422 0.1707146 0.1729254 0.1823891
 0.1943766 0.2016159 0.1978548 0.1840886 0.1712945 0.1723191 0.1883966 0.2070838 0.2162472 0.2163405
 0.2154546 0.2167431 0.2168738 0.2148715 0.2156472 0.2232713 0.2349907 0.2439418 0.2451773 0.2376242
 0.2234459 0.2085206 0.2008972 0.204305 0.2138418 0.2212397 0.2228245 0.2190256 0.2095145 0.1952478
 0.1836088 0.1839632 0.1968153 0.2125993 0.2225368 0.226622 0.2296428 0.2329451 0.2328092 0.226099
 0.2155086 0.2079116 0.2075681 0.2124005 0.2175214 0.2203869 0.2208315 0.2181534 0.2115508 0.2034464
 0.1995177 0.2037674 0.2143618 0.2253107 0.2317953 0.2331795 0.2316339 0.2293181 0.2269222 0.2238114
 0.2194477 0.2152646 0.2144085 0.2183775 0.2246468 0.2292679 0.2313962 0.2335797 0.2377461 0.2425409
 0.2449749 0.24369 0.2402491 0.2377658 0.2384031 0.2416627 0.2447607 0.2450014 0.2423403 0.2396726
 0.2401716 0.2442629 0.2495656 0.2536014 0.2558162 0.2570614 0.25813 0.2590543 0.259081 0.2572459
 0.253741 0.250692 0.2506513 0.2540764 0.2589005 0.2626678 0.2645152 0.265031 0.2649036 0.2642016
 0.2627737 0.260904 0.259331 0.2586654 0.2589493 0.2598 0.2608038 0.2616993 0.2623663 0.2628096
 0.2631128 0.2633342 0.2634786 0.2635649 0.2636289 0.2636453 0.2635521 0.2633985 0.2633686 0.263584
 0.2639446 0.2642307 0.2642988 0.2640948 0.2635445 0.262576 0.2612568 0.2597765 0.258243 0.2566064
 0.254899 0.2535083 0.2530626 0.253949 0.2559528 0.2583946 0.2605965 0.2622126 0.2632193 0.2637438
 0.2639498 0.2639931 0.2639797 0.2639351 0.2638287 0.2636291 0.2633345 0.2629639 0.2625451 0.2621181
 0.2617321 0.2614192 0.2611639 0.260906 0.2605785 0.2601487 0.2596357 0.2590923 0.2585571 0.2580121
 0.2573905 0.2566347 0.2557465 0.254788 0.2538456 0.2529845 0.2522126 0.2514765 0.2507075 0.2498702
 0.2489536 0.2479353 0.2468074 0.2456436 0.244589 0.2437427 0.2430715 0.2424566 0.2417954 0.241039
 0.2401733 0.2392097 0.2381823 0.2371234 0.2360409 0.2349245 0.2337557 0.2325072 0.2311558 0.2297053
 0.2281817 0.2266066 0.22499 0.2233392 0.2216458 0.2198577 0.2178735 0.2155639 0.2127985 0.2094755
 0.2055582 0.2011084 0.1962907 0.1913275 0.1864287 0.181752 0.1774177 0.1735334 0.1701886 0.1674413
 0.1653289 0.1638858 0.1631433 0.1631176 0.1638008 0.1651576 0.167123 0.1695957 0.1724266 0.1754271
 0.1784075 0.1812229 0.1838036 0.1861634 0.1883715 0.1904787 0.1924654 0.1942764 0.1958888 0.1973164
 0.1985633 0.1996121 0.2004579 0.2011318 0.2016877 0.2021765 0.2026242 0.2030261 0.2033617 0.203619
 0.2038104 0.2039706 0.2041354 0.2043227 0.2045347 0.2047729 0.2050441 0.2053591 0.2057343 0.2061807
 0.2066867 0.2072248 0.2077814 0.2083638 0.2089797 0.2096329 0.2103435 0.2111541 0.2121101 0.2132345
 0.2145134 0.215893 0.2172923 0.2186243 0.2198137 0.2208063 0.2215732 0.2221043 0.2224033 0.2224933
 0.2224148 0.2222075 0.2218967 0.2215001 0.2210345 0.2205123 0.2199423 0.2193325 0.2186855 0.2179998
 0.2172843 0.2165616 0.2158498 0.2151507 0.2144635 0.2137973 0.2131622 0.2125571 0.2119721 0.2113968
 0.210823 0.2102486 0.2096808 0.2091298 0.2085917 0.2080359 0.2074146 0.2066901 0.2058557 0.2049291
 0.2039237 0.2028319 0.2016407 0.2003524 0.1989798 0.1975295 0.1960039 0.1944155 0.1927813 0.1910959
 0.1893217 0.1874176 0.1853892 0.1833095 0.1812864 0.1794037 0.1776899 0.1761262 0.1746714 0.1732872
 0.1719551 0.1706729 0.1694391 0.1682506 0.1671141 0.1660435 0.1650451 0.1641135 0.1632413 0.16243
 0.1616932 0.1610453 0.1604843 0.1599955 0.1595728 0.1592256 0.1589703 0.1588262 0.1588027 0.1588665
 0.1589367 0.1589353 0.1588396 0.1586834 0.1585233 0.1584043 0.1583374 0.1583017 0.158265 0.1581905
 0.1580237 0.1576917 0.1571177 0.156238 0.1550253 0.1535106 0.1517766 0.1499379 0.148126 0.1464627
 0.1450233 0.143838 0.1429212 0.1422609 0.1417914 0.1414217 0.1411071 0.1408844 0.1408384 0.1410092
 0.1413071 0.1415539 0.1416492 0.1416717 0.1417964 0.1421487 0.1427384 0.143473 0.1442226 0.1448975
 0.1454614 0.145883 0.1461382 0.1462563 0.1462947 0.1462688 0.1461593 0.145965 0.1457088 0.1454142
 0.1450904 0.1447134 0.144236 0.1436436 0.1429613 0.1422017 0.1413589 0.1404361 0.1394137 0.1382481
 0.1369918 0.1358679 0.1351563 0.1350294 0.1354821 0.1363401 0.1373653 0.1384132 0.1394211 0.1402218
 0.1405769 0.1405543 0.1407288 0.141775 0.1438217 0.1463027 0.1484601 0.149901 0.1506335 0.1507549
 0.1503121 0.1493587 0.147921 0.1459533 0.1434673 0.1406076 0.1375288 0.1343584 0.1312992 0.128574
 0.1262821 0.1244266 0.1229899 0.1219991 0.1215829 0.1213827 0.1195094 0.1135214 0.1042015 0.09724992
 0.0984727 0.1072327 0.1169003 0.1218582 0.1219716 0.1202565 0.1187865 0.1178596 0.1173497 0.1173928
 0.1181213 0.1193953 0.1208288 0.1220172 0.1227841 0.1231595 0.1231026 0.1222556 0.1198825 0.1151344
 0.1077371 0.09857486 0.08939062 0.08177382 0.07643853 0.07325116 0.07160792 0.07079067 0.07028868 0.07001814
 0.07024936 0.07128312 0.07319461 0.0758578 0.07908349 0.08260471 0.08600505 0.08887573 0.09109387 0.09281865
 0.09419546 0.09518422 0.09568293 0.09569246 0.09532103 0.09470741 0.09397554 0.09319912 0.09234706 0.09130345
 0.0900427 0.08878807 0.08788303 0.08747181 0.08740024 0.08743592 0.08746671 0.08747748 0.08746408 0.0874156
 0.08733246 0.08726349 0.08732435 0.08760799 0.08806029 0.08850731 0.08881215 0.08896856 0.08905134 0.08907379
 0.08888341 0.08830037 0.08743362 0.08668038 0.08623108 0.08575098 0.08481236 0.08353068 0.08250324 0.08215502
 0.08236127 0.08269107 0.08281363 0.08265018 0.08234997 0.08223208 0.08257686 0.08329237 0.08388107 0.08390392
</values></Ydata></ScRf><Data_Parameters_AB><parameter name="DPF">1</parameter><parameter name="NPT">3497</parameter><parameter name="FXV">3996</parameter><parameter name="LXV">500</parameter><parameter name="CSF">1</parameter><parameter name="MXY">0.119414277374744</parameter><parameter name="MNY">-0.0837165787816048</parameter><parameter name="DAT">31/05/2022</parameter><parameter name="TIM">14:03:47.161 (GMT+2)</parameter><parameter name="DXU">WN</parameter></Data_Parameters_AB><AB__Qtest><MainReport name="Quality Test Report"><Header><Line><Legend>Test result ok/not ok [1/0]: </Legend><Value>0</Value></Line><Line><Legend>Method file: </Legend><Value>C:\Users\Public\Documents\Bruker\OPUS_8.2.28\QT\IRBT_v3_default.QT</Value></Line></Header><Matrix><Line><Legend></Legend><Legend>min</Legend><Legend>max</Legend><Legend>measured</Legend></Line><Line><Value>Absorption (X-Range 1):</Value><Value>0.400000</Value><Value>2.000000</Value><Value>0.163131</Value></Line><Line><Value>Noise (X-Range 4):</Value><Value></Value><Value>0.000300</Value><Value>0.000064</Value></Line><Line><Value>Signal/Noise (X-Range 2):</Value><Value>200.000000</Value><Value></Value><Value>69.455411</Value></Line><Line><Value>Signal/Noise (X-Range 3):</Value><Value>40.000000</Value><Value></Value><Value>18.634094</Value></Line><Line><Value>Water vapour (X-Range 5):</Value><Value></Value><Value>0.000300</Value><Value>0.000090</Value></Line><Line><Value>Signal/Water (X-Range 2):</Value><Value>100.000000</Value><Value></Value><Value>49.172907</Value></Line><Line><Value>Signal/Water (X-Range 3):</Value><Value>20.000000</Value><Value></Value><Value>13.192530</Value></Line><Line><Value>Fringes (X-Range 6):</Value><Value></Value><Value>0.000100</Value><Value>0.000062</Value></Line></Matrix></MainReport></AB__Qtest><Data_Parameters_ScSm><parameter name="DPF">1</parameter><parameter name="NPT">1814</parameter><parameter name="FXV">3996.33169228125</parameter><parameter name="LXV">499.541461535156</parameter><parameter name="CSF">1</parameter><parameter name="MXY">0.280288398265839</parameter><parameter name="MNY">0.0349939242005348</parameter><parameter name="DAT">31/05/2022</parameter><parameter name="TIM">14:03:47.161 (GMT+2)</parameter><parameter name="DXU">WN</parameter></Data_Parameters_ScSm><Data_Parameters_ScRf><parameter name="DPF">1</parameter><parameter name="NPT">1820</parameter><parameter name="FXV">4004.04661832813</parameter><parameter name="LXV">495.683998511719</parameter><parameter name="CSF">1</parameter><parameter name="MXY">0.265030980110168</parameter><parameter name="MNY">0.0291812494397163</parameter><parameter name="DAT">31/05/2022</parameter><parameter name="TIM">14:03:20.078 (GMT+2)</parameter><parameter name="DXU">WN</parameter></Data_Parameters_ScRf><Optic_Parameters_Rf><parameter name="APR">0</parameter><parameter name="APT">Open</parameter><parameter name="BMS">KBr</parameter><parameter name="DTC">RT-DLaTGS_IR-Biotyper [Microplate reader]</parameter><parameter name="HPF">0</parameter><parameter name="LPF">10.0</parameter><parameter name="LPV">4000</parameter><parameter name="PGR">0</parameter><parameter name="RCH">Module port</parameter><parameter name="RDX">0</parameter><parameter name="SRC">MIR</parameter><parameter name="VEL">10.0</parameter><parameter name="SON">Off</parameter></Optic_Parameters_Rf><Acquisition_Parameters_Rf><parameter name="ADT">1</parameter><parameter name="AQM">DD</parameter><parameter name="CFE">0</parameter><parameter name="COR">0</parameter><parameter name="DEL">0</parameter><parameter name="DLY">0</parameter><parameter name="HFW">8000</parameter><parameter name="LFW">0</parameter><parameter name="NSR">32</parameter><parameter name="PLF">AB</parameter><parameter name="RES">6</parameter><parameter name="RGN">-1</parameter><parameter name="STR">0</parameter><parameter name="TCL">MakeCompatibleScalar (0, {WSV=1.000000, ARV=0});</parameter><parameter name="TDL">37</parameter><parameter name="RPO">0</parameter></Acquisition_Parameters_Rf><FT_-_Parameters_Rf><parameter name="APF">B3</parameter><parameter name="HFQ">500</parameter><parameter name="LFQ">4000</parameter><parameter name="NLI">0</parameter><parameter name="PHR">24</parameter><parameter name="PHZ">ML</parameter><parameter name="SPZ">NO</parameter><parameter name="ZFF">1</parameter></FT_-_Parameters_Rf><Optic_Parameters_><parameter name="APR">0</parameter><parameter name="APT">Open</parameter><parameter name="BMS">KBr</parameter><parameter name="CHN">Module port</parameter><parameter name="DTC">RT-DLaTGS_IR-Biotyper [Microplate reader]</parameter><parameter name="HPF">0</parameter><parameter name="LPF">10.0</parameter><parameter name="LPV">4000</parameter><parameter name="PGN">0</parameter><parameter name="RDX">0</parameter><parameter name="SRC">MIR</parameter><parameter name="VEL">10.0</parameter><parameter name="SON">Off</parameter></Optic_Parameters_><FT_-_Parameters_><parameter name="APF">B3</parameter><parameter name="HFQ">500</parameter><parameter name="LFQ">4000</parameter><parameter name="NLI">0</parameter><parameter name="PHR">24</parameter><parameter name="PHZ">ML</parameter><parameter name="SPZ">NO</parameter><parameter name="ZFF">1</parameter></FT_-_Parameters_><Acquisition_Parameters_><parameter name="ADT">1</parameter><parameter name="AQM">DD</parameter><parameter name="CFE">0</parameter><parameter name="COR">0</parameter><parameter name="DEL">0</parameter><parameter name="DLY">0</parameter><parameter name="HFW">8000</parameter><parameter name="LFW">0</parameter><parameter name="NSS">32</parameter><parameter name="PLF">AB</parameter><parameter name="RES">6</parameter><parameter name="SOT">0</parameter><parameter name="TCL">MakeCompatibleScalar (0, {WSV=1.000000, ARV=0});</parameter><parameter name="TDL">37</parameter><parameter name="SPO">0</parameter><parameter name="SGN">-1</parameter></Acquisition_Parameters_><Instrument_Parameters_Rf><parameter name="HFL">15800.168544</parameter><parameter name="LFL">0</parameter><parameter name="LWN">15800.168544</parameter><parameter name="ABP">32197</parameter><parameter name="SSP">1</parameter><parameter name="ARG">2</parameter><parameter name="ASG">2</parameter><parameter name="ASS">32</parameter><parameter name="GFW">16</parameter><parameter name="GBW">16</parameter><parameter name="BFW">0</parameter><parameter name="BBW">0</parameter><parameter name="PKA">7261</parameter><parameter name="PKL">4996</parameter><parameter name="PRA">7449</parameter><parameter name="PRL">5001</parameter><parameter name="P2A">1</parameter><parameter name="P2L">1</parameter><parameter name="P2R">1</parameter><parameter name="P2K">1</parameter><parameter name="DAQ">0</parameter><parameter name="AG2">1</parameter><parameter name="SSM">1</parameter><parameter name="RSN">25745</parameter><parameter name="CRR">0</parameter><parameter name="SRT">1654005800.078</parameter><parameter name="DUR">19.6379852294922</parameter><parameter name="TSC">29.1</parameter><parameter name="MVD">0.215818539261818</parameter><parameter name="AN1">0.225788299912696</parameter><parameter name="AN2">0</parameter><parameter name="VSN">2.485 Apr  4 2017</parameter><parameter name="SRN">0085</parameter><parameter name="CAM">0</parameter><parameter name="INS">IR-Biotyper</parameter><parameter name="FOC">69</parameter><parameter name="RDY">1</parameter><parameter name="ARS">32</parameter></Instrument_Parameters_Rf><Sample_Parameters_><parameter name="BLD"></parameter><parameter name="CNM">Admin</parameter><parameter name="CPY"></parameter><parameter name="DPM"></parameter><parameter name="EXP">IRBT_v3_32Scans.XPM</parameter><parameter name="LCT"></parameter><parameter name="SFM">Microplate, HTS-XT</parameter><parameter name="SNM">220531-1301_AJC34M (D_4)_D7_9f8b07d2-f8d2-49bb-915d-f4cd22733c16.0</parameter><parameter name="XPP">C:\Users\Public\Documents\Bruker\OPUS_8.2.28\XPM</parameter><parameter name="IST">OK</parameter><parameter name="CPG">1252</parameter><parameter name="UID">64b2a962-302a-499a-ade6-774598fe6c8d</parameter></Sample_Parameters_><Instrument_Parameters_><parameter name="HFL">15800.168544</parameter><parameter name="LFL">0</parameter><parameter name="LWN">15800.168544</parameter><parameter name="ABP">32197</parameter><parameter name="SSP">1</parameter><parameter name="ASG">2</parameter><parameter name="ARG">2</parameter><parameter name="ASS">32</parameter><parameter name="GFW">16</parameter><parameter name="GBW">16</parameter><parameter name="BFW">0</parameter><parameter name="BBW">0</parameter><parameter name="PKA">7675</parameter><parameter name="PKL">4988</parameter><parameter name="PRA">7984</parameter><parameter name="PRL">4993</parameter><parameter name="P2A">1</parameter><parameter name="P2L">1</parameter><parameter name="P2R">1</parameter><parameter name="P2K">1</parameter><parameter name="DAQ">0</parameter><parameter name="AG2">1</parameter><parameter name="SSM">1</parameter><parameter name="RSN">13498</parameter><parameter name="CRR">0</parameter><parameter name="SRT">1654005827.161</parameter><parameter name="DUR">19.6379852294922</parameter><parameter name="TSC">29.1</parameter><parameter name="MVD">0.239988103508949</parameter><parameter name="AN1">0.225812079257405</parameter><parameter name="AN2">0</parameter><parameter name="VSN">2.485 Apr  4 2017</parameter><parameter name="SRN">0085</parameter><parameter name="CAM">0</parameter><parameter name="INS">IR-Biotyper</parameter><parameter name="FOC">69</parameter><parameter name="RDY">1</parameter></Instrument_Parameters_><History/></OPUSDataFile>
