<?xml version="1.0" encoding="UTF-8" ?>
<OPUSDataFile><AB><Ydata ylabel="Absorbance Units"><values byteorder="INTEL" format="FLOAT32" numvalues="3497"> -0.06802897 -0.06799806 -0.06796469 -0.0679286 -0.06789392 -0.06786085 -0.06782683 -0.06779216 -0.06775904 -0.06772922
 -0.06771465 -0.06771529 -0.06773978 -0.06778178 -0.0678317 -0.06788212 -0.06791408 -0.06793141 -0.06792771 -0.06791875
 -0.06791499 -0.06792641 -0.06796446 -0.06802029 -0.068095 -0.06817218 -0.06824761 -0.06831302 -0.06836612 -0.06840628
 -0.06843313 -0.06844778 -0.06845029 -0.06844684 -0.06843837 -0.06843866 -0.06844804 -0.06847696 -0.06852234 -0.06857956
 -0.06864401 -0.068702 -0.06875237 -0.06878614 -0.06880664 -0.06881398 -0.06881198 -0.06880382 -0.0687914 -0.06877629
 -0.06876043 -0.06874486 -0.06873094 -0.06871981 -0.0687086 -0.06869704 -0.06868229 -0.06866353 -0.06864652 -0.06863153
 -0.06863179 -0.06864752 -0.06868576 -0.06874419 -0.06881291 -0.06888852 -0.0689527 -0.06900605 -0.06903914 -0.06905858
 -0.06906969 -0.0690816 -0.0691081 -0.06915066 -0.06921959 -0.06929788 -0.06938323 -0.06944646 -0.06947409 -0.06945718
 -0.06938487 -0.06929006 -0.06917348 -0.0690847 -0.0690291 -0.06903404 -0.06910143 -0.06922308 -0.06939632 -0.06958424
 -0.06978145 -0.06993593 -0.07004584 -0.07007152 -0.07002615 -0.06991787 -0.06976827 -0.06961941 -0.06947799 -0.06937173
 -0.06928921 -0.06923189 -0.06918321 -0.06913272 -0.06907624 -0.06900629 -0.0689388 -0.06887521 -0.06883501 -0.06882293
 -0.06884114 -0.06889145 -0.06895798 -0.06903993 -0.06912231 -0.0692053 -0.06928937 -0.06937542 -0.06947085 -0.0695727
 -0.0696758 -0.06977273 -0.06984148 -0.06988053 -0.06987187 -0.06983253 -0.06977361 -0.06971451 -0.0696799 -0.06966261
 -0.06966741 -0.06967703 -0.06968006 -0.06969123 -0.06970692 -0.06977015 -0.06988879 -0.070085 -0.07036684 -0.07068227
 -0.07102956 -0.07125154 -0.07134462 -0.07121536 -0.07089117 -0.07050756 -0.07008074 -0.06974798 -0.06949431 -0.06935039
 -0.06929923 -0.0693287 -0.06941877 -0.06954532 -0.0696826 -0.06980038 -0.06988869 -0.06992648 -0.06994038 -0.06993425
 -0.06993743 -0.06996331 -0.07000137 -0.07005412 -0.07009175 -0.07011008 -0.07010587 -0.07007842 -0.07005618 -0.07004052
 -0.07005812 -0.07010647 -0.07018444 -0.07028492 -0.07038119 -0.07046652 -0.07050881 -0.07051017 -0.07045507 -0.07036094
 -0.07023881 -0.07011397 -0.07001179 -0.06994496 -0.06993151 -0.06996059 -0.07003551 -0.07013015 -0.07023902 -0.07034028
 -0.07042892 -0.07049629 -0.07054149 -0.07055335 -0.07053125 -0.07045963 -0.07033927 -0.07017962 -0.06998554 -0.06979404
 -0.06960851 -0.06946237 -0.06935407 -0.06929769 -0.06928744 -0.06932214 -0.06939 -0.06947958 -0.06957251 -0.06965027
 -0.06969974 -0.06970432 -0.06967362 -0.06960301 -0.06952275 -0.0694388 -0.0693788 -0.06935 -0.06935712 -0.06940264
 -0.0694719 -0.06956423 -0.06966044 -0.06975964 -0.0698458 -0.06991915 -0.06997249 -0.07000835 -0.07003244 -0.07004736
 -0.07006337 -0.07007968 -0.07009968 -0.07012162 -0.07014278 -0.0701678 -0.0701966 -0.07024334 -0.07031592 -0.07042494
 -0.07058078 -0.07076981 -0.0709959 -0.07121687 -0.07142678 -0.07158919 -0.07169781 -0.07175267 -0.07175345 -0.07169975
 -0.07159139 -0.07142007 -0.07119151 -0.07094005 -0.07067464 -0.07045183 -0.07026992 -0.07015589 -0.07009744 -0.0700874
 -0.07010905 -0.07013762 -0.07016636 -0.07017776 -0.07018203 -0.07018027 -0.07018194 -0.07019386 -0.07020992 -0.07023305
 -0.0702396 -0.07022607 -0.07017292 -0.07007517 -0.06995045 -0.06979898 -0.06966858 -0.06956112 -0.06951276 -0.0695204
 -0.0695833 -0.06969084 -0.06980229 -0.06990485 -0.06993763 -0.06991086 -0.0698075 -0.06966106 -0.06951057 -0.06936877
 -0.0692663 -0.06918516 -0.06912546 -0.06906217 -0.06898194 -0.06888246 -0.0687558 -0.06862958 -0.06850683 -0.06841436
 -0.0683576 -0.06832983 -0.0683318 -0.0683164 -0.06828134 -0.06817914 -0.06801636 -0.06781556 -0.06758978 -0.06740844
 -0.0672696 -0.06720475 -0.06720304 -0.0672602 -0.06736428 -0.06750381 -0.06765473 -0.06779772 -0.0678988 -0.06792817
 -0.06788126 -0.06774218 -0.06754508 -0.06729806 -0.06701779 -0.06671028 -0.06637064 -0.06599758 -0.06560262 -0.06518609
 -0.0647725 -0.06436312 -0.06397971 -0.06362373 -0.06331699 -0.06305928 -0.0628647 -0.06272534 -0.06262907 -0.06256445
 -0.06250339 -0.06244309 -0.06236992 -0.06228079 -0.06217342 -0.06202994 -0.0618367 -0.06159002 -0.06127727 -0.06093342
 -0.06056641 -0.06019938 -0.0598405 -0.05948294 -0.05912663 -0.05876582 -0.05839963 -0.05804285 -0.05769685 -0.05739035
 -0.05712324 -0.05691221 -0.05674829 -0.05660813 -0.05647181 -0.05626911 -0.05599711 -0.05560299 -0.05513201 -0.05462107
 -0.05410833 -0.05365053 -0.05323589 -0.05287766 -0.05254309 -0.05222049 -0.05189009 -0.05153938 -0.05118246 -0.05081808
 -0.05047391 -0.05015554 -0.04985521 -0.04957401 -0.04925735 -0.04890295 -0.04846608 -0.04795324 -0.0473927 -0.04679543
 -0.04622671 -0.04568438 -0.04519777 -0.04475544 -0.0443489 -0.04397038 -0.04360637 -0.04325242 -0.04289998 -0.04254704
 -0.04218857 -0.04182946 -0.04147217 -0.04111452 -0.04076152 -0.04038395 -0.03997832 -0.03951289 -0.03897928 -0.03840279
 -0.0377832 -0.03719135 -0.03662972 -0.03613887 -0.03571481 -0.03534592 -0.035025 -0.03471471 -0.03441173 -0.03408509
 -0.03374159 -0.03337875 -0.03300627 -0.03264039 -0.03227444 -0.03191407 -0.03153221 -0.03111211 -0.0306397 -0.03009549
 -0.02951389 -0.02889688 -0.02829401 -0.02771751 -0.02718331 -0.02669676 -0.02624332 -0.02582275 -0.02541104 -0.02500714
 -0.02459339 -0.02416984 -0.02372982 -0.02327274 -0.02279267 -0.02228809 -0.02174884 -0.02118078 -0.02058574 -0.01998171
 -0.01939325 -0.01883405 -0.01833049 -0.01787221 -0.01746399 -0.01708123 -0.0167135 -0.01634739 -0.01597464 -0.01560044
 -0.01522426 -0.01485376 -0.01449125 -0.014127 -0.01376103 -0.01336811 -0.01294747 -0.01248692 -0.01198996 -0.01147965
 -0.01096086 -0.01047056 -0.01000468 -0.009573299 -0.009164048 -0.008755862 -0.008344333 -0.007909858 -0.00746664 -0.007018691
 -0.006586054 -0.006186632 -0.005819179 -0.005494329 -0.005178852 -0.004867696 -0.004521845 -0.004130036 -0.003685583 -0.00318326
 -0.002653768 -0.002098425 -0.001556127 -0.001028383 -0.0005363903 -7.920229E-05 0.0003417113 0.0007280243 0.001085916 0.001417064
 0.001728338 0.002023175 0.002310869 0.002595489 0.002887078 0.00318593 0.003496428 0.003815817 0.004141448 0.00447868
 0.004827431 0.00519979 0.005602349 0.006028567 0.006482461 0.006928742 0.007363231 0.007761092 0.008118553 0.008461984
 0.008793522 0.009168599 0.009586286 0.0100665 0.01059717 0.01113449 0.01166514 0.01212301 0.01251298 0.01280671
 0.01303139 0.01321151 0.01337268 0.01355371 0.01375115 0.01397837 0.01421205 0.01444268 0.01466177 0.01486124
 0.01505594 0.01524695 0.01545046 0.01566923 0.01590838 0.01616875 0.01644717 0.01674334 0.01704829 0.01736207
 0.01767978 0.01800479 0.01835097 0.0187206 0.01913224 0.01957525 0.02004093 0.02050912 0.02094581 0.02134404
 0.02167978 0.02196882 0.02221341 0.02243153 0.02263429 0.02282302 0.02300031 0.02316448 0.02331292 0.02346148
 0.02361078 0.02378406 0.02398364 0.02421426 0.02447573 0.02475342 0.0250467 0.02534396 0.0256457 0.02595008
 0.02625446 0.02655105 0.02683454 0.02708838 0.0273146 0.02750488 0.02767495 0.02783455 0.02800438 0.02820328
 0.02843676 0.02871775 0.0290229 0.02935164 0.02966482 0.02995274 0.03019806 0.03039419 0.03056312 0.03070586
 0.03084684 0.03098635 0.03110684 0.03120545 0.0312441 0.03122848 0.03116161 0.03106079 0.03098064 0.03093267
 0.03097277 0.03108829 0.03129143 0.03154832 0.03183139 0.03211044 0.0323506 0.03255692 0.03271407 0.03286903
 0.03303208 0.03324631 0.03353032 0.03386141 0.03424567 0.03459615 0.03490664 0.0351059 0.03519188 0.03517802
 0.03507131 0.03494589 0.03480432 0.03470005 0.03462555 0.03458202 0.03456941 0.03458345 0.03463872 0.03475894
 0.03494221 0.03520791 0.03551056 0.03583005 0.03611334 0.03632169 0.03645886 0.03650752 0.03653076 0.03653758
 0.03658531 0.03668686 0.0368416 0.03705272 0.0372703 0.03749171 0.03766213 0.0377822 0.03783397 0.03782663
 0.03779418 0.03774933 0.03775181 0.0378029 0.03794045 0.03814354 0.03840316 0.0386849 0.03895015 0.03917697
 0.0393311 0.03942859 0.03946045 0.03947638 0.03948884 0.03954209 0.03965081 0.0398225 0.04006161 0.04035405
 0.04069852 0.04109458 0.04154222 0.04204961 0.04261331 0.04320623 0.04381571 0.04436285 0.04483788 0.04515995
 0.0453469 0.04538583 0.04532718 0.04523657 0.04516139 0.04518479 0.04529928 0.04554019 0.04583717 0.04617158
 0.04646412 0.04668079 0.04679188 0.04677832 0.04667047 0.04646627 0.04622645 0.04595551 0.04570485 0.04547687
 0.04528996 0.04514264 0.04502567 0.04493763 0.04486572 0.04481179 0.0447757 0.04475844 0.04476632 0.04478849
 0.04481867 0.0448267 0.04478344 0.04465352 0.0443975 0.04401362 0.04347875 0.04284792 0.04212653 0.04139507
 0.04067278 0.0400096 0.03941806 0.03890052 0.03845961 0.0380693 0.03772809 0.03739506 0.03706826 0.03670941
 0.03632332 0.03591188 0.0354881 0.0350989 0.03474519 0.03446098 0.03421821 0.03399247 0.03375048 0.03344021
 0.03306673 0.03260506 0.03210976 0.03159498 0.03112758 0.03073703 0.03044702 0.03027806 0.03017808 0.03014922
 0.03008815 0.02998601 0.02976868 0.02943289 0.02899661 0.02846687 0.02792812 0.02738526 0.02691055 0.02649761
 0.02616513 0.02590076 0.02568755 0.02551349 0.0253542 0.02519909 0.02502761 0.0248354 0.02461058 0.02436083
 0.02408437 0.02379857 0.02350816 0.02322907 0.02296665 0.02272527 0.02250772 0.02230294 0.02211078 0.02191247
 0.02170706 0.02148375 0.0212431 0.02098787 0.02071943 0.02044622 0.02016948 0.01989705 0.0196308 0.01937912
 0.01914211 0.01892604 0.01872323 0.01853004 0.01833294 0.01811963 0.01788538 0.01762079 0.0173401 0.01704446
 0.01675396 0.01647525 0.01621082 0.01596389 0.01571717 0.01546954 0.01520482 0.01492221 0.01462352 0.01431015
 0.01399897 0.01369126 0.01340382 0.01313484 0.0128885 0.01265928 0.01243704 0.01221688 0.01198548 0.011744
 0.01148723 0.0112221 0.01095048 0.01068366 0.01042513 0.01019328 0.0099946 0.0098446 0.00975314 0.009699972
 0.009689463 0.009653283 0.009586495 0.009422772 0.009158595 0.008797058 0.008344523 0.007878848 0.007408333 0.0070236
 0.006719505 0.006533189 0.006439744 0.006405341 0.006397536 0.006346591 0.006242819 0.00603843 0.005767918 0.005435399
 0.005094536 0.004779535 0.004504646 0.004290896 0.004099961 0.00392576 0.003740331 0.003531921 0.003338859 0.003161184
 0.003070485 0.003070571 0.003180129 0.003392877 0.003636301 0.003898448 0.004069729 0.004151679 0.004083948 0.003892136
 0.003601107 0.003244723 0.002892017 0.002553153 0.00227303 0.002028416 0.001816258 0.001613473 0.001400347 0.001188945
 0.0009762552 0.0007891498 0.0006381155 0.0005151913 0.0004239393 0.000326653 0.0002186542 9.349216E-05 -4.939891E-05 -0.0001635711
 -0.000246908 -0.0002563756 -0.0001985824 -8.862604E-05 6.126658E-05 0.0001976462 0.0003185154 0.0003889117 0.0004218419 0.0004226617
 0.0004040473 0.0003876729 0.0003646883 0.0003425066 0.0002868373 0.0001824375 7.835609E-07 -0.0002807513 -0.0006375004 -0.001078054
 -0.00151906 -0.001950726 -0.002294739 -0.002538835 -0.002686361 -0.00273676 -0.002776779 -0.002811309 -0.002930036 -0.003127099
 -0.003417425 -0.003782483 -0.004163998 -0.00454851 -0.0048704 -0.005137601 -0.00532965 -0.005470075 -0.00557741 -0.005671328
 -0.005775249 -0.005893291 -0.006036192 -0.006194011 -0.006367626 -0.006538382 -0.006702132 -0.006843809 -0.006957746 -0.00705541
 -0.007135122 -0.007240123 -0.007372803 -0.00756598 -0.007817552 -0.008105549 -0.008423117 -0.008713868 -0.008980343 -0.009197894
 -0.009382026 -0.009559846 -0.009738518 -0.009948432 -0.01017312 -0.01040759 -0.01062976 -0.01081726 -0.0109668 -0.01106872
 -0.01113184 -0.01115935 -0.01114955 -0.011104 -0.01101211 -0.01087087 -0.01068371 -0.01044866 -0.01019613 -0.009927584
 -0.009692431 -0.009493145 -0.009375656 -0.009338365 -0.009397975 -0.009544714 -0.009754657 -0.01001296 -0.01027204 -0.01052201
 -0.01072289 -0.01087745 -0.01097094 -0.01101671 -0.01101967 -0.01099411 -0.01094997 -0.01089305 -0.01082879 -0.01075445
 -0.01067054 -0.01057295 -0.01046161 -0.0103304 -0.01018002 -0.009989155 -0.009756779 -0.00944353 -0.009047802 -0.008537105
 -0.007915095 -0.007186116 -0.006359916 -0.005474706 -0.004538232 -0.003589876 -0.002629233 -0.001673842 -0.0007189814 0.0002344606
 0.001189995 0.002149833 0.003117582 0.004094671 0.005087763 0.006100284 0.007134185 0.008193735 0.009262436 0.01034165
 0.01139273 0.01241345 0.01335575 0.01421666 0.01495991 0.01558506 0.01608084 0.01644926 0.016697 0.01682673
 0.01684861 0.01677135 0.01661427 0.0164025 0.01618199 0.01598681 0.01587803 0.01586832 0.01599544 0.01623631
 0.01659021 0.01702793 0.01753411 0.01810744 0.01874252 0.01945483 0.02024803 0.02112081 0.02207552 0.02308344
 0.02414333 0.02520705 0.02627123 0.02727735 0.02822286 0.02905951 0.02979151 0.03040672 0.03091606 0.03134178
 0.03168971 0.03198538 0.03221558 0.03238407 0.03244884 0.03238877 0.03213158 0.0316372 0.03083356 0.02967501
 0.02815729 0.02625096 0.02407068 0.02161584 0.01909048 0.01651213 0.0140737 0.0117888 0.009748216 0.00795051
 0.00637378 0.005009013 0.003785837 0.002699467 0.00169527 0.0007717345 -9.983927E-05 -0.0009251929 -0.001726901 -0.00250972
 -0.003291427 -0.004064154 -0.004829806 -0.005572071 -0.006281753 -0.006948921 -0.007567873 -0.008132631 -0.008642651 -0.009083647
 -0.009454205 -0.009736124 -0.009927213 -0.01001652 -0.01000317 -0.009882637 -0.009655747 -0.009332555 -0.00892053 -0.0084714
 -0.008000714 -0.007599122 -0.00727348 -0.007095859 -0.007044253 -0.007121374 -0.007281119 -0.007471122 -0.007647685 -0.007754654
 -0.007772552 -0.007670327 -0.007458977 -0.007131047 -0.006720384 -0.006232337 -0.005704 -0.005142738 -0.004570547 -0.003989051
 -0.003425254 -0.002879373 -0.002445712 -0.002134293 -0.002130063 -0.002443659 -0.003253635 -0.00453511 -0.006305373 -0.008487229
 -0.01089963 -0.01345573 -0.01591015 -0.0182338 -0.02027782 -0.02208858 -0.02364881 -0.02503065 -0.02627446 -0.02742131
 -0.0285011 -0.02951588 -0.03047271 -0.03136198 -0.03218246 -0.03292999 -0.03360331 -0.03420743 -0.03474227 -0.03522551
 -0.03565859 -0.03606891 -0.03645753 -0.036846 -0.03723208 -0.0376194 -0.03800258 -0.03836936 -0.03871556 -0.03902584
 -0.03930416 -0.03954563 -0.03976599 -0.03997543 -0.04019191 -0.04043152 -0.0406954 -0.04099249 -0.04129981 -0.04161519
 -0.04190759 -0.04217013 -0.04238858 -0.04255876 -0.04269401 -0.04279453 -0.04288872 -0.04297763 -0.04308045 -0.04319587
 -0.04332267 -0.04346001 -0.04360187 -0.04375263 -0.04392084 -0.04411115 -0.04433968 -0.04459899 -0.04489061 -0.04519372
 -0.04549158 -0.04576582 -0.04599872 -0.04618749 -0.04632412 -0.04642161 -0.04647899 -0.04652269 -0.04655537 -0.04661005
 -0.04669141 -0.04681538 -0.04698414 -0.04717743 -0.04739349 -0.04759506 -0.04778247 -0.04793968 -0.04807158 -0.0481906
 -0.04829983 -0.04841539 -0.0485343 -0.04865891 -0.04878443 -0.04890515 -0.04901909 -0.04912237 -0.04921481 -0.04929543
 -0.04936377 -0.04941875 -0.04946284 -0.04949465 -0.04952571 -0.04955656 -0.04960535 -0.04967463 -0.04977323 -0.04990247
 -0.05004948 -0.05021315 -0.05036946 -0.05051841 -0.05064802 -0.05076132 -0.05086493 -0.05096156 -0.0510632 -0.05116814
 -0.05128048 -0.05139311 -0.05149947 -0.0515908 -0.05165517 -0.05169302 -0.05169646 -0.05168528 -0.05166249 -0.05165793
 -0.05168163 -0.05174842 -0.05186562 -0.05202027 -0.05221326 -0.05241643 -0.05262798 -0.05282474 -0.05300603 -0.05316304
 -0.05329689 -0.0534116 -0.05350946 -0.05360201 -0.05369147 -0.0537903 -0.05389843 -0.05402308 -0.05415918 -0.05430458
 -0.05445016 -0.05458656 -0.05470857 -0.05480785 -0.05489105 -0.05495732 -0.05502009 -0.05508371 -0.05515428 -0.05523483
 -0.05532012 -0.0554101 -0.05549725 -0.05558088 -0.05566036 -0.05573572 -0.05580955 -0.05588118 -0.05594684 -0.05600483
 -0.05604458 -0.05606718 -0.05606757 -0.05605398 -0.05603828 -0.05603142 -0.0560547 -0.05610967 -0.0562088 -0.05633898
 -0.05649734 -0.05666656 -0.05683801 -0.05700251 -0.05715519 -0.05729414 -0.05741816 -0.05752746 -0.05762169 -0.05770352
 -0.05777293 -0.05783746 -0.05789749 -0.05796052 -0.05802636 -0.058097 -0.05817178 -0.05824862 -0.05832762 -0.0584078
 -0.05848981 -0.05857506 -0.05866237 -0.05875156 -0.05883906 -0.05892135 -0.05899628 -0.05906023 -0.05911679 -0.05916577
 -0.05921403 -0.05926382 -0.05931848 -0.05937941 -0.05944553 -0.05951671 -0.05959345 -0.0596757 -0.05976659 -0.05986615
 -0.05997384 -0.06008867 -0.06020202 -0.06031268 -0.06040977 -0.06049449 -0.06056347 -0.06062123 -0.0606747 -0.0607282
 -0.06079149 -0.06086402 -0.06094991 -0.06104374 -0.06114345 -0.06124394 -0.06134203 -0.06143641 -0.06152599 -0.06161089
 -0.06169122 -0.06176546 -0.06183343 -0.06189373 -0.06194608 -0.06199323 -0.06203543 -0.06207969 -0.06212634 -0.06218145
 -0.0622446 -0.06231726 -0.0623986 -0.06248694 -0.06258175 -0.06268138 -0.06278498 -0.06289123 -0.06299802 -0.06310313
 -0.06320428 -0.0632991 -0.06338718 -0.06346758 -0.06354131 -0.06360854 -0.06366962 -0.06372447 -0.06377428 -0.06381875
 -0.06386343 -0.06390865 -0.06396142 -0.06402191 -0.06409044 -0.06416601 -0.06423981 -0.06431085 -0.06436892 -0.06441549
 -0.06444856 -0.06447245 -0.06449445 -0.06451916 -0.0645569 -0.06460804 -0.0646784 -0.06476142 -0.06485588 -0.06495138
 -0.06504279 -0.06512388 -0.06519058 -0.0652453 -0.06528718 -0.06532329 -0.06535439 -0.06538609 -0.06541893 -0.06545594
 -0.06549723 -0.06554322 -0.06559347 -0.06564415 -0.06569444 -0.06573803 -0.06577548 -0.06580431 -0.06582756 -0.06585008
 -0.06587464 -0.06590827 -0.06594938 -0.06600016 -0.06605478 -0.06610984 -0.06616139 -0.06620535 -0.06624559 -0.0662815
 -0.06632167 -0.06636814 -0.06642462 -0.06649261 -0.06656645 -0.06664602 -0.06672224 -0.06679474 -0.0668593 -0.06691644
 -0.06696891 -0.06701773 -0.06706937 -0.06712414 -0.06718692 -0.06725627 -0.06733213 -0.0674114 -0.06748991 -0.06756474
 -0.0676313 -0.06768857 -0.06773365 -0.06776936 -0.06779484 -0.0678185 -0.06784192 -0.06787539 -0.06792194 -0.06798436
 -0.06806453 -0.0681527 -0.06824852 -0.06833791 -0.06842028 -0.06848919 -0.06854529 -0.06859259 -0.06863212 -0.06867107
 -0.06870962 -0.06875218 -0.06879801 -0.06884759 -0.06890054 -0.06895626 -0.06901533 -0.0690781 -0.06914499 -0.069217
 -0.06929208 -0.06936993 -0.06944703 -0.06952211 -0.06959321 -0.06965949 -0.06972122 -0.06977839 -0.06983098 -0.06987902
 -0.06992123 -0.06995758 -0.06998821 -0.07001352 -0.07003706 -0.07005956 -0.07008669 -0.07011849 -0.07015858 -0.07020564
 -0.07025881 -0.07031642 -0.07037561 -0.07043544 -0.07049421 -0.07055072 -0.07060412 -0.07065208 -0.07069285 -0.07072672
 -0.07075217 -0.07077581 -0.0707982 -0.07082818 -0.07086752 -0.07091779 -0.07097978 -0.07104427 -0.07111074 -0.0711666
 -0.07121189 -0.0712418 -0.07125814 -0.07126734 -0.07127152 -0.07128106 -0.07129602 -0.07132209 -0.07135708 -0.07140055
 -0.0714495 -0.07150101 -0.07155202 -0.07159948 -0.07164171 -0.07167654 -0.07170569 -0.07172862 -0.07175007 -0.07177088
 -0.07179509 -0.07182351 -0.07185742 -0.07189707 -0.07194126 -0.07198989 -0.07203901 -0.07208835 -0.07213307 -0.07217352
 -0.07220865 -0.07223955 -0.07226945 -0.07229858 -0.07232942 -0.07236063 -0.07239116 -0.07242014 -0.07244574 -0.07246923
 -0.07249051 -0.07251213 -0.07253536 -0.0725618 -0.07259274 -0.07262668 -0.07266396 -0.07270034 -0.07273517 -0.07276619
 -0.07279292 -0.07281858 -0.07284335 -0.07287224 -0.0729053 -0.07294446 -0.07298981 -0.07304233 -0.07310315 -0.07317618
 -0.0732631 -0.07336914 -0.07349606 -0.07364804 -0.07382814 -0.07404002 -0.07428917 -0.07458051 -0.07491805 -0.07530677
 -0.07574172 -0.07622464 -0.07673973 -0.07728372 -0.07784498 -0.07841956 -0.07901721 -0.07963808 -0.08029996 -0.08100329
 -0.08171991 -0.08244203 -0.08307381 -0.08360665 -0.08394095 -0.08408175 -0.08399084 -0.0836828 -0.08316035 -0.08246304
 -0.08163662 -0.08075643 -0.07991972 -0.07917581 -0.07859823 -0.07818288 -0.07794966 -0.07787156 -0.07794823 -0.0781368
 -0.078436 -0.07876589 -0.07911879 -0.07940119 -0.07960124 -0.07970496 -0.07971169 -0.07968165 -0.07961681 -0.07955943
 -0.07950539 -0.07945424 -0.0794003 -0.07932354 -0.07922342 -0.07908629 -0.07892079 -0.07873422 -0.07853442 -0.07833544
 -0.07813282 -0.07792863 -0.07771446 -0.07748358 -0.07724188 -0.07698714 -0.07673801 -0.07649788 -0.07628293 -0.07609652
 -0.07594469 -0.07582891 -0.07574256 -0.07568525 -0.07563588 -0.07559319 -0.07553475 -0.07546188 -0.07536926 -0.07526124
 -0.0751498 -0.07503781 -0.07493847 -0.07485063 -0.07477868 -0.07471959 -0.07467154 -0.07463257 -0.07460042 -0.07457484
 -0.07455518 -0.07454134 -0.07453342 -0.07453004 -0.07453099 -0.07453469 -0.07454074 -0.07454929 -0.07456031 -0.07457403
 -0.07459047 -0.07460723 -0.07462414 -0.07463808 -0.07464937 -0.07465812 -0.07466476 -0.07467102 -0.07467682 -0.07468247
 -0.07468879 -0.07469643 -0.07470846 -0.07472881 -0.07475878 -0.07480241 -0.07485381 -0.07491265 -0.07496767 -0.07501466
 -0.07504682 -0.07506046 -0.07505981 -0.07504406 -0.07502513 -0.07500399 -0.07499069 -0.0749858 -0.07499032 -0.0750037
 -0.07501929 -0.07503671 -0.07504997 -0.07506008 -0.07506721 -0.07507288 -0.07508104 -0.07509182 -0.07510752 -0.07512682
 -0.07514918 -0.07517313 -0.07519756 -0.07522093 -0.07524266 -0.07525986 -0.07527147 -0.07527513 -0.07526948 -0.07525671
 -0.0752363 -0.07521571 -0.07519551 -0.07518261 -0.0751774 -0.07518057 -0.07519175 -0.07520615 -0.07522348 -0.07523939
 -0.0752544 -0.07526803 -0.07528074 -0.07529376 -0.07530632 -0.07531777 -0.07532726 -0.07533286 -0.07533637 -0.07533812
 -0.07534122 -0.07534807 -0.07535816 -0.07537267 -0.07538684 -0.07539947 -0.07540833 -0.0754123 -0.07541529 -0.07541744
 -0.07542374 -0.07543447 -0.0754504 -0.07547132 -0.07549457 -0.07551985 -0.07554413 -0.07556731 -0.07558729 -0.07560439
 -0.07561828 -0.07562942 -0.07563833 -0.07564542 -0.07565115 -0.07565644 -0.07566192 -0.07566915 -0.07567955 -0.07569256
 -0.07570903 -0.07572492 -0.07573943 -0.07574926 -0.07575317 -0.07575387 -0.07575124 -0.0757512 -0.0757541 -0.07576177
 -0.07577386 -0.0757859 -0.07579745 -0.07580318 -0.07580432 -0.07580201 -0.075799 -0.07580296 -0.07581422 -0.07583851
 -0.07587028 -0.07590622 -0.07593904 -0.07596041 -0.07597072 -0.07596568 -0.07595584 -0.0759437 -0.07593944 -0.07594731
 -0.07596634 -0.07599797 -0.07603235 -0.07606864 -0.07609934 -0.07612393 -0.07614338 -0.076158 -0.07617282 -0.07618767
 -0.07620419 -0.07622138 -0.0762362 -0.07624815 -0.07625394 -0.07625474 -0.07625054 -0.07624385 -0.07623737 -0.0762336
 -0.07623588 -0.07624419 -0.0762604 -0.07628028 -0.07630318 -0.07632358 -0.07633951 -0.07634973 -0.07635304 -0.0763545
 -0.07635429 -0.07635907 -0.07636929 -0.07638621 -0.07640941 -0.07643276 -0.07645553 -0.07646955 -0.07647572 -0.07647244
 -0.07646242 -0.07645156 -0.07644168 -0.07643924 -0.07644287 -0.07645386 -0.07646959 -0.0764881 -0.07650852 -0.07652975
 -0.07655199 -0.07657547 -0.07659875 -0.07662189 -0.07664171 -0.07665772 -0.07666748 -0.07667048 -0.07666794 -0.0766599
 -0.07665118 -0.076642 -0.07663653 -0.07663449 -0.07663597 -0.0766405 -0.07664602 -0.07665295 -0.07666106 -0.07667142
 -0.07668621 -0.07670516 -0.07672929 -0.07675659 -0.07678591 -0.07681506 -0.07684237 -0.076867 -0.076888 -0.07690623
 -0.07692169 -0.07693551 -0.07694804 -0.07695913 -0.07696889 -0.07697588 -0.07698004 -0.07698081 -0.07697832 -0.07697484
 -0.07697061 -0.07696866 -0.07696854 -0.07697013 -0.07697278 -0.07697421 -0.07697541 -0.07697646 -0.07698022 -0.07699078
 -0.07700823 -0.07703549 -0.077067 -0.07710067 -0.07713103 -0.07715422 -0.07717257 -0.07718509 -0.07719936 -0.077217
 -0.07724005 -0.07726946 -0.07729905 -0.07732854 -0.07734998 -0.07736326 -0.07736555 -0.07735756 -0.07734226 -0.07732097
 -0.0773003 -0.07728123 -0.07726996 -0.07726597 -0.07727173 -0.07728471 -0.07730334 -0.0773239 -0.07734268 -0.07735758
 -0.07736515 -0.07736911 -0.0773689 -0.07737342 -0.07738512 -0.07740937 -0.07744879 -0.07749669 -0.07755328 -0.07760483
 -0.07765044 -0.07768324 -0.07770351 -0.07771607 -0.0777218 -0.07772947 -0.0777385 -0.07775161 -0.07776652 -0.07777842
 -0.07778616 -0.07778453 -0.07777587 -0.07776017 -0.07774215 -0.07772592 -0.07771428 -0.07771077 -0.07771367 -0.07772386
 -0.0777362 -0.07774998 -0.07775877 -0.07776117 -0.07775393 -0.07773614 -0.07771116 -0.07767907 -0.07764649 -0.07761359
 -0.07758366 -0.07755642 -0.07753145 -0.0775088 -0.07748859 -0.07747108 -0.07745716 -0.07744668 -0.07743978 -0.07743622
 -0.07743568 -0.07743814 -0.07744372 -0.07745159 -0.07746174 -0.07747188 -0.07748158 -0.07748713 -0.07748757 -0.07747954
 -0.07746183 -0.07743551 -0.07739993 -0.07736376 -0.07732747 -0.07730021 -0.07728202 -0.07727277 -0.0772712 -0.0772679
 -0.07726223 -0.07724582 -0.07722048 -0.07718593 -0.07714596 -0.07710727 -0.07707264 -0.07704941 -0.07703546 -0.07703296
 -0.0770345 -0.07703642 -0.07703277 -0.07701888 -0.07699767 -0.07696821 -0.07693812 -0.07690895 -0.07688379 -0.07686355
 -0.07684518 -0.07682857 -0.07680974 -0.07678871 -0.07676616 -0.07674281 -0.07672429 -0.07671101 -0.07670835 -0.07671452
 -0.07672818 -0.07674589 -0.07676074 -0.07677022 -0.0767679 -0.07675398 -0.07672569 -0.07668646 -0.07663654 -0.0765826
 -0.07652737 -0.07647576 -0.07643077 -0.07638936 -0.07635225 -0.07631072 -0.07626358 -0.07620711 -0.07614072 -0.07607204
 -0.07600164 -0.075941 -0.07588987 -0.07585215 -0.07582585 -0.07580459 -0.07578676 -0.07576387 -0.07573741 -0.07570554
 -0.0756719 -0.07564127 -0.07561389 -0.07559304 -0.07557355 -0.07555347 -0.07552773 -0.07549297 -0.07544951 -0.07539617
 -0.07533717 -0.07527289 -0.07520806 -0.07514329 -0.07508167 -0.07502347 -0.07496936 -0.0749194 -0.07487457 -0.07483547
 -0.0748076 -0.07479137 -0.0747931 -0.07480952 -0.07483702 -0.07486717 -0.07488233 -0.07487675 -0.07483214 -0.07475688
 -0.07464958 -0.07452685 -0.07439902 -0.07427579 -0.0741652 -0.07406557 -0.07397854 -0.07389843 -0.07382406 -0.07375398
 -0.07368746 -0.0736283 -0.07357668 -0.073536 -0.07350628 -0.07348756 -0.07347881 -0.07347322 -0.07346783 -0.07344594
 -0.07340566 -0.0733301 -0.07322632 -0.07309796 -0.07295698 -0.07282189 -0.07269724 -0.07259499 -0.07251178 -0.07244945
 -0.07240228 -0.07236902 -0.0723423 -0.07232064 -0.07229453 -0.07226222 -0.07221557 -0.0721532 -0.07207223 -0.0719722
 -0.07185662 -0.07172593 -0.07159 -0.07144964 -0.07131629 -0.07118961 -0.07107449 -0.07096941 -0.0708727 -0.07078323
 -0.0706986 -0.07061671 -0.07053464 -0.07044835 -0.07035201 -0.07024673 -0.07012906 -0.07000966 -0.06989229 -0.06978496
 -0.06969292 -0.06960978 -0.06953641 -0.06945811 -0.06937294 -0.06927275 -0.06915645 -0.06902931 -0.06889169 -0.06875204
 -0.06860958 -0.0684618 -0.06830663 -0.06813167 -0.06793947 -0.06772894 -0.06750809 -0.06729343 -0.06708695 -0.06690115
 -0.0667268 -0.06656049 -0.06639137 -0.06620923 -0.06601531 -0.06580529 -0.06559201 -0.06537879 -0.06517387 -0.06498234
 -0.06479002 -0.06459863 -0.06436643 -0.06409045 -0.06373804 -0.06330919 -0.06282692 -0.06229413 -0.0617491 -0.06118608
 -0.06060036 -0.05998114 -0.05929282 -0.0585329 -0.05767444 -0.05673309 -0.05571376 -0.05464621 -0.05355889 -0.05247708
 -0.05142891 -0.05041532 -0.04944669 -0.04850478 -0.04758194 -0.04668461 -0.04580646 -0.04499746 -0.04426362 -0.04363708
 -0.04312209 -0.04270156 -0.0423745 -0.04211691 -0.04192889 -0.04180263 -0.04173765 -0.04172884 -0.04177237 -0.04185682
 -0.04197294 -0.04209989 -0.0422231 -0.04231142 -0.04236254 -0.04235941 -0.04231631 -0.04223889 -0.04213462 -0.04201053
 -0.04186101 -0.04168639 -0.04147882 -0.04123908 -0.04094802 -0.04060736 -0.04016144 -0.03960604 -0.03889734 -0.03803632
 -0.03710086 -0.03609837 -0.03513587 -0.03420123 -0.0332933 -0.03239468 -0.0314507 -0.0304574 -0.02938152 -0.0282236
 -0.02697852 -0.02562477 -0.02415115 -0.02250468 -0.0206414 -0.01854508 -0.01616389 -0.01363457 -0.01096806 -0.008374542
 -0.005909048 -0.003644622 -0.001606171 0.0002570533 0.001945161 0.003540444 0.005048307 0.006583285 0.008155663 0.009921137
 0.01186413 0.01401799 0.01630791 0.01850536 0.02059793 0.02242397 0.02407127 0.0256017 0.02707661 0.02859045
 0.03013917 0.03174979 0.03340079 0.03508429 0.03680125 0.03855663 0.04032164 0.0420958 0.04382574 0.04549977
 0.04712808 0.04871012 0.0502731 0.05181624 0.0532737 0.05463896 0.05581681 0.05681738 0.05763813 0.0582987
 0.05886262 0.05933092 0.05973975 0.06007369 0.06031653 0.06048227 0.06057209 0.06062086 0.0606566 0.06068916
 0.06073602 0.06077427 0.06080119 0.06079262 0.06073959 0.0606476 0.06051243 0.06037675 0.06024287 0.06016236
 0.06013646 0.06014624 0.06018462 0.06017367 0.06011051 0.0599424 0.05966804 0.05925693 0.05870664 0.05799071
 0.05712588 0.05611666 0.05500296 0.05382567 0.05261556 0.0514042 0.05021385 0.04905274 0.04797202 0.04698559
 0.04614834 0.0454817 0.04497285 0.04462745 0.04438583 0.04424335 0.04416071 0.04413638 0.0441711 0.04426692
 0.04444471 0.04470506 0.04506213 0.04551382 0.04606067 0.04670095 0.04743169 0.04825095 0.04915758 0.05014181
 0.05119823 0.05230387 0.05344385 0.05459309 0.05573336 0.05686042 0.05796364 0.0590707 0.06018353 0.06133851
 0.06254343 0.06379951 0.06510887 0.06644034 0.06779271 0.06916043 0.07054479 0.07196753 0.07341445 0.07483073
 0.07618622 0.07734188 0.07831075 0.07904119 0.07958782 0.0800157 0.08035 0.08065017 0.08089508 0.0810881
 0.08120663 0.08123904 0.0811763 0.08101477 0.08074097 0.08034624 0.07985248 0.07925578 0.07863172 0.07798961
 0.07732141 0.07662597 0.07581989 0.074901 0.07381652 0.07257144 0.07116389 0.06960011 0.06790637 0.06606923
 0.06408401 0.06190658 0.05944658 0.05673669 0.05371474 0.05061757 0.04761248 0.04481091 0.04236334 0.04009718
 0.03798314 0.03589063 0.03376824 0.03164432 0.02951199 0.02744503 0.02545211 0.02353194 0.0216842 0.01985747
 0.01805209 0.01625241 0.0144668 0.01273362 0.01105636 0.009471942 0.007966448 0.00653014 0.005142431 0.003767122
 0.002392786 0.0009964806 -0.0004342623 -0.001905951 -0.003458427 -0.005114258 -0.006897202 -0.008857477 -0.0108271 -0.01279625
 -0.01451108 -0.01590816 -0.01704499 -0.01791325 -0.01871612 -0.01946324 -0.02025543 -0.02108806 -0.02194069 -0.02280508
 -0.02362252 -0.02439935 -0.02512855 -0.02581432 -0.02647231 -0.02707897 -0.02760799 -0.02803086 -0.02829794 -0.02842184
 -0.02839137 -0.0282393 -0.02798345 -0.02763069 -0.02719215 -0.0266458 -0.02599518 -0.02518491 -0.02421516 -0.02297666
 -0.02145831 -0.01959219 -0.01737637 -0.01501214 -0.01252283 -0.01025551 -0.008203371 -0.006508717 -0.005141767 -0.004076242
 -0.003293561 -0.002746973 -0.002410499 -0.002234354 -0.002171389 -0.002159287 -0.0021455 -0.002063669 -0.001912724 -0.001656142
 -0.001380173 -0.001109335 -0.000897665 -0.0007725394 -0.0007000559 -0.0006815041 -0.000663208 -0.0006395545 -0.0005872492 -0.000504999
 -0.0004073458 -0.0002954069 -0.0001883306 -8.355365E-05 2.244797E-05 0.0001354105 0.0002762944 0.0004497752 0.0006777621 0.0009594286
 0.001302302 0.001706245 0.002169569 0.002705621 0.003321849 0.004034951 0.004859638 0.005789301 0.006828939 0.007951048
 0.009147412 0.01041332 0.01174268 0.0131726 0.01470706 0.01636142 0.01813632 0.01993713 0.02175474 0.02344501
 0.02501065 0.02639381 0.02760498 0.02865522 0.02953953 0.030256 0.03078613 0.0310987 0.0311829 0.03101076
 0.0305911 0.02991813 0.02901397 0.02788656 0.02655952 0.02503983 0.02335508 0.0215049 0.01955269 0.01750015
 0.01545799 0.01343659 0.01151651 0.009702523 0.007986413 0.006365275 0.004796287 0.003282557 0.001819535 0.0004160822
 -0.0008949148 -0.002116793 -0.003235129 -0.004271417 -0.005251154 -0.006198997 -0.00715297 -0.008125638 -0.009143133 -0.01019443
 -0.0112873 -0.01238379 -0.01347514 -0.01451917 -0.0155017 -0.01641047 -0.01723851 -0.0180071 -0.01871726 -0.01939166
 -0.02003161 -0.02063048 -0.0211864 -0.02167116 -0.02208549 -0.0224175 -0.02267382 -0.02287145 -0.02301665 -0.02313249
 -0.02322196 -0.02329961 -0.02336738 -0.02343315 -0.02349672 -0.02356089 -0.02362303 -0.02368182 -0.02373757 -0.02378899
 -0.0238416 -0.02389607 -0.02395886 -0.024031 -0.02411727 -0.02421812 -0.02433816 -0.02447768 -0.02464019 -0.02482538
 -0.02503091 -0.02525452 -0.02548271 -0.0257109 -0.02591559 -0.02609348 -0.02622349 -0.02630858 -0.02634282 -0.02633395
 -0.02628852 -0.02621249 -0.0261121 -0.02599263 -0.02585656 -0.02571434 -0.02556896 -0.02543359 -0.02531219 -0.02521198
 -0.02513493 -0.02508258 -0.02505518 -0.02505466 -0.02508114 -0.02513613 -0.0252192 -0.02532522 -0.02545264 -0.02558918
 -0.02573381 -0.0258754 -0.02601572 -0.02615296 -0.02629055 -0.02643438 -0.0265839 -0.02674218 -0.02690348 -0.02706422
 -0.02721999 -0.02736656 -0.02750509 -0.02763568 -0.02775727 -0.0278712 -0.02796758 -0.02804535 -0.02809431 -0.02811263
 -0.02810307 -0.0280656 -0.02801527 -0.02795286 -0.02789297 -0.02783505 -0.02778333 -0.02773592 -0.02768822 -0.0276386
 -0.02758112 -0.02751422 -0.02743334 -0.0273357 -0.02721612 -0.02707352 -0.02690388 -0.02671215 -0.02649913 -0.02627224
 -0.0260349 -0.02578984 -0.02553849 -0.02528105 -0.02501687 -0.02475264 -0.02448847 -0.02423623 -0.02399666 -0.02377657
 -0.02357573 -0.02339187 -0.02322376 -0.02306281 -0.02290751 -0.02274718 -0.02258202 -0.02240543 -0.02222241 -0.02203688
 -0.02185749 -0.02169599 -0.02155832 -0.02145449 -0.02138271 -0.0213454 -0.02133717 -0.02135596 -0.02140016 -0.0214683
 -0.02156366 -0.02168685 -0.02183843 -0.022019 -0.02222233 -0.02244812 -0.02268807 -0.02294185 -0.02320382 -0.02347376
 -0.02374779 -0.02402508 -0.02430053 -0.02457318 -0.02483795 -0.02509454 -0.02533987 -0.02557482 -0.02579906 -0.02601407
 -0.0262216 -0.02642052 -0.02661204 -0.02678988 -0.02695259 -0.02709243 -0.02720631 -0.02729386 -0.02735355 -0.0273938
 -0.02741514 -0.02742658 -0.02742878 -0.02742204 -0.02740589 -0.02737181 -0.0273195 -0.02724182 -0.02714064 -0.02701916
 -0.02687982 -0.02673143 -0.02657282 -0.0264065 -0.02622911 -0.02603655 -0.02582943 -0.02560678 -0.02536995 -0.02512199
 -0.02485423 -0.02456602 -0.02424156 -0.02387581 -0.02346232 -0.0229975 -0.02249124 -0.02194353 -0.02137057 -0.02077328
 -0.02016746 -0.01955399 -0.01894847 -0.01835155 -0.01777617 -0.01722105 -0.01668921 -0.01617672 -0.01567511 -0.01518111
 -0.01468352 -0.01418514 -0.01368287 -0.01318638 -0.01270225 -0.01223936 -0.01180575 -0.01140217 -0.01103163 -0.01068922
 -0.01037475 -0.01008137 -0.009808574 -0.009546641 -0.009294651 -0.009043514 -0.0087925 -0.008541008 -0.008289129 -0.008039731
 -0.007791714 -0.007539119 -0.007279771 -0.007000892 -0.006703144 -0.006380529 -0.006037681 -0.00567978 -0.005311537 -0.00494219
 -0.004570423 -0.004200892 -0.003822559 -0.003431733 -0.003014579 -0.002563043 -0.002075761 -0.001548332 -0.0009952808 -0.0004177064
 0.0001675618 0.0007585487 0.001344505 0.001924654 0.002490084 0.003040514 0.003570668 0.004081343 0.004575849 0.005054832
 0.005522856 0.005979473 0.00642456 0.006860534 0.007290417 0.007719778 0.008157672 0.008605226 0.009067738 0.009540659
 0.01002294 0.01051013 0.0110008 0.01148962 0.01197593 0.01245061 0.01291189 0.01335381 0.01377492 0.01417843
 0.0145643 0.01494172 0.01531123 0.01568273 0.01605607 0.01643593 0.01682006 0.01720246 0.01757961 0.01793896
 0.0182788 0.01859031 0.01887292 0.01912313 0.01933891 0.01951788 0.01965703 0.0197542 0.0198066 0.01981215
 0.01977107 0.01968057 0.01955398 0.0193907 0.01921911 0.01904194 0.01888389 0.01874706 0.0186366 0.01855232
 0.01848846 0.01844442 0.01841379 0.01839553 0.01838177 0.01837226 0.01836134 0.0183515 0.0183455 0.01834326
 0.01834776 0.01835252 0.01835299 0.0183436 0.01831908 0.0182787 0.01822217 0.0181446 0.0180456 0.01791621
 0.01775408 0.01755774 0.01732624 0.01706529 0.01677518 0.01646139 0.01612442 0.01577377 0.01541049 0.01504814
 0.01468546 0.01432519 0.01396355 0.0135906 0.01320604 0.01280336 0.01238714 0.01196054 0.01152782 0.0110935
 0.01066143 0.01023478 0.009817221 0.009411952 0.009017024 0.008634198 0.008252666 0.007871768 0.00747619 0.007064318
 0.006622678 0.006150037 0.005643434 0.005103377 0.004543157 0.003964123 0.003383667 0.002800624 0.002219396 0.001637569
 0.001050062 0.0004568684 -0.000144509 -0.0007530505 -0.001369059 -0.001989711 -0.002615431 -0.003234643 -0.003842109 -0.004423018
 -0.004967813 -0.005476136 -0.00594393 -0.006384182 -0.00679905 -0.007195939 -0.007576296 -0.007940475 -0.008288405 -0.00862629
 -0.008954575 -0.009282993 -0.009611117 -0.009940157 -0.01026858 -0.0105901 -0.01090411 -0.0112055 -0.01149485 -0.01177078
 -0.0120342 -0.01228575 -0.01252612 -0.01275596 -0.01297636 -0.01318713 -0.01339278 -0.01359425 -0.01379879 -0.0140092
 -0.0142276 -0.01445571 -0.01468827 -0.0149251 -0.01515977 -0.01539193 -0.0156134 -0.01582357 -0.01600929 -0.01617091
 -0.01630349 -0.01641116 -0.01650966 -0.01660258 -0.01671025 -0.016829 -0.01696227 -0.01710298 -0.01724257 -0.01737724
 -0.01750115 -0.01761051 -0.01770203 -0.01777087 -0.01781258 -0.01783097 -0.0178239 -0.01780723 -0.01778339 -0.01776612
 -0.01775841 -0.01775813 -0.0177657 -0.01776708 -0.01776175 -0.01774092 -0.01770613 -0.01766627 -0.01762377 -0.01759563
 -0.01758005 -0.01758163 -0.01759509 -0.01761117 -0.01762884 -0.01764212 -0.01765365 -0.0176658 -0.01767444 -0.01767943
 -0.01767083 -0.01764322 -0.01759412 -0.01752033 -0.01742853 -0.0173198 -0.01719784 -0.01706366 -0.01691491 -0.01675141
 -0.01657242 -0.01637803 -0.01617233 -0.01595577 -0.0157342 -0.01550769 -0.01527979 -0.01504989 -0.01481742 -0.01458308
 -0.0143466 -0.01411244 -0.01388633 -0.01367261 -0.01347933 -0.01330275 -0.01314482 -0.01299436 -0.01284696 -0.01269427
 -0.01253175 -0.01236047 -0.01217887 -0.01199559 -0.01181117 -0.01163587 -0.0114706 -0.01131981 -0.01118353 -0.01105784
 -0.01094247 -0.01083301 -0.01073017 -0.01063558 -0.01054887 -0.01047162 -0.01039896 -0.01032282 -0.01023674 -0.01012686
 -0.009993722 -0.009830203 -0.009647101 -0.009448514 -0.009246162 -0.009047939 -0.008854239 -0.008667847 -0.008481783 -0.008294583
 -0.008104101 -0.007909384 -0.007714472 -0.007519584 -0.007327881 -0.007139591 -0.006959177 -0.006787407 -0.006633798 -0.006497908
 -0.006384326 -0.006288696 -0.006200718 -0.006115938 -0.006018928 -0.005911481 -0.005788669 -0.005656145 -0.00551845 -0.00537741
 -0.005236691 -0.005092855 -0.004944356 -0.004791748 -0.004632613 -0.004479021 -0.00433183 -0.004208108 -0.004110787 -0.004045985
 -0.004015121 -0.004005579 -0.004016371 -0.004021611 -0.004019486 -0.003981784 -0.00390954 -0.00378964 -0.003630624 -0.003449947
 -0.003258405 -0.003090408 -0.002941524 -0.00282567 -0.002719245 -0.002603891 -0.00246183 -0.002270043 -0.002038889 -0.001763741
 -0.001471136 -0.001168819 -0.0008737652 -0.0005918986 -0.0003253641 -7.521734E-05 0.0001592631 0.0003782664 0.0005772547 0.0007560962
 0.0009130992 0.001050145 0.001183569 0.001317186 0.001479993 0.001670826 0.001903433 0.002169634 0.002458575 0.002764835
 0.003074925 0.00338951 0.003705787 0.004021053 0.00433419 0.004637983 0.004927814 0.005202982 0.005461081 0.005708729
 0.00594653 0.006181811 0.00641513 0.006656089 0.00690547 0.007171509 0.007454348 0.007747251 0.008048722 0.008340748
 0.008623504 0.008887648 0.00913619 0.009373985 0.009602747 0.009829132 0.01005165 0.01027123 0.01048541 0.01069066
 0.0108896 0.01108013 0.01127472 0.01147871 0.01170137 0.0119513 0.01221142 0.01248254 0.01273095 0.01295052
 0.01313231 0.01327335 0.01340521 0.01352974 0.01369171 0.01389195 0.0141575 0.01448364 0.01486408 0.01528772
 0.01571655 0.01614273 0.01652656 0.01687816 0.01719118 0.01748919 0.01779559 0.0181223 0.01849141 0.01888448
 0.01930492 0.01970926 0.0200857 0.0203955 0.02062332 0.02077619 0.02084865 0.02089164 0.02090884 0.02093989
 0.02098656 0.0210551 0.02114604 0.0212674 0.0214201 0.02161807 0.02185274 0.0221069 0.02236572 0.0225854
 0.02276608 0.02288536 0.02295891 0.0229959 0.02300556 0.02299899 0.02297496 0.02293533 0.02287896 0.02280632
 0.02271422 0.02260211 0.02246666 0.0223057 0.02213144 0.02194376 0.02176997 0.02161159 0.02149699 0.02142721
 0.02142519 0.02148786 0.02161571 0.02179634 0.02199064 0.0221873 0.02233844 0.02245037 0.02250955 0.0225319
 0.02252836 0.02251356 0.02249552 0.02250342 0.02255047 0.02266897 0.02288783 0.02315242 0.02346573 0.02371691
 0.02388139 0.02396546 0.02396441 0.02394988 0.02392516 0.02392753 0.02395583 0.02400996 0.02408668 0.02416978
 0.024256 0.02432574 0.02437869 0.02440335 0.02440431 0.024384 0.0243454 0.02429255 0.02422722 0.02414957
 0.02406866 0.02399027 0.02391564 0.02384981 0.02377552 0.0236871 0.02358688 0.02347023 0.02337924 0.0233178
 0.02330825 0.02335135 0.02340641 0.02346952 0.02348274 0.02344618 0.02333002 0.02313834 0.02286323 0.02252104
 0.02213365 0.0217412 0.02141603 0.02118291 0.02111242 0.02115994 0.0213249 0.02153154 0.02173974 0.02190676
 0.02200824 0.02202875 0.02195663 0.02180856 0.0215781 0.02134327 0.02110854 0.02096507 0.02091748 0.02099161
 0.02118351 0.02145671 0.02180348 0.02216355 0.02253125 0.02285107 0.02313237 0.02336378 0.02356936 0.02378359
 0.02401859 0.02430413 0.02463314 0.02500883 0.02542558 0.02588314 0.02637051 0.02689001 0.02740495 0.02790835
 0.0283674 0.02877298 0.02913297 0.02944625 0.02973798 0.03000946 0.03027546 0.03053646 0.03080382 0.03107573
 0.03135072 0.03162157 0.03186065 0.03206711 0.03222154 0.03233621 0.032423 0.03248947 0.03254846 0.03260344
 0.03265654 0.03272454 0.03282104 0.03294023 0.03309553 0.03322087 0.03330515 0.03328658 0.03314735 0.03290711
 0.03256335 0.03217873 0.03175651 0.03133288 0.03090831 0.03049684 0.03009956 0.02973074 0.02939107 0.02909077
 0.02882938 0.02861266 0.02843529 0.02829582 0.02817711 0.02806008 0.02793107 0.02776956 0.02758278 0.02736988
 0.0271362 0.02688665 0.02660926 0.02629939 0.02596312 0.02559785 0.02523465 0.02487721 0.02453199 0.02419948
 0.02385888 0.02351061 0.0231558 0.02279577 0.02244271 0.02208957 0.02171518 0.02131837 0.02087502 0.02041469
 0.01996886 0.0195776 0.01930671 0.01915345 0.01915323 0.01923881 0.01939505 0.01952732 0.01959253 0.01955555
 0.0193852 0.01915592 0.01886983 0.0186311 0.01845365 0.01834729 0.01831321</values></Ydata></AB><ScSm><Ydata ylabel="Single channel"><values byteorder="INTEL" format="FLOAT32" numvalues="1814"> 0.07144526 0.07144776 0.07151848 0.07168175 0.07190596 0.0721215 0.07227023 0.0723426 0.07235885 0.07232592
 0.07225012 0.07218966 0.07223969 0.07243691 0.07270379 0.07290357 0.07294938 0.07287808 0.07282795 0.0729067
 0.07304989 0.0730386 0.07270539 0.07212523 0.07156536 0.07123657 0.07116283 0.07134014 0.07186407 0.072673
 0.07326828 0.07307445 0.07216292 0.07127917 0.07101417 0.07123715 0.07144906 0.07136098 0.0709821 0.07049648
 0.07030683 0.0709296 0.07248582 0.07427764 0.07503735 0.07372707 0.07028109 0.06583989 0.06232974 0.06143294
 0.06340559 0.06673411 0.06926722 0.06993078 0.06924762 0.06825677 0.06739242 0.06661074 0.0661121 0.06638453
 0.06753235 0.06881785 0.06903923 0.06755699 0.06505291 0.06304714 0.0625097 0.06324865 0.06472161 0.0666324
 0.06811284 0.06724511 0.06294268 0.05734744 0.05488255 0.0580477 0.06475131 0.07035669 0.07181003 0.06935811
 0.06520692 0.0616913 0.0603936 0.06171687 0.06480788 0.06826148 0.07097389 0.0722051 0.07139198 0.06863482
 0.06517868 0.06281391 0.06277879 0.06527466 0.06942475 0.07335137 0.07502435 0.07375859 0.07067348 0.06751098
 0.06548494 0.06527712 0.06720991 0.07091381 0.07530724 0.0792219 0.08187727 0.08295798 0.08268203 0.0816623
 0.08043742 0.07938297 0.07904123 0.0797878 0.080954 0.08107827 0.07949726 0.07722993 0.07592717 0.07616282
 0.0769752 0.07703836 0.07600584 0.07430238 0.07181502 0.0678547 0.06273992 0.05823286 0.05577735 0.05538913
 0.05670283 0.05954714 0.06271671 0.06389 0.06217356 0.05973544 0.0596616 0.0626629 0.06670412 0.06948538
 0.07057074 0.07122789 0.07279205 0.07530135 0.07732788 0.07705344 0.07406975 0.07039785 0.069063 0.07112467
 0.0746566 0.0771198 0.07804401 0.0787486 0.08003585 0.0809481 0.07976478 0.07604162 0.07171374 0.06990711
 0.07221918 0.07711937 0.0810562 0.08108735 0.07686239 0.07070728 0.06580871 0.06400709 0.06529719 0.06903666
 0.07465637 0.08102705 0.08617049 0.08836985 0.08742297 0.08453488 0.08094106 0.07676551 0.07168373 0.06683287
 0.06504285 0.06816528 0.07471177 0.08109261 0.0848177 0.08574425 0.08469217 0.08191215 0.07730143 0.07186782
 0.06822082 0.06855184 0.07199512 0.07510929 0.07547826 0.07391715 0.07271201 0.07277066 0.07327674 0.07343073
 0.07358667 0.07463561 0.076726 0.07891147 0.08006494 0.07991044 0.07907875 0.07837097 0.07802703 0.0775537
 0.07641479 0.07508869 0.07501419 0.0770198 0.08019313 0.08282118 0.08410943 0.08447467 0.08440797 0.08360244
 0.08139803 0.07802977 0.07513918 0.07456236 0.07655726 0.07964009 0.08212848 0.08335234 0.08350014 0.08301334
 0.08228488 0.08152701 0.08083594 0.08047482 0.08081417 0.08180834 0.08286352 0.08343472 0.08347986 0.08320041
 0.08264941 0.08179393 0.08079049 0.08000983 0.07977737 0.08012737 0.08082265 0.08156714 0.08212667 0.08231007
 0.0820322 0.08143894 0.08081494 0.08032599 0.07997291 0.07978169 0.07985547 0.08019438 0.08061005 0.08089025
 0.08096878 0.08089654 0.08072426 0.08046703 0.08014629 0.07982714 0.0796151 0.07959288 0.07972941 0.07988876
 0.07997781 0.08003651 0.08012147 0.0801665 0.08005454 0.07979082 0.07951476 0.07935382 0.07932621 0.07936953
 0.07940015 0.07932726 0.07906252 0.07859604 0.07808337 0.07778342 0.07784979 0.07821522 0.07869773 0.07914512
 0.07945786 0.07958362 0.07955576 0.07946882 0.07936919 0.07921559 0.07896975 0.0786916 0.07852675 0.07859601
 0.07888361 0.07924151 0.0795162 0.07965037 0.07967015 0.07964021 0.07964131 0.07971288 0.07979245 0.07977576
 0.07965264 0.07952988 0.07950988 0.07958517 0.07965921 0.07965201 0.07958251 0.07954334 0.07959524 0.07970904
 0.07981973 0.07990409 0.07998425 0.08007406 0.0801386 0.08011387 0.07998003 0.07980721 0.07969463 0.07966813
 0.07967874 0.07969522 0.07974409 0.07984672 0.07996389 0.08002965 0.08002432 0.07999063 0.07997323 0.07995753
 0.07988851 0.07974574 0.07957537 0.07944268 0.0793746 0.07935335 0.07934531 0.0793239 0.07927489 0.07919315
 0.07907995 0.07894112 0.07878438 0.07862341 0.07848997 0.07842693 0.07844469 0.07848593 0.07845767 0.07831204
 0.07808986 0.07787902 0.07773222 0.07762858 0.07751306 0.07736275 0.07720447 0.07707533 0.07698564 0.07692102
 0.07686275 0.07680191 0.07675184 0.07675365 0.07684888 0.07702744 0.07721394 0.07732776 0.07735667 0.07735808
 0.07739354 0.0774785 0.07759036 0.07770568 0.07782719 0.07797837 0.07816371 0.07833946 0.07845187 0.0785073
 0.07857186 0.0786972 0.07888152 0.0791009 0.07933119 0.07953247 0.07966442 0.07973833 0.07981716 0.07994452
 0.08010189 0.08025016 0.08038497 0.08053049 0.08069992 0.08088805 0.08109591 0.08134085 0.08163582 0.08196496
 0.08228169 0.08253682 0.08272325 0.08289704 0.08313938 0.08348542 0.0838937 0.08428682 0.08461708 0.08489464
 0.08516081 0.08543961 0.08572263 0.086005 0.08631776 0.08669822 0.08713508 0.08757261 0.0879706 0.08833598
 0.08869561 0.08906359 0.0894419 0.08983511 0.0902527 0.0906966 0.09114698 0.09156577 0.09192456 0.09223038
 0.09252028 0.09283596 0.09320207 0.09360634 0.09399088 0.09429073 0.09450701 0.09472159 0.09501036 0.0953573
 0.09568638 0.09596652 0.09624477 0.09657288 0.09693955 0.09729286 0.0976068 0.09790298 0.09821288 0.09853299
 0.0988209 0.09903619 0.09918557 0.09932094 0.09949038 0.09970547 0.09996364 0.1002758 0.1006444 0.1010304
 0.1013747 0.1016457 0.101847 0.1019973 0.1021266 0.1022751 0.1024634 0.1026727 0.1028713 0.1030438
 0.1031842 0.1032931 0.1034018 0.1035652 0.1038062 0.1040933 0.1043954 0.104724 0.1050941 0.1054751
 0.1058272 0.1061692 0.106559 0.1069999 0.1074107 0.1077101 0.1078965 0.1080226 0.1081272 0.1082344
 0.1083902 0.108645 0.1089989 0.1093944 0.1097697 0.110097 0.1103739 0.1106019 0.1107802 0.1109117
 0.1110073 0.1110865 0.1111749 0.1113032 0.1115021 0.1117835 0.1121187 0.1124459 0.1127073 0.1128696
 0.1129115 0.1128203 0.1126212 0.112387 0.1121783 0.1119715 0.1116691 0.1111863 0.1105095 0.1096714
 0.1086986 0.1076051 0.10643 0.1052579 0.1041953 0.1033291 0.1027157 0.1024014 0.1024302 0.1028068
 0.1034536 0.1042199 0.1049401 0.105474 0.1057074 0.1055573 0.1050078 0.1041309 0.1030535 0.1019022
 0.1007739 0.09972727 0.09877814 0.09792407 0.0972043 0.09673547 0.09667223 0.09713188 0.09815696 0.09971964
 0.1017225 0.1039908 0.1063003 0.1084503 0.1103314 0.1119347 0.1133117 0.1145356 0.1156773 0.1167784
 0.117832 0.1188033 0.1196771 0.1204716 0.1212047 0.1218624 0.1224054 0.1227959 0.123023 0.1231115
 0.1231083 0.123055 0.1229816 0.1229182 0.1228865 0.1228646 0.1227774 0.1225351 0.1220862 0.121444
 0.12069 0.1199725 0.1195085 0.1195683 0.1204017 0.1221034 0.1245141 0.1272682 0.1299662 0.1323263
 0.1342279 0.1356823 0.1367874 0.1376715 0.1384376 0.1391403 0.1397991 0.1404209 0.1410107 0.1415732
 0.1421122 0.1426336 0.1431491 0.1436702 0.144191 0.144686 0.1451373 0.1455616 0.1460006 0.1464815
 0.1469902 0.1474861 0.1479467 0.1483897 0.1488421 0.1492977 0.149724 0.1501089 0.1504757 0.1508555
 0.1512636 0.1517012 0.1521557 0.1525946 0.1529826 0.153313 0.153614 0.1539225 0.1542574 0.1546149
 0.1549807 0.15534 0.1556859 0.1560253 0.1563762 0.1567472 0.1571182 0.157451 0.157729 0.1579785
 0.1582449 0.1585487 0.1588716 0.159182 0.1594713 0.1597646 0.1600941 0.1604627 0.1608377 0.1611812
 0.1614832 0.1617627 0.162043 0.1623334 0.1626322 0.1629367 0.1632455 0.1635558 0.1638675 0.1641833
 0.1645032 0.1648201 0.1651275 0.165427 0.1657254 0.1660264 0.1663275 0.1666259 0.1669247 0.1672343
 0.167563 0.1679035 0.1682333 0.1685336 0.1688052 0.1690626 0.169319 0.1695822 0.1698558 0.1701396
 0.1704291 0.1707204 0.1710134 0.1713092 0.1716076 0.1719076 0.1722084 0.1725078 0.172803 0.1730937
 0.1733851 0.1736851 0.1739964 0.1743125 0.174623 0.1749225 0.1752123 0.1754968 0.1757813 0.1760693
 0.1763595 0.1766477 0.1769334 0.1772217 0.1775148 0.1778077 0.1780931 0.1783683 0.178636 0.1789008
 0.179167 0.1794378 0.1797165 0.1800054 0.1803019 0.1805985 0.1808903 0.1811783 0.1814658 0.1817523
 0.1820333 0.182306 0.1825753 0.1828512 0.1831376 0.1834255 0.1837022 0.1839645 0.1842203 0.1844833
 0.184764 0.1850624 0.1853654 0.1856583 0.1859372 0.1862071 0.1864743 0.1867434 0.1870168 0.1872923
 0.1875673 0.1878439 0.188127 0.1884174 0.1887106 0.1890009 0.1892848 0.1895648 0.1898477 0.1901383
 0.190436 0.1907378 0.1910397 0.1913381 0.1916307 0.1919153 0.1921888 0.1924519 0.1927126 0.1929766
 0.1932403 0.1935016 0.1937643 0.1940299 0.1942928 0.1945516 0.1948118 0.1950786 0.1953546 0.1956419
 0.1959406 0.1962466 0.1965546 0.1968578 0.1971498 0.1974317 0.19771 0.1979875 0.1982642 0.1985437
 0.198828 0.1991118 0.1993914 0.1996699 0.1999512 0.2002396 0.2005398 0.2008471 0.2011461 0.2014294
 0.2017055 0.2019837 0.2022664 0.2025516 0.2028333 0.2031061 0.2033754 0.2036507 0.2039294 0.2042042
 0.2044785 0.204757 0.2050371 0.205319 0.2056067 0.2058951 0.2061777 0.2064598 0.2067473 0.207036
 0.2073241 0.2076136 0.2078983 0.2081711 0.2084373 0.2087033 0.2089683 0.2092362 0.2095095 0.2097637
 0.2099376 0.2098934 0.2093007 0.2075054 0.2035142 0.1961983 0.1847496 0.1691977 0.1505757 0.1305482
 0.1107994 0.09260239 0.0767051 0.06343661 0.05287065 0.04492339 0.03941394 0.03618228 0.03521682 0.03677258
 0.04149197 0.05002603 0.06160671 0.07276891 0.07868539 0.07697326 0.06997542 0.06262778 0.05835383 0.05740065
 0.05830445 0.05981084 0.06152327 0.06367601 0.06666739 0.07060793 0.07530311 0.08074321 0.08734095 0.0954059
 0.1045151 0.1136926 0.1222541 0.1303439 0.1385984 0.1473774 0.156386 0.1649649 0.172615 0.1792445
 0.1850614 0.1903428 0.1952799 0.1999623 0.2044327 0.2086836 0.2125655 0.2157516 0.2178915 0.2188714
 0.2189453 0.2185977 0.2182638 0.2181565 0.2183039 0.2186683 0.2192083 0.2198862 0.220674 0.2215541
 0.2225053 0.2234985 0.2245027 0.225486 0.2264189 0.2272879 0.2280952 0.2288425 0.2295281 0.2301549
 0.2307287 0.2312523 0.2317309 0.2321774 0.2326056 0.2330246 0.2334375 0.2338367 0.2342068 0.2345385
 0.2348377 0.2351167 0.235386 0.2356539 0.235924 0.2361913 0.2364497 0.2367017 0.2369544 0.2372118
 0.2374731 0.2377347 0.2379931 0.2382491 0.2385054 0.238758 0.2389984 0.2392285 0.2394611 0.2397012
 0.2399422 0.2401807 0.2404227 0.240672 0.2409215 0.2411608 0.2413893 0.2416205 0.2418697 0.2421367
 0.2424072 0.2426713 0.2429314 0.2431922 0.2434564 0.2437284 0.2440076 0.2442837 0.2445491 0.2448069
 0.2450561 0.2452819 0.2454757 0.2456553 0.2458563 0.2461046 0.2463918 0.2466814 0.246945 0.2471892
 0.247437 0.2476941 0.2479454 0.2481747 0.2483845 0.2486049 0.248871 0.2491826 0.2495032 0.2498102
 0.2501144 0.2504232 0.2507238 0.2510104 0.2512848 0.2515278 0.2517142 0.2518685 0.2520736 0.2524054
 0.2528554 0.2533245 0.2537097 0.2539974 0.2542536 0.2545427 0.254884 0.255239 0.2554954 0.2555413
 0.2554343 0.2554318 0.2557566 0.2563747 0.2570636 0.2576453 0.2580926 0.2584634 0.2588027 0.2590999
 0.2593006 0.259363 0.2593397 0.2594042 0.2597321 0.2603183 0.2609654 0.26149 0.2618718 0.2621745
 0.2624338 0.2626567 0.2627938 0.2626858 0.2622328 0.261693 0.2616097 0.262286 0.2634395 0.2644989
 0.2651668 0.265563 0.2658962 0.2662091 0.2664519 0.2665299 0.266165 0.2650523 0.2634551 0.2623753
 0.2627249 0.2644062 0.2664761 0.2680879 0.2690248 0.2694979 0.2697806 0.2700251 0.2701446 0.2698216
 0.2688635 0.267671 0.2671357 0.2678149 0.2693048 0.2706769 0.2714265 0.2717362 0.2719749 0.2722821
 0.2724744 0.272004 0.2702717 0.2675172 0.2652627 0.2652456 0.2677236 0.2711621 0.27375 0.2749546
 0.2753856 0.2754685 0.2748224 0.2729566 0.2700128 0.266706 0.2640997 0.2634577 0.2654057 0.2688879
 0.2717655 0.2729231 0.2732095 0.2740358 0.2756962 0.2773677 0.2781843 0.2779087 0.2767957 0.275127
 0.2730736 0.2711257 0.2703527 0.2716495 0.2746471 0.2778429 0.2799873 0.2810315 0.2814741 0.2808967
 0.2776698 0.2709139 0.2629521 0.2586682 0.2611933 0.2686295 0.2760906 0.2805081 0.2823098 0.2831217
 0.283589 0.2832004 0.2805874 0.2742723 0.2649989 0.2571972 0.2559849 0.2621058 0.2710903 0.2774278
 0.2783171 0.273962 0.2665899 0.2597935 0.2570595 0.259649 0.2660465 0.2734591 0.2794935 0.282806
 0.2830866 0.2809344 0.2778141 0.2756943 0.2756248 0.2761873 0.2745682 0.2701059 0.2653859 0.2624463
 0.2596322 0.2546683 0.2496506 0.2496588 0.2561464 0.2645082 0.2692544 0.2695699 0.2683272 0.2668576
 0.2626811 0.2530803 0.2402326 0.231307 0.232187 0.241362 0.2512637 0.2556472 0.2545335 0.2520314
 0.2508537 0.2496105 0.2449051 0.2358615 0.2263957 0.2219673 0.2238235 0.2279002 0.2296399 0.227634
 0.2220532 0.21318 0.2040067 0.2011898 0.2094106 0.2256083 0.2413546 0.2497711 0.2480457 0.2359527
 0.216806 0.1994195 0.1938207 0.2023028 0.2166601 0.2257366 0.2243001 0.2140058 0.1986007 0.1813138
 0.166303 0.1591597 0.1635688 0.1775708 0.1936836 0.2026994 0.1987759 0.1839012 0.16817 0.1625284
 0.1688905 0.1788665 0.1831731 0.1800465 0.1739511 0.1697461 0.1698385 0.1738493 0.1790547 0.1829006
 0.1850512 0.1846624 0.1776437 0.1616305 0.1427397 0.13159 0.1322504 0.140125 0.1504856 0.1626941
 0.1746538 0.1799085 0.174901 0.1656911 0.1628105 0.1701006 0.1814349 0.1882591 0.1881147 0.1851029
 0.1835822 0.1834858 0.182533 0.1813575 0.1837058 0.1911798 0.2003493 0.2065606 0.2087843 0.2091572
 0.2093847 0.20946 0.2089009 0.2075409 0.2054615 0.2031163 0.2011957 0.1998916 0.1987419 0.1973382
 0.1953444 0.1915057 0.1839452 0.1728334 0.1620567 0.1562058 0.1557908 0.1574809 0.1590402 0.1606835
 0.1605525 0.1533654 0.1373728 0.1201262 0.1130008 0.1202172 0.1357124 0.1500756 0.157744 0.1574517
 0.1494243 0.1357037 0.1226398 0.1189262 0.1284608 0.146576 0.1650618 0.1792486 0.1884753 0.1921551
 0.1890791 0.1804394 0.1709948 0.1663701 0.1696772 0.1801252 0.1931908 0.2016738 0.1992209 0.18671
 0.1751996 0.1777467 0.1955768 0.2158969 0.2262585 0.2272121 0.2271626 0.2293237 0.2301541 0.2286291
 0.2299196 0.2382795 0.2507371 0.2599901 0.260789 0.2519953 0.2358721 0.2185533 0.2084704 0.2096983
 0.2174982 0.223623 0.2243858 0.2201684 0.2104995 0.1961322 0.1843196 0.1844483 0.1971265 0.2128458
 0.2227925 0.2268933 0.2299004 0.2331541 0.232927 0.2260678 0.2152644 0.20739 0.2066899 0.211046
 0.2155173 0.2175253 0.2169318 0.2131362 0.2054317 0.1961982 0.1909238 0.1934765 0.2021524 0.2113183
 0.2164984 0.217211 0.2156026 0.2137323 0.2122101 0.2103798 0.2076773 0.2053992 0.2064622 0.2121992
 0.2200837 0.2262497 0.2298877 0.2335054 0.2389793 0.244947 0.2484557 0.2482015 0.2458084 0.2444467
 0.2462915 0.2507671 0.2549481 0.2560306 0.2539818 0.2518153 0.2528265 0.2574596 0.2632463 0.267619
 0.2700208 0.2713687 0.27252 0.2735336 0.2736326 0.2717933 0.2681955 0.2650824 0.2651863 0.2690295
 0.2744257 0.2787277 0.2809474 0.281647 0.2815387 0.2807199 0.2790688 0.2769212 0.2750901 0.2742465
 0.2744481 0.2752974 0.2763669 0.2773899 0.2782367 0.2788908 0.2794102 0.2798411 0.2801945 0.2804964
 0.2807731 0.2809797 0.281041 0.2809989 0.2810294 0.2812513 0.2815733 0.2817928 0.2817813 0.2814906
 0.280838 0.279731 0.2782148 0.2764671 0.2746008 0.2725842 0.2704712 0.2686779 0.2678806 0.2685181
 0.2703843 0.2727457 0.2748532 0.2763249 0.2771442 0.2774667 0.2774896 0.2773969 0.2773046 0.2772319
 0.277145 0.277025 0.2768859 0.2767433 0.2766023 0.2764788 0.2764093 0.2764178 0.2764804 0.276531
 0.2764983 0.2763399 0.2760571 0.2756898 0.2752785 0.2748169 0.2742444 0.273495 0.2725566 0.2714871
 0.2703816 0.2693211 0.2683287 0.2673599 0.2663425 0.2652325 0.2640128 0.2626471 0.2610945 0.2593995
 0.2577117 0.2561652 0.2547672 0.2534345 0.2520926 0.2507043 0.2492443 0.2477024 0.2460998 0.2444748
 0.2428541 0.2412446 0.2396379 0.2380126 0.2363419 0.2346072 0.2328065 0.2309499 0.2290489 0.2271052
 0.2250974 0.2229656 0.2206086 0.2179049 0.2147345 0.2109937 0.2066288 0.2016915 0.1963606 0.1908901
 0.1855217 0.1804307 0.1757271 0.1714922 0.1678084 0.1647523 0.1623694 0.1606723 0.1596618 0.1593356
 0.1596806 0.1606672 0.1622393 0.1642957 0.1666895 0.1692519 0.1718195 0.1742523 0.1764655 0.1784633
 0.1803283 0.1821471 0.1839381 0.1856559 0.187256 0.188724 0.1900411 0.1911649 0.1920729 0.1927976
 0.1933956 0.1939022 0.1943299 0.1946888 0.1949929 0.1952564 0.19549 0.1957028 0.1959159 0.196168
 0.1964934 0.1969004 0.1973856 0.1979569 0.1986263 0.1993911 0.2002324 0.2011238 0.2020404 0.2029712
 0.2039233 0.2049125 0.2059653 0.2071277 0.2084538 0.2099754 0.2116883 0.213552 0.2154892 0.2173966
 0.2191717 0.2207399 0.222065 0.2231463 0.2239987 0.2246326 0.2250613 0.2253188 0.2254483 0.2254783
 0.2254208 0.2252819 0.2250634 0.2247665 0.2243995 0.2239741 0.2234999 0.2229927 0.2224771 0.2219717
 0.2214816 0.2210104 0.2205676 0.2201612 0.2197841 0.2194056 0.2189841 0.2185042 0.217995 0.2174942
 0.2170064 0.2165022 0.2159386 0.2152692 0.2144599 0.213508 0.2124345 0.211257 0.2099835 0.2086248
 0.2071956 0.2057061 0.2041545 0.2025305 0.2008275 0.1990452 0.1971693 0.1951637 0.1930185 0.1908018
 0.1886302 0.1865846 0.1846748 0.1828724 0.1811516 0.1795013 0.1779214 0.1764143 0.1749822 0.173629
 0.1723558 0.1711509 0.1699959 0.1688815 0.1678164 0.1668283 0.1659556 0.1652191 0.164596 0.1640441
 0.1635446 0.1631057 0.1627372 0.1624517 0.1622689 0.162185 0.1621413 0.1620536 0.1618754 0.1616261
 0.1613617 0.161124 0.1609218 0.1607511 0.1606062 0.1604546 0.1602213 0.1598159 0.1591606 0.1581933
 0.1568845 0.1552681 0.1534371 0.1515103 0.1496159 0.1478775 0.1463789 0.1451477 0.144177 0.1434375
 0.142864 0.142375 0.1419324 0.1415791 0.1414014 0.1414275 0.1415532 0.1416045 0.1415096 0.1413784
 0.1413941 0.14166 0.1421562 0.1427789 0.1433944 0.1438959 0.1442363 0.1444141 0.1444515 0.1443897
 0.1442646 0.1440767 0.1438068 0.1434512 0.1430243 0.1425471 0.142039 0.141495 0.1408842 0.1401919
 0.1394295 0.1385904 0.1376485 0.136601 0.1354526 0.1341905 0.1328635 0.1316611 0.1308359 0.1305453
 0.1307765 0.1313736 0.1321391 0.1329445 0.1337018 0.1342253 0.1343077 0.1340751 0.1341246 0.1350856
 0.1370188 0.1393419 0.1413331 0.1426176 0.1431889 0.1431559 0.1426122 0.1416365 0.1402449 0.1383811
 0.1360508 0.1333856 0.1305327 0.127616 0.1248132 0.1223047 0.1201611 0.1183822 0.1169737 0.116001
 0.1156023 0.1154083 0.1135931 0.1078371 0.09888965 0.0921663 0.09321041 0.1014625 0.1106324 0.1153472
 0.1154452 0.113782 0.1123344 0.1114059 0.1109026 0.1109648 0.1117089 0.1129788 0.1143821 0.1155354
 0.1163015 0.1167156 0.1166998 0.1158952 0.1136446 0.1091882 0.102263 0.09367839 0.08505636 0.07787706
 0.07281534 0.06977417 0.06820206 0.06741093 0.06691435 0.06664887 0.06687532 0.06785876 0.0696445 0.07210156
 0.0750636 0.0782994 0.08141001 0.0839854 0.08591825 0.08739839 0.08857426 0.0893846 0.08972599 0.08961433
 0.08915065 0.0884458 0.08760497 0.08670856 0.08576247 0.08469884 0.0834994 0.08233617 0.08149263 0.08108757
 0.08097311 0.08095162 0.08096665 0.0810363 0.08114199 0.0812452 0.08133051 0.08142433 0.08161511 0.08199365
 0.08252472 0.083045 0.08341455 0.0836205 0.08374074 0.08381929 0.08374739 0.0833476 0.08267897 0.08209636
 0.08179084 0.08144429 0.08064198 0.07951284 0.07865143 0.07844816 0.07873925 0.07908975 0.07920843 0.079074
 0.07885599 0.07881733 0.07915759 0.07978082</values></Ydata></ScSm><ScRf><Ydata ylabel="Single channel"><values byteorder="INTEL" format="FLOAT32" numvalues="1820"> 0.06081932 0.06097357 0.0610606 0.0610882 0.06108502 0.06109562 0.06116575 0.06131447 0.0615156 0.06170802
 0.06183591 0.06188779 0.0618879 0.06185322 0.06179022 0.06173784 0.06176852 0.0619166 0.06212465 0.0622812
 0.06231305 0.06225112 0.06221006 0.06227485 0.06238566 0.06235887 0.06205977 0.06155738 0.06107883 0.06080091
 0.06074212 0.06089755 0.06134786 0.06204178 0.06255493 0.06239301 0.06161052 0.06084127 0.06059544 0.06077055
 0.06094472 0.06086653 0.06053413 0.0601005 0.05991825 0.060445 0.06179172 0.06334952 0.06401102 0.06287489
 0.05989239 0.05606017 0.05304383 0.05228637 0.05399756 0.05686878 0.05905216 0.05963201 0.05906325 0.05823589
 0.0575131 0.05684792 0.05640996 0.05662242 0.05758025 0.05865384 0.05881637 0.05752859 0.05538405 0.05368271
 0.05323918 0.05387506 0.05512813 0.05675417 0.05800779 0.05723538 0.05350763 0.04868145 0.04657019 0.04931831
 0.05511372 0.05995777 0.06121915 0.05911187 0.05554118 0.05252208 0.05141054 0.0525376 0.05516202 0.05808921
 0.06039305 0.06144697 0.06075843 0.05840053 0.05543661 0.05340461 0.05337106 0.05551211 0.0590741 0.06243946
 0.06386306 0.06276336 0.06010992 0.05739862 0.05566591 0.05549533 0.05716787 0.06036811 0.0641607 0.06753138
 0.06980307 0.07070743 0.0704435 0.06955439 0.06851359 0.06763721 0.06736903 0.06801225 0.06899236 0.06907091
 0.06769495 0.06574253 0.06462212 0.06481755 0.06550418 0.06555177 0.06466658 0.06320703 0.0610678 0.05765786
 0.05325908 0.04938938 0.04728499 0.04695587 0.04809208 0.05055323 0.05330528 0.0543488 0.05290693 0.05083023
 0.05076086 0.05331246 0.05675079 0.05911366 0.06003222 0.06059695 0.06195453 0.06413114 0.06588744 0.06565355
 0.06308451 0.05992987 0.05879525 0.06058513 0.06363511 0.0657618 0.06656796 0.0671946 0.06833091 0.06914528
 0.06815122 0.06497177 0.0612848 0.05978145 0.06181793 0.066056 0.06943521 0.06943571 0.06577516 0.0604743
 0.05628441 0.05478142 0.05594857 0.05923485 0.064163 0.06976594 0.07432854 0.07634661 0.07561797 0.07317012
 0.07008301 0.06648548 0.06210664 0.05793554 0.05643723 0.05923101 0.06502499 0.07069111 0.07405576 0.07498574
 0.07417845 0.07182978 0.06783932 0.06311011 0.05997394 0.06038288 0.06356053 0.06643914 0.06686918 0.06558084
 0.0646124 0.0647677 0.06531027 0.06553191 0.06577569 0.06686182 0.06891346 0.07104902 0.07223405 0.07221958
 0.07158182 0.07105231 0.07085328 0.07053541 0.06961091 0.06852995 0.06862467 0.07065006 0.07374321 0.07630648
 0.07760802 0.07805115 0.0781067 0.07748809 0.07556757 0.0725596 0.07000829 0.06964228 0.07169984 0.0747754
 0.07727802 0.07857743 0.07885915 0.07854696 0.07801497 0.07746778 0.07700187 0.07686263 0.07738361 0.07850376
 0.07965713 0.08033726 0.08051397 0.08037812 0.07997496 0.07927746 0.07845144 0.07786274 0.0778141 0.07831936
 0.07914531 0.08001998 0.08072625 0.08106527 0.08093066 0.0804606 0.07995822 0.07961629 0.0794431 0.07944662
 0.07970573 0.08020794 0.08076458 0.08116719 0.08135445 0.08138511 0.08131839 0.08117261 0.08096769 0.08077303
 0.08070454 0.08084334 0.08113614 0.08142871 0.08164257 0.08185321 0.08212887 0.08236837 0.08240367 0.08222407
 0.08200118 0.08190371 0.08195882 0.08208622 0.08219048 0.082186 0.08199237 0.08160298 0.08117671 0.08097716
 0.08116323 0.08167632 0.08233827 0.08297841 0.08346051 0.08370921 0.08376695 0.08374914 0.08370885 0.08360244
 0.08340017 0.08318081 0.08310187 0.08328246 0.08369885 0.08419216 0.08459188 0.08482383 0.08491238 0.08494227
 0.08502362 0.08520904 0.08541652 0.08550446 0.08544657 0.08537015 0.08540065 0.08551835 0.08559573 0.0855539
 0.08545768 0.08544843 0.08559269 0.0858225 0.08602833 0.08617945 0.08633408 0.08654268 0.08675526 0.08684246
 0.08673249 0.08651087 0.08633739 0.08627758 0.08628052 0.08631343 0.08642557 0.08664602 0.08689095 0.08703395
 0.08704551 0.08701612 0.08703883 0.08710075 0.08710793 0.08699976 0.08681606 0.08665641 0.08659635 0.08664168
 0.08673784 0.08680993 0.08680697 0.08672805 0.08661374 0.08650835 0.08643027 0.08638658 0.08641133 0.08655478
 0.0868053 0.08703934 0.0870963 0.08692629 0.08664748 0.08643898 0.08637719 0.08638436 0.08632769 0.08614902
 0.08589573 0.08565219 0.08546695 0.08533763 0.08523744 0.08514793 0.08508372 0.08509207 0.08520475 0.085371
 0.08546083 0.08537193 0.08513103 0.08486576 0.08468553 0.08461222 0.08460324 0.0846042 0.08459307 0.08460002
 0.08466424 0.08475736 0.08479089 0.08472264 0.08461337 0.08456121 0.08462278 0.08479805 0.0850284 0.08519928
 0.08521529 0.08510091 0.08498266 0.08495744 0.08501685 0.08510283 0.08518651 0.08527207 0.08536232 0.08545522
 0.08556582 0.085726 0.08595397 0.08622579 0.08647943 0.08665559 0.08674894 0.08682494 0.08697525 0.08724327
 0.08758877 0.08792314 0.08818072 0.08836401 0.08852559 0.08870673 0.08890237 0.08909595 0.08930799 0.0895782
 0.08990701 0.09024902 0.09056476 0.0908517 0.09112561 0.09139768 0.09167603 0.09197727 0.09232896 0.09274786
 0.09319976 0.09359415 0.09385148 0.09398186 0.09408428 0.09427126 0.09459179 0.09499453 0.09535085 0.09555431
 0.09563042 0.09571948 0.09592235 0.09619655 0.09644175 0.09665406 0.09693508 0.0973499 0.0978277 0.09822702
 0.09847629 0.09862951 0.09879006 0.09899662 0.09919426 0.09931666 0.09937604 0.09944725 0.0995747 0.09974137
 0.09993944 0.1002157 0.1006047 0.1010525 0.1014528 0.1017449 0.1019417 0.1020832 0.1021964 0.1022851
 0.1023364 0.1023474 0.102358 0.1024212 0.1025313 0.1026184 0.102641 0.1026458 0.1027105 0.1028635
 0.1030877 0.1033663 0.103681 0.1039886 0.104256 0.1045194 0.1048505 0.1052437 0.1055832 0.1057626
 0.1058008 0.1057974 0.1058084 0.1058294 0.1058788 0.1060199 0.1062843 0.1066282 0.1069861 0.1073317
 0.1076721 0.1080057 0.1083048 0.1085276 0.108644 0.1086605 0.1086298 0.1086331 0.1087429 0.1089839
 0.1093153 0.109658 0.1099457 0.1101466 0.1102439 0.1102313 0.1101537 0.1101173 0.1102089 0.1103987
 0.1105516 0.1105419 0.110336 0.1099644 0.1094562 0.1088291 0.1081286 0.1074426 0.1068651 0.1064524
 0.1062227 0.106195 0.1064074 0.1068724 0.1075216 0.1082257 0.1088736 0.1093986 0.1097267 0.109758
 0.1094419 0.108843 0.1081025 0.107349 0.1066575 0.1060458 0.1054801 0.1049182 0.1043969 0.1040667
 0.1041179 0.1046673 0.1057039 0.1070974 0.108637 0.1100972 0.1113266 0.1123034 0.1131069 0.1138291
 0.1145151 0.1151784 0.1158381 0.1165044 0.1171435 0.1177021 0.1181706 0.118589 0.1189918 0.1193756
 0.1197184 0.1200038 0.1202338 0.1204371 0.120645 0.1208393 0.1209516 0.1209403 0.1208413 0.1207208
 0.1205985 0.1204367 0.1201829 0.1198137 0.1193665 0.1189604 0.1187784 0.1189923 0.1196672 0.1207202
 0.1219812 0.1233009 0.1245917 0.1257749 0.1267465 0.1274344 0.1278687 0.1281584 0.1284097 0.1286791
 0.1289804 0.1293012 0.1296175 0.1299112 0.1301837 0.1304567 0.1307588 0.1311007 0.131452 0.1317577
 0.131993 0.1321978 0.1324468 0.1327836 0.1331827 0.1335775 0.1339269 0.1342474 0.1345678 0.13487
 0.135107 0.135275 0.1354325 0.1356439 0.1359352 0.1362948 0.1366793 0.1370205 0.1372676 0.1374359
 0.1375912 0.1377833 0.1380141 0.1382616 0.1385116 0.1387605 0.1390087 0.1392648 0.1395459 0.1398568
 0.1401658 0.1404172 0.1405854 0.1407081 0.1408524 0.1410496 0.1412748 0.1414854 0.1416717 0.1418701
 0.1421295 0.142458 0.1428013 0.1430842 0.1432744 0.143401 0.1435172 0.1436591 0.1438359 0.14404
 0.1442547 0.1444615 0.1446522 0.1448373 0.1450357 0.145255 0.1454835 0.1457049 0.1459153 0.1461226
 0.1463334 0.1465466 0.1467629 0.1469967 0.1472681 0.1475731 0.1478699 0.1481076 0.1482716 0.1483905
 0.1485041 0.1486364 0.1487959 0.1489827 0.1491895 0.1494039 0.1496166 0.1498262 0.1500349 0.1502429
 0.1504479 0.1506504 0.1508552 0.151068 0.1512895 0.1515168 0.1517467 0.1519739 0.1521886 0.1523825
 0.1525583 0.1527313 0.1529193 0.1531279 0.1533439 0.153548 0.1537352 0.1539173 0.1541055 0.1542992
 0.1544926 0.1546852 0.1548811 0.1550809 0.1552792 0.1554711 0.1556579 0.155844 0.1560299 0.1562127
 0.1563933 0.1565782 0.1567721 0.1569738 0.1571787 0.1573826 0.1575825 0.1577785 0.1579738 0.1581725
 0.1583764 0.1585835 0.1587874 0.1589823 0.1591703 0.1593602 0.1595587 0.1597656 0.1599762 0.1601858
 0.1603918 0.1605939 0.1607937 0.160995 0.1612035 0.1614233 0.1616495 0.1618719 0.1620859 0.1622965
 0.1625093 0.1627227 0.1629304 0.1631305 0.1633293 0.1635358 0.1637524 0.1639717 0.1641829 0.1643776
 0.1645549 0.1647241 0.1649016 0.1650972 0.1653044 0.1655084 0.1656966 0.1658647 0.1660205 0.1661814
 0.166361 0.1665582 0.166765 0.166977 0.1671935 0.1674119 0.1676265 0.1678305 0.1680216 0.1682065
 0.1683947 0.1685887 0.1687886 0.1689991 0.1692213 0.1694454 0.1696601 0.1698632 0.1700603 0.1702605
 0.1704721 0.1706944 0.1709193 0.1711408 0.1713567 0.171562 0.1717557 0.1719487 0.1721529 0.1723698
 0.1725937 0.172817 0.1730292 0.1732266 0.1734197 0.1736209 0.173833 0.1740544 0.1742814 0.1745033
 0.174712 0.1749138 0.1751194 0.175332 0.175551 0.1757731 0.1759899 0.1761976 0.1764036 0.176612
 0.1768171 0.1770189 0.1772211 0.1774093 0.1775349 0.1774775 0.1769504 0.1753979 0.1719791 0.1657358
 0.1559822 0.1427457 0.1269055 0.1098748 0.09308616 0.07762885 0.0641462 0.05291407 0.04397852 0.03725232
 0.03258081 0.02983782 0.02901806 0.03033258 0.03432164 0.04153892 0.05133554 0.06077454 0.06576861 0.06430769
 0.05838373 0.05217572 0.04857352 0.04777649 0.04854093 0.04980708 0.05124546 0.0530606 0.05559154 0.05892821
 0.06290278 0.06750944 0.07310189 0.0799416 0.08766529 0.09543999 0.1026795 0.1095037 0.1164623 0.1238783
 0.1315111 0.138794 0.1452899 0.1509133 0.1558409 0.1603093 0.1644803 0.1684293 0.1721936 0.1757692
 0.1790299 0.1817005 0.1834891 0.1843048 0.1843611 0.1840635 0.1837774 0.1836789 0.1837826 0.184051
 0.1844585 0.1849939 0.1856476 0.1864004 0.1872168 0.1880564 0.1888914 0.1897047 0.1904804 0.1912063
 0.191877 0.1924905 0.1930473 0.1935538 0.1940191 0.1944513 0.1948598 0.1952523 0.1956287 0.1959856
 0.1963241 0.1966455 0.1969435 0.197211 0.1974514 0.197677 0.1978993 0.1981226 0.1983427 0.1985548
 0.1987617 0.1989698 0.1991795 0.1993863 0.199588 0.1997859 0.1999824 0.2001816 0.2003862 0.2005914
 0.2007884 0.2009763 0.2011615 0.2013488 0.2015393 0.2017363 0.2019411 0.2021476 0.2023471 0.202538
 0.202728 0.2029245 0.203126 0.2033243 0.2035201 0.2037268 0.2039511 0.2041788 0.2043914 0.2045914
 0.204794 0.2050032 0.2052118 0.2054145 0.2056081 0.205786 0.2059463 0.2061021 0.2062755 0.2064794
 0.2067043 0.2069271 0.2071348 0.2073363 0.2075432 0.2077493 0.2079398 0.2081117 0.2082805 0.2084726
 0.2087051 0.2089655 0.2092219 0.2094613 0.2096963 0.2099334 0.2101646 0.210391 0.2106184 0.2108288
 0.2109932 0.2111249 0.2112932 0.2115652 0.2119334 0.2123104 0.2126088 0.2128223 0.213012 0.2132351
 0.2135066 0.2137923 0.2139982 0.2140327 0.213945 0.2139465 0.2142191 0.2147346 0.2153104 0.2157951
 0.2161563 0.2164389 0.2166917 0.2169195 0.2170747 0.217109 0.2170618 0.2170887 0.2173502 0.2178468
 0.2184073 0.2188651 0.2191909 0.2194346 0.2196323 0.2198021 0.2199107 0.2198189 0.2194254 0.2189348
 0.2188121 0.2193346 0.220278 0.2211566 0.2217062 0.2220233 0.2222929 0.2225603 0.22278 0.2228594
 0.2225554 0.2216145 0.2202671 0.2193637 0.2196736 0.2211099 0.2228729 0.2242484 0.2250552 0.2254692
 0.2257175 0.2259269 0.2260259 0.2257491 0.2249373 0.2239314 0.2234852 0.2240722 0.2253534 0.2265366
 0.2271828 0.2274455 0.2276512 0.2279316 0.2281311 0.227774 0.2263419 0.2240357 0.2221478 0.2221493
 0.2242537 0.2271624 0.2293512 0.230378 0.2307605 0.2308532 0.230326 0.2287584 0.226275 0.2234923
 0.2213164 0.220811 0.2224944 0.2254677 0.2279255 0.2289356 0.229225 0.2299849 0.2314492 0.232906
 0.2336217 0.2334101 0.2325015 0.2311336 0.2294381 0.2278219 0.2271947 0.2283224 0.2308978 0.2336508
 0.2355212 0.2364604 0.2368853 0.2364405 0.2337431 0.2280435 0.2213131 0.2177048 0.2198893 0.2262647
 0.2326793 0.2365149 0.2381245 0.2388877 0.2393514 0.2390775 0.2369034 0.2315826 0.2237592 0.2172066
 0.2162735 0.2215786 0.2293061 0.2347644 0.2355761 0.2319221 0.2257046 0.2199852 0.2177325 0.2200235
 0.2255734 0.2320011 0.2372549 0.2401817 0.2405182 0.2387776 0.2362138 0.2345159 0.2345801 0.2351779
 0.2338929 0.2301687 0.2262346 0.223844 0.2215776 0.2174788 0.2133403 0.2135253 0.2192853 0.2266549
 0.2309059 0.2313484 0.2304728 0.2294252 0.2260462 0.2179711 0.20709 0.1996465 0.2007827 0.2092024
 0.2183271 0.2227408 0.2224978 0.2212015 0.2211927 0.2211601 0.2179906 0.2108381 0.2032014 0.199991
 0.2023084 0.2064639 0.2083488 0.2067094 0.2017103 0.1936245 0.185206 0.1825475 0.1899486 0.2046608
 0.2190307 0.226802 0.2254188 0.214668 0.1975625 0.1821768 0.1777274 0.1863177 0.2003744 0.2096079
 0.209181 0.200581 0.1872225 0.1721089 0.1592363 0.1540472 0.1601804 0.1757732 0.1934541 0.2039913
 0.201406 0.1876512 0.1730636 0.1689346 0.1772096 0.1891127 0.1949592 0.1929376 0.1877573 0.1846023
 0.186149 0.1920422 0.1992643 0.204981 0.208809 0.2096365 0.2025939 0.1849078 0.1636591 0.1511188
 0.1520128 0.1611139 0.1730527 0.1871283 0.2008993 0.2068887 0.2010138 0.1903233 0.1869893 0.1953851
 0.2083493 0.2159454 0.2152942 0.2110887 0.2083648 0.2071542 0.2049805 0.2026378 0.2044015 0.2121157
 0.2219545 0.2286877 0.2311229 0.2316304 0.2321376 0.2326639 0.2326735 0.2319664 0.2306124 0.2290766
 0.2280663 0.2277339 0.2275384 0.2270614 0.2259795 0.2228279 0.2153187 0.203559 0.192089 0.1862779
 0.1866306 0.1891722 0.1913643 0.1935769 0.1935592 0.1848948 0.1654736 0.1444347 0.1355102 0.143752
 0.1617718 0.1781676 0.1862601 0.1846593 0.1738545 0.1564218 0.1397418 0.1336794 0.1425337 0.1609172
 0.1795187 0.1931199 0.20116 0.2032837 0.1983873 0.1878073 0.1765718 0.1705129 0.1727249 0.1822193
 0.1942475 0.2015089 0.1977324 0.1839227 0.1710921 0.1721188 0.1882364 0.2069727 0.2161706 0.2162853
 0.2154159 0.2167082 0.2168187 0.2147842 0.2155454 0.2231863 0.2349392 0.243922 0.2451814 0.237638
 0.2234385 0.2084577 0.2007733 0.2041531 0.2137035 0.2211334 0.2227458 0.2189623 0.2094503 0.1951643
 0.1834996 0.1838417 0.1966989 0.2124939 0.2224478 0.2265711 0.2296554 0.233018 0.2329001 0.2261548
 0.2155046 0.2078631 0.2075085 0.2123515 0.2174834 0.2203505 0.2207876 0.2180936 0.2114701 0.2033537
 0.1994381 0.2037252 0.2143581 0.2253244 0.2318067 0.2331885 0.2316518 0.2293431 0.2269323 0.2237828
 0.2193792 0.2151822 0.2143454 0.2183495 0.2246439 0.2292684 0.2313852 0.2335541 0.2377083 0.2424934
 0.2449192 0.243625 0.240173 0.2376854 0.2383368 0.2416288 0.2447624 0.2450271 0.2423775 0.2397175
 0.2402275 0.2443323 0.2496451 0.25368 0.255875 0.2570784 0.2580965 0.25899 0.259024 0.2572181
 0.2537291 0.2506694 0.2506119 0.2540373 0.2588803 0.2626741 0.2645486 0.2650883 0.2649751 0.2642758
 0.2628481 0.2609854 0.2594233 0.2587613 0.2590359 0.2598667 0.2608454 0.2617176 0.2623731 0.2628239
 0.2631491 0.263394 0.2635545 0.2636511 0.2637253 0.2637509 0.2636587 0.263491 0.2634345 0.2636229
 0.2639658 0.2642415 0.2642985 0.2640828 0.2635282 0.2625636 0.2612454 0.2597554 0.2582073 0.2565593
 0.2548414 0.2534358 0.2529795 0.2538766 0.2559118 0.258379 0.2605735 0.2621517 0.2631207 0.2636383
 0.2638735 0.2639608 0.2639785 0.2639408 0.2638274 0.2636263 0.2633448 0.2629972 0.2626012 0.2621904
 0.2618122 0.2614993 0.2612413 0.2609883 0.2606803 0.2602769 0.2597754 0.259215 0.2586493 0.2580917
 0.2574883 0.2567599 0.2558764 0.2548912 0.2539103 0.2530223 0.2522402 0.2515025 0.2507377 0.2499145
 0.2490182 0.2480111 0.246873 0.2456811 0.2445928 0.2437171 0.243028 0.2424132 0.2417696 0.2410358
 0.2401842 0.2392255 0.2382041 0.2371567 0.236082 0.234958 0.233769 0.2325036 0.2311507 0.2297121
 0.2282034 0.2266367 0.2250198 0.2233669 0.2216802 0.2199085 0.2179359 0.2156195 0.2128349 0.2094996
 0.2055872 0.2011498 0.1963359 0.191366 0.1864626 0.1817898 0.1774549 0.1735498 0.1701689 0.167396
 0.1652898 0.1638841 0.1631916 0.1632087 0.1639184 0.1652854 0.1672422 0.1696783 0.1724467 0.1753866
 0.1783429 0.1811759 0.1837853 0.186152 0.1883436 0.1904397 0.19245 0.1943167 0.1959841 0.1974346
 0.1986695 0.1996914 0.2005192 0.2011986 0.2017803 0.2022898 0.2027262 0.2030914 0.2034052 0.2036844
 0.2039246 0.2041189 0.2042839 0.20445 0.2046365 0.2048478 0.2050886 0.205377 0.205742 0.2062021
 0.2067398 0.2073093 0.2078746 0.2084339 0.2090088 0.2096284 0.2103294 0.2111568 0.2121459 0.2132998
 0.2145877 0.2159617 0.2173651 0.2187228 0.2199398 0.2209324 0.2216616 0.22213 0.2223625 0.2224009
 0.2222981 0.2220964 0.2218173 0.2214737 0.2210746 0.2206148 0.2200796 0.2194693 0.218804 0.2181049
 0.2173838 0.2166541 0.2159367 0.2152464 0.214578 0.2139196 0.2132745 0.2126587 0.2120773 0.2115159
 0.2109558 0.2103875 0.2098083 0.2092193 0.2086222 0.2080108 0.2073613 0.2066424 0.205834 0.2049282
 0.2039174 0.2027935 0.2015662 0.2002675 0.1989242 0.1975298 0.196056 0.1944883 0.1928383 0.1911165
 0.1893064 0.187381 0.1853497 0.1832845 0.1812876 0.1794299 0.1777228 0.1761393 0.1746482 0.1732304
 0.1718807 0.1706018 0.1693936 0.1682477 0.1671516 0.1660974 0.1650859 0.1641237 0.1632199 0.1623902
 0.1616586 0.1610392 0.1605153 0.1600509 0.1596264 0.1592506 0.1589488 0.1587561 0.1586992 0.1587581
 0.1588541 0.1588998 0.1588577 0.15875 0.158627 0.1585254 0.1584472 0.1583767 0.1583046 0.1582157
 0.1580582 0.1577481 0.1571985 0.1563417 0.1551513 0.1536599 0.1519434 0.1500975 0.1482418 0.1465154
 0.1450336 0.1438565 0.1429888 0.1423738 0.141903 0.1414865 0.1411265 0.1409048 0.1409033 0.141117
 0.1414173 0.1416247 0.1416665 0.141648 0.1417525 0.1421049 0.1427197 0.1435075 0.1443181 0.145024
 0.1455712 0.145951 0.1461738 0.1462773 0.1463051 0.1462672 0.1461562 0.1459771 0.1457358 0.1454325
 0.1450767 0.1446699 0.1441888 0.1436184 0.1429657 0.1422266 0.141392 0.1404729 0.1394556 0.1382878
 0.1370085 0.135848 0.1351164 0.1350053 0.1354915 0.1363679 0.1373842 0.1384086 0.1393922 0.1401736
 0.1405179 0.1404973 0.1406829 0.1417376 0.1437812 0.14625 0.1483991 0.1498465 0.1505971 0.150734
 0.1502917 0.1493258 0.1478742 0.1459002 0.1434144 0.1405563 0.1374788 0.1343108 0.1312542 0.1285283
 0.1262357 0.1243955 0.1230061 0.1220886 0.1217375 0.121554 0.1196371 0.113571 0.1041808 0.09719626
 0.09842578 0.1072132 0.1169067 0.121879 0.1219968 0.1202775 0.1187917 0.1178401 0.1173128 0.1173626
 0.1181187 0.1194196 0.1208614 0.1220429 0.1228028 0.1231802 0.123133 0.1223036 0.119958 0.1152378
 0.1078453 0.09865128 0.08941638 0.08176917 0.07645012 0.07331665 0.07172631 0.07091913 0.07036994 0.07002147
 0.07019167 0.07120977 0.07314129 0.07583262 0.07907518 0.08259107 0.08595427 0.08876222 0.09092876 0.09265669
 0.09409846 0.0951775 0.09575011 0.09580109 0.09543894 0.0947998 0.09400823 0.0931583 0.09225251 0.09119566
 0.08995584 0.0887323 0.08784541 0.08743172 0.08734863 0.08738148 0.08742075 0.08743733 0.08742002 0.08736983
 0.08729773 0.08724409 0.08731443 0.08761324 0.08810562 0.08861093 0.08895687 0.08910838 0.0891493 0.08913092
 0.08893007 0.0883633 0.08751606 0.08676998 0.08631369 0.08581124 0.08483236 0.08349952 0.08242851 0.08206373
 0.08229023 0.08266992 0.082848 0.08272045 0.08242727 0.08228822 0.08258101 0.08321844 0.08373272 0.08372282
</values></Ydata></ScRf><Data_Parameters_AB><parameter name="DPF">1</parameter><parameter name="NPT">3497</parameter><parameter name="FXV">3996</parameter><parameter name="LXV">500</parameter><parameter name="CSF">1</parameter><parameter name="MXY">0.0812390446662903</parameter><parameter name="MNY">-0.0840817466378212</parameter><parameter name="DAT">31/05/2022</parameter><parameter name="TIM">14:33:14.963 (GMT+2)</parameter><parameter name="DXU">WN</parameter></Data_Parameters_AB><AB__Qtest><MainReport name="Quality Test Report"><Header><Line><Legend>Test result ok/not ok [1/0]: </Legend><Value>0</Value></Line><Line><Legend>Method file: </Legend><Value>C:\Users\Public\Documents\Bruker\OPUS_8.2.28\QT\IRBT_v3_default.QT</Value></Line></Header><Matrix><Line><Legend></Legend><Legend>min</Legend><Legend>max</Legend><Legend>measured</Legend></Line><Line><Value>Absorption (X-Range 1):</Value><Value>0.400000</Value><Value>2.000000</Value><Value>0.138587</Value></Line><Line><Value>Noise (X-Range 4):</Value><Value></Value><Value>0.000300</Value><Value>0.000058</Value></Line><Line><Value>Signal/Noise (X-Range 2):</Value><Value>200.000000</Value><Value></Value><Value>62.240196</Value></Line><Line><Value>Signal/Noise (X-Range 3):</Value><Value>40.000000</Value><Value></Value><Value>20.866914</Value></Line><Line><Value>Water vapour (X-Range 5):</Value><Value></Value><Value>0.000300</Value><Value>0.000074</Value></Line><Line><Value>Signal/Water (X-Range 2):</Value><Value>100.000000</Value><Value></Value><Value>48.624899</Value></Line><Line><Value>Signal/Water (X-Range 3):</Value><Value>20.000000</Value><Value></Value><Value>16.302191</Value></Line><Line><Value>Fringes (X-Range 6):</Value><Value></Value><Value>0.000100</Value><Value>0.000077</Value></Line></Matrix></MainReport></AB__Qtest><Data_Parameters_ScSm><parameter name="DPF">1</parameter><parameter name="NPT">1814</parameter><parameter name="FXV">3996.33169228125</parameter><parameter name="LXV">499.541461535156</parameter><parameter name="CSF">1</parameter><parameter name="MXY">0.283589005470276</parameter><parameter name="MNY">0.0352168157696724</parameter><parameter name="DAT">31/05/2022</parameter><parameter name="TIM">14:33:14.963 (GMT+2)</parameter><parameter name="DXU">WN</parameter></Data_Parameters_ScSm><Data_Parameters_ScRf><parameter name="DPF">1</parameter><parameter name="NPT">1820</parameter><parameter name="FXV">4004.04661832813</parameter><parameter name="LXV">495.683998511719</parameter><parameter name="CSF">1</parameter><parameter name="MXY">0.26508828997612</parameter><parameter name="MNY">0.0290180630981922</parameter><parameter name="DAT">31/05/2022</parameter><parameter name="TIM">14:32:48.117 (GMT+2)</parameter><parameter name="DXU">WN</parameter></Data_Parameters_ScRf><Optic_Parameters_Rf><parameter name="APR">0</parameter><parameter name="APT">Open</parameter><parameter name="BMS">KBr</parameter><parameter name="DTC">RT-DLaTGS_IR-Biotyper [Microplate reader]</parameter><parameter name="HPF">0</parameter><parameter name="LPF">10.0</parameter><parameter name="LPV">4000</parameter><parameter name="PGR">0</parameter><parameter name="RCH">Module port</parameter><parameter name="RDX">0</parameter><parameter name="SRC">MIR</parameter><parameter name="VEL">10.0</parameter><parameter name="SON">Off</parameter></Optic_Parameters_Rf><Acquisition_Parameters_Rf><parameter name="ADT">1</parameter><parameter name="AQM">DD</parameter><parameter name="CFE">0</parameter><parameter name="COR">0</parameter><parameter name="DEL">0</parameter><parameter name="DLY">0</parameter><parameter name="HFW">8000</parameter><parameter name="LFW">0</parameter><parameter name="NSR">32</parameter><parameter name="PLF">AB</parameter><parameter name="RES">6</parameter><parameter name="RGN">-1</parameter><parameter name="STR">0</parameter><parameter name="TCL">MakeCompatibleScalar (0, {WSV=1.000000, ARV=0});</parameter><parameter name="TDL">37</parameter><parameter name="RPO">0</parameter></Acquisition_Parameters_Rf><FT_-_Parameters_Rf><parameter name="APF">B3</parameter><parameter name="HFQ">500</parameter><parameter name="LFQ">4000</parameter><parameter name="NLI">0</parameter><parameter name="PHR">24</parameter><parameter name="PHZ">ML</parameter><parameter name="SPZ">NO</parameter><parameter name="ZFF">1</parameter></FT_-_Parameters_Rf><Optic_Parameters_><parameter name="APR">0</parameter><parameter name="APT">Open</parameter><parameter name="BMS">KBr</parameter><parameter name="CHN">Module port</parameter><parameter name="DTC">RT-DLaTGS_IR-Biotyper [Microplate reader]</parameter><parameter name="HPF">0</parameter><parameter name="LPF">10.0</parameter><parameter name="LPV">4000</parameter><parameter name="PGN">0</parameter><parameter name="RDX">0</parameter><parameter name="SRC">MIR</parameter><parameter name="VEL">10.0</parameter><parameter name="SON">Off</parameter></Optic_Parameters_><FT_-_Parameters_><parameter name="APF">B3</parameter><parameter name="HFQ">500</parameter><parameter name="LFQ">4000</parameter><parameter name="NLI">0</parameter><parameter name="PHR">24</parameter><parameter name="PHZ">ML</parameter><parameter name="SPZ">NO</parameter><parameter name="ZFF">1</parameter></FT_-_Parameters_><Acquisition_Parameters_><parameter name="ADT">1</parameter><parameter name="AQM">DD</parameter><parameter name="CFE">0</parameter><parameter name="COR">0</parameter><parameter name="DEL">0</parameter><parameter name="DLY">0</parameter><parameter name="HFW">8000</parameter><parameter name="LFW">0</parameter><parameter name="NSS">32</parameter><parameter name="PLF">AB</parameter><parameter name="RES">6</parameter><parameter name="SOT">0</parameter><parameter name="TCL">MakeCompatibleScalar (0, {WSV=1.000000, ARV=0});</parameter><parameter name="TDL">37</parameter><parameter name="SPO">0</parameter><parameter name="SGN">-1</parameter></Acquisition_Parameters_><Instrument_Parameters_Rf><parameter name="HFL">15800.168544</parameter><parameter name="LFL">0</parameter><parameter name="LWN">15800.168544</parameter><parameter name="ABP">32197</parameter><parameter name="SSP">1</parameter><parameter name="ARG">2</parameter><parameter name="ASG">2</parameter><parameter name="ASS">32</parameter><parameter name="GFW">16</parameter><parameter name="GBW">16</parameter><parameter name="BFW">0</parameter><parameter name="BBW">0</parameter><parameter name="PKA">7262</parameter><parameter name="PKL">4996</parameter><parameter name="PRA">7452</parameter><parameter name="PRL">5001</parameter><parameter name="P2A">1</parameter><parameter name="P2L">1</parameter><parameter name="P2R">1</parameter><parameter name="P2K">1</parameter><parameter name="DAQ">0</parameter><parameter name="AG2">1</parameter><parameter name="SSM">1</parameter><parameter name="RSN">25809</parameter><parameter name="CRR">0</parameter><parameter name="SRT">1654007568.117</parameter><parameter name="DUR">19.6379852294922</parameter><parameter name="TSC">29.1</parameter><parameter name="MVD">0.285227864980698</parameter><parameter name="AN1">0.225821274743269</parameter><parameter name="AN2">0</parameter><parameter name="VSN">2.485 Apr  4 2017</parameter><parameter name="SRN">0085</parameter><parameter name="CAM">0</parameter><parameter name="INS">IR-Biotyper</parameter><parameter name="FOC">69</parameter><parameter name="RDY">1</parameter><parameter name="ARS">32</parameter></Instrument_Parameters_Rf><Sample_Parameters_><parameter name="BLD"></parameter><parameter name="CNM">Admin</parameter><parameter name="CPY"></parameter><parameter name="DPM"></parameter><parameter name="EXP">IRBT_v3_32Scans.XPM</parameter><parameter name="LCT"></parameter><parameter name="SFM">Microplate, HTS-XT</parameter><parameter name="SNM">220531-1301_AJC34M (D_4)_D11_0b278630-b15a-40d4-af95-7f556a0569d0.0</parameter><parameter name="XPP">C:\Users\Public\Documents\Bruker\OPUS_8.2.28\XPM</parameter><parameter name="IST">OK</parameter><parameter name="CPG">1252</parameter><parameter name="UID">e018f9e4-be98-4aa3-a7b1-a082e4fa853a</parameter></Sample_Parameters_><Instrument_Parameters_><parameter name="HFL">15800.168544</parameter><parameter name="LFL">0</parameter><parameter name="LWN">15800.168544</parameter><parameter name="ABP">32197</parameter><parameter name="SSP">1</parameter><parameter name="ASG">2</parameter><parameter name="ARG">2</parameter><parameter name="ASS">32</parameter><parameter name="GFW">16</parameter><parameter name="GBW">16</parameter><parameter name="BFW">0</parameter><parameter name="BBW">0</parameter><parameter name="PKA">7816</parameter><parameter name="PKL">4988</parameter><parameter name="PRA">8083</parameter><parameter name="PRL">4993</parameter><parameter name="P2A">1</parameter><parameter name="P2L">1</parameter><parameter name="P2R">1</parameter><parameter name="P2K">1</parameter><parameter name="DAQ">0</parameter><parameter name="AG2">1</parameter><parameter name="SSM">1</parameter><parameter name="RSN">13530</parameter><parameter name="CRR">0</parameter><parameter name="SRT">1654007594.964</parameter><parameter name="DUR">19.6379852294922</parameter><parameter name="TSC">29.1</parameter><parameter name="MVD">0.27817302942276</parameter><parameter name="AN1">0.22583218069486</parameter><parameter name="AN2">0</parameter><parameter name="VSN">2.485 Apr  4 2017</parameter><parameter name="SRN">0085</parameter><parameter name="CAM">0</parameter><parameter name="INS">IR-Biotyper</parameter><parameter name="FOC">69</parameter><parameter name="RDY">1</parameter></Instrument_Parameters_><History/></OPUSDataFile>
