<?xml version="1.0" encoding="UTF-8" ?>
<OPUSDataFile><AB><Ydata ylabel="Absorbance Units"><values byteorder="INTEL" format="FLOAT32" numvalues="3497"> -0.08079797 -0.08081313 -0.08082431 -0.08083203 -0.08082772 -0.08081097 -0.08078371 -0.08074692 -0.08071338 -0.08068418
 -0.08067293 -0.08067803 -0.08070219 -0.08074091 -0.08078548 -0.08083186 -0.080869 -0.080897 -0.08091088 -0.08091469
 -0.08090988 -0.0809002 -0.08088852 -0.08087499 -0.08086038 -0.08084361 -0.08082362 -0.08080482 -0.08078688 -0.08078035
 -0.08078627 -0.08081181 -0.0808574 -0.08091395 -0.0809801 -0.08103476 -0.08107808 -0.08109869 -0.08110131 -0.0810964
 -0.0810885 -0.08109517 -0.08111404 -0.08115042 -0.08119693 -0.08124677 -0.08129591 -0.08133847 -0.0813745 -0.08140349
 -0.08142225 -0.08143034 -0.08142173 -0.08139341 -0.08134959 -0.08128856 -0.08122987 -0.08117472 -0.08114509 -0.08114228
 -0.08117466 -0.08124115 -0.08132991 -0.08143776 -0.0815395 -0.08163381 -0.08170108 -0.08174516 -0.08176423 -0.08176517
 -0.08175806 -0.08174882 -0.08174907 -0.08175877 -0.08178396 -0.08181514 -0.08185076 -0.08187594 -0.0818841 -0.08186887
 -0.08182468 -0.08176481 -0.08168854 -0.08162299 -0.08157033 -0.08155554 -0.08158016 -0.08165305 -0.08177283 -0.08192434
 -0.08210228 -0.08226721 -0.08241401 -0.08249934 -0.08252996 -0.08249636 -0.08241701 -0.08231892 -0.08221386 -0.08212873
 -0.08205952 -0.08201447 -0.08197824 -0.08194413 -0.0819027 -0.08184419 -0.08178544 -0.08172563 -0.08169763 -0.08170842
 -0.08176739 -0.08187883 -0.08200911 -0.08215661 -0.08227614 -0.08236776 -0.08242299 -0.08244688 -0.0824673 -0.08248675
 -0.08253161 -0.08259542 -0.08267776 -0.08276662 -0.08284005 -0.08289436 -0.08291344 -0.08290745 -0.08288005 -0.0828376
 -0.08278557 -0.08272338 -0.0826479 -0.08257626 -0.08250791 -0.08247996 -0.08249873 -0.08258901 -0.08275744 -0.08297482
 -0.08324055 -0.08343453 -0.08355247 -0.08349833 -0.08329257 -0.0830216 -0.08270302 -0.08245291 -0.08226355 -0.08217438
 -0.08217037 -0.08224884 -0.08238354 -0.08254819 -0.08270685 -0.08281874 -0.08287247 -0.08283906 -0.0827623 -0.08264807
 -0.08255087 -0.08249117 -0.0824732 -0.08250438 -0.08255196 -0.08261313 -0.0826656 -0.08270769 -0.08274404 -0.08277524
 -0.08281282 -0.08285508 -0.08289731 -0.08293535 -0.08294959 -0.08294031 -0.08289551 -0.08282442 -0.08273581 -0.08264191
 -0.08256108 -0.08250009 -0.08247175 -0.0824746 -0.08251267 -0.08257784 -0.08266938 -0.08277468 -0.0828913 -0.08300579
 -0.08311602 -0.08321016 -0.08328725 -0.08333323 -0.08334719 -0.08331621 -0.08324064 -0.08312403 -0.08296946 -0.082798
 -0.08261331 -0.08243993 -0.08228065 -0.08215521 -0.08206341 -0.08201594 -0.08200537 -0.08202983 -0.08207414 -0.08212624
 -0.08217186 -0.08219742 -0.08220336 -0.08218347 -0.08215548 -0.08212151 -0.08210288 -0.08210477 -0.08213216 -0.08218749
 -0.08225503 -0.08233406 -0.08240359 -0.08246312 -0.08250292 -0.08252488 -0.08253659 -0.08254056 -0.08255143 -0.08256838
 -0.08259729 -0.08263469 -0.08267706 -0.08272193 -0.08276358 -0.08280493 -0.08284372 -0.08289233 -0.08295605 -0.08304829
 -0.08317942 -0.08334063 -0.08353794 -0.08372772 -0.08390497 -0.08402477 -0.08407947 -0.08406925 -0.08399343 -0.08386765
 -0.08369263 -0.08347765 -0.08322792 -0.08298265 -0.08275001 -0.08258626 -0.08248935 -0.08248854 -0.08256332 -0.08269748
 -0.08285505 -0.08297962 -0.08306449 -0.08307352 -0.08304784 -0.08300275 -0.0829663 -0.08296003 -0.0829692 -0.08299763
 -0.08300972 -0.08299831 -0.08294842 -0.08285473 -0.08274487 -0.08261988 -0.08252289 -0.08245515 -0.08244021 -0.08247493
 -0.08255251 -0.08266271 -0.08276322 -0.08284143 -0.08283458 -0.08275684 -0.08259576 -0.08239252 -0.08219855 -0.08202862
 -0.08192191 -0.08185157 -0.08181722 -0.08177756 -0.08171184 -0.08160987 -0.08145767 -0.0812929 -0.08111878 -0.08097567
 -0.08087078 -0.08080275 -0.08077271 -0.08073936 -0.08070097 -0.0806222 -0.08050796 -0.08037729 -0.08023655 -0.08012507
 -0.08003804 -0.07998228 -0.07995187 -0.07993838 -0.07994036 -0.07995486 -0.07997497 -0.07999647 -0.08000537 -0.07999115
 -0.07994879 -0.07987268 -0.07976667 -0.0796332 -0.0794627 -0.07925388 -0.07899825 -0.07869299 -0.07835283 -0.07797829
 -0.0775922 -0.07719585 -0.07681067 -0.07643937 -0.07611184 -0.07583067 -0.07562605 -0.07549134 -0.07542826 -0.07541968
 -0.07543636 -0.0754622 -0.07546773 -0.07543544 -0.07534275 -0.07517102 -0.07489295 -0.07453549 -0.07409311 -0.07363433
 -0.07318119 -0.07275921 -0.07238021 -0.07202793 -0.07170179 -0.07138772 -0.0710844 -0.07079515 -0.07052067 -0.07027674
 -0.07006342 -0.06989203 -0.06975503 -0.06963252 -0.06950534 -0.06930714 -0.06903511 -0.0686378 -0.06816184 -0.06764621
 -0.06713056 -0.0666738 -0.06626433 -0.06591597 -0.06559642 -0.06529488 -0.06498957 -0.06466967 -0.06433698 -0.06398922
 -0.06363768 -0.06328458 -0.06292514 -0.0625596 -0.0621672 -0.06174751 -0.06129307 -0.06080771 -0.06031806 -0.0598277
 -0.05936838 -0.05893584 -0.0585355 -0.05815989 -0.05779751 -0.05744324 -0.0570857 -0.05672242 -0.05634558 -0.05596027
 -0.05556551 -0.05517314 -0.05479134 -0.05441381 -0.05404579 -0.05365179 -0.05322457 -0.05274639 -0.05220882 -0.05166325
 -0.05111188 -0.05062313 -0.05019801 -0.0498409 -0.04954568 -0.04926616 -0.04899794 -0.04869549 -0.04836331 -0.04798745
 -0.04758145 -0.0471641 -0.04674667 -0.04635579 -0.04598502 -0.04564361 -0.04530435 -0.0449534 -0.04456885 -0.04413127
 -0.04365761 -0.04314499 -0.04263023 -0.04212149 -0.04163361 -0.04117095 -0.04072371 -0.0402918 -0.03985737 -0.03941979
 -0.03896924 -0.03850682 -0.03803709 -0.03756096 -0.03708599 -0.03660975 -0.03612879 -0.03564177 -0.0351415 -0.03463591
 -0.03413095 -0.03363835 -0.03317349 -0.03273571 -0.03233188 -0.0319488 -0.03158203 -0.03122284 -0.03086607 -0.03051606
 -0.03017304 -0.02984043 -0.02952039 -0.02919715 -0.02887029 -0.02851061 -0.0281172 -0.0276773 -0.0271943 -0.02668963
 -0.0261685 -0.02566693 -0.02518418 -0.02473877 -0.02432241 -0.02392814 -0.02354787 -0.02316597 -0.02278318 -0.02239264
 -0.02200351 -0.02162069 -0.02124759 -0.02089092 -0.02053486 -0.02017787 -0.01979807 -0.01938887 -0.01894953 -0.01847718
 -0.01799448 -0.01750273 -0.0170236 -0.01655779 -0.01611226 -0.01568671 -0.01528153 -0.01489691 -0.01453499 -0.01419434
 -0.01387345 -0.01356748 -0.01326633 -0.0129661 -0.0126554 -0.01233787 -0.01201196 -0.01168462 -0.01136224 -0.01104128
 -0.01072377 -0.01039729 -0.01005601 -0.009703672 -0.00933692 -0.008981843 -0.008642192 -0.008329201 -0.008045337 -0.00776085
 -0.007474038 -0.007146471 -0.006780756 -0.006380785 -0.00595582 -0.005552023 -0.005173119 -0.004858371 -0.004595865 -0.004383832
 -0.004201665 -0.004017968 -0.003825081 -0.003599173 -0.00335612 -0.003097648 -0.002844065 -0.00260862 -0.002388965 -0.002190075
 -0.00199194 -0.001790938 -0.001574885 -0.001340848 -0.001091196 -0.0008256974 -0.0005514425 -0.0002688484 1.352508E-05 0.0002954242
 0.0005697524 0.0008386192 0.001107521 0.001380001 0.001671749 0.001979369 0.002306661 0.002641017 0.002966219 0.003273396
 0.00354477 0.003787137 0.003997687 0.004191025 0.004374407 0.004552591 0.004729894 0.0049007 0.005063751 0.005219297
 0.005366144 0.005515711 0.00566873 0.005835096 0.006015143 0.006210201 0.006420308 0.006646764 0.006889323 0.007149661
 0.00742326 0.007699024 0.007969235 0.008210715 0.008424489 0.00859734 0.008746941 0.008883725 0.009028541 0.009202689
 0.009403818 0.009642695 0.009886457 0.01012852 0.01033652 0.01049827 0.01062164 0.01070271 0.01078519 0.01087258
 0.01098997 0.01113747 0.01128558 0.01143065 0.01152357 0.01156817 0.0115537 0.01149387 0.01142421 0.01135641
 0.01133422 0.01135542 0.01143926 0.01156837 0.01173428 0.01191694 0.01209754 0.01227317 0.0124335 0.01259789
 0.01277046 0.0129664 0.01319418 0.01343399 0.01368745 0.01390725 0.01408956 0.01420304 0.01424698 0.01423705
 0.01417728 0.0141134 0.01404633 0.01400614 0.01398751 0.01398774 0.01400635 0.01403785 0.01409187 0.01418335
 0.01431008 0.01448419 0.01467321 0.01486065 0.01501456 0.01510669 0.01515581 0.0151538 0.01516084 0.01519001
 0.01527453 0.01542601 0.01561208 0.01583275 0.01602499 0.01618597 0.01627886 0.01630629 0.0162783 0.01620244
 0.01612017 0.0160389 0.01600464 0.01601736 0.01610347 0.0162485 0.01644776 0.01667341 0.01689666 0.01709467
 0.01723763 0.01733227 0.01736745 0.0173811 0.01738075 0.01740632 0.017469 0.01758533 0.01775989 0.01799211
 0.01828228 0.01863069 0.01903722 0.01949686 0.02000613 0.02053142 0.02106322 0.02153542 0.02194142 0.02221897
 0.02238254 0.02242289 0.02238143 0.02231154 0.0222552 0.02228354 0.02239305 0.02261757 0.02289333 0.0232059
 0.02347486 0.02366729 0.02374867 0.02369723 0.023551 0.02330711 0.02304678 0.02277644 0.02255771 0.02239322
 0.0222844 0.02222759 0.02218402 0.02215273 0.02210685 0.02205291 0.02199822 0.0219482 0.02192224 0.02191174
 0.02191797 0.02191548 0.02188133 0.02178741 0.02160334 0.02132458 0.02093402 0.02046281 0.01991283 0.01933193
 0.01872966 0.01814571 0.01758659 0.01707987 0.0166289 0.01624515 0.01592887 0.01565459 0.01541848 0.01516763
 0.01490351 0.01460244 0.01427676 0.01395702 0.01364692 0.0133774 0.01312621 0.01287436 0.01259884 0.01225902
 0.01187102 0.01142353 0.01096962 0.01053053 0.01015228 0.009860071 0.009655814 0.009551865 0.009497812 0.009493028
 0.009455092 0.009376771 0.00919863 0.008918046 0.008551341 0.008105055 0.007658022 0.007214687 0.006843337 0.00653526
 0.006300066 0.006122015 0.005971203 0.005836575 0.00568825 0.005521371 0.005319394 0.005082585 0.004803326 0.0044932
 0.004152105 0.00380483 0.003458123 0.003136784 0.002849163 0.002601278 0.00239717 0.002220931 0.002072217 0.001926797
 0.00178338 0.001622093 0.001442654 0.001234648 0.001000031 0.0007422345 0.0004665788 0.0001922955 -7.607136E-05 -0.0003166279
 -0.000533636 -0.0007212659 -0.0008929442 -0.001060796 -0.001235301 -0.001430479 -0.001643186 -0.001877904 -0.002120341 -0.002366735
 -0.002605471 -0.002831445 -0.00304819 -0.003253989 -0.003466221 -0.003686195 -0.003928868 -0.004194975 -0.004480168 -0.004782788
 -0.00508166 -0.005375596 -0.00564582 -0.005895208 -0.006122355 -0.006333319 -0.006541387 -0.006750019 -0.006971983 -0.007203965
 -0.007448634 -0.007697659 -0.00794689 -0.008186016 -0.008410348 -0.008607022 -0.008770364 -0.00889292 -0.00896768 -0.00901545
 -0.009033687 -0.009078668 -0.009154571 -0.009315286 -0.009563682 -0.009899393 -0.01031723 -0.0107552 -0.01120514 -0.01158671
 -0.01190106 -0.01210315 -0.01221325 -0.01224888 -0.01224485 -0.01226461 -0.01232957 -0.01249744 -0.01274461 -0.01308146
 -0.0134496 -0.01382047 -0.01415723 -0.01443355 -0.01466451 -0.01484789 -0.01500786 -0.01515187 -0.01526266 -0.01534083
 -0.01534577 -0.01527537 -0.01512775 -0.01490803 -0.0146787 -0.014449 -0.0143068 -0.0142512 -0.01433258 -0.01452916
 -0.01482102 -0.01517484 -0.01552565 -0.01585997 -0.01612953 -0.01635857 -0.0165478 -0.01672847 -0.01692411 -0.01712808
 -0.01734805 -0.01755138 -0.01772824 -0.01787445 -0.0179845 -0.0180887 -0.01819022 -0.01829983 -0.01841827 -0.01851438
 -0.01858671 -0.01860608 -0.01857699 -0.01851048 -0.01841372 -0.01831945 -0.01822808 -0.01815806 -0.0181036 -0.01806228
 -0.0180323 -0.01800626 -0.01799747 -0.01800849 -0.01806813 -0.01819246 -0.01840046 -0.01871115 -0.01909484 -0.01955749
 -0.02001785 -0.02046611 -0.02082626 -0.02108669 -0.02124574 -0.02130262 -0.0213358 -0.02135019 -0.02143374 -0.02158181
 -0.02181569 -0.02211812 -0.02243841 -0.02276405 -0.02303515 -0.02326078 -0.02342515 -0.02355161 -0.02366113 -0.02377015
 -0.0239009 -0.0240532 -0.02423556 -0.02443384 -0.02464759 -0.02485267 -0.0250436 -0.02520037 -0.02531587 -0.02540207
 -0.02545703 -0.0255272 -0.02561514 -0.02575593 -0.0259477 -0.02617131 -0.0264208 -0.02664655 -0.02685191 -0.02701881
 -0.02716291 -0.02731463 -0.0274818 -0.02769757 -0.02794549 -0.02822293 -0.02850351 -0.0287628 -0.0289923 -0.02917757
 -0.02932986 -0.02945109 -0.0295473 -0.02962282 -0.02966664 -0.02967735 -0.02964695 -0.02957252 -0.02947559 -0.02935701
 -0.02926858 -0.02921293 -0.02924018 -0.02934683 -0.02954047 -0.02980752 -0.0301038 -0.030415 -0.03068195 -0.03090368
 -0.03104903 -0.03113061 -0.03115106 -0.03112192 -0.03105471 -0.03095216 -0.0308179 -0.0306556 -0.03046439 -0.03025999
 -0.0300445 -0.02983896 -0.02964865 -0.02947636 -0.02932545 -0.02916239 -0.02898567 -0.02873776 -0.02841682 -0.02798372
 -0.02744411 -0.02681158 -0.02609815 -0.02535621 -0.02459227 -0.02385136 -0.02312705 -0.02243019 -0.02174871 -0.02107132
 -0.02039285 -0.01970367 -0.0190075 -0.01830392 -0.01759657 -0.01688722 -0.01617601 -0.0154618 -0.01475212 -0.01404532
 -0.01336754 -0.01271995 -0.01213919 -0.01162751 -0.01121043 -0.01088804 -0.01066461 -0.01053852 -0.01050234 -0.01055348
 -0.01068149 -0.01087801 -0.0111222 -0.01139502 -0.01165745 -0.01188832 -0.01204429 -0.01212245 -0.0121005 -0.01200081
 -0.01182865 -0.01160748 -0.01135147 -0.01105745 -0.01073051 -0.01034657 -0.009901484 -0.009383188 -0.008787813 -0.008135899
 -0.007428058 -0.006711476 -0.005989356 -0.005317705 -0.004698729 -0.004176677 -0.003747746 -0.003424209 -0.003194267 -0.003035649
 -0.002936337 -0.002861849 -0.002815716 -0.002779825 -0.002787527 -0.002848498 -0.003028832 -0.003361311 -0.003917849 -0.004739702
 -0.005844085 -0.007259551 -0.008899823 -0.01076783 -0.01269657 -0.0146718 -0.01653661 -0.01827986 -0.01983406 -0.02120047
 -0.0223998 -0.0234377 -0.02436157 -0.02517304 -0.0259013 -0.02654917 -0.0271346 -0.02766919 -0.02818038 -0.02867914
 -0.02919419 -0.02971706 -0.03025531 -0.03078234 -0.0312854 -0.03174343 -0.03214255 -0.03248311 -0.03276149 -0.03298732
 -0.03316259 -0.03328866 -0.03336674 -0.03338645 -0.03334728 -0.03323612 -0.03305355 -0.03280594 -0.03249998 -0.03218193
 -0.03186344 -0.03161715 -0.03144595 -0.03140018 -0.03146197 -0.03162801 -0.0318667 -0.03213951 -0.03241888 -0.03266823
 -0.03287364 -0.03301589 -0.03309488 -0.03310433 -0.03305578 -0.03295006 -0.03280227 -0.03261513 -0.03239805 -0.03215111
 -0.03189158 -0.03161944 -0.031401 -0.03124341 -0.03127787 -0.03151239 -0.0320764 -0.03295336 -0.03416184 -0.03564716
 -0.03728481 -0.03901142 -0.04065087 -0.04218269 -0.0434988 -0.04463819 -0.04559175 -0.04641957 -0.04715657 -0.04783687
 -0.04848549 -0.04910443 -0.04969959 -0.05026369 -0.05079621 -0.05129194 -0.05175032 -0.05216672 -0.05254072 -0.05287287
 -0.05316378 -0.05342495 -0.05365802 -0.05388042 -0.05409261 -0.05430635 -0.05451962 -0.05473384 -0.054945 -0.05514635
 -0.0553354 -0.05550442 -0.05565806 -0.05579505 -0.0559287 -0.05606636 -0.05621821 -0.05639385 -0.05658254 -0.05678691
 -0.05697707 -0.0571476 -0.05727974 -0.05736828 -0.0574311 -0.0574685 -0.0575192 -0.05758425 -0.0576818 -0.05780867
 -0.05794925 -0.05810118 -0.05824418 -0.05838339 -0.05852178 -0.0586663 -0.05883386 -0.05902137 -0.05923507 -0.05946079
 -0.05968932 -0.05990624 -0.06010003 -0.0602632 -0.06038896 -0.06047866 -0.06052876 -0.06055501 -0.06055677 -0.06056697
 -0.06058881 -0.06065204 -0.06075945 -0.06090962 -0.0611011 -0.06130107 -0.06150729 -0.06168657 -0.0618409 -0.06196003
 -0.06204931 -0.06211745 -0.06216967 -0.06221959 -0.06227032 -0.06233241 -0.06240396 -0.06248891 -0.06257814 -0.06266827
 -0.06274857 -0.06281227 -0.06285907 -0.06288491 -0.06290498 -0.06292011 -0.06295139 -0.06300195 -0.06308027 -0.06318767
 -0.06331035 -0.06344715 -0.06357358 -0.06368975 -0.06378391 -0.06385973 -0.06392679 -0.06398815 -0.06405884 -0.06413579
 -0.0642216 -0.0643089 -0.06438828 -0.06445703 -0.06450699 -0.06454579 -0.06457393 -0.06460486 -0.06464455 -0.06470129
 -0.06477986 -0.06487817 -0.06499753 -0.06512862 -0.06527078 -0.06541388 -0.06555717 -0.06569317 -0.06582168 -0.0659401
 -0.06604908 -0.06615271 -0.06625183 -0.06635307 -0.06645537 -0.0665599 -0.0666637 -0.06676117 -0.0668517 -0.06693065
 -0.06700276 -0.06707014 -0.06713859 -0.06721368 -0.06729412 -0.0673823 -0.06746931 -0.06755304 -0.0676268 -0.06768776
 -0.06774026 -0.06778371 -0.06783035 -0.06788102 -0.06794444 -0.06802056 -0.06810463 -0.06819468 -0.06827255 -0.06833684
 -0.06836964 -0.06837539 -0.06835484 -0.06831887 -0.06828894 -0.06827246 -0.06829127 -0.06833911 -0.06842002 -0.06851985
 -0.0686299 -0.06874333 -0.06885381 -0.06896392 -0.06907366 -0.06918358 -0.0692945 -0.06940173 -0.06950462 -0.06960167
 -0.0696926 -0.06978105 -0.06986713 -0.06995222 -0.07003602 -0.07011627 -0.07019309 -0.07026558 -0.07033461 -0.07040246
 -0.07046916 -0.07053617 -0.0706023 -0.07066642 -0.07072773 -0.07078468 -0.07083806 -0.07088773 -0.07093514 -0.07098108
 -0.07102568 -0.07106927 -0.07111095 -0.07115036 -0.0711883 -0.07122458 -0.07126275 -0.07130302 -0.07134874 -0.07139996
 -0.07145646 -0.07151784 -0.07158067 -0.07164457 -0.07170565 -0.07176463 -0.07182107 -0.07187691 -0.07193591 -0.071999
 -0.07207002 -0.07214609 -0.07222665 -0.07230656 -0.07238164 -0.07245092 -0.07251184 -0.0725693 -0.07262409 -0.07268103
 -0.07274174 -0.07280559 -0.07287299 -0.07294009 -0.07300662 -0.07307051 -0.07313175 -0.07319088 -0.07324804 -0.07330458
 -0.07336076 -0.07341833 -0.0734778 -0.07354182 -0.07361005 -0.07368395 -0.07376067 -0.07383744 -0.0739103 -0.07397369
 -0.07402781 -0.07406969 -0.07410561 -0.07413754 -0.07417094 -0.07420893 -0.07424941 -0.07429274 -0.07433462 -0.07437401
 -0.07441328 -0.07445242 -0.07449719 -0.0745477 -0.07460275 -0.07466162 -0.07471686 -0.07476877 -0.0748143 -0.07485557
 -0.07489761 -0.07494129 -0.07499178 -0.07504641 -0.07510414 -0.07516074 -0.0752113 -0.0752544 -0.07528642 -0.07531138
 -0.07532925 -0.07534741 -0.07536814 -0.07539637 -0.07543416 -0.07548004 -0.07553431 -0.07559304 -0.0756559 -0.07572139
 -0.07578944 -0.07585957 -0.07593142 -0.07600156 -0.07606927 -0.07612891 -0.07618082 -0.07622264 -0.07625616 -0.07628367
 -0.07630756 -0.07633229 -0.07635916 -0.07639173 -0.0764284 -0.0764698 -0.076512 -0.07655331 -0.07659111 -0.07662371
 -0.07665236 -0.07667653 -0.07670076 -0.07672546 -0.07675536 -0.07679097 -0.07683349 -0.07688285 -0.07693384 -0.07698582
 -0.07703023 -0.07706753 -0.07709479 -0.07711437 -0.07713198 -0.07714958 -0.07717455 -0.07720612 -0.07724661 -0.07729383
 -0.07734649 -0.07740287 -0.07746152 -0.077521 -0.07758029 -0.07763861 -0.07769517 -0.07775147 -0.07780755 -0.0778657
 -0.07792642 -0.0779895 -0.07805508 -0.07811979 -0.07818342 -0.07824125 -0.07829316 -0.07833591 -0.07837019 -0.07839726
 -0.0784188 -0.07844076 -0.07846417 -0.07849449 -0.07853074 -0.078574 -0.07862268 -0.07867525 -0.07873157 -0.0787911
 -0.07885388 -0.07892037 -0.07898822 -0.07905725 -0.0791233 -0.07918539 -0.07924138 -0.07929058 -0.07933469 -0.07937375
 -0.0794104 -0.07944474 -0.07947562 -0.07950275 -0.07952235 -0.07953493 -0.07954059 -0.0795413 -0.07954329 -0.07954811
 -0.07956247 -0.07958572 -0.0796202 -0.07966357 -0.07971454 -0.07977048 -0.07982932 -0.07988898 -0.07994778 -0.08000531
 -0.08006089 -0.08011559 -0.08016964 -0.08022338 -0.08027719 -0.0803286 -0.08037756 -0.08041934 -0.08045369 -0.08047643
 -0.08048792 -0.08048947 -0.08048278 -0.0804772 -0.08047412 -0.08048398 -0.08050451 -0.08053691 -0.08057612 -0.08061458
 -0.0806504 -0.0806775 -0.08069985 -0.08071813 -0.08073685 -0.0807592 -0.08078466 -0.08081426 -0.08084442 -0.0808742
 -0.08090312 -0.08093059 -0.08096009 -0.0809919 -0.08102808 -0.08106866 -0.08110896 -0.08114845 -0.08117927 -0.08120187
 -0.08121391 -0.08121738 -0.0812176 -0.08121598 -0.0812186 -0.08122464 -0.08123583 -0.08124982 -0.08126497 -0.08127868
 -0.0812886 -0.08129317 -0.0812903 -0.08128241 -0.08126879 -0.08125661 -0.08124706 -0.08124682 -0.0812574 -0.08127929
 -0.08131291 -0.08135337 -0.08140041 -0.08144863 -0.08149805 -0.08154687 -0.08159578 -0.08164712 -0.08170228 -0.08176637
 -0.08184182 -0.08193579 -0.0820516 -0.08219743 -0.08237506 -0.0825904 -0.08284082 -0.08312681 -0.08344378 -0.08378864
 -0.08416197 -0.08456283 -0.08499481 -0.08545978 -0.08595291 -0.08647471 -0.0870125 -0.08756499 -0.088129 -0.08870419
 -0.0892817 -0.08985671 -0.09037536 -0.09082732 -0.09112608 -0.09127069 -0.09120817 -0.09095323 -0.09050351 -0.08989618
 -0.08917563 -0.08840249 -0.08765758 -0.08698057 -0.08642997 -0.08600726 -0.08572949 -0.08558304 -0.0855695 -0.08566491
 -0.08587073 -0.08613107 -0.08644235 -0.08672613 -0.08697381 -0.08715453 -0.08726667 -0.08733074 -0.08734746 -0.08733016
 -0.0872788 -0.08719854 -0.08709181 -0.08697052 -0.08683462 -0.08669044 -0.08653542 -0.08636654 -0.08618675 -0.08599682
 -0.0858034 -0.08561312 -0.0854253 -0.08524251 -0.08505839 -0.08486999 -0.08467862 -0.08448234 -0.08429334 -0.0841131
 -0.08395129 -0.08380945 -0.08368468 -0.08357684 -0.08347562 -0.08338085 -0.08328716 -0.08319519 -0.08310601 -0.08301981
 -0.08293749 -0.08285955 -0.08278672 -0.08272165 -0.08266915 -0.08263034 -0.08261041 -0.08260294 -0.08260641 -0.08261012
 -0.08260737 -0.08259454 -0.08256749 -0.08253196 -0.08248813 -0.08244317 -0.08239829 -0.08235699 -0.08231962 -0.08228959
 -0.08226712 -0.08225574 -0.0822553 -0.08226503 -0.082284 -0.08230634 -0.08233142 -0.08235351 -0.08237353 -0.08239074
 -0.08240643 -0.08242294 -0.08243953 -0.08245668 -0.08247235 -0.08248479 -0.08249395 -0.08249871 -0.08250194 -0.08250444
 -0.08250839 -0.08251489 -0.08252278 -0.08253229 -0.08254012 -0.08254595 -0.08254778 -0.08254549 -0.08254094 -0.08253454
 -0.08253184 -0.08253299 -0.08254224 -0.08255805 -0.08257769 -0.08259884 -0.08261426 -0.08262388 -0.08262358 -0.08261625
 -0.08260337 -0.08258804 -0.08257324 -0.08256049 -0.08255135 -0.0825465 -0.08254664 -0.08255156 -0.08256184 -0.08257437
 -0.08258922 -0.08260001 -0.08260622 -0.08260227 -0.08258785 -0.08256466 -0.08253346 -0.08250481 -0.08247954 -0.0824689
 -0.08247124 -0.0824877 -0.082514 -0.08254044 -0.08256441 -0.0825759 -0.08257826 -0.08257 -0.08255903 -0.08255122
 -0.0825514 -0.08256548 -0.08258866 -0.08262201 -0.08265404 -0.08268177 -0.08269916 -0.08270364 -0.08270183 -0.0826937
 -0.08269158 -0.08269616 -0.0827127 -0.08274068 -0.08277473 -0.08281383 -0.08284909 -0.08288047 -0.08290295 -0.08291744
 -0.08292375 -0.0829224 -0.08291432 -0.08289955 -0.08287776 -0.08285118 -0.08281992 -0.08279072 -0.08276664 -0.08275456
 -0.08275877 -0.08277826 -0.08281504 -0.08285899 -0.08290929 -0.08295459 -0.08299354 -0.08302063 -0.08303548 -0.08303905
 -0.08303165 -0.08301737 -0.0829967 -0.08297445 -0.08295109 -0.08293086 -0.08291386 -0.0829026 -0.08289646 -0.08289586
 -0.08289922 -0.08290498 -0.08291163 -0.08291721 -0.08292168 -0.08292408 -0.08292635 -0.08292893 -0.08293362 -0.08294126
 -0.08295126 -0.08296397 -0.08297608 -0.08298733 -0.08299455 -0.08299753 -0.08299597 -0.08299008 -0.0829826 -0.08297379
 -0.08296645 -0.08296068 -0.08295838 -0.08295935 -0.08296438 -0.08297252 -0.08298291 -0.08299363 -0.08300197 -0.08300728
 -0.08300745 -0.08300483 -0.08299986 -0.08299547 -0.08299312 -0.08299346 -0.08299716 -0.08300274 -0.08301003 -0.083018
 -0.08302641 -0.08303598 -0.08304675 -0.08305993 -0.08307546 -0.08309292 -0.08311187 -0.08312933 -0.08314523 -0.0831572
 -0.08316658 -0.08317534 -0.083185 -0.08319993 -0.08321857 -0.08324185 -0.08326502 -0.08328437 -0.08329708 -0.08329927
 -0.08329459 -0.08328276 -0.08327065 -0.08326042 -0.08325431 -0.08325367 -0.08325413 -0.08325541 -0.08325355 -0.08324824
 -0.08324152 -0.08323365 -0.08322942 -0.08322851 -0.08323158 -0.08323783 -0.08324425 -0.0832509 -0.08325616 -0.08326092
 -0.08326631 -0.08327223 -0.08327939 -0.08328639 -0.08329225 -0.08329605 -0.08329654 -0.08329497 -0.08329126 -0.08328773
 -0.08328515 -0.08328419 -0.08328546 -0.08328626 -0.08328648 -0.08328259 -0.08327433 -0.08326141 -0.08324408 -0.08322687
 -0.08321044 -0.08320151 -0.08320031 -0.0832119 -0.08323471 -0.08326812 -0.08330855 -0.08334976 -0.08338831 -0.08341698
 -0.08343591 -0.08344194 -0.08343901 -0.08342804 -0.08341403 -0.08339923 -0.08338653 -0.08337744 -0.08337168 -0.08336996
 -0.08336764 -0.08336443 -0.08335483 -0.08333838 -0.08331619 -0.08328886 -0.08326676 -0.08325075 -0.08325259 -0.0832709
 -0.08330762 -0.08335862 -0.08341477 -0.08347191 -0.08351803 -0.08355238 -0.08356845 -0.08356941 -0.08355498 -0.08353078
 -0.08349937 -0.0834669 -0.08343629 -0.08341151 -0.08339459 -0.08338532 -0.0833843 -0.08338839 -0.08339735 -0.08340829
 -0.083421 -0.08343408 -0.08344751 -0.08346128 -0.08347553 -0.08349149 -0.08350891 -0.08352802 -0.08354709 -0.08356182
 -0.08357066 -0.08356778 -0.08355567 -0.08353399 -0.08350854 -0.08348457 -0.08346476 -0.08345328 -0.08344681 -0.08344549
 -0.08344401 -0.08344094 -0.08343271 -0.0834183 -0.08339686 -0.08336785 -0.08333467 -0.08329742 -0.08326341 -0.0832329
 -0.08321101 -0.08319709 -0.08318924 -0.08318616 -0.08318141 -0.08317464 -0.08316101 -0.08314236 -0.0831193 -0.08309487
 -0.08307359 -0.08305614 -0.08304586 -0.08303857 -0.08303361 -0.08302446 -0.08300799 -0.08298147 -0.08294253 -0.08289549
 -0.08284005 -0.08278506 -0.08273139 -0.08268647 -0.08265093 -0.08262572 -0.08261058 -0.08259976 -0.0825928 -0.08258346
 -0.08257217 -0.08255727 -0.08253971 -0.08252124 -0.0825025 -0.08248527 -0.08247025 -0.08245904 -0.08245186 -0.08245018
 -0.08245157 -0.08245606 -0.08245771 -0.08245455 -0.08244045 -0.08241273 -0.08237085 -0.08231333 -0.08224715 -0.08217251
 -0.08209973 -0.0820295 -0.08196868 -0.0819174 -0.08187706 -0.08184749 -0.08182825 -0.08181879 -0.08181722 -0.08182172
 -0.08182664 -0.0818302 -0.08182589 -0.08181451 -0.08179422 -0.08176705 -0.08173447 -0.08169691 -0.0816548 -0.08160908
 -0.08155971 -0.08150954 -0.08145958 -0.08141062 -0.08136336 -0.08131506 -0.08126532 -0.0812135 -0.08115942 -0.08110673
 -0.08105554 -0.08100822 -0.08096432 -0.08092157 -0.08087964 -0.08083557 -0.08079014 -0.08074371 -0.08069769 -0.08065545
 -0.08061646 -0.08058245 -0.08054957 -0.08051536 -0.08047543 -0.08042531 -0.0803662 -0.08029602 -0.08022296 -0.08014844
 -0.08008092 -0.08002274 -0.07997569 -0.07994089 -0.07991141 -0.07988697 -0.07985712 -0.07982162 -0.07977732 -0.07972563
 -0.07967625 -0.07963029 -0.0795993 -0.07957996 -0.07957081 -0.07956411 -0.07954372 -0.07950667 -0.07943904 -0.07935077
 -0.07924441 -0.07913395 -0.07903035 -0.07893699 -0.07886009 -0.07879046 -0.07872736 -0.07865958 -0.07858379 -0.07849985
 -0.07840648 -0.07831435 -0.07822406 -0.07814658 -0.07808223 -0.0780354 -0.07800509 -0.07798678 -0.07797744 -0.07796167
 -0.07793678 -0.07788505 -0.0778111 -0.07771366 -0.07760245 -0.077491 -0.0773827 -0.0772865 -0.07719929 -0.07712156
 -0.07705032 -0.07698452 -0.07692169 -0.07686169 -0.0767991 -0.07673316 -0.07665823 -0.0765732 -0.07647819 -0.07637297
 -0.07626296 -0.07614847 -0.07603519 -0.07592304 -0.07581418 -0.07570773 -0.0756009 -0.0754931 -0.07538074 -0.07526493
 -0.07514627 -0.07502576 -0.07490581 -0.07478468 -0.07466139 -0.074535 -0.07440308 -0.07427078 -0.07413906 -0.07401484
 -0.07390099 -0.07379881 -0.07370993 -0.07362819 -0.07355355 -0.07347571 -0.07339387 -0.07330223 -0.07320078 -0.07309286
 -0.07297868 -0.07286222 -0.07274169 -0.07261083 -0.07246857 -0.07230688 -0.07213004 -0.07194229 -0.07174847 -0.07155811
 -0.07137034 -0.07118846 -0.07100817 -0.07082705 -0.07064398 -0.07045651 -0.07027004 -0.070085 -0.06990924 -0.06974556
 -0.0695918 -0.06945016 -0.0692963 -0.06912886 -0.0689206 -0.06867133 -0.0683927 -0.06808776 -0.0677898 -0.06749669
 -0.06721761 -0.06694523 -0.06666307 -0.06636576 -0.06603342 -0.06566799 -0.06526096 -0.06482445 -0.0643647 -0.0638986
 -0.06344004 -0.06299578 -0.06257598 -0.0621667 -0.06176675 -0.06135904 -0.06093736 -0.06050824 -0.06007103 -0.05963989
 -0.05921627 -0.05879782 -0.05838446 -0.05797361 -0.05756639 -0.05717303 -0.05679242 -0.05642696 -0.0560699 -0.05570215
 -0.05531933 -0.05489973 -0.0544524 -0.0539795 -0.05349386 -0.05301194 -0.05253148 -0.0520579 -0.05157994 -0.05109286
 -0.0505922 -0.05007426 -0.04954461 -0.04900573 -0.04845082 -0.04788333 -0.04725682 -0.04656829 -0.04577155 -0.0448668
 -0.04390443 -0.04289066 -0.04190861 -0.04094958 -0.04001597 -0.03909469 -0.03814611 -0.03716756 -0.03613603 -0.03505024
 -0.03390667 -0.03268208 -0.03136339 -0.02989893 -0.02824621 -0.02638603 -0.02426984 -0.02201436 -0.01962688 -0.0172936
 -0.01506225 -0.01300211 -0.01113537 -0.009423426 -0.007866501 -0.00639976 -0.005018933 -0.003633594 -0.002234774 -0.0006926365
 0.0009829907 0.002835583 0.004804734 0.006717136 0.008555163 0.01017824 0.01165042 0.01300664 0.01429607 0.01558719
 0.01688477 0.0182114 0.01956466 0.02094573 0.02236355 0.02382854 0.02530981 0.02680709 0.0282661 0.02967522
 0.03104194 0.03236535 0.03367351 0.03496595 0.03618982 0.037339 0.0383285 0.03916558 0.03983859 0.04036454
 0.04079099 0.04112558 0.04140874 0.04163629 0.04181489 0.04195153 0.04205054 0.04213312 0.0422169 0.04230912
 0.04242303 0.04253772 0.04265065 0.04273774 0.04279051 0.04281169 0.04279755 0.04278128 0.04276479 0.04278506
 0.04284296 0.04292202 0.04301716 0.04307195 0.04308379 0.0430131 0.04285631 0.0425828 0.04218797 0.04164131
 0.04095726 0.04013615 0.0392139 0.03822701 0.03719996 0.03615964 0.0351212 0.03408798 0.03310861 0.03219274
 0.03140637 0.03077059 0.03029398 0.02998491 0.02980007 0.02973688 0.02975749 0.02986022 0.03003006 0.03026753
 0.03057175 0.0309438 0.0313885 0.03190639 0.03250194 0.03317433 0.03392474 0.03475038 0.03564923 0.03661445
 0.03764101 0.03871545 0.03982891 0.04096547 0.04211452 0.04326991 0.04442416 0.04559128 0.04677132 0.04798719
 0.04924387 0.0505406 0.05187877 0.05323404 0.05460556 0.0559928 0.05739739 0.05884476 0.06032304 0.06179105
 0.06322118 0.06449237 0.06561253 0.06653081 0.0672885 0.06793223 0.06847439 0.068952 0.06934501 0.06964808
 0.06985161 0.06995043 0.06993627 0.06981249 0.06953834 0.06910097 0.06849608 0.06770862 0.06686155 0.06596615
 0.0650756 0.06419116 0.06322382 0.06216946 0.06095268 0.05957949 0.05804209 0.05634905 0.05453181 0.0525764
 0.05047971 0.04819583 0.04562853 0.0428206 0.03971403 0.03656724 0.03356903 0.03082801 0.02850303 0.0263985
 0.02447942 0.02259728 0.02069554 0.01879278 0.01687952 0.01502914 0.01324988 0.01154462 0.009913133 0.008299931
 0.00670386 0.005091517 0.003469699 0.001857063 0.0002609742 -0.001281817 -0.002775145 -0.0042073 -0.005590208 -0.006936688
 -0.008256702 -0.009561422 -0.01086957 -0.01218662 -0.01356494 -0.01503081 -0.01662552 -0.01840599 -0.02021562 -0.02205126
 -0.02364674 -0.02493807 -0.02596877 -0.02672832 -0.02742662 -0.02807361 -0.02878339 -0.02955103 -0.03035803 -0.03119362
 -0.0319859 -0.03274065 -0.03344112 -0.03409481 -0.03472007 -0.03529599 -0.0358021 -0.03620946 -0.03647007 -0.03659584
 -0.03657434 -0.03644208 -0.03621717 -0.0359142 -0.03554614 -0.03509986 -0.03457962 -0.03394469 -0.03319505 -0.03225294
 -0.03111007 -0.02972423 -0.02809436 -0.02637312 -0.0245769 -0.02295346 -0.0214961 -0.02029657 -0.01933158 -0.0185702
 -0.01799879 -0.01757589 -0.01728681 -0.01709821 -0.01698067 -0.01689744 -0.01680624 -0.01666098 -0.01644812 -0.01613305
 -0.0157781 -0.01539639 -0.01504239 -0.01473922 -0.01447065 -0.01424018 -0.0140062 -0.01376486 -0.01349265 -0.01318833
 -0.01286194 -0.01251497 -0.01216993 -0.01182539 -0.01148696 -0.01114791 -0.01078991 -0.01040383 -0.00995906 -0.009452423
 -0.008864488 -0.008198536 -0.007452991 -0.00662504 -0.005712329 -0.004712003 -0.003616938 -0.002445588 -0.001199527 9.102807E-05
 0.00141538 0.002772662 0.004156929 0.005608771 0.007131873 0.00875323 0.01047414 0.01222775 0.01400584 0.0156851
 0.01726485 0.01867941 0.01993359 0.02101495 0.02191496 0.02261105 0.02308653 0.02330184 0.0232552 0.02292397
 0.02232912 0.02147601 0.02039376 0.01909798 0.0176107 0.01594059 0.01410987 0.01211669 0.01002329 0.007830583
 0.005652414 0.003499621 0.001451648 -0.0004867816 -0.002331854 -0.004086732 -0.005800236 -0.007467979 -0.009090656 -0.01065697
 -0.01212348 -0.01349205 -0.01473996 -0.01588747 -0.01695552 -0.01796534 -0.01894971 -0.01991809 -0.02089033 -0.02186154
 -0.02283702 -0.02379995 -0.02474651 -0.02565939 -0.02653268 -0.02736179 -0.02814426 -0.02888668 -0.02958975 -0.03025511
 -0.0308829 -0.03145849 -0.03198068 -0.03242895 -0.03280459 -0.03310356 -0.03333089 -0.03350168 -0.03362096 -0.03370748
 -0.03376514 -0.03380859 -0.03383935 -0.03386606 -0.03388441 -0.0338941 -0.03389009 -0.03386717 -0.03383148 -0.03378127
 -0.03373481 -0.03369543 -0.03368065 -0.03369413 -0.03374334 -0.03382975 -0.03395148 -0.03410851 -0.03429428 -0.0345083
 -0.03474307 -0.03499737 -0.03526132 -0.03553152 -0.03579155 -0.0360366 -0.03624697 -0.0364202 -0.03654239 -0.03661639
 -0.0366385 -0.03661715 -0.03655588 -0.03646758 -0.03635899 -0.03624263 -0.03612466 -0.03601173 -0.0359065 -0.03581234
 -0.03572949 -0.0356649 -0.03561911 -0.03559975 -0.03560733 -0.03564182 -0.03570275 -0.03578334 -0.03588326 -0.03599714
 -0.03612498 -0.03626443 -0.03641465 -0.03657285 -0.03673726 -0.03690391 -0.03707108 -0.0372353 -0.03739559 -0.03754996
 -0.03769844 -0.03784057 -0.03797653 -0.03810667 -0.03822934 -0.03834451 -0.0384491 -0.03854254 -0.03862343 -0.03869146
 -0.03874781 -0.03879252 -0.0388281 -0.03885464 -0.03887399 -0.03888573 -0.03888851 -0.03888104 -0.03885785 -0.03881811
 -0.03875642 -0.03867421 -0.03857081 -0.03844954 -0.03831382 -0.03816661 -0.03801167 -0.03784967 -0.03768228 -0.03750829
 -0.03732741 -0.03713939 -0.03694357 -0.036743 -0.03653776 -0.03633267 -0.03612814 -0.03592847 -0.0357339 -0.03554978
 -0.0353765 -0.03522114 -0.03508363 -0.03496765 -0.03487162 -0.03479188 -0.03472624 -0.03466721 -0.03461415 -0.03456193
 -0.03451267 -0.03446595 -0.03442663 -0.03439821 -0.0343853 -0.03439198 -0.0344187 -0.0344672 -0.03453394 -0.03461846
 -0.0347174 -0.0348304 -0.03495338 -0.03508617 -0.03522235 -0.03536152 -0.03549933 -0.03563594 -0.03577315 -0.0359115
 -0.03605526 -0.03620458 -0.03636232 -0.03652849 -0.03670517 -0.03689068 -0.03708433 -0.03728112 -0.03747496 -0.03766173
 -0.03783463 -0.03799623 -0.03814528 -0.03828789 -0.03842675 -0.03856343 -0.03869972 -0.03883106 -0.03895716 -0.03907271
 -0.03917705 -0.03926777 -0.03934466 -0.03940763 -0.03945661 -0.03949063 -0.03950959 -0.0395117 -0.03949801 -0.03947112
 -0.03943326 -0.03939218 -0.03934753 -0.03930372 -0.03925538 -0.03919818 -0.03912656 -0.03903367 -0.03891877 -0.03877952
 -0.03861656 -0.03843028 -0.03821832 -0.03798012 -0.03771369 -0.0374177 -0.0370975 -0.03675278 -0.03639676 -0.0360302
 -0.03566754 -0.03530907 -0.03496019 -0.03461972 -0.03428194 -0.033946 -0.03360495 -0.03325988 -0.03291021 -0.03255696
 -0.03220185 -0.03184484 -0.03148557 -0.03112686 -0.03076979 -0.03042053 -0.03008324 -0.02976089 -0.02945664 -0.02916703
 -0.02889229 -0.0286264 -0.02836827 -0.02811434 -0.02786378 -0.02761877 -0.02737937 -0.02714972 -0.02692945 -0.02671251
 -0.02649668 -0.02626289 -0.02601046 -0.02572494 -0.02541062 -0.02507118 -0.0247111 -0.02434124 -0.0239611 -0.0235747
 -0.02317958 -0.02277427 -0.02235904 -0.02193294 -0.02149897 -0.0210571 -0.02061384 -0.0201701 -0.01973492 -0.01931033
 -0.01890023 -0.01850591 -0.0181218 -0.01774776 -0.01737266 -0.01699572 -0.01660263 -0.01619291 -0.01575459 -0.0152908
 -0.01480582 -0.01430737 -0.0138181 -0.01334306 -0.01290336 -0.01249611 -0.01212739 -0.01178935 -0.01147902 -0.01118435
 -0.0108994 -0.01060883 -0.01030459 -0.009979477 -0.009627794 -0.009258267 -0.008870446 -0.008479983 -0.008088385 -0.00770875
 -0.007342082 -0.006995596 -0.006669008 -0.006356272 -0.006055495 -0.005749346 -0.005437727 -0.005109735 -0.004769335 -0.004420946
 -0.00406954 -0.003724906 -0.003393662 -0.003085579 -0.002812472 -0.002587568 -0.002419603 -0.002320832 -0.002282902 -0.002309238
 -0.002374645 -0.002474931 -0.002581012 -0.002687013 -0.002773661 -0.002837161 -0.002876925 -0.002892389 -0.002896672 -0.002890074
 -0.002878052 -0.002858893 -0.002821676 -0.002765667 -0.002680762 -0.002570233 -0.002437582 -0.002286445 -0.002125255 -0.001955806
 -0.001783203 -0.001609788 -0.001439098 -0.001273201 -0.001114001 -0.0009636145 -0.0008216638 -0.000696552 -0.0005892731 -0.000512586
 -0.0004694046 -0.0004652362 -0.0005014856 -0.0005759732 -0.0006886935 -0.0008365428 -0.001019021 -0.001226833 -0.001457877 -0.001691661
 -0.00192666 -0.002144392 -0.002347156 -0.002531428 -0.002700821 -0.002861035 -0.003012939 -0.003160524 -0.00330208 -0.003437294
 -0.003565038 -0.003683234 -0.00379595 -0.003902905 -0.004013722 -0.004130904 -0.004261934 -0.00440893 -0.004573737 -0.004756549
 -0.004960994 -0.005187297 -0.005440221 -0.005719542 -0.006018802 -0.006336754 -0.006659756 -0.006988707 -0.007320051 -0.007656
 -0.008002075 -0.008356875 -0.008720708 -0.009090732 -0.009462534 -0.009836525 -0.01021226 -0.01058823 -0.0109654 -0.01133515
 -0.0116948 -0.0120351 -0.01235238 -0.01264357 -0.01290693 -0.0131451 -0.01335766 -0.01355261 -0.01373037 -0.01390046
 -0.01406311 -0.01422103 -0.01437376 -0.01451837 -0.01465541 -0.01478602 -0.01491058 -0.01503197 -0.01514743 -0.01525271
 -0.01534632 -0.01542223 -0.01548707 -0.0155433 -0.01560143 -0.01566953 -0.01575161 -0.01585281 -0.0159679 -0.01609707
 -0.01623181 -0.01637004 -0.01650898 -0.01664737 -0.01679173 -0.0169425 -0.01710425 -0.01727669 -0.01744943 -0.01762123
 -0.01777636 -0.01791615 -0.018038 -0.01814438 -0.01824188 -0.01832966 -0.01840886 -0.01847885 -0.01853768 -0.01858979
 -0.01863924 -0.01868743 -0.01873882 -0.01878484 -0.01882329 -0.01884543 -0.01884626 -0.01883066 -0.01879738 -0.01876078
 -0.01872259 -0.01869201 -0.01867014 -0.0186535 -0.01864175 -0.01862563 -0.01860547 -0.01857923 -0.01854936 -0.01852579
 -0.01851065 -0.01851608 -0.0185406 -0.01858818 -0.0186536 -0.01873255 -0.01881758 -0.01890098 -0.01897532 -0.01903316
 -0.01907204 -0.0190883 -0.01908498 -0.01906248 -0.01902249 -0.01896569 -0.01889092 -0.01879785 -0.01868817 -0.01856194
 -0.01842203 -0.0182684 -0.01809704 -0.01790775 -0.01769555 -0.01746297 -0.01721824 -0.01696546 -0.0167223 -0.01648755
 -0.01626897 -0.0160594 -0.01585128 -0.01564159 -0.01542152 -0.01520049 -0.01498029 -0.01477504 -0.01459317 -0.01443671
 -0.01431051 -0.01420098 -0.01410655 -0.01401407 -0.01392086 -0.0138269 -0.01373181 -0.01364216 -0.01355811 -0.01348049
 -0.01340834 -0.01333351 -0.01325506 -0.01316342 -0.01306015 -0.01294384 -0.01281878 -0.01269385 -0.01256951 -0.01245286
 -0.01233488 -0.01221037 -0.01206897 -0.01189955 -0.01170582 -0.01148373 -0.01125025 -0.01100918 -0.01077577 -0.01055423
 -0.01035076 -0.01016716 -0.01000175 -0.009854814 -0.009717855 -0.00959045 -0.009464134 -0.009339631 -0.009219901 -0.009106399
 -0.009009358 -0.008925905 -0.008855006 -0.008788079 -0.008706822 -0.008606167 -0.008467271 -0.008300353 -0.008104371 -0.007902527
 -0.00771024 -0.00754268 -0.007415141 -0.007316092 -0.007248571 -0.007183803 -0.007116053 -0.007026786 -0.006911052 -0.00677547
 -0.006619448 -0.006466164 -0.006316731 -0.006191202 -0.006088465 -0.006007646 -0.005944386 -0.005876743 -0.005802636 -0.005702144
 -0.005580846 -0.005439774 -0.005286877 -0.005135011 -0.004986219 -0.004847501 -0.00471767 -0.00459804 -0.004486856 -0.004385547
 -0.004284933 -0.004184935 -0.004066462 -0.003925741 -0.003747843 -0.003528471 -0.003275525 -0.002988147 -0.002698787 -0.002409118
 -0.002151819 -0.001925425 -0.001730365 -0.001560782 -0.001387117 -0.001207581 -0.0009997489 -0.0007687164 -0.0005156277 -0.0002421308
 4.761546E-05 0.0003569134 0.0006905692 0.001041596 0.001410463 0.001777984 0.00213485 0.002469876 0.002775453 0.003056783
 0.003313493 0.003552385 0.003774897 0.003979892 0.004167274 0.004337505 0.004490912 0.004641601 0.004791423 0.004965087
 0.005161972 0.005394429 0.005655495 0.005930024 0.006211982 0.006478338 0.0067346 0.00697783 0.007217671 0.007465389
 0.007719522 0.007984433 0.008250522 0.008514418 0.008768719 0.009011328 0.009233188 0.00943258 0.009599831 0.00973239
 0.009833285 0.009901967 0.009953262 0.009987967 0.01002099 0.01005356 0.01010318 0.01017144 0.01027728 0.01041847
 0.01059903 0.01081341 0.01105147 0.01130989 0.01158072 0.01185877 0.01213758 0.0124085 0.01266193 0.01289829
 0.01311414 0.01331657 0.01350968 0.01368652 0.01384659 0.01398111 0.01408583 0.01418232 0.01427129 0.01438526
 0.01452549 0.01469342 0.0148872 0.0150873 0.01529383 0.0154976 0.01570023 0.01590244 0.01610489 0.01630932
 0.01651584 0.01672811 0.01693796 0.0171431 0.01732177 0.01745791 0.01753668 0.01754142 0.01748676 0.01736962
 0.01722461 0.01705747 0.01690063 0.01676004 0.016651 0.0165765 0.01652284 0.01648923 0.01644781 0.0163995
 0.01634349 0.01628448 0.01624889 0.01623577 0.01625673 0.01630618 0.01637629 0.01646606 0.01657248 0.01669055
 0.01681554 0.01693896 0.01704713 0.01715652 0.01726574 0.01741333 0.01762144 0.01787077 0.01816991 0.01844138
 0.01866975 0.01884995 0.01897854 0.01909009 0.0191859 0.01926224 0.01931744 0.01932909 0.01930021 0.01923496
 0.01913907 0.01903436 0.01892212 0.01881553 0.01871428 0.01862516 0.01854259 0.01846548 0.01838188 0.01828006
 0.01816145 0.01801934 0.01787464 0.01773264 0.0176106 0.01751472 0.01744715 0.01741038 0.0173934 0.01739686
 0.01738861 0.01736687 0.01729157 0.01716333 0.01697447 0.01673141 0.01646489 0.01618015 0.01591116 0.0156582
 0.01544017 0.01525077 0.0150932 0.01494799 0.01479488 0.01462174 0.01440259 0.01416964 0.01392956 0.01372018
 0.01356427 0.01344511 0.01336426 0.01329493 0.01322915 0.01318655 0.01316814 0.01319201 0.01325893 0.01335095
 0.01346834 0.01360933 0.01377602 0.01398428 0.01422601 0.01448207 0.01474406 0.01497845 0.01519473 0.0153916
 0.01558369 0.01578664 0.01600972 0.01626222 0.01655726 0.01690539 0.01730843 0.01777467 0.01827733 0.01881209
 0.01935578 0.01990231 0.02045572 0.02101625 0.02158144 0.02215107 0.02270717 0.02325017 0.02378203 0.02430281
 0.02481855 0.02531967 0.02577484 0.02617898 0.02649911 0.02674992 0.02694159 0.02708358 0.027194 0.02726554
 0.02729189 0.02728833 0.02725499 0.02722798 0.02722632 0.02724495 0.02729382 0.02731814 0.02731173 0.02722793
 0.02706036 0.02680182 0.02645174 0.02603968 0.02556946 0.02509676 0.02462435 0.02419864 0.02381552 0.02348488
 0.02320241 0.0229631 0.02276445 0.02260441 0.02246986 0.02234735 0.02222159 0.02207362 0.0219054 0.02171462
 0.02149956 0.02126451 0.0209829 0.02064759 0.0202478 0.01977573 0.01926933 0.0187302 0.01820701 0.0177025
 0.01723676 0.01680923 0.0164184 0.016062 0.01572676 0.01541002 0.01509268 0.01477959 0.0144707 0.01417626
 0.01391759 0.01368803 0.01349331 0.01331009 0.01311963 0.01291397 0.01267697 0.01243379 0.01218364 0.01197592
 0.01182081 0.01176248 0.01181503 0.01196071 0.01220441 0.01244264 0.01266976</values></Ydata></AB><ScSm><Ydata ylabel="Single channel"><values byteorder="INTEL" format="FLOAT32" numvalues="1814"> 0.07353014 0.07353722 0.07361154 0.07377893 0.07400949 0.0742345 0.07439455 0.07447672 0.0744987 0.07446895
 0.07439729 0.07434167 0.0743915 0.07457882 0.07482973 0.07501768 0.07506312 0.07500191 0.07496504 0.07505186
 0.07519181 0.07516427 0.07480531 0.07419854 0.07362197 0.07329291 0.07323176 0.07342459 0.073962 0.07478459
 0.07539155 0.07519738 0.07426952 0.07336578 0.07309319 0.07332283 0.07354406 0.07345547 0.07306077 0.07254945
 0.07234243 0.0729786 0.07458451 0.07643783 0.07722842 0.07588549 0.07234216 0.06777598 0.0641745 0.06326996
 0.06531748 0.06874764 0.07134478 0.07201393 0.07130295 0.07028127 0.06939203 0.06859067 0.068085 0.06837378
 0.06955762 0.07087496 0.07109354 0.06956267 0.06698719 0.06492761 0.06437531 0.06512972 0.06663524 0.06859077
 0.07010416 0.06920134 0.06476568 0.05900674 0.05648168 0.05976119 0.06668343 0.07246873 0.07397448 0.07145792
 0.06718864 0.06356651 0.06221968 0.06356578 0.0667325 0.07028201 0.07308201 0.07436287 0.07353157 0.0706863
 0.06711419 0.06466559 0.06462009 0.06718807 0.07146595 0.07551484 0.07724093 0.07594199 0.07277401 0.06952806
 0.06745 0.06724201 0.06923801 0.07305604 0.0775775 0.0815954 0.08430693 0.08539458 0.08509268 0.0840383
 0.08278446 0.08171055 0.08136652 0.08213474 0.08332992 0.08345571 0.08183427 0.07951045 0.07817492 0.07841516
 0.079247 0.0793134 0.07825829 0.07651158 0.07395045 0.06986722 0.06459514 0.05994886 0.05741181 0.05700257
 0.05835222 0.061287 0.06456177 0.06578402 0.06403536 0.06154452 0.06147857 0.06456473 0.06871519 0.07157154
 0.07268545 0.07335816 0.07496451 0.07754579 0.07963027 0.07934386 0.07626826 0.07248658 0.07111186 0.0732342
 0.07687504 0.07942308 0.08038649 0.08111137 0.08242001 0.08333446 0.08209518 0.07825406 0.073807 0.07196733
 0.07436582 0.07941341 0.08345287 0.08346727 0.0791092 0.07277625 0.06774302 0.06589773 0.06723261 0.07108495
 0.07686622 0.08341372 0.08869629 0.09095433 0.08998457 0.08702776 0.08335243 0.07908046 0.07387058 0.06888705
 0.06704026 0.07023878 0.07695693 0.08350641 0.08732897 0.0882799 0.08720271 0.08435194 0.07961696 0.0740322
 0.07028259 0.07062384 0.07416651 0.07737245 0.07775888 0.0761655 0.07494181 0.07501552 0.07554032 0.07569383
 0.07584882 0.07693006 0.07908961 0.08134836 0.08254416 0.08239226 0.08153819 0.08080424 0.08044274 0.07995515
 0.07879263 0.07744308 0.07738318 0.07946676 0.08275692 0.08548769 0.08683391 0.08721888 0.0871479 0.08630939
 0.08403085 0.08056234 0.07759797 0.07702442 0.0790991 0.08228882 0.08486019 0.08612395 0.08627559 0.08577197
 0.08502054 0.08424431 0.08354814 0.08320389 0.08358384 0.08462858 0.08572359 0.08631561 0.08636899 0.08609018
 0.0855277 0.08464697 0.08361723 0.08282796 0.08261016 0.08298688 0.08370841 0.08447634 0.08505569 0.0852458
 0.08495226 0.08432741 0.08367444 0.08317299 0.08282569 0.0826539 0.08275456 0.08312041 0.08355587 0.08384444
 0.0839196 0.0838361 0.08365129 0.08338554 0.08306053 0.08274058 0.08253516 0.08253238 0.08269773 0.08288398
 0.082994 0.08307803 0.08320177 0.08328928 0.08320192 0.08293563 0.08264205 0.08246712 0.08243607 0.0824824
 0.08251724 0.08244777 0.08218502 0.08171985 0.08121139 0.08092397 0.08101606 0.08142344 0.08196142 0.08246603
 0.08282214 0.08297037 0.08294963 0.08286364 0.08276248 0.08260432 0.08235231 0.08207257 0.08191821 0.08201206
 0.08233109 0.08271672 0.08301125 0.08316073 0.08319449 0.08317763 0.08319358 0.08328743 0.0833974 0.08341028
 0.08330531 0.0831882 0.08316883 0.08324432 0.08331433 0.08329635 0.08321801 0.08318735 0.08327165 0.08343115
 0.08358105 0.08368708 0.08378053 0.08389495 0.08400126 0.08401643 0.08389615 0.08370753 0.08356878 0.08352483
 0.0835321 0.08355837 0.08363131 0.08377249 0.08393441 0.08403705 0.08405112 0.08402146 0.08400451 0.08399819
 0.08395147 0.08383615 0.0836853 0.08355831 0.08348861 0.08346948 0.08347049 0.08345784 0.08340818 0.08331531
 0.08318901 0.08304499 0.08289322 0.08274323 0.08262485 0.08258411 0.08263203 0.08270255 0.08269021 0.08254257
 0.08230835 0.08208846 0.08194207 0.08184375 0.08172992 0.08157368 0.08140193 0.08125179 0.08113543 0.08104596
 0.08097266 0.08090696 0.0808569 0.08086158 0.08096381 0.08114836 0.08132614 0.08140767 0.08138988 0.08135124
 0.08136547 0.08144113 0.081541 0.08163642 0.08173689 0.08187566 0.08206242 0.08225088 0.082375 0.08242328
 0.08245371 0.0825323 0.08268405 0.08289906 0.08314281 0.08335531 0.0834852 0.08354376 0.08359742 0.08369588
 0.08383092 0.08397222 0.08411488 0.08427532 0.08445965 0.08465948 0.08487567 0.0851274 0.08542918 0.08576354
 0.08608191 0.08633813 0.08652983 0.086711 0.0869559 0.08729981 0.08771032 0.08811551 0.08846142 0.08874905
 0.08901873 0.08930047 0.08959056 0.08988409 0.09020853 0.09059572 0.09103116 0.09146329 0.09186193 0.09224041
 0.09262183 0.09301034 0.09340067 0.09379846 0.0942212 0.09467865 0.09515007 0.09558703 0.09595263 0.09625827
 0.09655512 0.09689286 0.09728722 0.09770784 0.09808812 0.09837432 0.09858864 0.09882241 0.09913912 0.09950166
 0.09982701 0.1000983 0.1003821 0.100735 0.1011327 0.1015083 0.1018316 0.1021294 0.1024385 0.1027577
 0.1030454 0.1032612 0.1034117 0.1035502 0.1037265 0.1039512 0.104221 0.104551 0.1049471 0.1053627
 0.1057236 0.1059933 0.1061891 0.1063469 0.1065003 0.1066788 0.1068913 0.1071161 0.1073247 0.1075037
 0.1076462 0.1077543 0.1078613 0.1080205 0.1082502 0.1085227 0.1088198 0.1091624 0.1095591 0.1099646
 0.1103293 0.1106732 0.1110617 0.1115039 0.1119194 0.1122228 0.1124084 0.1125267 0.1126186 0.1127158
 0.1128744 0.1131505 0.1135391 0.1139763 0.1144046 0.1148071 0.1151839 0.1155253 0.1158163 0.1160497
 0.116228 0.1163607 0.1164683 0.1165884 0.1167673 0.1170275 0.117337 0.1176243 0.1178306 0.1179359
 0.1179359 0.1178281 0.117639 0.1174367 0.1172762 0.1171312 0.1169064 0.1165174 0.1159433 0.1152052
 0.1143246 0.1133223 0.1122468 0.1111863 0.1102443 0.1095055 0.1090237 0.108839 0.1089883 0.1094739
 0.1102182 0.1110687 0.1118601 0.1124609 0.1127663 0.1126938 0.1122213 0.1114207 0.1104257 0.1093687
 0.1083451 0.1074034 0.1065458 0.1057643 0.1051072 0.1047075 0.1047279 0.1052816 0.1063967 0.1080224
 0.1100358 0.112248 0.1144433 0.116448 0.1181832 0.1196595 0.1209321 0.1220669 0.1231264 0.1241484
 0.1251247 0.1260206 0.1268214 0.1275427 0.1281972 0.1287721 0.1292413 0.1295856 0.1298054 0.1299254
 0.1299838 0.1300063 0.1300045 0.1299987 0.130019 0.1300651 0.1300792 0.1299753 0.1296928 0.1292289
 0.1286472 0.1280821 0.1277406 0.1278772 0.1287104 0.1303003 0.1324801 0.1349194 0.1372759 0.1393152
 0.1409389 0.1421606 0.1430707 0.1437885 0.1444134 0.1450005 0.1455688 0.1461173 0.146639 0.1471313
 0.1476003 0.1480609 0.1485314 0.1490198 0.1495084 0.1499615 0.1503611 0.1507322 0.1511262 0.1515762
 0.1520691 0.1525614 0.1530255 0.1534735 0.153927 0.1543725 0.1547729 0.1551205 0.155453 0.1558157
 0.1562279 0.1566802 0.1571402 0.1575619 0.1579159 0.1582161 0.1585034 0.1588062 0.1591274 0.1594616
 0.1598078 0.1601634 0.1605219 0.1608832 0.1612577 0.1616479 0.1620282 0.1623598 0.16263 0.1628679
 0.1631187 0.1634046 0.1637132 0.1640168 0.1643048 0.1646006 0.1649402 0.1653279 0.1657204 0.1660642
 0.1663435 0.1665869 0.1668348 0.1671094 0.1674111 0.1677299 0.1680535 0.1683696 0.1686727 0.1689688
 0.1692705 0.1695855 0.169908 0.1702245 0.1705238 0.1708066 0.171086 0.1713755 0.1716794 0.1719951
 0.1723226 0.1726611 0.1729997 0.1733178 0.1735998 0.1738474 0.1740786 0.1743165 0.1745758 0.1748566
 0.1751499 0.1754481 0.175748 0.1760467 0.1763398 0.1766246 0.1769039 0.1771855 0.1774741 0.1777661
 0.1780562 0.1783473 0.1786478 0.1789575 0.1792634 0.179553 0.1798272 0.1800979 0.180376 0.1806628
 0.1809496 0.1812264 0.1814931 0.1817585 0.1820312 0.1823128 0.1826005 0.1828911 0.1831813 0.1834674
 0.183746 0.1840165 0.1842844 0.1845599 0.1848481 0.1851426 0.1854313 0.1857091 0.1859811 0.1862544
 0.1865284 0.1867968 0.1870589 0.1873246 0.1876031 0.1878916 0.1881791 0.1884587 0.1887304 0.1889989
 0.1892683 0.1895373 0.1898014 0.190062 0.1903285 0.1906071 0.1908944 0.1911838 0.1914711 0.1917547
 0.1920364 0.1923199 0.1926045 0.1928861 0.1931648 0.1934441 0.1937245 0.1940047 0.194288 0.1945788
 0.194879 0.1951873 0.1954977 0.195799 0.1960819 0.1963441 0.1965882 0.1968226 0.197063 0.1973197
 0.1975879 0.1978566 0.1981227 0.1983886 0.1986557 0.1989249 0.1991954 0.1994637 0.1997308 0.2000042
 0.2002867 0.2005731 0.2008596 0.2011469 0.2014348 0.2017232 0.2020145 0.2023086 0.2026019 0.2028916
 0.2031751 0.2034497 0.2037205 0.2039966 0.2042791 0.2045644 0.2048535 0.205146 0.2054356 0.2057212
 0.2060103 0.2063033 0.2065907 0.2068655 0.2071281 0.2073848 0.2076502 0.2079356 0.2082324 0.208523
 0.2088024 0.2090749 0.2093425 0.2096096 0.2098838 0.2101651 0.2104504 0.210742 0.2110356 0.2113188
 0.2115891 0.2118555 0.2121203 0.2123837 0.2126544 0.2129338 0.2132091 0.213475 0.2137364 0.2139805
 0.2141522 0.2141077 0.2134994 0.2116555 0.2075701 0.200106 0.1884483 0.1726206 0.1536577 0.1332419
 0.1130906 0.09451472 0.07828688 0.06474127 0.05394699 0.04582065 0.04018885 0.03689546 0.03592356 0.0375255
 0.04235882 0.05109372 0.06293933 0.07434037 0.08036159 0.07858525 0.07142384 0.06392127 0.05956316 0.05859379
 0.05951719 0.06105157 0.06279032 0.06497435 0.06801385 0.07202314 0.07680532 0.0823542 0.08909109 0.09732427
 0.1066125 0.1159556 0.1246549 0.1328597 0.1412285 0.1501436 0.1593136 0.168061 0.1758649 0.182624
 0.1885493 0.1939206 0.1989271 0.203659 0.2081682 0.21246 0.2163884 0.2196156 0.2217769 0.2227581
 0.2228281 0.2224865 0.2221665 0.2220638 0.2221915 0.2225161 0.2230175 0.2236814 0.2244889 0.2254094
 0.226396 0.2274013 0.2284015 0.229388 0.2303431 0.2312389 0.2320539 0.2327851 0.2334468 0.2340601
 0.2346372 0.2351778 0.2356814 0.2361515 0.2365891 0.2369949 0.2373786 0.2377539 0.2381242 0.2384791
 0.2388052 0.2390967 0.2393618 0.2396193 0.2398819 0.2401459 0.2404009 0.2406454 0.240889 0.2411432
 0.2414126 0.2416916 0.2419675 0.2422305 0.2424773 0.242709 0.2429302 0.2431519 0.243386 0.2436347
 0.2438917 0.2441489 0.2443988 0.244634 0.2448548 0.2450709 0.2452929 0.2455263 0.2457703 0.2460186
 0.2462654 0.2465143 0.2467739 0.2470436 0.2473149 0.2475832 0.2478476 0.2481055 0.248358 0.2486104
 0.2488578 0.2490849 0.249288 0.2494867 0.2497084 0.2499661 0.2502498 0.2505339 0.2508 0.2510504
 0.2512956 0.2515371 0.2517689 0.2519865 0.2521953 0.2524209 0.2526976 0.2530251 0.2533587 0.25366
 0.2539344 0.2542049 0.2544816 0.2547659 0.2550486 0.2552982 0.2554862 0.2556365 0.255829 0.2561406
 0.2565724 0.257037 0.2574343 0.2577405 0.2580065 0.2582907 0.258619 0.2589611 0.2592047 0.2592347
 0.2591144 0.2591109 0.2594489 0.2600874 0.2607962 0.2613913 0.2618412 0.2622032 0.2625264 0.2628056
 0.2629873 0.2630287 0.2629803 0.2630156 0.2633181 0.2638966 0.2645615 0.2651189 0.265526 0.2658303
 0.2660694 0.2662669 0.266388 0.2662712 0.2658036 0.2652376 0.2651274 0.2657903 0.2669443 0.2680075
 0.2686748 0.2690689 0.2694016 0.2697126 0.2699494 0.2700199 0.2696469 0.2685194 0.2668982 0.2657964
 0.2661403 0.2678314 0.2699135 0.2715303 0.2724676 0.2729418 0.2732286 0.273478 0.2735991 0.2732695
 0.2722923 0.2710688 0.2704978 0.2711478 0.272623 0.2739925 0.2747442 0.2750543 0.2752907 0.2755969
 0.2757947 0.2753335 0.2736026 0.2708372 0.2685713 0.2685555 0.2710415 0.2744771 0.2770459 0.2782283
 0.278646 0.2787179 0.2780471 0.2761368 0.2731398 0.2697876 0.2671532 0.2665012 0.2684535 0.2719451
 0.2748279 0.2759907 0.2762983 0.2771689 0.278879 0.2805767 0.281384 0.2810761 0.2799263 0.2782215
 0.2761272 0.2741364 0.2733369 0.2746378 0.2776637 0.2808929 0.2830638 0.2841266 0.2845771 0.2839845
 0.2807039 0.2738554 0.2657949 0.2614583 0.2640046 0.2715125 0.2790482 0.2835168 0.2853455 0.2861624
 0.2866114 0.2861854 0.283517 0.2771207 0.267748 0.2598732 0.2586638 0.2648613 0.2739389 0.2803277
 0.2812095 0.2768047 0.2693669 0.2625128 0.2597479 0.2623408 0.2687702 0.2762281 0.2823031 0.2856376
 0.2859178 0.2837485 0.280603 0.2784581 0.2783664 0.2789031 0.2772505 0.2727605 0.2680371 0.2651072
 0.2622762 0.2572572 0.252198 0.2522409 0.2588346 0.2673035 0.2721021 0.2724259 0.2711887 0.2697315
 0.2655448 0.2558957 0.2430105 0.2341515 0.2352563 0.2447771 0.2550642 0.2598435 0.2591861 0.257265
 0.2567853 0.2562501 0.2521151 0.243441 0.2342343 0.2300966 0.2322838 0.2365806 0.238285 0.2359709
 0.2298599 0.2202896 0.2103722 0.2069713 0.2149054 0.2310337 0.2467144 0.2549213 0.2528225 0.2402348
 0.2205579 0.2027578 0.1970047 0.2055873 0.220136 0.2293219 0.2278587 0.2174459 0.2018841 0.1844414
 0.1693393 0.162263 0.1669558 0.1814151 0.1980152 0.2073656 0.2035007 0.188455 0.1725603 0.1670121
 0.1737432 0.1841393 0.1887021 0.1856546 0.1795866 0.1754759 0.1757902 0.1801423 0.1857328 0.189941
 0.1924191 0.192244 0.18511 0.1685483 0.1489518 0.1373944 0.1381114 0.1463107 0.1570686 0.1697223
 0.1820911 0.187465 0.1821623 0.1725061 0.1694528 0.1769786 0.1886894 0.1956811 0.1954034 0.1921293
 0.1903944 0.1901366 0.1890023 0.1876646 0.1900124 0.1976909 0.207122 0.2134693 0.2156679 0.2159442
 0.216082 0.2160875 0.2154698 0.2140594 0.2119325 0.2095336 0.2075473 0.2061615 0.204914 0.2034093
 0.2013178 0.1973469 0.1895544 0.178109 0.1670043 0.1609464 0.1604367 0.1620466 0.1635063 0.1650754
 0.1648643 0.1574495 0.1410379 0.1233915 0.1161831 0.1237213 0.13976 0.1546345 0.1626354 0.1624473
 0.154271 0.1401906 0.1267536 0.12293 0.1327327 0.1513352 0.1702664 0.1847219 0.1940431 0.1976539
 0.1943354 0.185331 0.1755403 0.1707341 0.1740832 0.1847445 0.1980564 0.2066405 0.2040142 0.1911068
 0.17924 0.1817404 0.1998273 0.220427 0.2308609 0.2317289 0.231617 0.2337873 0.2346109 0.2330381
 0.2343408 0.2428554 0.2555576 0.2650175 0.2659051 0.2570815 0.2408785 0.2235884 0.2138406 0.2157525
 0.224359 0.2310999 0.2321414 0.2278734 0.2178486 0.2029244 0.1906528 0.1907221 0.2037088 0.2197665
 0.2298174 0.2338167 0.2366729 0.2397679 0.2392871 0.2320236 0.2207479 0.2124849 0.2115463 0.2157425
 0.2200324 0.2218215 0.2210138 0.217023 0.2091292 0.1997357 0.1943927 0.1969981 0.2058007 0.2150862
 0.22034 0.2211082 0.2195888 0.2178612 0.2165066 0.214815 0.2121934 0.2099784 0.211173 0.2171535
 0.2253404 0.2317843 0.2356642 0.2395448 0.2453289 0.2515936 0.2552882 0.2550603 0.2525662 0.2510615
 0.252804 0.2572505 0.2614404 0.2625023 0.2603754 0.2581224 0.259113 0.263806 0.2696767 0.2741013
 0.2765176 0.2778623 0.278993 0.279947 0.279934 0.2779477 0.2742174 0.2710451 0.2711922 0.2751577
 0.2807004 0.2851287 0.2874461 0.2882325 0.2882138 0.2874779 0.285881 0.2837485 0.2819024 0.2810277
 0.2811942 0.2820179 0.2830841 0.2841256 0.2849973 0.2856687 0.2861953 0.2866263 0.2869763 0.2872792
 0.2875703 0.2878004 0.2878784 0.2878422 0.287891 0.2881706 0.2885902 0.2889187 0.288997 0.2887599
 0.288122 0.2870016 0.2854645 0.283705 0.2818343 0.27981 0.2776917 0.2759199 0.2751881 0.2759241
 0.2778946 0.280351 0.2825492 0.2841198 0.2850525 0.285498 0.2856405 0.2856514 0.2856424 0.2856311
 0.2855749 0.2854435 0.2852499 0.2850201 0.2847662 0.2845061 0.2842855 0.2841493 0.2840909 0.2840459
 0.2839352 0.2837132 0.283389 0.2830076 0.2826022 0.2821566 0.2816125 0.2809151 0.2800561 0.2790819
 0.278071 0.2770967 0.2761875 0.2753132 0.2744129 0.2734377 0.2723503 0.2710975 0.269642 0.2680523
 0.2665047 0.2651464 0.2639765 0.2628843 0.2617615 0.2605471 0.2592151 0.2577719 0.2562544 0.2547041
 0.2531432 0.2515725 0.2499771 0.248331 0.2466121 0.2448165 0.2429584 0.241053 0.2391032 0.2370975
 0.2350092 0.2327806 0.2303078 0.2274558 0.2240987 0.2201526 0.2156014 0.2105225 0.2050906 0.1995344
 0.1940708 0.1888625 0.1840189 0.1796302 0.1757984 0.1726267 0.170183 0.1684878 0.167533 0.1672993
 0.1677576 0.1688679 0.1705691 0.1727617 0.175308 0.1780481 0.1808084 0.1834194 0.1857718 0.1878698
 0.1898122 0.1916988 0.1935544 0.1953366 0.1969964 0.1985069 0.1998384 0.2009513 0.2018346 0.2025275
 0.2030815 0.2035215 0.203855 0.2040943 0.2042563 0.204356 0.204412 0.2044502 0.2045052 0.2046165
 0.2048143 0.2051071 0.2054922 0.2059695 0.2065338 0.2071637 0.2078305 0.2085132 0.2092055 0.2099136
 0.2106486 0.2114225 0.2122602 0.2132089 0.2143203 0.2156222 0.2171091 0.2187438 0.2204565 0.2221542
 0.2237432 0.2251435 0.2262996 0.227197 0.2278589 0.228317 0.2285909 0.2286934 0.2286403 0.2284536
 0.228164 0.2277987 0.2273678 0.226873 0.2263244 0.225734 0.2251045 0.2244451 0.223785 0.223152
 0.2225515 0.2219781 0.2214351 0.2209314 0.2204662 0.2200202 0.2195659 0.2190896 0.2185987 0.2180986
 0.2175763 0.2170137 0.2163951 0.2156958 0.2148853 0.2139489 0.2128919 0.2117243 0.2104563 0.2091026
 0.2076757 0.206178 0.2046082 0.2029713 0.2012795 0.1995372 0.1977188 0.1957746 0.193686 0.1915101
 0.189349 0.1872868 0.1853613 0.1835707 0.1818833 0.1802608 0.1786895 0.1771813 0.1757422 0.1743625
 0.1730387 0.171786 0.1706249 0.1695596 0.1685779 0.1676719 0.1668545 0.1661417 0.1655236 0.1649687
 0.1644541 0.1639822 0.1635751 0.1632651 0.1630714 0.1629708 0.1629019 0.1628055 0.1626548 0.1624553
 0.1622326 0.1620175 0.1618294 0.1616757 0.1615507 0.1614146 0.1611823 0.1607548 0.1600601 0.1590613
 0.1577504 0.156153 0.154331 0.1523814 0.1504372 0.1486431 0.1471019 0.1458501 0.1448775 0.1441422
 0.1435717 0.1430928 0.1426834 0.14239 0.1422851 0.1423776 0.1425473 0.1426091 0.1424894 0.1423163
 0.1423033 0.1425707 0.1430864 0.1437197 0.1443209 0.1447891 0.1450958 0.1452544 0.1452909 0.1452402
 0.1451296 0.1449559 0.1447055 0.1443824 0.1439957 0.1435454 0.1430351 0.142468 0.1418346 0.1411314
 0.1403673 0.1395363 0.1386216 0.1376248 0.1365408 0.1353423 0.1340719 0.1329236 0.1321566 0.1319326
 0.1322406 0.1329217 0.1337719 0.134665 0.1355288 0.1361818 0.1363827 0.1362074 0.1362444 0.1371667
 0.1390784 0.1413956 0.1433727 0.1446313 0.1451811 0.145136 0.1445752 0.1435663 0.1421331 0.140236
 0.1378862 0.1352006 0.1323016 0.1292986 0.1263807 0.123768 0.1215762 0.1198188 0.1184648 0.1175233
 0.117108 0.1168646 0.1149814 0.1091317 0.1000742 0.09327646 0.09433143 0.1026652 0.1119254 0.1167001
 0.1168355 0.1152037 0.1137794 0.1128621 0.1123625 0.1124237 0.1131614 0.1144306 0.1158545 0.1170419
 0.1178292 0.1182473 0.1182472 0.1174874 0.1152822 0.110822 0.1038202 0.09510151 0.08632714 0.07902759
 0.07392141 0.07091758 0.06942153 0.06868608 0.06819548 0.06790003 0.06809694 0.06908119 0.07090276 0.07341322
 0.07643104 0.07973073 0.08292654 0.08560273 0.08762844 0.0891789 0.09040807 0.09125756 0.09160188 0.09142613
 0.09083358 0.08998225 0.08902778 0.08805615 0.08704011 0.08588795 0.08459191 0.08334976 0.08246352 0.08206066
 0.08198746 0.08201656 0.0820535 0.08210549 0.08217607 0.08224895 0.08230992 0.08238263 0.08256637 0.08296321
 0.08352899 0.08407596 0.08444824 0.08464036 0.08475064 0.08483578 0.0847856 0.08441709 0.08378355 0.08322662
 0.08292134 0.08254953 0.08171317 0.08055165 0.07965577 0.07942086 0.07971065 0.08011337 0.08031891 0.08024725
 0.08001988 0.07991111 0.08018224 0.08078706</values></Ydata></ScSm><ScRf><Ydata ylabel="Single channel"><values byteorder="INTEL" format="FLOAT32" numvalues="1820"> 0.06076138 0.06091749 0.06101512 0.0610517 0.06104828 0.0610502 0.06111028 0.06125367 0.06145447 0.06164915
 0.06178162 0.06184047 0.06184619 0.06181269 0.06175078 0.06170651 0.06175125 0.06191092 0.06212456 0.06228484
 0.06232035 0.06225739 0.06220943 0.0622693 0.06238343 0.06236238 0.06206055 0.06154561 0.0610539 0.06077027
 0.06071272 0.06087171 0.06132574 0.06202396 0.06254139 0.06238075 0.06159398 0.06081676 0.06056534 0.06074195
 0.06092317 0.06085207 0.06052379 0.06009279 0.05991286 0.06043936 0.06178211 0.06333756 0.06400593 0.06288569
 0.05991898 0.05609453 0.05307889 0.05232005 0.05402828 0.05689145 0.05906095 0.05962579 0.05904673 0.05821564
 0.05749209 0.05682352 0.05637744 0.05658131 0.05753735 0.05861901 0.05879422 0.05751327 0.05536266 0.05364556
 0.05318772 0.05381914 0.05507679 0.05671166 0.05797769 0.05722313 0.05351546 0.0487036 0.0465963 0.04934058
 0.0551294 0.05996677 0.06122202 0.05911009 0.05553837 0.05252395 0.05142218 0.05255979 0.05519051 0.05811816
 0.06041808 0.06146538 0.06076939 0.05840728 0.0554464 0.05342422 0.05340128 0.0555461 0.0591014 0.0624539
 0.0638679 0.06276734 0.06011818 0.05740956 0.0556757 0.05550114 0.05716693 0.06035877 0.06414568 0.06751659
 0.0697923 0.07070087 0.07043999 0.06955186 0.06850853 0.06762632 0.06735036 0.06798436 0.06895699 0.06903791
 0.0676789 0.06574973 0.06464346 0.06483764 0.06551543 0.06555755 0.06467353 0.06321797 0.06108171 0.05767328
 0.05327567 0.0494075 0.04730626 0.04698449 0.04813329 0.05060822 0.05336717 0.05440505 0.05294744 0.05085437
 0.05077623 0.05332673 0.05676533 0.05912551 0.06003963 0.06060031 0.06195252 0.06411929 0.06586221 0.06561734
 0.06304568 0.05989784 0.05877589 0.06058018 0.06364346 0.06577934 0.06658803 0.06721139 0.0683422 0.06915135
 0.06815381 0.06497549 0.06129464 0.05979551 0.06182572 0.06604946 0.0694212 0.06943454 0.06580401 0.06053184
 0.05635162 0.05483737 0.05598363 0.05924844 0.06415434 0.06973384 0.0742794 0.07629557 0.07557876 0.07314513
 0.07006463 0.06646709 0.06209188 0.05793577 0.05645965 0.05927055 0.06506786 0.0707234 0.07406817 0.07497539
 0.07415044 0.07179527 0.06780895 0.06308851 0.05995917 0.06036934 0.06354333 0.06641847 0.06685033 0.06556873
 0.06460789 0.06477135 0.06532721 0.06556736 0.06582403 0.0669045 0.06893182 0.0710389 0.0722062 0.07218784
 0.07155399 0.07102989 0.07083593 0.07052574 0.06961647 0.06855693 0.06866606 0.07068416 0.07375053 0.07628816
 0.07758382 0.07804039 0.07811405 0.07750605 0.07558748 0.07257698 0.07001944 0.06964043 0.07167879 0.07473633
 0.07723005 0.07853162 0.07882337 0.07852374 0.07799998 0.07745141 0.07697703 0.07683148 0.07735349 0.07847795
 0.07963325 0.08031313 0.08048961 0.08035143 0.0799408 0.07923436 0.07840744 0.0778316 0.0778048 0.0783287
 0.07915932 0.0800225 0.08070823 0.08102885 0.0808859 0.08041832 0.07992458 0.07959197 0.07942554 0.07943279
 0.07969397 0.08019845 0.08075774 0.08116134 0.08134638 0.08137399 0.08130804 0.08116741 0.08096671 0.08076972
 0.08069228 0.08081965 0.08110245 0.0813892 0.08160298 0.08181668 0.0820904 0.08231674 0.08233246 0.08213962
 0.08191729 0.0818289 0.08189138 0.08202131 0.08212873 0.08213422 0.08195815 0.08159015 0.08118373 0.08099751
 0.08118708 0.08169404 0.0823444 0.0829735 0.08344878 0.08369392 0.08374874 0.08372949 0.08369249 0.0835926
 0.08339252 0.08316647 0.0830764 0.08324869 0.08366154 0.08415413 0.08455567 0.08479244 0.08488715 0.08492272
 0.0850087 0.08519527 0.08539571 0.08546786 0.08539283 0.08530763 0.08534169 0.08547229 0.08556399 0.08552769
 0.0854217 0.08539192 0.08551972 0.08574986 0.08597215 0.08614317 0.08630797 0.08651352 0.08671726 0.08680035
 0.08669467 0.08648073 0.0863129 0.08625842 0.08627082 0.0863153 0.08643308 0.08664891 0.08688365 0.08702022
 0.08703592 0.0870214 0.08706262 0.08713749 0.08714944 0.08704326 0.08686189 0.08669969 0.0866269 0.08665422
 0.0867378 0.08680636 0.08680236 0.08671679 0.08658852 0.08646715 0.08637874 0.08633465 0.08636588 0.08651519
 0.08676739 0.08700297 0.08706675 0.08690728 0.08663614 0.08643021 0.08637017 0.08638027 0.08632213 0.08613158
 0.08585977 0.08560289 0.08541763 0.08529843 0.0852078 0.08511908 0.08504713 0.0850459 0.08515419 0.08532483
 0.08542735 0.08535476 0.08512568 0.08486057 0.08466854 0.08457955 0.08456235 0.08456894 0.08457381 0.08459763
 0.08467308 0.08477037 0.08479871 0.08471172 0.08457364 0.08449729 0.08455168 0.08473463 0.08497708 0.08515953
 0.08518769 0.08508492 0.08497419 0.08495273 0.08501571 0.08510576 0.08519042 0.08527006 0.08534583 0.08541762
 0.08550699 0.08565428 0.08588077 0.08615873 0.08642222 0.08661051 0.08671419 0.08679146 0.08693247 0.08718885
 0.08752944 0.08786715 0.08813284 0.08832632 0.08849881 0.08869047 0.08889628 0.08909915 0.08931556 0.08958006
 0.08989356 0.09021847 0.09052474 0.09081358 0.09109698 0.09137881 0.09166245 0.09196514 0.09231727 0.09273621
 0.09318653 0.09357783 0.09383269 0.09396318 0.09406871 0.09426088 0.0945866 0.09499098 0.09534188 0.09553228
 0.0955915 0.09566566 0.09585972 0.09613345 0.09638874 0.09662123 0.09692515 0.09735481 0.09783534 0.09822999
 0.09847189 0.09861483 0.09876315 0.09896126 0.09915676 0.0992769 0.09932698 0.09938484 0.09950456 0.09967439
 0.09988272 0.1001675 0.1005563 0.100994 0.1013812 0.1016669 0.1018705 0.10203 0.102163 0.1022643
 0.102318 0.1023256 0.1023299 0.1023851 0.102489 0.1025796 0.1026174 0.102639 0.1027103 0.1028584
 0.1030748 0.1033493 0.1036606 0.1039575 0.1042048 0.104445 0.1047591 0.1051473 0.1054953 0.1056942
 0.1057556 0.1057688 0.1057841 0.1057992 0.1058379 0.1059651 0.1062125 0.1065393 0.1068854 0.1072291
 0.1075789 0.1079326 0.1082573 0.1085004 0.1086208 0.1086248 0.1085782 0.1085756 0.1086898 0.1089343
 0.1092624 0.1096 0.1098871 0.1100889 0.1101807 0.1101565 0.1100707 0.1100382 0.1101434 0.1103463
 0.1105048 0.1104947 0.1102867 0.109915 0.1094107 0.1087915 0.1080992 0.1074172 0.1068388 0.1064238
 0.1061943 0.1061689 0.1063809 0.1068397 0.1074819 0.1081852 0.1088377 0.1093654 0.1096897 0.1097115
 0.1093813 0.1087655 0.1080131 0.1072632 0.1065902 0.1059992 0.1054435 0.1048782 0.1043456 0.1040044
 0.1040515 0.1046084 0.1056637 0.1070809 0.1086392 0.1101073 0.1113367 0.1123122 0.1131135 0.1138266
 0.1144948 0.1151404 0.1157941 0.1164691 0.1171226 0.1176897 0.1181571 0.1185727 0.1189793 0.1193712
 0.1197169 0.1199975 0.1202233 0.1204291 0.1206401 0.120829 0.1209291 0.1209104 0.1208172 0.1207113
 0.1206009 0.120441 0.1201832 0.1198141 0.1193758 0.1189808 0.1188005 0.1190029 0.1196604 0.1207008
 0.1219568 0.1232716 0.1245494 0.1257139 0.1266734 0.1273659 0.1278174 0.1281238 0.1283803 0.1286425
 0.1289326 0.1292491 0.1295732 0.129884 0.1301746 0.1304579 0.1307596 0.1310958 0.1314466 0.1317613
 0.1320073 0.132216 0.1324658 0.132808 0.1332141 0.1336058 0.1339397 0.1342433 0.1345562 0.1348602
 0.1351023 0.1352733 0.1354287 0.1356349 0.1359243 0.1362903 0.1366867 0.1370357 0.1372777 0.1374258
 0.137552 0.1377179 0.1379367 0.138191 0.13846 0.1387268 0.1389836 0.139243 0.1395309 0.1398527
 0.1401695 0.1404227 0.1405903 0.1407131 0.1408571 0.1410539 0.1412804 0.1414953 0.1416891 0.1418976
 0.1421621 0.1424777 0.1427874 0.1430307 0.1431946 0.1433144 0.1434373 0.1435914 0.14378 0.1439896
 0.144202 0.1444066 0.1446066 0.144812 0.145027 0.145247 0.1454667 0.1456853 0.1459025 0.1461152
 0.1463202 0.1465192 0.146722 0.1469491 0.1472205 0.1475297 0.1478334 0.1480828 0.1482646 0.1484026
 0.1485272 0.1486576 0.1488061 0.1489778 0.1491673 0.1493639 0.1495635 0.1497663 0.149969 0.1501664
 0.1503595 0.150557 0.1507651 0.1509805 0.1511963 0.1514145 0.1516432 0.1518812 0.1521131 0.1523244
 0.1525161 0.1527027 0.1528981 0.153103 0.1533042 0.1534885 0.1536594 0.1538343 0.1540242 0.1542244
 0.1544258 0.1546256 0.1548255 0.155025 0.1552207 0.1554102 0.1555957 0.155782 0.1559729 0.1561694
 0.156372 0.1565787 0.1567854 0.1569889 0.15719 0.1573885 0.1575812 0.1577699 0.1579641 0.1581702
 0.1583824 0.1585872 0.1587784 0.1589639 0.1591571 0.1593627 0.1595719 0.1597748 0.159971 0.1601664
 0.1603632 0.160558 0.1607483 0.1609381 0.1611361 0.161348 0.1615686 0.1617862 0.1619952 0.1621994
 0.1624056 0.1626176 0.1628373 0.1630623 0.1632878 0.163511 0.163734 0.1639584 0.1641795 0.164386
 0.1645692 0.1647331 0.1648944 0.165066 0.1652471 0.1654302 0.165611 0.1657884 0.1659637 0.1661421
 0.1663295 0.1665271 0.1667329 0.166944 0.1671546 0.1673592 0.1675578 0.1677522 0.1679424 0.168132
 0.1683293 0.1685379 0.1687528 0.1689684 0.1691841 0.1694024 0.1696262 0.1698529 0.1700732 0.1702809
 0.1704811 0.1706797 0.1708764 0.1710718 0.1712711 0.1714742 0.1716765 0.171879 0.1720874 0.1723042
 0.172527 0.1727509 0.1729693 0.1731822 0.1733952 0.1736073 0.1738113 0.1740103 0.174215 0.1744268
 0.1746385 0.1748496 0.1750632 0.1752796 0.1754993 0.175721 0.1759369 0.1761454 0.1763584 0.1765841
 0.1768159 0.1770466 0.1772691 0.177462 0.1775782 0.1775049 0.1769621 0.1753955 0.1719682 0.1657312
 0.1560016 0.1427954 0.1269779 0.1099609 0.09318382 0.07773632 0.06425498 0.05301408 0.04406685 0.03733371
 0.03266252 0.02992538 0.02911418 0.03043905 0.0344434 0.04168491 0.05151217 0.06097803 0.06598528 0.06452257
 0.05858747 0.05236354 0.04874159 0.04792368 0.04867405 0.04993892 0.05138399 0.05320229 0.05572844 0.05905942
 0.0630345 0.06764533 0.07323858 0.080074 0.08779156 0.09556025 0.1027939 0.1096132 0.1165674 0.1239765
 0.1315991 0.1388736 0.145366 0.150983 0.1558912 0.1603296 0.1644735 0.1684076 0.1721696 0.1757535
 0.1790322 0.18172 0.1835096 0.1843075 0.1843457 0.1840463 0.1837683 0.1836698 0.183762 0.1840214
 0.1844326 0.1849792 0.1856414 0.1863952 0.1872066 0.1880395 0.1888712 0.1896862 0.1904641 0.1911874
 0.1918512 0.1924594 0.1930187 0.1935377 0.1940215 0.1944673 0.1948746 0.1952515 0.1956091 0.1959568
 0.1962995 0.1966316 0.1969381 0.1972114 0.1974593 0.1976948 0.1979226 0.1981395 0.1983415 0.1985311
 0.1987197 0.198918 0.1991249 0.1993302 0.1995294 0.1997267 0.1999265 0.2001288 0.2003315 0.2005335
 0.2007378 0.2009482 0.2011594 0.2013574 0.201536 0.2017052 0.2018781 0.202059 0.2022468 0.2024426
 0.2026465 0.2028554 0.2030641 0.2032678 0.2034661 0.2036671 0.2038794 0.2040993 0.2043161 0.2045265
 0.2047354 0.2049458 0.2051591 0.2053752 0.205585 0.2057726 0.2059339 0.2060884 0.2062652 0.206479
 0.2067177 0.2069538 0.2071699 0.20737 0.2075647 0.207754 0.2079313 0.208094 0.2082515 0.2084284
 0.2086482 0.2089028 0.2091566 0.2093899 0.2096166 0.2098508 0.2100878 0.2103233 0.2105562 0.2107669
 0.2109288 0.2110541 0.211208 0.2114591 0.211811 0.2121892 0.2125104 0.2127585 0.2129783 0.2132163
 0.2134894 0.2137709 0.2139725 0.2140051 0.2139214 0.2139335 0.214215 0.2147234 0.2152723 0.2157255
 0.216074 0.2163706 0.216649 0.2168929 0.217051 0.2170873 0.2170515 0.2170964 0.2173708 0.2178635
 0.2183978 0.2188126 0.2190935 0.2193063 0.2194954 0.2196767 0.2198075 0.2197393 0.2193681 0.2189015
 0.218802 0.219337 0.2202762 0.2211395 0.2216733 0.2219798 0.2222436 0.2225084 0.2227272 0.2228074
 0.2225091 0.2215802 0.2202468 0.2193528 0.2196648 0.221096 0.2228444 0.2241944 0.2249728 0.2253707
 0.2256245 0.2258545 0.2259739 0.2257106 0.22491 0.2239188 0.2234873 0.2240787 0.2253498 0.2265173
 0.2271554 0.2274199 0.2276266 0.2278967 0.2280791 0.2277138 0.2262915 0.2240046 0.2221271 0.2221206
 0.2242076 0.2271084 0.2293084 0.2303576 0.2307562 0.2308475 0.2303038 0.2287187 0.2262325 0.2234644
 0.2213058 0.2207999 0.2224603 0.2254032 0.227843 0.2288554 0.2291613 0.229938 0.2314091 0.2328639
 0.2335778 0.2333689 0.2324618 0.2310875 0.2293819 0.2277652 0.2271549 0.2283078 0.2308975 0.2336411
 0.2354836 0.2363952 0.2368074 0.2363666 0.2336836 0.2280051 0.2213017 0.2177203 0.2199174 0.2262805
 0.2326639 0.2364683 0.238062 0.2388254 0.2392979 0.2390359 0.2368748 0.2315646 0.2237448 0.2171867
 0.2162399 0.221525 0.2292292 0.2346713 0.2354881 0.2318664 0.2256972 0.2200207 0.2177864 0.2200626
 0.2255695 0.2319441 0.2371579 0.240074 0.2404319 0.2387347 0.2362146 0.2345389 0.2345991 0.2351863
 0.233908 0.23021 0.2263 0.2239089 0.2216169 0.2174852 0.213322 0.2134907 0.2192387 0.2266046
 0.2308663 0.231327 0.2304625 0.2294146 0.2260368 0.2179803 0.2071383 0.1997399 0.2009018 0.2093097
 0.2183904 0.2227542 0.2224797 0.2211766 0.2211792 0.2211726 0.218042 0.2109302 0.2033162 0.2000998
 0.2023927 0.2065247 0.2083952 0.2067443 0.2017329 0.1936432 0.1852364 0.1825954 0.1899998 0.204696
 0.219051 0.2268323 0.2254856 0.214776 0.1976921 0.1823018 0.1778338 0.1864068 0.2004531 0.2096783
 0.2092395 0.2006238 0.18725 0.1721274 0.1592552 0.1540701 0.1601997 0.1757784 0.1934484 0.2039949
 0.2014399 0.1877199 0.173155 0.1690322 0.177302 0.1891924 0.1950192 0.1929752 0.1877797 0.1846201
 0.1861601 0.1920324 0.1992309 0.204948 0.2088102 0.209686 0.2026795 0.1850088 0.1637635 0.1512241
 0.1521184 0.1612142 0.1731349 0.1871774 0.2009122 0.2068849 0.2010233 0.1903589 0.1870347 0.1954168
 0.2083619 0.2159503 0.2153018 0.2111015 0.2083821 0.2071716 0.2049872 0.2026215 0.2043568 0.2120443
 0.2218653 0.2285985 0.2310534 0.2315864 0.232106 0.2326284 0.2326325 0.231929 0.2305803 0.2290355
 0.2279985 0.2276369 0.2274263 0.2269509 0.2258791 0.2227413 0.2152528 0.2035215 0.1920815 0.1862956
 0.1866692 0.189229 0.1914323 0.1936452 0.1936235 0.184965 0.1655641 0.1445478 0.1356311 0.1438626
 0.1618662 0.178256 0.1863595 0.1847807 0.1739956 0.1565685 0.1398742 0.1337813 0.1426038 0.1609707
 0.1795732 0.1931804 0.2012243 0.2033595 0.1984933 0.1879547 0.17675 0.1706949 0.1728816 0.182331
 0.1943165 0.2015661 0.197822 0.1840686 0.1712786 0.1723071 0.1883964 0.2070956 0.2162574 0.2163379
 0.2154424 0.2167264 0.2168457 0.2148242 0.2155917 0.2232313 0.2349774 0.2439477 0.2451889 0.2376287
 0.2234263 0.2084605 0.2007954 0.2041802 0.2137195 0.2211399 0.2227587 0.2189927 0.2094965 0.1952188
 0.183554 0.1838883 0.1967346 0.2125227 0.2224743 0.2265937 0.22967 0.2330278 0.2329162 0.2261875
 0.2155576 0.2079353 0.2075982 0.2124562 0.217596 0.2204603 0.2208873 0.2181848 0.2115572 0.2034338
 0.1995002 0.2037612 0.2143726 0.2253307 0.2318136 0.2331971 0.231665 0.2293724 0.2269872 0.2238555
 0.2194477 0.2152283 0.2143682 0.2183585 0.2246459 0.2292631 0.2313736 0.2335426 0.2377029 0.2424942
 0.2449272 0.2436502 0.2402287 0.2377701 0.2384266 0.2416914 0.2447811 0.2450118 0.2423523 0.239697
 0.2402046 0.2442903 0.2495771 0.253595 0.2557894 0.2570075 0.2580488 0.2589625 0.2590063 0.2572061
 0.2537325 0.2506985 0.250661 0.2540884 0.2589187 0.2626908 0.2645336 0.2650378 0.264909 0.2642322
 0.2628496 0.2610178 0.2594535 0.2587663 0.2590111 0.2598194 0.2607929 0.2616848 0.2623751 0.2628477
 0.2631604 0.263367 0.2634931 0.2635811 0.2636703 0.2637174 0.263639 0.263474 0.2634115 0.2635885
 0.2639194 0.2641877 0.2642444 0.2640343 0.2634922 0.2625549 0.2612807 0.2598336 0.2583015 0.2566397
 0.2549037 0.2534986 0.2530563 0.2539625 0.2559961 0.2584576 0.2606457 0.2622116 0.263154 0.2636299
 0.2638208 0.2638813 0.2638986 0.2638718 0.2637571 0.2635333 0.2632213 0.2628548 0.2624592 0.2620601
 0.2616958 0.2613981 0.2611542 0.2609015 0.2605734 0.2601496 0.2596585 0.2591401 0.25861 0.2580476
 0.2574081 0.2566534 0.2557814 0.2548353 0.2538888 0.2530106 0.2522191 0.2514691 0.2506984 0.2498789
 0.2489985 0.2480159 0.2468969 0.245708 0.2446141 0.2437394 0.2430567 0.2424362 0.2417678 0.2410063
 0.2401408 0.2391774 0.2381458 0.2370829 0.2360004 0.234882 0.2337035 0.2324464 0.2311018 0.2296739
 0.2281725 0.2266062 0.2249909 0.2233511 0.2216853 0.2199274 0.2179546 0.2156296 0.2128339 0.2094848
 0.2055573 0.2011088 0.1962873 0.1913041 0.1863768 0.1816804 0.1773426 0.1734659 0.1701383 0.1674249
 0.1653635 0.163973 0.1632635 0.1632438 0.163917 0.1652624 0.1672143 0.1696565 0.1724365 0.1753874
 0.1783471 0.1811729 0.1837712 0.1861359 0.188342 0.1904594 0.1924737 0.1943115 0.1959302 0.1973449
 0.1985794 0.1996311 0.2004934 0.2011864 0.201754 0.2022388 0.2026634 0.2030318 0.2033429 0.2035986
 0.2038069 0.2039862 0.2041648 0.2043661 0.2045966 0.2048531 0.2051349 0.2054478 0.205804 0.2062179
 0.206692 0.2072104 0.2077551 0.2083245 0.2089315 0.209591 0.2103201 0.2111467 0.2121059 0.2132187
 0.2144722 0.2158214 0.2172078 0.2185623 0.2197985 0.2208287 0.2216006 0.2221112 0.2223867 0.2224637
 0.2223813 0.2221741 0.2218667 0.2214772 0.2210206 0.2205066 0.2199399 0.2193263 0.2186733 0.2179893
 0.2172864 0.2165826 0.2158911 0.2152103 0.2145307 0.2138544 0.2132004 0.2125836 0.2119931 0.2114042
 0.2108082 0.2102179 0.209644 0.2090797 0.2085108 0.2079207 0.207283 0.206568 0.2057615 0.2048675
 0.203885 0.2027995 0.2016048 0.2003198 0.1989703 0.1975604 0.1960708 0.1944863 0.1928152 0.1910763
 0.1892682 0.187365 0.1853579 0.1832972 0.1812771 0.1793782 0.1776336 0.1760377 0.174565 0.1731832
 0.1718642 0.1705933 0.1693679 0.1681942 0.1670808 0.1660293 0.1650344 0.1640934 0.1632123 0.1624025
 0.1616783 0.1610477 0.1605012 0.1600188 0.1595909 0.1592192 0.1589119 0.1586933 0.1585979 0.1586261
 0.1587178 0.1587919 0.1587984 0.1587317 0.1586183 0.1584986 0.1584021 0.1583318 0.1582704 0.1581853
 0.1580229 0.1577117 0.1571692 0.1563152 0.1551085 0.1535844 0.1518417 0.1500016 0.1481881 0.1465162
 0.1450649 0.1438739 0.1429611 0.1423081 0.1418382 0.1414595 0.1411391 0.1409217 0.1408813 0.141039
 0.1413003 0.1415011 0.14156 0.141567 0.1416984 0.1420758 0.1427034 0.1434775 0.1442477 0.1449088
 0.1454365 0.1458339 0.1460971 0.1462405 0.146294 0.146262 0.1461306 0.1459055 0.1456134 0.1452831
 0.1449297 0.1445341 0.1440578 0.1434972 0.1428792 0.1422009 0.1414323 0.140563 0.1395752 0.1384295
 0.1371728 0.1360207 0.1352567 0.1350676 0.1354628 0.1362837 0.1373081 0.1383938 0.1394518 0.1402773
 0.1406162 0.1405531 0.140688 0.1417072 0.1437425 0.1462282 0.1483975 0.1498364 0.1505415 0.1506301
 0.1501852 0.1492771 0.1479136 0.1460127 0.1435566 0.1406837 0.1375678 0.1343646 0.1312885 0.1285526
 0.1262493 0.1243931 0.1229778 0.1220224 0.1216357 0.1214438 0.1195529 0.1135254 0.1041599 0.09717865
 0.09840389 0.1072028 0.1169407 0.1219812 0.1221525 0.1204346 0.1188994 0.1178834 0.1173079 0.1173273
 0.1180552 0.1193218 0.12073 0.1218938 0.1226646 0.1230804 0.1230792 0.1222734 0.1199121 0.1151541
 0.1077453 0.09858433 0.08940917 0.08179441 0.07645433 0.07327431 0.07165556 0.07085034 0.07031928 0.06999561
 0.07019428 0.07122909 0.07314463 0.0757895 0.0789867 0.08249168 0.08588311 0.08873108 0.09091654 0.09263619
 0.09406616 0.09515059 0.09573679 0.09578569 0.09540197 0.0947461 0.09396788 0.09315829 0.09228918 0.0912369
 0.08997046 0.08871377 0.08780616 0.08738256 0.08729265 0.08732501 0.08737994 0.08742698 0.08743446 0.08737832
 0.08726528 0.08716103 0.08720358 0.08750731 0.08802053 0.08853972 0.08888295 0.0890233 0.08906038 0.08905138
 0.08886085 0.088289 0.08741978 0.08664565 0.08616289 0.08563843 0.08464967 0.08332999 0.08229361 0.08196273
 0.08219296 0.08253612 0.08266018 0.0824998 0.08221775 0.08212902 0.08249228 0.08319841 0.08375539 0.08374584
</values></Ydata></ScRf><Data_Parameters_AB><parameter name="DPF">1</parameter><parameter name="NPT">3497</parameter><parameter name="FXV">3996</parameter><parameter name="LXV">500</parameter><parameter name="CSF">1</parameter><parameter name="MXY">0.0699504315853119</parameter><parameter name="MNY">-0.0912706926465034</parameter><parameter name="DAT">31/05/2022</parameter><parameter name="TIM">14:11:04.180 (GMT+2)</parameter><parameter name="DXU">WN</parameter></Data_Parameters_AB><AB__Qtest><MainReport name="Quality Test Report"><Header><Line><Legend>Test result ok/not ok [1/0]: </Legend><Value>0</Value></Line><Line><Legend>Method file: </Legend><Value>C:\Users\Public\Documents\Bruker\OPUS_8.2.28\QT\IRBT_v3_default.QT</Value></Line></Header><Matrix><Line><Legend></Legend><Legend>min</Legend><Legend>max</Legend><Legend>measured</Legend></Line><Line><Value>Absorption (X-Range 1):</Value><Value>0.400000</Value><Value>2.000000</Value><Value>0.126654</Value></Line><Line><Value>Noise (X-Range 4):</Value><Value></Value><Value>0.000300</Value><Value>0.000069</Value></Line><Line><Value>Signal/Noise (X-Range 2):</Value><Value>200.000000</Value><Value></Value><Value>46.183729</Value></Line><Line><Value>Signal/Noise (X-Range 3):</Value><Value>40.000000</Value><Value></Value><Value>12.163945</Value></Line><Line><Value>Water vapour (X-Range 5):</Value><Value></Value><Value>0.000300</Value><Value>0.000064</Value></Line><Line><Value>Signal/Water (X-Range 2):</Value><Value>100.000000</Value><Value></Value><Value>49.910531</Value></Line><Line><Value>Signal/Water (X-Range 3):</Value><Value>20.000000</Value><Value></Value><Value>13.145516</Value></Line><Line><Value>Fringes (X-Range 6):</Value><Value></Value><Value>0.000100</Value><Value>0.000069</Value></Line></Matrix></MainReport></AB__Qtest><Data_Parameters_ScSm><parameter name="DPF">1</parameter><parameter name="NPT">1814</parameter><parameter name="FXV">3996.33169228125</parameter><parameter name="LXV">499.541461535156</parameter><parameter name="CSF">1</parameter><parameter name="MXY">0.288996964693069</parameter><parameter name="MNY">0.0359235554933548</parameter><parameter name="DAT">31/05/2022</parameter><parameter name="TIM">14:11:04.180 (GMT+2)</parameter><parameter name="DXU">WN</parameter></Data_Parameters_ScSm><Data_Parameters_ScRf><parameter name="DPF">1</parameter><parameter name="NPT">1820</parameter><parameter name="FXV">4004.04661832813</parameter><parameter name="LXV">495.683998511719</parameter><parameter name="CSF">1</parameter><parameter name="MXY">0.265037775039673</parameter><parameter name="MNY">0.0291141755878925</parameter><parameter name="DAT">31/05/2022</parameter><parameter name="TIM">14:10:37.095 (GMT+2)</parameter><parameter name="DXU">WN</parameter></Data_Parameters_ScRf><Optic_Parameters_Rf><parameter name="APR">0</parameter><parameter name="APT">Open</parameter><parameter name="BMS">KBr</parameter><parameter name="DTC">RT-DLaTGS_IR-Biotyper [Microplate reader]</parameter><parameter name="HPF">0</parameter><parameter name="LPF">10.0</parameter><parameter name="LPV">4000</parameter><parameter name="PGR">0</parameter><parameter name="RCH">Module port</parameter><parameter name="RDX">0</parameter><parameter name="SRC">MIR</parameter><parameter name="VEL">10.0</parameter><parameter name="SON">Off</parameter></Optic_Parameters_Rf><Acquisition_Parameters_Rf><parameter name="ADT">1</parameter><parameter name="AQM">DD</parameter><parameter name="CFE">0</parameter><parameter name="COR">0</parameter><parameter name="DEL">0</parameter><parameter name="DLY">0</parameter><parameter name="HFW">8000</parameter><parameter name="LFW">0</parameter><parameter name="NSR">32</parameter><parameter name="PLF">AB</parameter><parameter name="RES">6</parameter><parameter name="RGN">-1</parameter><parameter name="STR">0</parameter><parameter name="TCL">MakeCompatibleScalar (0, {WSV=1.000000, ARV=0});</parameter><parameter name="TDL">37</parameter><parameter name="RPO">0</parameter></Acquisition_Parameters_Rf><FT_-_Parameters_Rf><parameter name="APF">B3</parameter><parameter name="HFQ">500</parameter><parameter name="LFQ">4000</parameter><parameter name="NLI">0</parameter><parameter name="PHR">24</parameter><parameter name="PHZ">ML</parameter><parameter name="SPZ">NO</parameter><parameter name="ZFF">1</parameter></FT_-_Parameters_Rf><Optic_Parameters_><parameter name="APR">0</parameter><parameter name="APT">Open</parameter><parameter name="BMS">KBr</parameter><parameter name="CHN">Module port</parameter><parameter name="DTC">RT-DLaTGS_IR-Biotyper [Microplate reader]</parameter><parameter name="HPF">0</parameter><parameter name="LPF">10.0</parameter><parameter name="LPV">4000</parameter><parameter name="PGN">0</parameter><parameter name="RDX">0</parameter><parameter name="SRC">MIR</parameter><parameter name="VEL">10.0</parameter><parameter name="SON">Off</parameter></Optic_Parameters_><FT_-_Parameters_><parameter name="APF">B3</parameter><parameter name="HFQ">500</parameter><parameter name="LFQ">4000</parameter><parameter name="NLI">0</parameter><parameter name="PHR">24</parameter><parameter name="PHZ">ML</parameter><parameter name="SPZ">NO</parameter><parameter name="ZFF">1</parameter></FT_-_Parameters_><Acquisition_Parameters_><parameter name="ADT">1</parameter><parameter name="AQM">DD</parameter><parameter name="CFE">0</parameter><parameter name="COR">0</parameter><parameter name="DEL">0</parameter><parameter name="DLY">0</parameter><parameter name="HFW">8000</parameter><parameter name="LFW">0</parameter><parameter name="NSS">32</parameter><parameter name="PLF">AB</parameter><parameter name="RES">6</parameter><parameter name="SOT">0</parameter><parameter name="TCL">MakeCompatibleScalar (0, {WSV=1.000000, ARV=0});</parameter><parameter name="TDL">37</parameter><parameter name="SPO">0</parameter><parameter name="SGN">-1</parameter></Acquisition_Parameters_><Instrument_Parameters_Rf><parameter name="HFL">15800.168544</parameter><parameter name="LFL">0</parameter><parameter name="LWN">15800.168544</parameter><parameter name="ABP">32197</parameter><parameter name="SSP">1</parameter><parameter name="ARG">2</parameter><parameter name="ASG">2</parameter><parameter name="ASS">32</parameter><parameter name="GFW">16</parameter><parameter name="GBW">16</parameter><parameter name="BFW">0</parameter><parameter name="BBW">0</parameter><parameter name="PKA">7262</parameter><parameter name="PKL">4996</parameter><parameter name="PRA">7449</parameter><parameter name="PRL">5001</parameter><parameter name="P2A">1</parameter><parameter name="P2L">1</parameter><parameter name="P2R">1</parameter><parameter name="P2K">1</parameter><parameter name="DAQ">0</parameter><parameter name="AG2">1</parameter><parameter name="SSM">1</parameter><parameter name="RSN">25761</parameter><parameter name="CRR">0</parameter><parameter name="SRT">1654006237.096</parameter><parameter name="DUR">19.6379852294922</parameter><parameter name="TSC">29.1</parameter><parameter name="MVD">0.308417856693268</parameter><parameter name="AN1">0.225792155857957</parameter><parameter name="AN2">0</parameter><parameter name="VSN">2.485 Apr  4 2017</parameter><parameter name="SRN">0085</parameter><parameter name="CAM">0</parameter><parameter name="INS">IR-Biotyper</parameter><parameter name="FOC">69</parameter><parameter name="RDY">1</parameter><parameter name="ARS">32</parameter></Instrument_Parameters_Rf><Sample_Parameters_><parameter name="BLD"></parameter><parameter name="CNM">Admin</parameter><parameter name="CPY"></parameter><parameter name="DPM"></parameter><parameter name="EXP">IRBT_v3_32Scans.XPM</parameter><parameter name="LCT"></parameter><parameter name="SFM">Microplate, HTS-XT</parameter><parameter name="SNM">220531-1301_AJC34M (D_4)_D8_6103007f-86e5-49bb-85fd-0b36e403c5e8.0</parameter><parameter name="XPP">C:\Users\Public\Documents\Bruker\OPUS_8.2.28\XPM</parameter><parameter name="IST">OK</parameter><parameter name="CPG">1252</parameter><parameter name="UID">05428be1-440b-4f83-9753-69c6e8b9704d</parameter></Sample_Parameters_><Instrument_Parameters_><parameter name="HFL">15800.168544</parameter><parameter name="LFL">0</parameter><parameter name="LWN">15800.168544</parameter><parameter name="ABP">32197</parameter><parameter name="SSP">1</parameter><parameter name="ASG">2</parameter><parameter name="ARG">2</parameter><parameter name="ASS">32</parameter><parameter name="GFW">16</parameter><parameter name="GBW">16</parameter><parameter name="BFW">0</parameter><parameter name="BBW">0</parameter><parameter name="PKA">8014</parameter><parameter name="PKL">4988</parameter><parameter name="PRA">8297</parameter><parameter name="PRL">4993</parameter><parameter name="P2A">1</parameter><parameter name="P2L">1</parameter><parameter name="P2R">1</parameter><parameter name="P2K">1</parameter><parameter name="DAQ">0</parameter><parameter name="AG2">1</parameter><parameter name="SSM">1</parameter><parameter name="RSN">13506</parameter><parameter name="CRR">0</parameter><parameter name="SRT">1654006264.18</parameter><parameter name="DUR">19.6379852294922</parameter><parameter name="TSC">29.1</parameter><parameter name="MVD">0.224535927176476</parameter><parameter name="AN1">0.225791146545746</parameter><parameter name="AN2">0</parameter><parameter name="VSN">2.485 Apr  4 2017</parameter><parameter name="SRN">0085</parameter><parameter name="CAM">0</parameter><parameter name="INS">IR-Biotyper</parameter><parameter name="FOC">69</parameter><parameter name="RDY">1</parameter></Instrument_Parameters_><History/></OPUSDataFile>
