<?xml version="1.0" encoding="UTF-8" ?>
<OPUSDataFile><AB><Ydata ylabel="Absorbance Units"><values byteorder="INTEL" format="FLOAT32" numvalues="3497"> -0.07522676 -0.07522852 -0.07523335 -0.07524206 -0.07524291 -0.07523531 -0.07520768 -0.07516102 -0.07510404 -0.07504033
 -0.07499652 -0.07497229 -0.07498366 -0.07502127 -0.0750722 -0.07512616 -0.07515801 -0.07517056 -0.07515327 -0.07512389
 -0.07509149 -0.07507367 -0.07508476 -0.07512435 -0.07519905 -0.07528868 -0.07539087 -0.07548275 -0.07555955 -0.07561392
 -0.07564401 -0.07565755 -0.07565489 -0.07564384 -0.07562441 -0.07559779 -0.0755645 -0.07552741 -0.07548886 -0.07545905
 -0.07543876 -0.07543636 -0.07544776 -0.07547113 -0.07549976 -0.07552452 -0.07554386 -0.07555179 -0.07555477 -0.07555439
 -0.07555719 -0.07556754 -0.07558192 -0.07560126 -0.07561623 -0.07562465 -0.07562657 -0.07562102 -0.07562026 -0.07562495
 -0.07564497 -0.07567973 -0.07572398 -0.07577569 -0.07581978 -0.07585584 -0.07587364 -0.07587581 -0.07586265 -0.07583894
 -0.07581174 -0.07578689 -0.07577396 -0.07577571 -0.07579991 -0.07583846 -0.07589217 -0.07594226 -0.07598265 -0.0759977
 -0.07597986 -0.07593499 -0.0758601 -0.07578425 -0.07570902 -0.07566994 -0.07566912 -0.07572774 -0.07584452 -0.07600889
 -0.07621388 -0.07641303 -0.07659846 -0.0767128 -0.07676223 -0.07672799 -0.07663159 -0.07650015 -0.07635058 -0.07621386
 -0.07609578 -0.07601185 -0.07595938 -0.0759427 -0.07595105 -0.07598194 -0.07602481 -0.07607527 -0.07613458 -0.07620245
 -0.07628108 -0.0763723 -0.07645431 -0.07652602 -0.07655302 -0.0765361 -0.07647784 -0.07638586 -0.07630995 -0.07625441
 -0.07626674 -0.07633451 -0.07645661 -0.07660696 -0.07673872 -0.07684143 -0.07687613 -0.07686746 -0.07682066 -0.07676367
 -0.07671697 -0.07668366 -0.07666942 -0.07667222 -0.07668994 -0.07673528 -0.0768101 -0.07692483 -0.07708377 -0.07725444
 -0.07743575 -0.07752745 -0.07752784 -0.07738604 -0.0771212 -0.07683534 -0.07653835 -0.07632489 -0.07618303 -0.07613136
 -0.07615398 -0.07623663 -0.07635603 -0.07648259 -0.07659078 -0.076645 -0.07664891 -0.076585 -0.07649993 -0.07640735
 -0.07634295 -0.07632494 -0.07633647 -0.07637928 -0.07642122 -0.07645771 -0.07648584 -0.07650498 -0.07653576 -0.07657857
 -0.07664365 -0.07672766 -0.07681494 -0.07690042 -0.07695536 -0.07697973 -0.07695618 -0.07689404 -0.0767991 -0.07668611
 -0.07657447 -0.07647543 -0.07640565 -0.07636709 -0.0763665 -0.07639822 -0.07646236 -0.07655057 -0.0766618 -0.07678483
 -0.07691923 -0.07704606 -0.07716449 -0.07724576 -0.07728808 -0.07726978 -0.07719168 -0.07706429 -0.07689191 -0.07670799
 -0.07651541 -0.07634263 -0.07619028 -0.07607398 -0.07599338 -0.07595685 -0.07595812 -0.07599676 -0.07605553 -0.07612198
 -0.07617722 -0.0762041 -0.07620326 -0.07616697 -0.07611721 -0.0760576 -0.07600871 -0.07597578 -0.07596243 -0.07596984
 -0.07599522 -0.07603841 -0.07610121 -0.07618342 -0.07628337 -0.07639845 -0.07651101 -0.0766173 -0.07669169 -0.07673589
 -0.07673935 -0.07671034 -0.0766572 -0.0765904 -0.07652409 -0.07647079 -0.07644406 -0.07645664 -0.07652104 -0.07663858
 -0.07681843 -0.07703386 -0.07728624 -0.07751814 -0.07772017 -0.07784881 -0.0778952 -0.07787379 -0.07778484 -0.07764842
 -0.07746486 -0.07723439 -0.07696259 -0.07668616 -0.0764154 -0.0762143 -0.07608107 -0.07605001 -0.07609875 -0.0762101
 -0.07634635 -0.07644814 -0.07650899 -0.07649188 -0.07643896 -0.07636569 -0.07630183 -0.07626951 -0.07625572 -0.07626541
 -0.07626088 -0.07623503 -0.07616891 -0.07605639 -0.07592707 -0.07578201 -0.07567038 -0.07559361 -0.07557754 -0.07561921
 -0.07571324 -0.07585116 -0.07599948 -0.07614519 -0.07623324 -0.07626642 -0.07621691 -0.07611264 -0.07597886 -0.07583334
 -0.07570492 -0.07558564 -0.07548018 -0.0753737 -0.07525841 -0.07513633 -0.07500357 -0.07487957 -0.07476775 -0.07467889
 -0.07461658 -0.07456335 -0.07451876 -0.07444432 -0.07433923 -0.07418659 -0.07399321 -0.07380164 -0.0736168 -0.07348583
 -0.07339874 -0.07335232 -0.07333742 -0.07333399 -0.07334249 -0.07335632 -0.07337532 -0.07340095 -0.07342081 -0.07343162
 -0.07341084 -0.07334974 -0.07322834 -0.07303819 -0.07277402 -0.0724296 -0.07203174 -0.0715802 -0.07112626 -0.07067338
 -0.07025407 -0.06986883 -0.06952158 -0.06921173 -0.06893739 -0.06869814 -0.06849298 -0.06831825 -0.06816414 -0.06802638
 -0.06789183 -0.06776028 -0.06762873 -0.06749035 -0.06734294 -0.06716567 -0.06694194 -0.06667044 -0.06633905 -0.06598402
 -0.06561405 -0.06525125 -0.06490344 -0.06456507 -0.06423637 -0.0639109 -0.06358798 -0.06327341 -0.06296787 -0.06268632
 -0.06242859 -0.06220397 -0.06200506 -0.06181041 -0.06160307 -0.06132068 -0.06096522 -0.06049678 -0.05996304 -0.0594106
 -0.05887385 -0.05840957 -0.058002 -0.05766204 -0.05735418 -0.05706645 -0.05677188 -0.05645782 -0.05612328 -0.05576409
 -0.05539789 -0.05502701 -0.05465716 -0.0542895 -0.05390397 -0.05349949 -0.05305332 -0.05256809 -0.05205208 -0.05151193
 -0.05098092 -0.05046202 -0.04998177 -0.04953645 -0.04913448 -0.04876298 -0.04841144 -0.04806124 -0.04768919 -0.0472928
 -0.0468584 -0.0464085 -0.04595145 -0.04549633 -0.04505357 -0.04459404 -0.04411313 -0.04359172 -0.04302194 -0.04244936
 -0.04187599 -0.0413608 -0.04090445 -0.04050503 -0.04015712 -0.0398169 -0.03948177 -0.03911549 -0.03872365 -0.0383007
 -0.03785884 -0.03741893 -0.03698884 -0.03659256 -0.03621816 -0.03587002 -0.03551394 -0.03512982 -0.03469352 -0.03418029
 -0.03361902 -0.03300705 -0.03240201 -0.03181597 -0.03127848 -0.03079714 -0.03036019 -0.0299682 -0.02958299 -0.02920261
 -0.0287897 -0.02834509 -0.02785787 -0.02733202 -0.02677929 -0.02620221 -0.02561315 -0.02501454 -0.02441437 -0.02382041
 -0.02324567 -0.0226973 -0.02218925 -0.02171582 -0.02127982 -0.02086653 -0.02046981 -0.02008115 -0.01969556 -0.0193157
 -0.01894171 -0.01857445 -0.01821557 -0.01784965 -0.01747612 -0.01707007 -0.01663094 -0.01615301 -0.01563988 -0.0151186
 -0.01459311 -0.01409751 -0.01362805 -0.01319355 -0.01278402 -0.01238431 -0.01198662 -0.01157253 -0.01114294 -0.01069002
 -0.01022375 -0.009747175 -0.009272119 -0.008806097 -0.008349754 -0.007906819 -0.007465422 -0.007023842 -0.00657274 -0.006109729
 -0.00563965 -0.005162374 -0.004690916 -0.004225844 -0.003776628 -0.003342934 -0.002926526 -0.002525958 -0.0021359 -0.001754762
 -0.001375099 -0.0009964373 -0.0006137979 -0.0002288313 0.0001590391 0.0005459075 0.000928337 0.001303362 0.001666407 0.002021967
 0.002369454 0.002719106 0.003075482 0.003437711 0.003808903 0.004169677 0.00451757 0.004841157 0.005138222 0.005432772
 0.005726501 0.006060726 0.006434142 0.006856352 0.007317713 0.007779157 0.008231978 0.008626249 0.008969064 0.009246151
 0.009479536 0.009694343 0.009905428 0.0101409 0.01039179 0.01066267 0.01093538 0.01120015 0.01145549 0.01169708
 0.01193588 0.01217399 0.01241572 0.01266227 0.01291169 0.01316385 0.01341933 0.01367818 0.01394147 0.01420949
 0.0144842 0.01476775 0.01507162 0.01539725 0.01575774 0.01614624 0.01655807 0.01697913 0.01738768 0.01777432
 0.01812069 0.0184277 0.01868955 0.01891282 0.01909812 0.01925471 0.01938379 0.01950014 0.0196054 0.01971959
 0.01984545 0.01999698 0.0201759 0.02038104 0.02061218 0.02085987 0.02112424 0.02140309 0.02169659 0.02200718
 0.0223292 0.02264929 0.02295664 0.02322046 0.02344024 0.02359544 0.02370918 0.02379195 0.02387804 0.02399672
 0.0241587 0.02438415 0.02464164 0.02492926 0.02520208 0.02544728 0.02565537 0.02582027 0.0259722 0.02611336
 0.02626179 0.02641738 0.0265511 0.02666084 0.02671113 0.02670875 0.026666 0.02659534 0.02654345 0.02651226
 0.02653125 0.02658909 0.02668216 0.0267995 0.0269274 0.02706372 0.02720161 0.02734608 0.02749638 0.02766288
 0.02784891 0.028061 0.02830436 0.02856202 0.02883547 0.0290814 0.0292967 0.02944413 0.02952261 0.02953824
 0.02949498 0.0294342 0.02935732 0.02929428 0.02924034 0.02919343 0.02915587 0.02912689 0.02912203 0.02916675
 0.02926283 0.02943242 0.02963764 0.029864 0.03006486 0.03020648 0.03029355 0.03031102 0.03031689 0.03032053
 0.03036887 0.03047404 0.03062291 0.03081748 0.03100095 0.03117053 0.03127601 0.03131895 0.03129247 0.03120597
 0.03110037 0.03098789 0.03092979 0.0309283 0.03102379 0.03119706 0.03144393 0.03172762 0.03201043 0.03226306
 0.03244722 0.03257096 0.03262049 0.03264068 0.03264134 0.03266474 0.03272375 0.03283055 0.03298876 0.03319936
 0.03346195 0.03379258 0.03419188 0.0346698 0.03522146 0.03580571 0.03640881 0.03693855 0.0373866 0.03766998
 0.03780758 0.03778778 0.03766141 0.03749318 0.03733641 0.03727736 0.03732154 0.03751549 0.03779344 0.03814667
 0.0384771 0.03874917 0.03890585 0.03891967 0.03881615 0.03858899 0.03832117 0.03801862 0.03775214 0.03752483
 0.03734962 0.03722371 0.0371215 0.03704245 0.03696948 0.03690749 0.03686429 0.03684217 0.03685439 0.03688934
 0.03694243 0.03698296 0.036982 0.03690308 0.0367072 0.03638764 0.03591992 0.03535182 0.03468607 0.03399847
 0.033306 0.03266076 0.03207451 0.03155859 0.03111601 0.03073308 0.03040892 0.03010982 0.02983303 0.02953426
 0.02921607 0.02886472 0.02849309 0.02813809 0.02780506 0.02753242 0.02729699 0.02708488 0.02686208 0.02658095
 0.02624096 0.02581433 0.02535192 0.02486444 0.0244204 0.02404868 0.02377663 0.02362559 0.02354529 0.0235383
 0.0235017 0.02342666 0.02323993 0.02293823 0.02254147 0.02205664 0.0215691 0.02108269 0.02066517 0.02030798
 0.02001982 0.01978802 0.01958889 0.01941416 0.01924184 0.01906585 0.01887213 0.01865669 0.01841009 0.01813896
 0.01784091 0.01753502 0.01722682 0.01693192 0.01665691 0.0163983 0.01615787 0.01591851 0.01567868 0.0154291
 0.01516936 0.01490671 0.01464178 0.01438468 0.0141346 0.01389177 0.01365582 0.01342458 0.01320051 0.01298879
 0.01278981 0.01260933 0.0124385 0.01227197 0.01209635 0.01189831 0.01167568 0.01142026 0.01114758 0.01086004
 0.01057569 0.01030086 0.01003667 0.009785732 0.009533077 0.009277603 0.009007666 0.008722682 0.008425615 0.008117208
 0.007807388 0.007496322 0.007189863 0.006887699 0.006590998 0.006301388 0.006022729 0.005757487 0.005512843 0.005285555
 0.005077448 0.004876957 0.004674876 0.004466899 0.00424237 0.004024079 0.003814673 0.003646631 0.003533317 0.003465355
 0.003449527 0.003421002 0.003375231 0.003250662 0.003044024 0.002757254 0.002395124 0.002016116 0.001625881 0.001288008
 0.001000107 0.0007923864 0.0006487583 0.0005526819 0.000477007 0.0003699476 0.0002180651 -2.372179E-05 -0.0003255348 -0.000687936
 -0.001053567 -0.001388688 -0.001671112 -0.001876061 -0.002041229 -0.002170152 -0.002301437 -0.002447271 -0.002584244 -0.002713697
 -0.002775178 -0.002765533 -0.00266792 -0.002487849 -0.002288793 -0.002081359 -0.001962503 -0.001930654 -0.002038644 -0.002263196
 -0.002580957 -0.002960546 -0.003338092 -0.003703422 -0.004014069 -0.004291194 -0.004536992 -0.004773004 -0.005018283 -0.005258471
 -0.005496691 -0.005699633 -0.005855653 -0.005965841 -0.006024268 -0.006073131 -0.006116203 -0.006180622 -0.006268053 -0.006356702
 -0.006444528 -0.00649711 -0.006517191 -0.006502769 -0.006460169 -0.006411759 -0.00635908 -0.006317386 -0.006284045 -0.006260301
 -0.006246766 -0.006241801 -0.006254833 -0.00628862 -0.006363811 -0.006490577 -0.006688607 -0.006973149 -0.007328989 -0.007764715
 -0.008211117 -0.00866197 -0.009037903 -0.009327941 -0.009517878 -0.009606242 -0.009661623 -0.009689082 -0.009775496 -0.009918021
 -0.01014774 -0.01044958 -0.01078768 -0.01114646 -0.01146866 -0.01175321 -0.01196858 -0.01213139 -0.01224567 -0.01233486
 -0.01241899 -0.01251253 -0.0126316 -0.01277087 -0.01293551 -0.01310222 -0.01326675 -0.01340831 -0.01351967 -0.01361354
 -0.01368799 -0.01379078 -0.01392456 -0.01412364 -0.01438566 -0.01468523 -0.01501506 -0.0153144 -0.01558571 -0.01580152
 -0.01597807 -0.01614187 -0.01630322 -0.01649628 -0.01671012 -0.01694776 -0.01719024 -0.01742179 -0.01763507 -0.01782112
 -0.01798066 -0.01811366 -0.01821455 -0.01828278 -0.0183094 -0.01829152 -0.01823317 -0.01813267 -0.0180177 -0.01788962
 -0.01779407 -0.01773313 -0.01774716 -0.01783317 -0.01799653 -0.01822587 -0.01848403 -0.01875854 -0.01899863 -0.01920297
 -0.01934377 -0.01943202 -0.01946924 -0.01946715 -0.01943691 -0.01938193 -0.01930757 -0.01921238 -0.01909586 -0.01896115
 -0.01880778 -0.01864493 -0.01847442 -0.01830061 -0.01812567 -0.01793203 -0.01771903 -0.01744418 -0.01710538 -0.01666198
 -0.01611743 -0.01547019 -0.01473146 -0.01394172 -0.01311027 -0.01228267 -0.01145631 -0.01064881 -0.009850261 -0.009054841
 -0.00825723 -0.007450001 -0.00663441 -0.005809661 -0.004975749 -0.004132476 -0.003279692 -0.002414724 -0.001551433 -0.000688261
 0.0001382087 0.0009257799 0.001629716 0.002247165 0.002751514 0.003143064 0.003423687 0.003595656 0.003674083 0.003660706
 0.003567209 0.003400023 0.003175233 0.00291211 0.002646867 0.002404455 0.002230884 0.002134363 0.002141788 0.002236382
 0.002416753 0.002664495 0.002968477 0.00333358 0.003757 0.004256449 0.004836609 0.005495257 0.006235352 0.007019598
 0.007846313 0.00865647 0.009446903 0.0101608 0.01079751 0.01132259 0.0117413 0.01205236 0.01226753 0.01241466
 0.0125047 0.01257323 0.0126145 0.0126458 0.01262765 0.01254587 0.01232718 0.01193229 0.01128965 0.01035485
 0.009120233 0.007558719 0.005766227 0.003741934 0.001656966 -0.00047387 -0.002490588 -0.004381876 -0.006074495 -0.007569565
 -0.008884554 -0.01002597 -0.01104537 -0.01194557 -0.01276299 -0.01350015 -0.0141783 -0.01480708 -0.01541189 -0.01600249
 -0.01660466 -0.01721127 -0.01782998 -0.0184357 -0.01901718 -0.01955224 -0.0200278 -0.02043917 -0.02078189 -0.02106013
 -0.02127445 -0.02142538 -0.02151349 -0.02153325 -0.02148436 -0.02135989 -0.02116044 -0.02089307 -0.02056397 -0.0202156
 -0.01986069 -0.01957314 -0.01935962 -0.01928136 -0.01932213 -0.019489 -0.01974346 -0.02004501 -0.02035261 -0.02061691
 -0.02081682 -0.02092215 -0.0209421 -0.02086928 -0.02073386 -0.02054211 -0.02031851 -0.02006985 -0.01979823 -0.01950345
 -0.01919447 -0.01887037 -0.01860769 -0.01841484 -0.01844792 -0.01871493 -0.01935886 -0.02035833 -0.02171992 -0.02338359
 -0.02520333 -0.02711666 -0.02893835 -0.03065295 -0.03215672 -0.03348777 -0.03464007 -0.03566447 -0.03659141 -0.03744773
 -0.03825278 -0.03901208 -0.03973074 -0.04040881 -0.04104777 -0.04164131 -0.0421894 -0.04268023 -0.0431128 -0.04348797
 -0.04380696 -0.0440939 -0.04435156 -0.04461218 -0.04487517 -0.04515718 -0.04545195 -0.04575267 -0.04605081 -0.04632695
 -0.04657803 -0.04678912 -0.04696996 -0.04712037 -0.04726081 -0.04740334 -0.04756226 -0.04775043 -0.04795702 -0.04818565
 -0.04840369 -0.04860551 -0.04876921 -0.04888908 -0.04898208 -0.04904838 -0.04912825 -0.04922276 -0.04935008 -0.04950666
 -0.0496736 -0.04984864 -0.0500095 -0.0501629 -0.05031495 -0.05047419 -0.0506624 -0.05087569 -0.05112154 -0.05138371
 -0.05165139 -0.05190931 -0.05214448 -0.05235088 -0.05252207 -0.05266026 -0.05276331 -0.05284205 -0.05289656 -0.0529461
 -0.05299258 -0.05305309 -0.05312916 -0.05322242 -0.05333246 -0.05344903 -0.05357179 -0.05369324 -0.05381444 -0.05393624
 -0.05405891 -0.05418454 -0.05431078 -0.05443435 -0.05455294 -0.05466167 -0.05476085 -0.05484903 -0.05492712 -0.05499602
 -0.05505371 -0.05509914 -0.05513225 -0.05515052 -0.05516608 -0.05517898 -0.05521125 -0.05526577 -0.0553548 -0.05547993
 -0.05562877 -0.05580002 -0.05596593 -0.05612583 -0.05626067 -0.05637353 -0.05646669 -0.05654498 -0.05662367 -0.05670345
 -0.05679497 -0.05689092 -0.0569872 -0.05707418 -0.05713945 -0.05718458 -0.0572027 -0.05721273 -0.05721908 -0.0572442
 -0.05729688 -0.05738359 -0.05750919 -0.05765999 -0.05783598 -0.05801464 -0.05819444 -0.05835801 -0.05850495 -0.05863102
 -0.0587377 -0.05883424 -0.05892272 -0.05901742 -0.0591183 -0.05923364 -0.05935989 -0.05949509 -0.05963364 -0.05976754
 -0.05989233 -0.06000032 -0.0600921 -0.06016427 -0.06022403 -0.06027255 -0.06031994 -0.06036943 -0.06042723 -0.06049577
 -0.06057345 -0.0606609 -0.06075053 -0.0608419 -0.0609274 -0.06100678 -0.06107689 -0.06113798 -0.0611904 -0.06123457
 -0.06127197 -0.06130375 -0.06133319 -0.06136286 -0.06139905 -0.06144399 -0.06150379 -0.06157782 -0.06166828 -0.06177189
 -0.06188789 -0.06201112 -0.06214023 -0.06226734 -0.06239042 -0.06250136 -0.06259767 -0.06267816 -0.06274153 -0.06279676
 -0.06284422 -0.06289654 -0.06295423 -0.06302436 -0.06310634 -0.06319878 -0.06330033 -0.06340454 -0.06351006 -0.0636097
 -0.0637029 -0.06378499 -0.06385653 -0.06391568 -0.06396529 -0.06400635 -0.06404439 -0.06408298 -0.06412666 -0.06417932
 -0.06423903 -0.06430691 -0.06437609 -0.0644451 -0.06451079 -0.06457196 -0.06463355 -0.06469574 -0.06476524 -0.06484222
 -0.06492697 -0.06501875 -0.06511142 -0.06520457 -0.0652925 -0.06537656 -0.06545753 -0.06553712 -0.06561994 -0.06570458
 -0.06579188 -0.06587771 -0.06595795 -0.06603133 -0.06609448 -0.06615215 -0.06620514 -0.0662593 -0.06631679 -0.06638025
 -0.06645074 -0.0665284 -0.06661353 -0.06670448 -0.06680127 -0.06689966 -0.0669994 -0.06709588 -0.06718911 -0.06727743
 -0.06736089 -0.06743897 -0.06751119 -0.06757554 -0.06763224 -0.06768021 -0.0677214 -0.06775789 -0.06779176 -0.06782588
 -0.06786107 -0.06789841 -0.06793899 -0.067983 -0.06803336 -0.06809098 -0.06815805 -0.06823587 -0.06832135 -0.06841494
 -0.06850722 -0.06859762 -0.06867617 -0.06874252 -0.06879377 -0.06883083 -0.06886036 -0.06888384 -0.06891177 -0.06894463
 -0.0689896 -0.06904545 -0.06911355 -0.0691913 -0.06927603 -0.06936461 -0.06945335 -0.06953934 -0.06961957 -0.06969254
 -0.06975666 -0.06981204 -0.06985807 -0.06989659 -0.0699275 -0.06995467 -0.06997835 -0.07000381 -0.07003149 -0.07006552
 -0.07010606 -0.0701535 -0.07020745 -0.07026437 -0.07032389 -0.07038207 -0.07043936 -0.07049509 -0.07054989 -0.07060519
 -0.07066006 -0.07071423 -0.07076555 -0.07081141 -0.07085181 -0.07088479 -0.0709151 -0.07094386 -0.07097689 -0.07101689
 -0.07106428 -0.0711207 -0.07117854 -0.07123735 -0.0712878 -0.07132893 -0.07135876 -0.0713774 -0.0713933 -0.07140724
 -0.07143048 -0.07146267 -0.0715087 -0.07156648 -0.0716325 -0.07170429 -0.07177486 -0.07184335 -0.07190496 -0.0719615
 -0.07201257 -0.07206137 -0.07211033 -0.07216034 -0.07221302 -0.07226606 -0.07231892 -0.07237024 -0.07241908 -0.07246819
 -0.07251764 -0.07257115 -0.07262909 -0.07269265 -0.07276186 -0.07283574 -0.07291412 -0.07299549 -0.07307921 -0.07316169
 -0.07324176 -0.07331353 -0.07337721 -0.07342944 -0.07347352 -0.07351243 -0.07354991 -0.0735916 -0.07363706 -0.07368869
 -0.07374174 -0.07379426 -0.0738439 -0.07388858 -0.0739318 -0.07397379 -0.07401868 -0.0740675 -0.07411894 -0.07417312
 -0.07422605 -0.07427763 -0.07432815 -0.07437807 -0.07443251 -0.07449138 -0.07455739 -0.07462882 -0.07470181 -0.07477453
 -0.07484075 -0.0749009 -0.07495241 -0.07499772 -0.07503853 -0.07507635 -0.07511318 -0.07514832 -0.07518189 -0.07521335
 -0.07524202 -0.07527024 -0.07529809 -0.07532918 -0.07536414 -0.07540423 -0.07544978 -0.07549845 -0.07555011 -0.07560128
 -0.07565189 -0.07569998 -0.07574562 -0.07578823 -0.07582777 -0.07586359 -0.075896 -0.07592499 -0.07595179 -0.07597839
 -0.07600522 -0.07603411 -0.07606301 -0.07609093 -0.0761166 -0.07613806 -0.07615906 -0.07618004 -0.07620579 -0.07623823
 -0.07627547 -0.07631797 -0.07635921 -0.07639855 -0.07643339 -0.07646364 -0.07649238 -0.07651972 -0.07654782 -0.07657649
 -0.07660554 -0.07663523 -0.07666624 -0.07669925 -0.07673641 -0.07677739 -0.07682318 -0.07687159 -0.07692115 -0.07696865
 -0.07701146 -0.07704706 -0.07707322 -0.07709 -0.07709645 -0.07709565 -0.07708767 -0.07707738 -0.07706516 -0.07705697
 -0.07705325 -0.07706001 -0.07707757 -0.07710874 -0.07715309 -0.07720691 -0.07726926 -0.07733282 -0.07739811 -0.07746163
 -0.07752735 -0.07760093 -0.0776889 -0.07780339 -0.07794917 -0.07813687 -0.07836497 -0.07863663 -0.07894596 -0.07929014
 -0.07966744 -0.0800758 -0.0805189 -0.08099785 -0.08151216 -0.08206324 -0.08263899 -0.08323896 -0.08384605 -0.08445922
 -0.08505505 -0.08562994 -0.08613906 -0.08657451 -0.08686952 -0.08702033 -0.0869746 -0.08674387 -0.08631792 -0.08573515
 -0.08504017 -0.08429034 -0.0835639 -0.0828955 -0.08233755 -0.08189408 -0.08157977 -0.08139193 -0.08133342 -0.08139765
 -0.08158999 -0.08186848 -0.08223528 -0.08259328 -0.08293457 -0.08317985 -0.08332518 -0.08337329 -0.08332806 -0.08323432
 -0.08309583 -0.08295653 -0.08281585 -0.08269691 -0.082593 -0.08250018 -0.08241343 -0.08232176 -0.08222675 -0.08212715
 -0.08202156 -0.0819108 -0.08178615 -0.08164255 -0.08147728 -0.08128532 -0.08107999 -0.08086177 -0.08065118 -0.08045146
 -0.08027546 -0.08012523 -0.07999931 -0.07989762 -0.07980595 -0.07972351 -0.07963595 -0.07954453 -0.07944816 -0.07934985
 -0.07925967 -0.07917885 -0.07911629 -0.07906906 -0.0790374 -0.07901576 -0.07899825 -0.07898084 -0.07895768 -0.07893031
 -0.07889701 -0.07886369 -0.07883212 -0.07880645 -0.07878856 -0.07877719 -0.07877269 -0.07877094 -0.07877157 -0.07877181
 -0.07877149 -0.07877056 -0.07876927 -0.07877069 -0.07877538 -0.0787885 -0.07880998 -0.07884293 -0.07888537 -0.07893482
 -0.07898812 -0.07903901 -0.07908595 -0.07912426 -0.0791553 -0.07917836 -0.0791957 -0.0792086 -0.0792174 -0.07922268
 -0.0792233 -0.07921863 -0.07921033 -0.07919801 -0.0791876 -0.07917958 -0.0791788 -0.07918552 -0.07919807 -0.07921606
 -0.07923376 -0.07925117 -0.07926517 -0.07927662 -0.07928691 -0.07929666 -0.0793081 -0.07932105 -0.07933626 -0.07935311
 -0.07937124 -0.07938988 -0.07940864 -0.07942581 -0.07944087 -0.07945085 -0.07945438 -0.07945043 -0.0794376 -0.07942069
 -0.07939963 -0.07938314 -0.07937206 -0.07937216 -0.07938378 -0.07940581 -0.07943779 -0.07947401 -0.07951368 -0.07954929
 -0.07958029 -0.07960014 -0.07960997 -0.079608 -0.07959846 -0.07958688 -0.07957797 -0.07958027 -0.07959302 -0.07962022
 -0.07965374 -0.07969127 -0.07972284 -0.07974342 -0.07975096 -0.0797424 -0.07972714 -0.07970552 -0.07969084 -0.07968471
 -0.07969204 -0.0797132 -0.07974205 -0.07977805 -0.0798123 -0.07984481 -0.07987101 -0.07989136 -0.0799051 -0.07991274
 -0.07991484 -0.07991245 -0.07990733 -0.07990078 -0.07989498 -0.07989053 -0.07988866 -0.07988931 -0.07989287 -0.07989864
 -0.07990645 -0.07991581 -0.07992636 -0.07993899 -0.07995363 -0.07997243 -0.07999573 -0.0800233 -0.08005518 -0.08008679
 -0.08011785 -0.08014335 -0.08016366 -0.08017837 -0.08018832 -0.08019661 -0.0802034 -0.0802108 -0.08021817 -0.08022513
 -0.0802315 -0.08023679 -0.08024118 -0.08024477 -0.08024736 -0.08024859 -0.08024931 -0.08024894 -0.08025188 -0.08025894
 -0.0802746 -0.08030049 -0.08033352 -0.08037411 -0.08041173 -0.0804458 -0.0804691 -0.08048194 -0.08048753 -0.0804869
 -0.08048826 -0.08049157 -0.08050133 -0.08051636 -0.08053628 -0.08055948 -0.08058318 -0.08060601 -0.08062518 -0.08064029
 -0.08064976 -0.08065467 -0.08065499 -0.0806525 -0.08064765 -0.08064252 -0.0806374 -0.08063549 -0.08063737 -0.08064515
 -0.08065936 -0.08067793 -0.08070081 -0.08072358 -0.08074621 -0.08076712 -0.08078673 -0.08080739 -0.08082877 -0.08085151
 -0.08087381 -0.08089145 -0.08090314 -0.08090352 -0.08089573 -0.08088013 -0.08086342 -0.08085161 -0.08084784 -0.08085727
 -0.08087421 -0.0808983 -0.08092178 -0.08094165 -0.08095799 -0.08096977 -0.0809828 -0.08099785 -0.08101592 -0.08103719
 -0.08105676 -0.08107454 -0.08108814 -0.08109834 -0.08110928 -0.08112153 -0.0811401 -0.08116375 -0.08119214 -0.08122326
 -0.08125319 -0.08128129 -0.08130496 -0.08132501 -0.08134156 -0.08135444 -0.08136384 -0.0813686 -0.08136771 -0.08136301
 -0.08135395 -0.08134691 -0.08134273 -0.08134718 -0.08136126 -0.08138466 -0.08141748 -0.08145289 -0.08149036 -0.0815206
 -0.08154348 -0.0815528 -0.08155017 -0.08153776 -0.08151876 -0.08150248 -0.08149054 -0.08149105 -0.0815013 -0.08152205
 -0.08154804 -0.08157489 -0.08159973 -0.08161907 -0.08163398 -0.08164386 -0.08165101 -0.08165618 -0.08165952 -0.08166121
 -0.08166065 -0.08165759 -0.08165395 -0.0816498 -0.08165037 -0.0816559 -0.08167103 -0.0816952 -0.08172728 -0.08176591
 -0.08180512 -0.08184393 -0.08187636 -0.08190318 -0.08192258 -0.08193685 -0.08194812 -0.08195793 -0.08196865 -0.08197966
 -0.08199135 -0.08200262 -0.08201272 -0.08202268 -0.08203252 -0.08204373 -0.08205679 -0.08207111 -0.0820868 -0.0821017
 -0.08211567 -0.08212673 -0.08213481 -0.08213814 -0.08213685 -0.0821305 -0.08211989 -0.08210772 -0.08209495 -0.08208562
 -0.08207969 -0.08207931 -0.08208316 -0.08209077 -0.08209994 -0.08210897 -0.08211523 -0.08211631 -0.08211195 -0.08210054
 -0.08208667 -0.08207089 -0.08205895 -0.08205257 -0.08205123 -0.08205549 -0.08205882 -0.08206082 -0.08205719 -0.08204805
 -0.08203641 -0.08202275 -0.08201255 -0.08200525 -0.08200192 -0.08200099 -0.08199856 -0.08199438 -0.08198536 -0.08197428
 -0.08196304 -0.08195497 -0.08195435 -0.0819608 -0.0819763 -0.08199622 -0.08201971 -0.08204073 -0.08205762 -0.08206572
 -0.0820637 -0.08205059 -0.08202567 -0.08199397 -0.08195567 -0.08191974 -0.08188649 -0.08186182 -0.08184502 -0.08183397
 -0.08182724 -0.08181743 -0.08180454 -0.08178375 -0.08175837 -0.08173153 -0.08170776 -0.08169509 -0.08169331 -0.08170734
 -0.081728 -0.08175264 -0.08176865 -0.08176921 -0.08175098 -0.08170967 -0.08165576 -0.08158955 -0.08152615 -0.08146748
 -0.08142197 -0.08139051 -0.08137056 -0.08136172 -0.08135514 -0.08135056 -0.08134163 -0.08132908 -0.08131244 -0.08129274
 -0.08127234 -0.08125231 -0.08123566 -0.08122298 -0.08121717 -0.08121556 -0.08121795 -0.08121829 -0.08121246 -0.0811978
 -0.08117076 -0.0811367 -0.08109604 -0.08105547 -0.08101706 -0.08097987 -0.08094453 -0.08090357 -0.08085647 -0.08079933
 -0.08073241 -0.08066222 -0.08058988 -0.08052737 -0.0804745 -0.08043776 -0.08041441 -0.08040065 -0.08039329 -0.08038419
 -0.08037251 -0.08035346 -0.08032834 -0.08029663 -0.08025977 -0.0802187 -0.08017378 -0.08012557 -0.08007339 -0.08001691
 -0.07995658 -0.07989193 -0.07982681 -0.07976142 -0.07970095 -0.07964583 -0.0795977 -0.07955655 -0.07952142 -0.07949261
 -0.07947236 -0.07946108 -0.07946308 -0.07947581 -0.07949644 -0.07951786 -0.07952499 -0.07951377 -0.07946947 -0.07940073
 -0.07930832 -0.07920657 -0.0791062 -0.07901096 -0.0789269 -0.07884628 -0.0787676 -0.07868655 -0.07860038 -0.07851843
 -0.07844114 -0.07837985 -0.07833569 -0.07830709 -0.07829366 -0.07828555 -0.07828231 -0.07827663 -0.07826761 -0.07824813
 -0.07821623 -0.07816149 -0.0780858 -0.07798598 -0.07786948 -0.07774445 -0.07761777 -0.07749866 -0.07739083 -0.07729943
 -0.07722513 -0.07717054 -0.07713046 -0.07710516 -0.07708413 -0.07706601 -0.0770395 -0.07700329 -0.07694791 -0.07687256
 -0.0767717 -0.07664544 -0.07649954 -0.07633564 -0.07616974 -0.07600296 -0.07584927 -0.07570762 -0.07558232 -0.07547178
 -0.07537523 -0.07529099 -0.07521762 -0.07515065 -0.07508599 -0.07501875 -0.07494365 -0.07486161 -0.07477076 -0.07467697
 -0.07458185 -0.07448842 -0.07439851 -0.07430726 -0.07421477 -0.07411195 -0.07399798 -0.07387076 -0.07373057 -0.07358751
 -0.07344209 -0.07330402 -0.07317083 -0.0730364 -0.07289802 -0.07274262 -0.07257383 -0.07239199 -0.07220265 -0.07201473
 -0.07182825 -0.0716471 -0.07146786 -0.07128903 -0.07110939 -0.07092717 -0.07074542 -0.07056399 -0.07038908 -0.07022254
 -0.07006487 -0.0699183 -0.06976269 -0.06959731 -0.06938976 -0.06913927 -0.06884231 -0.06850149 -0.0681394 -0.0677554
 -0.06735905 -0.06694634 -0.06650978 -0.06604802 -0.06555387 -0.06503005 -0.06447593 -0.06389826 -0.06330122 -0.06269606
 -0.06209166 -0.06149392 -0.06091037 -0.06033166 -0.05975619 -0.05917687 -0.05858843 -0.05801076 -0.057445 -0.05691473
 -0.05642245 -0.05596681 -0.05554755 -0.055155 -0.05478943 -0.05444996 -0.05413625 -0.05384744 -0.05358016 -0.05332517
 -0.05307708 -0.05282109 -0.05255305 -0.05225959 -0.05194323 -0.05160084 -0.05123808 -0.05085875 -0.05046343 -0.05005356
 -0.04962781 -0.04918572 -0.04872844 -0.0482586 -0.04776226 -0.0472423 -0.04664389 -0.04596318 -0.04515127 -0.04420855
 -0.04319682 -0.04212294 -0.04108132 -0.04006196 -0.03906681 -0.03808166 -0.03706319 -0.03600847 -0.03489257 -0.03371367
 -0.03246661 -0.03112835 -0.02968415 -0.02808672 -0.02629452 -0.02429707 -0.02205026 -0.01967559 -0.01718393 -0.01475783
 -0.01244523 -0.0103097 -0.008373016 -0.006590039 -0.004960706 -0.003410368 -0.001934171 -0.0004295044 0.001112373 0.002827002
 0.004699196 0.006750459 0.008913752 0.01097929 0.01293803 0.01464726 0.01618666 0.01761415 0.01898474 0.02038381
 0.02180807 0.02328186 0.0247873 0.02631757 0.02787627 0.02946881 0.03107109 0.03268365 0.03425642 0.03577859
 0.0372586 0.03869551 0.04012128 0.04153563 0.04288828 0.04417246 0.0452983 0.0462717 0.04707221 0.04771519
 0.04823821 0.04864881 0.04897975 0.0492344 0.04942621 0.0495707 0.04968479 0.04978954 0.04990621 0.05004046
 0.05020595 0.0503791 0.05055749 0.05071089 0.05082993 0.05091091 0.0509489 0.05097483 0.05099007 0.05103642
 0.05111499 0.0512163 0.0513351 0.05141559 0.05145489 0.05141222 0.05128413 0.05104044 0.05067511 0.05015571
 0.04949289 0.04868035 0.04775232 0.04673968 0.04567136 0.04457383 0.04347243 0.04237358 0.04133946 0.04038515
 0.03958317 0.0389591 0.0385108 0.03824707 0.03810371 0.03807645 0.03811211 0.03820847 0.03835252 0.03854673
 0.03881055 0.0391468 0.03958067 0.04011063 0.04074606 0.0414818 0.0423121 0.04323118 0.04422957 0.04529949
 0.04643246 0.04761453 0.04883562 0.0500792 0.05133424 0.05259363 0.05384992 0.05511447 0.05638711 0.05768657
 0.05901702 0.06037629 0.06176517 0.06316555 0.06457705 0.06601411 0.06747917 0.06901339 0.07060227 0.07220153
 0.0737765 0.0751801 0.07641968 0.07742763 0.07825536 0.0789573 0.07955477 0.08009943 0.08056817 0.08096002
 0.08125421 0.08144189 0.08150417 0.0814412 0.08120064 0.08076592 0.08012877 0.07927058 0.07833665 0.07733985
 0.07635036 0.07537001 0.07429864 0.07313122 0.07177834 0.07024682 0.06852552 0.06662487 0.06458123 0.06238034
 0.06002118 0.05745615 0.05458243 0.05145595 0.048024 0.04457453 0.04132582 0.03838249 0.03591538 0.03369467
 0.03167557 0.02968847 0.02766862 0.02563419 0.02357371 0.02157032 0.01963295 0.01777145 0.01598594 0.014223
 0.01248168 0.01073121 0.008979134 0.007249917 0.005550808 0.003922272 0.002357586 0.0008648346 -0.0005726973 -0.001976623
 -0.00336017 -0.004741454 -0.00613986 -0.007562659 -0.009064686 -0.01067317 -0.01243408 -0.0144096 -0.01642975 -0.01849318
 -0.02029836 -0.02177478 -0.02295582 -0.02382848 -0.02461689 -0.02533167 -0.02609803 -0.0269111 -0.02775606 -0.02862248
 -0.02944148 -0.03022061 -0.0309505 -0.03164038 -0.03231733 -0.03295792 -0.03354381 -0.03403717 -0.03438115 -0.03458175
 -0.03461752 -0.03452876 -0.03433282 -0.03404969 -0.03369485 -0.03325525 -0.03273681 -0.03209131 -0.0313194 -0.0303243
 -0.02909656 -0.02757088 -0.02574518 -0.02378174 -0.02170064 -0.01979685 -0.01806545 -0.01663293 -0.01547249 -0.01456003
 -0.01387713 -0.01337566 -0.01303597 -0.01281409 -0.01267789 -0.01258324 -0.01248844 -0.01234558 -0.0121421 -0.01184356
 -0.01151242 -0.01116125 -0.01084752 -0.01059485 -0.01038977 -0.01023709 -0.01008998 -0.009944679 -0.009765763 -0.009551374
 -0.009306256 -0.00903244 -0.008757742 -0.00848074 -0.00821011 -0.007937443 -0.007639757 -0.007307785 -0.006907165 -0.006438414
 -0.005887124 -0.005257189 -0.004552497 -0.003760807 -0.002876072 -0.001882423 -0.0007642267 0.0004648085 0.001808689 0.003228835
 0.004714351 0.006252676 0.007835714 0.009499544 0.01124735 0.01310266 0.01506652 0.01705721 0.01906548 0.02094985
 0.02271111 0.02428192 0.02567077 0.02687757 0.027895 0.02871096 0.02930418 0.02963398 0.02968987 0.02943903
 0.02889655 0.02805871 0.02695655 0.0256034 0.0240277 0.02223974 0.0202669 0.01810803 0.01583295 0.01344245
 0.01106688 0.00871829 0.006493029 0.004396783 0.002415914 0.0005465329 -0.00126911 -0.0030271 -0.004735678 -0.006382507
 -0.007923946 -0.00936185 -0.01067228 -0.01187875 -0.01300646 -0.0140805 -0.01514015 -0.01619542 -0.01726992 -0.01835389
 -0.01945264 -0.02053915 -0.02160711 -0.02262684 -0.02358831 -0.02448297 -0.02530549 -0.0260746 -0.02679107 -0.02747776
 -0.02813598 -0.02876395 -0.02935984 -0.02989755 -0.03037652 -0.03077875 -0.03110858 -0.0313718 -0.03157268 -0.0317239
 -0.03182804 -0.03189321 -0.03192507 -0.03193146 -0.03192112 -0.03190289 -0.03188358 -0.03186923 -0.03186257 -0.0318658
 -0.03188016 -0.03190565 -0.03194645 -0.03200242 -0.03208284 -0.0321884 -0.03232884 -0.03250474 -0.03271756 -0.03296654
 -0.03324286 -0.03354421 -0.03385369 -0.03416707 -0.03446075 -0.03473089 -0.03495551 -0.03513615 -0.03526439 -0.0353465
 -0.03538645 -0.0353892 -0.03535967 -0.03530163 -0.03521658 -0.03511337 -0.03499396 -0.03487149 -0.03474915 -0.03463761
 -0.03453891 -0.03446016 -0.03440214 -0.03437106 -0.03436732 -0.0343947 -0.03445292 -0.03453936 -0.03465285 -0.03478501
 -0.03493444 -0.03509151 -0.03525582 -0.03542148 -0.03558907 -0.03575736 -0.03592594 -0.03609425 -0.03626081 -0.0364241
 -0.03658372 -0.03673918 -0.03688993 -0.03703674 -0.03717436 -0.03730222 -0.03741302 -0.03750507 -0.03757697 -0.03762806
 -0.03766281 -0.03768143 -0.03768818 -0.03768329 -0.03767059 -0.03765052 -0.03762837 -0.03760346 -0.03757715 -0.03754618
 -0.03750336 -0.03744603 -0.03736507 -0.03726336 -0.03713949 -0.03700041 -0.03685184 -0.03669671 -0.03654002 -0.03637582
 -0.03620371 -0.03601534 -0.03580734 -0.03558076 -0.03533378 -0.03507978 -0.03481939 -0.03457008 -0.03433295 -0.03411902
 -0.0339281 -0.03375928 -0.03361093 -0.03347216 -0.03334203 -0.03320997 -0.03307888 -0.03294978 -0.0328279 -0.03272353
 -0.03263752 -0.03257658 -0.03253487 -0.03250992 -0.03249664 -0.03248966 -0.0324932 -0.03250595 -0.03253958 -0.03259712
 -0.03268553 -0.03280808 -0.03295595 -0.03312946 -0.03330917 -0.03349389 -0.03367185 -0.03384333 -0.03401214 -0.0341789
 -0.0343502 -0.03452469 -0.0347002 -0.034876 -0.03504791 -0.035219 -0.03539252 -0.03557149 -0.0357623 -0.0359621
 -0.03617223 -0.03638444 -0.03659502 -0.03679598 -0.03698348 -0.03715274 -0.03730185 -0.03742827 -0.03753117 -0.03760998
 -0.03766409 -0.03769866 -0.03771387 -0.03772032 -0.03771836 -0.03771523 -0.03770994 -0.03769957 -0.03768272 -0.03765209
 -0.03760812 -0.03754829 -0.03747361 -0.03738518 -0.03728244 -0.03716536 -0.03703276 -0.03688411 -0.036717 -0.03653121
 -0.03632019 -0.03608166 -0.03580952 -0.03550034 -0.03515806 -0.03478183 -0.03438321 -0.03396345 -0.03352934 -0.03308143
 -0.03262031 -0.03214634 -0.03166467 -0.03117675 -0.03069533 -0.03022091 -0.02976345 -0.02931976 -0.02888747 -0.02846161
 -0.02803152 -0.02759629 -0.02714865 -0.02669507 -0.02623735 -0.025785 -0.02534379 -0.02492075 -0.02452013 -0.02414501
 -0.02379793 -0.0234754 -0.02317843 -0.02289492 -0.02262402 -0.02235276 -0.02208023 -0.02180149 -0.02151633 -0.02122194
 -0.02091742 -0.02059428 -0.0202529 -0.01988882 -0.01950624 -0.01911379 -0.01871507 -0.01832182 -0.01793186 -0.01754834
 -0.01716498 -0.01677842 -0.01638084 -0.01596733 -0.01553075 -0.01506593 -0.014574 -0.01405227 -0.01351363 -0.01295939
 -0.01240331 -0.01184722 -0.01129785 -0.01075569 -0.01022697 -0.009712142 -0.009220011 -0.008750191 -0.008305106 -0.007882196
 -0.007472794 -0.00707389 -0.006672679 -0.006268863 -0.005854143 -0.005434579 -0.005013107 -0.004598997 -0.004203599 -0.003825151
 -0.003469449 -0.00311967 -0.002770398 -0.002408895 -0.002028607 -0.001633379 -0.001222507 -0.0008032511 -0.0003765407 5.533752E-05
 0.0004922806 0.000928538 0.001363608 0.001787642 0.002200599 0.002597736 0.002979254 0.003343891 0.003690802 0.004017137
 0.004321956 0.004603061 0.004857691 0.005083268 0.005272378 0.005417851 0.005514095 0.005553225 0.005541904 0.005478182
 0.005380333 0.005251484 0.00511267 0.004968004 0.004832529 0.0047091 0.004598843 0.004502198 0.004410684 0.004324344
 0.004244342 0.004172573 0.004124968 0.004101159 0.004109938 0.004145571 0.004196828 0.004259417 0.00431847 0.00437698
 0.004432662 0.004489464 0.004552659 0.004616651 0.004683255 0.004734019 0.004763779 0.004750686 0.004686239 0.004563802
 0.004378092 0.004146207 0.00386842 0.003570635 0.003254651 0.002937284 0.002619124 0.002308856 0.002006468 0.001716865
 0.001438604 0.00116872 0.0009048035 0.0006379815 0.0003686742 9.279704E-05 -0.000186444 -0.000466486 -0.0007448747 -0.001018359
 -0.001286104 -0.001545764 -0.001800562 -0.002049299 -0.002303132 -0.002563689 -0.002845705 -0.003152357 -0.003491994 -0.003866276
 -0.004276599 -0.004723337 -0.005201839 -0.005711481 -0.006239179 -0.006783491 -0.007327017 -0.007869327 -0.008399226 -0.008917394
 -0.009419765 -0.009907647 -0.01038044 -0.01084239 -0.01129833 -0.01175288 -0.0122137 -0.01267754 -0.01314609 -0.01361023
 -0.01406594 -0.01450928 -0.0149381 -0.01535207 -0.01575157 -0.01613121 -0.01649035 -0.01682501 -0.01713458 -0.01742566
 -0.01769857 -0.0179604 -0.01821036 -0.01844518 -0.01866391 -0.01885991 -0.01903456 -0.01918739 -0.01932209 -0.01944446
 -0.01955986 -0.01967746 -0.01980151 -0.01994046 -0.02009181 -0.02025807 -0.02043021 -0.02060548 -0.02077511 -0.02093603
 -0.02108267 -0.02121303 -0.02132671 -0.02142247 -0.02151067 -0.02159173 -0.02168098 -0.02177879 -0.02188872 -0.02200945
 -0.02213144 -0.0222542 -0.02237049 -0.02248099 -0.02258495 -0.02268059 -0.02276458 -0.02283415 -0.02288322 -0.02291306
 -0.02292164 -0.02291409 -0.02289241 -0.0228627 -0.02282761 -0.02279292 -0.02276121 -0.02273403 -0.02271299 -0.02269245
 -0.02267208 -0.02264517 -0.02261101 -0.02257069 -0.0225245 -0.02248057 -0.02243946 -0.02240947 -0.02239044 -0.02238638
 -0.02239622 -0.02241914 -0.02245387 -0.02249806 -0.02254968 -0.02260642 -0.02266278 -0.02271379 -0.0227523 -0.02277127
 -0.02277002 -0.02274552 -0.02270312 -0.02264511 -0.02256938 -0.02247718 -0.02235732 -0.02220804 -0.02202623 -0.02181099
 -0.02157565 -0.02132095 -0.02106261 -0.02080057 -0.02054089 -0.02028311 -0.02002769 -0.01977589 -0.01953099 -0.0192958
 -0.01907818 -0.01887789 -0.0187006 -0.01853724 -0.01838304 -0.01822482 -0.01805029 -0.01785944 -0.01764501 -0.01742727
 -0.01720953 -0.01701407 -0.01684739 -0.01671401 -0.01661692 -0.01654102 -0.01648594 -0.01642616 -0.01636036 -0.01626448
 -0.01613918 -0.01597875 -0.0157875 -0.01558235 -0.01536673 -0.01516111 -0.01496271 -0.01477608 -0.0145966 -0.01441811
 -0.01424215 -0.01406726 -0.01389784 -0.01373875 -0.01358456 -0.01343663 -0.01327926 -0.01310711 -0.01291305 -0.01269182
 -0.0124593 -0.0122154 -0.01198783 -0.01177887 -0.01160474 -0.01146576 -0.0113568 -0.01127598 -0.0112048 -0.01114129
 -0.01106588 -0.01097898 -0.01087066 -0.01074453 -0.01060296 -0.01044965 -0.01029189 -0.01012859 -0.009962311 -0.009788098
 -0.009602712 -0.009404881 -0.009190148 -0.008970863 -0.008746446 -0.008543928 -0.008368711 -0.008240655 -0.00816599 -0.008128224
 -0.008127829 -0.008120512 -0.008104413 -0.008053035 -0.007968681 -0.007862752 -0.00773765 -0.007612086 -0.007483413 -0.007352803
 -0.007217881 -0.007073193 -0.006920527 -0.006760195 -0.006593956 -0.006423508 -0.006250475 -0.006075317 -0.005903091 -0.005737301
 -0.005577151 -0.00542667 -0.005266828 -0.005095867 -0.00488903 -0.004640693 -0.004353793 -0.004026494 -0.003699305 -0.003374277
 -0.003091955 -0.002850338 -0.002647368 -0.002476807 -0.002305333 -0.002132645 -0.001939658 -0.001731326 -0.001511167 -0.001277405
 -0.001029691 -0.0007637339 -0.0004717527 -0.0001617537 0.0001648265 0.0004952513 0.0008209577 0.001143054 0.00145975 0.001775806
 0.002093781 0.00240529 0.002709965 0.002996658 0.003264002 0.003513899 0.003746542 0.003970342 0.00418573 0.004399857
 0.00461298 0.004830601 0.005051864 0.005277039 0.00550512 0.005732987 0.005963066 0.006198642 0.006438675 0.00668711
 0.006930435 0.007160765 0.00736719 0.007537204 0.007686818 0.007814807 0.007953607 0.008111448 0.008301779 0.008530626
 0.008775973 0.009037728 0.009272893 0.009479522 0.009631122 0.009731247 0.009804009 0.00985756 0.009948515 0.01007606
 0.01027098 0.01051947 0.01080751 0.01112209 0.01143728 0.01174796 0.01203899 0.01231082 0.01255687 0.01278762
 0.0130048 0.0132236 0.01345192 0.01368703 0.01393191 0.01416819 0.01439251 0.01460214 0.01479561 0.01499125
 0.01519 0.0154089 0.0156479 0.01591393 0.01620401 0.01650924 0.01682161 0.01711043 0.01737112 0.0175747
 0.01773163 0.0178446 0.01792502 0.01799059 0.01803276 0.01805209 0.01803583 0.01797309 0.01787508 0.01774053
 0.0175925 0.01743672 0.01728314 0.01713382 0.01699411 0.01686404 0.01675858 0.01667855 0.01663947 0.01664093
 0.01668528 0.01676864 0.01687297 0.01699301 0.01709919 0.01719604 0.0172752 0.01735261 0.01745122 0.01757554
 0.01774256 0.01794049 0.01816402 0.0184105 0.01867978 0.01896176 0.01926536 0.01952301 0.01971852 0.0198175
 0.01980191 0.01975353 0.01967715 0.01964957 0.01967426 0.01975545 0.01988913 0.02003232 0.02018201 0.02029857
 0.02038594 0.02043488 0.02045349 0.02045528 0.02044549 0.0204419 0.02043516 0.0204249 0.02039309 0.02032238
 0.02021499 0.02006302 0.01988937 0.01970033 0.01951164 0.01932758 0.01915901 0.01900674 0.01888983 0.01881082
 0.01876982 0.01876658 0.01876626 0.01876681 0.01873395 0.01866819 0.0185558 0.01839615 0.0181769 0.01790365
 0.0175741 0.01721612 0.01687032 0.01656153 0.01634281 0.01619137 0.01611225 0.01606441 0.01602359 0.0159815
 0.01592823 0.01587252 0.01581503 0.01576145 0.01571238 0.01567491 0.01565029 0.01563325 0.01562355 0.0156128
 0.0156035 0.01562288 0.0156747 0.01579776 0.01598575 0.0162381 0.01654634 0.01689055 0.01726733 0.01766806
 0.01807686 0.01847547 0.0188461 0.01915905 0.01944198 0.01969293 0.01996942 0.02029807 0.02068472 0.02114426
 0.02161995 0.02210512 0.02255775 0.02297071 0.0233618 0.02373187 0.02413038 0.02455838 0.02504661 0.02558721
 0.02615558 0.02673599 0.0272598 0.02772158 0.02807067 0.02832032 0.02846857 0.02853062 0.02852105 0.02845462
 0.02834089 0.02820961 0.0280774 0.02796772 0.02789808 0.02785406 0.02783801 0.02782013 0.02779604 0.02774745
 0.02767295 0.02755006 0.02737753 0.02713667 0.02683027 0.02648578 0.02611134 0.02576922 0.02546143 0.02523041
 0.02506748 0.02497784 0.02494171 0.02493594 0.02492865 0.02487512 0.02475668 0.02453511 0.02423721 0.02386087
 0.02345455 0.02303774 0.02263051 0.02224421 0.02186954 0.02150776 0.02114085 0.02076798 0.0203639 0.0199272
 0.0194498 0.01893518 0.01842566 0.01792748 0.0175019 0.01714522 0.01688083 0.01669288 0.01655879 0.01645885
 0.01635091 0.01622424 0.0160445 0.01582809 0.01556966 0.0153092 0.01506766 0.01486799 0.01472978 0.01463281
 0.01457942 0.01452987 0.01447869 0.01439461 0.014273 0.01411206 0.01391149</values></Ydata></AB><ScSm><Ydata ylabel="Single channel"><values byteorder="INTEL" format="FLOAT32" numvalues="1814"> 0.0726104 0.07261719 0.07269676 0.07286693 0.07309046 0.07329972 0.07344387 0.07351792 0.07353993 0.07351164
 0.0734363 0.07337343 0.07342251 0.07362385 0.07389908 0.07410637 0.07415374 0.07407677 0.07401626 0.07408397
 0.07421806 0.07419886 0.07385556 0.07326245 0.07269169 0.07236031 0.07229301 0.07248122 0.0730173 0.07383947
 0.07444638 0.07425653 0.07333872 0.07244229 0.07216285 0.07237078 0.07256843 0.07247011 0.07208447 0.07159095
 0.07139241 0.07201497 0.07358737 0.07540378 0.07617534 0.07484692 0.07135369 0.0668568 0.06331328 0.06242746
 0.06444937 0.0678311 0.07038744 0.07104112 0.07033911 0.06934059 0.0684782 0.06769828 0.06719993 0.06747507
 0.06862516 0.06990305 0.07010068 0.06858283 0.06604366 0.06401549 0.0634731 0.06422393 0.06572619 0.06767979
 0.06919239 0.06830594 0.06391797 0.05821498 0.05570074 0.0589181 0.06573889 0.07144753 0.07293835 0.07045972
 0.06624927 0.06267612 0.06134878 0.06268074 0.06580964 0.06931196 0.07206884 0.07332733 0.07251052 0.06971493
 0.06620204 0.06379011 0.06374005 0.06626186 0.07046856 0.07445273 0.07615113 0.0748677 0.07173843 0.06853067
 0.06647687 0.06627074 0.06824047 0.07201032 0.07647999 0.08045884 0.08315009 0.0842348 0.08394133 0.08289821
 0.08165302 0.08058318 0.08023378 0.0809824 0.08215218 0.08226768 0.08066382 0.07837518 0.07706828 0.07731392
 0.07813102 0.0781799 0.07712029 0.07538956 0.07287055 0.06885764 0.06366825 0.05908608 0.05657543 0.05615915
 0.05747716 0.06036089 0.06358525 0.0647922 0.06307355 0.06062141 0.06055268 0.06358191 0.06765524 0.07045798
 0.07155514 0.0722255 0.07381527 0.07636289 0.07842264 0.07815017 0.07513037 0.07141398 0.07007001 0.07217173
 0.07576376 0.07826985 0.07921091 0.07992282 0.0812187 0.08212794 0.08090752 0.07711284 0.07271535 0.07088964
 0.07324864 0.07822512 0.08220616 0.08221024 0.07789761 0.0716435 0.06668249 0.06486817 0.06617936 0.06995948
 0.07563874 0.08208366 0.08729442 0.08952677 0.08856607 0.08562734 0.08196606 0.07771847 0.07256372 0.06765287
 0.06584485 0.06900706 0.07562858 0.08207716 0.08583882 0.08677384 0.08570866 0.08288886 0.07820804 0.07269225
 0.06898753 0.06930993 0.07278056 0.07592067 0.07629297 0.07472443 0.07352118 0.07358994 0.07409753 0.07423913
 0.07438397 0.07543831 0.07754689 0.07974912 0.08091162 0.08076029 0.079924 0.07919979 0.07883045 0.07832922
 0.07716255 0.07581502 0.07574161 0.07777975 0.08099962 0.08365737 0.08494518 0.08529277 0.08520982 0.08439315
 0.08217369 0.07878213 0.07586893 0.07528174 0.07727812 0.08036514 0.08285645 0.08408543 0.08424063 0.0837559
 0.08301784 0.0822423 0.08153625 0.08117118 0.08151655 0.08251841 0.0835757 0.08414273 0.08418042 0.08389185
 0.08332941 0.08246169 0.08145107 0.08067359 0.08045118 0.08080702 0.0814977 0.08223287 0.08278511 0.08295849
 0.08265737 0.08202742 0.08136685 0.08085723 0.08050573 0.08033307 0.08043028 0.08078563 0.08120386 0.08147041
 0.08152121 0.08141536 0.08121547 0.08094446 0.08062302 0.0803116 0.08011217 0.08010359 0.08024941 0.08041249
 0.08050731 0.08058338 0.08069607 0.08076556 0.08066284 0.08039502 0.0801122 0.07994656 0.07991 0.07993378
 0.07993903 0.07984846 0.07958366 0.07913242 0.07863916 0.07835409 0.07843177 0.07881246 0.07931779 0.0797891
 0.0801159 0.08024175 0.08020686 0.08011572 0.08001825 0.07987009 0.07963013 0.07936008 0.07920866 0.07929586
 0.07959999 0.07996719 0.08024465 0.08038259 0.08041283 0.08039726 0.08041005 0.08048979 0.08057846 0.08057275
 0.0804584 0.08034176 0.08033077 0.08041912 0.08049948 0.08048131 0.08039121 0.08034612 0.08042293 0.08058207
 0.08073221 0.08083571 0.08092386 0.08102746 0.08111592 0.0811141 0.08099012 0.08081343 0.0806928 0.08066399
 0.08068189 0.08071543 0.08079073 0.0809267 0.08107685 0.08116722 0.08117597 0.08115071 0.08114379 0.08114638
 0.08110411 0.08099078 0.08084361 0.08072273 0.08065649 0.0806319 0.08061956 0.08059547 0.08054599 0.08046529
 0.08035538 0.08022553 0.08008561 0.07994526 0.07982795 0.07977205 0.07979153 0.07983583 0.07981522 0.0796817
 0.07947609 0.0792847 0.07915339 0.07905349 0.07893091 0.07877202 0.07860991 0.07847913 0.07838516 0.07831363
 0.07824804 0.07817955 0.07812122 0.0781168 0.07821083 0.07839075 0.07857317 0.0786718 0.07867824 0.07866023
 0.07868575 0.07876754 0.0788755 0.07898106 0.07908684 0.07922116 0.07939666 0.07957529 0.0796996 0.0797632
 0.07982144 0.07992756 0.0800902 0.0802932 0.08051257 0.08070609 0.08083206 0.08089864 0.08096465 0.08107527
 0.08121987 0.08136448 0.08150217 0.08165292 0.08182982 0.08202812 0.08224663 0.08250143 0.08280799 0.08315311
 0.08348946 0.08376434 0.08396503 0.08414057 0.08436868 0.08469048 0.08507678 0.08545871 0.08578846 0.08607118
 0.08634391 0.08662944 0.08692044 0.08721362 0.08753897 0.08793002 0.08837344 0.08881642 0.08922274 0.0895978
 0.08996239 0.09032816 0.09070136 0.09109135 0.09150806 0.09195276 0.09240614 0.09282717 0.09318026 0.09347196
 0.09375219 0.0940768 0.09446856 0.09489965 0.09530111 0.09561013 0.09583376 0.09605274 0.09633647 0.09666754
 0.09697919 0.09725343 0.09754259 0.09789205 0.09827964 0.0986474 0.09896946 0.0992701 0.09958328 0.09990749
 0.100202 0.1004279 0.1005918 0.1007417 0.1009194 0.1011344 0.1013919 0.1017162 0.1021144 0.1025359
 0.1029018 0.103173 0.1033669 0.1035206 0.1036658 0.1038291 0.1040237 0.1042393 0.104454 0.1046493
 0.1048072 0.1049209 0.1050219 0.1051703 0.1053966 0.1056769 0.1059824 0.1063197 0.1066977 0.1070846
 0.1074418 0.1077873 0.108178 0.1086182 0.1090293 0.1093298 0.1095158 0.1096384 0.1097378 0.1098415
 0.11 0.110269 0.11065 0.1110837 0.1115066 0.111893 0.1122428 0.1125546 0.1128189 0.1130269
 0.1131788 0.1132881 0.1133828 0.1135029 0.1136887 0.1139553 0.1142712 0.1145713 0.1147989 0.1149263
 0.1149395 0.1148324 0.1146345 0.1144181 0.1142412 0.1140807 0.1138408 0.1134313 0.1128245 0.1120425
 0.1111166 0.1100774 0.1089754 0.1078932 0.1069264 0.1061537 0.1056272 0.1053918 0.1054931 0.1059403
 0.1066555 0.1074814 0.108251 0.108836 0.1091352 0.1090624 0.1085874 0.1077762 0.1067624 0.1056827
 0.1046391 0.1036878 0.1028362 0.102073 0.1014361 0.1010461 0.1010591 0.10159 0.1026759 0.1042769
 0.1062756 0.1084827 0.1106815 0.1127 0.1144601 0.1159678 0.1172724 0.118436 0.1195189 0.1205574
 0.1215452 0.122453 0.1232687 0.1240057 0.124675 0.1252651 0.1257495 0.126102 0.1263146 0.126412
 0.1264414 0.1264399 0.126425 0.1264157 0.126436 0.1264796 0.1264857 0.1263667 0.1260614 0.1255688
 0.1249565 0.1243632 0.1240004 0.1241277 0.1249681 0.1265826 0.1288016 0.1312928 0.1337136 0.135826
 0.1375238 0.1388147 0.1397891 0.1405672 0.1412433 0.1418656 0.1424527 0.1430112 0.1435428 0.1440506
 0.1445444 0.1450374 0.1455382 0.1460425 0.146531 0.1469827 0.1473972 0.1478013 0.1482285 0.1486933
 0.1491813 0.1496629 0.1501207 0.1505656 0.1510157 0.1514627 0.1518775 0.1522518 0.1526132 0.1529962
 0.1534169 0.1538707 0.1543312 0.1547529 0.1551023 0.1553927 0.1556724 0.1559793 0.1563167 0.1566684
 0.1570208 0.1573682 0.1577089 0.1580485 0.1584012 0.1587754 0.1591523 0.1594926 0.1597753 0.1600247
 0.1602869 0.1605853 0.1609043 0.1612135 0.1615032 0.1617959 0.1621245 0.1624966 0.1628812 0.1632348
 0.1635387 0.1638083 0.1640723 0.1643498 0.1646467 0.1649626 0.1652921 0.1656239 0.1659458 0.1662549
 0.1665567 0.1668557 0.1671511 0.1674431 0.1677369 0.1680377 0.1683424 0.1686424 0.1689353 0.1692356
 0.1695645 0.1699232 0.1702823 0.1706049 0.1708792 0.1711235 0.1713637 0.1716147 0.1718795 0.1721547
 0.1724357 0.1727213 0.1730136 0.1733125 0.1736121 0.1739053 0.1741904 0.174473 0.1747613 0.1750594
 0.1753668 0.1756814 0.1759994 0.1763139 0.1766178 0.1769095 0.1771941 0.1774784 0.1777679 0.1780629
 0.1783558 0.1786353 0.1789004 0.1791641 0.17944 0.1797295 0.1800259 0.1803235 0.1806195 0.1809118
 0.1811987 0.1814802 0.1817572 0.1820302 0.1822988 0.1825627 0.1828244 0.1830881 0.183357 0.183634
 0.1839222 0.1842221 0.1845277 0.1848301 0.1851235 0.1854064 0.1856791 0.1859435 0.1862046 0.1864708
 0.18675 0.1870412 0.1873343 0.1876182 0.1878892 0.1881512 0.1884131 0.1886853 0.1889701 0.1892595
 0.1895465 0.1898343 0.190128 0.190424 0.1907146 0.1909968 0.1912749 0.1915576 0.1918506 0.1921497
 0.1924446 0.1927309 0.1930135 0.193299 0.1935899 0.1938834 0.1941709 0.1944446 0.1947039 0.194954
 0.1952002 0.195449 0.1957057 0.1959698 0.1962382 0.1965145 0.1968029 0.197098 0.1973895 0.1976725
 0.1979493 0.1982259 0.1985101 0.1988016 0.1990905 0.1993721 0.1996547 0.1999469 0.2002478 0.2005531
 0.2008585 0.20116 0.2014566 0.2017493 0.2020358 0.2023156 0.2025964 0.2028827 0.2031693 0.2034534
 0.2037406 0.2040318 0.2043196 0.2046009 0.2048791 0.205158 0.2054416 0.2057293 0.2060133 0.2062899
 0.2065662 0.2068452 0.207121 0.2073964 0.2076822 0.2079763 0.208268 0.208557 0.2088477 0.2091367
 0.2094231 0.2097108 0.2099981 0.2102817 0.2105655 0.2108482 0.2111195 0.2113781 0.2116281 0.2118547
 0.2120087 0.2119597 0.2113721 0.209574 0.2055502 0.1981552 0.1865769 0.1708539 0.1520377 0.1318122
 0.1118742 0.09350307 0.07745168 0.06405308 0.05338166 0.04535219 0.03978446 0.03652041 0.03554822 0.03712538
 0.04190746 0.05055892 0.06229555 0.07359439 0.07956454 0.07780904 0.07071802 0.0632893 0.05897273 0.05800429
 0.05890368 0.06041378 0.06214177 0.06432121 0.06734665 0.07132849 0.07607672 0.08158652 0.08827167 0.09643722
 0.1056506 0.1149234 0.1235627 0.1317153 0.1400316 0.1488856 0.157984 0.1666579 0.1743951 0.181093
 0.1869556 0.1922659 0.1972292 0.2019463 0.2064612 0.2107592 0.2146814 0.2178914 0.220034 0.2210036
 0.2210724 0.2207389 0.2204334 0.2203487 0.2204947 0.220833 0.2213387 0.221997 0.2227928 0.2237017
 0.2246829 0.2256927 0.2267018 0.2276885 0.2286297 0.2295098 0.2303253 0.2310747 0.2317555 0.2323739
 0.2329416 0.2334662 0.2339535 0.2344121 0.234849 0.2352684 0.2356756 0.2360749 0.2364611 0.2368222
 0.2371492 0.2374416 0.237709 0.2379666 0.2382231 0.2384762 0.2387244 0.2389767 0.2392433 0.2395225
 0.2398026 0.240073 0.240331 0.2405823 0.2408341 0.2410858 0.2413315 0.2415691 0.2418029 0.2420357
 0.2422696 0.2425102 0.2427619 0.2430186 0.2432695 0.2435125 0.2437559 0.2440072 0.2442628 0.2445117
 0.2447523 0.2449984 0.2452619 0.2455367 0.2458109 0.2460852 0.2463648 0.2466451 0.2469197 0.2471909
 0.2474556 0.2476969 0.2479046 0.2480949 0.2483018 0.2485481 0.2488264 0.2491069 0.2493678 0.2496138
 0.2498608 0.2501135 0.2503641 0.2506027 0.2508301 0.2510672 0.2513414 0.2516491 0.2519576 0.2522518
 0.2525476 0.2528518 0.2531543 0.2534582 0.2537698 0.2540561 0.2542672 0.2544157 0.2545971 0.2549105
 0.2553604 0.2558468 0.2562605 0.2565781 0.256851 0.2571338 0.2574525 0.2577864 0.2580368 0.258094
 0.2580104 0.2580334 0.2583761 0.2590028 0.2596986 0.2602907 0.2607476 0.2611198 0.2614517 0.2617358
 0.2619184 0.2619589 0.2619171 0.2619772 0.262322 0.2629476 0.2636493 0.264227 0.2646388 0.2649372
 0.2651692 0.2653697 0.2655067 0.26541 0.264955 0.2643911 0.2642781 0.2649422 0.2661051 0.2671811
 0.2678564 0.2682485 0.2685763 0.2688931 0.2691509 0.2692456 0.2688839 0.2677542 0.2661322 0.2650444
 0.2654151 0.2671326 0.2692294 0.2708493 0.2717863 0.2722626 0.2725512 0.2727962 0.2729083 0.2725754
 0.2716122 0.2704246 0.2699067 0.2706121 0.2721263 0.2735089 0.2742533 0.27455 0.2747775 0.2750829
 0.2752875 0.2748415 0.2731359 0.2704021 0.268162 0.268155 0.2706361 0.2740674 0.2766444 0.2778474
 0.2782913 0.2783865 0.2777296 0.2758233 0.2728263 0.2694767 0.2668524 0.2662219 0.2682064 0.2717309
 0.2746359 0.275807 0.2761125 0.2769715 0.2786622 0.2803435 0.2811515 0.280864 0.2797441 0.2780661
 0.2759877 0.2740007 0.2731987 0.2745008 0.277534 0.2807681 0.2829365 0.2839997 0.2844671 0.283906
 0.2806543 0.2738211 0.2657664 0.2614356 0.2639911 0.2715081 0.279046 0.2835069 0.2853283 0.2861602
 0.2866571 0.2862932 0.2836677 0.2772779 0.2678882 0.2599994 0.2587942 0.2650102 0.274106 0.2805021
 0.2813783 0.2769601 0.2695077 0.2626467 0.2598887 0.2624992 0.2689435 0.2764045 0.2824751 0.2858105
 0.2861034 0.2839565 0.2808436 0.2787448 0.2787065 0.2792822 0.2776332 0.2731126 0.2683453 0.265378
 0.2625218 0.2574868 0.2524188 0.252463 0.2590703 0.2675602 0.2723741 0.2726982 0.2714511 0.2699862
 0.2657971 0.2561417 0.2432352 0.2343372 0.2353904 0.2448508 0.255064 0.2597438 0.2589534 0.2568696
 0.2562085 0.2554845 0.2511671 0.2423305 0.2329829 0.2287156 0.230786 0.235006 0.2367029 0.2344515
 0.2284532 0.2190315 0.2092882 0.2060578 0.2141199 0.2303208 0.246043 0.2542898 0.2522409 0.2397122
 0.2200967 0.2023416 0.1965939 0.2051364 0.2196191 0.2287383 0.2272184 0.2167554 0.2011459 0.1836589
 0.1685126 0.1613737 0.1659621 0.1802723 0.1967072 0.2059239 0.2019939 0.1869441 0.1710422 0.1654127
 0.1719847 0.1822135 0.186664 0.1835589 0.177449 0.1732792 0.1734962 0.1777083 0.1831367 0.1871837
 0.189506 0.1892122 0.1820883 0.1657206 0.1463981 0.135001 0.1356791 0.1437117 0.1542541 0.1666501
 0.1787562 0.1839893 0.1787464 0.169242 0.1662287 0.1736025 0.1850824 0.1919275 0.1916372 0.1884119
 0.186713 0.1864871 0.1854216 0.1841573 0.1864848 0.1940067 0.2032266 0.2094302 0.2115943 0.2118974
 0.2120575 0.2120482 0.2113793 0.2099005 0.2077093 0.2052572 0.2032211 0.2017837 0.200488 0.1989451
 0.1968357 0.1928986 0.1852288 0.173977 0.1630374 0.1570192 0.1564373 0.1579551 0.1593412 0.1608263
 0.1605661 0.1532945 0.1372865 0.1201093 0.1131221 0.1205108 0.1361933 0.1507637 0.1586621 0.1585975
 0.1507493 0.1371397 0.1241679 0.1206134 0.1304016 0.1487948 0.1674904 0.1817903 0.1910571 0.1947185
 0.1915636 0.1828075 0.1732697 0.168636 0.1720374 0.1826498 0.1958788 0.2044399 0.2019234 0.1892484
 0.1776274 0.1802629 0.1983493 0.2189038 0.2293443 0.2302752 0.2302245 0.2324293 0.2332936 0.2317944
 0.2331777 0.241735 0.2544338 0.2638769 0.2647661 0.2559666 0.2397865 0.2224673 0.2125775 0.2142222
 0.222514 0.2290066 0.2299244 0.225649 0.2157103 0.2009307 0.1887814 0.188863 0.2017547 0.2177106
 0.2277391 0.2317859 0.2346974 0.2378329 0.2374122 0.2302589 0.2191193 0.2109612 0.2100648 0.2142561
 0.2185208 0.2202656 0.2193814 0.2152877 0.2072839 0.1977683 0.1922537 0.1946127 0.2031254 0.2121468
 0.2172102 0.2178612 0.2162771 0.2145293 0.2132103 0.2116249 0.2091783 0.2071692 0.2085375 0.2146204
 0.2228602 0.22936 0.2333162 0.2372613 0.24307 0.2493391 0.2530651 0.2529188 0.250541 0.2491577
 0.2510065 0.2555345 0.2597824 0.2608964 0.2588401 0.2566814 0.2577686 0.2625353 0.2684494 0.2728906
 0.2752982 0.2766163 0.2777286 0.2787029 0.2787523 0.2768399 0.2731621 0.2700138 0.2701696 0.274143
 0.2797018 0.2841608 0.286521 0.2873473 0.2873529 0.2866282 0.2850392 0.282911 0.2810572 0.2801611
 0.2803006 0.2811033 0.2821622 0.2832133 0.2841082 0.2848063 0.2853526 0.2857925 0.2861449 0.2864513
 0.2867538 0.2870087 0.2871258 0.2871329 0.2872079 0.2874785 0.2878544 0.2881249 0.2881585 0.2879097
 0.2872947 0.2862107 0.2846945 0.2829295 0.2810426 0.2790115 0.2768936 0.2751079 0.274333 0.2750058
 0.2769187 0.2793443 0.2815351 0.2830977 0.2839997 0.2843938 0.2844833 0.2844525 0.2844113 0.2843745
 0.2843081 0.2841946 0.2840483 0.2838785 0.2836732 0.2834368 0.2832196 0.2830784 0.2830127 0.2829601
 0.2828514 0.2826551 0.2823782 0.2820425 0.2816587 0.2812057 0.280632 0.2798878 0.2789701 0.2779409
 0.2768983 0.2759196 0.2750161 0.2741301 0.2731834 0.2721317 0.2709609 0.2696403 0.2681352 0.2664969
 0.2648821 0.2634285 0.2621327 0.2608882 0.2596049 0.2582527 0.2568272 0.2553274 0.2537615 0.2521433
 0.2504838 0.2487945 0.2470875 0.245366 0.2436169 0.241817 0.2399465 0.2380004 0.2359896 0.2339296
 0.2318137 0.2295849 0.2271318 0.2243171 0.2210125 0.217121 0.2126087 0.2075467 0.2021168 0.1965549
 0.1910815 0.1858702 0.1810513 0.176728 0.1729849 0.169881 0.1674457 0.1656971 0.1646621 0.1643611
 0.1647808 0.1658685 0.1675405 0.1696817 0.1721507 0.1747922 0.1774444 0.1799556 0.1822345 0.184294
 0.186225 0.1881106 0.1899645 0.191747 0.1934195 0.1949624 0.1963454 0.1975229 0.1984792 0.1992505
 0.1998827 0.200392 0.200786 0.201095 0.2013548 0.2015747 0.2017454 0.201876 0.2020133 0.2022211
 0.2025394 0.2029674 0.2034847 0.204079 0.2047463 0.2054784 0.2062578 0.2070626 0.207879 0.208712
 0.2095773 0.2104881 0.211465 0.212555 0.2138166 0.2152832 0.2169513 0.2187844 0.2207079 0.222609
 0.2243646 0.2258841 0.2271332 0.2281277 0.2289004 0.229474 0.2298657 0.2300995 0.2301959 0.2301621
 0.2300086 0.229758 0.2294261 0.2290113 0.228512 0.2279425 0.2273294 0.226704 0.226091 0.2254976
 0.2249191 0.2243549 0.2238092 0.2232858 0.2227902 0.2223238 0.2218696 0.2214004 0.2209025 0.2203772
 0.2198195 0.2192111 0.2185288 0.2177521 0.2168724 0.2158969 0.2148315 0.2136651 0.2123829 0.2109891
 0.2095078 0.2079653 0.2063771 0.2047435 0.2030545 0.2012917 0.1994215 0.1974062 0.1952505 0.1930301
 0.1908469 0.1887619 0.1867869 0.1849191 0.1831557 0.1814843 0.1798875 0.1783563 0.1768952 0.1755142
 0.1742135 0.1729774 0.171793 0.1706688 0.1696254 0.168678 0.1678357 0.1671015 0.1664621 0.1658925
 0.1653775 0.1649157 0.1645145 0.1641971 0.163996 0.1639082 0.1638655 0.1637732 0.1635771 0.1632932
 0.1629859 0.1627207 0.1625251 0.1623848 0.1622637 0.1621122 0.1618615 0.1614306 0.1607412 0.1597325
 0.1583833 0.1567334 0.1548752 0.1529264 0.1510126 0.1492517 0.1477261 0.1464704 0.145481 0.1447203
 0.1441212 0.1436186 0.1431927 0.1428835 0.1427584 0.1428305 0.1429869 0.1430438 0.1429239 0.1427474
 0.1427175 0.1429479 0.1434146 0.1440103 0.1446082 0.1451126 0.1454805 0.1457003 0.1457728 0.145717
 0.1455621 0.1453241 0.1450114 0.1446387 0.144218 0.143756 0.1432616 0.1427271 0.1421176 0.1414133
 0.1406335 0.1397955 0.1388912 0.1379046 0.1368022 0.1355406 0.1341742 0.1329314 0.1321049 0.1318624
 0.1321682 0.1328372 0.1336623 0.134531 0.1353775 0.1360166 0.1362058 0.1360241 0.1360562 0.1369682
 0.1388658 0.141171 0.1431326 0.1443623 0.1448781 0.144817 0.1442657 0.1432732 0.1418474 0.1399575
 0.1376302 0.1349811 0.1321211 0.1291597 0.1262905 0.1237163 0.1215207 0.1197092 0.1182862 0.1173032
 0.1168794 0.116632 0.1147274 0.1088481 0.09977444 0.09298021 0.09404404 0.1023741 0.1116083 0.1163347
 0.1164118 0.1147367 0.1133032 0.1123999 0.1119066 0.1119519 0.1126708 0.1139426 0.1153898 0.1166013
 0.1173979 0.1178077 0.1177866 0.1170014 0.114774 0.1102989 0.1032966 0.09460527 0.08589035 0.07865676
 0.07358183 0.0705587 0.06901804 0.0682499 0.06775597 0.06748404 0.06772152 0.06874824 0.07059489 0.07310143
 0.07608733 0.07932867 0.08243803 0.08501479 0.08697031 0.08851517 0.08978882 0.09068337 0.09105236 0.09091164
 0.09039181 0.08962277 0.08870707 0.08771999 0.08667471 0.0855223 0.08426698 0.08309376 0.08228044 0.08192931
 0.08187762 0.08190869 0.0819358 0.08195791 0.08197758 0.0820038 0.0820498 0.08213279 0.08231718 0.08268092
 0.08319077 0.08369295 0.08405815 0.08427987 0.08443336 0.08455276 0.08451949 0.08415096 0.08350325 0.0829277
 0.08261466 0.08224791 0.08140928 0.08021978 0.07928146 0.07901919 0.07930765 0.07971828 0.07992534 0.07985689
 0.0796541 0.07959835 0.07993677 0.08059388</values></Ydata></ScSm><ScRf><Ydata ylabel="Single channel"><values byteorder="INTEL" format="FLOAT32" numvalues="1820"> 0.06079128 0.0609478 0.06103938 0.06106845 0.06106216 0.0610673 0.0611324 0.061278 0.06147798 0.06167052
 0.0617994 0.06185359 0.06185762 0.06182805 0.06177117 0.06172555 0.06176109 0.06190898 0.06211324 0.0622673
 0.06229883 0.06223451 0.06218877 0.06225449 0.06237759 0.06236777 0.06207744 0.06157168 0.06108597 0.06080593
 0.06074917 0.06090426 0.06134984 0.06203855 0.06254949 0.06238826 0.06160812 0.06084178 0.06059709 0.06076989
 0.06094123 0.06086569 0.06054336 0.06012076 0.05994013 0.06045403 0.06178034 0.06332558 0.06399286 0.06287619
 0.05991215 0.05608787 0.05307155 0.05231337 0.05402545 0.05689615 0.0590739 0.0596412 0.05905391 0.05820682
 0.05746955 0.05679753 0.05635749 0.05657155 0.05753917 0.05863209 0.05881274 0.05752602 0.05536178 0.05363414
 0.05317672 0.05381808 0.05508718 0.05672688 0.0579884 0.05722487 0.05351193 0.04870164 0.04659807 0.04934187
 0.05512457 0.05995434 0.06120637 0.05909907 0.05553832 0.05253523 0.05143891 0.05257517 0.05520266 0.05813019
 0.06043281 0.06148203 0.06078551 0.05842125 0.05545676 0.05342865 0.05339823 0.05553692 0.05909048 0.06244697
 0.06386837 0.0627722 0.06011833 0.0573967 0.05564893 0.05546688 0.05713396 0.06033388 0.0641325 0.06751613
 0.06980327 0.07071845 0.07045664 0.06956196 0.06851196 0.06762617 0.06734968 0.06798699 0.0689664 0.06905001
 0.06767963 0.06572692 0.06460056 0.06479147 0.06548136 0.06554015 0.06466912 0.06322057 0.06108544 0.05767301
 0.05326873 0.049394 0.04728634 0.04695641 0.04809684 0.0505688 0.05333342 0.0543821 0.05293464 0.05084809
 0.05077208 0.05331992 0.0567534 0.05911165 0.06003096 0.06060241 0.06196669 0.06414436 0.06589653 0.06565779
 0.06308527 0.05992629 0.05878506 0.06057033 0.06362464 0.06576551 0.06658752 0.06722096 0.06835026 0.06914841
 0.06814016 0.06495897 0.06128323 0.05979341 0.06183338 0.06606329 0.06943338 0.06943572 0.06578838 0.06050024
 0.05631112 0.05479843 0.0559576 0.05924599 0.06418239 0.06978954 0.07434724 0.07635513 0.07561846 0.07316889
 0.07008497 0.06649227 0.06211931 0.05795655 0.05646821 0.05926892 0.06506199 0.07071832 0.07406755 0.07498144
 0.07416107 0.07180405 0.06781115 0.06308644 0.05995948 0.06037568 0.06355271 0.06642403 0.06684704 0.06555724
 0.06459306 0.06475665 0.06531061 0.06554333 0.06578986 0.06686465 0.0688965 0.07101715 0.07219868 0.07218654
 0.07155026 0.07102257 0.07082972 0.07052216 0.06961016 0.06854315 0.06864876 0.07067263 0.07374853 0.07628974
 0.07758081 0.07803175 0.0781067 0.07750741 0.07559806 0.07259101 0.07003225 0.06965317 0.07169339 0.07474802
 0.07722907 0.07851312 0.07879299 0.07849362 0.07798108 0.07744843 0.07698677 0.0768454 0.07736491 0.07848714
 0.07964376 0.08032468 0.08049789 0.08035493 0.07994444 0.07924491 0.07842625 0.07785246 0.07781807 0.07832755
 0.07914379 0.07999916 0.08068755 0.08102159 0.08089834 0.08044704 0.0799564 0.07961242 0.07942955 0.07942663
 0.07968675 0.08019367 0.08075355 0.08115683 0.08134427 0.08137733 0.08131734 0.08118255 0.0809896 0.08080167
 0.08072917 0.08085252 0.08112366 0.0813971 0.08160155 0.08181299 0.08209175 0.08232776 0.08235426 0.08217216
 0.08196033 0.08187903 0.08194038 0.08206011 0.0821535 0.08214761 0.08196495 0.08159161 0.08117631 0.08097832
 0.0811605 0.08167069 0.08233296 0.08297591 0.08346285 0.08371589 0.0837712 0.08374156 0.08368677 0.0835721
 0.08336923 0.08315288 0.08307867 0.08326706 0.08369446 0.08419952 0.08460835 0.08484301 0.08492486 0.0849399
 0.08500458 0.08517779 0.08537842 0.08546253 0.08540433 0.08533497 0.08538066 0.08551576 0.08560418 0.08556147
 0.08545167 0.08542001 0.08554211 0.08576165 0.08597507 0.08614488 0.0863127 0.08651709 0.08671372 0.0867916
 0.08669028 0.08648859 0.08633206 0.08627981 0.08628348 0.08631387 0.08642219 0.08663959 0.08688384 0.08702858
 0.08704454 0.08702341 0.08705807 0.08713281 0.08715023 0.08704713 0.0868609 0.08668964 0.08661155 0.08664039
 0.08673024 0.08680815 0.08681653 0.0867452 0.08663 0.08651665 0.08642903 0.08638027 0.08640629 0.08655277
 0.08680177 0.08702873 0.08707677 0.08689794 0.08661076 0.08639808 0.08634239 0.08636524 0.08632298 0.08614662
 0.08588415 0.08563067 0.08544245 0.08531401 0.08521064 0.08511174 0.08503751 0.08504269 0.0851628 0.08534463
 0.08544986 0.08536717 0.08512123 0.08484545 0.08465612 0.08457811 0.08456969 0.0845761 0.08457056 0.08457696
 0.08463688 0.08473344 0.08478402 0.0847353 0.08463109 0.08456624 0.08460891 0.08477025 0.08499373 0.08516357
 0.08518419 0.08507781 0.08496577 0.08494203 0.08499929 0.08508109 0.0851592 0.08523946 0.08532681 0.08541954
 0.08553153 0.08569293 0.08591898 0.08618453 0.08643384 0.08661697 0.08672774 0.0868174 0.08696539 0.08721817
 0.08754795 0.08787438 0.08813196 0.08831993 0.08848734 0.08867253 0.08887065 0.08906835 0.08928779 0.08956475
 0.08989246 0.09022157 0.09051703 0.09078852 0.0910629 0.0913503 0.09164451 0.09194785 0.09228769 0.09269291
 0.09314001 0.09354001 0.09381019 0.09395827 0.09407999 0.09428118 0.09460524 0.09500176 0.09534787 0.09554175
 0.09561038 0.09569414 0.09589363 0.09616694 0.09641598 0.09663814 0.09693031 0.09734903 0.0978201 0.09820704
 0.0984447 0.09858747 0.09873562 0.09892785 0.09911321 0.09922938 0.09929098 0.09937421 0.09952252 0.09971327
 0.09992989 0.1002122 0.1005935 0.1010244 0.1014079 0.1016915 0.1018907 0.1020406 0.1021606 0.1022525
 0.1023061 0.1023211 0.102335 0.1023982 0.1025072 0.1025999 0.1026361 0.1026516 0.1027122 0.1028494
 0.1030618 0.1033434 0.1036704 0.1039881 0.1042587 0.1045205 0.1048479 0.105236 0.105569 0.1057406
 0.1057702 0.105759 0.1057664 0.1057899 0.1058462 0.1059917 0.1062522 0.106585 0.1069321 0.1072746
 0.107621 0.1079667 0.1082781 0.1085058 0.1086148 0.1086171 0.1085786 0.108589 0.1087133 0.10896
 0.1092819 0.1096087 0.1098858 0.1100834 0.1101795 0.1101643 0.1100821 0.1100402 0.1101291 0.110325
 0.1104936 0.110501 0.1103021 0.1099257 0.1094106 0.1087866 0.1081029 0.1074406 0.1068825 0.1064761
 0.1062366 0.1061879 0.106379 0.1068332 0.1074849 0.1081975 0.10885 0.1093725 0.1096953 0.1097218
 0.1094003 0.1087959 0.1080559 0.1073145 0.1066409 0.1060398 0.1054699 0.1048923 0.1043503 0.104
 0.1040379 0.1045877 0.1056397 0.1070558 0.1086133 0.1100808 0.1113105 0.1122881 0.1130952 0.1138195
 0.1145035 0.1151643 0.1158254 0.116497 0.1171408 0.1176993 0.118161 0.11857 0.1189686 0.1193575
 0.1197102 0.1200022 0.1202315 0.1204277 0.1206249 0.1208102 0.1209201 0.1209112 0.1208133 0.1206908
 0.1205699 0.120417 0.1201744 0.1198098 0.1193589 0.1189472 0.1187635 0.1189779 0.1196499 0.1206971
 0.1219566 0.1232827 0.1245785 0.1257541 0.1267084 0.1273872 0.1278312 0.1281384 0.1283942 0.12865
 0.1289347 0.1292532 0.1295812 0.1298874 0.1301643 0.1304351 0.1307336 0.1310728 0.1314262 0.1317443
 0.1320024 0.1322325 0.1325006 0.1328456 0.1332386 0.1336116 0.1339303 0.1342246 0.134533 0.1348371
 0.1350845 0.1352642 0.1354267 0.1356314 0.135907 0.1362496 0.1366237 0.1369667 0.1372292 0.1374203
 0.1375935 0.1377906 0.1380136 0.1382467 0.1384834 0.1387258 0.1389746 0.1392339 0.1395187 0.1398369
 0.1401577 0.1404204 0.1405921 0.1407076 0.1408389 0.1410277 0.1412559 0.1414773 0.1416723 0.1418712
 0.1421238 0.1424405 0.1427696 0.1430407 0.143225 0.1433507 0.1434691 0.1436179 0.1438071 0.1440247
 0.1442486 0.1444594 0.144652 0.1448383 0.1450363 0.1452532 0.1454791 0.1456997 0.14591 0.1461152
 0.1463217 0.1465309 0.1467449 0.1469758 0.1472396 0.1475316 0.1478162 0.148052 0.1482265 0.1483602
 0.1484838 0.1486222 0.1487898 0.1489859 0.1491963 0.1494046 0.1496039 0.1497962 0.1499854 0.1501752
 0.1503707 0.1505786 0.1508009 0.1510309 0.1512593 0.151485 0.1517132 0.1519427 0.1521617 0.1523611
 0.152545 0.1527269 0.1529183 0.1531176 0.1533122 0.1534934 0.1536686 0.1538534 0.1540537 0.1542617
 0.1544669 0.1546635 0.1548512 0.1550336 0.1552152 0.1553981 0.1555844 0.1557772 0.1559767 0.1561782
 0.1563781 0.1565767 0.1567746 0.1569695 0.1571609 0.1573526 0.1575517 0.1577634 0.1579862 0.1582097
 0.1584199 0.1586086 0.1587791 0.1589447 0.1591208 0.1593142 0.1595204 0.1597307 0.1599398 0.1601453
 0.1603479 0.1605508 0.1607554 0.1609596 0.1611625 0.1613678 0.1615779 0.1617916 0.1620073 0.162224
 0.1624385 0.1626483 0.1628565 0.1630692 0.1632902 0.1635184 0.1637469 0.1639665 0.1641734 0.1643713
 0.1645644 0.1647533 0.1649364 0.1651121 0.1652819 0.165454 0.1656352 0.1658216 0.1660057 0.1661886
 0.1663751 0.1665632 0.1667499 0.16694 0.1671387 0.167344 0.1675516 0.1677587 0.167964 0.1681684
 0.1683748 0.1685845 0.168798 0.1690166 0.169236 0.1694462 0.1696433 0.169835 0.170029 0.1702281
 0.1704346 0.1706481 0.1708641 0.1710813 0.171301 0.1715185 0.1717259 0.1719233 0.1721185 0.1723177
 0.172525 0.172741 0.1729582 0.1731699 0.1733796 0.1735929 0.1738078 0.1740216 0.1742357 0.1744502
 0.1746648 0.1748833 0.1751054 0.1753255 0.1755425 0.1757584 0.1759682 0.1761689 0.1763686 0.1765741
 0.1767832 0.176996 0.1772117 0.1774101 0.1775409 0.1774859 0.1769602 0.1754079 0.1719906 0.1657549
 0.1560126 0.1427818 0.1269404 0.1099134 0.09314063 0.07770152 0.06422405 0.0529835 0.04403924 0.03731401
 0.03265023 0.02991284 0.02909314 0.03040753 0.03440427 0.04164097 0.05146712 0.0609401 0.06596312 0.06451517
 0.05858213 0.05234555 0.04870505 0.04787401 0.04862317 0.04989791 0.05135678 0.05318356 0.05570716 0.05902532
 0.0629832 0.06757965 0.07316613 0.0800036 0.08773074 0.09551355 0.1027617 0.1095926 0.1165561 0.1239758
 0.1316089 0.1388861 0.1453681 0.1509685 0.1558679 0.1603129 0.1644756 0.1684316 0.1722099 0.1757985
 0.1790699 0.1817477 0.1835356 0.1843405 0.1843817 0.1840712 0.1837741 0.1836637 0.1837571 0.1840221
 0.1844341 0.1849794 0.1856469 0.1864137 0.1872371 0.1880733 0.1889001 0.1897078 0.1904818 0.1912065
 0.1918754 0.1924859 0.1930372 0.1935367 0.1939981 0.1944338 0.1948511 0.19525 0.1956223 0.1959617
 0.1962743 0.1965734 0.1968673 0.1971568 0.197435 0.1976873 0.1979035 0.1980915 0.198274 0.1984698
 0.1986846 0.1989117 0.1991376 0.1993521 0.1995549 0.1997512 0.1999468 0.2001475 0.2003576 0.2005723
 0.2007813 0.2009798 0.2011704 0.2013567 0.2015414 0.2017277 0.201916 0.2021016 0.2022829 0.202466
 0.2026584 0.2028608 0.2030666 0.2032675 0.2034631 0.2036648 0.2038829 0.2041107 0.2043303 0.2045342
 0.2047311 0.2049341 0.2051495 0.2053739 0.2055909 0.205779 0.2059314 0.2060683 0.2062244 0.2064221
 0.2066538 0.2068912 0.2071118 0.2073134 0.2075054 0.2076948 0.2078822 0.2080619 0.208231 0.2084072
 0.2086221 0.2088815 0.2091528 0.2094049 0.2096391 0.2098696 0.2101029 0.2103435 0.2105877 0.210806
 0.2109647 0.2110775 0.2112164 0.2114556 0.2118005 0.2121767 0.2124992 0.2127484 0.2129673 0.2132037
 0.2134757 0.2137548 0.2139484 0.2139657 0.2138621 0.2138591 0.2141431 0.2146786 0.2152681 0.215753
 0.216109 0.2163925 0.2166505 0.2168771 0.2170238 0.2170561 0.2170242 0.2170771 0.2173572 0.2178535
 0.218399 0.21884 0.2191532 0.2193843 0.2195662 0.2197216 0.2198238 0.2197339 0.2193472 0.2188675
 0.2187591 0.2192955 0.2202502 0.2211415 0.2217099 0.2220467 0.222325 0.2225852 0.2227902 0.2228608
 0.2225623 0.2216391 0.2203107 0.2194157 0.2197192 0.2211398 0.2228839 0.2242378 0.2250213 0.2254174
 0.22566 0.2258731 0.2259757 0.2256976 0.2248829 0.2238772 0.223434 0.2240217 0.2253001 0.2264819
 0.2271312 0.2273951 0.2275917 0.227857 0.2280506 0.2277065 0.2263005 0.2240185 0.2221415 0.2221409
 0.2242396 0.2271477 0.229341 0.2303706 0.2307495 0.2308342 0.2303016 0.22874 0.2262748 0.223511
 0.2213378 0.2208133 0.2224683 0.2254208 0.2278715 0.2288821 0.229173 0.2299348 0.2314057 0.2328751
 0.2336025 0.2333917 0.2324711 0.2310875 0.2293829 0.2277658 0.2271421 0.2282748 0.230856 0.2336129
 0.2354844 0.2364266 0.2368594 0.236423 0.2337284 0.2280279 0.2212997 0.2176971 0.219881 0.2262393
 0.2326221 0.2364281 0.238031 0.2388148 0.2393086 0.2390516 0.2368756 0.2315447 0.2237127 0.2171528
 0.2162123 0.2215136 0.2292449 0.234713 0.235535 0.2318884 0.2256737 0.2199486 0.217677 0.2199385
 0.2254624 0.2318819 0.2371489 0.2401031 0.2404723 0.2387624 0.2362182 0.2345213 0.2345701 0.2351503
 0.2338601 0.2301448 0.2262224 0.2238348 0.2215617 0.2174516 0.2132989 0.213467 0.2192138 0.2265851
 0.2308536 0.2313133 0.2304387 0.2293804 0.2260016 0.2179515 0.2071072 0.1996827 0.2008025 0.2091826
 0.2182753 0.222684 0.2224542 0.2211665 0.2211533 0.2211178 0.217963 0.210839 0.2032259 0.2000226
 0.2023354 0.2064849 0.2083659 0.2067223 0.2017186 0.1936343 0.1852268 0.1825812 0.1899824 0.2046767
 0.2190232 0.2267819 0.2254006 0.2146585 0.1975615 0.1821831 0.1777401 0.1863363 0.2003996 0.2096401
 0.2092148 0.2006065 0.187234 0.1721101 0.159235 0.1540445 0.1601695 0.1757467 0.1934148 0.2039556
 0.201396 0.1876806 0.173129 0.1690193 0.1772939 0.1891819 0.1950071 0.192968 0.1877805 0.1846257
 0.18617 0.1920511 0.1992564 0.2049661 0.2088098 0.2096758 0.2026776 0.1850196 0.1637717 0.1512129
 0.1520844 0.1611662 0.173084 0.1871323 0.2008786 0.2068619 0.201003 0.1903339 0.1870083 0.1953998
 0.2083604 0.2159615 0.215321 0.2111265 0.2084103 0.2071992 0.2050121 0.2026435 0.2043754 0.2120614
 0.2218866 0.2286271 0.2310844 0.2316122 0.2321232 0.2326367 0.2326294 0.2319118 0.2305509 0.2290024
 0.227973 0.2276271 0.2274335 0.2269687 0.2258962 0.2227461 0.2152364 0.2034822 0.192026 0.1862346
 0.186609 0.1891706 0.1913772 0.1935976 0.1935871 0.1849392 0.1655446 0.1445277 0.1356052 0.1438305
 0.1618313 0.1782167 0.186305 0.1846997 0.1738894 0.1564531 0.1397711 0.1337075 0.142565 0.1609584
 0.179566 0.193154 0.201164 0.2032676 0.1983867 0.1878558 0.1766762 0.170655 0.1728769 0.1823562
 0.1943585 0.2016057 0.1978417 0.1840611 0.1712466 0.1722559 0.1883294 0.2070188 0.2161843 0.216284
 0.2154143 0.2167181 0.2168466 0.2148279 0.2155966 0.223236 0.2349796 0.2439448 0.2451785 0.2376072
 0.2233901 0.2084102 0.200739 0.204129 0.2136803 0.221113 0.2227432 0.21899 0.2095057 0.1952322
 0.1835639 0.1838953 0.1967439 0.2125334 0.2224782 0.2265844 0.2296481 0.2329936 0.2328667 0.2261249
 0.2154941 0.2078802 0.2075448 0.2123892 0.2175132 0.2203786 0.2208271 0.2181505 0.2115351 0.2034048
 0.1994521 0.203691 0.2142815 0.225223 0.2316998 0.2330918 0.2315782 0.2293052 0.2269369 0.2238235
 0.2194379 0.2152392 0.2143875 0.2183719 0.2246521 0.2292769 0.2314081 0.2335942 0.2377585 0.2425465
 0.2449748 0.2436866 0.2402422 0.2377577 0.238404 0.2416861 0.2448139 0.2450817 0.2424404 0.2397838
 0.2402802 0.2443478 0.2496087 0.2536015 0.2557865 0.2570137 0.2580687 0.2589874 0.2590258 0.2572155
 0.2537305 0.2506846 0.2506333 0.2540428 0.2588536 0.2626174 0.2644741 0.2650057 0.2648909 0.2641979
 0.2627819 0.2609257 0.2593539 0.2586639 0.258902 0.2597071 0.2606891 0.2615957 0.2622955 0.2627707
 0.2630854 0.2632958 0.2634233 0.2635093 0.2635982 0.2636524 0.2635914 0.2634531 0.2634178 0.2636068
 0.2639288 0.264181 0.2642335 0.2640339 0.2635048 0.2625715 0.2612883 0.2598202 0.2582611 0.2565764
 0.254829 0.253424 0.2529871 0.2538975 0.2559308 0.2583935 0.2605962 0.2621968 0.2631857 0.2636966
 0.2638895 0.2639209 0.2639058 0.2638754 0.2637913 0.2636103 0.2633278 0.26297 0.2625667 0.2621472
 0.2617514 0.2614192 0.2611547 0.2609075 0.2606028 0.2601961 0.2596976 0.2591504 0.2585887 0.2580079
 0.2573681 0.2566248 0.2557642 0.2548212 0.2538711 0.2529918 0.2522086 0.2514737 0.2507129 0.2498863
 0.2489845 0.2479857 0.2468739 0.2457104 0.2446325 0.2437443 0.2430281 0.2423822 0.2417108 0.2409598
 0.2401065 0.2391587 0.2381496 0.2371051 0.2360216 0.2348826 0.2336785 0.232403 0.2310499 0.2296206
 0.2281215 0.2265581 0.2249475 0.2233188 0.2216699 0.2199254 0.217954 0.2156197 0.2128128 0.2094579
 0.205536 0.2011106 0.1963308 0.1913989 0.1865166 0.1818447 0.1775022 0.1735933 0.1702205 0.1674657
 0.1653715 0.1639486 0.1632054 0.1631631 0.1638365 0.1651993 0.1671698 0.1696275 0.1724291 0.1754125
 0.1784017 0.1812356 0.1838174 0.1861526 0.1883251 0.1904069 0.192389 0.1942118 0.1958419 0.1972903
 0.1985647 0.1996474 0.2005269 0.2012289 0.2018036 0.2022927 0.2027157 0.2030805 0.2033959 0.2036688
 0.2038988 0.2040857 0.2042391 0.204378 0.2045255 0.2047062 0.2049427 0.2052523 0.2056467 0.2061249
 0.2066626 0.2072217 0.2077821 0.2083561 0.2089684 0.2096364 0.210375 0.2112092 0.2121678 0.2132649
 0.2144915 0.215818 0.2171937 0.2185382 0.2197527 0.2207574 0.2215189 0.2220396 0.2223349 0.2224304
 0.2223635 0.2221698 0.2218725 0.2214892 0.2210369 0.2205268 0.2199629 0.2193495 0.2186962 0.2180147
 0.2173143 0.2166003 0.215876 0.2151482 0.2144312 0.2137441 0.2131035 0.2125142 0.2119639 0.2114281
 0.2108852 0.2103251 0.2097479 0.2091578 0.2085587 0.2079456 0.2072973 0.2065832 0.2057805 0.2048826
 0.2038909 0.2028036 0.2016171 0.2003339 0.1989631 0.1975163 0.1960025 0.1944245 0.1927789 0.1910571
 0.1892439 0.1873222 0.1853013 0.1832449 0.1812512 0.1793928 0.1776845 0.1761045 0.1746272 0.173232
 0.1719005 0.1706177 0.1693757 0.1681801 0.1670492 0.1659973 0.1650182 0.164092 0.1632051 0.1623632
 0.1615948 0.1609374 0.160409 0.1599911 0.1596446 0.1593407 0.1590817 0.1588997 0.1588267 0.1588526
 0.1589179 0.158954 0.1589202 0.1588128 0.1586585 0.1584995 0.1583694 0.1582795 0.1582209 0.1581577
 0.1580175 0.1577094 0.1571544 0.1563002 0.1551286 0.1536611 0.1519508 0.1500871 0.1482134 0.146498
 0.145052 0.143896 0.143005 0.1423417 0.1418466 0.1414547 0.1411428 0.140947 0.1409262 0.1410937
 0.1413607 0.1415755 0.1416589 0.1416847 0.1418098 0.1421514 0.1427254 0.1434479 0.1441897 0.1448582
 0.1454195 0.1458516 0.1461346 0.1462842 0.146334 0.1462905 0.1461489 0.145925 0.1456409 0.1453123
 0.1449544 0.1445593 0.1440886 0.1435262 0.1428909 0.1421789 0.1413618 0.1404401 0.1394195 0.138274
 0.1370347 0.1358882 0.1351081 0.1348969 0.1352822 0.1361069 0.1371376 0.1382208 0.1392648 0.1400714
 0.1404021 0.1403581 0.1405422 0.141624 0.1437112 0.1462275 0.1484161 0.1498809 0.1506229 0.1507392
 0.1502817 0.1493107 0.1478606 0.1458938 0.1434205 0.1405742 0.1375014 0.1343315 0.1312736 0.1285532
 0.1262705 0.1244299 0.1230135 0.122045 0.1216462 0.1214494 0.1195628 0.1135531 0.1042135 0.09724157
 0.09843056 0.1071436 0.1167752 0.1217338 0.1218816 0.1202052 0.1187526 0.1178207 0.1173007 0.1173455
 0.1180885 0.119376 0.1208068 0.1219733 0.1227084 0.123057 0.1229928 0.1221679 0.11984 0.1151356
 0.1077548 0.09857584 0.08935721 0.08171326 0.076378 0.07321858 0.07160668 0.07079285 0.07026295 0.06996638
 0.07020485 0.07126585 0.07317816 0.07579324 0.07894982 0.08241954 0.08578885 0.08862986 0.09082393 0.09256066
 0.09400114 0.09508304 0.09566481 0.09571945 0.09534723 0.09469484 0.09390611 0.09308004 0.09220549 0.0911731
 0.08994905 0.08873599 0.08785269 0.08743064 0.08732729 0.08733594 0.0873577 0.08736978 0.08735946 0.08731967
 0.08725333 0.08720045 0.08727491 0.08758943 0.08810771 0.08863727 0.08899061 0.0891249 0.08913417 0.08909653
 0.08890958 0.08837877 0.08755136 0.08677921 0.08625747 0.08568625 0.08467315 0.08335781 0.08234158 0.08202615
 0.08225323 0.08258381 0.08271498 0.08259739 0.0823674 0.08228824 0.08259228 0.08319716 0.08366796 0.0836315
</values></Ydata></ScRf><Data_Parameters_AB><parameter name="DPF">1</parameter><parameter name="NPT">3497</parameter><parameter name="FXV">3996</parameter><parameter name="LXV">500</parameter><parameter name="CSF">1</parameter><parameter name="MXY">0.0815041735768318</parameter><parameter name="MNY">-0.0870203301310539</parameter><parameter name="DAT">31/05/2022</parameter><parameter name="TIM">14:18:26.322 (GMT+2)</parameter><parameter name="DXU">WN</parameter></Data_Parameters_AB><AB__Qtest><MainReport name="Quality Test Report"><Header><Line><Legend>Test result ok/not ok [1/0]: </Legend><Value>0</Value></Line><Line><Legend>Method file: </Legend><Value>C:\Users\Public\Documents\Bruker\OPUS_8.2.28\QT\IRBT_v3_default.QT</Value></Line></Header><Matrix><Line><Legend></Legend><Legend>min</Legend><Legend>max</Legend><Legend>measured</Legend></Line><Line><Value>Absorption (X-Range 1):</Value><Value>0.400000</Value><Value>2.000000</Value><Value>0.133593</Value></Line><Line><Value>Noise (X-Range 4):</Value><Value></Value><Value>0.000300</Value><Value>0.000042</Value></Line><Line><Value>Signal/Noise (X-Range 2):</Value><Value>200.000000</Value><Value></Value><Value>79.564071</Value></Line><Line><Value>Signal/Noise (X-Range 3):</Value><Value>40.000000</Value><Value></Value><Value>25.601519</Value></Line><Line><Value>Water vapour (X-Range 5):</Value><Value></Value><Value>0.000300</Value><Value>0.000078</Value></Line><Line><Value>Signal/Water (X-Range 2):</Value><Value>100.000000</Value><Value></Value><Value>42.883977</Value></Line><Line><Value>Signal/Water (X-Range 3):</Value><Value>20.000000</Value><Value></Value><Value>13.798878</Value></Line><Line><Value>Fringes (X-Range 6):</Value><Value></Value><Value>0.000100</Value><Value>0.000061</Value></Line></Matrix></MainReport></AB__Qtest><Data_Parameters_ScSm><parameter name="DPF">1</parameter><parameter name="NPT">1814</parameter><parameter name="FXV">3996.33169228125</parameter><parameter name="LXV">499.541461535156</parameter><parameter name="CSF">1</parameter><parameter name="MXY">0.288158476352692</parameter><parameter name="MNY">0.0355482213199139</parameter><parameter name="DAT">31/05/2022</parameter><parameter name="TIM">14:18:26.322 (GMT+2)</parameter><parameter name="DXU">WN</parameter></Data_Parameters_ScSm><Data_Parameters_ScRf><parameter name="DPF">1</parameter><parameter name="NPT">1820</parameter><parameter name="FXV">4004.04661832813</parameter><parameter name="LXV">495.683998511719</parameter><parameter name="CSF">1</parameter><parameter name="MXY">0.265005707740784</parameter><parameter name="MNY">0.0290931425988674</parameter><parameter name="DAT">31/05/2022</parameter><parameter name="TIM">14:18:00.211 (GMT+2)</parameter><parameter name="DXU">WN</parameter></Data_Parameters_ScRf><Optic_Parameters_Rf><parameter name="APR">0</parameter><parameter name="APT">Open</parameter><parameter name="BMS">KBr</parameter><parameter name="DTC">RT-DLaTGS_IR-Biotyper [Microplate reader]</parameter><parameter name="HPF">0</parameter><parameter name="LPF">10.0</parameter><parameter name="LPV">4000</parameter><parameter name="PGR">0</parameter><parameter name="RCH">Module port</parameter><parameter name="RDX">0</parameter><parameter name="SRC">MIR</parameter><parameter name="VEL">10.0</parameter><parameter name="SON">Off</parameter></Optic_Parameters_Rf><Acquisition_Parameters_Rf><parameter name="ADT">1</parameter><parameter name="AQM">DD</parameter><parameter name="CFE">0</parameter><parameter name="COR">0</parameter><parameter name="DEL">0</parameter><parameter name="DLY">0</parameter><parameter name="HFW">8000</parameter><parameter name="LFW">0</parameter><parameter name="NSR">32</parameter><parameter name="PLF">AB</parameter><parameter name="RES">6</parameter><parameter name="RGN">-1</parameter><parameter name="STR">0</parameter><parameter name="TCL">MakeCompatibleScalar (0, {WSV=1.000000, ARV=0});</parameter><parameter name="TDL">37</parameter><parameter name="RPO">0</parameter></Acquisition_Parameters_Rf><FT_-_Parameters_Rf><parameter name="APF">B3</parameter><parameter name="HFQ">500</parameter><parameter name="LFQ">4000</parameter><parameter name="NLI">0</parameter><parameter name="PHR">24</parameter><parameter name="PHZ">ML</parameter><parameter name="SPZ">NO</parameter><parameter name="ZFF">1</parameter></FT_-_Parameters_Rf><Optic_Parameters_><parameter name="APR">0</parameter><parameter name="APT">Open</parameter><parameter name="BMS">KBr</parameter><parameter name="CHN">Module port</parameter><parameter name="DTC">RT-DLaTGS_IR-Biotyper [Microplate reader]</parameter><parameter name="HPF">0</parameter><parameter name="LPF">10.0</parameter><parameter name="LPV">4000</parameter><parameter name="PGN">0</parameter><parameter name="RDX">0</parameter><parameter name="SRC">MIR</parameter><parameter name="VEL">10.0</parameter><parameter name="SON">Off</parameter></Optic_Parameters_><FT_-_Parameters_><parameter name="APF">B3</parameter><parameter name="HFQ">500</parameter><parameter name="LFQ">4000</parameter><parameter name="NLI">0</parameter><parameter name="PHR">24</parameter><parameter name="PHZ">ML</parameter><parameter name="SPZ">NO</parameter><parameter name="ZFF">1</parameter></FT_-_Parameters_><Acquisition_Parameters_><parameter name="ADT">1</parameter><parameter name="AQM">DD</parameter><parameter name="CFE">0</parameter><parameter name="COR">0</parameter><parameter name="DEL">0</parameter><parameter name="DLY">0</parameter><parameter name="HFW">8000</parameter><parameter name="LFW">0</parameter><parameter name="NSS">32</parameter><parameter name="PLF">AB</parameter><parameter name="RES">6</parameter><parameter name="SOT">0</parameter><parameter name="TCL">MakeCompatibleScalar (0, {WSV=1.000000, ARV=0});</parameter><parameter name="TDL">37</parameter><parameter name="SPO">0</parameter><parameter name="SGN">-1</parameter></Acquisition_Parameters_><Instrument_Parameters_Rf><parameter name="HFL">15800.168544</parameter><parameter name="LFL">0</parameter><parameter name="LWN">15800.168544</parameter><parameter name="ABP">32197</parameter><parameter name="SSP">1</parameter><parameter name="ARG">2</parameter><parameter name="ASG">2</parameter><parameter name="ASS">32</parameter><parameter name="GFW">16</parameter><parameter name="GBW">16</parameter><parameter name="BFW">0</parameter><parameter name="BBW">0</parameter><parameter name="PKA">7261</parameter><parameter name="PKL">4996</parameter><parameter name="PRA">7451</parameter><parameter name="PRL">5001</parameter><parameter name="P2A">1</parameter><parameter name="P2L">1</parameter><parameter name="P2R">1</parameter><parameter name="P2K">1</parameter><parameter name="DAQ">0</parameter><parameter name="AG2">1</parameter><parameter name="SSM">1</parameter><parameter name="RSN">25777</parameter><parameter name="CRR">0</parameter><parameter name="SRT">1654006680.212</parameter><parameter name="DUR">19.6389923095703</parameter><parameter name="TSC">29.1</parameter><parameter name="MVD">0.409815698862076</parameter><parameter name="AN1">0.225826011836295</parameter><parameter name="AN2">0</parameter><parameter name="VSN">2.485 Apr  4 2017</parameter><parameter name="SRN">0085</parameter><parameter name="CAM">0</parameter><parameter name="INS">IR-Biotyper</parameter><parameter name="FOC">69</parameter><parameter name="RDY">1</parameter><parameter name="ARS">32</parameter></Instrument_Parameters_Rf><Sample_Parameters_><parameter name="BLD"></parameter><parameter name="CNM">Admin</parameter><parameter name="CPY"></parameter><parameter name="DPM"></parameter><parameter name="EXP">IRBT_v3_32Scans.XPM</parameter><parameter name="LCT"></parameter><parameter name="SFM">Microplate, HTS-XT</parameter><parameter name="SNM">220531-1301_AJC34M (D_4)_D9_aa931644-d3d1-4b50-8a22-b78c19ae94fe.0</parameter><parameter name="XPP">C:\Users\Public\Documents\Bruker\OPUS_8.2.28\XPM</parameter><parameter name="IST">OK</parameter><parameter name="CPG">1252</parameter><parameter name="UID">d5b70375-4c9b-4528-88fa-5a285f206108</parameter></Sample_Parameters_><Instrument_Parameters_><parameter name="HFL">15800.168544</parameter><parameter name="LFL">0</parameter><parameter name="LWN">15800.168544</parameter><parameter name="ABP">32197</parameter><parameter name="SSP">1</parameter><parameter name="ASG">2</parameter><parameter name="ARG">2</parameter><parameter name="ASS">32</parameter><parameter name="GFW">16</parameter><parameter name="GBW">16</parameter><parameter name="BFW">0</parameter><parameter name="BBW">0</parameter><parameter name="PKA">7931</parameter><parameter name="PKL">4988</parameter><parameter name="PRA">8208</parameter><parameter name="PRL">4993</parameter><parameter name="P2A">1</parameter><parameter name="P2L">1</parameter><parameter name="P2R">1</parameter><parameter name="P2K">1</parameter><parameter name="DAQ">0</parameter><parameter name="AG2">1</parameter><parameter name="SSM">1</parameter><parameter name="RSN">13514</parameter><parameter name="CRR">0</parameter><parameter name="SRT">1654006706.323</parameter><parameter name="DUR">19.6379852294922</parameter><parameter name="TSC">29.1</parameter><parameter name="MVD">0.320787012577057</parameter><parameter name="AN1">0.225800858376279</parameter><parameter name="AN2">0</parameter><parameter name="VSN">2.485 Apr  4 2017</parameter><parameter name="SRN">0085</parameter><parameter name="CAM">0</parameter><parameter name="INS">IR-Biotyper</parameter><parameter name="FOC">69</parameter><parameter name="RDY">1</parameter></Instrument_Parameters_><History/></OPUSDataFile>
