<?xml version="1.0" encoding="UTF-8" ?>
<OPUSDataFile><AB><Ydata ylabel="Absorbance Units"><values byteorder="INTEL" format="FLOAT32" numvalues="3497"> -0.07799985 -0.07800046 -0.07800287 -0.07800729 -0.0780109 -0.07801354 -0.07800358 -0.07798105 -0.07794202 -0.07788947
 -0.07783869 -0.0777925 -0.0777704 -0.0777696 -0.07779435 -0.07783809 -0.07789189 -0.07795182 -0.07801015 -0.078065
 -0.07811382 -0.07815154 -0.07817525 -0.07818016 -0.07816236 -0.0781263 -0.07807049 -0.07800965 -0.07794516 -0.07789322
 -0.07785571 -0.07784062 -0.07784845 -0.07787409 -0.07791662 -0.07796242 -0.07801101 -0.07805213 -0.07808705 -0.07811483
 -0.0781369 -0.0781562 -0.07817339 -0.07819062 -0.07820854 -0.07822889 -0.07825141 -0.07827725 -0.0783032 -0.0783283
 -0.07834842 -0.0783619 -0.07836585 -0.07835913 -0.0783408 -0.07830985 -0.07827144 -0.07822537 -0.07818481 -0.07815049
 -0.07813327 -0.07813272 -0.07814583 -0.07817115 -0.0781979 -0.07822638 -0.07825227 -0.07827595 -0.07829732 -0.07831383
 -0.0783204 -0.07831747 -0.07830101 -0.07827999 -0.07826008 -0.07824824 -0.0782535 -0.07826481 -0.07828242 -0.0782861
 -0.07826854 -0.07822953 -0.07816478 -0.07810216 -0.07804315 -0.07802082 -0.07803717 -0.07810516 -0.07822328 -0.07837513
 -0.07855522 -0.07872293 -0.07887272 -0.07895975 -0.07898919 -0.07894634 -0.07885043 -0.07872555 -0.07858971 -0.07847526
 -0.07838503 -0.07833572 -0.07831146 -0.07831057 -0.07830987 -0.0782979 -0.07827085 -0.07822198 -0.07817312 -0.07812643
 -0.07810257 -0.07810515 -0.07812881 -0.07817354 -0.07821636 -0.07825692 -0.07828485 -0.07830317 -0.07832596 -0.07835531
 -0.07840881 -0.07848074 -0.07856822 -0.07865981 -0.07873289 -0.0787858 -0.07880429 -0.07880075 -0.07878286 -0.07875261
 -0.07871652 -0.07866126 -0.07857952 -0.07847776 -0.07834985 -0.07823855 -0.07814788 -0.07812637 -0.07818169 -0.07831862
 -0.07853872 -0.07873591 -0.07890292 -0.07889865 -0.07874095 -0.07847385 -0.07812286 -0.07781338 -0.07754125 -0.0773599
 -0.0772526 -0.07721663 -0.0772329 -0.07727886 -0.07733872 -0.07739178 -0.0774316 -0.07744811 -0.07744363 -0.07741623
 -0.07737163 -0.0773099 -0.07724101 -0.07716542 -0.07709927 -0.077044 -0.07701469 -0.07701245 -0.07703719 -0.07708785
 -0.07714788 -0.07721554 -0.07727118 -0.0773148 -0.07733577 -0.0773358 -0.07731392 -0.07727134 -0.07720974 -0.07712973
 -0.07703151 -0.07691893 -0.07679262 -0.07666402 -0.07653668 -0.07642987 -0.07635214 -0.07631466 -0.07632669 -0.07636738
 -0.07643855 -0.07649249 -0.0765243 -0.07650161 -0.07642182 -0.07629107 -0.07611107 -0.07591043 -0.07569159 -0.07548451
 -0.07529014 -0.0751285 -0.07499798 -0.07490554 -0.07484695 -0.07481962 -0.07481585 -0.0748281 -0.07484251 -0.07484622
 -0.07482667 -0.07476982 -0.07468203 -0.07455843 -0.07442448 -0.07428513 -0.07416298 -0.07406368 -0.07399308 -0.07395305
 -0.07393803 -0.07394794 -0.07396717 -0.07399434 -0.07400434 -0.07399685 -0.07395502 -0.0738839 -0.07379329 -0.07368987
 -0.07359628 -0.07351445 -0.07345873 -0.07342665 -0.0734219 -0.07343823 -0.07347102 -0.0735176 -0.07357243 -0.07364495
 -0.07373927 -0.07385597 -0.07400293 -0.07414138 -0.07426841 -0.07433459 -0.07433201 -0.07425817 -0.07411239 -0.07390004
 -0.07362093 -0.07326464 -0.07283846 -0.07238504 -0.07191836 -0.07152036 -0.07119081 -0.07097632 -0.07085628 -0.07082209
 -0.07083743 -0.07085207 -0.07084754 -0.0707821 -0.0706802 -0.07054298 -0.07039919 -0.07026529 -0.07013933 -0.07002877
 -0.06990159 -0.06975351 -0.06955807 -0.06930922 -0.06902335 -0.0687006 -0.0683825 -0.06807081 -0.06779808 -0.06756373
 -0.06738293 -0.06724815 -0.06714334 -0.06704926 -0.06690402 -0.06670298 -0.06639849 -0.06602336 -0.06560037 -0.0651549
 -0.06472272 -0.06429724 -0.06388604 -0.06347356 -0.06305391 -0.06262144 -0.06217234 -0.06171086 -0.06123728 -0.06075563
 -0.06026783 -0.05976034 -0.05923301 -0.05864418 -0.05799285 -0.05725578 -0.05644256 -0.05561323 -0.0547756 -0.05400009
 -0.05327262 -0.05259083 -0.05194103 -0.05129725 -0.05065172 -0.04999121 -0.04929104 -0.04852953 -0.04767633 -0.04669753
 -0.0456127 -0.04441674 -0.04315268 -0.04183779 -0.04046612 -0.03903743 -0.03755424 -0.03601268 -0.03446586 -0.03291727
 -0.03139783 -0.02990726 -0.02843318 -0.02697483 -0.02552174 -0.02407449 -0.02263157 -0.0211908 -0.0197445 -0.01829317
 -0.01683784 -0.01536949 -0.01389217 -0.01235237 -0.01070715 -0.008908671 -0.006880655 -0.004729826 -0.002466027 -0.0002486749
 0.001853856 0.003856092 0.005741576 0.007601353 0.009446421 0.01131518 0.01321188 0.01512229 0.01704488 0.01894491
 0.0208238 0.02266695 0.02449413 0.02637562 0.02834003 0.03052812 0.03288955 0.03542309 0.03800365 0.04043816
 0.04273279 0.04479497 0.04675879 0.04868231 0.05066062 0.05276599 0.05496912 0.05728851 0.05961934 0.06194048
 0.06420706 0.06640451 0.06858813 0.07075986 0.07300102 0.07531239 0.07769608 0.08014068 0.08255392 0.08493518
 0.08722585 0.08944904 0.0916407 0.09381558 0.0960231 0.09825522 0.1005221 0.1028116 0.1051188 0.1074263
 0.1097247 0.1119936 0.1142119 0.116411 0.1185848 0.1208181 0.1231321 0.1255455 0.1280731 0.1306078
 0.1331434 0.1355916 0.1379521 0.1402484 0.142487 0.1447289 0.1469766 0.1492758 0.1516204 0.1540228
 0.1564609 0.1588959 0.1613187 0.1636849 0.166043 0.1684143 0.1708641 0.1734608 0.1761659 0.1790007
 0.181833 0.1846204 0.187312 0.1898808 0.1923786 0.1948077 0.1972221 0.1996261 0.2020476 0.2044872
 0.2069474 0.2094249 0.2118943 0.2143553 0.2167895 0.2192083 0.2216334 0.2240758 0.22657 0.2291122
 0.2317148 0.2343608 0.2370418 0.2397348 0.2424222 0.2450935 0.2477342 0.2503644 0.2529867 0.2556201
 0.2582743 0.2609226 0.2635638 0.2661628 0.2687155 0.2712361 0.2737255 0.2762121 0.278695 0.281176
 0.2836587 0.2861592 0.2886831 0.2912648 0.293885 0.2965279 0.299162 0.3017292 0.3042354 0.3066566
 0.3090336 0.3113873 0.3137431 0.3161237 0.3185158 0.3209262 0.3233089 0.3256577 0.3279265 0.3301041
 0.3322104 0.3342438 0.3362901 0.3383523 0.3404734 0.3426474 0.3448382 0.3470455 0.3492484 0.3514545
 0.3536842 0.3559238 0.3581596 0.3603691 0.362506 0.3645841 0.3665954 0.3685705 0.3705336 0.3724823
 0.3744229 0.3763428 0.3782343 0.3801155 0.3819874 0.3838742 0.385782 0.3876996 0.3896289 0.3915047
 0.3933226 0.3949786 0.3964757 0.3977791 0.3989231 0.4000432 0.4011782 0.4025295 0.4040725 0.4058719
 0.4078431 0.4098949 0.411967 0.4139577 0.4158736 0.4176852 0.4194251 0.4211035 0.4227373 0.4243375
 0.4258952 0.4274125 0.4288657 0.4302505 0.431566 0.4328105 0.4340219 0.4352018 0.4363807 0.4375555
 0.4387124 0.4398451 0.4409179 0.4419281 0.4428458 0.4436815 0.4444315 0.4451342 0.4458372 0.4465816
 0.4474363 0.4483847 0.4494488 0.4505626 0.4516974 0.4528233 0.4539185 0.4550056 0.4560879 0.4571706
 0.4582576 0.4593196 0.4603548 0.4613383 0.4622687 0.4631231 0.4639004 0.4645756 0.465154 0.4656443
 0.4660592 0.4664415 0.4667989 0.4671675 0.4675481 0.4679597 0.4683925 0.4688522 0.4693028 0.4697245
 0.4700825 0.4703442 0.4705381 0.4706576 0.4707742 0.470906 0.4710763 0.4712961 0.4715201 0.4717461
 0.4719298 0.4720699 0.4721673 0.4722249 0.4722718 0.4723092 0.4723606 0.4724202 0.4724835 0.4725423
 0.4725741 0.4725838 0.4725657 0.4725345 0.472507 0.4724798 0.4724607 0.4724272 0.4723692 0.4722775
 0.4721445 0.47198 0.4717854 0.4715656 0.4713216 0.4710532 0.4707599 0.4704481 0.4701182 0.4697781
 0.4694282 0.4690741 0.4687164 0.4683611 0.4680069 0.4676523 0.4672966 0.4669343 0.4665743 0.4662275
 0.4658985 0.4656042 0.465318 0.4650303 0.4647061 0.4643174 0.4638798 0.4633832 0.462891 0.4624162
 0.4619983 0.4616491 0.4613458 0.4610891 0.4608219 0.4605413 0.4601988 0.4597954 0.4593187 0.4587774
 0.4582051 0.4576145 0.457063 0.4565564 0.4561381 0.4557981 0.4555461 0.4553534 0.4551992 0.4550471
 0.4548621 0.4546337 0.4543392 0.4540142 0.4536623 0.4533292 0.4530276 0.4527716 0.4525649 0.4524095
 0.4523048 0.4522775 0.4523287 0.4524778 0.4527191 0.4530043 0.4533183 0.4535562 0.4537123 0.4537048
 0.4535576 0.4532722 0.4528968 0.4525025 0.4521262 0.4518423 0.4516352 0.4515296 0.4514582 0.4513991
 0.4512852 0.4510856 0.4507807 0.450355 0.449838 0.4492287 0.4485795 0.4478942 0.4472172 0.4465506
 0.4459083 0.4452886 0.444678 0.4440759 0.4434699 0.4428649 0.4422712 0.4416911 0.4411411 0.4406051
 0.4400745 0.439511 0.4388738 0.4381296 0.4372343 0.4361973 0.4350016 0.4337034 0.4323138 0.4308934
 0.4294589 0.428039 0.4266409 0.4252728 0.4239361 0.4226379 0.4213785 0.4201486 0.4189456 0.4177383
 0.416528 0.415302 0.4140706 0.4128644 0.4116847 0.4105577 0.409458 0.4083606 0.4072371 0.4060395
 0.4047788 0.4034377 0.4020672 0.400685 0.3993411 0.3980594 0.3968543 0.3957395 0.3946824 0.3936858
 0.3926751 0.3916453 0.3905237 0.3893071 0.3879872 0.38657 0.3851192 0.3836423 0.3822136 0.38083
 0.3795224 0.3782793 0.3770921 0.375949 0.3748298 0.3737226 0.3726091 0.3714777 0.3703147 0.3691123
 0.3678622 0.3665652 0.3652171 0.3638333 0.3624134 0.3609875 0.359559 0.3581567 0.3567845 0.3554453
 0.3541392 0.3528395 0.3515443 0.3502228 0.3488773 0.3475018 0.3461041 0.3447065 0.3433139 0.3419512
 0.3406112 0.3392968 0.3379918 0.3366794 0.3353491 0.3339852 0.3325922 0.3311665 0.3297217 0.328262
 0.326796 0.3253274 0.3238548 0.3223787 0.3208968 0.3194086 0.3179204 0.3164327 0.314953 0.3134811
 0.3120143 0.3105522 0.3090886 0.3076265 0.3061717 0.3047271 0.3033043 0.3018982 0.3005073 0.2991225
 0.29773 0.2963338 0.2949258 0.2935337 0.2921649 0.2908574 0.2896297 0.2884897 0.2874532 0.2864588
 0.2855071 0.2844847 0.283381 0.2821213 0.2807017 0.279163 0.2775148 0.2758835 0.2742763 0.2728034
 0.2714526 0.2702486 0.2691585 0.2681248 0.2671085 0.2660186 0.2648436 0.2635213 0.2620993 0.2605817
 0.2590499 0.2575518 0.2561224 0.2547963 0.2535308 0.2523225 0.2511291 0.2499358 0.2487797 0.24766
 0.2466587 0.2457804 0.2450463 0.2444486 0.2438991 0.2433821 0.2427582 0.2420251 0.2410923 0.2399875
 0.2387221 0.2373431 0.2359322 0.2345171 0.2331682 0.2318701 0.2306361 0.2294369 0.2282536 0.2270928
 0.2259485 0.2248506 0.2238106 0.2228182 0.2218789 0.2209369 0.219986 0.2190025 0.2179848 0.2169836
 0.2160024 0.2151035 0.214281 0.2135334 0.2128467 0.2121683 0.2114932 0.2107807 0.2100393 0.2092654
 0.2084672 0.2076573 0.2068274 0.2059818 0.2050902 0.2041401 0.2031009 0.2019509 0.2007083 0.1993609
 0.1979997 0.1966327 0.1953647 0.1942102 0.1931862 0.1922947 0.1914389 0.1906121 0.1896955 0.1886946
 0.187575 0.1863591 0.1851088 0.1838436 0.1826458 0.1815115 0.1804769 0.1795161 0.1786164 0.1777473
 0.1768801 0.1759988 0.1750828 0.174143 0.1731736 0.1722091 0.1712562 0.1703443 0.1694837 0.168657
 0.1678668 0.1670492 0.1662005 0.1652768 0.1642811 0.1632483 0.1621874 0.161176 0.1602082 0.1593103
 0.1584575 0.1576004 0.1567279 0.155789 0.1548115 0.1538026 0.152804 0.1518558 0.1509688 0.1501651
 0.1494234 0.1487396 0.1480984 0.1474918 0.14693 0.1464136 0.145953 0.1455519 0.1451843 0.1448492
 0.1444799 0.1440731 0.1435637 0.1429569 0.1422457 0.1414484 0.1406263 0.1397986 0.1390452 0.138368
 0.1378097 0.1373539 0.1369986 0.1367249 0.1365158 0.1363633 0.1362584 0.1361987 0.1361841 0.136203
 0.1362547 0.1363179 0.1363878 0.1364588 0.136527 0.1366306 0.1367713 0.1370179 0.1373722 0.1378767
 0.1385234 0.139286 0.1401489 0.1410399 0.1419504 0.142821 0.1436568 0.1444397 0.1451783 0.1458776
 0.1465385 0.1471644 0.1477512 0.1482965 0.1488005 0.1492632 0.1496828 0.1500625 0.1503807 0.150638
 0.1507901 0.1508334 0.1507235 0.1504576 0.1500203 0.1494134 0.1486594 0.1477637 0.1467699 0.1456849
 0.1445537 0.1433882 0.142235 0.1411156 0.1400853 0.1391647 0.1384049 0.1377991 0.1373674 0.1370686
 0.1368879 0.1367828 0.1367293 0.1367202 0.1367456 0.1368251 0.1369618 0.1371635 0.137434 0.1377438
 0.1380921 0.1384092 0.1386898 0.1388381 0.1388497 0.1386427 0.1382269 0.1375874 0.1367554 0.1357967
 0.1347495 0.1337132 0.132701 0.1317822 0.1309114 0.1300962 0.1292202 0.1282351 0.1270006 0.1254437
 0.1235119 0.1211522 0.1184845 0.1155013 0.1124487 0.109348 0.1064223 0.1036878 0.1012308 0.09904908
 0.09710379 0.09538651 0.09382287 0.09241001 0.09109969 0.08988926 0.08875123 0.08767594 0.08663392 0.08561902
 0.08460694 0.08361164 0.08263247 0.08169653 0.08082036 0.08001817 0.07930194 0.07866616 0.07811144 0.0776323
 0.07722694 0.0768989 0.07664859 0.07647715 0.07638495 0.07635916 0.0763973 0.07645964 0.07653712 0.07655061
 0.07648796 0.07625457 0.07585362 0.07523583 0.0744332 0.0734724 0.0724012 0.07128653 0.07016791 0.06910153
 0.06810676 0.06721241 0.06641553 0.06572424 0.06511924 0.06459734 0.06414171 0.06374932 0.06340924 0.06312348
 0.06284674 0.06257795 0.06219916 0.06170274 0.0609434 0.0599242 0.05858427 0.05695601 0.05512602 0.05314574
 0.05119381 0.04930074 0.04761559 0.04611137 0.04482747 0.0436894 0.04264778 0.04164165 0.04061136 0.03956078
 0.03846923 0.03738787 0.03632613 0.03532624 0.03439995 0.03355313 0.0327894 0.03208974 0.03145345 0.0308521
 0.03028417 0.02972185 0.02916487 0.02859651 0.02802007 0.02743828 0.02685815 0.02629911 0.02576715 0.02528499
 0.02484721 0.02446164 0.02410529 0.02376383 0.02341018 0.02302035 0.02259233 0.02211232 0.02161584 0.0211063
 0.02063118 0.02020179 0.01983466 0.01953639 0.0192744 0.01904755 0.01880354 0.01854111 0.01823922 0.01790256
 0.01755681 0.01720494 0.01687711 0.01656355 0.01625515 0.01593769 0.01557593 0.01517437 0.01471795 0.01423371
 0.01373887 0.01325889 0.01281669 0.01241681 0.01206873 0.01176154 0.0114956 0.01125349 0.01103393 0.01081186
 0.01058469 0.01032992 0.01004543 0.009731807 0.009390087 0.009044443 0.008696201 0.008367483 0.008056066 0.007764566
 0.007489669 0.00722318 0.006964463 0.006708331 0.006455824 0.006205934 0.005960597 0.00571997 0.005489581 0.005271893
 0.005074293 0.00490228 0.004752705 0.004629455 0.00450968 0.004391543 0.004245183 0.004065779 0.003845163 0.003581637
 0.003300314 0.003002909 0.002725066 0.002466035 0.002238007 0.002035295 0.001840155 0.001647878 0.001434129 0.001202966
 0.0009478917 0.0006816543 0.0004181384 0.0001674086 -5.287109E-05 -0.0002498785 -0.0004181944 -0.0005831544 -0.0007528207 -0.0009512814
 -0.001189616 -0.001468813 -0.001793666 -0.002142088 -0.002513042 -0.002878709 -0.003237022 -0.00357026 -0.003878071 -0.004158119
 -0.00441189 -0.004649457 -0.004872863 -0.005096482 -0.005320788 -0.005555144 -0.005797395 -0.006048345 -0.006304425 -0.006561422
 -0.006816243 -0.007064101 -0.007304963 -0.007536589 -0.007762769 -0.007984178 -0.008205618 -0.008429249 -0.008654905 -0.008883673
 -0.009109356 -0.009331265 -0.009545379 -0.009751178 -0.009952071 -0.01014827 -0.01034511 -0.01054157 -0.01073223 -0.01091456
 -0.0110733 -0.0112093 -0.0113144 -0.01139701 -0.01146774 -0.01153814 -0.01162887 -0.01174476 -0.01189975 -0.01208745
 -0.01230999 -0.01255323 -0.01281315 -0.0130732 -0.01332825 -0.01356535 -0.01378032 -0.01397115 -0.0141359 -0.01428702
 -0.01442494 -0.01456877 -0.01471925 -0.01488783 -0.01507339 -0.01527241 -0.01548242 -0.01569043 -0.01589516 -0.01608571
 -0.01626351 -0.01642588 -0.01657548 -0.01671464 -0.01684592 -0.01697214 -0.017096 -0.01721981 -0.01734587 -0.01747631
 -0.01760996 -0.01774719 -0.01788505 -0.01802246 -0.018161 -0.01830028 -0.01844679 -0.01860108 -0.01876527 -0.01893919
 -0.0191159 -0.01929476 -0.01946694 -0.01963317 -0.01979172 -0.01994477 -0.02009801 -0.02025232 -0.02041325 -0.02057789
 -0.02074539 -0.02091059 -0.02106725 -0.02121529 -0.02135075 -0.02148204 -0.02161162 -0.02174732 -0.02189368 -0.02204679
 -0.02220759 -0.02236528 -0.02251816 -0.0226631 -0.02279945 -0.022934 -0.02306702 -0.02320341 -0.0233426 -0.02348145
 -0.02361942 -0.02375187 -0.02387969 -0.02400299 -0.02412297 -0.02424223 -0.02436093 -0.02448044 -0.0246005 -0.02472101
 -0.02484279 -0.02496628 -0.02509241 -0.02522222 -0.02535421 -0.025489 -0.02562101 -0.02574946 -0.02586858 -0.02597705
 -0.02607585 -0.02616467 -0.02625199 -0.02633825 -0.0264318 -0.02653236 -0.02664093 -0.02675647 -0.02687474 -0.02699499
 -0.02711299 -0.02722809 -0.02733696 -0.02743948 -0.02753314 -0.02762097 -0.02770378 -0.0277879 -0.0278782 -0.02797733
 -0.02808974 -0.02820783 -0.02833143 -0.02844778 -0.02855373 -0.02864376 -0.02871569 -0.02877693 -0.02882754 -0.02888157
 -0.02893964 -0.02901151 -0.02909671 -0.02919533 -0.02930559 -0.02941915 -0.02953448 -0.02964215 -0.02974289 -0.029833
 -0.02991557 -0.02999361 -0.03006916 -0.03014616 -0.03022289 -0.03029951 -0.03037382 -0.03044379 -0.03051232 -0.03057921
 -0.03065046 -0.03072794 -0.03081175 -0.03090292 -0.03099333 -0.03108251 -0.03116178 -0.03123086 -0.03128868 -0.03133596
 -0.03137903 -0.03141894 -0.03146432 -0.03151557 -0.03157889 -0.03165293 -0.03173845 -0.03183259 -0.03193171 -0.03203334
 -0.03213354 -0.03223143 -0.03232511 -0.03241492 -0.03250042 -0.03258283 -0.03266233 -0.03274059 -0.03281821 -0.03289501
 -0.03297137 -0.0330439 -0.03311228 -0.0331752 -0.03323273 -0.03329089 -0.03335039 -0.03342107 -0.03350221 -0.03359637
 -0.03370029 -0.03380528 -0.03390852 -0.03399869 -0.03407803 -0.03414379 -0.03420227 -0.03425907 -0.03431804 -0.03438485
 -0.03445665 -0.03453401 -0.034612 -0.03468857 -0.03476322 -0.03483484 -0.03490803 -0.03498318 -0.03506488 -0.03515371
 -0.03524872 -0.03534973 -0.0354486 -0.03554473 -0.03562856 -0.03570097 -0.03576045 -0.03581002 -0.03585827 -0.03590774
 -0.03596887 -0.03604031 -0.03612585 -0.03621972 -0.036318 -0.03641442 -0.03650246 -0.03658166 -0.03664844 -0.03671072
 -0.03676996 -0.03683407 -0.03690628 -0.03698375 -0.03706744 -0.03714561 -0.03721729 -0.03727546 -0.03731992 -0.03735571
 -0.03738357 -0.03741324 -0.03744464 -0.03748286 -0.03752652 -0.03757397 -0.03762376 -0.0376718 -0.03771776 -0.0377592
 -0.03779678 -0.03783024 -0.03786049 -0.03788795 -0.03791376 -0.03793809 -0.03796359 -0.03799112 -0.03802271 -0.03805938
 -0.03809971 -0.03814398 -0.03818764 -0.03823034 -0.03826853 -0.03830208 -0.03833127 -0.03835664 -0.03838344 -0.03841272
 -0.03845292 -0.03850415 -0.03857226 -0.03865428 -0.03874776 -0.0388473 -0.0389438 -0.03903343 -0.03910803 -0.03916845
 -0.03921176 -0.03924321 -0.03926435 -0.03928032 -0.03929385 -0.03930475 -0.03931406 -0.03931699 -0.03931253 -0.0393009
 -0.03928144 -0.03926559 -0.03925395 -0.03926063 -0.03928546 -0.03933189 -0.03939837 -0.0394782 -0.03957098 -0.03967113
 -0.03978109 -0.03990307 -0.04004024 -0.04019888 -0.04037955 -0.04058591 -0.04081532 -0.0410667 -0.04133895 -0.04162925
 -0.04194504 -0.04228661 -0.04266741 -0.04309071 -0.0435645 -0.04409162 -0.04466589 -0.04528794 -0.04593812 -0.04661511
 -0.04727666 -0.04791727 -0.04846273 -0.04890675 -0.04917353 -0.04926712 -0.04915817 -0.04886012 -0.04838138 -0.04775068
 -0.04700296 -0.04619535 -0.04539813 -0.04466018 -0.04404209 -0.04355785 -0.04323138 -0.04305676 -0.04304102 -0.0431579
 -0.04341219 -0.04372782 -0.04410065 -0.04441948 -0.04467187 -0.04481865 -0.04485791 -0.04483918 -0.04476491 -0.04467905
 -0.04457861 -0.04446975 -0.04434798 -0.04420103 -0.04402797 -0.04381782 -0.04357891 -0.04331706 -0.04304612 -0.04278387
 -0.04253738 -0.0423199 -0.04212538 -0.04195563 -0.04179848 -0.04164978 -0.04150256 -0.04135342 -0.04120516 -0.04105743
 -0.04091597 -0.04078159 -0.04065339 -0.04053131 -0.04040733 -0.0402815 -0.04015122 -0.04001837 -0.03989214 -0.03977448
 -0.03967753 -0.03960039 -0.03954782 -0.03951592 -0.0395016 -0.0394991 -0.0395016 -0.03950329 -0.03949699 -0.03948191
 -0.0394542 -0.03942086 -0.03938301 -0.03934865 -0.03932074 -0.03929919 -0.03928494 -0.03927213 -0.03926007 -0.03924806
 -0.03923606 -0.03923117 -0.03923357 -0.03924831 -0.03927391 -0.0393047 -0.03933857 -0.03936443 -0.03938302 -0.03938964
 -0.03938802 -0.03938228 -0.03937447 -0.03936914 -0.03936498 -0.03936202 -0.03936031 -0.03935887 -0.03936186 -0.03937058
 -0.039388 -0.03941602 -0.03945062 -0.03949215 -0.03953148 -0.03956781 -0.03959437 -0.03961078 -0.03961789 -0.03961616
 -0.03961188 -0.03960513 -0.03959994 -0.03959531 -0.03958948 -0.03958248 -0.03957266 -0.03956259 -0.03955591 -0.03955398
 -0.03956095 -0.03957342 -0.03959044 -0.03960793 -0.03962277 -0.0396353 -0.03964465 -0.03965318 -0.0396616 -0.03967
 -0.03967861 -0.03968621 -0.03969261 -0.03969829 -0.03970327 -0.03970915 -0.039716 -0.03972515 -0.03973638 -0.03974926
 -0.03976323 -0.03977575 -0.03978723 -0.03979657 -0.03980641 -0.03982048 -0.03984091 -0.03987284 -0.03991332 -0.03996293
 -0.04001471 -0.04006501 -0.04010957 -0.04014535 -0.04017353 -0.04019346 -0.04020886 -0.04022009 -0.04023099 -0.04024189
 -0.04025631 -0.04027447 -0.0402979 -0.04032646 -0.04035848 -0.0403938 -0.04043055 -0.04046896 -0.04050902 -0.04055072
 -0.04059444 -0.04063923 -0.0406836 -0.04072698 -0.04076748 -0.04080684 -0.04084542 -0.04088599 -0.04093048 -0.04097925
 -0.04103344 -0.04109007 -0.04114865 -0.04120669 -0.04126348 -0.04131941 -0.04137443 -0.04142925 -0.04148392 -0.04153796
 -0.04159148 -0.04164563 -0.0417011 -0.04176279 -0.04183123 -0.04191173 -0.04200244 -0.04210248 -0.04220751 -0.04230992
 -0.04240664 -0.04249 -0.04256236 -0.04262193 -0.04267536 -0.04272583 -0.04277796 -0.04283494 -0.04289562 -0.04296069
 -0.04302618 -0.04309148 -0.04315397 -0.0432131 -0.04327031 -0.04332564 -0.04338498 -0.04344857 -0.04352184 -0.04360389
 -0.04369237 -0.0437851 -0.04387224 -0.04395349 -0.04402196 -0.04408144 -0.04413475 -0.04418656 -0.04424424 -0.04430828
 -0.04438238 -0.04446286 -0.04454868 -0.04463682 -0.04472545 -0.04481477 -0.04490427 -0.04499574 -0.0450895 -0.04518625
 -0.04528622 -0.0453881 -0.04549181 -0.04559479 -0.04569689 -0.04579556 -0.04589101 -0.04598311 -0.04607254 -0.04616186
 -0.04625143 -0.0463438 -0.04643796 -0.04653361 -0.04662901 -0.04672183 -0.04681129 -0.04689559 -0.0469759 -0.04705193
 -0.04712659 -0.04720062 -0.04727744 -0.04735819 -0.04744431 -0.04753664 -0.04763249 -0.04773187 -0.04782989 -0.04792622
 -0.04801792 -0.04810508 -0.04818864 -0.04826896 -0.0483489 -0.04842866 -0.04851055 -0.04859444 -0.0486812 -0.04877041
 -0.04886176 -0.04895478 -0.04904894 -0.04914346 -0.04923774 -0.04933054 -0.04942107 -0.04950831 -0.04959147 -0.04967113
 -0.04974704 -0.04982114 -0.04989349 -0.04996729 -0.05004275 -0.05012397 -0.05021122 -0.05030609 -0.05040831 -0.05051351
 -0.05062101 -0.05072398 -0.05082263 -0.05091403 -0.05099929 -0.05107975 -0.05115614 -0.05123022 -0.05130271 -0.05137494
 -0.05144816 -0.05152396 -0.05160259 -0.05168481 -0.05176989 -0.05185725 -0.05194832 -0.05204327 -0.0521438 -0.05225088
 -0.0523607 -0.05247339 -0.05258027 -0.05268081 -0.05276979 -0.05284745 -0.05291723 -0.05298014 -0.05304466 -0.05311122
 -0.05318636 -0.05326888 -0.05335958 -0.0534558 -0.05355329 -0.05364998 -0.05374149 -0.05382738 -0.05390579 -0.05397699
 -0.05404035 -0.05409724 -0.05414716 -0.05419508 -0.05424174 -0.05429337 -0.05435162 -0.05441738 -0.05449145 -0.05456764
 -0.05464562 -0.05471913 -0.05478808 -0.05485088 -0.0549078 -0.05495992 -0.0550073 -0.0550506 -0.05508972 -0.05512476
 -0.0551555 -0.05518145 -0.05520296 -0.05521969 -0.05523397 -0.05524695 -0.05526276 -0.05528425 -0.05531362 -0.05535348
 -0.05539998 -0.05545352 -0.0555057 -0.05555509 -0.05559591 -0.05562697 -0.05564971 -0.05566403 -0.05567608 -0.05568616
 -0.05569981 -0.05571693 -0.05573981 -0.05576777 -0.05579972 -0.05583448 -0.05586852 -0.05590084 -0.05592782 -0.05594972
 -0.05596486 -0.05597557 -0.05598269 -0.05598992 -0.05599989 -0.05601425 -0.05603551 -0.05605901 -0.0560848 -0.05610447
 -0.05611609 -0.05611696 -0.05610609 -0.0560884 -0.05606412 -0.05603803 -0.05601017 -0.0559806 -0.0559492 -0.05591506
 -0.05587833 -0.05583926 -0.05579797 -0.05575448 -0.05571002 -0.0556661 -0.05562559 -0.05559322 -0.05556942 -0.05555806
 -0.05555245 -0.05555096 -0.05554351 -0.05552461 -0.05549208 -0.05544225 -0.05538584 -0.05532342 -0.05526944 -0.05522602
 -0.05519807 -0.05518632 -0.05518223 -0.05518523 -0.05518395 -0.05517882 -0.05516749 -0.05515148 -0.0551361 -0.05512189
 -0.05511336 -0.0551095 -0.0551112 -0.0551156 -0.05512025 -0.05512021 -0.05511032 -0.05508718 -0.055046 -0.05499008
 -0.05491878 -0.05483911 -0.05475273 -0.05466533 -0.05457811 -0.05449516 -0.05441726 -0.05434509 -0.0542789 -0.05421357
 -0.05414885 -0.05407955 -0.05400619 -0.05393034 -0.05385265 -0.05377701 -0.05370279 -0.05363 -0.0535583 -0.05348658
 -0.05341601 -0.05334824 -0.05328253 -0.05321999 -0.053156 -0.05308834 -0.0530126 -0.05292556 -0.05282822 -0.05271905
 -0.05260564 -0.05248859 -0.05237763 -0.05227431 -0.05218157 -0.05209999 -0.05202211 -0.05194756 -0.05186828 -0.05178504
 -0.05170024 -0.05161532 -0.05153868 -0.05146913 -0.05140927 -0.05135358 -0.05129355 -0.05122311 -0.05112883 -0.05101323
 -0.05087122 -0.05071522 -0.05055138 -0.05038929 -0.05023641 -0.05008963 -0.04995034 -0.04981029 -0.04966715 -0.04952179
 -0.04937346 -0.04922974 -0.04909111 -0.04896271 -0.04884473 -0.04874004 -0.0486479 -0.04856596 -0.04848984 -0.04839976
 -0.0482909 -0.04813525 -0.04794118 -0.04770816 -0.04745397 -0.04720381 -0.04696453 -0.04675325 -0.04656499 -0.04640203
 -0.04625686 -0.04612764 -0.04600536 -0.04588826 -0.04576435 -0.04563127 -0.0454797 -0.04530789 -0.04511372 -0.0448967
 -0.04466186 -0.04440973 -0.04415271 -0.04389171 -0.04364023 -0.04339753 -0.04316777 -0.04294926 -0.04273915 -0.04253697
 -0.04234172 -0.0421502 -0.04195933 -0.04176178 -0.04154821 -0.04131869 -0.04106781 -0.04080711 -0.04054094 -0.04027538
 -0.0400149 -0.03975299 -0.03948886 -0.03921829 -0.0389398 -0.03866021 -0.03837984 -0.03810592 -0.03783843 -0.03757331
 -0.03730848 -0.03702464 -0.03671984 -0.0363715 -0.03598643 -0.03557025 -0.03513552 -0.03471307 -0.03430118 -0.03391409
 -0.03353574 -0.03315457 -0.03276283 -0.03234737 -0.03192225 -0.03148889 -0.03106588 -0.03066084 -0.030277 -0.02991901
 -0.02956906 -0.02922805 -0.02885513 -0.02844728 -0.02797471 -0.0274377 -0.02686612 -0.02626351 -0.02567611 -0.02509919
 -0.02453549 -0.02397795 -0.02340521 -0.02281864 -0.02221018 -0.02158524 -0.02094827 -0.02030248 -0.01965206 -0.0190001
 -0.01835376 -0.01770039 -0.01704429 -0.0163408 -0.01557653 -0.01472283 -0.01376222 -0.01274379 -0.01166992 -0.01059917
 -0.009538014 -0.008475076 -0.007409525 -0.006314364 -0.005191642 -0.004052446 -0.002894544 -0.0017204 -0.0005112746 0.0007891834
 0.002190807 0.003755888 0.005443298 0.007227069 0.009055906 0.01085752 0.01264443 0.01439801 0.0161574 0.01794093
 0.01975576 0.02160932 0.0234923 0.0253931 0.02737218 0.02942377 0.03172116 0.03427972 0.03717779 0.04041029
 0.04370366 0.04704298 0.05016023 0.05309725 0.05591456 0.05865545 0.06148766 0.06441081 0.06750271 0.07075098
 0.07414982 0.07774853 0.08156225 0.08572843 0.09035033 0.09549567 0.101295 0.1074667 0.1140013 0.1204187
 0.1265986 0.1323511 0.1376165 0.1424972 0.1469916 0.1512952 0.1554215 0.1596616 0.1640408 0.1689499
 0.1743423 0.1802686 0.1865298 0.1924963 0.1981432 0.2030478 0.2074476 0.2115169 0.2154174 0.2194026
 0.2234598 0.2276628 0.2319421 0.2362749 0.2406417 0.2450456 0.2494108 0.253731 0.257889 0.2618564
 0.2656735 0.2693394 0.2729423 0.2764817 0.2798319 0.2829775 0.2857082 0.288044 0.2899674 0.2915215
 0.2928368 0.293924 0.2948734 0.2956617 0.2962794 0.2967444 0.297058 0.2972767 0.2974406 0.2975833
 0.2977373 0.2978885 0.2980436 0.2981638 0.2982397 0.2982565 0.2982068 0.2981244 0.2980102 0.2979226
 0.2978633 0.2978272 0.2978067 0.2977256 0.2975773 0.2972915 0.2968605 0.2962226 0.2953743 0.2942644
 0.2929308 0.29139 0.2897245 0.2880169 0.2863447 0.2847751 0.2833898 0.2822275 0.2813992 0.2809495
 0.2809423 0.2814068 0.2823217 0.283686 0.2854952 0.2877471 0.2904786 0.293691 0.2973863 0.3015607
 0.3061743 0.3112258 0.31669 0.3225666 0.3288429 0.3355156 0.3425661 0.3500066 0.357844 0.3660981
 0.3748012 0.3839342 0.3935071 0.4034538 0.4137509 0.4243292 0.4351647 0.4462015 0.4574348 0.468767
 0.4801982 0.4915316 0.5027518 0.5136887 0.5243383 0.534841 0.5452257 0.5558944 0.5667855 0.5778524
 0.5888853 0.5991208 0.6085653 0.6167972 0.6240731 0.6306686 0.6365819 0.6419791 0.6466075 0.6502956
 0.6530049 0.6546834 0.6553053 0.6549715 0.6530828 0.6495308 0.64379 0.6356038 0.6262202 0.6157076
 0.6053654 0.5952442 0.5850806 0.5748466 0.5641391 0.5530086 0.5415313 0.5297439 0.5178698 0.5057643
 0.4932969 0.4801373 0.4655789 0.4498454 0.4325345 0.4150964 0.3985723 0.3835635 0.370931 0.3596653
 0.3495956 0.3399435 0.3304268 0.3210669 0.3118109 0.3029311 0.2944586 0.2863674 0.2786545 0.2710723
 0.2636174 0.2561601 0.2487305 0.2414212 0.2342643 0.2274215 0.220886 0.2147272 0.2089119 0.2034213
 0.1982226 0.1932896 0.188552 0.183991 0.1794207 0.1747601 0.1698154 0.1644085 0.1588792 0.153201
 0.1481179 0.1437957 0.1402012 0.1373719 0.1347606 0.1323413 0.1297854 0.1271065 0.1243517 0.1215548
 0.1189363 0.1164789 0.1142428 0.1121865 0.110228 0.108388 0.1066471 0.1050749 0.1037508 0.1026875
 0.1019353 0.1014349 0.1011686 0.1010927 0.1011814 0.1014426 0.1018662 0.1025071 0.1033648 0.1045441
 0.1060558 0.1079616 0.1102632 0.112755 0.1154135 0.1178868 0.1201841 0.1221732 0.1238871 0.1253734
 0.1266427 0.1277355 0.1286672 0.1294542 0.1301785 0.1309091 0.1317865 0.1329588 0.1344373 0.1363221
 0.1383691 0.1405042 0.1425936 0.1445607 0.1465317 0.1485101 0.1506484 0.1529652 0.1554889 0.1582209
 0.1610621 0.1640083 0.1669704 0.1699688 0.173059 0.17629 0.1798625 0.1837981 0.1882755 0.1932125
 0.1985608 0.2042373 0.2100924 0.2162046 0.2225757 0.2293159 0.2365166 0.2441145 0.2521261 0.2603973
 0.2688664 0.277588 0.2865284 0.296035 0.3061407 0.3170733 0.3288441 0.3409226 0.3532398 0.3647666
 0.3754978 0.3848811 0.3929723 0.3997183 0.4050632 0.408879 0.4110313 0.4112161 0.4094401 0.4055309
 0.3997312 0.3921256 0.3830593 0.3727177 0.3613802 0.3491725 0.3363012 0.3227916 0.3090155 0.2949872
 0.2813454 0.2681532 0.2558351 0.2444165 0.233748 0.2238053 0.2142202 0.205009 0.1960677 0.1874616
 0.1793822 0.1718389 0.1649732 0.1587024 0.1529614 0.1476623 0.1426776 0.1379674 0.1334596 0.1291463
 0.125005 0.1210407 0.1172499 0.1136422 0.1102223 0.1069811 0.1039217 0.1010049 0.0982269 0.09555963
 0.09300134 0.09059274 0.0883403 0.08634167 0.08459881 0.08317694 0.08206382 0.08125018 0.08072472 0.08045422
 0.08043862 0.08066403 0.08113123 0.0818432 0.08277813 0.08393836 0.08524534 0.08668268 0.08810084 0.08945979
 0.09058033 0.09141745 0.09182534 0.09177122 0.09119195 0.09007055 0.08848114 0.08642662 0.08411247 0.08155133
 0.07895873 0.07633978 0.07383125 0.07143553 0.06923332 0.06722682 0.06546602 0.06393912 0.06265348 0.06158461
 0.0607072 0.06000369 0.05945177 0.05904372 0.05877338 0.05862393 0.05859391 0.05864558 0.05877417 0.05892738
 0.05909855 0.0592346 0.05932969 0.05934818 0.05928765 0.0591456 0.0589241 0.05865117 0.05833085 0.05800236
 0.05766698 0.05735298 0.05705309 0.0567679 0.05648021 0.05616341 0.0558003 0.05535899 0.05483522 0.0542124
 0.05350123 0.05269983 0.0518305 0.05089715 0.04993284 0.048944 0.04796644 0.04700716 0.04608678 0.04520899
 0.04437293 0.0435788 0.04281736 0.04208872 0.04139174 0.04072881 0.04011353 0.03954986 0.03905994 0.03864538
 0.03832221 0.03808742 0.03794381 0.03788605 0.03791017 0.03800843 0.03817654 0.03839862 0.03866765 0.03896248
 0.03927365 0.03958807 0.03989989 0.0402072 0.04050916 0.04080358 0.04109064 0.04136226 0.041618 0.04184966
 0.04205704 0.04223604 0.04238711 0.04251076 0.04260811 0.04268372 0.04273827 0.04277626 0.04279659 0.04279967
 0.04278371 0.04274723 0.04268747 0.04260322 0.04248757 0.04233731 0.04214414 0.04190295 0.04161419 0.04127492
 0.04089835 0.04048526 0.04005309 0.03960386 0.03914769 0.03868542 0.0382142 0.0377333 0.03723056 0.03670537
 0.03614729 0.03555756 0.03493489 0.03428189 0.0336039 0.03290415 0.03218976 0.03146517 0.03073809 0.03001238
 0.02929384 0.02858409 0.02788514 0.02719899 0.02652619 0.02587085 0.02523484 0.02461708 0.02401858 0.02343068
 0.0228523 0.0222801 0.02171361 0.02116563 0.02063721 0.0201476 0.01969644 0.01929153 0.01892974 0.01860321
 0.01830905 0.01803509 0.0177823 0.01754557 0.01733024 0.01714017 0.01698161 0.01686128 0.01678236 0.01674888
 0.01676058 0.01681799 0.01692134 0.01707001 0.01726837 0.01751689 0.01782048 0.01818041 0.01859196 0.01905514
 0.01955198 0.02008141 0.02062371 0.0211792 0.02174005 0.02230834 0.02288775 0.0234805 0.02409407 0.02472966
 0.02539383 0.02608385 0.02680111 0.02753633 0.02828309 0.02903142 0.02977286 0.03050528 0.03122577 0.03193524
 0.03263461 0.03331833 0.03398591 0.03463054 0.03525079 0.03584982 0.03642756 0.03699661 0.037558 0.0381295
 0.03871315 0.03933133 0.03998613 0.04069879 0.04146821 0.04230362 0.04319986 0.04415305 0.04515614 0.04619976
 0.04727643 0.04837751 0.04949577 0.05062544 0.05175979 0.05289604 0.0540254 0.05514563 0.05624766 0.05732906
 0.0583877 0.05942274 0.060438 0.06143373 0.06240996 0.06336671 0.0643032 0.06522082 0.06612893 0.06702978
 0.06793863 0.06885418 0.06978182 0.07071684 0.07165264 0.0725871 0.07351277 0.07443545 0.07535574 0.07628481
 0.07723091 0.07819609 0.07918744 0.08018575 0.08118876 0.08217263 0.08313075 0.08406189 0.08496394 0.08585351
 0.08673168 0.08760595 0.08847605 0.08933481 0.09018188 0.09101132 0.09182402 0.09262117 0.09340253 0.0941704
 0.09491833 0.09564072 0.09631836 0.09692898 0.09744558 0.09783575 0.09808712 0.09817796 0.09812409 0.09792338
 0.09760577 0.09717686 0.09666888 0.09608544 0.09546845 0.09482113 0.09419387 0.09359011 0.09305004 0.09257496
 0.09218499 0.09187945 0.09166344 0.09153554 0.09149284 0.09153433 0.09165653 0.0918575 0.09213674 0.09248012
 0.09287823 0.09329329 0.09369686 0.09403595 0.09427368 0.09436593 0.09428383 0.09401254 0.09353627 0.09288244
 0.09204698 0.09109913 0.09004336 0.08896258 0.08786247 0.08680871 0.08580425 0.0848965 0.08408786 0.08341913
 0.08289117 0.0825313 0.0823354 0.08230756 0.0824406 0.08272439 0.08315007 0.08370625 0.08437449 0.08514392
 0.08597103 0.08684105 0.08767074 0.0884366 0.08902147 0.08939399 0.08944578 0.08914847 0.08845779 0.08735942
 0.08589427 0.08406202 0.08196898 0.07962225 0.07715713 0.0745818 0.07202111 0.06947892 0.06703883 0.06469934
 0.06249978 0.06043569 0.05851868 0.05673977 0.0550945 0.0535679 0.05214627 0.05081501 0.04956076 0.04837702
 0.0472571 0.04620222 0.04521099 0.04428785 0.04343368 0.0426501 0.04193814 0.04129072 0.04070761 0.04017629
 0.03969618 0.03925848 0.03886225 0.0384981 0.03816181 0.03783143 0.0375003 0.03713851 0.03674221 0.03628942
 0.03578103 0.03520785 0.03457625 0.03388637 0.03315184 0.03237937 0.03158508 0.03077679 0.02996684 0.02915877
 0.02836722 0.02759399 0.02685925 0.02616615 0.0255233 0.02493212 0.02437946 0.02386462 0.02337212 0.02290331
 0.02246181 0.0220509 0.02168752 0.02137251 0.02111845 0.02092104 0.02078011 0.02068563 0.02062527 0.02058836
 0.02055841 0.02053686 0.02051505 0.02051395 0.02053697 0.0206151 0.02075684 0.02098908 0.02131847 0.02176087
 0.02231989 0.0229964 0.02379165 0.02468202 0.02566468 0.02667672 0.02770755 0.0286462 0.02947585 0.03006086
 0.0303936 0.03037345 0.03002263 0.0293249 0.02833614 0.02711537 0.02573454 0.02427543 0.02280388 0.02138235
 0.0200578 0.01886495 0.01782875 0.01696505 0.01627611 0.01576759 0.01541939 0.0152314 0.01517053 0.01523455
 0.01539398 0.01564747 0.0159764 0.01637963 0.01684066 0.01735625 0.01790366 0.01847837 0.01905527 0.01963225
 0.02019179 0.02073792 0.02126657 0.02178904 0.02231356 0.02285205 0.02341638 0.02400739 0.02463157 0.02527382
 0.02593325 0.02658639 0.02722916 0.02784099 0.02841857 0.02895095 0.02943688 0.02987437 0.03026337 0.03060405
 0.03089651 0.03114028 0.03133782 0.03149784 0.03162813 0.0317543 0.03188678 0.03205865 0.03227539 0.0325605
 0.03290891 0.03332703 0.0337993 0.03431931 0.03486852 0.03543663 0.03601391 0.03659402 0.03717924 0.03776874
 0.03836745 0.03897614 0.03959595 0.04022712 0.04086845 0.04151979 0.04217741 0.04284007 0.04349608 0.04414278
 0.04476079 0.04534955 0.04589457 0.04640325 0.04688012 0.04734134 0.04781057 0.04830193 0.04884049 0.04942418
 0.05006315 0.05073776 0.05144407 0.05215661 0.05286706 0.05355692 0.05421908 0.0548551 0.05546197 0.05606565
 0.05666761 0.05729565 0.05795052 0.0586305 0.05933277 0.0600303 0.06072087 0.06137995 0.06200717 0.06258858
 0.06312522 0.06360935 0.06405094 0.06445678 0.06484692 0.06524339 0.06566023 0.06611622 0.06660815 0.06714092
 0.06770185 0.06828854 0.06888855 0.06949814 0.07011403 0.07073397 0.0713703 0.07202376 0.07270592 0.07341682
 0.07414272 0.07488177 0.07560869 0.07632595 0.07703141 0.07773089 0.07844239 0.07916674 0.07991584 0.08068417
 0.08147085 0.08226473 0.08305696 0.08383131 0.08457269 0.08527571 0.08592925 0.08655243 0.08714776 0.08773714
 0.08832798 0.08891888 0.08951145 0.09009378 0.09066468 0.09122296 0.09176863 0.09230509 0.09283228 0.09335005
 0.09385891 0.09436116 0.09485781 0.0953532 0.0958477 0.09634417 0.09684259 0.09734612 0.09784881 0.09834848
 0.09883185 0.09928698 0.09971268 0.1001003 0.1004722 0.1008333 0.1012041 0.101592 0.1019955 0.1024157
 0.1028451 0.1032834 0.1037234 0.1041648 0.1045867 0.1049886 0.1053526 0.1056845 0.1060024 0.1063159
 0.1066663 0.1070552 0.1075092 0.1080176 0.1085797 0.109176 0.1097873 0.1103971 0.1109838 0.1115529
 0.1120975 0.1126421 0.1131945 0.1137667 0.114365 0.1149817 0.1156165 0.1162641 0.1169241 0.1175951
 0.1182769 0.1189562 0.1196318 0.1202868 0.1209207 0.1215235 0.122094 0.1226226 0.1231108 0.1235553
 0.1239624 0.1243431 0.1246932 0.1250174 0.1252951 0.1255107 0.1256572 0.125721 0.1257271 0.1256793
 0.1256057 0.125513 0.1254185 0.1253233 0.1252588 0.1252273 0.1252618 0.1253634 0.1255231 0.1257381
 0.1259723 0.1262282 0.1264965 0.1267881 0.1271328 0.1275387 0.1280451 0.1286353 0.1293122 0.1300271
 0.1307254 0.1313867 0.1319502 0.1325137 0.1330817 0.1338473 0.1349043 0.1362484 0.1379403 0.1396644
 0.1413706 0.142942 0.1443533 0.1457446 0.1471217 0.1485741 0.150094 0.1516283 0.1531594 0.1545697
 0.1558459 0.1568887 0.1576818 0.1581447 0.1582597 0.1579598 0.1572521 0.1561018 0.1545754 0.1526861
 0.1505691 0.1482801 0.1459652 0.1436844 0.1415293 0.139531 0.137737 0.1361585 0.1348211 0.1337311
 0.1328525 0.132183 0.1316066 0.1311156 0.1305829 0.130008 0.1293197 0.1285275 0.1276199 0.1266204
 0.1255707 0.1245004 0.1234838 0.1225073 0.1216009 0.1206927 0.1197349 0.1186903 0.1175097 0.1162492
 0.1149082 0.1135766 0.1122701 0.1110778 0.110012 0.1091573 0.1085255 0.1081249 0.1079556 0.1079242
 0.1080255 0.1081706 0.1083638 0.1085872 0.1088427 0.10913 0.1094423 0.109762 0.1100875 0.1104063
 0.1107254 0.111046 0.1113802 0.1117356 0.1121255 0.1125619 0.1130397 0.1135632 0.1141089 0.114668
 0.1152475 0.1158423 0.1165017 0.1172309 0.1180464 0.1189491 0.1198803 0.1208356 0.1217445 0.1226085
 0.1234007 0.1241253 0.1247822 0.1253735 0.1259045 0.1263741 0.1267866 0.1271307 0.1273948 0.1275722
 0.1276453 0.1276421 0.1275693 0.1274618 0.1273407 0.1271931 0.1270242 0.1267934 0.1264933 0.1261118
 0.1256459 0.1251124 0.1245122 0.1238685 0.1231834 0.1224907 0.1217935 0.1211296 0.1204976 0.1199159
 0.1193762 0.1188726 0.118389 0.1179005 0.1173867 0.116811 0.1161769 0.1154654 0.1147185 0.1139535
 0.1132002 0.1124841 0.1117703 0.1110598 0.1102941 0.10946 0.1085543 0.1075718 0.1065712 0.1055553
 0.104575 0.1036275 0.1026898 0.1017518 0.1007363 0.09964912 0.09845739 0.09719975 0.09594848 0.09473864
 0.09367203 0.09272832 0.09193078 0.0912316 0.09059571 0.0900074 0.08944753 0.08891796 0.08842034 0.08793531
 0.08745973 0.08697244 0.08646768 0.08594903 0.08541595 0.08487791 0.0843354</values></Ydata></AB><ScSm><Ydata ylabel="Single channel"><values byteorder="INTEL" format="FLOAT32" numvalues="1814"> 0.07305543 0.07305256 0.07311694 0.07327656 0.0734985 0.07371132 0.0738581 0.07393129 0.07395242 0.07393038
 0.07387063 0.07382198 0.07386608 0.07403672 0.07426964 0.07444572 0.07448567 0.07442237 0.07438608 0.0744776
 0.07462758 0.07461379 0.07426754 0.0736672 0.07308918 0.07275337 0.07268491 0.07287353 0.07340844 0.07422429
 0.07481927 0.07461762 0.073696 0.07280586 0.07253873 0.0727607 0.07297036 0.0728757 0.07248097 0.07197078
 0.07175989 0.07238059 0.07395749 0.07577701 0.07654603 0.07520817 0.07169832 0.06718065 0.06362016 0.06272818
 0.06475311 0.06813957 0.07069879 0.07135566 0.07065702 0.0696566 0.06878343 0.06798801 0.06747839 0.06775267
 0.0689116 0.07020105 0.0704053 0.06888667 0.06634369 0.06431425 0.06377264 0.06451923 0.06600551 0.06793056
 0.06940588 0.0684819 0.06407277 0.05838164 0.0559079 0.05916401 0.06599188 0.07167275 0.07312022 0.07060421
 0.0663759 0.06280717 0.06149451 0.06283015 0.06593942 0.0694074 0.07213436 0.07337739 0.07255471 0.06975466
 0.0662377 0.06382516 0.06377687 0.06629631 0.07048811 0.0744404 0.07609783 0.07478432 0.07164884 0.06844919
 0.06639854 0.06618255 0.06813166 0.0718708 0.07630035 0.08023612 0.08288935 0.08394501 0.08363097 0.08257152
 0.08130926 0.08022095 0.07985266 0.08057974 0.08172631 0.08182617 0.08021832 0.07792513 0.07659825 0.07680956
 0.07759424 0.0776282 0.0765719 0.07484785 0.07232849 0.06831941 0.06315325 0.05860504 0.05611578 0.05569644
 0.05698346 0.05980419 0.06294756 0.06409397 0.06235911 0.05991255 0.05982786 0.06280032 0.06679083 0.06951029
 0.07053438 0.07113133 0.07263085 0.0750694 0.07702197 0.07667945 0.07364711 0.06994328 0.06856158 0.07053146
 0.07393523 0.07626662 0.07706998 0.07765102 0.07879377 0.07954491 0.0782181 0.07440053 0.07000154 0.06806316
 0.07011585 0.07464924 0.07821588 0.07799576 0.07368992 0.06755137 0.06262036 0.06063101 0.06154925 0.06472896
 0.06961048 0.07514319 0.07950227 0.08111207 0.07980795 0.07672369 0.07301705 0.06883444 0.06389688 0.05918449
 0.05714864 0.05938572 0.06458008 0.06959763 0.07228821 0.07255861 0.07114941 0.06831329 0.06399527 0.05903204
 0.05554207 0.05529603 0.05759491 0.05965807 0.05952483 0.05783389 0.05640975 0.05598201 0.05591276 0.05556939
 0.05520859 0.05550522 0.05658184 0.05773794 0.0581336 0.05756405 0.05649367 0.05550628 0.05478726 0.05400907
 0.0527977 0.05146062 0.05096682 0.05187311 0.05354715 0.05482421 0.05518214 0.05491769 0.05437465 0.05338074
 0.05153247 0.04897197 0.04671133 0.04588801 0.04665753 0.04809188 0.04915209 0.0494402 0.04908779 0.04837319
 0.04753782 0.04670595 0.04592188 0.04531757 0.04508196 0.04517777 0.04528861 0.04514269 0.04472692 0.0441398
 0.04341005 0.0425391 0.04162517 0.04086149 0.04039778 0.04021753 0.04017717 0.04014403 0.04003691 0.03977187
 0.03929051 0.03865283 0.03800707 0.0374563 0.03701564 0.03668143 0.03646426 0.0363436 0.03624106 0.03606855
 0.03579663 0.0354607 0.03510284 0.03473081 0.0343429 0.03396754 0.033655 0.03343097 0.03326494 0.03309814
 0.03291804 0.03277908 0.0327098 0.03263038 0.0324264 0.03208879 0.03172029 0.03141593 0.03118899 0.03100191
 0.03081739 0.03060871 0.03035282 0.03004635 0.0297366 0.02951058 0.02942779 0.02947607 0.02960001 0.02973736
 0.02981969 0.02979452 0.02967343 0.02951683 0.02935854 0.02918305 0.0289782 0.02877413 0.02862793 0.02858515
 0.02864393 0.02874929 0.02883443 0.02886535 0.02884451 0.02880059 0.02878145 0.0288161 0.02887054 0.02887942
 0.02882893 0.02877363 0.02876578 0.0287972 0.02881717 0.02879326 0.028749 0.02873955 0.02879092 0.02887596
 0.02895404 0.02901663 0.02908573 0.02917879 0.0292801 0.02934683 0.02935323 0.02932618 0.02931791 0.02934785
 0.02939697 0.02945377 0.02953271 0.02964327 0.02976601 0.02986939 0.02994131 0.02999754 0.03005895 0.03012374
 0.03017025 0.03018718 0.03019004 0.03020473 0.03024419 0.03030222 0.0303624 0.03041102 0.03044436 0.03046476
 0.03047377 0.03047325 0.03046788 0.03046267 0.03046407 0.03048401 0.03053015 0.03058706 0.03061963 0.03060488
 0.03055685 0.0305145 0.03050511 0.03052175 0.03053702 0.03053554 0.03052732 0.03053102 0.03055407 0.03059196
 0.03063772 0.03068728 0.03074369 0.03082207 0.03094105 0.03109927 0.03126517 0.03140225 0.03150515 0.03160306
 0.03172776 0.03188605 0.03206235 0.03223965 0.03241542 0.03260016 0.0327993 0.03299875 0.03317681 0.03333113
 0.03348351 0.03365777 0.03386333 0.0340966 0.03434251 0.0345748 0.03477293 0.03494469 0.03512081 0.03532262
 0.03554396 0.03576712 0.03598623 0.03620818 0.03643938 0.03668316 0.03694773 0.03724505 0.03757671 0.0379251
 0.03826232 0.03856891 0.03884808 0.03912561 0.03943355 0.0397874 0.04017495 0.04056653 0.04093809 0.04128857
 0.04163542 0.04199313 0.04236051 0.04273331 0.04312062 0.04353677 0.04397951 0.0444281 0.0448642 0.04528707
 0.04570796 0.04613584 0.04657036 0.04700543 0.04743833 0.04787365 0.04831584 0.04876041 0.04919721 0.04962152
 0.0500386 0.05045935 0.05089345 0.05134092 0.05178532 0.05220427 0.05259614 0.05298896 0.05340891 0.05384531
 0.05426293 0.05464717 0.05501959 0.05540645 0.05580968 0.05621739 0.05662904 0.05705681 0.05750541 0.05795902
 0.05838878 0.05877291 0.05911291 0.05943238 0.05975945 0.06011176 0.06049845 0.06092545 0.06138566 0.06184958
 0.06228097 0.06266373 0.06300603 0.06332541 0.06364204 0.06397861 0.06434838 0.06474274 0.0651381 0.06551098
 0.06584641 0.06614999 0.06645827 0.06681703 0.06723605 0.0676825 0.06812833 0.0685828 0.06906271 0.06955332
 0.07002725 0.07049093 0.0709793 0.07149949 0.07200711 0.07245074 0.07281993 0.07313797 0.0734323 0.0737337
 0.07408307 0.07450666 0.0749874 0.0754804 0.07595348 0.07639966 0.07681836 0.07720307 0.0775484 0.07785803
 0.07814145 0.07840611 0.07865693 0.07890499 0.07917081 0.07946683 0.07977413 0.08004832 0.08025415 0.08038329
 0.08043607 0.08040619 0.08029966 0.08015309 0.0800063 0.07985521 0.0796497 0.07934159 0.07892166 0.0784089
 0.07782279 0.07718253 0.07652803 0.07592806 0.07545993 0.07518078 0.07512012 0.07529595 0.07572404 0.07639457
 0.07723877 0.07813291 0.07894458 0.0795717 0.07994469 0.08002148 0.07980436 0.07935314 0.07876293 0.07812656
 0.07751755 0.07698981 0.0765755 0.07629192 0.07616781 0.0762604 0.07663688 0.07734409 0.07840483 0.07982704
 0.08158436 0.0835748 0.08562068 0.08753889 0.08922525 0.09067473 0.09193821 0.09307643 0.09414026 0.09515761
 0.0961234 0.09701383 0.09781601 0.0985363 0.09918142 0.0997435 0.1002044 0.1005498 0.1007851 0.1009449
 0.1010847 0.1012564 0.1014922 0.1018055 0.1021896 0.102606 0.1029828 0.1032415 0.1033326 0.1032532
 0.1030487 0.1028301 0.1027973 0.1032055 0.1042404 0.1058861 0.1079154 0.1100203 0.1119626 0.1136327
 0.1150189 0.1161585 0.1171061 0.1179161 0.1186339 0.1192946 0.1199243 0.1205375 0.1211368 0.12172
 0.1222847 0.1228294 0.1233571 0.1238774 0.1244009 0.1249272 0.1254451 0.1259477 0.1264415 0.1269391
 0.1274435 0.1279449 0.1284347 0.1289171 0.1294012 0.129886 0.1303612 0.1308219 0.1312738 0.1317286
 0.1321978 0.1326849 0.1331753 0.1336401 0.134059 0.1344397 0.1348076 0.135182 0.1355671 0.1359583
 0.1363499 0.1367367 0.1371156 0.1374908 0.1378736 0.1382702 0.1386662 0.1390342 0.139361 0.1396641
 0.1399765 0.1403177 0.1406813 0.1410481 0.1414072 0.1417672 0.1421475 0.1425566 0.1429786 0.1433857
 0.1437626 0.144117 0.1444665 0.1448229 0.1451885 0.1455621 0.1459395 0.1463117 0.1466728 0.1470279
 0.1473875 0.1477558 0.1481281 0.1484993 0.1488657 0.149223 0.1495697 0.1499107 0.1502557 0.150612
 0.1509808 0.1513536 0.1517127 0.1520439 0.1523498 0.1526471 0.1529486 0.1532529 0.1535529 0.1538484
 0.154148 0.1544616 0.1547924 0.1551341 0.1554764 0.1558107 0.1561333 0.1564455 0.1567523 0.157061
 0.1573791 0.1577115 0.1580579 0.1584107 0.1587569 0.1590859 0.1593961 0.1596972 0.1600027 0.1603198
 0.1606408 0.1609501 0.1612409 0.1615239 0.1618162 0.1621247 0.1624435 0.162763 0.1630782 0.1633878
 0.163691 0.1639878 0.1642819 0.1645782 0.1648784 0.165182 0.1654885 0.1657952 0.1660957 0.1663862
 0.1666701 0.166954 0.1672423 0.1675382 0.1678425 0.1681516 0.1684579 0.1687536 0.1690347 0.169305
 0.1695761 0.1698602 0.1701585 0.1704608 0.1707526 0.1710256 0.1712846 0.1715454 0.1718206 0.1721117
 0.1724136 0.1727216 0.1730281 0.1733252 0.1736123 0.173895 0.1741769 0.1744596 0.1747476 0.1750437
 0.1753442 0.1756407 0.1759251 0.1761945 0.1764549 0.1767178 0.1769875 0.177257 0.1775195 0.177774
 0.1780231 0.1782717 0.1785249 0.1787828 0.1790406 0.179297 0.1795563 0.1798235 0.1801012 0.1803875
 0.1806746 0.1809561 0.1812345 0.1815145 0.1817947 0.1820733 0.1823528 0.1826348 0.1829188 0.1832067
 0.1834988 0.1837901 0.184079 0.1843705 0.1846668 0.1849624 0.1852529 0.1855378 0.1858206 0.1861079
 0.1864007 0.1866872 0.1869557 0.1872104 0.1874631 0.1877191 0.187981 0.1882501 0.1885209 0.1887875
 0.18905 0.1893075 0.189557 0.1898059 0.190066 0.1903355 0.1906047 0.1908733 0.1911453 0.1914208
 0.1917038 0.191998 0.1922942 0.1925809 0.1928603 0.1931368 0.1934081 0.1936733 0.1939279 0.1941463
 0.1942785 0.194213 0.1936577 0.1920104 0.1883461 0.1816146 0.1710662 0.1567246 0.1395363 0.1210319
 0.102767 0.08592554 0.07120786 0.05892218 0.04913525 0.04176912 0.03666135 0.03366763 0.03277302 0.0342092
 0.03857837 0.04649305 0.05723289 0.06756608 0.0730165 0.07140031 0.06491116 0.05811757 0.054169 0.05328135
 0.05410401 0.05548625 0.05706298 0.05904263 0.06178584 0.06539904 0.06971639 0.07473777 0.08083725 0.08828431
 0.09667878 0.1051229 0.1129926 0.120424 0.1280048 0.1360714 0.1443583 0.1522597 0.1593094 0.1654125
 0.1707536 0.1755899 0.1801063 0.1843925 0.188487 0.1923764 0.1959191 0.1988184 0.2007619 0.2016549
 0.2017312 0.2014264 0.2011262 0.2010166 0.2011218 0.2014164 0.2018797 0.202493 0.2032355 0.2040803
 0.2049869 0.2059093 0.2068162 0.2076938 0.2085311 0.2093165 0.2100441 0.2107164 0.2113408 0.2119236
 0.2124636 0.212955 0.2134013 0.2138169 0.2142146 0.2145993 0.2149735 0.2153379 0.2156859 0.2160063
 0.2162954 0.216564 0.2168286 0.2170976 0.217366 0.2176261 0.2178788 0.2181314 0.2183863 0.2186406
 0.2188931 0.2191448 0.2193975 0.2196558 0.2199247 0.2202004 0.2204722 0.2207357 0.2209949 0.2212516
 0.2215031 0.2217522 0.222008 0.2222743 0.2225452 0.2228133 0.2230797 0.2233537 0.2236419 0.2239366
 0.2242249 0.2245092 0.2248061 0.2251232 0.2254496 0.2257694 0.2260748 0.2263681 0.2266625 0.2269708
 0.2272844 0.2275746 0.2278259 0.2280592 0.2283157 0.2286192 0.2289559 0.2292909 0.2296046 0.2299075
 0.2302174 0.2305347 0.2308454 0.2311365 0.2314103 0.231695 0.2320281 0.2324133 0.232812 0.2331917
 0.2335548 0.233913 0.2342699 0.2346325 0.2349999 0.235337 0.2356023 0.235813 0.2360565 0.2364202
 0.2369086 0.2374309 0.2378843 0.2382448 0.2385668 0.2389128 0.2393089 0.2397241 0.2400546 0.2401954
 0.2401972 0.2402914 0.2406814 0.2413423 0.242075 0.2427091 0.2432087 0.2436268 0.2440134 0.2443618
 0.2446202 0.2447543 0.2448206 0.2449782 0.2453796 0.2460146 0.246704 0.2472807 0.2477208 0.2480783
 0.2483903 0.2486727 0.2488791 0.2488471 0.2484716 0.2479995 0.2479566 0.2486384 0.2497773 0.2508283
 0.251506 0.2519232 0.2522815 0.2526231 0.2528963 0.2530052 0.2526886 0.2516676 0.2501969 0.249223
 0.249605 0.2512471 0.2532542 0.2548256 0.2557595 0.2562547 0.2565643 0.2568271 0.2569605 0.2566688
 0.255778 0.2546736 0.2541959 0.2548617 0.2562831 0.2575813 0.2582784 0.2585469 0.258741 0.2590025
 0.2591681 0.2587235 0.257095 0.2544934 0.2523459 0.2522955 0.2545969 0.2578157 0.2602554 0.2614151
 0.2618548 0.2619533 0.2613418 0.2595664 0.2567768 0.2536547 0.2511979 0.2505901 0.2524183 0.2556841
 0.2583679 0.2594284 0.2596886 0.260484 0.2620638 0.2636215 0.2643412 0.2640196 0.2629106 0.2612798
 0.2592843 0.2573865 0.2566025 0.2577819 0.2605694 0.263537 0.2655077 0.2664446 0.2668161 0.266216
 0.2631007 0.2566473 0.2490636 0.2449689 0.2473092 0.2542713 0.2612339 0.2653106 0.2669151 0.2675837
 0.2679271 0.2674655 0.2649109 0.258876 0.2500648 0.2426374 0.2413961 0.2470417 0.2553793 0.261229
 0.2619596 0.2577718 0.2507598 0.2442843 0.2416039 0.2438952 0.2497355 0.2565157 0.2620107 0.2649735
 0.2651134 0.262987 0.2599528 0.2578331 0.2576022 0.2579486 0.2562633 0.2519361 0.2473768 0.2444803
 0.2417019 0.2369242 0.232088 0.2318948 0.2376881 0.2452115 0.2493839 0.2494391 0.2480366 0.2464384
 0.2423886 0.2333955 0.2214605 0.2131556 0.2138588 0.2221802 0.231208 0.2352611 0.2344013 0.2324176
 0.2317631 0.2310693 0.2271198 0.21905 0.2104288 0.2062592 0.2076795 0.2109375 0.2118263 0.20908
 0.2029461 0.1937597 0.1842228 0.180277 0.1860724 0.1988462 0.2111078 0.216849 0.2137781 0.2019065
 0.184161 0.1679434 0.1615669 0.1668837 0.1770731 0.1829344 0.1802166 0.170379 0.1565762 0.1414189
 0.1280727 0.1206927 0.1219258 0.130199 0.1399763 0.1446621 0.1402244 0.1281591 0.1154894 0.1097227
 0.1121939 0.1172842 0.1187663 0.1154367 0.1102383 0.1063183 0.1051379 0.1064062 0.1084594 0.1097477
 0.1100643 0.1089893 0.1042385 0.09447029 0.08320144 0.07653952 0.07680014 0.08128563 0.08722697 0.09422924
 0.1010752 0.1040567 0.1011455 0.09583887 0.09419425 0.09841855 0.1049912 0.1090039 0.1090626 0.10754
 0.106922 0.1071032 0.1066802 0.105943 0.1070069 0.1107589 0.1151613 0.1174637 0.1170511 0.1151915
 0.1129268 0.1103154 0.107155 0.103425 0.09920451 0.09471868 0.0903061 0.08609678 0.08195428 0.07779355
 0.0735971 0.06905074 0.06363301 0.05743672 0.05165885 0.04771533 0.04580168 0.04488173 0.04416758 0.04369266
 0.04305936 0.0409015 0.03674613 0.03266428 0.03178965 0.03529877 0.0415441 0.04788648 0.05258688 0.0549284
 0.05457047 0.05201304 0.04973315 0.05140643 0.05881178 0.07005925 0.08167103 0.09160925 0.09936908 0.1042481
 0.1053137 0.1030968 0.100216 0.09993902 0.104258 0.1129017 0.1231952 0.1305548 0.1307529 0.1242738
 0.1184691 0.1221212 0.1360201 0.1514201 0.1598579 0.1618236 0.1631473 0.1659386 0.1675988 0.1674427
 0.1692725 0.1761837 0.1859718 0.193254 0.1941483 0.1877954 0.1758774 0.1629871 0.1554231 0.1562164
 0.1618325 0.1661253 0.1663432 0.1628048 0.1552284 0.1441499 0.1347705 0.1338599 0.1418623 0.1519029
 0.1575962 0.1588477 0.1590528 0.1592729 0.1570845 0.1503979 0.1409307 0.1331111 0.1296599 0.12919
 0.1285113 0.1260193 0.1218231 0.1158816 0.1079561 0.09923366 0.0923962 0.08939194 0.08963099 0.09076948
 0.09103145 0.0904725 0.09025718 0.09131019 0.09371669 0.09691083 0.1003756 0.1045517 0.1107714 0.1195734
 0.1294226 0.1381067 0.1452425 0.152355 0.1604509 0.168463 0.174351 0.1772133 0.178183 0.1795692
 0.1830696 0.1883895 0.1934168 0.1960293 0.1961278 0.1959183 0.1978621 0.2022719 0.2072168 0.2106707
 0.2121668 0.2124083 0.2121166 0.2115187 0.2103447 0.2081959 0.2055044 0.2040785 0.2058776 0.2110196
 0.2175101 0.2230468 0.2266812 0.2287565 0.2298271 0.2300161 0.2292676 0.2278746 0.2265261 0.2258272
 0.2259159 0.2265705 0.2275131 0.2285274 0.2294487 0.23019 0.2307578 0.2312116 0.231647 0.2321945
 0.2329414 0.2338412 0.234765 0.2356666 0.2366326 0.2377335 0.2388813 0.2398917 0.2406333 0.2410336
 0.2409911 0.2404134 0.2393472 0.2379598 0.236362 0.2345563 0.2326413 0.231021 0.2302886 0.2308063
 0.2323848 0.234402 0.2362342 0.2375681 0.2383894 0.23882 0.2390134 0.2391138 0.2392201 0.2393661
 0.2395388 0.2397142 0.2398789 0.2400297 0.2401707 0.2403241 0.2405378 0.2408592 0.2412936 0.2417926
 0.2422813 0.2426967 0.2430179 0.2432695 0.2434817 0.2436434 0.2437053 0.2436233 0.243388 0.2430254
 0.2425891 0.2421409 0.2417114 0.2412768 0.2407831 0.2401842 0.2394402 0.2384994 0.2373363 0.2360196
 0.2346957 0.233474 0.2323465 0.2312297 0.2300475 0.2287565 0.227336 0.225793 0.2241625 0.2224795
 0.2207576 0.2189952 0.2171916 0.2153523 0.2134856 0.2115943 0.2096687 0.2076913 0.2056493 0.203537
 0.2013352 0.1989837 0.1963798 0.1934092 0.1899846 0.1860623 0.181653 0.1768384 0.1717725 0.1666456
 0.1616363 0.1568872 0.1525039 0.1485617 0.1451145 0.1422023 0.1398555 0.1380934 0.1369192 0.1363196
 0.136276 0.1367713 0.1377717 0.1391988 0.1409306 0.1428242 0.1447322 0.1465205 0.1481093 0.1495106
 0.1508164 0.1521337 0.1535189 0.1549632 0.1564324 0.1578993 0.1593246 0.1606344 0.161749 0.1626327
 0.1632984 0.1637766 0.1640921 0.1642593 0.1642901 0.1642192 0.1641275 0.1641329 0.1643523 0.1648566
 0.1656356 0.1665975 0.1676208 0.1686127 0.1695198 0.1703021 0.1709199 0.1713437 0.1715638 0.1715946
 0.1714844 0.1713388 0.1713443 0.1717501 0.1727848 0.1745604 0.1770312 0.1800185 0.1832661 0.1865076
 0.1895298 0.1922003 0.1944595 0.196303 0.1977668 0.1989095 0.1997917 0.2004575 0.2009262 0.2012043
 0.2013061 0.2012562 0.2010801 0.2008131 0.2005138 0.2002464 0.2000528 0.1999492 0.199934 0.1999853
 0.2000658 0.200143 0.2001987 0.2002199 0.2001963 0.2001207 0.1999859 0.1997833 0.1995101 0.1991693
 0.1987635 0.1982881 0.1977242 0.1970342 0.1961761 0.1951207 0.1938465 0.1923249 0.190537 0.1885173
 0.1863888 0.1843538 0.1826296 0.1813521 0.1805096 0.179947 0.1794283 0.1787248 0.1777054 0.1763782
 0.1748445 0.173209 0.1715287 0.1698209 0.1680922 0.1663615 0.1646647 0.1630345 0.1614792 0.1599849
 0.1585333 0.1571114 0.155715 0.1543565 0.1530714 0.1519079 0.1509044 0.1500686 0.1493768 0.1487967
 0.1483051 0.1478808 0.1474975 0.1471398 0.146811 0.1465092 0.1462049 0.1458527 0.1454223 0.1449181
 0.1443782 0.1438484 0.1433538 0.1428984 0.1424809 0.1420841 0.1416444 0.1410541 0.1402067 0.1390417
 0.1375585 0.1358056 0.1338618 0.1318276 0.1298216 0.1279584 0.1263162 0.1249306 0.1238148 0.1229554
 0.1222931 0.121741 0.1212447 0.1208177 0.120512 0.1203414 0.1202257 0.1200351 0.119716 0.1193586
 0.119119 0.119089 0.1192458 0.1194914 0.1197177 0.1198581 0.1199001 0.1198541 0.1197252 0.119516
 0.1192315 0.1188752 0.1184543 0.1179847 0.1174808 0.1169533 0.1164121 0.1158514 0.115239 0.1145484
 0.1137848 0.1129649 0.1120965 0.1111772 0.1101827 0.1090804 0.1079132 0.1068522 0.1061152 0.1058324
 0.1059828 0.1064168 0.1069509 0.1074837 0.1079803 0.1083275 0.1083445 0.1080677 0.1079222 0.1084206
 0.1096634 0.1112266 0.112545 0.1133216 0.1135623 0.1133644 0.1127974 0.1119128 0.1107263 0.109208
 0.1073613 0.105264 0.103002 0.1006575 0.09836909 0.09629123 0.09450401 0.09302159 0.09182756 0.09092788
 0.09040476 0.08999759 0.08835284 0.08371096 0.07661001 0.07113536 0.0714962 0.07728031 0.08371972 0.08674641
 0.08626539 0.08448651 0.08296047 0.08197716 0.08152783 0.08176342 0.08277652 0.08440319 0.08625564 0.08792982
 0.08922167 0.09010299 0.09050862 0.09018518 0.08865471 0.08536074 0.0801308 0.07360721 0.06704211 0.06158634
 0.05780175 0.05566099 0.0547388 0.05444771 0.05434801 0.05436524 0.05471305 0.05561846 0.05712949 0.05914692
 0.06154121 0.06413743 0.06663289 0.06870876 0.07027317 0.07146886 0.07241482 0.07306094 0.07330507 0.07313074
 0.072611 0.07186381 0.07101786 0.07015994 0.06928454 0.06831906 0.06724862 0.06622785 0.06550185 0.06517515
 0.06512401 0.06516683 0.06523032 0.06531991 0.06543435 0.06556002 0.06569318 0.06585623 0.06611052 0.06650837
 0.06701152 0.06750923 0.06792077 0.06824072 0.06850417 0.06872091 0.06881174 0.06866596 0.06834316 0.0680988
 0.06805024 0.0679464 0.06748651 0.06678008 0.06627594 0.06627221 0.06665771 0.06710249 0.06735768 0.06737703
 0.06729649 0.06736593 0.06778702 0.06848264</values></Ydata></ScSm><ScRf><Ydata ylabel="Single channel"><values byteorder="INTEL" format="FLOAT32" numvalues="1820"> 0.06075499 0.06091627 0.06101601 0.06105165 0.06104534 0.06104271 0.06109546 0.06122859 0.06142001 0.06161129
 0.0617466 0.06180968 0.06181725 0.06178308 0.0617176 0.06166484 0.06169699 0.06184573 0.06205568 0.06221969
 0.06226275 0.06220794 0.06216671 0.06223015 0.06234546 0.06232735 0.06203315 0.0615269 0.06103834 0.0607509
 0.06068746 0.06084206 0.06129114 0.06198096 0.06249 0.06233061 0.06156134 0.06081167 0.06058108 0.06075992
 0.06093006 0.06085069 0.06052618 0.06010458 0.05992654 0.06044137 0.0617642 0.06330109 0.0639583 0.06283534
 0.05987308 0.05605769 0.05305116 0.0522968 0.05400341 0.05686089 0.05902342 0.059582 0.0589989 0.05816776
 0.05745074 0.05679685 0.05637026 0.05658906 0.05754695 0.0586183 0.0587813 0.05749639 0.05535176 0.05364387
 0.05319041 0.05381868 0.05506896 0.05669697 0.05795958 0.05720734 0.05350962 0.0487129 0.04661733 0.0493614
 0.05513763 0.0599587 0.06120584 0.05910126 0.05554863 0.05255093 0.05145058 0.05257557 0.0551927 0.0581142
 0.06041126 0.06145287 0.06075128 0.05838999 0.05543487 0.05341441 0.05338235 0.05550897 0.05904639 0.06239243
 0.06381555 0.06273237 0.06009768 0.05739752 0.05567217 0.05551061 0.05718932 0.06038508 0.06416243 0.06751372
 0.06976807 0.07066087 0.07039224 0.06950239 0.06846058 0.067582 0.06731181 0.06795315 0.06893192 0.06901392
 0.06765082 0.06571888 0.06461835 0.0648251 0.06551228 0.06555317 0.06465942 0.06319266 0.06104898 0.05763933
 0.05324704 0.04938739 0.04729161 0.04696862 0.0481128 0.05058696 0.05335435 0.05440968 0.05297285 0.0508956
 0.05082238 0.05336675 0.05679303 0.05913999 0.06004225 0.0605928 0.06193888 0.06410839 0.06586572 0.06564212
 0.063087 0.05994071 0.05880427 0.06058691 0.06363368 0.0657655 0.06657988 0.06720817 0.0683342 0.06913121
 0.06812663 0.06495562 0.06129184 0.0598061 0.06183761 0.06605252 0.0694119 0.06941501 0.0657813 0.0605166
 0.05635335 0.05485845 0.05601864 0.05928968 0.06419739 0.06977644 0.07431542 0.0763139 0.07557157 0.07311766
 0.07003468 0.06645323 0.06210107 0.05796023 0.05648423 0.05928368 0.06506719 0.07071316 0.07405351 0.07495876
 0.07413153 0.07177354 0.06778722 0.06307307 0.05995434 0.06037207 0.06354532 0.06641364 0.0668399 0.0655597
 0.06460665 0.06477745 0.0653332 0.06556515 0.06581057 0.06688149 0.06890421 0.07101569 0.07219838 0.07220007
 0.07157833 0.07105175 0.07084739 0.07053104 0.06962363 0.06856674 0.06867196 0.07067978 0.07373184 0.07624906
 0.07751769 0.07794975 0.07801491 0.07741913 0.07552633 0.07254447 0.070011 0.06964721 0.07168901 0.07473791
 0.07721575 0.07850377 0.07879312 0.07850355 0.07799579 0.07746024 0.07698873 0.07683167 0.07732874 0.07842335
 0.07955751 0.08023563 0.08042906 0.08031335 0.0799147 0.07920451 0.07836627 0.07778189 0.07775211 0.07827607
 0.07910825 0.07997446 0.08066414 0.08098888 0.08084964 0.08038394 0.07988839 0.07955016 0.07937653 0.07937789
 0.07963589 0.08013922 0.08069868 0.08110516 0.08129705 0.0813321 0.08126771 0.08112165 0.08091596 0.0807219
 0.08065322 0.08078671 0.08106919 0.08135246 0.08156113 0.08176395 0.08202118 0.08223762 0.08226348 0.08209834
 0.08190313 0.08182524 0.08188011 0.08199283 0.08208208 0.08207273 0.08188604 0.08150999 0.08109549 0.08089972
 0.08108015 0.08158347 0.08224076 0.08288735 0.08338444 0.08364703 0.08370903 0.08368669 0.08364321 0.08354393
 0.08335678 0.08314897 0.08306834 0.08323303 0.08362536 0.08409554 0.08448191 0.08471385 0.08481193 0.08485449
 0.08494769 0.08514082 0.08534788 0.08542745 0.08535983 0.08527864 0.08530891 0.0854267 0.08550151 0.08545236
 0.08534366 0.08532248 0.08546531 0.08570732 0.08592962 0.08608893 0.08624004 0.0864396 0.08664477 0.08672927
 0.08662187 0.08640832 0.08624726 0.08619952 0.08620761 0.08623581 0.08633751 0.0865492 0.08679108 0.08693627
 0.08695515 0.08694015 0.08698428 0.08706911 0.08709218 0.08698682 0.08679153 0.08660924 0.08652259 0.0865463
 0.08663388 0.08671395 0.08673111 0.08667216 0.08656506 0.08645159 0.08635966 0.08630754 0.0863312 0.08647453
 0.08672094 0.08694865 0.08700103 0.08682747 0.08654285 0.08632791 0.08626631 0.08628328 0.08623899 0.08606609
 0.08581079 0.08556302 0.08537532 0.08524494 0.08514358 0.08505256 0.08498821 0.08500034 0.08512115 0.08529568
 0.08538863 0.08529612 0.08504713 0.08477171 0.08458126 0.08450118 0.08449359 0.08450589 0.08451096 0.08453009
 0.08459922 0.08469515 0.08473304 0.08466429 0.08454165 0.08446674 0.08450812 0.0846733 0.08490362 0.08508223
 0.08510889 0.08499882 0.08487281 0.08483446 0.08488865 0.08498283 0.08508214 0.0851815 0.08527769 0.08536687
 0.08546598 0.08561257 0.08583111 0.08610144 0.08636282 0.08655398 0.08666231 0.08674377 0.08688714 0.08714341
 0.08748228 0.08781835 0.08808284 0.08827373 0.08843957 0.08861919 0.08881004 0.08900177 0.08921745 0.0894912
 0.08981571 0.09014456 0.09044615 0.09072787 0.09100862 0.09129351 0.09158152 0.09188569 0.0922375 0.09265801
 0.09311081 0.09350011 0.09374832 0.0938776 0.09399612 0.09420875 0.09454542 0.09494428 0.09528374 0.09547119
 0.09553885 0.09562437 0.09582278 0.09608907 0.0963262 0.09653468 0.09681492 0.09722754 0.09770273 0.0981047
 0.09836154 0.09851779 0.09867072 0.09886599 0.0990613 0.09919393 0.09926806 0.0993486 0.09947705 0.09963967
 0.09983202 0.1001021 0.1004854 0.1009291 0.1013277 0.10162 0.1018182 0.1019625 0.1020795 0.102173
 0.1022287 0.1022432 0.1022557 0.1023201 0.1024302 0.1025175 0.1025425 0.1025521 0.1026203 0.1027724
 0.1029945 0.1032755 0.1035958 0.1039044 0.1041642 0.1044159 0.1047396 0.1051329 0.1054779 0.105664
 0.1057084 0.1057111 0.1057285 0.1057543 0.1058028 0.1059339 0.1061815 0.1065092 0.1068573 0.1072006
 0.1075453 0.1078908 0.1082069 0.1084401 0.1085484 0.1085419 0.1084918 0.1084943 0.1086186 0.1088728
 0.1092043 0.1095364 0.1098154 0.1100179 0.1101243 0.1101205 0.110049 0.1100201 0.1101234 0.1103247
 0.1104828 0.1104705 0.110256 0.1098709 0.109345 0.1087012 0.107995 0.107322 0.1067729 0.1063901
 0.1061773 0.1061462 0.1063373 0.106774 0.1074022 0.1081013 0.108756 0.1092883 0.1096186 0.1096491
 0.1093317 0.108732 0.1079937 0.1072494 0.1065723 0.1059735 0.1054135 0.1048491 0.1043185 0.1039756
 0.1040154 0.1045594 0.1055986 0.1070011 0.1085495 0.110009 0.1112251 0.1121833 0.1129731 0.1136904
 0.1143795 0.1150534 0.1157296 0.1164114 0.1170583 0.1176172 0.1180849 0.1185068 0.1189164 0.1193049
 0.119647 0.1199295 0.12016 0.1203655 0.120568 0.1207438 0.1208332 0.1208093 0.1207138 0.1206052
 0.1204928 0.1203358 0.1200863 0.1197236 0.1192819 0.1188746 0.1186839 0.1188859 0.1195505 0.1205973
 0.1218586 0.1231856 0.1244844 0.1256656 0.1266212 0.1272878 0.1277082 0.1279961 0.1282541 0.1285336
 0.1288451 0.1291743 0.1294944 0.1297862 0.130053 0.130319 0.130614 0.1309496 0.131301 0.13162
 0.131882 0.1321173 0.1323894 0.132734 0.1331223 0.1334892 0.1338041 0.1340988 0.1344126 0.1347276
 0.1349894 0.135183 0.1353559 0.135568 0.135848 0.1361903 0.1365588 0.136894 0.1371495 0.1373332
 0.1374978 0.1376873 0.1379082 0.1381456 0.1383873 0.1386274 0.1388659 0.139116 0.139401 0.1397251
 0.1400473 0.1403042 0.1404716 0.1405949 0.1407468 0.1409591 0.1412026 0.1414291 0.1416243 0.1418228
 0.1420709 0.142374 0.1426819 0.1429306 0.1430984 0.1432175 0.1433388 0.1434956 0.1436931 0.1439175
 0.1441468 0.1443608 0.1445538 0.1447392 0.1449356 0.1451497 0.1453723 0.1455916 0.1458033 0.1460101
 0.1462154 0.1464206 0.1466299 0.1468584 0.1471255 0.1474297 0.1477333 0.1479876 0.1481735 0.1483108
 0.1484325 0.1485628 0.1487145 0.1488916 0.1490881 0.1492907 0.1494887 0.1496811 0.1498748 0.1500757
 0.1502833 0.1504936 0.150705 0.1509182 0.1511356 0.1513624 0.1516021 0.1518456 0.1520729 0.1522713
 0.1524479 0.1526225 0.1528095 0.1530076 0.1532029 0.1533844 0.1535573 0.1537355 0.1539236 0.1541159
 0.1543096 0.154509 0.1547139 0.1549156 0.1551075 0.1552937 0.1554832 0.1556799 0.1558815 0.1560854
 0.156291 0.1564941 0.1566869 0.1568677 0.1570473 0.1572396 0.1574482 0.1576654 0.1578817 0.1580924
 0.1582963 0.1584926 0.1586826 0.1588725 0.1590681 0.1592682 0.1594672 0.1596645 0.159865 0.1600696
 0.1602745 0.1604761 0.1606738 0.1608691 0.1610695 0.1612835 0.1615084 0.1617306 0.1619432 0.1621524
 0.1623651 0.1625794 0.1627908 0.1630014 0.1632178 0.1634435 0.1636725 0.1638931 0.1640988 0.1642917
 0.164476 0.164653 0.1648242 0.1649929 0.1651621 0.1653345 0.1655124 0.1656959 0.1658847 0.1660791
 0.1662746 0.1664632 0.1666454 0.1668336 0.1670372 0.1672517 0.1674661 0.1676736 0.1678746 0.1680751
 0.1682791 0.1684822 0.1686776 0.1688683 0.169066 0.1692786 0.1695052 0.1697364 0.1699582 0.1701621
 0.1703555 0.1705535 0.1707638 0.1709816 0.1711952 0.171396 0.1715891 0.1717881 0.1719972 0.172208
 0.1724159 0.1726251 0.1728376 0.1730518 0.1732678 0.1734832 0.1736927 0.1738986 0.1741081 0.1743211
 0.1745351 0.1747549 0.1749834 0.1752126 0.1754335 0.1756421 0.1758372 0.1760268 0.176229 0.1764515
 0.1766841 0.1769163 0.1771428 0.1773463 0.177481 0.1774287 0.1769029 0.1753492 0.1719346 0.1657108
 0.155995 0.1428086 0.1270238 0.1100516 0.0933197 0.07790434 0.06443632 0.05319306 0.04423569 0.03749249
 0.03281532 0.03007505 0.02925878 0.03057359 0.03456639 0.04180298 0.05163577 0.06111111 0.06612149 0.06465261
 0.05870879 0.05248164 0.04886369 0.04805276 0.04880857 0.05007715 0.05152749 0.05335429 0.05588984 0.0592285
 0.06321003 0.06782539 0.07341471 0.0802309 0.08791771 0.09565876 0.1028813 0.1097078 0.1166792 0.1241046
 0.1317322 0.1389937 0.1454547 0.1510321 0.1559073 0.1603301 0.1644756 0.1684172 0.1721773 0.1757415
 0.1789876 0.1816451 0.1834188 0.1842155 0.1842586 0.1839633 0.1836881 0.1835937 0.1836936 0.1839646
 0.1843876 0.1849387 0.1855928 0.1863309 0.1871297 0.1879579 0.188786 0.1895921 0.1903605 0.1910832
 0.1917559 0.192373 0.1929347 0.193452 0.1939328 0.1943735 0.1947735 0.1951455 0.1955029 0.1958495
 0.1961849 0.196508 0.1968137 0.1970958 0.1973511 0.1975807 0.1977903 0.1979912 0.1981936 0.198401
 0.1986144 0.1988345 0.1990565 0.199272 0.1994773 0.199676 0.1998725 0.2000711 0.2002766 0.2004886
 0.2007006 0.2009053 0.2011001 0.2012847 0.2014613 0.2016371 0.2018204 0.2020134 0.2022113 0.2024049
 0.2025863 0.2027561 0.2029247 0.2031025 0.2032937 0.2035 0.2037229 0.2039578 0.2041946 0.2044256
 0.2046483 0.2048625 0.2050707 0.2052762 0.2054766 0.2056634 0.2058332 0.2059961 0.2061721 0.2063757
 0.2066001 0.2068208 0.207021 0.2072073 0.2073945 0.2075852 0.207771 0.2079444 0.2081074 0.2082805
 0.2084934 0.2087509 0.2090244 0.2092885 0.209544 0.2097955 0.2100391 0.2102778 0.2105147 0.210727
 0.2108826 0.2109953 0.2111381 0.2113851 0.2117387 0.2121186 0.2124345 0.212668 0.212871 0.2131019
 0.2133835 0.2136846 0.2139066 0.2139488 0.2138543 0.213837 0.2140897 0.2145946 0.2151717 0.2156653
 0.2160394 0.2163368 0.2166 0.216824 0.2169606 0.2169763 0.2169279 0.2169715 0.217251 0.2177506
 0.2182963 0.2187283 0.2190259 0.2192475 0.2194368 0.2196128 0.2197355 0.219659 0.2192807 0.2188062
 0.218697 0.2192234 0.2201601 0.2210298 0.2215793 0.2219072 0.222191 0.2224688 0.2226942 0.2227761
 0.2224732 0.2215333 0.2201871 0.2192837 0.2195901 0.2210197 0.2227745 0.2241399 0.2249345 0.2253361
 0.2255755 0.2257824 0.2258869 0.2256234 0.2248287 0.2238363 0.2233927 0.2239682 0.2252283 0.2263928
 0.2270335 0.227301 0.2275082 0.2277793 0.2279696 0.2276209 0.2262163 0.2239358 0.2220498 0.2220282
 0.224104 0.2269976 0.2291879 0.2302223 0.2306084 0.2307003 0.2301768 0.2286277 0.226176 0.2234226
 0.2212564 0.2207364 0.2223929 0.2253439 0.2277965 0.228819 0.2291272 0.2298974 0.2313589 0.2328092
 0.2335248 0.2333179 0.2324122 0.2310435 0.2293469 0.227732 0.2271096 0.2282448 0.2308254 0.2335737
 0.235427 0.2363444 0.2367536 0.2363077 0.2336299 0.2279716 0.2212914 0.2177172 0.2199001 0.2262398
 0.2326033 0.2363918 0.2379692 0.2387173 0.2391797 0.2389136 0.2367558 0.231459 0.2236592 0.2171175
 0.2161809 0.2214784 0.2292023 0.2346616 0.2354811 0.2318477 0.2256606 0.2199671 0.217722 0.2199983
 0.2255162 0.2319055 0.2371301 0.2400475 0.2403929 0.2386692 0.2361192 0.2344235 0.2344786 0.2350713
 0.2338064 0.2301296 0.226244 0.2238723 0.2215922 0.2174697 0.2133171 0.2134951 0.2192452 0.2266032
 0.2308504 0.2312974 0.2304254 0.229378 0.2260094 0.2179706 0.2071451 0.199744 0.2008756 0.2092434
 0.2183054 0.2226854 0.2224461 0.2211703 0.2211769 0.2211535 0.2180011 0.2108839 0.2032939 0.2001233
 0.2024587 0.2066072 0.2084651 0.2067874 0.201753 0.1936525 0.1852446 0.1826017 0.1899924 0.2046604
 0.2189813 0.2267358 0.2253801 0.2146878 0.1976507 0.1823219 0.1778959 0.1864674 0.2004813 0.209679
 0.2092381 0.2006363 0.1872747 0.1721581 0.1592891 0.1541041 0.1602255 0.1757847 0.1934287 0.2039554
 0.2014021 0.1877112 0.1731893 0.1690975 0.1773689 0.1892379 0.1950406 0.1929852 0.1877924 0.1846417
 0.1861864 0.1920502 0.199224 0.2049058 0.2087373 0.2096047 0.2026182 0.1849817 0.1637589 0.1512173
 0.1520928 0.1611673 0.1730665 0.1870866 0.2008078 0.2067899 0.20096 0.1903276 0.1870108 0.1953708
 0.2082855 0.2158627 0.2152288 0.2110511 0.2083428 0.2071323 0.2049481 0.202585 0.2043178 0.2119975
 0.2218143 0.2285497 0.2310064 0.2315376 0.2320564 0.232581 0.2325848 0.2318766 0.2305244 0.2289818
 0.2279488 0.2275857 0.2273646 0.2268711 0.225777 0.2226178 0.2151145 0.2033799 0.1919477 0.1861739
 0.1865547 0.1891146 0.1913182 0.1935409 0.1935445 0.184927 0.1655731 0.1445913 0.1356838 0.1439063
 0.1619029 0.178299 0.1864169 0.1848535 0.1740881 0.1566921 0.1400394 0.1339848 0.142824 0.1611757
 0.1797346 0.1932846 0.2012754 0.2033751 0.1984971 0.1879679 0.1767873 0.170763 0.1729765 0.1824372
 0.194415 0.2016504 0.1979045 0.1841655 0.1713854 0.1723954 0.1884411 0.207102 0.2162523 0.216336
 0.2154364 0.2167123 0.216837 0.2148294 0.2155925 0.2232034 0.2349267 0.2439071 0.2451833 0.2376573
 0.2234756 0.2085176 0.2008485 0.2042197 0.2137444 0.2211539 0.2227616 0.2189856 0.2094914 0.1952309
 0.1835829 0.1839184 0.1967554 0.2125375 0.2224846 0.226587 0.2296313 0.2329582 0.2328374 0.2261278
 0.2155312 0.2079288 0.2075772 0.212391 0.2174857 0.2203319 0.2207754 0.218112 0.211526 0.2034273
 0.1994897 0.2037218 0.214299 0.2252409 0.2317378 0.2331569 0.2316582 0.2293762 0.2269807 0.2238403
 0.2194409 0.2152379 0.2143803 0.2183554 0.2246272 0.2292423 0.231355 0.2335167 0.2376617 0.2424426
 0.2448729 0.2435919 0.2401582 0.2376813 0.2383235 0.2415912 0.244708 0.2449766 0.2423375 0.2396693
 0.240147 0.2442149 0.2495078 0.2535447 0.2557564 0.256985 0.2580296 0.2589399 0.2589759 0.2571698
 0.2536951 0.2506599 0.2506133 0.2540213 0.2588283 0.2625863 0.2644334 0.2649519 0.2648218 0.264111
 0.2626787 0.2608187 0.2592655 0.2586148 0.258901 0.259749 0.2607591 0.2616752 0.2623691 0.2628289
 0.2631219 0.2633036 0.2633981 0.2634559 0.2635291 0.2635791 0.263517 0.2633756 0.26334 0.2635395
 0.263878 0.2641353 0.2641689 0.2639356 0.2633793 0.2624375 0.2611643 0.2597214 0.258197 0.2565411
 0.2547989 0.2533736 0.2529076 0.253797 0.2558215 0.2582811 0.2604792 0.2620702 0.263047 0.2635532
 0.2637576 0.2638119 0.2638147 0.2637814 0.263673 0.2634603 0.2631567 0.2627983 0.2624129 0.2620192
 0.2616435 0.2613155 0.2610387 0.2607759 0.2604684 0.2600743 0.2595932 0.259062 0.2585204 0.2579669
 0.2573485 0.2566021 0.2557127 0.2547347 0.2537635 0.2528774 0.2520887 0.2513448 0.2505805 0.249764
 0.2488772 0.2478807 0.2467496 0.2455551 0.2444569 0.2435772 0.2428971 0.2422936 0.2416474 0.2408971
 0.2400286 0.2390654 0.238056 0.2370324 0.2359801 0.2348648 0.2336736 0.2324115 0.2310768 0.22966
 0.2281568 0.2265723 0.2249278 0.2232601 0.2215859 0.2198509 0.2179226 0.2156398 0.2128671 0.2095225
 0.2055899 0.2011349 0.1963102 0.1913272 0.1863983 0.181693 0.1773405 0.1734509 0.1701152 0.167393
 0.1653156 0.1639039 0.1631785 0.1631531 0.1638216 0.1651469 0.1670609 0.1694694 0.1722491 0.1752389
 0.17825 0.1811076 0.1837112 0.1860719 0.1882783 0.1903982 0.1924125 0.1942544 0.1958914 0.1973378
 0.1986028 0.199668 0.2005222 0.2011925 0.2017333 0.2021936 0.2026001 0.2029635 0.2032878 0.2035687
 0.2037948 0.203967 0.2041124 0.20427 0.2044643 0.2046973 0.2049618 0.2052616 0.2056194 0.2060615
 0.2065897 0.2071745 0.20778 0.2083859 0.2089897 0.2096061 0.2102716 0.2110412 0.2119673 0.2130756
 0.214351 0.2157395 0.2171605 0.218524 0.2197462 0.2207651 0.2215475 0.2220813 0.2223699 0.2224391
 0.2223372 0.2221144 0.2218025 0.2214136 0.2209522 0.2204231 0.2198369 0.2192105 0.2185609 0.2178962
 0.2172161 0.216522 0.2158236 0.2151316 0.2144469 0.2137659 0.2131002 0.2124734 0.2118905 0.2113233
 0.2107395 0.210138 0.2095462 0.2089877 0.2084573 0.2079147 0.2072995 0.2065635 0.2057015 0.2047452
 0.2037248 0.2026388 0.201464 0.2001878 0.1988221 0.197385 0.1958797 0.1942994 0.1926479 0.1909353
 0.1891488 0.1872526 0.1852424 0.1831901 0.1812086 0.179371 0.1776802 0.1761039 0.1746156 0.1732048
 0.1718699 0.1706046 0.1693915 0.1682158 0.1670827 0.1660073 0.1649925 0.1640307 0.1631248 0.1622961
 0.1615708 0.1609551 0.1604251 0.1599489 0.1595191 0.1591553 0.1588832 0.1587227 0.1586802 0.1587283
 0.1588006 0.1588277 0.1587755 0.1586543 0.158507 0.1583821 0.1583013 0.1582523 0.1582077 0.1581321
 0.1579702 0.157648 0.1570907 0.1562379 0.155058 0.1535616 0.1518063 0.1499046 0.1480219 0.1463218
 0.1448916 0.1437418 0.1428598 0.1422156 0.1417376 0.1413467 0.1410242 0.1408212 0.1408033 0.1409725
 0.1412193 0.1413861 0.1414217 0.1414436 0.1416212 0.1420381 0.142669 0.1434212 0.1441793 0.1448562
 0.1454125 0.1458263 0.1460866 0.146217 0.1462523 0.146198 0.1460497 0.1458241 0.1455423 0.1452177
 0.144866 0.1444853 0.1440396 0.1434968 0.1428522 0.1421024 0.1412499 0.1403185 0.139305 0.138169
 0.1369561 0.1358738 0.1351777 0.1350205 0.1354028 0.1361855 0.1371658 0.1382054 0.1392213 0.140029
 0.1403903 0.1403791 0.1405651 0.1416134 0.1436573 0.1461453 0.1483208 0.149767 0.1504707 0.1505426
 0.1500703 0.1491342 0.1477514 0.145847 0.1434093 0.1405746 0.137498 0.1343159 0.1312484 0.1285325
 0.1262622 0.1244206 0.1229805 0.1219857 0.1215852 0.1214139 0.1195564 0.1135588 0.1042204 0.09726033
 0.09848476 0.107248 0.1169231 0.1219007 0.1220392 0.1203327 0.1188438 0.1178878 0.1173694 0.1174343
 0.1181877 0.1194533 0.1208369 0.1219617 0.1226844 0.1230487 0.1230089 0.1221934 0.1198455 0.1150983
 0.107678 0.09848629 0.08927998 0.08165315 0.07632779 0.07317747 0.07158038 0.07077903 0.07025002 0.06995159
 0.07020622 0.07130878 0.07327171 0.07592089 0.07908116 0.08252881 0.08586302 0.08866344 0.09081394 0.09251084
 0.09392302 0.09498388 0.09554024 0.09557065 0.09520213 0.09459665 0.09387605 0.09310019 0.09224106 0.0912028
 0.08997029 0.08875211 0.08786577 0.08744349 0.08734208 0.0873495 0.08736317 0.08736194 0.08733334 0.08726998
 0.08718467 0.0871325 0.0872215 0.08753143 0.08800152 0.08845763 0.08875839 0.08888917 0.08893134 0.08892916
 0.08876026 0.08824085 0.08744612 0.08674428 0.08631632 0.08582385 0.08483773 0.08349006 0.08241047 0.08204171
 0.08224527 0.08256806 0.08268009 0.08252227 0.08224835 0.08214821 0.08246653 0.08311231 0.08363053 0.08362526
</values></Ydata></ScRf><Data_Parameters_AB><parameter name="DPF">1</parameter><parameter name="NPT">3497</parameter><parameter name="FXV">3996</parameter><parameter name="LXV">500</parameter><parameter name="CSF">1</parameter><parameter name="MXY">0.655305325984955</parameter><parameter name="MNY">-0.0789891928434372</parameter><parameter name="DAT">31/05/2022</parameter><parameter name="TIM">13:46:31.088 (GMT+2)</parameter><parameter name="DXU">WN</parameter></Data_Parameters_AB><AB__Qtest><MainReport name="Quality Test Report"><Header><Line><Legend>Test result ok/not ok [1/0]: </Legend><Value>0</Value></Line><Line><Legend>Method file: </Legend><Value>C:\Users\Public\Documents\Bruker\OPUS_8.2.28\QT\IRBT_v3_default.QT</Value></Line></Header><Matrix><Line><Legend></Legend><Legend>min</Legend><Legend>max</Legend><Legend>measured</Legend></Line><Line><Value>Absorption (X-Range 1):</Value><Value>0.400000</Value><Value>2.000000</Value><Value>0.398683</Value></Line><Line><Value>Noise (X-Range 4):</Value><Value></Value><Value>0.000300</Value><Value>0.000087</Value></Line><Line><Value>Signal/Noise (X-Range 2):</Value><Value>200.000000</Value><Value></Value><Value>101.592694</Value></Line><Line><Value>Signal/Noise (X-Range 3):</Value><Value>40.000000</Value><Value></Value><Value>41.393741</Value></Line><Line><Value>Water vapour (X-Range 5):</Value><Value></Value><Value>0.000300</Value><Value>0.000103</Value></Line><Line><Value>Signal/Water (X-Range 2):</Value><Value>100.000000</Value><Value></Value><Value>85.317504</Value></Line><Line><Value>Signal/Water (X-Range 3):</Value><Value>20.000000</Value><Value></Value><Value>34.762448</Value></Line><Line><Value>Fringes (X-Range 6):</Value><Value></Value><Value>0.000100</Value><Value>0.000046</Value></Line></Matrix></MainReport></AB__Qtest><Data_Parameters_ScSm><parameter name="DPF">1</parameter><parameter name="NPT">1814</parameter><parameter name="FXV">3996.33169228125</parameter><parameter name="LXV">499.541461535156</parameter><parameter name="CSF">1</parameter><parameter name="MXY">0.267927050590515</parameter><parameter name="MNY">0.0285851452499628</parameter><parameter name="DAT">31/05/2022</parameter><parameter name="TIM">13:46:31.088 (GMT+2)</parameter><parameter name="DXU">WN</parameter></Data_Parameters_ScSm><Data_Parameters_ScRf><parameter name="DPF">1</parameter><parameter name="NPT">1820</parameter><parameter name="FXV">4004.04661832813</parameter><parameter name="LXV">495.683998511719</parameter><parameter name="CSF">1</parameter><parameter name="MXY">0.264951944351196</parameter><parameter name="MNY">0.0292587764561176</parameter><parameter name="DAT">31/05/2022</parameter><parameter name="TIM">13:46:05.236 (GMT+2)</parameter><parameter name="DXU">WN</parameter></Data_Parameters_ScRf><Optic_Parameters_Rf><parameter name="APR">0</parameter><parameter name="APT">Open</parameter><parameter name="BMS">KBr</parameter><parameter name="DTC">RT-DLaTGS_IR-Biotyper [Microplate reader]</parameter><parameter name="HPF">0</parameter><parameter name="LPF">10.0</parameter><parameter name="LPV">4000</parameter><parameter name="PGR">0</parameter><parameter name="RCH">Module port</parameter><parameter name="RDX">0</parameter><parameter name="SRC">MIR</parameter><parameter name="VEL">10.0</parameter><parameter name="SON">Off</parameter></Optic_Parameters_Rf><Acquisition_Parameters_Rf><parameter name="ADT">1</parameter><parameter name="AQM">DD</parameter><parameter name="CFE">0</parameter><parameter name="COR">0</parameter><parameter name="DEL">0</parameter><parameter name="DLY">0</parameter><parameter name="HFW">8000</parameter><parameter name="LFW">0</parameter><parameter name="NSR">32</parameter><parameter name="PLF">AB</parameter><parameter name="RES">6</parameter><parameter name="RGN">-1</parameter><parameter name="STR">0</parameter><parameter name="TCL">MakeCompatibleScalar (0, {WSV=1.000000, ARV=0});</parameter><parameter name="TDL">37</parameter><parameter name="RPO">0</parameter></Acquisition_Parameters_Rf><FT_-_Parameters_Rf><parameter name="APF">B3</parameter><parameter name="HFQ">500</parameter><parameter name="LFQ">4000</parameter><parameter name="NLI">0</parameter><parameter name="PHR">24</parameter><parameter name="PHZ">ML</parameter><parameter name="SPZ">NO</parameter><parameter name="ZFF">1</parameter></FT_-_Parameters_Rf><Optic_Parameters_><parameter name="APR">0</parameter><parameter name="APT">Open</parameter><parameter name="BMS">KBr</parameter><parameter name="CHN">Module port</parameter><parameter name="DTC">RT-DLaTGS_IR-Biotyper [Microplate reader]</parameter><parameter name="HPF">0</parameter><parameter name="LPF">10.0</parameter><parameter name="LPV">4000</parameter><parameter name="PGN">0</parameter><parameter name="RDX">0</parameter><parameter name="SRC">MIR</parameter><parameter name="VEL">10.0</parameter><parameter name="SON">Off</parameter></Optic_Parameters_><FT_-_Parameters_><parameter name="APF">B3</parameter><parameter name="HFQ">500</parameter><parameter name="LFQ">4000</parameter><parameter name="NLI">0</parameter><parameter name="PHR">24</parameter><parameter name="PHZ">ML</parameter><parameter name="SPZ">NO</parameter><parameter name="ZFF">1</parameter></FT_-_Parameters_><Acquisition_Parameters_><parameter name="ADT">1</parameter><parameter name="AQM">DD</parameter><parameter name="CFE">0</parameter><parameter name="COR">0</parameter><parameter name="DEL">0</parameter><parameter name="DLY">0</parameter><parameter name="HFW">8000</parameter><parameter name="LFW">0</parameter><parameter name="NSS">32</parameter><parameter name="PLF">AB</parameter><parameter name="RES">6</parameter><parameter name="SOT">0</parameter><parameter name="TCL">MakeCompatibleScalar (0, {WSV=1.000000, ARV=0});</parameter><parameter name="TDL">37</parameter><parameter name="SPO">0</parameter><parameter name="SGN">-1</parameter></Acquisition_Parameters_><Instrument_Parameters_Rf><parameter name="HFL">15800.168544</parameter><parameter name="LFL">0</parameter><parameter name="LWN">15800.168544</parameter><parameter name="ABP">32197</parameter><parameter name="SSP">1</parameter><parameter name="ARG">2</parameter><parameter name="ASG">2</parameter><parameter name="ASS">32</parameter><parameter name="GFW">16</parameter><parameter name="GBW">16</parameter><parameter name="BFW">0</parameter><parameter name="BBW">0</parameter><parameter name="PKA">7258</parameter><parameter name="PKL">4996</parameter><parameter name="PRA">7442</parameter><parameter name="PRL">5001</parameter><parameter name="P2A">1</parameter><parameter name="P2L">1</parameter><parameter name="P2R">1</parameter><parameter name="P2K">1</parameter><parameter name="DAQ">0</parameter><parameter name="AG2">1</parameter><parameter name="SSM">1</parameter><parameter name="RSN">25707</parameter><parameter name="CRR">0</parameter><parameter name="SRT">1654004765.236</parameter><parameter name="DUR">19.6379852294922</parameter><parameter name="TSC">29</parameter><parameter name="MVD">0.219873860478401</parameter><parameter name="AN1">0.225810706212336</parameter><parameter name="AN2">0</parameter><parameter name="VSN">2.485 Apr  4 2017</parameter><parameter name="SRN">0085</parameter><parameter name="CAM">0</parameter><parameter name="INS">IR-Biotyper</parameter><parameter name="FOC">69</parameter><parameter name="RDY">1</parameter><parameter name="ARS">32</parameter></Instrument_Parameters_Rf><Sample_Parameters_><parameter name="BLD"></parameter><parameter name="CNM">Admin</parameter><parameter name="CPY"></parameter><parameter name="DPM"></parameter><parameter name="EXP">IRBT_v3_32Scans.XPM</parameter><parameter name="LCT"></parameter><parameter name="SFM">Microplate, HTS-XT</parameter><parameter name="SNM">220531-1301_AJL34M (D_1)_A5_7b0352fb-0f8d-407e-bb5f-ba374ae0494c.0</parameter><parameter name="XPP">C:\Users\Public\Documents\Bruker\OPUS_8.2.28\XPM</parameter><parameter name="IST">OK</parameter><parameter name="CPG">1252</parameter><parameter name="UID">0631e5a7-3d25-449c-ba27-567a1680ac39</parameter></Sample_Parameters_><Instrument_Parameters_><parameter name="HFL">15800.168544</parameter><parameter name="LFL">0</parameter><parameter name="LWN">15800.168544</parameter><parameter name="ABP">32197</parameter><parameter name="SSP">1</parameter><parameter name="ASG">2</parameter><parameter name="ARG">2</parameter><parameter name="ASS">32</parameter><parameter name="GFW">16</parameter><parameter name="GBW">16</parameter><parameter name="BFW">0</parameter><parameter name="BBW">0</parameter><parameter name="PKA">6591</parameter><parameter name="PKL">4988</parameter><parameter name="PRA">6835</parameter><parameter name="PRL">4993</parameter><parameter name="P2A">1</parameter><parameter name="P2L">1</parameter><parameter name="P2R">1</parameter><parameter name="P2K">1</parameter><parameter name="DAQ">0</parameter><parameter name="AG2">1</parameter><parameter name="SSM">1</parameter><parameter name="RSN">13479</parameter><parameter name="CRR">0</parameter><parameter name="SRT">1654004791.088</parameter><parameter name="DUR">19.6379852294922</parameter><parameter name="TSC">29</parameter><parameter name="MVD">0.254193484783173</parameter><parameter name="AN1">0.225818765827791</parameter><parameter name="AN2">0</parameter><parameter name="VSN">2.485 Apr  4 2017</parameter><parameter name="SRN">0085</parameter><parameter name="CAM">0</parameter><parameter name="INS">IR-Biotyper</parameter><parameter name="FOC">69</parameter><parameter name="RDY">1</parameter></Instrument_Parameters_><History/></OPUSDataFile>
