<?xml version="1.0" encoding="UTF-8" ?>
<OPUSDataFile><AB><Ydata ylabel="Absorbance Units"><values byteorder="INTEL" format="FLOAT32" numvalues="3497"> -0.07158026 -0.07156974 -0.07155651 -0.07154039 -0.07152425 -0.07150824 -0.07149228 -0.07147684 -0.07146781 -0.07146586
 -0.07147902 -0.07150555 -0.07154432 -0.07159191 -0.07163896 -0.07168566 -0.07172741 -0.0717677 -0.0718102 -0.07185285
 -0.07189768 -0.07193414 -0.07195691 -0.07195981 -0.07193656 -0.07189768 -0.07184283 -0.07179093 -0.07174531 -0.07171525
 -0.07170255 -0.07170329 -0.07171737 -0.07173997 -0.07177121 -0.07181201 -0.07186213 -0.07192153 -0.071988 -0.07205366
 -0.07211652 -0.07216671 -0.07220697 -0.0722364 -0.07226056 -0.07228637 -0.07231455 -0.07234996 -0.07238513 -0.07241818
 -0.07244024 -0.07244714 -0.07243593 -0.07240402 -0.07235686 -0.07229374 -0.07222855 -0.07216201 -0.07211203 -0.07207966
 -0.07207631 -0.07210144 -0.07215093 -0.07222249 -0.07230031 -0.07238265 -0.07245473 -0.07251666 -0.07256071 -0.07258942
 -0.07260203 -0.07260506 -0.07260498 -0.07260852 -0.07262525 -0.07265126 -0.07268979 -0.07272571 -0.07275366 -0.07276522
 -0.07275458 -0.07273318 -0.07270023 -0.0726793 -0.07267229 -0.07270031 -0.07276469 -0.07287189 -0.07302017 -0.07318884
 -0.07337148 -0.07351761 -0.07362403 -0.07364612 -0.07359838 -0.07349022 -0.07334364 -0.07320212 -0.07307164 -0.07297784
 -0.07291429 -0.07288479 -0.07287999 -0.0728973 -0.07292426 -0.07295613 -0.07298299 -0.07299982 -0.07301074 -0.07301434
 -0.07302611 -0.07304784 -0.07308546 -0.07313953 -0.07319661 -0.07325623 -0.07330737 -0.07335252 -0.07340254 -0.07345933
 -0.07353891 -0.0736343 -0.07373932 -0.07384004 -0.07390729 -0.07394051 -0.07392191 -0.0738726 -0.07380415 -0.07373172
 -0.07366889 -0.07361524 -0.07357065 -0.07354549 -0.07353888 -0.07357837 -0.07366961 -0.07382421 -0.07404813 -0.07429294
 -0.07455681 -0.0747105 -0.0747517 -0.07461379 -0.07431971 -0.07398851 -0.07363313 -0.07336806 -0.07318258 -0.07310741
 -0.07312808 -0.07323995 -0.07341518 -0.07362595 -0.07383165 -0.07398612 -0.0740786 -0.07407802 -0.07403347 -0.07395437
 -0.07389031 -0.07386256 -0.07386286 -0.07389542 -0.07392836 -0.07395747 -0.07397863 -0.07399116 -0.07401593 -0.07405329
 -0.07411332 -0.07419205 -0.07426959 -0.07434025 -0.0743698 -0.07436007 -0.07429487 -0.07418734 -0.07405097 -0.07390144
 -0.07376289 -0.07364441 -0.07356202 -0.07351694 -0.07351473 -0.07355192 -0.07362936 -0.07373967 -0.07388347 -0.0740428
 -0.07421748 -0.07437453 -0.07451125 -0.07459392 -0.07462009 -0.07458492 -0.07449026 -0.07436614 -0.07421515 -0.07406898
 -0.07392717 -0.07380372 -0.07369896 -0.07362061 -0.07356942 -0.0735527 -0.07356361 -0.07359984 -0.07364629 -0.07368968
 -0.07371987 -0.07372516 -0.07370967 -0.07367058 -0.07362078 -0.07356177 -0.07351006 -0.0734679 -0.07345244 -0.07346642
 -0.07351324 -0.07359359 -0.07368652 -0.07379016 -0.07387066 -0.07392827 -0.07394536 -0.07392892 -0.07389608 -0.07385478
 -0.07383607 -0.07383855 -0.07387643 -0.07393876 -0.07401821 -0.07410444 -0.07418245 -0.07425918 -0.07433034 -0.07441898
 -0.07453544 -0.0746865 -0.07488297 -0.07508831 -0.07530113 -0.07546801 -0.07558165 -0.07562459 -0.07559507 -0.07549742
 -0.07533261 -0.07511364 -0.07484706 -0.07458411 -0.07433185 -0.07414936 -0.07403079 -0.07399538 -0.07402373 -0.07409332
 -0.07418066 -0.07424288 -0.07428098 -0.07427473 -0.07425261 -0.0742263 -0.07421538 -0.07423408 -0.07427683 -0.07434935
 -0.07442006 -0.07448628 -0.07450906 -0.07448177 -0.07440291 -0.07427113 -0.07413384 -0.07399388 -0.07390481 -0.07386502
 -0.07389274 -0.07397681 -0.07408542 -0.0742024 -0.07426314 -0.07427371 -0.07420716 -0.07409665 -0.07397652 -0.07386137
 -0.07378241 -0.07372159 -0.07367945 -0.07362957 -0.073558 -0.07346169 -0.07333238 -0.07319716 -0.07305908 -0.07294333
 -0.07285504 -0.07278696 -0.07273955 -0.07267479 -0.07259148 -0.07246467 -0.07230087 -0.0721361 -0.07197691 -0.07187347
 -0.07181792 -0.07181475 -0.07185446 -0.07192174 -0.07201108 -0.0721135 -0.07221393 -0.07230093 -0.07234917 -0.07233684
 -0.07226159 -0.07211171 -0.07191513 -0.07167909 -0.07141495 -0.07112709 -0.07081114 -0.07046555 -0.0701042 -0.06972756
 -0.06936048 -0.06900408 -0.06867727 -0.06838115 -0.06813314 -0.06793311 -0.0677927 -0.06770519 -0.06766031 -0.06764811
 -0.06764483 -0.06764644 -0.06764138 -0.06761926 -0.06757419 -0.06747601 -0.06729965 -0.06704481 -0.06669187 -0.0663055
 -0.0659004 -0.06552241 -0.06518736 -0.06488489 -0.0646171 -0.06435437 -0.06409457 -0.06382517 -0.06354689 -0.06327858
 -0.06302222 -0.06280544 -0.06262165 -0.06246334 -0.06231129 -0.06210527 -0.06184173 -0.06147184 -0.06103848 -0.06057703
 -0.06012365 -0.0597321 -0.05939155 -0.05911489 -0.05887091 -0.05865042 -0.05842664 -0.05818832 -0.05792975 -0.05764649
 -0.05734962 -0.05704045 -0.05672218 -0.05639553 -0.05604607 -0.05567327 -0.05526638 -0.054828 -0.05437354 -0.05390597
 -0.05344757 -0.0529964 -0.05255794 -0.05213046 -0.05171173 -0.05130486 -0.0509133 -0.05053876 -0.05018523 -0.04984931
 -0.0495312 -0.04922367 -0.04892705 -0.04862227 -0.04830712 -0.04795124 -0.0475457 -0.04708867 -0.04657383 -0.04605999
 -0.04555041 -0.045105 -0.04472435 -0.04440394 -0.04413823 -0.04388177 -0.04363113 -0.04334583 -0.04303005 -0.04267162
 -0.04228305 -0.04188132 -0.04147882 -0.04110216 -0.0407483 -0.04043024 -0.04012115 -0.03981088 -0.03946838 -0.03907184
 -0.03862825 -0.03812888 -0.03761729 -0.03709999 -0.03661193 -0.03615979 -0.03574695 -0.03537485 -0.03502102 -0.0346841
 -0.03433648 -0.03397785 -0.03359364 -0.0331846 -0.03274607 -0.03227906 -0.03178126 -0.03125986 -0.03072402 -0.03018899
 -0.02968056 -0.029204 -0.02877931 -0.02838688 -0.02802213 -0.02766119 -0.02728818 -0.02690676 -0.02651046 -0.02612855
 -0.02576665 -0.0254405 -0.02515611 -0.02488618 -0.02463002 -0.02433872 -0.02401084 -0.02362785 -0.02319458 -0.02274274
 -0.02227728 -0.02184016 -0.02142566 -0.02104068 -0.02067386 -0.02030411 -0.01992957 -0.01953529 -0.01913359 -0.01872967
 -0.01833732 -0.01797035 -0.01762474 -0.01730728 -0.0169906 -0.01666945 -0.01631551 -0.01591923 -0.01548369 -0.01500546
 -0.01451791 -0.01402306 -0.01355081 -0.0131019 -0.01267922 -0.01228142 -0.01189729 -0.0115278 -0.01117131 -0.01083047
 -0.01051377 -0.010219 -0.009948217 -0.009692297 -0.009439509 -0.009183416 -0.00891168 -0.00862813 -0.008331638 -0.008026607
 -0.007716884 -0.00739627 -0.007063095 -0.006714718 -0.006347017 -0.005981067 -0.005618097 -0.005284676 -0.00498383 -0.004709331
 -0.00445995 -0.004197222 -0.003920348 -0.003603145 -0.003252499 -0.002884891 -0.002510326 -0.002168827 -0.00186061 -0.001609104
 -0.001399989 -0.001224917 -0.0010666 -0.0009036662 -0.0007312529 -0.0005381947 -0.0003304389 -0.0001087566 0.0001243551 0.0003671583
 0.0006225256 0.0008912731 0.00117242 0.001466437 0.001767447 0.002075144 0.00238289 0.002690314 0.002990176 0.003282674
 0.003565071 0.003840278 0.004120433 0.004408379 0.00472201 0.005054918 0.005406109 0.005760094 0.006094046 0.006399262
 0.006655304 0.00687132 0.007045228 0.007193735 0.007324868 0.007446105 0.007562163 0.007672091 0.007775421 0.007877002
 0.00797646 0.008086747 0.008208781 0.008352996 0.008519801 0.008712966 0.008932401 0.009179829 0.009453799 0.009750645
 0.01006441 0.01037679 0.0106796 0.01094533 0.01117488 0.01135265 0.01149763 0.01161856 0.01174453 0.01190001
 0.0120953 0.01234969 0.01263036 0.0129366 0.0132136 0.01344667 0.01361899 0.0137213 0.01379854 0.01385303
 0.01393333 0.01404051 0.01415912 0.01428427 0.01435964 0.01438879 0.01435441 0.01427445 0.0141942 0.01412864
 0.0141357 0.01420728 0.01436291 0.01457175 0.01481242 0.01505429 0.01526496 0.01544507 0.01557832 0.01570629
 0.01583684 0.01601201 0.01624897 0.01652992 0.01686115 0.01716204 0.01742694 0.0175885 0.01764482 0.01761045
 0.01749234 0.01736512 0.0172308 0.01714106 0.01708615 0.01706038 0.01705994 0.01706939 0.017101 0.01716865
 0.01727493 0.01743727 0.01762387 0.01782158 0.01799366 0.01811141 0.01818569 0.0182057 0.01822649 0.01825824
 0.01833986 0.01848245 0.01866758 0.01889665 0.01911159 0.01930949 0.01943859 0.01950027 0.01948495 0.01940254
 0.01929457 0.01917503 0.01911115 0.01910606 0.01920586 0.01938883 0.01964999 0.01994878 0.02024241 0.02050241
 0.0206882 0.02081395 0.02086854 0.02090011 0.02092144 0.02096972 0.0210582 0.02118878 0.02136372 0.02157672
 0.0218265 0.02212827 0.02248274 0.0229063 0.02339516 0.02392106 0.02447156 0.0249682 0.02540218 0.02569727
 0.02586894 0.02590264 0.02584344 0.02574696 0.0256608 0.02566192 0.02575301 0.02597455 0.02626454 0.02661255
 0.02693233 0.02719097 0.02734408 0.02736877 0.0272902 0.02710432 0.026877 0.0266131 0.02636648 0.02613966
 0.02594972 0.02579587 0.02567514 0.02558804 0.02553625 0.02552078 0.02554866 0.02561397 0.02571245 0.02582548
 0.02592867 0.02599312 0.02598114 0.02587028 0.025627 0.02526184 0.02476143 0.02417897 0.02352341 0.02286179
 0.02221077 0.02161159 0.02107421 0.02060479 0.02020579 0.01985946 0.01956468 0.01928479 0.01901757 0.01872382
 0.01840724 0.01806389 0.01770494 0.01736784 0.01705336 0.01678891 0.01655141 0.01631982 0.01606905 0.01575706
 0.01539391 0.01496305 0.0145152 0.01406659 0.01367265 0.01335995 0.0131415 0.01303406 0.01298418 0.01299232
 0.01296423 0.01289151 0.01271045 0.0124182 0.01203356 0.01156263 0.01107993 0.01058902 0.01014941 0.009755552
 0.009420686 0.009137562 0.008896593 0.008693258 0.00851835 0.0083644 0.008222101 0.008080342 0.007927561 0.007759238
 0.007567469 0.007361916 0.007142643 0.006925294 0.006714553 0.006514546 0.006328504 0.006140369 0.005949508 0.005734225
 0.005493493 0.005224568 0.004929467 0.004630221 0.004329557 0.004054775 0.003804561 0.003590307 0.003406125 0.003245361
 0.0031009 0.002959601 0.002814888 0.002654935 0.002475848 0.002269694 0.002040025 0.001784294 0.001515388 0.001236608
 0.000960071 0.0006905125 0.0004270019 0.0001707259 -8.681774E-05 -0.0003468559 -0.0006063848 -0.0008652071 -0.001106513 -0.001330177
 -0.001528149 -0.001703866 -0.001871987 -0.002036617 -0.00222105 -0.002423279 -0.002652043 -0.002899176 -0.003156108 -0.003415248
 -0.003664498 -0.00390142 -0.004121062 -0.004320957 -0.00450058 -0.004650928 -0.004768199 -0.004848342 -0.004884838 -0.004904333
 -0.004905641 -0.004945783 -0.005029775 -0.005201034 -0.005461886 -0.005798575 -0.006206109 -0.006620433 -0.007035519 -0.007382181
 -0.007663267 -0.007846433 -0.007950045 -0.007994794 -0.008009653 -0.008051118 -0.008133483 -0.00830339 -0.008534824 -0.008830163
 -0.009140146 -0.009436015 -0.009699598 -0.009910973 -0.01009858 -0.01026656 -0.01043445 -0.01061127 -0.01076308 -0.01088901
 -0.01093758 -0.01090605 -0.01079444 -0.01060804 -0.01041269 -0.01021623 -0.01010004 -0.01006159 -0.01014059 -0.01031808
 -0.0105733 -0.01088159 -0.01119154 -0.01149572 -0.01176072 -0.01200429 -0.01223012 -0.01245204 -0.01268513 -0.01291078
 -0.01312796 -0.01330962 -0.01344399 -0.01354295 -0.01360341 -0.0136657 -0.01373471 -0.01381949 -0.01392076 -0.01400089
 -0.01405845 -0.01406278 -0.0140194 -0.01394454 -0.01384623 -0.01376355 -0.01369573 -0.0136624 -0.01365444 -0.01366505
 -0.01368843 -0.01371133 -0.01374355 -0.01378359 -0.01385665 -0.0139756 -0.01415846 -0.01442162 -0.01474263 -0.01512702
 -0.0155089 -0.0158804 -0.01617953 -0.01639676 -0.01653203 -0.01658476 -0.016622 -0.01664795 -0.01673783 -0.01688777
 -0.01711681 -0.01740994 -0.01772377 -0.01804648 -0.01832447 -0.01856391 -0.01874755 -0.01889455 -0.01902051 -0.01913915
 -0.01926863 -0.01940815 -0.01956416 -0.01972527 -0.01989043 -0.02004291 -0.02017798 -0.02028633 -0.02036251 -0.02042698
 -0.02047902 -0.02056753 -0.02069531 -0.02089047 -0.0211501 -0.02143957 -0.02175186 -0.02202206 -0.02225542 -0.02243181
 -0.02257112 -0.02271366 -0.02286823 -0.0230753 -0.02331429 -0.0235805 -0.02384446 -0.02407742 -0.02427312 -0.02441716
 -0.02452313 -0.02459436 -0.024636 -0.02465148 -0.02463393 -0.02458122 -0.02449897 -0.02438567 -0.02427165 -0.02415848
 -0.02408529 -0.02405325 -0.02408748 -0.0241854 -0.02434591 -0.02456173 -0.02480791 -0.02507436 -0.02532464 -0.02555176
 -0.02572596 -0.02584984 -0.02591234 -0.02592595 -0.02589591 -0.02583615 -0.02575671 -0.02566216 -0.02555733 -0.02543922
 -0.02530729 -0.02516228 -0.02500388 -0.02483624 -0.02466088 -0.02446647 -0.02425268 -0.02398135 -0.02365035 -0.02321916
 -0.02269082 -0.02206108 -0.02134087 -0.02056757 -0.01975188 -0.01894027 -0.0181339 -0.01735708 -0.0166028 -0.0158725
 -0.01515834 -0.01445498 -0.01375504 -0.01305459 -0.0123432 -0.01161656 -0.01086558 -0.01008447 -0.009282378 -0.008455909
 -0.007643816 -0.00684782 -0.006121413 -0.005467909 -0.004923865 -0.004489316 -0.004168488 -0.003959286 -0.003850826 -0.003841487
 -0.003923313 -0.004087746 -0.004316952 -0.004585546 -0.004846049 -0.005069145 -0.005196569 -0.005226338 -0.005130015 -0.004939085
 -0.004662997 -0.004329523 -0.003956444 -0.003537944 -0.003077856 -0.00255618 -0.001968025 -0.001314308 -0.0005928564 0.0001718441
 0.0009786852 0.001791239 0.002606744 0.003378259 0.004102272 0.004730535 0.005264658 0.00568198 0.005992821 0.006210977
 0.006346941 0.006428376 0.006452092 0.006432237 0.006341575 0.006172458 0.005869412 0.005406184 0.004718002 0.003768991
 0.002540472 0.001005358 -0.0007570339 -0.002750702 -0.004813285 -0.006931746 -0.008944743 -0.01084107 -0.0125401 -0.01404251
 -0.01535774 -0.01649263 -0.0174964 -0.01837361 -0.01916661 -0.01987835 -0.02053556 -0.02114395 -0.0217249 -0.02228361
 -0.02283662 -0.02338068 -0.02392079 -0.02444541 -0.02495033 -0.025423 -0.02585797 -0.02624556 -0.02658247 -0.0268618
 -0.02708171 -0.0272398 -0.02733562 -0.02736852 -0.02733851 -0.02723964 -0.02707227 -0.02683826 -0.02654367 -0.0262273
 -0.02590228 -0.02564276 -0.02545404 -0.02539491 -0.02544534 -0.02560417 -0.02583148 -0.02607928 -0.02631398 -0.02648801
 -0.02659342 -0.02660873 -0.02654972 -0.02641587 -0.02623013 -0.02599872 -0.02573635 -0.02544712 -0.02513375 -0.02479534
 -0.02444833 -0.02409231 -0.02380608 -0.02359791 -0.02362018 -0.02388107 -0.02452307 -0.02552539 -0.02689798 -0.02857887
 -0.03041999 -0.03235392 -0.03418532 -0.03589614 -0.037373 -0.03866052 -0.039753 -0.04071376 -0.04158184 -0.04238828
 -0.04315898 -0.043888 -0.04457915 -0.04521981 -0.04580687 -0.04634121 -0.04682181 -0.0472592 -0.04765395 -0.04801693
 -0.04834871 -0.04865884 -0.04894821 -0.04922769 -0.04949787 -0.04976819 -0.05003603 -0.05030091 -0.05055621 -0.050789
 -0.05099652 -0.05116582 -0.05130926 -0.05142887 -0.05154939 -0.05168722 -0.05185496 -0.05206767 -0.05230423 -0.05256654
 -0.05281053 -0.05302786 -0.0531919 -0.0532957 -0.05335851 -0.05338046 -0.05340821 -0.05344329 -0.05351305 -0.05361411
 -0.05373407 -0.05386935 -0.05399581 -0.05411884 -0.05423907 -0.05436662 -0.05452331 -0.0547079 -0.05493261 -0.0551788
 -0.05543629 -0.05568371 -0.05590388 -0.05608916 -0.05623 -0.05633453 -0.05640101 -0.05644825 -0.05647774 -0.0565147
 -0.05656211 -0.05663849 -0.05674573 -0.05687957 -0.05703902 -0.05720193 -0.05736759 -0.05751975 -0.05766044 -0.05778996
 -0.05790989 -0.0580253 -0.05813524 -0.0582398 -0.05833919 -0.05843305 -0.05852382 -0.05861491 -0.05870364 -0.05879154
 -0.05886803 -0.05892811 -0.05896804 -0.05898189 -0.05898861 -0.05898859 -0.05901246 -0.05906495 -0.05915549 -0.05928587
 -0.05943137 -0.05959037 -0.0597291 -0.05984835 -0.0599374 -0.06000105 -0.06005391 -0.06009997 -0.06015897 -0.06022905
 -0.06031795 -0.06041697 -0.06051932 -0.06061379 -0.06068612 -0.06073534 -0.06075214 -0.0607551 -0.06074708 -0.0607544
 -0.06078663 -0.06085325 -0.06096027 -0.0610926 -0.06125015 -0.06140979 -0.06156984 -0.06171668 -0.06185008 -0.06196918
 -0.06207488 -0.06217378 -0.06226673 -0.06236127 -0.06245676 -0.06255582 -0.06265601 -0.06275389 -0.0628477 -0.06293267
 -0.06301115 -0.06308267 -0.06315279 -0.06322519 -0.06330264 -0.06338836 -0.06347871 -0.0635739 -0.06366745 -0.06375789
 -0.0638426 -0.06392074 -0.0639951 -0.06406578 -0.06413653 -0.06420742 -0.06427898 -0.06435071 -0.06441894 -0.06448288
 -0.06453657 -0.06458069 -0.06461275 -0.0646368 -0.06465863 -0.06468334 -0.06472079 -0.06477202 -0.06484252 -0.06492832
 -0.06502897 -0.06513928 -0.06525713 -0.06537836 -0.06550184 -0.0656226 -0.06573969 -0.06584853 -0.06594826 -0.06603757
 -0.06611618 -0.06618638 -0.06624831 -0.06630567 -0.06635872 -0.06641141 -0.06646399 -0.06651965 -0.06657819 -0.06664093
 -0.06670701 -0.06677555 -0.06684541 -0.06691483 -0.06698261 -0.06704713 -0.06710738 -0.06716227 -0.06721122 -0.06725366
 -0.06728958 -0.06731831 -0.06734277 -0.06736248 -0.06738575 -0.06741322 -0.06745434 -0.06751001 -0.06758241 -0.06767133
 -0.06776895 -0.06787429 -0.06797575 -0.06807311 -0.06815878 -0.06823417 -0.06829859 -0.06835538 -0.06841062 -0.06846711
 -0.06853239 -0.06860425 -0.06868473 -0.0687665 -0.06884505 -0.06891631 -0.06897544 -0.06902885 -0.06907668 -0.06912884
 -0.06918841 -0.06925518 -0.06933051 -0.06940258 -0.06947061 -0.06952552 -0.06956729 -0.06960123 -0.06962861 -0.06966316
 -0.06970476 -0.06976097 -0.06982897 -0.06990464 -0.06998481 -0.07006071 -0.070132 -0.07019375 -0.07024897 -0.07029813
 -0.07034592 -0.07039545 -0.07045022 -0.07051296 -0.07058368 -0.07066366 -0.07074858 -0.07083818 -0.07092637 -0.07101232
 -0.07109168 -0.07116396 -0.0712286 -0.07128568 -0.07133876 -0.0713881 -0.07143784 -0.07148761 -0.07153811 -0.07158819
 -0.07163458 -0.07167677 -0.07171162 -0.07174058 -0.07176384 -0.07178421 -0.07180445 -0.0718266 -0.07185322 -0.07188391
 -0.07191962 -0.07195742 -0.07199671 -0.07203481 -0.07207073 -0.07210513 -0.07213768 -0.07217211 -0.07220871 -0.07224956
 -0.07229467 -0.07234187 -0.07239086 -0.07243807 -0.07248353 -0.07252556 -0.07256455 -0.0726006 -0.07263464 -0.07266805
 -0.07270292 -0.07274275 -0.07278916 -0.07284641 -0.07291059 -0.07298212 -0.0730513 -0.07311359 -0.07316288 -0.07319454
 -0.07321438 -0.0732217 -0.07322932 -0.0732391 -0.07325773 -0.07328625 -0.07332029 -0.07335959 -0.07339684 -0.07343234
 -0.07346586 -0.07349881 -0.0735383 -0.07358456 -0.07364309 -0.07371095 -0.07378533 -0.07386208 -0.07393346 -0.07399849
 -0.07405238 -0.07409871 -0.07413805 -0.07417505 -0.07421234 -0.07425161 -0.0742944 -0.07433913 -0.07438572 -0.07443263
 -0.0744793 -0.07452806 -0.07457891 -0.0746367 -0.07470158 -0.07477439 -0.07485441 -0.07493499 -0.07501517 -0.07508618
 -0.07514874 -0.07520003 -0.07524243 -0.07527953 -0.07531326 -0.07534833 -0.07538474 -0.07542462 -0.07546604 -0.07550851
 -0.07554966 -0.0755882 -0.07562292 -0.07565282 -0.075679 -0.07570121 -0.07572237 -0.0757426 -0.07576629 -0.07579379
 -0.07582845 -0.07587037 -0.07591876 -0.07597326 -0.07602978 -0.07608813 -0.07614539 -0.07620168 -0.07625612 -0.07630827
 -0.07635688 -0.07640148 -0.07644042 -0.07647487 -0.0765052 -0.07653297 -0.07655969 -0.07658517 -0.07660961 -0.07663289
 -0.07665441 -0.07667704 -0.07670117 -0.07672963 -0.07676316 -0.07680079 -0.07684258 -0.07688571 -0.07693002 -0.07697428
 -0.07701841 -0.07706141 -0.07710272 -0.0771388 -0.07716943 -0.0771913 -0.07720636 -0.07721658 -0.07722536 -0.07723921
 -0.07725845 -0.07728715 -0.07732046 -0.07735629 -0.07739038 -0.07741878 -0.07744449 -0.07746714 -0.07749226 -0.0775219
 -0.07755428 -0.07759006 -0.07762142 -0.07764763 -0.07766526 -0.07767421 -0.07767858 -0.07767879 -0.0776808 -0.07768467
 -0.07769394 -0.07770824 -0.07772864 -0.077754 -0.07778274 -0.07781315 -0.07784192 -0.07786808 -0.07788891 -0.07790571
 -0.07791791 -0.07792906 -0.07794062 -0.07795573 -0.07797642 -0.07800142 -0.07803159 -0.07806069 -0.07808779 -0.07810973
 -0.07812577 -0.0781414 -0.0781569 -0.07817946 -0.07820887 -0.07824497 -0.07828731 -0.0783326 -0.07838247 -0.07843998
 -0.07850823 -0.07859582 -0.07870384 -0.07883813 -0.07899722 -0.07918105 -0.07939013 -0.07962306 -0.07988648 -0.08018238
 -0.08051944 -0.08090198 -0.08133076 -0.08180794 -0.08232548 -0.08288313 -0.08347023 -0.08408669 -0.08471233 -0.08534577
 -0.08594052 -0.08649305 -0.08694813 -0.08730527 -0.08753515 -0.08763567 -0.08758611 -0.08738071 -0.08698305 -0.08642466
 -0.08572042 -0.08494893 -0.08420106 -0.08352633 -0.08299614 -0.08260815 -0.08238083 -0.08229572 -0.08235326 -0.08252528
 -0.08281355 -0.08315108 -0.08353426 -0.08386321 -0.0841272 -0.08428319 -0.08432906 -0.08430294 -0.08420835 -0.08409686
 -0.08396981 -0.08386257 -0.08377133 -0.08370564 -0.08365341 -0.08359229 -0.083513 -0.08338785 -0.08322295 -0.08301235
 -0.08277016 -0.08250415 -0.08222751 -0.0819472 -0.08167771 -0.08142467 -0.0812006 -0.0810105 -0.08085494 -0.08073612
 -0.08064097 -0.08056903 -0.08050176 -0.08043816 -0.08036503 -0.08028283 -0.0801925 -0.08009617 -0.08000663 -0.07992452
 -0.07986004 -0.07980967 -0.07977125 -0.07973947 -0.07970429 -0.07966449 -0.07961332 -0.07955617 -0.07949422 -0.07943459
 -0.07938212 -0.07933795 -0.07930479 -0.07927643 -0.07925188 -0.07922624 -0.07919785 -0.07917032 -0.07914351 -0.07912593
 -0.07911804 -0.07912374 -0.07914266 -0.07917121 -0.07920834 -0.07924659 -0.07928492 -0.07931563 -0.07933891 -0.07935062
 -0.07935324 -0.07934835 -0.0793395 -0.07933163 -0.07932565 -0.07932436 -0.07932576 -0.07932932 -0.07933403 -0.07933901
 -0.07934565 -0.07935422 -0.07936542 -0.07937989 -0.07939417 -0.07940825 -0.07941543 -0.07941535 -0.07940456 -0.07938359
 -0.07935792 -0.07932891 -0.07930774 -0.079294 -0.07929307 -0.07930162 -0.07931451 -0.07932897 -0.07933731 -0.07934097
 -0.07933815 -0.07933231 -0.07932588 -0.07932024 -0.07931706 -0.0793155 -0.07931562 -0.07931649 -0.07931796 -0.07931915
 -0.07931993 -0.0793196 -0.07931796 -0.0793165 -0.07931529 -0.07931808 -0.07932493 -0.079338 -0.07935653 -0.07937731
 -0.07939903 -0.07941503 -0.07942519 -0.07942522 -0.07941725 -0.07940233 -0.07938397 -0.07936643 -0.07935246 -0.07934585
 -0.0793469 -0.07935753 -0.07937431 -0.0793972 -0.07941996 -0.07944116 -0.07945596 -0.07946291 -0.0794628 -0.07945521
 -0.07944631 -0.07943641 -0.07943202 -0.07943317 -0.07944181 -0.0794572 -0.07947583 -0.07949692 -0.0795156 -0.07953217
 -0.07954475 -0.07955448 -0.07956259 -0.07956934 -0.07957575 -0.07958096 -0.07958451 -0.07958606 -0.07958499 -0.07958242
 -0.07957844 -0.07957486 -0.07957217 -0.07957149 -0.07957318 -0.07957702 -0.07958315 -0.07958955 -0.07959615 -0.07960072
 -0.07960317 -0.07960168 -0.07959617 -0.07958501 -0.07956865 -0.07954713 -0.07952246 -0.07949925 -0.07947976 -0.07947069
 -0.07947081 -0.07948241 -0.07950042 -0.07952163 -0.07954222 -0.07955859 -0.07957139 -0.07957973 -0.07958636 -0.07959196
 -0.07959766 -0.0796039 -0.0796099 -0.07961565 -0.07962012 -0.07962324 -0.07962549 -0.07962704 -0.0796305 -0.07963587
 -0.07964482 -0.07965643 -0.07966832 -0.07967918 -0.07968427 -0.07968373 -0.07967515 -0.07966049 -0.07964084 -0.07961877
 -0.07959655 -0.07957648 -0.07956029 -0.07954975 -0.07954619 -0.07954929 -0.07955974 -0.07957406 -0.07959197 -0.0796093
 -0.07962548 -0.07963929 -0.0796506 -0.07966089 -0.07967011 -0.0796782 -0.07968485 -0.0796878 -0.07968728 -0.0796825
 -0.07967475 -0.07966679 -0.07965982 -0.07965723 -0.07965921 -0.07966756 -0.07968117 -0.07970032 -0.07972191 -0.07974499
 -0.0797647 -0.07977896 -0.07978459 -0.07977968 -0.07976634 -0.07974413 -0.07971869 -0.07969046 -0.07966497 -0.07964259
 -0.07962698 -0.07961823 -0.07961847 -0.07962739 -0.07964454 -0.07966898 -0.07969732 -0.079728 -0.07975552 -0.07977869
 -0.07979237 -0.07979793 -0.07979419 -0.07978532 -0.07977448 -0.07976442 -0.07975845 -0.07975452 -0.07975302 -0.07975001
 -0.07974418 -0.07973485 -0.07972148 -0.0797057 -0.07968751 -0.07966921 -0.07965089 -0.07963701 -0.07962781 -0.07962849
 -0.07963841 -0.07965647 -0.07968094 -0.07970421 -0.07972593 -0.07974055 -0.07975054 -0.07975769 -0.0797641 -0.07977384
 -0.07978554 -0.07979976 -0.07981376 -0.07982558 -0.07983539 -0.07984238 -0.07984903 -0.07985628 -0.07986362 -0.07987162
 -0.0798756 -0.07987502 -0.07986728 -0.07985208 -0.0798341 -0.07981378 -0.07979963 -0.07979156 -0.07979353 -0.07980399
 -0.0798194 -0.07983768 -0.07985152 -0.07986023 -0.07985855 -0.07984839 -0.07982926 -0.07980518 -0.07977891 -0.07975476
 -0.07973592 -0.07972518 -0.07972489 -0.07973412 -0.07975401 -0.07977825 -0.07980648 -0.07982968 -0.07984669 -0.07985296
 -0.07984802 -0.07983502 -0.07981429 -0.07979206 -0.07976863 -0.07974903 -0.07973326 -0.07972427 -0.07972124 -0.07972419
 -0.07973059 -0.07973599 -0.07973862 -0.0797336 -0.07972298 -0.07970589 -0.07968771 -0.07967175 -0.07966034 -0.07965648
 -0.07965543 -0.07965729 -0.07965362 -0.07964243 -0.07962163 -0.07959003 -0.07955603 -0.07952002 -0.07949222 -0.07947267
 -0.07946189 -0.07945876 -0.07945526 -0.07945094 -0.07943913 -0.07942136 -0.07939802 -0.07937111 -0.07934462 -0.07931928
 -0.07929804 -0.07927978 -0.07926479 -0.07925116 -0.07923766 -0.07922365 -0.07920833 -0.07919252 -0.07917653 -0.07915983
 -0.07914265 -0.07912259 -0.07909942 -0.07907109 -0.07903744 -0.07899825 -0.07895368 -0.07890589 -0.07885553 -0.07880814
 -0.07876449 -0.07873114 -0.07870733 -0.07869515 -0.07869172 -0.07869297 -0.07869621 -0.07869603 -0.07869212 -0.07868215
 -0.07866739 -0.07864781 -0.07862493 -0.07859924 -0.07857233 -0.07854468 -0.07851761 -0.07849154 -0.07846656 -0.07844292
 -0.07841831 -0.07839266 -0.07836217 -0.07832676 -0.07828545 -0.07823902 -0.07819287 -0.0781481 -0.07811269 -0.07808589
 -0.07807037 -0.07806338 -0.07806145 -0.07806146 -0.07805822 -0.07804919 -0.07803017 -0.07800053 -0.07795755 -0.07790568
 -0.07784522 -0.07778367 -0.07772336 -0.07766831 -0.07762016 -0.07757717 -0.07753952 -0.07750331 -0.07746831 -0.07743068
 -0.07739025 -0.07734391 -0.07729198 -0.077235 -0.07717396 -0.07711352 -0.07705404 -0.07699934 -0.07694818 -0.07689991
 -0.07685362 -0.07680723 -0.07676221 -0.07671908 -0.07667939 -0.0766452 -0.07661378 -0.07658532 -0.07655374 -0.07651702
 -0.0764726 -0.07641884 -0.07636028 -0.07629707 -0.07623487 -0.07617417 -0.07611559 -0.07605916 -0.07600389 -0.07595045
 -0.07590391 -0.07586501 -0.07584113 -0.07582957 -0.07582853 -0.07583065 -0.07582099 -0.07579484 -0.07573671 -0.07565454
 -0.07554798 -0.0754317 -0.07531533 -0.07520656 -0.07511261 -0.0750297 -0.07495895 -0.07489192 -0.07482694 -0.07475977
 -0.07468933 -0.0746177 -0.07454489 -0.07447512 -0.07440861 -0.07434998 -0.07429902 -0.07425732 -0.07422275 -0.07418741
 -0.07414801 -0.0740897 -0.07401467 -0.07391826 -0.07380871 -0.07369532 -0.07358363 -0.0734828 -0.07339283 -0.07331683
 -0.07325178 -0.07319798 -0.07314923 -0.07310457 -0.07305544 -0.07299985 -0.0729335 -0.07285513 -0.07276782 -0.07267164
 -0.07257146 -0.07246747 -0.07236174 -0.0722542 -0.07214513 -0.07203444 -0.07192152 -0.07180683 -0.071691 -0.07157541
 -0.07146337 -0.07135487 -0.07125219 -0.0711522 -0.07105252 -0.07095167 -0.07084685 -0.07074173 -0.0706373 -0.07053631
 -0.07044084 -0.07034696 -0.07025463 -0.07015791 -0.07005569 -0.06994779 -0.06983392 -0.06971958 -0.06960498 -0.06949341
 -0.06938382 -0.06926926 -0.0691478 -0.06900547 -0.06884441 -0.06866182 -0.06846442 -0.06826496 -0.06806591 -0.06787748
 -0.0676952 -0.06751838 -0.06734309 -0.06716534 -0.06698711 -0.06680744 -0.06663217 -0.06646295 -0.06630372 -0.06615688
 -0.06601628 -0.06588362 -0.06573147 -0.06555828 -0.06533273 -0.06505443 -0.06473184 -0.06436814 -0.06399657 -0.06361532
 -0.06323483 -0.0628483 -0.06244079 -0.06200861 -0.06153518 -0.06102555 -0.06047691 -0.05990301 -0.05931468 -0.05872592
 -0.05815149 -0.05759041 -0.05704961 -0.05650939 -0.05596362 -0.05540481 -0.05482518 -0.05425708 -0.05370288 -0.05319595
 -0.05273996 -0.05233131 -0.05196953 -0.05163724 -0.05133437 -0.05105391 -0.05079562 -0.05055597 -0.05033164 -0.05011181
 -0.04989175 -0.04965639 -0.04940448 -0.04912642 -0.04882734 -0.04850855 -0.04817526 -0.04783202 -0.04747942 -0.04711856
 -0.04675023 -0.04637488 -0.0459937 -0.04561039 -0.04520497 -0.04478022 -0.04427118 -0.04367302 -0.0429345 -0.04205631
 -0.0411141 -0.04011527 -0.03916556 -0.03825274 -0.03737425 -0.03651302 -0.03561451 -0.03467539 -0.03366318 -0.03258046
 -0.03142371 -0.03017771 -0.02883595 -0.02735629 -0.02570486 -0.023867 -0.02180065 -0.01961439 -0.01731544 -0.01507741
 -0.01294458 -0.01098367 -0.009216017 -0.007603587 -0.006146863 -0.00477541 -0.003484531 -0.002172954 -0.0008315082 0.0006775689
 0.002341435 0.004194164 0.006170476 0.008074814 0.00989293 0.01147893 0.01290576 0.01421946 0.01547361 0.01674668
 0.01803981 0.01937797 0.0207481 0.02214668 0.02357666 0.02504369 0.02652355 0.02801593 0.02947639 0.03089511
 0.0322812 0.03363435 0.03497536 0.0363034 0.03755715 0.03873051 0.03973527 0.0405792 0.04125193 0.04176993
 0.0421799 0.0424884 0.04273207 0.04290875 0.04302559 0.04309359 0.04312106 0.04313242 0.04314734 0.04317973
 0.04324658 0.0433306 0.04343287 0.04352246 0.04359089 0.04363031 0.0436356 0.04363241 0.04362179 0.04363929
 0.04368579 0.04374989 0.0438269 0.0438658 0.04386413 0.04378559 0.04362677 0.04336003 0.04297913 0.0424528
 0.04179052 0.04098505 0.04006907 0.03907122 0.03802075 0.03694408 0.03586566 0.03479354 0.03378101 0.03284196
 0.03203597 0.03138435 0.03088454 0.03054321 0.03031145 0.03018583 0.03012996 0.03014228 0.03021314 0.03034336
 0.03053724 0.03079596 0.03112717 0.03153195 0.03201784 0.0325849 0.03323831 0.03397389 0.03479075 0.03567642
 0.03662147 0.03760535 0.03861254 0.03962402 0.04062502 0.04161247 0.04257829 0.043543 0.04450744 0.04550225
 0.04653328 0.04760784 0.04872811 0.04987395 0.05104465 0.0522368 0.05345166 0.05470955 0.05599919 0.05728019
 0.05852535 0.05961637 0.06055877 0.06129651 0.06187254 0.06232999 0.0626941 0.06301343 0.06327886 0.06349991
 0.06366005 0.0637553 0.0637669 0.06369256 0.06349628 0.06316525 0.06270105 0.0620927 0.06143716 0.06074413
 0.06004104 0.05932815 0.05852022 0.05761371 0.05654019 0.05530551 0.0539037 0.05234419 0.05066147 0.04884404
 0.04689493 0.04477178 0.04238763 0.03978356 0.03690788 0.03400169 0.03124363 0.02872857 0.02660271 0.02467653
 0.02291371 0.02117555 0.01940797 0.01763316 0.01584276 0.0141093 0.01244099 0.01084065 0.009308115 0.007792212
 0.006292318 0.004782497 0.003269426 0.001776037 0.0003071836 -0.001105806 -0.002470207 -0.003784972 -0.005062792 -0.006322839
 -0.007572965 -0.00882527 -0.01009381 -0.01138271 -0.0127349 -0.01417333 -0.01572636 -0.01744368 -0.01917077 -0.02089989
 -0.02239223 -0.02358825 -0.02454197 -0.0252454 -0.02589248 -0.02649242 -0.02714251 -0.02783808 -0.02855761 -0.02929264
 -0.02998227 -0.03063353 -0.03123946 -0.03180759 -0.03236031 -0.03287814 -0.03334559 -0.03373167 -0.03399034 -0.03412422
 -0.03411489 -0.03399144 -0.03376551 -0.03345249 -0.03306359 -0.03259068 -0.03203903 -0.03137064 -0.03058654 -0.02960596
 -0.02842063 -0.02698292 -0.0252915 -0.02349872 -0.02162163 -0.01991553 -0.018375 -0.01710242 -0.01607553 -0.01527329
 -0.01468033 -0.014258 -0.013985 -0.01381918 -0.01372551 -0.01365539 -0.01357148 -0.01342433 -0.01321689 -0.01292285
 -0.012613 -0.01230802 -0.01205262 -0.01186921 -0.01173171 -0.01164188 -0.01155302 -0.01146073 -0.01133683 -0.01117981
 -0.01099637 -0.01078799 -0.01057591 -0.01035885 -0.01014189 -0.009919642 -0.009676889 -0.009408444 -0.009093944 -0.00873387
 -0.008320938 -0.0078547 -0.007336507 -0.006751899 -0.006092409 -0.005340881 -0.004481754 -0.003522821 -0.002458306 -0.00132122
 -0.0001192675 0.001129237 0.002417254 0.003762965 0.005167719 0.006645078 0.008195594 0.009763595 0.01134279 0.01283731
 0.01424684 0.01552173 0.01666507 0.01766632 0.01851655 0.01919312 0.01967971 0.01993798 0.01996469 0.01973635
 0.01927165 0.01857404 0.01767064 0.01657642 0.0153088 0.01387592 0.01229113 0.01055091 0.008708353 0.006762475
 0.004823546 0.002901606 0.001078662 -0.0006404549 -0.002267887 -0.003806702 -0.00530319 -0.006753492 -0.00815964 -0.009511695
 -0.01077134 -0.01194209 -0.01300768 -0.01398908 -0.0149114 -0.01579538 -0.01667533 -0.01755838 -0.01846419 -0.01938239
 -0.02031643 -0.02124146 -0.02215086 -0.02301988 -0.02383984 -0.02460431 -0.02530927 -0.02596786 -0.02658076 -0.02716188
 -0.02771206 -0.02822718 -0.02870589 -0.02912813 -0.02949398 -0.02979211 -0.03002721 -0.03020931 -0.03034391 -0.03044915
 -0.03052723 -0.0305903 -0.03063681 -0.03066975 -0.03068658 -0.03068467 -0.03066736 -0.03063316 -0.03059475 -0.03055526
 -0.03052901 -0.03052063 -0.03053581 -0.03057685 -0.03064013 -0.0307257 -0.03082716 -0.03094413 -0.031075 -0.03121999
 -0.03138271 -0.03156241 -0.0317581 -0.03196529 -0.0321684 -0.03236097 -0.03251889 -0.03264093 -0.03271224 -0.03274005
 -0.03272597 -0.03267947 -0.03260876 -0.03251921 -0.03241576 -0.03230115 -0.03217627 -0.03204738 -0.03191451 -0.03179114
 -0.03167857 -0.03159301 -0.03153641 -0.03151662 -0.03153424 -0.03158324 -0.0316628 -0.03176017 -0.03187483 -0.03199726
 -0.03212761 -0.03226153 -0.03239901 -0.03253804 -0.03267813 -0.03281793 -0.03295605 -0.03309049 -0.0332198 -0.03334185
 -0.033457 -0.03356491 -0.03366591 -0.03376093 -0.03384619 -0.03392128 -0.03398111 -0.03402421 -0.03405186 -0.03406372
 -0.03406598 -0.034059 -0.03404614 -0.03402735 -0.03400199 -0.03397011 -0.03393176 -0.03388703 -0.03383674 -0.03377989
 -0.03371486 -0.03363978 -0.03355084 -0.03344667 -0.03332374 -0.03318285 -0.03302268 -0.03284708 -0.03265709 -0.03245836
 -0.032253 -0.03204562 -0.03183772 -0.03163209 -0.03142941 -0.03123114 -0.03103763 -0.0308479 -0.03066193 -0.03047781
 -0.03029568 -0.03011718 -0.02994302 -0.0297786 -0.02962403 -0.02948298 -0.02935399 -0.02923529 -0.02912568 -0.02902135
 -0.02892442 -0.02883481 -0.02875798 -0.02869815 -0.02865981 -0.02864766 -0.02865999 -0.02869847 -0.02875534 -0.02882936
 -0.02891246 -0.0290028 -0.02909739 -0.02919529 -0.02930049 -0.02941311 -0.02954137 -0.02968541 -0.0298492 -0.03003143
 -0.03022578 -0.03043037 -0.03063429 -0.03083768 -0.03103531 -0.03122842 -0.03141768 -0.03160175 -0.03178016 -0.03194914
 -0.0321052 -0.03224654 -0.03237034 -0.03247913 -0.03257266 -0.03265582 -0.03272997 -0.03279776 -0.03286048 -0.03291488
 -0.03296101 -0.03299266 -0.03300942 -0.03300922 -0.03299225 -0.03296158 -0.03291748 -0.03286301 -0.03279833 -0.03272552
 -0.03264502 -0.03255945 -0.03246797 -0.03237137 -0.03226572 -0.03214702 -0.03201096 -0.03185222 -0.03166955 -0.03146039
 -0.03122621 -0.03096692 -0.03068443 -0.03037951 -0.03005192 -0.02970201 -0.02932713 -0.02892676 -0.02850161 -0.02805154
 -0.02758768 -0.02711094 -0.0266379 -0.02616879 -0.02571349 -0.02527067 -0.02484044 -0.02442125 -0.02400922 -0.0236035
 -0.02320034 -0.02280081 -0.02240407 -0.02201321 -0.02163117 -0.02125811 -0.02089617 -0.02054017 -0.02018767 -0.01983856
 -0.01949045 -0.01915447 -0.01883225 -0.01853215 -0.01825639 -0.01799629 -0.01775163 -0.01750385 -0.01725221 -0.01698314
 -0.01669711 -0.01639024 -0.01606413 -0.01572308 -0.01536811 -0.0150052 -0.01463173 -0.0142463 -0.01384489 -0.01341998
 -0.01297493 -0.0125075 -0.01202964 -0.01154737 -0.01107042 -0.01060485 -0.01015256 -0.009715504 -0.009292144 -0.008883014
 -0.008483246 -0.008093115 -0.007700102 -0.007303523 -0.006888356 -0.006454442 -0.005998085 -0.005522138 -0.005043949 -0.004568414
 -0.004126163 -0.003716532 -0.003357459 -0.003035987 -0.002739139 -0.002450153 -0.002140418 -0.001806665 -0.001433081 -0.001031864
 -0.000604564 -0.0001665049 0.0002758944 0.0007119828 0.001136809 0.001548741 0.001945129 0.002337869 0.002727642 0.003128406
 0.003541421 0.003963224 0.004392941 0.004812317 0.00522089 0.005606197 0.005970079 0.006313666 0.006638454 0.006950292
 0.007246512 0.007526897 0.007783391 0.008006318 0.008187908 0.008316574 0.00839302 0.008412847 0.008384122 0.008308074
 0.008195213 0.008046093 0.007881039 0.007701548 0.007538191 0.007395228 0.007286936 0.00721519 0.007161585 0.007124937
 0.007080598 0.007030052 0.006972611 0.006911892 0.006863231 0.006827416 0.006814924 0.006823514 0.006854946 0.006904019
 0.006966019 0.007033264 0.007097305 0.007153425 0.007196177 0.007224468 0.007238563 0.007230141 0.007198493 0.0071293
 0.007019004 0.006863582 0.006661127 0.006421751 0.006145828 0.005847541 0.005527763 0.005202228 0.004872107 0.004554424
 0.004248505 0.003961528 0.003690125 0.003428553 0.003174655 0.002921195 0.002668851 0.002415831 0.002162492 0.001909087
 0.001654196 0.001398243 0.001135724 0.000865972 0.0005784691 0.0002698589 -6.579969E-05 -0.0004317086 -0.0008199941 -0.001230668
 -0.001650784 -0.002079333 -0.002511388 -0.002946852 -0.003385491 -0.003827319 -0.00427185 -0.004719592 -0.005172469 -0.005631004
 -0.006098173 -0.006572898 -0.007054501 -0.007541997 -0.00803405 -0.008529341 -0.009028295 -0.00952321 -0.01001111 -0.01048038
 -0.01092447 -0.01134004 -0.01172359 -0.01208101 -0.0124129 -0.01272373 -0.01301409 -0.01328663 -0.01354141 -0.01378569
 -0.01401991 -0.0142528 -0.01448436 -0.01471879 -0.01495528 -0.01519315 -0.0154303 -0.01566096 -0.01588258 -0.01608673
 -0.01627434 -0.01644203 -0.01659469 -0.01673563 -0.01686854 -0.01699623 -0.01712219 -0.01724714 -0.01737924 -0.01752104
 -0.01767806 -0.01785344 -0.01803894 -0.01823503 -0.01842352 -0.01860329 -0.01875695 -0.01888398 -0.01897711 -0.01903832
 -0.01907936 -0.01910445 -0.01914013 -0.01918555 -0.01925473 -0.0193381 -0.01942308 -0.01950356 -0.0195624 -0.0196081
 -0.01964152 -0.01967404 -0.01971592 -0.01976461 -0.01982366 -0.01988008 -0.0199306 -0.01996637 -0.01998422 -0.01998528
 -0.0199687 -0.01994253 -0.01990719 -0.01987153 -0.0198359 -0.01980565 -0.01978081 -0.01976432 -0.01975567 -0.01975538
 -0.01976036 -0.01976277 -0.01975818 -0.01973267 -0.0196878 -0.01961773 -0.0195316 -0.01943562 -0.01933787 -0.01924637
 -0.01916206 -0.01908828 -0.01902017 -0.01895831 -0.01889185 -0.0188195 -0.01872836 -0.01861582 -0.01848167 -0.01832517
 -0.01816163 -0.01799172 -0.01782811 -0.01766985 -0.01751431 -0.01735988 -0.01719751 -0.01702731 -0.01684439 -0.016651
 -0.01644851 -0.01624088 -0.01603386 -0.01583072 -0.01563729 -0.01545292 -0.01527884 -0.01511399 -0.01495706 -0.01481198
 -0.01467994 -0.01456285 -0.01446316 -0.01436943 -0.01428146 -0.01418053 -0.01406488 -0.01392912 -0.01377356 -0.01361476
 -0.01345473 -0.01331914 -0.01320724 -0.01313152 -0.01308505 -0.01305578 -0.01303345 -0.01299114 -0.01292444 -0.01281297
 -0.0126651 -0.01247896 -0.01227144 -0.01205304 -0.01183582 -0.01162938 -0.01143323 -0.0112497 -0.01107341 -0.01090281
 -0.01073928 -0.01058225 -0.01043907 -0.01031037 -0.01019898 -0.01010477 -0.01002059 -0.009945227 -0.009864996 -0.009778519
 -0.009671345 -0.009544348 -0.009390705 -0.009216427 -0.009029136 -0.008837159 -0.008656439 -0.008489117 -0.008345004 -0.00821723
 -0.008104661 -0.007999299 -0.007895974 -0.007794678 -0.007693436 -0.007598128 -0.007510179 -0.00743077 -0.007361151 -0.007292602
 -0.007224684 -0.007147267 -0.007060007 -0.006961159 -0.006851105 -0.006732837 -0.006606304 -0.006471731 -0.006330775 -0.006187275
 -0.006045779 -0.005918841 -0.005805884 -0.00571502 -0.005633713 -0.005553923 -0.005461321 -0.005341378 -0.005194248 -0.005013788
 -0.00481361 -0.004596598 -0.004373862 -0.004148876 -0.003923777 -0.003699136 -0.003476523 -0.0032558 -0.003045141 -0.002844902
 -0.002661018 -0.002492247 -0.002329505 -0.002170329 -0.001996965 -0.001809945 -0.001600904 -0.001373363 -0.001130612 -0.000875579
 -0.0006129042 -0.0003470867 -8.322021E-05 0.0001724603 0.0004122101 0.0006394052 0.0008508897 0.001062033 0.001277871 0.001505716
 0.001750439 0.001999616 0.00225269 0.002494616 0.002723672 0.002939353 0.003141823 0.003342416 0.003541746 0.003751151
 0.003968832 0.004193178 0.00441924 0.004629368 0.004823357 0.004988412 0.005136405 0.005277956 0.00542648 0.005602048
 0.005804237 0.006041237 0.00630147 0.00658386 0.006869812 0.007156494 0.007414857 0.00763809 0.00780691 0.00791444
 0.007980772 0.008005818 0.008030819 0.008057563 0.008104377 0.008170696 0.00825578 0.008361522 0.008497899 0.008666671
 0.008881156 0.009136041 0.009427682 0.009747724 0.01008272 0.01042591 0.01076636 0.01109786 0.01141305 0.01170784
 0.01197923 0.01222252 0.01243702 0.01261254 0.01274537 0.01283678 0.01288354 0.01291484 0.01293227 0.01296875
 0.01302579 0.01311554 0.01323813 0.01339931 0.01359915 0.01384429 0.01412872 0.01443933 0.01476443 0.0150724
 0.0153562 0.01559225 0.01577693 0.0158991 0.01595422 0.01593204 0.01584347 0.01568433 0.01549165 0.01527437
 0.0150701 0.01489013 0.0147484 0.01464972 0.01458866 0.01456591 0.01456251 0.01457739 0.01458634 0.01458984
 0.01458324 0.01457042 0.01456989 0.0145832 0.01462521 0.01469477 0.01479688 0.01492909 0.01509345 0.0152774
 0.01547001 0.01565739 0.01582103 0.01597128 0.01610689 0.01624524 0.01640092 0.01654145 0.01666242 0.01673365
 0.01674216 0.01674319 0.01673988 0.01678645 0.01688513 0.01702209 0.01719327 0.01734759 0.01748556 0.01758279
 0.01764534 0.0176826 0.01769419 0.01768437 0.0176493 0.01758225 0.01748801 0.01736554 0.01723056 0.01709244
 0.0169681 0.01687158 0.01679967 0.0167585 0.0167223 0.01668491 0.01663545 0.01656875 0.01650484 0.01644548
 0.01639914 0.01636609 0.01632346 0.01627095 0.01619688 0.01610438 0.01600742 0.01590345 0.01579271 0.01566768
 0.01550645 0.01531735 0.01509844 0.01487371 0.01467049 0.01449831 0.01437626 0.01429485 0.01425703 0.0142422
 0.01424707 0.01424157 0.01421482 0.01416677 0.0140901 0.01404031 0.01402185 0.01407571 0.01420379 0.01437637
 0.01459087 0.01480576 0.01502445 0.01524567 0.01547291 0.01571788 0.01597995 0.01626381 0.01656673 0.01688956
 0.01722105 0.01755065 0.01786593 0.01814943 0.01841112 0.01864769 0.0188843 0.01912971 0.01939772 0.01969293
 0.02002339 0.02039075 0.02080241 0.02126075 0.02174608 0.02225731 0.02275034 0.02322358 0.02364601 0.02401755
 0.0243221 0.02455943 0.02471523 0.02480021 0.02482786 0.02481746 0.0248111 0.02480481 0.02481573 0.02481874
 0.02479395 0.02474427 0.0246602 0.02457046 0.02448769 0.02441144 0.02434849 0.0242674 0.02416432 0.02401612
 0.02381956 0.02357074 0.02326938 0.02293835 0.02258161 0.02225592 0.02196324 0.02174885 0.02160168 0.02150828
 0.02145524 0.02140223 0.02134885 0.02127616 0.02118926 0.02108692 0.02097353 0.02085271 0.02072538 0.02059856
 0.02045015 0.02027622 0.02004805 0.01975016 0.01941049 0.01902552 0.01866865 0.01834886 0.01808241 0.01787052
 0.01764675 0.01740867 0.01710607 0.01674514 0.01633759 0.015889 0.0154233 0.01494545 0.01447368 0.01402333
 0.01362763 0.01329585 0.01305779 0.01289561 0.01280986 0.01276792 0.01275346 0.01274162 0.012718 0.01267776
 0.01261407 0.01254522 0.01247263 0.01241544 0.01237694 0.01234805 0.01232842</values></Ydata></AB><ScSm><Ydata ylabel="Single channel"><values byteorder="INTEL" format="FLOAT32" numvalues="1814"> 0.07205447 0.07205591 0.07212591 0.07229069 0.07251534 0.07272837 0.0728744 0.07294722 0.07296837 0.07294673
 0.07288921 0.07284696 0.07290239 0.07308665 0.07333101 0.07351368 0.07355566 0.07349093 0.07344969 0.07353326
 0.07367559 0.07365959 0.07331961 0.0727326 0.0721698 0.07184546 0.07178013 0.07196017 0.07247612 0.07327232
 0.07385902 0.07366262 0.0727506 0.07186717 0.07160638 0.07183841 0.07205991 0.0719762 0.07159287 0.07109439
 0.07088922 0.07150501 0.07307235 0.07489018 0.075673 0.07436337 0.07089026 0.06640856 0.06286938 0.0619734
 0.06397375 0.0673341 0.06988141 0.07054141 0.06985477 0.06887268 0.06802213 0.06724523 0.06674036 0.06700628
 0.06815544 0.06944618 0.06966696 0.06817461 0.06565608 0.06363876 0.06309544 0.06383383 0.06531309 0.06723815
 0.06873132 0.06785268 0.06350149 0.05783931 0.05533659 0.05852515 0.0652983 0.0709746 0.07246815 0.07002354
 0.0658596 0.06232418 0.06101091 0.06233001 0.06542715 0.06889191 0.0716183 0.07286446 0.07205866 0.06928986
 0.06580189 0.06339921 0.06334165 0.06584547 0.07003041 0.07399701 0.07569114 0.07442082 0.07131702 0.06813638
 0.06610089 0.06589882 0.06786023 0.07161538 0.07606782 0.08002839 0.08270381 0.08377957 0.08348404 0.08244295
 0.08120319 0.08014084 0.079795 0.08053944 0.08170411 0.08182433 0.08023456 0.0779568 0.07664801 0.07688477
 0.07770115 0.07776342 0.07671963 0.07499285 0.0724695 0.0684617 0.06329539 0.05874437 0.05626 0.055861
 0.05718641 0.06006608 0.06327958 0.06448005 0.06276444 0.0603181 0.06025032 0.06327671 0.06734906 0.07015486
 0.07125707 0.07193023 0.07351454 0.07604621 0.07808881 0.07781394 0.07481042 0.07111236 0.06976941 0.07185515
 0.07543111 0.07793213 0.07887422 0.07958394 0.08087444 0.08178456 0.08057957 0.07681242 0.07244091 0.07062541
 0.07297741 0.07794348 0.08192908 0.08196114 0.07769141 0.07147561 0.06653345 0.06471986 0.06602548 0.06980035
 0.07547209 0.08190563 0.0871082 0.08934537 0.08840665 0.08550334 0.08188243 0.07767183 0.07254714 0.06766024
 0.06586997 0.06904213 0.07566854 0.08212511 0.0859032 0.08686001 0.085816 0.08301382 0.07834606 0.07283893
 0.06914376 0.06948568 0.07298858 0.07616538 0.07656784 0.07502066 0.07383617 0.07392694 0.07445817 0.07461824
 0.0747745 0.07584213 0.07797699 0.08021635 0.0814112 0.08127607 0.08044586 0.07973241 0.07938494 0.07890984
 0.0777639 0.0764308 0.07637463 0.07844312 0.08170803 0.08441704 0.08575121 0.08613342 0.08607069 0.08525781
 0.08302632 0.07961741 0.07670212 0.07614497 0.07820205 0.08136211 0.08391943 0.08519848 0.08538879 0.08492874
 0.08420742 0.08343926 0.08273209 0.08236836 0.08273348 0.08377662 0.08488093 0.08548327 0.08554297 0.08527289
 0.08473089 0.08388132 0.08288133 0.08210951 0.08189712 0.08227459 0.08299574 0.08376049 0.0843356 0.08452912
 0.08425291 0.08365379 0.08302271 0.08253238 0.08218862 0.08201997 0.08212642 0.08249831 0.08293769 0.08323022
 0.08331376 0.0832441 0.08307521 0.08282394 0.08251084 0.08219902 0.0819944 0.08198301 0.08213688 0.08232272
 0.08245166 0.08256602 0.08271331 0.08280593 0.08271025 0.08243804 0.08215349 0.0820011 0.08199218 0.08204642
 0.08207321 0.08198901 0.08171409 0.08124126 0.08072622 0.0804296 0.08050828 0.08089893 0.08142093 0.08191667
 0.08227627 0.08243971 0.08243909 0.08236991 0.08227833 0.08212477 0.08187762 0.0816061 0.08146068 0.0815571
 0.08186722 0.08223587 0.0825161 0.08266354 0.08270726 0.08270099 0.08271407 0.08278684 0.08286782 0.08286152
 0.08275679 0.08265343 0.08264858 0.08273345 0.08281063 0.08279925 0.08272234 0.08268331 0.08275156 0.08289459
 0.08303405 0.08313689 0.08322822 0.08333187 0.08341697 0.08341235 0.083288 0.08311214 0.08299182 0.08296215
 0.08297817 0.08300938 0.08308315 0.08321944 0.08337051 0.08345892 0.08346078 0.08342649 0.08341309 0.08341181
 0.08336247 0.08323438 0.08306792 0.08293165 0.08286026 0.08284082 0.08283886 0.08282392 0.08277749 0.08269251
 0.08257291 0.08243085 0.08227904 0.08213064 0.08201325 0.08196689 0.08200168 0.08205886 0.08204055 0.08189487
 0.08166608 0.08145156 0.08130986 0.08121562 0.08110383 0.08094526 0.08076793 0.08061524 0.08050478 0.08042619
 0.08035865 0.08028686 0.08022046 0.08020562 0.08029339 0.08047549 0.08066511 0.08076807 0.08077101 0.08074154
 0.0807496 0.08081187 0.0809053 0.0810069 0.08111756 0.08125848 0.08143627 0.08161008 0.08172103 0.08176447
 0.08180341 0.08190125 0.08207184 0.08229505 0.08253528 0.08273718 0.08285328 0.08289997 0.08295299 0.08306861
 0.08323222 0.08339573 0.08353916 0.08367744 0.08382739 0.08399515 0.08419177 0.08443832 0.08474483 0.08508864
 0.08541764 0.08568083 0.0858694 0.08603527 0.08625873 0.08658443 0.08698484 0.08738651 0.08773118 0.08801674
 0.08828375 0.08856504 0.08885822 0.08915459 0.08947445 0.08984593 0.09025873 0.09067011 0.0910553 0.09142618
 0.09180239 0.09218733 0.09257551 0.09296888 0.09338194 0.09382835 0.09429485 0.0947336 0.09509853 0.09539203
 0.09566611 0.09598014 0.09636027 0.09678045 0.09716998 0.0974642 0.09767392 0.09788793 0.09817965 0.0985258
 0.09884802 0.09912275 0.09940863 0.09976089 0.1001568 0.1005273 0.1008392 0.1011229 0.1014247 0.1017499
 0.102055 0.10229 0.102451 0.1025842 0.1027397 0.1029351 0.1031768 0.103487 0.103875 0.1042956
 0.1046731 0.1049635 0.105174 0.1053345 0.1054799 0.1056419 0.1058302 0.1060272 0.1062148 0.1063881
 0.1065369 0.106651 0.106756 0.1069078 0.1071328 0.1074079 0.1077121 0.1080582 0.108449 0.1088406
 0.109192 0.1095297 0.1099188 0.1103641 0.110781 0.1110827 0.1112633 0.1113761 0.1114662 0.1115667
 0.1117295 0.1120042 0.1123829 0.1128017 0.1132014 0.1135652 0.1139015 0.1142149 0.1144946 0.1147211
 0.1148827 0.114993 0.1150903 0.1152194 0.1154129 0.1156768 0.1159827 0.1162782 0.1165144 0.1166612
 0.116695 0.1166018 0.1164104 0.1161993 0.1160309 0.1158785 0.1156422 0.1152371 0.1146469 0.1138965
 0.1130087 0.1120038 0.1109271 0.1098586 0.1088931 0.1081128 0.1075757 0.107328 0.1074111 0.1078337
 0.1085277 0.1093455 0.1101144 0.1106885 0.1109581 0.1108489 0.1103476 0.1095228 0.1084981 0.1074003
 0.106326 0.1053298 0.1044227 0.1036033 0.1029218 0.1025097 0.1025309 0.1030993 0.1042382 0.1058885
 0.1079227 0.1101536 0.1123703 0.1144028 0.1161737 0.1176911 0.1190049 0.1201772 0.1212712 0.1223253
 0.123325 0.1242269 0.1250177 0.1257292 0.1263904 0.1269878 0.1274807 0.1278373 0.1280562 0.1281679
 0.128216 0.12823 0.1282218 0.1282086 0.1282139 0.12823 0.1281964 0.1280307 0.1276791 0.1271454
 0.1264989 0.1258811 0.1255068 0.1256367 0.1264921 0.1281309 0.1303776 0.1328909 0.1353224 0.1374355
 0.139129 0.1404132 0.1413764 0.1421375 0.1427946 0.1434034 0.1439861 0.1445466 0.1450807 0.1455871
 0.1460721 0.1465471 0.1470249 0.147513 0.1480027 0.1484704 0.1489008 0.1493085 0.1497274 0.1501787
 0.1506509 0.151114 0.1515554 0.1519938 0.1524458 0.1528916 0.1532931 0.1536438 0.1539785 0.154339
 0.1547467 0.1551985 0.1556648 0.1560966 0.1564595 0.1567652 0.157057 0.1573688 0.157705 0.1580541
 0.1584063 0.1587578 0.1591084 0.159463 0.1598307 0.1602122 0.1605857 0.1609151 0.1611834 0.1614155
 0.1616578 0.161937 0.1622407 0.1625402 0.1628293 0.1631355 0.1634896 0.1638853 0.1642771 0.1646191
 0.1649012 0.165149 0.1653963 0.1656634 0.165955 0.1662676 0.1665921 0.1669142 0.1672221 0.1675155
 0.1678053 0.1681021 0.168408 0.1687169 0.1690209 0.1693169 0.1696093 0.1699047 0.1702093 0.1705309
 0.1708769 0.1712388 0.1715878 0.1718949 0.1721552 0.1723872 0.1726133 0.1728478 0.1730978 0.1733657
 0.1736492 0.1739429 0.1742405 0.1745374 0.1748322 0.1751273 0.1754251 0.1757255 0.1760254 0.1763206
 0.1766098 0.1768974 0.1771905 0.1774918 0.1777958 0.1780955 0.1783895 0.1786822 0.1789768 0.1792683
 0.1795468 0.1798099 0.1800677 0.1803322 0.1806062 0.1808855 0.1811674 0.1814492 0.1817259 0.181995
 0.1822632 0.1825401 0.1828269 0.1831152 0.1833957 0.1836682 0.1839396 0.1842151 0.1844946 0.1847767
 0.1850618 0.1853486 0.1856353 0.1859229 0.1862135 0.1865033 0.1867835 0.1870486 0.1873008 0.1875477
 0.1877974 0.1880552 0.1883222 0.1885964 0.1888738 0.1891493 0.1894227 0.1896993 0.1899816 0.1902654
 0.1905482 0.190833 0.1911211 0.1914094 0.1916978 0.1919874 0.1922737 0.1925513 0.192822 0.1930926
 0.1933674 0.1936468 0.1939293 0.194213 0.1944987 0.1947867 0.1950698 0.1953382 0.1955925 0.1958422
 0.1960946 0.1963515 0.1966119 0.1968729 0.1971342 0.1974022 0.1976813 0.1979658 0.1982473 0.1985247
 0.1987999 0.1990753 0.1993544 0.1996378 0.1999206 0.2002013 0.2004825 0.2007618 0.201035 0.2013071
 0.2015879 0.2018796 0.2021778 0.2024772 0.2027704 0.2030524 0.203326 0.2035954 0.203861 0.2041284
 0.2044064 0.2046939 0.2049828 0.2052699 0.2055537 0.2058311 0.2061063 0.2063881 0.2066737 0.2069536
 0.2072261 0.2074936 0.2077565 0.2080219 0.2082993 0.2085844 0.2088673 0.2091484 0.2094298 0.2097058
 0.2099756 0.2102459 0.2105161 0.2107829 0.2110511 0.2113226 0.2115917 0.2118599 0.2121305 0.2123813
 0.2125533 0.2125087 0.2119094 0.2100874 0.2060356 0.1986159 0.1870149 0.1712614 0.1523983 0.1321122
 0.1121122 0.09369062 0.07760334 0.06417726 0.05347944 0.04542368 0.03983449 0.03655852 0.03558469 0.03716718
 0.04195704 0.05061619 0.06236053 0.07366692 0.07964165 0.07788445 0.07078587 0.06334876 0.05902915 0.05806549
 0.05897439 0.06049366 0.06222874 0.06441481 0.06744652 0.07143004 0.07617101 0.08166513 0.08833258 0.09648696
 0.105701 0.1149857 0.1236423 0.1318115 0.140142 0.1490113 0.1581316 0.1668317 0.1745867 0.1812824
 0.1871274 0.1924237 0.1973898 0.2021212 0.206646 0.2109424 0.214857 0.2180626 0.2202073 0.2211831
 0.2212571 0.2209213 0.2206013 0.220492 0.2206124 0.2209326 0.2214305 0.2220877 0.2228845 0.2237932
 0.2247701 0.2257682 0.2267592 0.2277303 0.2286693 0.2295603 0.2303872 0.2311369 0.2318081 0.2324157
 0.2329785 0.2335056 0.233999 0.2344595 0.2348894 0.2352971 0.235697 0.2360935 0.2364717 0.2368115
 0.2371051 0.2373613 0.2376013 0.2378488 0.2381133 0.2383854 0.2386521 0.2389116 0.2391682 0.2394245
 0.239681 0.2399367 0.2401866 0.2404282 0.2406651 0.2408994 0.2411283 0.2413527 0.2415811 0.2418174
 0.2420561 0.2422929 0.2425296 0.242767 0.243001 0.2432281 0.2434503 0.2436744 0.2439066 0.2441472
 0.2443945 0.2446514 0.2449209 0.2451965 0.2454696 0.2457403 0.2460095 0.2462709 0.2465235 0.246777
 0.2470301 0.2472593 0.2474466 0.2476099 0.2477932 0.2480275 0.2483027 0.2485803 0.2488336 0.2490702
 0.2493107 0.2495596 0.2498047 0.2500317 0.2502399 0.2504556 0.2507158 0.2510244 0.2513431 0.2516407
 0.2519216 0.2521986 0.2524728 0.2527473 0.2530203 0.2532634 0.253446 0.253593 0.2537906 0.254118
 0.2545684 0.2550403 0.2554275 0.2557138 0.2559604 0.2562269 0.2565348 0.256856 0.2570865 0.2571145
 0.2569964 0.2569923 0.2573265 0.2579614 0.2586682 0.259263 0.2597135 0.2600766 0.2604023 0.2606832
 0.2608614 0.2608925 0.2608364 0.2608781 0.2611981 0.261789 0.2624485 0.262987 0.2633717 0.2636543
 0.2638727 0.2640556 0.2641758 0.2640717 0.2636179 0.2630523 0.262925 0.2635642 0.2647039 0.2657685
 0.2664456 0.2668468 0.2671836 0.2675015 0.2677463 0.2678152 0.2674263 0.2662797 0.2646495 0.2635489
 0.2638951 0.2655854 0.2676663 0.2692834 0.2702177 0.2706792 0.2709433 0.2711663 0.2712663 0.2709283
 0.2699596 0.2687627 0.2682308 0.268918 0.2704119 0.2717743 0.2724972 0.2727694 0.2729709 0.2732514
 0.273434 0.2729691 0.271244 0.2684857 0.2662178 0.2661917 0.2686722 0.2721189 0.2747117 0.2759162
 0.276343 0.276414 0.2757437 0.2738433 0.2708619 0.2675232 0.2648973 0.2642491 0.2661988 0.2696793
 0.2725452 0.2736878 0.2739712 0.2748137 0.2764973 0.2781779 0.2789811 0.278681 0.2775486 0.2758685
 0.2738012 0.2718311 0.2710372 0.2723267 0.2753313 0.2785394 0.2806947 0.2817465 0.2821887 0.2815955
 0.2783347 0.2715352 0.2635376 0.2592418 0.261779 0.2692342 0.2767021 0.2811123 0.2829062 0.28372
 0.2841932 0.2838005 0.2811643 0.2748098 0.265496 0.2576748 0.2564772 0.2626376 0.2716575 0.2780014
 0.278867 0.2744777 0.2670796 0.2602668 0.2575186 0.2600958 0.2664903 0.2739111 0.2799563 0.2832732
 0.2835496 0.2813885 0.2782614 0.2761444 0.2760878 0.2766634 0.275049 0.2705862 0.2658687 0.2629317
 0.2601076 0.2551197 0.2500844 0.2501064 0.2566405 0.2650546 0.2698323 0.2701604 0.2689328 0.2674927
 0.2633517 0.2537855 0.2409897 0.2321669 0.2332133 0.2425966 0.2527225 0.2573561 0.2565646 0.2544996
 0.2538653 0.2531902 0.2489592 0.2402327 0.2309763 0.226748 0.2288166 0.2330398 0.2347771 0.2326013
 0.2267008 0.2173889 0.2077398 0.2045432 0.212562 0.2286837 0.2443558 0.2526225 0.2506717 0.2383069
 0.2188835 0.2012891 0.1956259 0.2041894 0.2186904 0.227878 0.2264816 0.2161697 0.2007166 0.1833837
 0.1683834 0.1613782 0.1660959 0.1805496 0.1971508 0.2065379 0.202745 0.1877801 0.1719438 0.1664211
 0.1731624 0.1835767 0.1881659 0.1851348 0.1790658 0.174952 0.1752748 0.1796383 0.185223 0.1894012
 0.1918405 0.1916433 0.1845244 0.1680147 0.1484825 0.1369711 0.137705 0.1459054 0.1566634 0.1693187
 0.1816906 0.187074 0.181789 0.1721492 0.1691017 0.1766247 0.1883343 0.1953298 0.1950544 0.1917755
 0.1900381 0.1897965 0.1886997 0.1874002 0.189765 0.1974423 0.2068811 0.2132712 0.215554 0.2159438
 0.2162049 0.2163275 0.2158123 0.2144888 0.2124397 0.2101249 0.208248 0.2070059 0.2059277 0.2046016
 0.2026833 0.1988602 0.1911637 0.1797577 0.1686774 0.1626861 0.1622995 0.1640551 0.1656526 0.1673365
 0.1671719 0.1596589 0.1429917 0.1250471 0.117657 0.1251868 0.1413098 0.1562427 0.1642147 0.1639069
 0.155536 0.1412182 0.1275619 0.1235962 0.1333406 0.1519183 0.1708059 0.1851892 0.1944284 0.1979597
 0.1945594 0.1854635 0.1755714 0.1706616 0.1739143 0.1844895 0.1977225 0.2062369 0.2035616 0.1906272
 0.1787291 0.1811618 0.1991463 0.2196454 0.230003 0.230799 0.230589 0.2326424 0.2333681 0.2317346
 0.232994 0.2414589 0.2541081 0.2635334 0.264422 0.2556388 0.2395032 0.2222696 0.2125176 0.2143441
 0.2228172 0.2294368 0.2304132 0.2261546 0.2162137 0.2014197 0.1892647 0.1893857 0.2023706 0.2184363
 0.2285507 0.2326602 0.2356405 0.2388606 0.2385133 0.2313962 0.2202744 0.2121707 0.211403 0.2157876
 0.2202776 0.2222596 0.2216131 0.2177341 0.2099094 0.2005817 0.1953544 0.1981479 0.207178 0.2166654
 0.2220441 0.2228425 0.2212667 0.2194138 0.2178842 0.2159838 0.2131356 0.2106928 0.2116669 0.2174277
 0.2253869 0.2315987 0.2352517 0.2389131 0.2444878 0.2505663 0.2541137 0.2537782 0.251202 0.2496243
 0.2512922 0.2556566 0.2597588 0.2607395 0.258551 0.2562566 0.2572132 0.26187 0.2677075 0.2721116
 0.2745168 0.2758449 0.2769501 0.2778884 0.2778898 0.2759466 0.2722632 0.269109 0.2692212 0.2730965
 0.278518 0.2828321 0.2850656 0.2857921 0.285719 0.2849283 0.2832865 0.2811315 0.2792872 0.2784295
 0.2786139 0.2794454 0.2805065 0.281535 0.2823926 0.2830507 0.2835607 0.2839677 0.2842869 0.284555
 0.2848073 0.2849925 0.2850226 0.2849434 0.2849562 0.2851961 0.2855569 0.2858066 0.2858043 0.2855101
 0.2848518 0.2837404 0.2822214 0.2804727 0.2786052 0.2765853 0.274474 0.2727023 0.2719572 0.2726704
 0.2746133 0.2770337 0.2791835 0.2806986 0.2815768 0.2819695 0.2820544 0.2820023 0.2819364 0.2818926
 0.2818382 0.2817337 0.2815696 0.2813552 0.2811049 0.2808501 0.2806443 0.2805264 0.2804789 0.2804331
 0.2803127 0.2800733 0.2797186 0.279292 0.2788353 0.2783408 0.2777467 0.2769878 0.276053 0.2749997
 0.2739213 0.2728975 0.271952 0.2710433 0.2701006 0.269072 0.2679225 0.2666023 0.2650782 0.2634237
 0.2618164 0.2603964 0.2591524 0.257971 0.2567543 0.2554571 0.2540616 0.2525717 0.2510198 0.2494473
 0.2478742 0.2462915 0.2446734 0.2429977 0.2412589 0.2394618 0.2376069 0.2356902 0.233716 0.2316954
 0.2296208 0.2274321 0.2250101 0.2222104 0.2189109 0.2150386 0.210583 0.2056189 0.2003119 0.194879
 0.1895261 0.1844116 0.1796537 0.1753581 0.1716307 0.1685587 0.1661836 0.1645064 0.16352 0.1632267
 0.1636267 0.1646959 0.1663648 0.168512 0.1709822 0.1736143 0.1762543 0.1787651 0.1810611 0.1831465
 0.1851026 0.1870134 0.1888927 0.1906863 0.1923408 0.1938405 0.1951728 0.1963014 0.1972097 0.1979405
 0.198559 0.1990956 0.1995455 0.1999029 0.2001752 0.2003793 0.2005374 0.2006755 0.2008269 0.2010351
 0.2013359 0.2017354 0.2022211 0.2027888 0.2034424 0.2041739 0.2049586 0.2057699 0.2065934 0.2074321
 0.2082986 0.209207 0.2101848 0.2112848 0.2125636 0.214042 0.2156946 0.2174673 0.2192913 0.2210856
 0.222763 0.2242432 0.2254759 0.2264589 0.2272243 0.2277987 0.2281876 0.2283953 0.2284407 0.2283505
 0.2281513 0.2278656 0.227512 0.2271059 0.2266586 0.2261687 0.2256296 0.2250508 0.2244594 0.2238761
 0.2233062 0.2227557 0.2222377 0.2217586 0.2213073 0.220855 0.2203706 0.2198483 0.219313 0.2187844
 0.2182477 0.2176695 0.217025 0.2162977 0.2154718 0.214537 0.2134887 0.2123235 0.2110469 0.2096775
 0.2082345 0.2067253 0.2051457 0.2034875 0.2017469 0.1999233 0.1980039 0.1959636 0.1938065 0.1915981
 0.1894306 0.1873662 0.1854279 0.1836178 0.1819185 0.1802998 0.1787425 0.1772462 0.175815 0.1744539
 0.1731718 0.1719684 0.170828 0.1697389 0.1687089 0.1677575 0.1669046 0.1661624 0.165528 0.1649872
 0.1645242 0.1641222 0.1637693 0.1634809 0.1632929 0.1632074 0.1631598 0.163064 0.162882 0.162639
 0.1623881 0.1621694 0.1619925 0.1618425 0.1616928 0.1615091 0.1612445 0.1608381 0.1602109 0.1592763
 0.1579862 0.1563752 0.1545454 0.1526157 0.1507002 0.1489102 0.1473414 0.1460549 0.1450669 0.1443367
 0.143776 0.143301 0.1428886 0.1425835 0.1424538 0.1425132 0.1426597 0.1427281 0.1426505 0.1425381
 0.1425736 0.1428561 0.1433608 0.1439831 0.1445938 0.1450955 0.1454526 0.1456659 0.1457418 0.1457008
 0.1455748 0.1453822 0.1451262 0.1448106 0.1444363 0.1440048 0.1435314 0.1430243 0.1424557 0.1417907
 0.1410231 0.1401617 0.1392172 0.1382076 0.1371242 0.1359221 0.1346263 0.1334307 0.1326189 0.1323805
 0.1327067 0.1334152 0.1342787 0.135164 0.1359998 0.1366074 0.1367605 0.1365618 0.1366128 0.1375697
 0.1395087 0.141839 0.1438283 0.1451066 0.1456758 0.1456408 0.1450832 0.1440775 0.1426503 0.1407622
 0.1384231 0.135744 0.1328394 0.1298221 0.1268978 0.1242953 0.1221167 0.120353 0.1189675 0.1179835
 0.1175316 0.1172636 0.115363 0.1094963 0.1004283 0.09364919 0.09476604 0.1031764 0.1124668 0.1171935
 0.1172402 0.1155458 0.1141088 0.1131967 0.1126894 0.1127405 0.1134922 0.1147945 0.1162374 0.1174111
 0.1181661 0.1185514 0.1185173 0.1177143 0.1154585 0.1109453 0.1038897 0.09512445 0.08632545 0.07902105
 0.07390657 0.07087786 0.06935631 0.06861575 0.0681397 0.06786284 0.06807029 0.06905235 0.07085934 0.07334768
 0.07633847 0.07959989 0.08273987 0.08535166 0.08732709 0.08886036 0.09010632 0.09099214 0.09138041 0.09125969
 0.09073961 0.08996668 0.08907688 0.08815935 0.08721224 0.08615423 0.08495745 0.08379675 0.08297074 0.08261178
 0.08256747 0.0826131 0.08265698 0.08269896 0.082734 0.08275692 0.08277746 0.08282465 0.0829788 0.08333015
 0.08385147 0.08438274 0.08477587 0.08500634 0.08514403 0.08522674 0.08514035 0.08470762 0.08399345 0.08335719
 0.08299367 0.08259384 0.08175142 0.08059052 0.07969426 0.07945761 0.07973967 0.0801176 0.08027827 0.08016145
 0.07992156 0.07984758 0.08017866 0.08083023</values></Ydata></ScSm><ScRf><Ydata ylabel="Single channel"><values byteorder="INTEL" format="FLOAT32" numvalues="1820"> 0.06080932 0.06097332 0.06107344 0.06110901 0.06110514 0.06110931 0.06117296 0.06131704 0.06151161 0.06169296
 0.06181039 0.06185986 0.06186495 0.06183537 0.06177493 0.06172777 0.06177039 0.06193399 0.06215568 0.06232228
 0.06236126 0.06230271 0.06225929 0.06231668 0.06241944 0.06238832 0.06208828 0.06158398 0.06110015 0.06081601
 0.06075285 0.06090476 0.0613509 0.06204194 0.06255622 0.06239836 0.06161966 0.06085335 0.06061089 0.06078985
 0.06096803 0.06089529 0.06057058 0.06014333 0.05995978 0.06047443 0.06180331 0.06334893 0.06401162 0.0628856
 0.0599107 0.05607934 0.05306417 0.0523143 0.05403467 0.05690718 0.05908069 0.05964368 0.05905772 0.05821963
 0.0574966 0.05683836 0.05640573 0.05661739 0.0575735 0.05865161 0.0588234 0.05754016 0.05538938 0.0536761
 0.05322595 0.0538657 0.05512851 0.05676309 0.05802236 0.05725493 0.05353142 0.04870562 0.04658957 0.04933137
 0.05512432 0.05997113 0.06123674 0.05913193 0.05556394 0.05255127 0.05144758 0.05257702 0.0551949 0.05811007
 0.06040227 0.061449 0.06075928 0.05840542 0.05544815 0.05342336 0.0533968 0.05554309 0.05910705 0.06247333
 0.06390022 0.06280361 0.06014535 0.0574199 0.05567282 0.05549646 0.05717032 0.06037253 0.06416629 0.06754006
 0.06981678 0.07072511 0.07046254 0.06957214 0.0685266 0.06764264 0.06736757 0.0680071 0.06898536 0.06906324
 0.0676918 0.06575289 0.06465141 0.064862 0.06555207 0.06558938 0.06468508 0.06320743 0.06105958 0.05765034
 0.05325346 0.04938038 0.04726992 0.04694086 0.04808843 0.05056717 0.05333174 0.05437614 0.05292793 0.05084683
 0.05077837 0.0533322 0.05676974 0.05912808 0.06003833 0.06059041 0.06193366 0.06410191 0.06586243 0.06564354
 0.06309005 0.05994147 0.05880236 0.06058519 0.06363368 0.06576423 0.06657255 0.06719515 0.06832394 0.06913348
 0.06814136 0.0649711 0.06129671 0.05980181 0.06183643 0.06606433 0.06943481 0.0694372 0.06579013 0.06050763
 0.05633277 0.054837 0.05600335 0.05928214 0.06419754 0.06978535 0.07433484 0.07634493 0.07561286 0.07316288
 0.07007192 0.06646873 0.06208695 0.05792221 0.05644111 0.05925423 0.06505561 0.07071026 0.07405217 0.07496411
 0.0741537 0.0718137 0.06783324 0.06310882 0.05997246 0.06037834 0.06355138 0.06642614 0.06685559 0.06556934
 0.06460391 0.06476519 0.06532037 0.06555657 0.06580276 0.06687075 0.06889474 0.07101589 0.07221183 0.07222392
 0.07160778 0.07108171 0.07087075 0.07054046 0.06961688 0.06854934 0.06865364 0.0706695 0.07373653 0.07627501
 0.07756826 0.07802081 0.07809509 0.07749589 0.07558991 0.07258735 0.07002969 0.06964799 0.07168858 0.07475434
 0.07725745 0.0785657 0.07886077 0.0785611 0.07803404 0.0774802 0.07699889 0.0768429 0.07735234 0.07847029
 0.079633 0.08033195 0.08052792 0.08040022 0.07999078 0.07928175 0.0784511 0.07786711 0.07782446 0.07832906
 0.07914665 0.08000822 0.08070024 0.08102886 0.08089289 0.08043113 0.07994163 0.07961178 0.07944776 0.07945734
 0.07971933 0.08022328 0.08078401 0.08119307 0.08138362 0.08141014 0.08133678 0.08119065 0.08099151 0.08079776
 0.0807173 0.08083725 0.08111752 0.08140978 0.08162996 0.0818442 0.08211531 0.0823428 0.08236405 0.0821753
 0.08195192 0.08186062 0.08192401 0.08206028 0.0821768 0.0821913 0.08202276 0.08165927 0.08125205 0.08105894
 0.08123828 0.08173651 0.08238336 0.08301501 0.0834976 0.08375171 0.08381206 0.08378938 0.08373883 0.08362098
 0.08340714 0.08317651 0.08308979 0.08326827 0.08368474 0.08417684 0.08457826 0.08482111 0.08492619 0.084966
 0.085044 0.08521797 0.08541366 0.08549096 0.08542242 0.08533928 0.08537376 0.08550643 0.08559985 0.0855628
 0.08545718 0.08543459 0.08557541 0.08581553 0.0860358 0.086193 0.08634276 0.08654381 0.08675504 0.08684702
 0.08674122 0.08651913 0.08634454 0.08628944 0.08630279 0.08634405 0.08645475 0.08666364 0.08689339 0.08702565
 0.08703634 0.08701755 0.08705983 0.08714364 0.08716579 0.08705787 0.08685777 0.08667174 0.08658859 0.08662646
 0.08673323 0.08682498 0.08683868 0.08676795 0.08665402 0.0865422 0.08645156 0.08639312 0.08640578 0.08654074
 0.08678517 0.08701741 0.08707896 0.08691509 0.08663677 0.0864258 0.08637105 0.0864002 0.08636904 0.08620273
 0.0859437 0.08568408 0.08548154 0.08533847 0.0852318 0.08514664 0.08509646 0.08512136 0.08524582 0.08541697
 0.08550701 0.08541603 0.08517137 0.08489955 0.08470911 0.08462437 0.08460876 0.08461237 0.08461019 0.08462424
 0.08468869 0.08477621 0.08480047 0.08471885 0.08459446 0.0845343 0.08460242 0.08479473 0.08503987 0.08521484
 0.08522554 0.08510171 0.08497326 0.08493941 0.08499376 0.08507852 0.08516315 0.08525045 0.08534291 0.08543919
 0.08555626 0.08572744 0.08596683 0.08624086 0.08648182 0.08663659 0.08671243 0.08678155 0.08693226 0.08720216
 0.08754982 0.08788809 0.0881502 0.08833504 0.08849381 0.08867003 0.08886203 0.0890557 0.08927354 0.08955492
 0.08989431 0.09023716 0.09054118 0.09081298 0.0910821 0.0913652 0.09166379 0.09198406 0.09234878 0.09277575
 0.09323194 0.09362625 0.09387948 0.09400477 0.09410401 0.09428978 0.0946095 0.09501104 0.09536639 0.0955701
 0.09564738 0.09573588 0.09593353 0.09619955 0.09644126 0.09666006 0.09695198 0.09736988 0.09783828 0.09822337
 0.09846345 0.09861396 0.09877343 0.09897839 0.09917644 0.09930328 0.0993683 0.09944105 0.0995633 0.09972119
 0.099913 0.1001886 0.1005798 0.1010278 0.1014256 0.1017148 0.1019106 0.1020537 0.1021701 0.1022628
 0.1023186 0.1023365 0.1023559 0.1024264 0.1025405 0.1026338 0.1026697 0.1026895 0.1027602 0.1029083
 0.1031254 0.1034008 0.1037131 0.1040148 0.104276 0.1045386 0.1048742 0.1052706 0.1056064 0.1057763
 0.1058058 0.1058001 0.1058147 0.1058393 0.1058877 0.1060227 0.1062785 0.1066127 0.1069607 0.1073005
 0.1076451 0.1079936 0.1083094 0.1085388 0.1086489 0.1086556 0.1086224 0.1086308 0.1087429 0.1089733
 0.1092824 0.109602 0.1098778 0.110082 0.110192 0.1101913 0.1101181 0.1100806 0.1101727 0.11037
 0.1105378 0.1105465 0.110354 0.1099839 0.1094672 0.1088337 0.1081394 0.1074717 0.1069161 0.10652
 0.1062957 0.1062589 0.1064478 0.1068813 0.1075021 0.10819 0.1088349 0.1093642 0.1096976 0.1097343
 0.1094256 0.1088368 0.1081052 0.1073548 0.1066595 0.1060402 0.1054662 0.1048956 0.1043635 0.1040217
 0.1040655 0.1046167 0.1056659 0.1070791 0.1086374 0.1101077 0.111336 0.1123032 0.113093 0.1138017
 0.1144788 0.1151421 0.1158113 0.1164938 0.11715 0.1177197 0.1181887 0.1186014 0.1190026 0.1193935
 0.1197451 0.1200318 0.1202542 0.1204459 0.1206422 0.1208259 0.1209286 0.1209094 0.1208073 0.1206925
 0.1205836 0.1204341 0.1201827 0.1198066 0.1193523 0.1189468 0.118773 0.118997 0.1196773 0.120728
 0.12198 0.1232871 0.1245647 0.1257373 0.1267041 0.1273945 0.1278372 0.1281384 0.1284003 0.1286742
 0.12897 0.1292795 0.1295884 0.1298833 0.1301607 0.1304342 0.1307328 0.1310762 0.1314415 0.1317696
 0.1320231 0.1322344 0.1324838 0.1328227 0.133223 0.1336097 0.1339428 0.1342523 0.1345774 0.1348958
 0.1351462 0.1353133 0.1354555 0.1356479 0.1359276 0.1362862 0.1366757 0.137023 0.1372763 0.1374497
 0.1376056 0.1377914 0.1380106 0.1382474 0.138493 0.1387435 0.1389943 0.1392524 0.13954 0.1398649
 0.1401869 0.1404388 0.1405937 0.1407001 0.140836 0.1410357 0.1412696 0.1414886 0.1416804 0.1418848
 0.1421535 0.1424902 0.1428326 0.1431039 0.1432791 0.1433957 0.14351 0.1436563 0.1438402 0.1440506
 0.1442706 0.1444855 0.1446907 0.1448921 0.1450971 0.1453058 0.1455139 0.1457197 0.1459244 0.1461293
 0.1463354 0.1465441 0.1467603 0.1469956 0.1472634 0.1475577 0.1478431 0.1480783 0.1482515 0.1483825
 0.1484987 0.1486196 0.1487584 0.1489234 0.1491148 0.1493253 0.149545 0.1497646 0.1499791 0.1501888
 0.1503979 0.1506096 0.1508246 0.1510423 0.1512629 0.1514905 0.1517273 0.1519651 0.1521872 0.1523848
 0.1525664 0.1527506 0.1529495 0.1531582 0.153358 0.1535358 0.1537005 0.1538745 0.1540689 0.1542734
 0.1544721 0.1546618 0.154852 0.1550517 0.1552598 0.1554673 0.1556668 0.1558579 0.156046 0.1562375
 0.1564346 0.1566331 0.1568252 0.1570086 0.1571887 0.1573731 0.1575662 0.1577698 0.1579812 0.158192
 0.1583945 0.1585887 0.1587805 0.1589745 0.1591713 0.1593698 0.1595703 0.1597751 0.1599848 0.1601945
 0.1603996 0.160602 0.1608065 0.1610141 0.1612249 0.161441 0.1616601 0.1618728 0.1620732 0.1622671
 0.1624672 0.1626809 0.1629035 0.1631238 0.1633355 0.1635438 0.1637565 0.1639716 0.1641801 0.1643759
 0.1645593 0.1647359 0.1649135 0.165096 0.1652809 0.1654656 0.1656508 0.1658359 0.1660179 0.1661958
 0.1663727 0.1665533 0.1667425 0.1669422 0.1671476 0.1673525 0.167557 0.1677638 0.1679737 0.1681879
 0.1684075 0.1686263 0.1688346 0.1690319 0.1692275 0.1694288 0.1696365 0.1698479 0.1700591 0.1702679
 0.1704754 0.1706813 0.1708857 0.1710933 0.1713071 0.1715222 0.1717327 0.1719395 0.1721436 0.1723443
 0.1725504 0.1727731 0.1730051 0.1732265 0.1734307 0.1736275 0.1738262 0.1740301 0.1742389 0.1744507
 0.1746676 0.1748951 0.1751294 0.1753572 0.1755725 0.17578 0.1759826 0.1761842 0.1763936 0.1766113
 0.1768261 0.1770332 0.177236 0.1774249 0.1775554 0.1775051 0.1769819 0.1754281 0.1720074 0.1657651
 0.1560133 0.1427774 0.1269411 0.1099238 0.0931545 0.0777115 0.06422959 0.05298536 0.04403298 0.03729639
 0.03262753 0.02989514 0.02908214 0.0303969 0.03439028 0.041625 0.0514461 0.06090113 0.0658929 0.06441423
 0.05846734 0.05223951 0.048623 0.04781796 0.04858418 0.04986262 0.05131426 0.05313033 0.05564888 0.05897418
 0.06295164 0.0675734 0.07318011 0.08002259 0.08773571 0.09549196 0.1027149 0.1095334 0.116498 0.1239228
 0.1315561 0.1388278 0.1453032 0.150901 0.155804 0.1602572 0.1644293 0.1683946 0.1721836 0.1757852
 0.1790674 0.181745 0.1835184 0.1843028 0.1843335 0.1840331 0.1837617 0.1836765 0.1837825 0.1840494
 0.1844609 0.1850038 0.1856601 0.1864054 0.1872085 0.1880402 0.1888819 0.189714 0.190509 0.1912464
 0.1919236 0.1925433 0.1931061 0.1936176 0.1940886 0.1945275 0.1949374 0.1953206 0.1956798 0.1960201
 0.1963473 0.1966624 0.196959 0.1972318 0.1974807 0.197709 0.1979229 0.198132 0.1983411 0.1985478
 0.1987528 0.1989635 0.1991833 0.1994045 0.1996173 0.1998178 0.2000079 0.2001938 0.2003815 0.2005701
 0.2007554 0.2009399 0.2011315 0.2013316 0.2015323 0.2017277 0.2019195 0.2021115 0.2023043 0.2024979
 0.2026965 0.2029044 0.2031165 0.2033203 0.2035128 0.2037077 0.2039184 0.2041406 0.2043629 0.2045827
 0.2048017 0.2050164 0.2052249 0.2054312 0.205632 0.2058127 0.2059673 0.2061143 0.2062861 0.2065007
 0.2067428 0.2069755 0.2071762 0.2073571 0.2075427 0.2077394 0.2079349 0.2081176 0.2082908 0.2084766
 0.2086999 0.2089568 0.2092119 0.2094407 0.2096542 0.2098739 0.2101082 0.2103573 0.2106101 0.2108328
 0.2109931 0.2111083 0.2112515 0.2114961 0.2118477 0.212232 0.2125603 0.2128085 0.2130187 0.2132424
 0.213505 0.2137852 0.213994 0.214034 0.2139441 0.2139326 0.2141893 0.2146968 0.215274 0.2157626
 0.2161271 0.2164157 0.216676 0.2169031 0.2170444 0.2170635 0.2170182 0.2170669 0.2173515 0.2178514
 0.2183921 0.2188234 0.2191334 0.219375 0.2195779 0.2197549 0.2198704 0.2197814 0.2193838 0.2188872
 0.2187661 0.2193024 0.2202697 0.2211779 0.2217575 0.222096 0.2223713 0.222632 0.2228436 0.2229184
 0.2226088 0.2216575 0.2203004 0.2193967 0.219715 0.221156 0.2229085 0.2242601 0.2250428 0.2254434
 0.2256891 0.2259007 0.2260038 0.2257366 0.2249432 0.2239612 0.223534 0.2241245 0.2253934 0.226563
 0.2272099 0.2274868 0.2276993 0.2279599 0.2281188 0.2277284 0.2262914 0.2240022 0.2221306 0.2221344
 0.2242317 0.2271344 0.2293231 0.2303554 0.2307479 0.2308535 0.2303392 0.2287811 0.2263003 0.2235117
 0.2213238 0.2208055 0.2224803 0.2254499 0.2279053 0.228909 0.2291847 0.2299259 0.2313764 0.2328356
 0.2335701 0.2333805 0.2324862 0.2311273 0.2294418 0.227833 0.227201 0.228312 0.2308706 0.2336168
 0.2354899 0.2364358 0.2368663 0.2364242 0.2337279 0.2280332 0.221316 0.2177272 0.2199273 0.2263024
 0.2326967 0.2365007 0.2380842 0.2388388 0.2393119 0.2390577 0.2369066 0.2316056 0.2237924 0.2172373
 0.2162945 0.2215924 0.2293174 0.2347726 0.2355787 0.2319247 0.2257199 0.2200186 0.2177717 0.2200445
 0.225558 0.2319494 0.2371849 0.2401167 0.2404744 0.2387581 0.236211 0.2345181 0.2345793 0.2351763
 0.2339029 0.2302034 0.2262932 0.2239059 0.2216133 0.2174704 0.2132929 0.2134599 0.2192238 0.2266116
 0.2308861 0.2313477 0.2304784 0.2294256 0.2260412 0.217972 0.2071087 0.1996852 0.2008305 0.2092411
 0.2183416 0.2227259 0.2224599 0.2211553 0.2211559 0.2211454 0.2180004 0.210865 0.2032353 0.200025
 0.2023395 0.2064905 0.2083682 0.2067188 0.2017102 0.1936214 0.1852084 0.1825573 0.1899582 0.2046613
 0.2190243 0.2267995 0.2254253 0.2146766 0.1975658 0.1821777 0.1777317 0.1863223 0.2003705 0.2095948
 0.2091698 0.200584 0.1872438 0.1721451 0.1592793 0.1540847 0.1601999 0.1757689 0.1934317 0.203964
 0.2013865 0.1876464 0.1730761 0.1689643 0.1772528 0.189159 0.194993 0.1929473 0.1877452 0.1845831
 0.186134 0.1920288 0.1992473 0.2049713 0.208831 0.2097049 0.2026973 0.1850196 0.1637588 0.1511991
 0.1520701 0.1611397 0.1730376 0.1870755 0.200832 0.20684 0.2010028 0.1903402 0.1870071 0.1953873
 0.2083424 0.2159458 0.2153103 0.2111182 0.2084021 0.2071932 0.2050125 0.2026523 0.2043892 0.2120704
 0.2218795 0.228603 0.2310589 0.2316051 0.232141 0.2326728 0.232678 0.2319754 0.230633 0.2290986
 0.2280722 0.2277174 0.2275057 0.2270189 0.2259285 0.2227714 0.2152647 0.2035149 0.1920591 0.1862665
 0.1866399 0.1891935 0.1913801 0.1935777 0.193556 0.1849121 0.1655294 0.1445278 0.1356217 0.1438597
 0.1618657 0.1782524 0.1863441 0.1847428 0.1739303 0.1564831 0.1397862 0.13371 0.1425571 0.1609389
 0.1795377 0.1931334 0.2011753 0.2033208 0.1984654 0.1879271 0.1767139 0.1706522 0.1728428 0.1823041
 0.1942951 0.2015313 0.1977591 0.1839828 0.1711921 0.1722422 0.18836 0.20708 0.216252 0.2163366
 0.2154424 0.2167253 0.2168422 0.2148172 0.2155793 0.2232146 0.234967 0.243959 0.2452299 0.2376937
 0.2235005 0.2085305 0.2008593 0.2042468 0.2137931 0.2212065 0.2227971 0.2189987 0.2094883 0.19522
 0.1835791 0.1839402 0.1968049 0.2125946 0.2225318 0.2266318 0.2296937 0.2330435 0.2329278 0.2262002
 0.2155783 0.2079642 0.2076195 0.2124442 0.2175375 0.2203676 0.220786 0.2180905 0.2114677 0.2033402
 0.1994005 0.2036637 0.2142897 0.2252718 0.2317826 0.2331913 0.2316744 0.2293831 0.2269921 0.2238618
 0.2194684 0.215267 0.214413 0.2183935 0.2246642 0.2292713 0.2313849 0.233569 0.2377525 0.2425707
 0.2450234 0.2437443 0.2402959 0.2378018 0.2384387 0.2417111 0.2448275 0.2450841 0.2424345 0.2397723
 0.2402688 0.2443479 0.2496295 0.253637 0.2558179 0.2570269 0.2580664 0.2589816 0.2590235 0.2572156
 0.2537328 0.2506977 0.2506724 0.2541178 0.2589589 0.2627325 0.2645782 0.2650937 0.2649713 0.2642737
 0.2628429 0.2609679 0.2594006 0.2587532 0.2590478 0.259882 0.2608496 0.261718 0.2623858 0.2628474
 0.2631616 0.2633759 0.2635094 0.2636034 0.2636976 0.2637455 0.2636655 0.2635086 0.2634724 0.2636802
 0.2640213 0.2642738 0.264308 0.2640867 0.2635423 0.2625974 0.2613049 0.259838 0.2582992 0.2566465
 0.2549202 0.2535079 0.253042 0.2539236 0.2559444 0.2584091 0.2606161 0.2622124 0.2631876 0.2636867
 0.2638834 0.2639323 0.2639299 0.2638929 0.2637909 0.2636047 0.2633451 0.263029 0.2626619 0.2622567
 0.2618563 0.2615119 0.2612316 0.2609632 0.2606355 0.260212 0.2597098 0.2591774 0.2586494 0.2581071
 0.2574862 0.2567323 0.2558473 0.2548887 0.2539365 0.2530574 0.2522684 0.2515253 0.2507638 0.2499502
 0.2490694 0.2480825 0.246956 0.2457527 0.2446373 0.2437455 0.2430645 0.242466 0.2418251 0.2410796
 0.2402128 0.2392372 0.2381911 0.2371133 0.236014 0.234882 0.2337033 0.2324584 0.2311213 0.2296806
 0.2281522 0.2265667 0.2249527 0.2233269 0.2216725 0.2199205 0.2179602 0.2156647 0.2129085 0.2095888
 0.2056673 0.2012065 0.1963691 0.191376 0.1864495 0.1817674 0.177449 0.173571 0.1701971 0.1673992
 0.1652545 0.1638207 0.1631178 0.1631373 0.1638571 0.165237 0.1672059 0.1696593 0.172462 0.1754491
 0.1784406 0.1812786 0.1838762 0.1862433 0.1884553 0.1905715 0.1925766 0.1944067 0.1960179 0.1974135
 0.1986166 0.1996425 0.2005004 0.2012069 0.2017908 0.2022831 0.2027053 0.2030697 0.2033842 0.2036503
 0.2038659 0.20404 0.2042002 0.2043746 0.2045731 0.2047928 0.2050362 0.2053232 0.2056854 0.2061431
 0.2066822 0.2072639 0.2078599 0.2084693 0.209104 0.209775 0.2104977 0.2113033 0.2122341 0.2133215
 0.2145604 0.2159061 0.2172906 0.2186339 0.2198459 0.2208431 0.2215792 0.2220577 0.2223168 0.2224033
 0.2223529 0.2221824 0.2219023 0.2215302 0.2210857 0.2205776 0.2200083 0.2193855 0.218723 0.2180328
 0.2173256 0.2166144 0.2159136 0.215231 0.2145617 0.2138943 0.2132298 0.2125877 0.211989 0.2114362
 0.2109104 0.2103825 0.2098296 0.2092509 0.2086612 0.2080605 0.2074143 0.2066784 0.2058363 0.2049011
 0.2038862 0.2027884 0.2015995 0.2003223 0.198966 0.1975328 0.1960206 0.1944384 0.192807 0.1911311
 0.1893777 0.1875002 0.1854956 0.1834337 0.1814204 0.1795347 0.1777994 0.176195 0.1746878 0.1732529
 0.171885 0.17059 0.1693671 0.1682091 0.1671133 0.1660777 0.1650885 0.1641296 0.1632057 0.1623513
 0.1616099 0.1610001 0.1604973 0.1600548 0.1596443 0.1592719 0.1589698 0.1587822 0.158738 0.1588086
 0.1589056 0.1589406 0.1588825 0.1587546 0.1585996 0.1584535 0.1583355 0.1582496 0.1581893 0.1581271
 0.1580014 0.1577248 0.157205 0.1563641 0.1551683 0.1536539 0.1519142 0.1500643 0.1482267 0.1465229
 0.1450492 0.1438626 0.1429776 0.1423476 0.1418692 0.1414542 0.1411006 0.1408811 0.1408696 0.1410649
 0.1413509 0.1415594 0.1416202 0.1416343 0.1417774 0.1421601 0.1427791 0.1435401 0.1443093 0.1449801
 0.145505 0.1458704 0.1460836 0.1461848 0.1462172 0.1461861 0.1460767 0.1458915 0.1456442 0.1453484
 0.1450154 0.1446306 0.1441544 0.1435739 0.142916 0.1421985 0.141418 0.1405658 0.1395951 0.1384358
 0.1371348 0.1359349 0.1351467 0.1349655 0.1353953 0.1362647 0.137335 0.1384492 0.1395136 0.1403282
 0.1406489 0.1405718 0.1407026 0.1417184 0.1437306 0.1461695 0.1482988 0.1497456 0.1505162 0.1506939
 0.1503123 0.1494084 0.1479878 0.1459972 0.143463 0.1405538 0.1374416 0.1342634 0.1312248 0.1285397
 0.1262886 0.124459 0.1230322 0.1220478 0.1216456 0.1214629 0.1195953 0.1135932 0.1042491 0.09727702
 0.09848512 0.1072316 0.1168906 0.121855 0.1219915 0.1203023 0.1188435 0.1179038 0.117362 0.1173725
 0.1180874 0.1193721 0.1208251 0.1220231 0.1227856 0.1231507 0.1230837 0.1222299 0.1198594 0.1151288
 0.1077581 0.09861344 0.08942069 0.08177347 0.07641681 0.07325096 0.0716688 0.07090385 0.07040232 0.07009515
 0.07030658 0.07135983 0.07329424 0.07594144 0.07911751 0.08259192 0.08596281 0.08880556 0.09099138 0.09270191
 0.09410068 0.09513228 0.09566689 0.09569916 0.09534711 0.09474672 0.09400593 0.09319381 0.0922958 0.09121925
 0.08995362 0.08872214 0.08785053 0.08745684 0.08737662 0.08739343 0.08741319 0.08741431 0.08737363 0.08728272
 0.08716974 0.08710575 0.08720478 0.08754832 0.0880751 0.08860137 0.08897151 0.08916442 0.08925545 0.08926691
 0.08905594 0.08845611 0.08758795 0.08683867 0.08636664 0.08581647 0.08477615 0.08339676 0.08230174 0.08192629
 0.08214396 0.08250876 0.08266915 0.08253843 0.08226816 0.08216693 0.08249345 0.08315656 0.08369526 0.08371243
</values></Ydata></ScRf><Data_Parameters_AB><parameter name="DPF">1</parameter><parameter name="NPT">3497</parameter><parameter name="FXV">3996</parameter><parameter name="LXV">500</parameter><parameter name="CSF">1</parameter><parameter name="MXY">0.0637668967247009</parameter><parameter name="MNY">-0.0876356735825539</parameter><parameter name="DAT">31/05/2022</parameter><parameter name="TIM">14:25:48.857 (GMT+2)</parameter><parameter name="DXU">WN</parameter></Data_Parameters_AB><AB__Qtest><MainReport name="Quality Test Report"><Header><Line><Legend>Test result ok/not ok [1/0]: </Legend><Value>0</Value></Line><Line><Legend>Method file: </Legend><Value>C:\Users\Public\Documents\Bruker\OPUS_8.2.28\QT\IRBT_v3_default.QT</Value></Line></Header><Matrix><Line><Legend></Legend><Legend>min</Legend><Legend>max</Legend><Legend>measured</Legend></Line><Line><Value>Absorption (X-Range 1):</Value><Value>0.400000</Value><Value>2.000000</Value><Value>0.123741</Value></Line><Line><Value>Noise (X-Range 4):</Value><Value></Value><Value>0.000300</Value><Value>0.000046</Value></Line><Line><Value>Signal/Noise (X-Range 2):</Value><Value>200.000000</Value><Value></Value><Value>68.698354</Value></Line><Line><Value>Signal/Noise (X-Range 3):</Value><Value>40.000000</Value><Value></Value><Value>20.902301</Value></Line><Line><Value>Water vapour (X-Range 5):</Value><Value></Value><Value>0.000300</Value><Value>0.000051</Value></Line><Line><Value>Signal/Water (X-Range 2):</Value><Value>100.000000</Value><Value></Value><Value>61.702275</Value></Line><Line><Value>Signal/Water (X-Range 3):</Value><Value>20.000000</Value><Value></Value><Value>18.773660</Value></Line><Line><Value>Fringes (X-Range 6):</Value><Value></Value><Value>0.000100</Value><Value>0.000072</Value></Line></Matrix></MainReport></AB__Qtest><Data_Parameters_ScSm><parameter name="DPF">1</parameter><parameter name="NPT">1814</parameter><parameter name="FXV">3996.33169228125</parameter><parameter name="LXV">499.541461535156</parameter><parameter name="CSF">1</parameter><parameter name="MXY">0.285806566476822</parameter><parameter name="MNY">0.0355846919119358</parameter><parameter name="DAT">31/05/2022</parameter><parameter name="TIM">14:25:48.857 (GMT+2)</parameter><parameter name="DXU">WN</parameter></Data_Parameters_ScSm><Data_Parameters_ScRf><parameter name="DPF">1</parameter><parameter name="NPT">1820</parameter><parameter name="FXV">4004.04661832813</parameter><parameter name="LXV">495.683998511719</parameter><parameter name="CSF">1</parameter><parameter name="MXY">0.265093743801117</parameter><parameter name="MNY">0.0290821418166161</parameter><parameter name="DAT">31/05/2022</parameter><parameter name="TIM">14:25:21.773 (GMT+2)</parameter><parameter name="DXU">WN</parameter></Data_Parameters_ScRf><Optic_Parameters_Rf><parameter name="APR">0</parameter><parameter name="APT">Open</parameter><parameter name="BMS">KBr</parameter><parameter name="DTC">RT-DLaTGS_IR-Biotyper [Microplate reader]</parameter><parameter name="HPF">0</parameter><parameter name="LPF">10.0</parameter><parameter name="LPV">4000</parameter><parameter name="PGR">0</parameter><parameter name="RCH">Module port</parameter><parameter name="RDX">0</parameter><parameter name="SRC">MIR</parameter><parameter name="VEL">10.0</parameter><parameter name="SON">Off</parameter></Optic_Parameters_Rf><Acquisition_Parameters_Rf><parameter name="ADT">1</parameter><parameter name="AQM">DD</parameter><parameter name="CFE">0</parameter><parameter name="COR">0</parameter><parameter name="DEL">0</parameter><parameter name="DLY">0</parameter><parameter name="HFW">8000</parameter><parameter name="LFW">0</parameter><parameter name="NSR">32</parameter><parameter name="PLF">AB</parameter><parameter name="RES">6</parameter><parameter name="RGN">-1</parameter><parameter name="STR">0</parameter><parameter name="TCL">MakeCompatibleScalar (0, {WSV=1.000000, ARV=0});</parameter><parameter name="TDL">37</parameter><parameter name="RPO">0</parameter></Acquisition_Parameters_Rf><FT_-_Parameters_Rf><parameter name="APF">B3</parameter><parameter name="HFQ">500</parameter><parameter name="LFQ">4000</parameter><parameter name="NLI">0</parameter><parameter name="PHR">24</parameter><parameter name="PHZ">ML</parameter><parameter name="SPZ">NO</parameter><parameter name="ZFF">1</parameter></FT_-_Parameters_Rf><Optic_Parameters_><parameter name="APR">0</parameter><parameter name="APT">Open</parameter><parameter name="BMS">KBr</parameter><parameter name="CHN">Module port</parameter><parameter name="DTC">RT-DLaTGS_IR-Biotyper [Microplate reader]</parameter><parameter name="HPF">0</parameter><parameter name="LPF">10.0</parameter><parameter name="LPV">4000</parameter><parameter name="PGN">0</parameter><parameter name="RDX">0</parameter><parameter name="SRC">MIR</parameter><parameter name="VEL">10.0</parameter><parameter name="SON">Off</parameter></Optic_Parameters_><FT_-_Parameters_><parameter name="APF">B3</parameter><parameter name="HFQ">500</parameter><parameter name="LFQ">4000</parameter><parameter name="NLI">0</parameter><parameter name="PHR">24</parameter><parameter name="PHZ">ML</parameter><parameter name="SPZ">NO</parameter><parameter name="ZFF">1</parameter></FT_-_Parameters_><Acquisition_Parameters_><parameter name="ADT">1</parameter><parameter name="AQM">DD</parameter><parameter name="CFE">0</parameter><parameter name="COR">0</parameter><parameter name="DEL">0</parameter><parameter name="DLY">0</parameter><parameter name="HFW">8000</parameter><parameter name="LFW">0</parameter><parameter name="NSS">32</parameter><parameter name="PLF">AB</parameter><parameter name="RES">6</parameter><parameter name="SOT">0</parameter><parameter name="TCL">MakeCompatibleScalar (0, {WSV=1.000000, ARV=0});</parameter><parameter name="TDL">37</parameter><parameter name="SPO">0</parameter><parameter name="SGN">-1</parameter></Acquisition_Parameters_><Instrument_Parameters_Rf><parameter name="HFL">15800.168544</parameter><parameter name="LFL">0</parameter><parameter name="LWN">15800.168544</parameter><parameter name="ABP">32197</parameter><parameter name="SSP">1</parameter><parameter name="ARG">2</parameter><parameter name="ASG">2</parameter><parameter name="ASS">32</parameter><parameter name="GFW">16</parameter><parameter name="GBW">16</parameter><parameter name="BFW">0</parameter><parameter name="BBW">0</parameter><parameter name="PKA">7263</parameter><parameter name="PKL">4996</parameter><parameter name="PRA">7450</parameter><parameter name="PRL">5001</parameter><parameter name="P2A">1</parameter><parameter name="P2L">1</parameter><parameter name="P2R">1</parameter><parameter name="P2K">1</parameter><parameter name="DAQ">0</parameter><parameter name="AG2">1</parameter><parameter name="SSM">1</parameter><parameter name="RSN">25793</parameter><parameter name="CRR">0</parameter><parameter name="SRT">1654007121.773</parameter><parameter name="DUR">19.6379852294922</parameter><parameter name="TSC">29.1</parameter><parameter name="MVD">0.407654643058777</parameter><parameter name="AN1">0.225840891529629</parameter><parameter name="AN2">0</parameter><parameter name="VSN">2.485 Apr  4 2017</parameter><parameter name="SRN">0085</parameter><parameter name="CAM">0</parameter><parameter name="INS">IR-Biotyper</parameter><parameter name="FOC">69</parameter><parameter name="RDY">1</parameter><parameter name="ARS">32</parameter></Instrument_Parameters_Rf><Sample_Parameters_><parameter name="BLD"></parameter><parameter name="CNM">Admin</parameter><parameter name="CPY"></parameter><parameter name="DPM"></parameter><parameter name="EXP">IRBT_v3_32Scans.XPM</parameter><parameter name="LCT"></parameter><parameter name="SFM">Microplate, HTS-XT</parameter><parameter name="SNM">220531-1301_AJC34M (D_4)_D10_4f41e465-9b46-4701-8971-713f81571c40.0</parameter><parameter name="XPP">C:\Users\Public\Documents\Bruker\OPUS_8.2.28\XPM</parameter><parameter name="IST">OK</parameter><parameter name="CPG">1252</parameter><parameter name="UID">f08e1571-171a-48ef-b4da-9ffe788c97b2</parameter></Sample_Parameters_><Instrument_Parameters_><parameter name="HFL">15800.168544</parameter><parameter name="LFL">0</parameter><parameter name="LWN">15800.168544</parameter><parameter name="ABP">32197</parameter><parameter name="SSP">1</parameter><parameter name="ASG">2</parameter><parameter name="ARG">2</parameter><parameter name="ASS">32</parameter><parameter name="GFW">16</parameter><parameter name="GBW">16</parameter><parameter name="BFW">0</parameter><parameter name="BBW">0</parameter><parameter name="PKA">7957</parameter><parameter name="PKL">4988</parameter><parameter name="PRA">8209</parameter><parameter name="PRL">4993</parameter><parameter name="P2A">1</parameter><parameter name="P2L">1</parameter><parameter name="P2R">1</parameter><parameter name="P2K">1</parameter><parameter name="DAQ">0</parameter><parameter name="AG2">1</parameter><parameter name="SSM">1</parameter><parameter name="RSN">13522</parameter><parameter name="CRR">0</parameter><parameter name="SRT">1654007148.857</parameter><parameter name="DUR">19.6379852294922</parameter><parameter name="TSC">29.1</parameter><parameter name="MVD">0.222280845046043</parameter><parameter name="AN1">0.225817685078006</parameter><parameter name="AN2">0</parameter><parameter name="VSN">2.485 Apr  4 2017</parameter><parameter name="SRN">0085</parameter><parameter name="CAM">0</parameter><parameter name="INS">IR-Biotyper</parameter><parameter name="FOC">69</parameter><parameter name="RDY">1</parameter></Instrument_Parameters_><History/></OPUSDataFile>
