<?xml version="1.0" encoding="UTF-8" ?>
<OPUSDataFile><AB><Ydata ylabel="Absorbance Units"><values byteorder="INTEL" format="FLOAT32" numvalues="3497"> -0.0731727 -0.07315303 -0.07314859 -0.07315994 -0.07318022 -0.07320905 -0.07322763 -0.07323564 -0.07322285 -0.07319194
 -0.07315277 -0.07310881 -0.07307804 -0.07306045 -0.07306555 -0.0730902 -0.07313397 -0.07319288 -0.07326371 -0.07333947
 -0.07341544 -0.07348141 -0.07353021 -0.073558 -0.07355952 -0.07354432 -0.07351259 -0.07347888 -0.07344567 -0.07342117
 -0.07340661 -0.07340369 -0.07341257 -0.07343372 -0.0734669 -0.07351029 -0.0735626 -0.07361608 -0.07366849 -0.07370749
 -0.0737324 -0.07373372 -0.07371631 -0.07368172 -0.07364013 -0.07360364 -0.0735791 -0.07357815 -0.07359542 -0.07363293
 -0.0736782 -0.07372686 -0.07377145 -0.07380858 -0.07383881 -0.07386147 -0.0738801 -0.07389502 -0.07390799 -0.07391911
 -0.07392628 -0.07392928 -0.07392388 -0.07391081 -0.07389147 -0.07386861 -0.07385293 -0.07384632 -0.07385991 -0.07389073
 -0.07394034 -0.07400145 -0.07406732 -0.0741296 -0.07417983 -0.07421236 -0.07422062 -0.07420728 -0.07416981 -0.07412075
 -0.07406179 -0.0740073 -0.07395986 -0.07392786 -0.07391232 -0.07391897 -0.07394819 -0.07400896 -0.07410145 -0.07423222
 -0.07439791 -0.07458485 -0.07478288 -0.07494707 -0.07507186 -0.07511507 -0.07509261 -0.07500849 -0.07488781 -0.07476297
 -0.07464497 -0.07455681 -0.07448895 -0.07444455 -0.07440474 -0.07436027 -0.0743113 -0.07425197 -0.07420911 -0.0741862
 -0.07420411 -0.07426745 -0.07435865 -0.07447708 -0.07458101 -0.07466971 -0.07472406 -0.07474811 -0.07475795 -0.07475666
 -0.07476576 -0.07478168 -0.07480694 -0.07483574 -0.07485714 -0.07487383 -0.07488299 -0.07489332 -0.07491422 -0.07494048
 -0.07497473 -0.07500008 -0.07500762 -0.07499959 -0.07496957 -0.07495163 -0.07494912 -0.07499875 -0.07510708 -0.07526781
 -0.07548168 -0.07564913 -0.07576502 -0.07572306 -0.07554101 -0.07528106 -0.07496348 -0.07470219 -0.07449196 -0.0743783
 -0.07434459 -0.07438686 -0.07448071 -0.07459748 -0.07471562 -0.0748037 -0.07486605 -0.0748924 -0.07490691 -0.07491945
 -0.07493448 -0.0749585 -0.07497143 -0.07496981 -0.07494584 -0.0748964 -0.07484356 -0.07478835 -0.07476071 -0.07476086
 -0.07479697 -0.07486533 -0.07494677 -0.07503676 -0.07510679 -0.07515787 -0.07517646 -0.07516991 -0.07514436 -0.07510697
 -0.07506873 -0.07503375 -0.0750084 -0.07499629 -0.07500096 -0.0750246 -0.07506979 -0.07513324 -0.07521646 -0.07530654
 -0.07540326 -0.07548457 -0.07554881 -0.07557209 -0.07555278 -0.07548253 -0.07536288 -0.07521737 -0.07504985 -0.07489857
 -0.07476331 -0.07466471 -0.07459754 -0.07455932 -0.07454456 -0.07454284 -0.07455028 -0.0745592 -0.07456427 -0.07455909
 -0.07453889 -0.07449664 -0.07444001 -0.07436696 -0.07429948 -0.07424272 -0.07421362 -0.07421809 -0.07424907 -0.0743075
 -0.07437214 -0.0744417 -0.07450312 -0.07455641 -0.07460193 -0.07464015 -0.07467501 -0.07470518 -0.07472746 -0.07474063
 -0.0747382 -0.07472423 -0.07470159 -0.07467753 -0.07466251 -0.07465971 -0.07467565 -0.07470995 -0.07476275 -0.07483844
 -0.0749388 -0.07506707 -0.07522866 -0.07540255 -0.07558961 -0.07574581 -0.07586616 -0.07592481 -0.07591958 -0.07584777
 -0.07571005 -0.07551494 -0.07526804 -0.07501031 -0.07475005 -0.07454357 -0.07439131 -0.07432668 -0.07433692 -0.07442079
 -0.07454974 -0.07468739 -0.0748155 -0.07489886 -0.07495465 -0.07498232 -0.07500191 -0.07502525 -0.07504821 -0.07507463
 -0.07508388 -0.07507243 -0.07502829 -0.07494802 -0.07484563 -0.07472146 -0.07460491 -0.07449753 -0.07442714 -0.07439405
 -0.0744173 -0.07449064 -0.07460578 -0.07474295 -0.07484433 -0.0749004 -0.07485527 -0.07474161 -0.07457534 -0.07439316
 -0.07423877 -0.07411256 -0.07403225 -0.0739712 -0.07392181 -0.07386702 -0.0737966 -0.07372384 -0.07364908 -0.07358849
 -0.07354584 -0.07350944 -0.07347931 -0.07341973 -0.07332972 -0.07318862 -0.07300214 -0.07280202 -0.07259429 -0.07242362
 -0.07228456 -0.07218501 -0.07211842 -0.07207559 -0.07205495 -0.07205272 -0.07206316 -0.0720839 -0.07209827 -0.0720967
 -0.07206435 -0.07199104 -0.07187716 -0.0717207 -0.07152495 -0.07129027 -0.07101814 -0.07070804 -0.07036924 -0.07000212
 -0.0696215 -0.06922852 -0.06884348 -0.06846907 -0.0681352 -0.06784306 -0.06761679 -0.06744877 -0.06733306 -0.06725719
 -0.06719397 -0.06713973 -0.06708004 -0.06701138 -0.0669328 -0.06681959 -0.066657 -0.06642658 -0.06610742 -0.06573324
 -0.06530654 -0.06487014 -0.06443413 -0.06401292 -0.06360976 -0.06322594 -0.06286171 -0.06251939 -0.06219943 -0.06191075
 -0.06165411 -0.06144208 -0.06127019 -0.06113271 -0.06101136 -0.06085403 -0.06064574 -0.06032116 -0.05991081 -0.0594216
 -0.0589006 -0.05839825 -0.05792572 -0.0575086 -0.05713025 -0.05679219 -0.05646813 -0.05615082 -0.0558228 -0.05547801
 -0.05511913 -0.05474579 -0.05436236 -0.05396949 -0.05355469 -0.05311733 -0.05264412 -0.05213758 -0.05161046 -0.05106737
 -0.05053555 -0.0500155 -0.04952256 -0.04905481 -0.04861634 -0.04820364 -0.04781643 -0.04744396 -0.04707772 -0.04670594
 -0.04631656 -0.04591163 -0.04548873 -0.04505362 -0.04461071 -0.04414706 -0.04366134 -0.04313915 -0.04257536 -0.04199627
 -0.04140251 -0.04084522 -0.04032585 -0.03986512 -0.03945935 -0.03908993 -0.03875122 -0.03840889 -0.03806069 -0.03768019
 -0.03727421 -0.03684078 -0.03639386 -0.03595173 -0.0355225 -0.03512509 -0.03474582 -0.03438769 -0.03401597 -0.0336147
 -0.0331675 -0.03265937 -0.03212028 -0.03155122 -0.0309934 -0.03045366 -0.0299411 -0.02945772 -0.02897918 -0.02850434
 -0.02801014 -0.02749813 -0.02697093 -0.02643079 -0.02589008 -0.02534687 -0.02480088 -0.0242522 -0.02369767 -0.0231465
 -0.02260919 -0.02209437 -0.02161702 -0.02117087 -0.02075907 -0.02036488 -0.01998155 -0.01959838 -0.01920905 -0.01881764
 -0.01842349 -0.01803477 -0.0176538 -0.01727159 -0.0168882 -0.01647846 -0.01604162 -0.01556679 -0.01505742 -0.01453715
 -0.01400999 -0.01350871 -0.01302972 -0.01258123 -0.01215439 -0.01173493 -0.01131886 -0.01089257 -0.01046181 -0.01002512
 -0.009594857 -0.009179165 -0.008784151 -0.008418319 -0.00806802 -0.007734264 -0.007388464 -0.007024762 -0.006625867 -0.006186971
 -0.005718288 -0.005219547 -0.004718395 -0.00421615 -0.003736297 -0.003278308 -0.002848602 -0.002444548 -0.002057933 -0.001686359
 -0.001318499 -0.0009539112 -0.0005859164 -0.0002163061 0.0001559876 0.0005269224 0.0008925157 0.001251593 0.001598748 0.001946458
 0.002296395 0.002669021 0.003074198 0.003508592 0.003977964 0.004444404 0.004903652 0.005328333 0.005714526 0.006086227
 0.006445225 0.006837851 0.007262473 0.007727491 0.008223089 0.008708109 0.0091754 0.009578425 0.009925947 0.01020832
 0.01044922 0.01067709 0.01091038 0.0111829 0.01148452 0.01182419 0.0121697 0.0125076 0.01281954 0.01309246
 0.01334103 0.01356348 0.01379052 0.014026 0.01429013 0.01458537 0.01490867 0.01525942 0.01561653 0.01597957
 0.01633386 0.01668365 0.0170412 0.01741081 0.01781534 0.01824762 0.01870782 0.01917851 0.0196349 0.02006604
 0.02044947 0.02079008 0.02108307 0.02133998 0.02156539 0.02176555 0.02194317 0.02210169 0.02224035 0.02237288
 0.02249934 0.02264581 0.02281422 0.02302593 0.02328154 0.02358024 0.02392002 0.0242826 0.02466594 0.02505158
 0.02543732 0.02580803 0.02616015 0.02647774 0.02676294 0.02700728 0.02722791 0.02743543 0.02765306 0.02790339
 0.02818691 0.02851713 0.02885823 0.02920404 0.02951554 0.02977891 0.02999962 0.03017299 0.03034418 0.03051683
 0.03071516 0.03093926 0.03115896 0.0313715 0.03153594 0.03165733 0.03173677 0.0317852 0.03183723 0.03189828
 0.03199756 0.0321317 0.03230987 0.03252227 0.03276417 0.03302227 0.03328453 0.033548 0.03380311 0.03407167
 0.03435727 0.0346841 0.03506346 0.03547565 0.03592451 0.03634414 0.03672972 0.03702864 0.03723941 0.03737398
 0.03743747 0.03748496 0.03751769 0.03757184 0.03764145 0.0377235 0.03782035 0.03793068 0.03807086 0.03826779
 0.0385226 0.03885816 0.03923336 0.03963229 0.04000403 0.04031247 0.04055964 0.04072865 0.04087866 0.04101844
 0.04119934 0.04143364 0.04171451 0.04204438 0.04237262 0.04269669 0.04296898 0.04319043 0.04334926 0.04345355
 0.04353442 0.04360436 0.04371925 0.04388466 0.04414528 0.04448504 0.04490752 0.04537356 0.04584739 0.0462925
 0.04666579 0.04697152 0.0471912 0.04737504 0.04753225 0.04771625 0.04794228 0.04822979 0.04858454 0.04900454
 0.04948987 0.05004393 0.05066674 0.05135602 0.05210727 0.05287816 0.05365668 0.05435913 0.05497745 0.0554346
 0.05574746 0.05590286 0.05595021 0.05595139 0.0559593 0.05605995 0.05625487 0.05658883 0.05698946 0.05744291
 0.05785317 0.05818197 0.05838619 0.0584408 0.0583825 0.05820811 0.05799624 0.05775321 0.05753613 0.0573475
 0.05719106 0.05706421 0.05693956 0.05681726 0.05668229 0.05654071 0.05640494 0.0562784 0.05617934 0.05609559
 0.05602381 0.05593254 0.05579143 0.05556687 0.05522078 0.05475106 0.05413695 0.05342431 0.05261767 0.05178269
 0.0509346 0.05011687 0.04933909 0.04861352 0.04794266 0.047321 0.0467481 0.04620337 0.04568526 0.04516775
 0.0446538 0.04414357 0.04364522 0.0431895 0.04277292 0.04241041 0.042076 0.04173822 0.04137276 0.04093412
 0.04043522 0.03986045 0.03926295 0.03865991 0.03811019 0.03764063 0.0372715 0.03702093 0.03684228 0.03673785
 0.03661169 0.03645586 0.03619689 0.03583148 0.03537258 0.03482705 0.03427592 0.03372413 0.03324306 0.03282534
 0.03248608 0.03221164 0.0319799 0.03177975 0.03158552 0.03138878 0.03117132 0.03092857 0.03064926 0.03034054
 0.02999964 0.02964718 0.02928831 0.02894377 0.02862087 0.02832213 0.02805084 0.02778981 0.02753822 0.02727624
 0.02700289 0.02671134 0.02640234 0.02608209 0.02575194 0.02542215 0.02509394 0.02477661 0.02447113 0.02418476
 0.02391646 0.02366941 0.0234375 0.02321775 0.02299784 0.02276857 0.02251883 0.02223841 0.02193011 0.02158969
 0.02123548 0.02087073 0.0205105 0.02015878 0.01981325 0.01947438 0.01913315 0.01878914 0.01844391 0.01809807
 0.01776037 0.01743011 0.01710844 0.01679297 0.01647567 0.01615607 0.01582788 0.01549487 0.01515957 0.0148271
 0.01450443 0.01419342 0.01389742 0.01361767 0.01335355 0.01311376 0.01290081 0.01272325 0.01258805 0.01247447
 0.01238511 0.01226298 0.01210329 0.01186074 0.01153294 0.01113644 0.01067632 0.01021959 0.009770914 0.009393262
 0.009082287 0.008860727 0.008712271 0.00861576 0.008545738 0.00845252 0.008320041 0.008103582 0.007822977 0.007470593
 0.007095343 0.006722293 0.006378799 0.00608712 0.005826401 0.005596461 0.005371956 0.005144428 0.00493488 0.004742595
 0.004616675 0.0045597 0.004586095 0.004691463 0.004825932 0.004980283 0.005073939 0.005105929 0.005024272 0.004846748
 0.004584177 0.004264699 0.003940703 0.003623449 0.003352074 0.003107857 0.002889422 0.002677231 0.002453638 0.002233713
 0.002015993 0.001828967 0.00168453 0.001571201 0.001492813 0.001403644 0.00129824 0.001165025 0.001003116 0.0008607213
 0.0007402639 0.0006890448 0.0007008967 0.0007648468 0.0008699882 0.0009695664 0.001062934 0.001123299 0.001159947 0.001177947
 0.001180413 0.001177185 0.001155645 0.001112178 0.001026388 0.0008854252 0.0006801861 0.0003991449 6.330845E-05 -0.0003304544
 -0.0007295897 -0.001128205 -0.001472778 -0.001755596 -0.001969383 -0.002113248 -0.002240701 -0.002355803 -0.002528368 -0.002755759
 -0.003061776 -0.003432113 -0.003829379 -0.004239523 -0.004607241 -0.004934767 -0.005196996 -0.005412333 -0.005590877 -0.005751836
 -0.005914971 -0.006087125 -0.006279612 -0.006484554 -0.006703751 -0.006919624 -0.007128544 -0.007315557 -0.007475439 -0.007616812
 -0.007737938 -0.007877035 -0.008036185 -0.008249179 -0.008514443 -0.008818158 -0.009153321 -0.009467463 -0.009760906 -0.01000234
 -0.0102068 -0.01039489 -0.01057948 -0.01079686 -0.0110373 -0.01130776 -0.0115844 -0.01184952 -0.01208965 -0.01229094
 -0.01245452 -0.01257874 -0.01266252 -0.01270619 -0.01270379 -0.01265297 -0.01255975 -0.01242258 -0.01227201 -0.01210953
 -0.01198385 -0.01189726 -0.01189379 -0.01197088 -0.01213875 -0.0123859 -0.01267768 -0.01300023 -0.01330063 -0.01357648
 -0.01379687 -0.01397359 -0.0141084 -0.01421247 -0.01429832 -0.01436303 -0.0144103 -0.0144286 -0.01441356 -0.01436058
 -0.01426587 -0.01413789 -0.01397723 -0.01379329 -0.01358828 -0.01335322 -0.01308793 -0.01275875 -0.01236385 -0.01186825
 -0.01127489 -0.01058179 -0.009799406 -0.008964857 -0.00808799 -0.007213692 -0.00634088 -0.005490359 -0.004650787 -0.00381751
 -0.002978797 -0.002123127 -0.001244688 -0.0003367303 0.0006013253 0.001572328 0.002570672 0.003598364 0.004635294 0.005681746
 0.006698336 0.007682531 0.008587404 0.009410023 0.01011683 0.01070727 0.01116922 0.01150355 0.01170879 0.01178721
 0.01174153 0.01158422 0.01133915 0.01103747 0.0107376 0.01047723 0.0103263 0.01029984 0.01043936 0.0107261
 0.01116322 0.01172233 0.01239135 0.01315934 0.01402015 0.01497574 0.01602673 0.01716766 0.01839956 0.01969968
 0.02106704 0.02245967 0.02387417 0.02525236 0.02659033 0.02783248 0.02897938 0.03000241 0.03090671 0.03169266
 0.03236035 0.03291662 0.03334227 0.03362881 0.03372405 0.03359579 0.03316104 0.03236726 0.03114931 0.02945351
 0.02731741 0.02471435 0.02182601 0.01866217 0.0154833 0.01231553 0.009367944 0.00665604 0.004250695 0.002148983
 0.0003018311 -0.001299698 -0.002738828 -0.004018411 -0.005192168 -0.006260557 -0.007248083 -0.008162974 -0.009028687 -0.009856709
 -0.01067325 -0.01147565 -0.01227528 -0.01305079 -0.01379441 -0.01448468 -0.01510982 -0.01566403 -0.01614296 -0.01654893
 -0.01688257 -0.01714023 -0.01732235 -0.01741632 -0.01742139 -0.01732568 -0.01713003 -0.01684462 -0.01647711 -0.01608142
 -0.01567148 -0.01533275 -0.0150703 -0.01494833 -0.01494552 -0.0150627 -0.01525354 -0.01546663 -0.01565216 -0.01575063
 -0.01573297 -0.01556136 -0.01524185 -0.01476252 -0.01415938 -0.01343671 -0.01263808 -0.01177029 -0.01087024 -0.009938791
 -0.009040421 -0.008177067 -0.00750252 -0.007029309 -0.006990662 -0.007392563 -0.00840799 -0.00999832 -0.01212368 -0.01469516
 -0.01747015 -0.02036245 -0.02309841 -0.02565727 -0.02789044 -0.02984874 -0.03151995 -0.03297522 -0.03425498 -0.03540161
 -0.03644324 -0.0373927 -0.0382579 -0.039046 -0.03975831 -0.04040604 -0.04099028 -0.04152182 -0.0420014 -0.04243849
 -0.04283377 -0.04319867 -0.04353449 -0.04385587 -0.0441641 -0.0444733 -0.04478183 -0.04509413 -0.04540414 -0.04570262
 -0.0459856 -0.04624111 -0.04647729 -0.04669405 -0.04690891 -0.04713385 -0.04737505 -0.04764275 -0.04791734 -0.04819853
 -0.04845365 -0.04867547 -0.04885017 -0.04897279 -0.04906581 -0.0491299 -0.04920629 -0.04929625 -0.04942192 -0.04958015
 -0.04975815 -0.04995245 -0.05013961 -0.0503237 -0.05050229 -0.05068417 -0.05088657 -0.05110971 -0.05136466 -0.05163788
 -0.05192332 -0.05220309 -0.05246463 -0.05269689 -0.05289111 -0.05304741 -0.05316155 -0.05324891 -0.05330902 -0.05337224
 -0.05344155 -0.05354383 -0.05368157 -0.05385463 -0.0540619 -0.05427841 -0.05450253 -0.05470971 -0.05490158 -0.05507155
 -0.05522296 -0.05536167 -0.05548955 -0.055613 -0.05573196 -0.05584916 -0.05596333 -0.05607444 -0.05618077 -0.05628128
 -0.05637464 -0.05645961 -0.05653721 -0.05660613 -0.05667432 -0.05674193 -0.05682292 -0.05691911 -0.05703873 -0.05718289
 -0.05734117 -0.05751249 -0.05767379 -0.05782473 -0.05795108 -0.05805602 -0.05814514 -0.05822237 -0.05830218 -0.05838468
 -0.05847819 -0.05857767 -0.0586804 -0.05878052 -0.05887033 -0.05895099 -0.05901824 -0.05908433 -0.05915224 -0.05923628
 -0.05934235 -0.05947313 -0.05963184 -0.05980652 -0.05999691 -0.06018558 -0.06037132 -0.06054087 -0.06069387 -0.06082608
 -0.06093843 -0.06103585 -0.06112013 -0.06120161 -0.0612813 -0.06136753 -0.06145977 -0.06156095 -0.06166981 -0.06178599
 -0.06190803 -0.06203441 -0.06216432 -0.06229686 -0.06243166 -0.06256893 -0.06270615 -0.06284355 -0.06297474 -0.06309861
 -0.06320998 -0.06330751 -0.06339422 -0.06347004 -0.06354403 -0.06361649 -0.06369239 -0.06377088 -0.06384749 -0.06392121
 -0.06398432 -0.0640386 -0.06408393 -0.06412496 -0.06417075 -0.06422406 -0.06429391 -0.06437642 -0.064472 -0.06457406
 -0.06467747 -0.06478171 -0.06488427 -0.06499044 -0.06510209 -0.06521927 -0.06534343 -0.06546625 -0.06558684 -0.06569907
 -0.06580217 -0.06590011 -0.0659932 -0.06608897 -0.06618733 -0.066291 -0.06639908 -0.06650873 -0.06661936 -0.0667276
 -0.0668336 -0.06693577 -0.06703526 -0.06713264 -0.0672298 -0.06732883 -0.0674307 -0.06753764 -0.0676464 -0.06775716
 -0.06786273 -0.06796096 -0.06804702 -0.0681184 -0.06818014 -0.06823158 -0.06828704 -0.06834742 -0.06842614 -0.06852344
 -0.06863946 -0.06877247 -0.06890826 -0.0690449 -0.0691653 -0.06927089 -0.06935586 -0.06942526 -0.06948619 -0.0695429
 -0.06960516 -0.06967233 -0.06974793 -0.06982828 -0.06991175 -0.06999633 -0.0700805 -0.07016417 -0.0702473 -0.07032846
 -0.0704074 -0.07048275 -0.07055397 -0.07062387 -0.07069255 -0.07076475 -0.07084055 -0.07091999 -0.07100251 -0.07108311
 -0.07116169 -0.07123463 -0.07130316 -0.07136901 -0.07143346 -0.07150023 -0.071569 -0.07164111 -0.07171511 -0.07179032
 -0.07186472 -0.07193685 -0.07200534 -0.07206889 -0.07212832 -0.07218301 -0.07223681 -0.0722902 -0.07234734 -0.07240902
 -0.07247595 -0.07254839 -0.07262309 -0.07269987 -0.07277492 -0.07284823 -0.07291808 -0.0729849 -0.07304975 -0.07311322
 -0.07317763 -0.07324336 -0.07331247 -0.07338473 -0.07346075 -0.07354018 -0.07362311 -0.07370868 -0.07379669 -0.07388539
 -0.07397434 -0.0740607 -0.07414365 -0.07422066 -0.07429115 -0.07435323 -0.07440645 -0.07445074 -0.07448589 -0.0745161
 -0.07454166 -0.0745703 -0.0746021 -0.07464164 -0.07468757 -0.074736 -0.0747852 -0.07482705 -0.07486282 -0.07488988
 -0.07491368 -0.07494077 -0.07497533 -0.07502568 -0.07508789 -0.07516372 -0.07524232 -0.07531887 -0.07538668 -0.07544121
 -0.07548629 -0.07552147 -0.07555377 -0.07558437 -0.07561512 -0.07564638 -0.07567613 -0.07570435 -0.07573166 -0.07575849
 -0.07578886 -0.07582327 -0.07586657 -0.07591829 -0.07598033 -0.07605026 -0.07612436 -0.07619968 -0.0762695 -0.07633482
 -0.07639284 -0.07644951 -0.07650828 -0.07657288 -0.07664776 -0.07672723 -0.07681147 -0.07689027 -0.07696099 -0.07701984
 -0.07706516 -0.07710292 -0.07713326 -0.07716536 -0.07719962 -0.07724112 -0.07728962 -0.07734512 -0.07740705 -0.07747289
 -0.07754183 -0.07761011 -0.07767718 -0.07773946 -0.07779863 -0.07785454 -0.07791187 -0.07797568 -0.07804775 -0.0781331
 -0.07822425 -0.07832041 -0.0784095 -0.07848667 -0.07854791 -0.07859005 -0.07862096 -0.0786408 -0.07866047 -0.07868096
 -0.07870745 -0.07874013 -0.07877872 -0.07882301 -0.07887099 -0.07892255 -0.07897615 -0.07903171 -0.07908835 -0.07914583
 -0.07920333 -0.0792604 -0.07931627 -0.07937003 -0.07942072 -0.07946697 -0.079507 -0.07954172 -0.07957006 -0.07959729
 -0.07962462 -0.07965755 -0.07969841 -0.07974507 -0.07979825 -0.07984899 -0.0798965 -0.0799359 -0.07996707 -0.07999523
 -0.08002093 -0.08005194 -0.08008766 -0.08012928 -0.08017509 -0.08022018 -0.08026369 -0.08030093 -0.08033315 -0.08035972
 -0.08038317 -0.08040587 -0.08042976 -0.08045707 -0.08048829 -0.08052438 -0.0805647 -0.08060952 -0.080657 -0.08070713
 -0.08075637 -0.08080428 -0.08084766 -0.08088608 -0.08091942 -0.0809477 -0.08097335 -0.08099657 -0.08102009 -0.08104406
 -0.08107052 -0.08109964 -0.08113322 -0.08117095 -0.0812133 -0.08125933 -0.08130812 -0.08135835 -0.08140861 -0.08145706
 -0.08150227 -0.08154202 -0.08157443 -0.08159996 -0.08161755 -0.08163194 -0.08164342 -0.08165914 -0.08168025 -0.08171095
 -0.08175196 -0.08180109 -0.08185817 -0.0819155 -0.0819728 -0.0820238 -0.08206972 -0.08211315 -0.08215686 -0.08221106
 -0.08227815 -0.08236846 -0.08248263 -0.0826259 -0.08279867 -0.08300227 -0.08323985 -0.08351253 -0.08382786 -0.08418875
 -0.08460456 -0.08507987 -0.08561675 -0.08621848 -0.08687337 -0.0875818 -0.08832099 -0.08908962 -0.08986198 -0.09063651
 -0.09137863 -0.09208417 -0.0926979 -0.09321232 -0.09355787 -0.09373039 -0.09367452 -0.09340169 -0.0928961 -0.09220622
 -0.09138661 -0.09051186 -0.08968461 -0.08894322 -0.0883534 -0.08790795 -0.08762106 -0.08747347 -0.08746386 -0.08756689
 -0.08778317 -0.088057 -0.08838564 -0.08868292 -0.08894017 -0.08911031 -0.089191 -0.08920232 -0.08914712 -0.08906342
 -0.08895277 -0.08884393 -0.08873478 -0.08863496 -0.08853857 -0.08843607 -0.08832576 -0.08819913 -0.08806105 -0.08791474
 -0.08776093 -0.08760252 -0.08743459 -0.08725411 -0.08706238 -0.08685727 -0.08664951 -0.08644047 -0.08624233 -0.08605701
 -0.08589303 -0.08575152 -0.08563492 -0.08554335 -0.0854693 -0.08541191 -0.0853583 -0.08530845 -0.08525517 -0.08519973
 -0.08514287 -0.08508521 -0.08502881 -0.08497311 -0.084918 -0.08486334 -0.08480837 -0.08475495 -0.08470353 -0.08465794
 -0.0846202 -0.08459327 -0.08457953 -0.08457641 -0.08458475 -0.08459605 -0.08460923 -0.0846172 -0.0846189 -0.08461485
 -0.08460504 -0.08459466 -0.08458392 -0.08457685 -0.08457351 -0.08457619 -0.08458528 -0.08460357 -0.08463107 -0.08467018
 -0.08471814 -0.08477267 -0.08482841 -0.08487848 -0.08491958 -0.08494548 -0.08496013 -0.08496266 -0.08496194 -0.08496109
 -0.08496542 -0.08497749 -0.08499563 -0.08502019 -0.08504717 -0.08507618 -0.08510528 -0.08513433 -0.08516192 -0.08518796
 -0.08521058 -0.08523006 -0.08524667 -0.08526121 -0.08527666 -0.08529335 -0.08531426 -0.08533759 -0.08536243 -0.08538519
 -0.08540124 -0.08540894 -0.08540429 -0.08539107 -0.08536939 -0.08534583 -0.08532326 -0.08530377 -0.08528911 -0.08527563
 -0.08526298 -0.08524829 -0.08523093 -0.08521377 -0.08519694 -0.08518669 -0.08518313 -0.0851897 -0.08520555 -0.08522761
 -0.08525469 -0.08528052 -0.0853056 -0.08532757 -0.08534874 -0.08537249 -0.08539887 -0.08543074 -0.08546291 -0.08549241
 -0.08551466 -0.08552467 -0.08552668 -0.08551965 -0.08551436 -0.0855137 -0.0855227 -0.08554371 -0.08556997 -0.08560131
 -0.08562786 -0.08564904 -0.08566394 -0.0856731 -0.08568424 -0.08569754 -0.08571851 -0.08574568 -0.08577679 -0.08581038
 -0.08584154 -0.08587056 -0.08589566 -0.08591773 -0.08593715 -0.08595464 -0.08597059 -0.08598646 -0.08600309 -0.08602156
 -0.08604301 -0.08606538 -0.08608881 -0.08610908 -0.08612535 -0.08613599 -0.08614053 -0.08614151 -0.08613905 -0.08613736
 -0.08613657 -0.08613943 -0.08614574 -0.0861555 -0.08616848 -0.08618356 -0.0862014 -0.08622307 -0.08624916 -0.08628209
 -0.08631957 -0.08636082 -0.08640088 -0.08643521 -0.08646171 -0.08647685 -0.08648462 -0.08648518 -0.08648444 -0.08648407
 -0.08648704 -0.0864942 -0.08650587 -0.08652218 -0.08654317 -0.08656884 -0.0865986 -0.08663224 -0.08666683 -0.08670176
 -0.08673152 -0.08675595 -0.08677071 -0.08677766 -0.08677837 -0.08677635 -0.08677875 -0.08678664 -0.08680562 -0.08683071
 -0.08686074 -0.08688803 -0.08690742 -0.08691631 -0.08691127 -0.08689752 -0.08687516 -0.08685188 -0.08682903 -0.08681121
 -0.0867992 -0.08679333 -0.08679368 -0.08679841 -0.08680739 -0.08681814 -0.08683059 -0.08684307 -0.08685591 -0.08686924
 -0.08688361 -0.08690059 -0.08692028 -0.08694393 -0.08697049 -0.08699959 -0.08702911 -0.08705734 -0.08708238 -0.08710233
 -0.08711752 -0.08712703 -0.08713432 -0.0871399 -0.08714747 -0.08715805 -0.08717128 -0.0871875 -0.08720247 -0.08721594
 -0.08722535 -0.0872309 -0.08723555 -0.08723991 -0.08724962 -0.08726449 -0.08728711 -0.08731607 -0.08734903 -0.08738487
 -0.08742055 -0.08745581 -0.08748961 -0.08752076 -0.08754861 -0.08757006 -0.08758274 -0.08758632 -0.08757839 -0.08756688
 -0.08755248 -0.08754642 -0.0875513 -0.08757014 -0.08760428 -0.08764526 -0.08769267 -0.08773559 -0.0877737 -0.08780131
 -0.08781879 -0.08782569 -0.08782274 -0.08781205 -0.08779497 -0.08777555 -0.08775564 -0.08774029 -0.08773047 -0.08773004
 -0.08773707 -0.08775209 -0.08777043 -0.08778951 -0.08780629 -0.08781787 -0.08782785 -0.08783611 -0.08784891 -0.08786793
 -0.08789293 -0.0879246 -0.08795523 -0.08798438 -0.0880068 -0.08802259 -0.08803385 -0.08804087 -0.08804687 -0.08805113
 -0.08805226 -0.08804999 -0.08804213 -0.08803093 -0.08801902 -0.08800949 -0.08800784 -0.08801406 -0.08803087 -0.08805448
 -0.08808368 -0.0881144 -0.08814466 -0.08817244 -0.08819678 -0.08821703 -0.08823272 -0.08824509 -0.08825396 -0.08826378
 -0.08827481 -0.08829002 -0.08830913 -0.08832763 -0.08834473 -0.08835212 -0.08835068 -0.08833864 -0.08831919 -0.08829986
 -0.08828261 -0.08827556 -0.08827619 -0.0882853 -0.08829825 -0.08831052 -0.08832138 -0.08832791 -0.08833507 -0.08834434
 -0.08835894 -0.08838145 -0.08840597 -0.08843268 -0.08845057 -0.08845817 -0.08845078 -0.08842787 -0.08839427 -0.08835043
 -0.08830477 -0.08825806 -0.08821962 -0.08819009 -0.08817797 -0.08818138 -0.0882012 -0.08823185 -0.08826394 -0.08829287
 -0.08830757 -0.08831049 -0.08829852 -0.08827957 -0.08825766 -0.08823772 -0.08822387 -0.08821332 -0.08820665 -0.0881981
 -0.08818629 -0.08817025 -0.0881493 -0.08812826 -0.08810738 -0.0880914 -0.08808036 -0.08807425 -0.08807253 -0.08807138
 -0.08807027 -0.08806487 -0.08805551 -0.08804029 -0.08802132 -0.08800121 -0.0879826 -0.08797051 -0.08796456 -0.08796731
 -0.08797398 -0.08798292 -0.08798856 -0.08798794 -0.0879789 -0.08795992 -0.08793206 -0.08789484 -0.08785232 -0.08780456
 -0.0877585 -0.08771455 -0.08767954 -0.08765361 -0.0876386 -0.08763392 -0.08763622 -0.08764454 -0.08765324 -0.08766174
 -0.08766548 -0.08766469 -0.08765773 -0.08764488 -0.08762612 -0.08760088 -0.08756801 -0.08752915 -0.08748354 -0.08743782
 -0.08739436 -0.08735878 -0.0873345 -0.0873176 -0.08730891 -0.08729757 -0.08728241 -0.08725575 -0.08721684 -0.08716661
 -0.08710539 -0.08704017 -0.08697179 -0.08690985 -0.08685461 -0.08681305 -0.08678338 -0.08676501 -0.08675446 -0.08674495
 -0.08673407 -0.08671532 -0.08668952 -0.08665464 -0.08661377 -0.08656813 -0.08652042 -0.08647239 -0.08642406 -0.08637572
 -0.08632722 -0.08627821 -0.08623123 -0.08618648 -0.08614676 -0.08611238 -0.08608168 -0.08605456 -0.08602877 -0.08600469
 -0.08598448 -0.0859683 -0.08595902 -0.08595438 -0.08595041 -0.08594321 -0.08592292 -0.08588889 -0.0858345 -0.08576559
 -0.08568412 -0.08559845 -0.08551469 -0.08543687 -0.08536921 -0.08530882 -0.08525609 -0.08520597 -0.08515698 -0.08510974
 -0.08506393 -0.08502343 -0.08498862 -0.08495755 -0.08492995 -0.08489935 -0.08486551 -0.08482374 -0.08477392 -0.08471288
 -0.08464112 -0.08455728 -0.08446454 -0.08436814 -0.08427107 -0.08418041 -0.0840949 -0.08401586 -0.08394164 -0.08387075
 -0.08380497 -0.08374485 -0.0836914 -0.0836462 -0.08360378 -0.08356417 -0.08351756 -0.08346288 -0.08339207 -0.08330432
 -0.08319849 -0.08307487 -0.08294211 -0.08280125 -0.08266494 -0.08253276 -0.08240993 -0.08229461 -0.08218358 -0.08207668
 -0.08197184 -0.08186995 -0.08177203 -0.08167692 -0.08158355 -0.08149217 -0.08140152 -0.08131595 -0.08123782 -0.08116714
 -0.08110631 -0.08104466 -0.08098112 -0.08090325 -0.08080871 -0.0806963 -0.0805654 -0.08042654 -0.08028021 -0.08013567
 -0.07999199 -0.07984573 -0.07969445 -0.07952382 -0.07933534 -0.07912377 -0.07889662 -0.07866711 -0.07843837 -0.07822227
 -0.07801306 -0.07780966 -0.07760615 -0.07739665 -0.0771837 -0.07696588 -0.07675088 -0.07654094 -0.07634075 -0.07615299
 -0.07597172 -0.07579872 -0.07560686 -0.07539475 -0.07512775 -0.0748051 -0.07442649 -0.07399446 -0.07353289 -0.07303983
 -0.07251955 -0.07196663 -0.07136633 -0.07071776 -0.07001065 -0.06925024 -0.06843801 -0.06758295 -0.06669257 -0.06577801
 -0.06484897 -0.06391104 -0.06296907 -0.06202432 -0.06107244 -0.06014159 -0.05923067 -0.05840115 -0.05766175 -0.05704475
 -0.05655476 -0.05617109 -0.0558924 -0.055687 -0.05555356 -0.05546889 -0.05543038 -0.055415 -0.05541803 -0.05541565
 -0.05540019 -0.05534672 -0.05524629 -0.05507343 -0.0548315 -0.05451133 -0.05412919 -0.05369275 -0.05321563 -0.05270563
 -0.05217132 -0.0516171 -0.05104681 -0.05046559 -0.04985245 -0.0492102 -0.0484722 -0.04763327 -0.04664592 -0.04551115
 -0.04431324 -0.04305878 -0.04185054 -0.04067376 -0.03951166 -0.03834709 -0.03711668 -0.03582107 -0.03443256 -0.03295469
 -0.03139272 -0.02971506 -0.02790893 -0.02589827 -0.02362225 -0.0210526 -0.01811903 -0.01498991 -0.01167645 -0.008443562
 -0.005359631 -0.002520966 4.065584E-05 0.002385614 0.004513745 0.006527015 0.008431923 0.0103642 0.01233493 0.01451752
 0.01689361 0.01949491 0.0222389 0.02487097 0.02737764 0.02958061 0.03157501 0.03342573 0.03520225 0.03700716
 0.03884475 0.04074957 0.04270667 0.04471366 0.04677222 0.04888956 0.05103171 0.05319779 0.05532821 0.05741015
 0.05945214 0.06145359 0.06343742 0.06540222 0.06726278 0.06900968 0.07051556 0.07178409 0.07276832 0.073475
 0.07389761 0.07404608 0.07391863 0.07357287 0.07308736 0.0725152 0.07194734 0.07138111 0.07083369 0.07032107
 0.06985181 0.0694477 0.06912804 0.06885342 0.06862579 0.06836797 0.06806955 0.06767798 0.06718548 0.06661732
 0.06597552 0.06533437 0.0646904 0.06404215 0.06337328 0.06260394 0.06171814 0.06062303 0.0593164 0.05773486
 0.05592047 0.05389498 0.05173106 0.04951623 0.04727831 0.04506691 0.0428742 0.04069078 0.03857673 0.03653373
 0.03468386 0.03306239 0.03169588 0.03060202 0.02969649 0.02897395 0.02836717 0.02787361 0.02749204 0.02722384
 0.02708425 0.02706934 0.02716682 0.02737165 0.0276604 0.02803331 0.02848024 0.02900168 0.02959544 0.03025839
 0.03098668 0.0317779 0.03262878 0.03353962 0.0345095 0.0355401 0.03663099 0.03778758 0.03901167 0.04030368
 0.04166698 0.04307323 0.04452153 0.0459655 0.04740314 0.04881991 0.05021767 0.05161707 0.05301056 0.05437522
 0.05569061 0.0568705 0.05792165 0.05880782 0.05956599 0.06023895 0.06084606 0.06143026 0.06197662 0.06248949
 0.06294674 0.06333883 0.06365008 0.06387393 0.06399773 0.06401149 0.06394542 0.06379806 0.06363753 0.06347313
 0.06328242 0.06306378 0.06274032 0.06231084 0.06173582 0.06101966 0.06016456 0.05917459 0.05807171 0.05683941
 0.0554688 0.053902 0.05203543 0.04986469 0.04728084 0.04450584 0.04166786 0.03892458 0.03644087 0.03407481
 0.03181269 0.02952925 0.02717307 0.02479603 0.02239258 0.02007171 0.01784602 0.01572422 0.01370633 0.01172118
 0.00976727 0.007801532 0.005832811 0.003885884 0.001969871 0.0001320453 -0.001634586 -0.003318543 -0.004939227 -0.006520963
 -0.008078901 -0.009634122 -0.01120726 -0.01280591 -0.01449063 -0.01629068 -0.01825962 -0.02046718 -0.02272632 -0.02503656
 -0.02706071 -0.02872003 -0.03005147 -0.03104032 -0.03193929 -0.03276033 -0.03364363 -0.03458317 -0.03555638 -0.03655028
 -0.03747783 -0.03834658 -0.03913759 -0.03986159 -0.04054396 -0.04116351 -0.04170323 -0.04213057 -0.04239466 -0.04250563
 -0.04244754 -0.04226057 -0.04196257 -0.04157601 -0.0411164 -0.0405768 -0.0399652 -0.03923379 -0.0383848 -0.03731013
 -0.0359996 -0.03437599 -0.03243671 -0.03035366 -0.02814856 -0.02613986 -0.02432165 -0.02282788 -0.02162778 -0.02068793
 -0.01998661 -0.01946331 -0.01909814 -0.01884075 -0.01866175 -0.01851633 -0.01836938 -0.01817565 -0.0179344 -0.01761889
 -0.01729513 -0.01698118 -0.01672277 -0.01654141 -0.01641642 -0.01634991 -0.01630206 -0.01626926 -0.01622632 -0.01617185
 -0.01610633 -0.01603077 -0.01595844 -0.01588871 -0.01582636 -0.01576672 -0.01569816 -0.01561301 -0.01548812 -0.01531893
 -0.01508774 -0.01479438 -0.01443534 -0.01400153 -0.01348811 -0.01287821 -0.01215928 -0.01133115 -0.01038683 -0.009348962
 -0.008222639 -0.007019308 -0.005744251 -0.004377768 -0.002917387 -0.001361379 0.0002901566 0.001953774 0.003622383 0.005180915
 0.006632421 0.007935929 0.009099831 0.01013636 0.01103969 0.01180627 0.01241844 0.01284601 0.01307783 0.0130873
 0.01287862 0.01244519 0.01179797 0.01094068 0.009882477 0.008624399 0.007184773 0.005558945 0.003811424 0.001942983
 7.071508E-05 -0.001794204 -0.003570768 -0.005254157 -0.006861507 -0.008396251 -0.009910913 -0.01140138 -0.01287218 -0.01431128
 -0.01567455 -0.01696325 -0.01815228 -0.01926335 -0.02031901 -0.02134085 -0.02236452 -0.02339363 -0.02444661 -0.02550679
 -0.02657394 -0.02761937 -0.02863394 -0.02959265 -0.0304862 -0.03130926 -0.03205737 -0.03274857 -0.03338362 -0.03398543
 -0.03455533 -0.03509436 -0.03560085 -0.03605151 -0.03644606 -0.03676915 -0.03702632 -0.03722934 -0.03738322 -0.03750672
 -0.03759903 -0.03766716 -0.0377088 -0.03772223 -0.03771096 -0.03767452 -0.03762478 -0.03756589 -0.03751383 -0.03747513
 -0.03746066 -0.03747543 -0.03751845 -0.03759132 -0.03768346 -0.03779423 -0.03791236 -0.03803717 -0.03816447 -0.03829437
 -0.03842838 -0.03856562 -0.03870277 -0.03883631 -0.03895254 -0.03904714 -0.03910255 -0.0391176 -0.03908138 -0.03899772
 -0.03886536 -0.03869275 -0.03848395 -0.03825255 -0.03800501 -0.03775725 -0.03751621 -0.03729286 -0.0370914 -0.03691619
 -0.03676838 -0.03665086 -0.03656397 -0.03651046 -0.03649051 -0.03650382 -0.03655005 -0.03662483 -0.03672695 -0.0368476
 -0.03698443 -0.03712415 -0.03726522 -0.03739645 -0.03751962 -0.03763268 -0.03773781 -0.03783797 -0.03793086 -0.03801618
 -0.03808997 -0.03814902 -0.03819443 -0.03822501 -0.03824618 -0.03825913 -0.03826742 -0.03827207 -0.03827303 -0.03827045
 -0.038263 -0.03825058 -0.03823308 -0.03821057 -0.0381844 -0.03815448 -0.03812151 -0.0380845 -0.03804057 -0.03798794
 -0.03792109 -0.03783825 -0.03773398 -0.03760735 -0.03745432 -0.03727726 -0.03707514 -0.03685553 -0.0366217 -0.03638138
 -0.03613921 -0.03589514 -0.03565042 -0.03540127 -0.03514645 -0.03488917 -0.03462927 -0.03437484 -0.03412638 -0.03388539
 -0.0336517 -0.03342203 -0.03319701 -0.03297902 -0.03276945 -0.03257555 -0.03239672 -0.03223506 -0.03208952 -0.03195767
 -0.0318432 -0.03174844 -0.03167979 -0.03164478 -0.03164241 -0.03167601 -0.03173658 -0.03182061 -0.03192493 -0.03204621
 -0.03219383 -0.03236889 -0.03257894 -0.03282584 -0.03310201 -0.03340723 -0.03372447 -0.03405297 -0.0343789 -0.0347023
 -0.0350161 -0.03532152 -0.0356187 -0.03591031 -0.03620362 -0.03649928 -0.03680375 -0.03711119 -0.03741851 -0.0377167
 -0.03799646 -0.03825467 -0.03848552 -0.03869423 -0.03888128 -0.03905222 -0.03920931 -0.03935211 -0.03948141 -0.03959215
 -0.03968393 -0.03975262 -0.03979791 -0.03981902 -0.03981596 -0.0397888 -0.03973759 -0.0396622 -0.03956324 -0.03944271
 -0.03930166 -0.03914426 -0.03896995 -0.03878048 -0.03857264 -0.03834398 -0.03808958 -0.0378055 -0.03748517 -0.03712415
 -0.03671706 -0.03625959 -0.03575431 -0.03519976 -0.03460608 -0.03397485 -0.03331279 -0.03262091 -0.03190089 -0.03115271
 -0.03038733 -0.02960608 -0.02883297 -0.02806911 -0.02733484 -0.02662789 -0.02595088 -0.02529944 -0.02466354 -0.02404056
 -0.02342047 -0.02280478 -0.02219054 -0.02158232 -0.02098317 -0.02039599 -0.01982353 -0.0192664 -0.01872459 -0.01820188
 -0.01769883 -0.01722076 -0.01676991 -0.01634083 -0.01593416 -0.01553275 -0.01513558 -0.01472918 -0.01431336 -0.0138849
 -0.01344397 -0.01298989 -0.01252286 -0.01204276 -0.01155077 -0.01105046 -0.01054154 -0.0100263 -0.009500849 -0.008961029
 -0.008404587 -0.007826748 -0.007231349 -0.006618533 -0.005994542 -0.005361799 -0.004724869 -0.004085207 -0.003446491 -0.002809078
 -0.002178692 -0.001555638 -0.000948339 -0.0003573815 0.0002117543 0.0007594349 0.001292959 0.0018136 0.002335411 0.002856357
 0.003376601 0.003891303 0.004385829 0.004861708 0.005312533 0.005747808 0.006176933 0.006607204 0.007048613 0.007503395
 0.007975432 0.008465698 0.008976852 0.009502999 0.01004503 0.01058754 0.01112803 0.01165485 0.01216593 0.01266014
 0.01313723 0.01359877 0.01404489 0.01447785 0.01489818 0.01531157 0.01571757 0.01611858 0.01651135 0.01688962
 0.01724781 0.01757476 0.01786157 0.01809404 0.01826196 0.01834969 0.01835789 0.01827858 0.01812949 0.01791408
 0.01765422 0.01735662 0.01703501 0.01669255 0.01633924 0.01597637 0.01561229 0.01524772 0.0148849 0.01452398
 0.01416667 0.01381388 0.01347357 0.01314594 0.01283711 0.01254414 0.01226258 0.01198891 0.01171422 0.0114375
 0.01115347 0.01086346 0.01056641 0.01026537 0.009962155 0.009658052 0.009355394 0.0090487 0.008737566 0.008414081
 0.008076471 0.007721453 0.007348507 0.0069553 0.006541678 0.006103794 0.005641895 0.005161538 0.004664619 0.004168557
 0.003674235 0.003195358 0.002729908 0.002279664 0.00184174 0.001412474 0.0009874651 0.0005606062 0.0001257247 -0.0003256119
 -0.0007944014 -0.001285013 -0.001791759 -0.002312426 -0.002846028 -0.003390477 -0.003953053 -0.004534969 -0.005140616 -0.005771217
 -0.006423095 -0.007096207 -0.007783376 -0.00848413 -0.009189703 -0.009899408 -0.01060382 -0.01130266 -0.01198981 -0.01266527
 -0.01332549 -0.01397165 -0.01460263 -0.01522402 -0.01584214 -0.0164628 -0.01709664 -0.01773649 -0.01838424 -0.01902116
 -0.01963858 -0.02022835 -0.02078351 -0.02131592 -0.02182581 -0.02232937 -0.02282862 -0.02333353 -0.02384494 -0.0243694
 -0.02490695 -0.02545738 -0.02601877 -0.02657638 -0.02712717 -0.02764915 -0.02814273 -0.02859624 -0.02901521 -0.02940419
 -0.02976931 -0.0301218 -0.03046167 -0.03079389 -0.03111356 -0.03141782 -0.03170713 -0.0319791 -0.03224298 -0.03250121
 -0.03275952 -0.03302053 -0.03327964 -0.0335368 -0.03378602 -0.03402693 -0.0342549 -0.03446951 -0.03466096 -0.03482908
 -0.03496667 -0.03507646 -0.03516683 -0.03524043 -0.03531073 -0.0353748 -0.03543334 -0.03548272 -0.03551631 -0.03553794
 -0.03554819 -0.0355528 -0.0355574 -0.03555907 -0.03555928 -0.03554906 -0.03552557 -0.03548484 -0.03542454 -0.03534998
 -0.035261 -0.03516759 -0.03507049 -0.03497585 -0.0348838 -0.03479364 -0.03470555 -0.03462028 -0.03453916 -0.03446952
 -0.03441074 -0.0343665 -0.03433169 -0.03429848 -0.03426185 -0.03421113 -0.03414544 -0.03406057 -0.03395589 -0.03383013
 -0.03368215 -0.03350965 -0.03331818 -0.03310733 -0.03288956 -0.03266743 -0.03244847 -0.03223469 -0.03202268 -0.03181248
 -0.03159719 -0.03137659 -0.03114854 -0.03091331 -0.03067254 -0.0304261 -0.03017422 -0.02991657 -0.02965151 -0.02938051
 -0.02910475 -0.02882799 -0.02855593 -0.02829109 -0.02803848 -0.02779723 -0.02756837 -0.02735006 -0.02714193 -0.02694165
 -0.02674898 -0.02655952 -0.02637184 -0.02618617 -0.02600119 -0.02582951 -0.02567187 -0.02554244 -0.02544144 -0.02536451
 -0.02530947 -0.02525458 -0.02519921 -0.02512771 -0.02504356 -0.02494923 -0.02484723 -0.02474527 -0.02464032 -0.02453157
 -0.02441532 -0.02428635 -0.02414668 -0.02399597 -0.02383683 -0.02367148 -0.02349677 -0.02331149 -0.02311633 -0.02290943
 -0.02270379 -0.02250074 -0.02231123 -0.0221367 -0.02197204 -0.02181708 -0.02166738 -0.02152442 -0.02140108 -0.02129751
 -0.02122446 -0.02117419 -0.02113019 -0.02108312 -0.02100322 -0.0208934 -0.02074178 -0.0205638 -0.02037024 -0.02017325
 -0.01998668 -0.01980811 -0.01964105 -0.01947632 -0.01931069 -0.01914276 -0.01897088 -0.01880076 -0.01863341 -0.01846866
 -0.01830681 -0.01814147 -0.01797254 -0.01780226 -0.01763162 -0.01747184 -0.01732218 -0.0171856 -0.01705932 -0.01693553
 -0.01681436 -0.01669188 -0.01657022 -0.01645228 -0.01633536 -0.01621932 -0.01609701 -0.01596286 -0.01581457 -0.01564811
 -0.01546959 -0.01528003 -0.01508505 -0.0148874 -0.01468142 -0.01446714 -0.01423459 -0.01398225 -0.01371831 -0.01344354
 -0.01318528 -0.01294341 -0.01272966 -0.01253854 -0.01234833 -0.01215615 -0.01193894 -0.01170393 -0.01145505 -0.01119953
 -0.01095184 -0.01070944 -0.01047546 -0.01024501 -0.01001443 -0.009784468 -0.009554188 -0.00932627 -0.009101179 -0.008881874
 -0.008668996 -0.008465122 -0.008271405 -0.008082668 -0.007898894 -0.007708905 -0.007512309 -0.007307387 -0.007095152 -0.006885177
 -0.006677992 -0.006481876 -0.006295095 -0.006117577 -0.005945192 -0.005770235 -0.005587169 -0.005383499 -0.005159343 -0.004907622
 -0.004638379 -0.004355898 -0.004069848 -0.003786439 -0.003508935 -0.003238522 -0.002981812 -0.002740163 -0.002520139 -0.00232468
 -0.002140438 -0.001967133 -0.001781507 -0.001582721 -0.001369538 -0.001143462 -0.0009210799 -0.0007007979 -0.0004846881 -0.0002665624
 -2.825289E-05 0.000235521 0.0005457023 0.0009019214 0.001316039 0.001775792 0.002277353 0.002796692 0.003317484 0.003817909
 0.004283882 0.004701794 0.005065373 0.005362588 0.005587832 0.005745382 0.005831066 0.005886308 0.005913085 0.005964793
 0.006043859 0.006172888 0.006350261 0.006567725 0.006822553 0.007097399 0.007389831 0.007682989 0.00797615 0.00825974
 0.008533866 0.008797803 0.009042744 0.009262509 0.009440404 0.009559926 0.009620233 0.009611437 0.009557426 0.009462482
 0.009352036 0.009232714 0.009118371 0.00901157 0.008922268 0.008851608 0.008804051 0.008779852 0.008780278 0.008806477
 0.008872336 0.00897774 0.009133623 0.009330488 0.009544034 0.009764042 0.009952784 0.01011485 0.01023971 0.01033764
 0.01041476 0.01048153 0.01054017 0.01062243 0.01074192 0.0109311 0.01122132 0.01154639 0.01190537 0.01218949
 0.0123718 0.01248174 0.01251719 0.012553 0.01259232 0.01263984 0.01269202 0.01270802 0.01268982 0.01262375
 0.01252201 0.01241759 0.01232012 0.01227017 0.01226287 0.01231344 0.01239994 0.01250505 0.01261113 0.01269343
 0.01276549 0.01282564 0.01289578 0.01298823 0.01309248 0.01321037 0.01331852 0.01341234 0.01348952 0.01354986
 0.01358671 0.01359952 0.01356089 0.0134714 0.01332697 0.01313337 0.01292198 0.01269344 0.01246627 0.0122378
 0.01200417 0.01178068 0.01158797 0.01144209 0.0113807 0.0113721 0.01141097 0.0114484 0.01144837 0.01141918
 0.01134714 0.01128773 0.01125115 0.01127978 0.01138574 0.01155726 0.01179744 0.01203948 0.0122801 0.01247981
 0.01264436 0.01283252 0.01304913 0.01336146 0.01374785 0.01417031 0.01460684 0.01497742 0.01530189 0.01557248
 0.01582241 0.01609318 0.0163816 0.01670325 0.01703312 0.017359 0.01767574 0.0179764 0.01827239 0.01856636
 0.0188605 0.01915722 0.01944261 0.01971602 0.01995946 0.02017207 0.02035982 0.0205252 0.02070257 0.02089052
 0.02110196 0.02132675 0.02153335 0.02172153 0.02187073 0.02199617 0.02211683 0.02223376 0.02235836 0.02247898
 0.02258402 0.02268671 0.02279184 0.02290709 0.02304905 0.02316087 0.02323472 0.02320996 0.02306667 0.02284645
 0.02254692 0.02227608 0.02203955 0.02189023 0.02182444 0.0218097 0.02183959 0.0218592 0.02187065 0.02185119
 0.02180902 0.02175489 0.02168754 0.02161442 0.02151907 0.02138344 0.02120334 0.02096299 0.02068578 0.02038207
 0.02006121 0.01973536 0.01937708 0.01897978 0.01853416 0.01803275 0.01751489 0.01698322 0.01647328 0.01598713
 0.01552604 0.01509007 0.01468011 0.01429718 0.01395036 0.01363639 0.01334865 0.0130834 0.01282618 0.01258121
 0.0123482 0.01213351 0.01194516 0.0117844 0.01165753 0.01155487 0.01147792 0.01139952 0.01130819 0.0111937
 0.01104204 0.01090514 0.01078771 0.01074477 0.01078764 0.01086024 0.0109599</values></Ydata></AB><ScSm><Ydata ylabel="Single channel"><values byteorder="INTEL" format="FLOAT32" numvalues="1814"> 0.07226743 0.07226627 0.07234098 0.07251824 0.0727625 0.07299566 0.07315162 0.07321888 0.07322533 0.07319027
 0.07312429 0.07307512 0.073124 0.07330684 0.07355811 0.07375049 0.07379568 0.07372519 0.07367592 0.07375629
 0.07389952 0.07388197 0.07353403 0.07293555 0.07236428 0.07203874 0.07198058 0.07217677 0.07271762 0.07354224
 0.07415062 0.07396027 0.07303771 0.07213327 0.07184984 0.07206652 0.07228538 0.07220765 0.07182701 0.0713204
 0.07110161 0.07170923 0.07327687 0.07509688 0.07587646 0.07455609 0.07106829 0.06657542 0.06303686 0.0621551
 0.06417582 0.0675521 0.07010585 0.07076319 0.07006535 0.06906417 0.06819339 0.06740694 0.06690919 0.06719103
 0.0683497 0.06963459 0.06983709 0.06832376 0.06578983 0.06376533 0.06322159 0.06396613 0.0654598 0.06740294
 0.0689024 0.06800622 0.06362508 0.05795033 0.05547008 0.05870315 0.06551367 0.07120007 0.07267372 0.0701878
 0.06597762 0.06241199 0.06109782 0.06243996 0.06556696 0.06905638 0.07179971 0.07305278 0.07223926 0.06945051
 0.06594287 0.06353281 0.06348224 0.06600116 0.07020108 0.07417603 0.07587022 0.07459348 0.07147708 0.06827681
 0.06622006 0.0660055 0.06796688 0.0717288 0.07619026 0.08016244 0.08285 0.08393282 0.08363751 0.08259238
 0.08134625 0.08027922 0.07993905 0.08070232 0.08188646 0.0820092 0.08040184 0.07809997 0.07677538 0.07700641
 0.07781792 0.07786999 0.0768148 0.07508107 0.07255292 0.0685383 0.06336606 0.05881406 0.0563307 0.05593196
 0.05726205 0.06015401 0.06337883 0.06458008 0.06285833 0.06040967 0.06034646 0.06337862 0.06745228 0.07025398
 0.07134932 0.07201798 0.07360519 0.07614505 0.07818969 0.07790084 0.07487378 0.0711616 0.06982259 0.07191707
 0.07549015 0.07797939 0.0789178 0.0796405 0.08095226 0.08187739 0.08067335 0.0768964 0.07251421 0.07069285
 0.07303876 0.07798886 0.08194574 0.08194365 0.07764672 0.07142073 0.06648669 0.0646915 0.06601584 0.06980537
 0.07548615 0.0819183 0.0871031 0.08930789 0.08833393 0.08540581 0.08177552 0.07756676 0.07244962 0.06757319
 0.0657914 0.06896006 0.07556383 0.08198306 0.08572149 0.08664589 0.08557919 0.08276434 0.07809666 0.07260372
 0.06892776 0.069274 0.07275231 0.07588406 0.07624467 0.07467276 0.07347353 0.07354568 0.07405257 0.07419208
 0.07433588 0.07538871 0.07749222 0.07968436 0.08083282 0.08066674 0.07982028 0.07909495 0.07873328 0.07824371
 0.07708812 0.07574677 0.07566738 0.07768254 0.08087141 0.08351006 0.08480208 0.08516756 0.08509577 0.08427286
 0.08203861 0.07864262 0.07574436 0.07518066 0.07719222 0.08028144 0.08276834 0.08398967 0.08413309 0.08363632
 0.08289295 0.08211926 0.08141641 0.08105203 0.08139546 0.08239356 0.08344762 0.084016 0.0840604 0.08377913
 0.08322057 0.08235452 0.08134647 0.08057174 0.08034918 0.08070217 0.08139154 0.08212928 0.08268533 0.08286139
 0.08256632 0.08195323 0.08131997 0.08083675 0.08049835 0.08032296 0.08040927 0.08075538 0.08117153 0.08144359
 0.08150426 0.08140759 0.08121242 0.08094107 0.08061454 0.08029149 0.08007229 0.08003961 0.08016437 0.08031219
 0.08039334 0.08045359 0.08055075 0.08060929 0.08049963 0.08022378 0.07992755 0.07974283 0.07968578 0.07969474
 0.07969528 0.07960576 0.07933681 0.07886969 0.07835279 0.07804421 0.07810138 0.07846283 0.07894869 0.0793995
 0.07970335 0.07980457 0.07974834 0.07964493 0.07954516 0.07939976 0.07915995 0.07888009 0.07870496 0.0787562
 0.07901946 0.07935048 0.07960279 0.07972521 0.07974163 0.0797061 0.07969119 0.07973975 0.07979921 0.07976899
 0.07963334 0.07949352 0.07945226 0.07950248 0.07954308 0.07949287 0.07938175 0.07931818 0.07936605 0.07948213
 0.07958431 0.07964426 0.07969231 0.07975349 0.07979705 0.07975297 0.07959123 0.07937688 0.07921332 0.07913524
 0.07910006 0.07907742 0.07909055 0.07915728 0.07923747 0.07926647 0.07922508 0.07915483 0.07910039 0.07904927
 0.07894701 0.07876966 0.07855888 0.07837933 0.07826044 0.0781853 0.0781187 0.07803437 0.07792261 0.07778387
 0.07762162 0.07743967 0.07724091 0.0770332 0.07684508 0.07672159 0.07667913 0.07666502 0.07658805 0.07640146
 0.0761466 0.07590926 0.07573891 0.07561412 0.07548121 0.07531533 0.07513869 0.07498831 0.07488298 0.07481924
 0.07478194 0.07475495 0.07473949 0.07476917 0.07488687 0.07508843 0.07530262 0.07545054 0.07552208 0.07557561
 0.07566841 0.075809 0.07597245 0.07613793 0.07630867 0.07650521 0.07673238 0.07695109 0.077108 0.07720117
 0.07728949 0.07742952 0.07763113 0.07787401 0.07812594 0.07833953 0.07847756 0.07855952 0.07865046 0.07878906
 0.07895254 0.07910237 0.07923741 0.07938556 0.07956348 0.07976706 0.07999499 0.08026052 0.0805742 0.08092014
 0.08125399 0.08152986 0.08174 0.08193263 0.08218064 0.08252099 0.08292341 0.08331963 0.08366314 0.08396135
 0.08425305 0.08455938 0.08486952 0.0851786 0.08551788 0.08592141 0.08637357 0.08681979 0.08722736 0.08761093
 0.08799878 0.08839866 0.08880326 0.08921258 0.08964095 0.09010063 0.09057742 0.09102739 0.09140909 0.09172283
 0.09201424 0.09234042 0.09272972 0.09315711 0.09355199 0.09385322 0.09407668 0.09431081 0.09462224 0.09498157
 0.09531082 0.09559042 0.09588069 0.09623587 0.09663471 0.09701266 0.09733838 0.097636 0.09794223 0.09825818
 0.09854448 0.09876043 0.09890883 0.0990383 0.09919912 0.09940881 0.09966911 0.09999117 0.1003741 0.1007723
 0.1011186 0.1013814 0.1015775 0.1017412 0.1019013 0.1020774 0.102272 0.1024708 0.1026638 0.10285
 0.1030179 0.1031525 0.1032759 0.1034455 0.1036923 0.1039922 0.1043181 0.1046804 0.1050863 0.105496
 0.1058656 0.1062187 0.1066218 0.107082 0.1075154 0.1078373 0.1080465 0.108196 0.1083224 0.1084486
 0.1086245 0.1089058 0.1092909 0.1097177 0.1101251 0.1104925 0.1108234 0.1111181 0.1113689 0.1115691
 0.1117207 0.1118371 0.1119431 0.1120755 0.1122781 0.1125738 0.1129322 0.1132796 0.1135483 0.1137056
 0.1137352 0.1136287 0.1134184 0.1131864 0.1129983 0.1128268 0.1125686 0.1121358 0.1115107 0.1107176
 0.1097758 0.1087013 0.10754 0.1063791 0.1053231 0.1044587 0.1038454 0.1035327 0.1035688 0.1039666
 0.1046541 0.1054741 0.1062438 0.1068056 0.107032 0.1068301 0.1061846 0.1051831 0.1039728 0.1026889
 0.1014232 0.1002262 0.09911136 0.09808092 0.09718683 0.09656513 0.09639181 0.0968054 0.09787147 0.09958316
 0.1018454 0.1044511 0.1071136 0.1095705 0.1116821 0.113447 0.1149446 0.1162731 0.1175126 0.1186984
 0.1198136 0.1208245 0.121728 0.1225496 0.1233013 0.1239632 0.1245012 0.1248878 0.1251163 0.1252147
 0.1252357 0.1252229 0.1251969 0.125173 0.1251638 0.1251441 0.1250335 0.1247335 0.1241847 0.1233984
 0.1224624 0.1215483 0.1209202 0.1209094 0.1218051 0.1236864 0.1263308 0.129304 0.1321693 0.1346405
 0.1366073 0.138092 0.1392001 0.1400659 0.1407994 0.1414654 0.142093 0.1426908 0.1432582 0.1437956
 0.1443102 0.1448141 0.1453221 0.1458429 0.1463642 0.146856 0.1473009 0.14772 0.1481569 0.1486372
 0.1491459 0.1496474 0.1501251 0.1505964 0.1510786 0.1515529 0.1519814 0.1523573 0.1527164 0.153102
 0.153533 0.1540016 0.1544769 0.1549153 0.1552918 0.1556252 0.1559586 0.1563159 0.1566894 0.1570639
 0.1574356 0.1578053 0.1581694 0.1585293 0.1588998 0.1592905 0.1596803 0.1600292 0.160322 0.1605881
 0.1608717 0.1611889 0.16152 0.1618376 0.162139 0.162453 0.1628131 0.1632197 0.1636313 0.1639989
 0.1643056 0.1645737 0.1648382 0.1651201 0.1654237 0.1657457 0.1660783 0.1664086 0.1667282 0.1670442
 0.1673722 0.1677171 0.1680663 0.168402 0.1687152 0.1690103 0.1693007 0.1695996 0.1699148 0.1702517
 0.170615 0.1709976 0.1713713 0.1717025 0.1719807 0.1722258 0.1724673 0.1727239 0.1729987 0.1732867
 0.1735835 0.1738902 0.1742098 0.1745403 0.1748726 0.1751964 0.17551 0.1758223 0.1761421 0.1764674
 0.1767889 0.1771041 0.1774205 0.1777416 0.1780608 0.1783713 0.1786762 0.1789823 0.17929 0.1795923
 0.1798823 0.1801601 0.1804339 0.1807137 0.1810035 0.1813004 0.1815995 0.1818982 0.1821965 0.1824947
 0.1827911 0.1830835 0.1833733 0.1836665 0.1839659 0.1842673 0.1845636 0.1848502 0.1851267 0.1853988
 0.1856757 0.185963 0.1862582 0.1865557 0.1868517 0.1871445 0.1874336 0.1877197 0.1880049 0.1882923
 0.1885861 0.188886 0.1891847 0.1894748 0.1897573 0.1900373 0.1903172 0.1905983 0.1908824 0.1911705
 0.1914614 0.1917519 0.1920381 0.1923215 0.1926104 0.1929102 0.1932142 0.1935123 0.1938031 0.1940905
 0.1943773 0.1946658 0.1949573 0.19525 0.1955418 0.1958305 0.1961103 0.1963763 0.1966344 0.1968951
 0.1971613 0.1974283 0.1976923 0.197953 0.1982138 0.1984821 0.1987629 0.1990531 0.1993483 0.1996461
 0.1999423 0.2002335 0.2005251 0.2008231 0.2011222 0.2014143 0.2016981 0.2019766 0.2022537 0.2025366
 0.2028305 0.2031331 0.2034415 0.2037534 0.2040607 0.2043555 0.2046413 0.2049257 0.205211 0.2055016
 0.2058041 0.2061131 0.2064139 0.2067013 0.2069827 0.2072656 0.2075542 0.2078449 0.2081247 0.2083883
 0.2086505 0.2089268 0.2092158 0.2095132 0.2098204 0.2101315 0.2104347 0.2107276 0.2110131 0.2112931
 0.2115745 0.2118649 0.2121578 0.2124432 0.2127246 0.2130083 0.2132919 0.2135739 0.213853 0.2141097
 0.2142921 0.2142629 0.2136751 0.2118499 0.2077733 0.2003025 0.1886204 0.1727555 0.1537536 0.1333077
 0.1131391 0.09455706 0.07833168 0.06479344 0.05400624 0.04588306 0.04025242 0.03696331 0.03600101 0.0376155
 0.04246315 0.05121763 0.06308945 0.07451339 0.08053736 0.07873817 0.07154432 0.06402314 0.0596671 0.058707
 0.0596343 0.06117252 0.06292924 0.06514886 0.06823148 0.07227878 0.07708631 0.08264741 0.08939362 0.09765005
 0.1069831 0.1163826 0.1251369 0.1333947 0.141821 0.1507961 0.1600202 0.168812 0.1766521 0.1834395
 0.1893856 0.1947773 0.1998179 0.2046057 0.2091874 0.2135518 0.2175359 0.2207952 0.2229699 0.2239541
 0.2240217 0.2236761 0.2233569 0.223265 0.223411 0.2237529 0.224265 0.2249339 0.2257453 0.226674
 0.227679 0.2287173 0.2297582 0.2307769 0.2317472 0.2326525 0.2334906 0.2342604 0.2349571 0.2355834
 0.236151 0.2366726 0.237157 0.2376111 0.2380392 0.2384486 0.2388512 0.2392534 0.2396457 0.2400115
 0.2403431 0.2406454 0.2409293 0.2412021 0.2414656 0.2417217 0.2419797 0.2422502 0.2425319 0.2428142
 0.2430938 0.2433764 0.2436627 0.2439421 0.2442025 0.2444409 0.2446656 0.2448921 0.2451331 0.2453906
 0.2456569 0.2459221 0.2461778 0.2464202 0.2466549 0.2468942 0.2471469 0.247413 0.2476861 0.2479562
 0.2482175 0.2484776 0.2487489 0.2490308 0.2493122 0.249592 0.2498789 0.2501742 0.2504706 0.250761
 0.2510334 0.2512703 0.2514694 0.2516596 0.2518821 0.2521544 0.2524541 0.2527397 0.252989 0.2532141
 0.2534404 0.2536798 0.2539266 0.254166 0.2543916 0.2546255 0.254907 0.2552443 0.2556012 0.2559438
 0.2562712 0.2565876 0.256887 0.2571743 0.2574576 0.257715 0.2579135 0.2580718 0.2582744 0.2586029
 0.2590541 0.2595347 0.2599454 0.2602634 0.2605329 0.2608063 0.2611184 0.2614593 0.2617294 0.2618049
 0.2617271 0.2617472 0.2620923 0.2627329 0.2634465 0.2640491 0.2645084 0.2648823 0.2652188 0.265507
 0.2656907 0.2657309 0.2656886 0.2657474 0.2660911 0.2667158 0.2674122 0.2679761 0.2683707 0.2686593
 0.2688929 0.269101 0.2692461 0.2691567 0.2687063 0.2681414 0.2680261 0.2686982 0.2698851 0.2709899
 0.2716823 0.2720779 0.2724101 0.2727425 0.2730196 0.2731224 0.2727529 0.2716074 0.2699721 0.2688788
 0.2692504 0.2709707 0.2730684 0.2746884 0.2756326 0.2761328 0.2764615 0.2767484 0.2768843 0.2765461
 0.2755533 0.2743276 0.2737797 0.274475 0.2760018 0.2774131 0.278191 0.2785176 0.2787668 0.2790817
 0.2792814 0.278813 0.2770631 0.2742691 0.271982 0.2719789 0.2745201 0.2780282 0.2806512 0.2818605
 0.2822977 0.2823956 0.2817444 0.2798257 0.2767891 0.2733833 0.2707077 0.2700524 0.2720515 0.2756222
 0.2785771 0.2797773 0.280094 0.2809689 0.2826929 0.2844136 0.2852497 0.284974 0.283855 0.2821688
 0.2800696 0.2780535 0.2772334 0.2785469 0.281621 0.2849085 0.287124 0.2882175 0.288695 0.2881193
 0.2848148 0.2778805 0.2697064 0.2653146 0.2679257 0.2755853 0.2832639 0.2878077 0.2896652 0.2905146
 0.2910166 0.2906367 0.2879567 0.2814523 0.2718957 0.2638577 0.2626126 0.2689251 0.2781885 0.2847261
 0.2856568 0.2811967 0.2736376 0.2666638 0.263849 0.266488 0.27303 0.2806135 0.2867881 0.2901828
 0.2904834 0.2882988 0.2851188 0.2829556 0.2828906 0.2834767 0.2818282 0.2772601 0.2724179 0.2693867
 0.266466 0.2613317 0.2561546 0.2561595 0.2628299 0.2714223 0.2762904 0.2765973 0.2752994 0.273773
 0.2694792 0.2596363 0.246494 0.2374187 0.2384321 0.2479513 0.2581954 0.2627813 0.2617761 0.2594182
 0.2584592 0.2573956 0.2526704 0.2433744 0.2335842 0.2289773 0.2308697 0.2350814 0.2369102 0.2348846
 0.2291464 0.2199554 0.2103864 0.2073012 0.2155125 0.2318493 0.2476414 0.2558603 0.2536893 0.2409623
 0.2211002 0.203094 0.197134 0.2055144 0.219853 0.2287961 0.227042 0.2163064 0.2004244 0.1826718
 0.1672169 0.1596429 0.1636097 0.1771343 0.1927512 0.2013206 0.197079 0.1820301 0.1661745 0.1603068
 0.1662806 0.1758121 0.1797778 0.1764632 0.1702563 0.165907 0.1657413 0.1693586 0.1740952 0.177486
 0.1792414 0.1785876 0.1716213 0.1561221 0.1380408 0.1275985 0.1286334 0.1366512 0.1471011 0.1593663
 0.1713264 0.1766312 0.171874 0.1631094 0.1607134 0.1684147 0.1801293 0.1874194 0.1878943 0.1856437
 0.184963 0.1857005 0.1855307 0.1851426 0.1883847 0.1968606 0.207002 0.2140053 0.2168025 0.2175825
 0.218115 0.2184391 0.2181038 0.2169557 0.2150759 0.2129136 0.211138 0.2098944 0.2086832 0.207113
 0.2048912 0.20075 0.1927469 0.1810742 0.1698013 0.1636959 0.1632292 0.1648857 0.1663447 0.1678503
 0.167468 0.1597168 0.1428287 0.1246846 0.1170621 0.1242705 0.1399834 0.1544577 0.1619646 0.1612415
 0.1525922 0.1381885 0.1245707 0.1206054 0.1302215 0.1486348 0.167498 0.1820704 0.1916472 0.1955746
 0.1925938 0.1839303 0.1744585 0.1699295 0.1735174 0.1844006 0.197942 0.2067717 0.2043904 0.1917194
 0.1801262 0.1830027 0.2015522 0.2225859 0.2333274 0.2343961 0.2344527 0.2367699 0.2376725 0.2361172
 0.2374592 0.2460883 0.2589263 0.2684427 0.2692533 0.2602212 0.2436992 0.2260162 0.2158626 0.2174141
 0.2257289 0.2322457 0.2331289 0.2287563 0.2186471 0.2036345 0.1912959 0.1913749 0.2044728 0.2207142
 0.2309777 0.2352069 0.238323 0.2417021 0.2414892 0.2344438 0.2233596 0.2153355 0.2147363 0.2193528
 0.2240733 0.2262374 0.2256967 0.2218132 0.213857 0.2043269 0.1989478 0.2017294 0.2108629 0.2204571
 0.2258431 0.226517 0.2247118 0.2225755 0.2207611 0.2186149 0.2155781 0.2130104 0.2139315 0.2197111
 0.2277326 0.2340123 0.2377336 0.2414966 0.2472318 0.2535136 0.2572662 0.2571055 0.2546669 0.2532042
 0.2549845 0.2594625 0.2636567 0.2646827 0.2625023 0.2602277 0.2612639 0.2660611 0.2720508 0.2765613
 0.279003 0.2803159 0.2813921 0.2823123 0.282302 0.2803295 0.2765908 0.2733848 0.2734936 0.2774205
 0.2828965 0.2872018 0.2893423 0.289923 0.2896892 0.2887375 0.2869352 0.2846261 0.2826453 0.281678
 0.2817848 0.2825701 0.2836105 0.2846374 0.2855082 0.2861832 0.2866939 0.2870707 0.287335 0.287543
 0.2877408 0.2878737 0.2878475 0.2877103 0.28767 0.2878667 0.2881981 0.2884361 0.2884383 0.2881529
 0.2874928 0.286363 0.2848135 0.2830275 0.281115 0.2790383 0.2768581 0.2750117 0.2741962 0.2748502
 0.2767433 0.2791137 0.2812043 0.2826537 0.2834738 0.2838315 0.2839128 0.2838857 0.2838632 0.28387
 0.2838699 0.2838356 0.283776 0.2837082 0.2836385 0.2835826 0.2835746 0.2836319 0.2837265 0.2838042
 0.283818 0.2837353 0.2835414 0.2832507 0.2828922 0.2824648 0.2819194 0.2811986 0.2802907 0.2792453
 0.2781458 0.2770667 0.2760336 0.2750099 0.2739291 0.2727402 0.2714062 0.2698708 0.2680943 0.266149
 0.2642193 0.2624543 0.2608496 0.2593011 0.2577277 0.2561039 0.2544224 0.252684 0.250912 0.2491366
 0.2473636 0.2455738 0.243749 0.2418872 0.2399935 0.2380612 0.2360707 0.2340079 0.2318799 0.2297062
 0.2274892 0.2251796 0.2226618 0.2197816 0.2163982 0.2124276 0.207866 0.2028015 0.1974055 0.1918972
 0.186491 0.181357 0.1766108 0.172338 0.1686214 0.1655349 0.1631202 0.1613888 0.1603436 0.159984
 0.1602951 0.1612431 0.1627701 0.1647823 0.1671484 0.1697093 0.1722867 0.1747133 0.1768984 0.1788742
 0.1807546 0.1826333 0.1845158 0.1863427 0.1880621 0.1896621 0.1911349 0.1924479 0.1935759 0.1945413
 0.1953929 0.1961585 0.1968422 0.1974524 0.1980088 0.1985265 0.1990087 0.1994581 0.1998945 0.2003526
 0.2008611 0.2014294 0.2020621 0.2027736 0.2035751 0.2044562 0.2053861 0.2063345 0.2072939 0.2082854
 0.2093372 0.210462 0.2116706 0.2130002 0.214505 0.2162168 0.2181234 0.2201728 0.2222843 0.224361
 0.2263049 0.2280287 0.2294756 0.2306416 0.2315665 0.2322908 0.2328354 0.2332169 0.2334628 0.2336059
 0.2336765 0.2336932 0.2336526 0.2335343 0.233321 0.2330143 0.2326368 0.2322259 0.2318132 0.2314065
 0.2309986 0.2305863 0.2301705 0.2297469 0.2293121 0.228865 0.2283984 0.2279046 0.2273886 0.2268583
 0.2263055 0.2257083 0.2250419 0.2242764 0.2233804 0.2223375 0.2211553 0.2198561 0.2184632 0.2169893
 0.2154358 0.2138065 0.2121131 0.2103578 0.208524 0.2065934 0.2045525 0.202384 0.2000904 0.1977356
 0.1954312 0.1932631 0.1912436 0.1893353 0.1875037 0.1857439 0.1840664 0.1824699 0.1809397 0.1794705
 0.1780739 0.1767608 0.1755304 0.1743792 0.1733066 0.1723199 0.1714386 0.1706793 0.1700309 0.1694646
 0.1689687 0.1685515 0.1682184 0.1679711 0.1678187 0.1677532 0.1677196 0.1676389 0.1674667 0.1672221
 0.166959 0.1667176 0.1665083 0.166329 0.1661739 0.1660064 0.165746 0.1652977 0.1645852 0.1635565
 0.1621907 0.1605154 0.1586059 0.1565711 0.1545483 0.152679 0.1510628 0.1497377 0.1487013 0.1479195
 0.1473229 0.1468337 0.1464177 0.1461075 0.1459724 0.1460334 0.1461842 0.1462395 0.1461164 0.1459428
 0.1459412 0.1462319 0.1467675 0.1474091 0.1480248 0.1485387 0.1489193 0.1491469 0.14922 0.1491793
 0.1490728 0.1489035 0.1486467 0.1483052 0.1479098 0.1474861 0.1470375 0.1465367 0.1459348 0.1452062
 0.1443681 0.1434476 0.1424607 0.141414 0.1402766 0.138991 0.1375964 0.1363127 0.1354345 0.1351469
 0.1354351 0.1361103 0.1369316 0.1377527 0.1385017 0.1390099 0.139062 0.1387734 0.1387648 0.1397111
 0.141688 0.1440732 0.146092 0.1473575 0.1478887 0.1478083 0.1471917 0.1461042 0.1445863 0.1426235
 0.1402361 0.1375296 0.1346098 0.1315798 0.128634 0.1259897 0.1237399 0.1218756 0.1203815 0.1193189
 0.1188422 0.1185839 0.1166741 0.1107346 0.1015375 0.09463648 0.09570608 0.1041569 0.1135335 0.1183448
 0.1184548 0.1167994 0.1153744 0.1144434 0.1138865 0.1138681 0.1145555 0.1158216 0.1172509 0.1184025
 0.1191025 0.1194053 0.1192882 0.118431 0.1161599 0.1116509 0.1045847 0.09577525 0.08690538 0.07952036
 0.07432961 0.07124025 0.06967874 0.06891109 0.06840655 0.0680981 0.06828909 0.069287 0.07112712 0.07362224
 0.07656981 0.07976774 0.08287238 0.08548626 0.08747326 0.08901107 0.09026554 0.09117281 0.09158736 0.0914933
 0.09101474 0.09031618 0.08953048 0.08871719 0.08783592 0.08678395 0.08554121 0.08430769 0.08340449 0.08297573
 0.08287426 0.08288027 0.08290662 0.08294936 0.08298452 0.08298253 0.08294598 0.08292153 0.08301243 0.08331615
 0.08380061 0.08430383 0.08468106 0.08490892 0.08505538 0.08515948 0.08511317 0.08474542 0.08411975 0.08358067
 0.08329679 0.08293568 0.0820861 0.08088821 0.07995174 0.0796938 0.07997853 0.0803712 0.08054645 0.08044353
 0.08021678 0.08014375 0.08045624 0.08108393</values></Ydata></ScSm><ScRf><Ydata ylabel="Single channel"><values byteorder="INTEL" format="FLOAT32" numvalues="1820"> 0.06077202 0.0609315 0.06102763 0.06106278 0.06106047 0.06106429 0.06112448 0.06126723 0.06147151 0.06167597
 0.06181921 0.06188186 0.06188248 0.06183848 0.06176258 0.06170134 0.06173124 0.06188636 0.06210706 0.0622781
 0.06231999 0.06225801 0.06220759 0.06226158 0.06236812 0.06234536 0.06205468 0.06156022 0.06108641 0.06080979
 0.06074988 0.06090268 0.06134934 0.06203886 0.06254791 0.06238435 0.06160541 0.0608457 0.06061239 0.06079757
 0.06097555 0.06089475 0.06055644 0.06011788 0.05993327 0.06045626 0.06179354 0.0633408 0.06400206 0.06287977
 0.05991405 0.05608673 0.05306021 0.05228671 0.05398636 0.0568532 0.05903445 0.05960903 0.05903242 0.05820069
 0.05748071 0.05682167 0.05638631 0.05659573 0.05754938 0.05862349 0.05879335 0.05751571 0.05537586 0.05366737
 0.05320748 0.05382854 0.05507791 0.05671204 0.05798016 0.05722393 0.05351114 0.0486957 0.04658944 0.04933929
 0.0551364 0.05998134 0.06123964 0.05912583 0.05555002 0.05252994 0.05141878 0.05254518 0.05517162 0.0581092
 0.06043024 0.06149863 0.06081396 0.05845017 0.05547684 0.05343604 0.05339295 0.05551956 0.05906214 0.06241183
 0.06383406 0.06274584 0.06010204 0.05738756 0.0556445 0.05546933 0.05714636 0.06035243 0.06414533 0.0675123
 0.06978291 0.07069379 0.07044283 0.06956616 0.06853098 0.06765328 0.06738147 0.06802246 0.06900328 0.06908606
 0.06771584 0.06576563 0.06464135 0.06483141 0.0655175 0.06556821 0.06468229 0.06321567 0.06107045 0.0576634
 0.05327327 0.04940716 0.04729751 0.04696406 0.04810911 0.05059173 0.05336449 0.05441596 0.05296887 0.05088045
 0.05079708 0.05333257 0.05675429 0.05910558 0.0600214 0.06058861 0.06194603 0.06411753 0.0658696 0.06563678
 0.06306881 0.0599076 0.05876186 0.06054758 0.06360535 0.06574421 0.06655703 0.06718187 0.06830977 0.0691123
 0.06810918 0.06493084 0.06125525 0.0597638 0.06180276 0.06603446 0.06940883 0.06941622 0.0657749 0.06049594
 0.0563199 0.05482006 0.05598342 0.05926029 0.0641716 0.06975256 0.07429565 0.07630238 0.07557042 0.07312506
 0.07004469 0.06645676 0.06209025 0.05793516 0.05645461 0.05926168 0.06505986 0.07072231 0.07407905 0.07499881
 0.07418078 0.07182358 0.06782728 0.06309247 0.05994919 0.06035095 0.06352411 0.06640281 0.06683776 0.06555709
 0.06459624 0.06475942 0.06531414 0.06555213 0.06580703 0.06688777 0.06891856 0.07103275 0.07220902 0.07219619
 0.07155903 0.07102489 0.07082434 0.07051744 0.06961448 0.068553 0.06865229 0.07066405 0.07373428 0.07628025
 0.07757995 0.07803477 0.07810681 0.07750335 0.0755947 0.07259078 0.07002845 0.06963577 0.07166238 0.07471715
 0.07721524 0.07852418 0.07882549 0.07853769 0.07802546 0.07748364 0.07700758 0.07685131 0.07735735 0.07846716
 0.07961407 0.08029297 0.08047456 0.08034531 0.07994524 0.07924963 0.07843168 0.0778584 0.07782403 0.07833421
 0.07915582 0.08002149 0.0807168 0.08104473 0.0809025 0.08043072 0.07992919 0.07958531 0.07940745 0.07940869
 0.07967028 0.0801767 0.0807365 0.08114248 0.08133495 0.08137172 0.08131073 0.08116968 0.08096706 0.08077074
 0.08069777 0.08083192 0.08112087 0.08141103 0.08162581 0.08184019 0.08211641 0.08234763 0.08236907 0.08218057
 0.08196084 0.08187532 0.08194112 0.08207026 0.0821684 0.08215841 0.08196847 0.08159298 0.08118318 0.08099315
 0.0811791 0.08168803 0.08234856 0.08299062 0.08347239 0.08371345 0.08375809 0.0837303 0.08368974 0.0835883
 0.08338457 0.08315369 0.08306275 0.08323997 0.08365854 0.08415268 0.08455446 0.08479656 0.08490116 0.08494313
 0.08502661 0.08520433 0.08539496 0.08545974 0.08538181 0.08529891 0.08533762 0.08547081 0.08556344 0.08553135
 0.08543415 0.08541151 0.08553781 0.08575802 0.08596856 0.08613271 0.08629843 0.08651194 0.08672787 0.08682424
 0.08673093 0.08652687 0.08636332 0.08630353 0.08630052 0.0863251 0.08642697 0.08663636 0.08687387 0.08701709
 0.08703606 0.08701733 0.08704984 0.08711834 0.08712818 0.0870194 0.08683138 0.08666204 0.08658855 0.08662444
 0.08672271 0.08680676 0.08681587 0.08674167 0.08662483 0.08651374 0.08643076 0.08638568 0.08641237 0.08655737
 0.08680574 0.08703457 0.08708522 0.08690715 0.0866185 0.08640407 0.08634854 0.08637391 0.08633479 0.08615869
 0.08589156 0.08563083 0.08543909 0.08531612 0.08522666 0.08514314 0.08507678 0.08507675 0.08517975 0.08534077
 0.08543378 0.08535625 0.08512996 0.0848736 0.08468783 0.08459343 0.0845588 0.08454618 0.08454238 0.08457226
 0.08466222 0.08477357 0.08481362 0.08473997 0.08461703 0.08455071 0.08460462 0.08477886 0.08500883 0.08517636
 0.08518954 0.08507873 0.08497123 0.0849581 0.08502306 0.08510421 0.08517559 0.08524795 0.0853285 0.08541606
 0.08552551 0.08568832 0.08591947 0.08619073 0.08644096 0.08661636 0.08671335 0.0867912 0.08693461 0.0871881
 0.08752053 0.08785303 0.0881222 0.08832254 0.08849431 0.08867307 0.08885966 0.08904868 0.089267 0.08955097
 0.08988987 0.09022702 0.09052221 0.09078662 0.09105343 0.09133848 0.09163874 0.09195669 0.09231491 0.0927337
 0.09318325 0.09357524 0.09383246 0.09396802 0.09408087 0.09427842 0.0946041 0.09500637 0.0953605 0.09556225
 0.09563573 0.09571947 0.09591462 0.09618048 0.09641835 0.09662309 0.09689255 0.09729148 0.0977571 0.09815797
 0.09842233 0.0985925 0.09876101 0.09896621 0.09915961 0.09927894 0.09933616 0.09940487 0.09952915 0.0996915
 0.09988409 0.100155 0.1005393 0.1009799 0.1013694 0.1016532 0.101854 0.1020127 0.1021454 0.1022477
 0.1023083 0.1023293 0.1023464 0.1024058 0.1025034 0.1025804 0.1026021 0.1026091 0.1026693 0.1028101
 0.1030246 0.1033047 0.1036285 0.1039417 0.104205 0.1044582 0.1047809 0.1051737 0.1055223 0.1057163
 0.1057682 0.1057755 0.1057977 0.1058334 0.1058966 0.1060416 0.1062963 0.1066224 0.1069648 0.1073057
 0.1076538 0.1080043 0.1083221 0.1085572 0.1086726 0.1086758 0.1086282 0.1086195 0.1087216 0.1089502
 0.1092599 0.109578 0.1098507 0.1100524 0.1101609 0.1101598 0.1100883 0.1100559 0.1101562 0.1103615
 0.1105318 0.1105345 0.1103312 0.1099537 0.1094382 0.1088102 0.1081165 0.1074389 0.1068638 0.1064453
 0.1062047 0.1061656 0.1063687 0.1068273 0.1074742 0.1081811 0.1088361 0.1093685 0.1096993 0.1097267
 0.109402 0.1087952 0.1080526 0.1073047 0.1066242 0.1060253 0.1054706 0.1049152 0.1043924 0.1040518
 0.1040871 0.1046224 0.1056522 0.1070481 0.108597 0.1100702 0.1113125 0.1122977 0.1130992 0.1138066
 0.1144707 0.1151186 0.1157794 0.1164603 0.1171149 0.1176793 0.1181445 0.1185601 0.1189678 0.119361
 0.119708 0.1199872 0.1202056 0.1204005 0.1206083 0.1208109 0.1209365 0.1209369 0.1208416 0.120715
 0.1205825 0.120414 0.1201588 0.1197895 0.1193403 0.1189337 0.1187585 0.1189867 0.1196755 0.1207323
 0.1219845 0.1232863 0.1245533 0.125709 0.1266566 0.1273354 0.1277802 0.1280915 0.1283608 0.1286355
 0.1289307 0.1292437 0.1295611 0.1298672 0.1301533 0.1304276 0.130717 0.1310425 0.1313851 0.1316914
 0.1319326 0.1321475 0.1324129 0.1327698 0.1331824 0.1335754 0.1339108 0.1342181 0.1345374 0.1348514
 0.1351039 0.1352789 0.1354273 0.1356182 0.1358897 0.1362386 0.1366206 0.1369624 0.1372109 0.1373821
 0.1375416 0.1377379 0.137971 0.1382199 0.1384727 0.1387267 0.1389795 0.1392352 0.1395093 0.1398093
 0.1401073 0.1403515 0.1405191 0.1406477 0.1408018 0.1410109 0.1412498 0.1414762 0.1416785 0.1418889
 0.1421493 0.1424619 0.1427748 0.1430243 0.1431898 0.1433037 0.1434172 0.1435648 0.1437552 0.1439791
 0.1442164 0.1444452 0.1446547 0.1448521 0.145054 0.1452668 0.1454807 0.1456835 0.1458758 0.1460681
 0.146269 0.1464796 0.1467012 0.1469439 0.1472205 0.1475228 0.1478121 0.1480474 0.1482224 0.1483652
 0.1485048 0.1486512 0.1488062 0.1489751 0.1491617 0.1493627 0.1495717 0.1497843 0.149996 0.1502026
 0.1504043 0.1506068 0.1508136 0.1510199 0.1512219 0.1514276 0.1516508 0.1518892 0.1521195 0.1523194
 0.152492 0.1526616 0.15285 0.153057 0.1532645 0.153457 0.153637 0.1538179 0.1540072 0.1542032
 0.154404 0.1546089 0.1548147 0.1550159 0.1552115 0.1554054 0.1556032 0.155807 0.156014 0.1562188
 0.156418 0.1566116 0.1568026 0.1569949 0.1571914 0.1573911 0.1575905 0.1577888 0.1579878 0.158188
 0.1583873 0.1585831 0.1587739 0.1589616 0.1591501 0.1593408 0.1595303 0.1597173 0.1599065 0.1601053
 0.1603158 0.1605334 0.1607499 0.1609607 0.1611708 0.1613883 0.1616113 0.1618275 0.1620304 0.1622271
 0.1624296 0.1626425 0.1628615 0.1630806 0.1632992 0.1635209 0.1637459 0.1639669 0.1641757 0.1643689
 0.164549 0.1647229 0.1648974 0.1650713 0.1652385 0.1654017 0.1655727 0.1657579 0.1659528 0.1661516
 0.1663513 0.1665495 0.1667461 0.1669452 0.1671481 0.1673495 0.1675429 0.1677265 0.1679065 0.1680959
 0.1683025 0.1685191 0.1687342 0.1689458 0.1691582 0.1693724 0.1695881 0.169805 0.1700178 0.170222
 0.1704233 0.1706314 0.1708477 0.1710676 0.1712876 0.1715052 0.17172 0.1719346 0.1721482 0.1723566
 0.1725624 0.1727705 0.1729769 0.1731768 0.1733769 0.1735842 0.1737954 0.1740074 0.174224 0.1744459
 0.1746681 0.1748888 0.1751073 0.1753209 0.175532 0.1757445 0.1759526 0.1761504 0.176345 0.1765465
 0.1767579 0.1769782 0.1771994 0.1773943 0.1775129 0.1774448 0.1769136 0.1753658 0.1719575 0.1657277
 0.1559892 0.1427677 0.1269403 0.1099182 0.09313115 0.07766545 0.06416415 0.0529075 0.04394962 0.03721187
 0.0325438 0.02981514 0.02901195 0.03034095 0.03434569 0.04158369 0.05140189 0.06085272 0.06584238 0.06436595
 0.05842729 0.05221182 0.04860634 0.04780622 0.04857098 0.04984677 0.05130294 0.05313551 0.05567626 0.05901369
 0.06298085 0.06757306 0.07314863 0.07997759 0.08770174 0.09548414 0.1027302 0.1095547 0.1165063 0.1239076
 0.131519 0.1387802 0.1452616 0.1508797 0.1558079 0.1602786 0.1644512 0.1683998 0.1721644 0.1757471
 0.1790248 0.1817143 0.1835124 0.1843254 0.1843746 0.1840699 0.1837708 0.18365 0.1837327 0.1839966
 0.1844164 0.1849658 0.1856222 0.1863655 0.1871679 0.1879974 0.1888312 0.1896516 0.1904362 0.1911662
 0.1918357 0.1924479 0.19301 0.1935315 0.1940171 0.1944642 0.1948749 0.1952594 0.195626 0.1959763
 0.1963103 0.1966285 0.1969285 0.197207 0.1974606 0.1976869 0.1978919 0.1980926 0.1983026 0.1985183
 0.1987288 0.1989323 0.1991372 0.1993504 0.1995707 0.1997907 0.2000029 0.2002032 0.2003903 0.2005651
 0.2007331 0.2009047 0.201087 0.2012789 0.2014772 0.201681 0.2018866 0.2020869 0.2022798 0.2024708
 0.2026671 0.2028699 0.2030717 0.203261 0.2034384 0.2036234 0.2038344 0.2040651 0.2042951 0.2045173
 0.2047372 0.2049559 0.2051688 0.2053753 0.2055752 0.2057608 0.2059248 0.2060755 0.2062375 0.2064338
 0.2066648 0.2069054 0.2071298 0.207334 0.2075298 0.2077258 0.2079202 0.2081051 0.208278 0.2084565
 0.2086695 0.2089222 0.209187 0.2094424 0.2096933 0.2099438 0.2101829 0.2104078 0.210625 0.2108234
 0.2109799 0.2111048 0.2112574 0.2115006 0.2118369 0.2121965 0.2125016 0.2127379 0.2129492 0.2131809
 0.2134473 0.2137191 0.2139079 0.2139263 0.213827 0.2138256 0.2141083 0.214646 0.2152477 0.2157518
 0.2161238 0.2164135 0.2166708 0.2168954 0.2170362 0.2170499 0.2169858 0.2170066 0.2172714 0.2177739
 0.2183381 0.2187999 0.2191318 0.2193777 0.2195663 0.2197168 0.2198063 0.2197045 0.2193141 0.2188382
 0.2187348 0.2192721 0.2202228 0.2211081 0.2216728 0.2220126 0.2223013 0.222575 0.22279 0.2228624
 0.2225542 0.2216088 0.2202524 0.2193367 0.2196342 0.2210594 0.2228123 0.2241795 0.2249808 0.2253898
 0.2256312 0.225835 0.2259372 0.2256764 0.2248874 0.2239 0.2234602 0.2240401 0.2253068 0.226479
 0.2271255 0.2273949 0.2275997 0.2278654 0.2280463 0.2276833 0.2262633 0.223977 0.2221017 0.2221023
 0.2241984 0.2271015 0.2292916 0.2303233 0.2307073 0.2307938 0.2302547 0.2286782 0.2261959 0.2234231
 0.2212581 0.2207574 0.2224366 0.2253971 0.2278367 0.2288285 0.2291049 0.2298604 0.2313321 0.2328093
 0.2335518 0.2333601 0.2324575 0.2310872 0.2293908 0.2277776 0.2271526 0.2282776 0.2308465 0.2335915
 0.2354539 0.2363869 0.2368075 0.2363606 0.2336671 0.2279842 0.2212841 0.2177082 0.2199115 0.2262824
 0.2326715 0.2364725 0.2380539 0.2388036 0.239264 0.2389888 0.2368153 0.231501 0.2236888 0.2171424
 0.2162039 0.2214961 0.2292152 0.234682 0.2355212 0.2319036 0.2257146 0.2200029 0.2177359 0.22
 0.2255226 0.2319292 0.237172 0.2401046 0.2404689 0.2387697 0.2362372 0.2345411 0.2345796 0.2351448
 0.2338414 0.2301195 0.2261975 0.2238094 0.2215252 0.217396 0.2132325 0.2134111 0.2191842 0.2265801
 0.2308615 0.2313268 0.2304569 0.2293999 0.2260101 0.2179362 0.2070684 0.1996386 0.2007764 0.2091856
 0.2182996 0.2227156 0.2224883 0.2212095 0.2212108 0.2211845 0.2180252 0.2108848 0.2032526 0.2000345
 0.2023362 0.2064754 0.2083474 0.2066984 0.2016926 0.1936055 0.1851925 0.1825432 0.1899507 0.2046668
 0.2190472 0.2268379 0.2254713 0.214721 0.1976001 0.1821944 0.1777278 0.1863043 0.2003525 0.2095857
 0.2091605 0.2005515 0.1871707 0.1720374 0.1591633 0.1539871 0.1601294 0.1757156 0.1933796 0.2039055
 0.2013279 0.1876018 0.1730525 0.1689537 0.1772395 0.1891339 0.1949597 0.1929177 0.1877306 0.1845863
 0.1861477 0.1920398 0.1992408 0.2049358 0.208765 0.2096208 0.2026148 0.1849512 0.1637021 0.1511429
 0.1520077 0.1610759 0.1729832 0.1870341 0.2007939 0.2067913 0.2009408 0.1902774 0.1869589 0.1953583
 0.2083243 0.2159266 0.2152831 0.2110811 0.2083523 0.2071244 0.2049196 0.2025397 0.2042751 0.2119813
 0.2218348 0.2286007 0.2310774 0.2316227 0.2321514 0.23268 0.2326805 0.2319628 0.230599 0.2290506
 0.2280248 0.2276808 0.2274837 0.2270155 0.2259459 0.2228011 0.2152869 0.2035115 0.1920252 0.1862115
 0.1865815 0.1891514 0.191365 0.1935832 0.1935634 0.1849037 0.1654973 0.144474 0.1355559 0.1437953
 0.161812 0.178207 0.1862938 0.1846752 0.1738452 0.1563953 0.1397159 0.1336681 0.1425412 0.1609388
 0.1795424 0.1931303 0.2011489 0.2032582 0.1983637 0.1877974 0.1765777 0.1705327 0.1727562 0.1822557
 0.1942819 0.2015443 0.1977831 0.1839982 0.1711815 0.1721995 0.188294 0.2070069 0.2161838 0.2162758
 0.2153851 0.2166647 0.2167727 0.2147399 0.2155024 0.2231449 0.2349024 0.2438908 0.2451511 0.2376013
 0.2233955 0.2084191 0.2007488 0.2041371 0.213678 0.2210887 0.2226945 0.2189297 0.2094526 0.195197
 0.1835432 0.1838781 0.1967224 0.2125096 0.2224588 0.2265692 0.2296264 0.232958 0.232825 0.2260936
 0.2154816 0.2078817 0.2075482 0.2123826 0.217487 0.2203266 0.2207481 0.2180522 0.2114375 0.2033342
 0.1994257 0.2037047 0.214316 0.2252599 0.2317311 0.2331139 0.231583 0.2292822 0.2268854 0.2237566
 0.2193713 0.21518 0.2143355 0.2183265 0.2246093 0.2292231 0.2313277 0.2334874 0.237646 0.2424541
 0.2449135 0.2436479 0.2402076 0.2377072 0.2383199 0.241561 0.2446581 0.2449176 0.2422857 0.2396469
 0.2401725 0.2442868 0.2495991 0.2536205 0.2557992 0.2570017 0.2580367 0.2589453 0.258972 0.2571389
 0.2536255 0.2505636 0.2505253 0.253976 0.2588325 0.2626159 0.2644555 0.2649515 0.2648122 0.2641212
 0.2627275 0.2608997 0.2593552 0.2586921 0.2589548 0.2597736 0.2607533 0.2616473 0.2623345 0.2628001
 0.2631051 0.2633035 0.263419 0.2634967 0.2635837 0.263642 0.2635852 0.2634453 0.2634035 0.2635872
 0.2639052 0.264149 0.2641854 0.2639666 0.2634209 0.2624757 0.2611911 0.2597437 0.2582289 0.2565902
 0.2548599 0.2534368 0.2529714 0.2538661 0.2558965 0.2583572 0.2605532 0.2621415 0.2631158 0.2636248
 0.2638432 0.2639138 0.2639175 0.263873 0.2637677 0.2635864 0.2633195 0.2629666 0.2625491 0.2621178
 0.2617347 0.2614307 0.2611774 0.260907 0.260565 0.2601388 0.2596489 0.2591261 0.2585885 0.2580214
 0.2573791 0.256619 0.2557395 0.2547874 0.2538382 0.2529589 0.252167 0.2514198 0.2506543 0.2498344
 0.2489437 0.2479511 0.2468351 0.2456572 0.244565 0.2436809 0.2429951 0.2423875 0.2417344 0.2409725
 0.2400918 0.2391169 0.2380922 0.2370501 0.2359847 0.2348678 0.2336781 0.2324058 0.2310457 0.2296014
 0.2280859 0.2265109 0.2248894 0.2232412 0.2215669 0.2198107 0.2178566 0.2155628 0.212797 0.2094657
 0.2055455 0.2011075 0.19631 0.191359 0.1864558 0.1817661 0.1774213 0.17353 0.170177 0.1674202
 0.1653018 0.1638595 0.1631219 0.1631026 0.1637942 0.1651595 0.1671218 0.1695709 0.1723706 0.1753595
 0.1783572 0.1811969 0.183785 0.186139 0.1883494 0.1904757 0.1924839 0.1942987 0.1958928 0.1972944
 0.1985238 0.1995665 0.2004119 0.2010891 0.2016534 0.2021473 0.2025841 0.2029628 0.2032855 0.2035573
 0.203781 0.2039661 0.2041365 0.2043188 0.2045275 0.2047647 0.2050301 0.2053323 0.2056931 0.2061309
 0.2066377 0.2071847 0.207754 0.2083487 0.2089743 0.2096342 0.2103473 0.211153 0.2120919 0.2131851
 0.2144238 0.2157678 0.2171531 0.2185022 0.2197324 0.2207671 0.2215518 0.2220661 0.2223271 0.2223859
 0.2223055 0.2221263 0.2218572 0.2214997 0.2210626 0.220552 0.2199675 0.2193194 0.2186327 0.2179283
 0.2172135 0.2164971 0.2157992 0.2151352 0.2144988 0.2138704 0.213238 0.212604 0.2119759 0.2113618
 0.2107716 0.210208 0.209659 0.2091085 0.2085498 0.2079743 0.2073533 0.2066448 0.2058222 0.2048867
 0.2038537 0.2027356 0.2015371 0.2002594 0.1989035 0.1974705 0.19596 0.1943712 0.1927069 0.1909724
 0.1891647 0.1872711 0.1852955 0.1832872 0.181329 0.1794877 0.177779 0.1761777 0.174655 0.1732045
 0.1718356 0.1705489 0.1693263 0.1681517 0.1670266 0.1659605 0.1649559 0.1640139 0.1631407 0.1623431
 0.1616239 0.1609814 0.1604124 0.1599184 0.1595077 0.1591842 0.1589428 0.1587886 0.1587389 0.1587855
 0.1588725 0.1589284 0.1589102 0.1588194 0.1586926 0.1585729 0.1584739 0.1583781 0.1582703 0.1581436
 0.1579644 0.1576534 0.1571102 0.1562554 0.1550652 0.1535769 0.1518653 0.1500284 0.1481972 0.1465143
 0.1450724 0.1438965 0.1429824 0.1423079 0.1418107 0.1414135 0.1410873 0.1408758 0.140852 0.1410303
 0.1413011 0.141491 0.1415299 0.1415316 0.1416825 0.1420887 0.1427314 0.1435015 0.1442628 0.1449211
 0.1454424 0.1458137 0.146034 0.146139 0.1461717 0.1461314 0.1459996 0.1457915 0.1455388 0.1452553
 0.1449351 0.1445532 0.1440746 0.143492 0.1428288 0.1420972 0.141296 0.140424 0.1394413 0.1382835
 0.1370037 0.1358453 0.135104 0.1349492 0.1353684 0.1361982 0.1372263 0.1383188 0.1393865 0.1402169
 0.1405498 0.1404737 0.1405979 0.1416112 0.1436376 0.146109 0.1482695 0.149718 0.1504496 0.1505635
 0.1501203 0.1491793 0.1477607 0.1458167 0.1433609 0.1405331 0.1374779 0.1343217 0.1312744 0.128562
 0.1262804 0.1244328 0.1230089 0.1220407 0.121646 0.1214408 0.1195232 0.113473 0.1041146 0.09716624
 0.09841179 0.1071851 0.1168577 0.1218317 0.1219706 0.1202587 0.1187432 0.1177335 0.1171485 0.1171665
 0.1179294 0.1192741 0.1207802 0.1220181 0.1228019 0.1231639 0.1230748 0.1221954 0.1198067 0.1150624
 0.1076734 0.09850406 0.0892913 0.0816429 0.07630161 0.0731429 0.0715366 0.07072761 0.07020332 0.06992185
 0.07019012 0.07129017 0.0732401 0.07588258 0.0790496 0.08250859 0.08584991 0.08865936 0.09083264 0.09256313
 0.09400228 0.09507357 0.09563066 0.0956572 0.09527078 0.09462947 0.0938776 0.09310225 0.0922676 0.09124075
 0.08998778 0.08873682 0.08783409 0.08742291 0.08735805 0.0874154 0.08746269 0.0874498 0.08737671 0.08728609
 0.08721815 0.08719947 0.08729959 0.08760522 0.0880902 0.08858561 0.0889199 0.08905785 0.08908884 0.08906502
 0.08885559 0.08827548 0.08741947 0.08667211 0.08621 0.08568911 0.08469026 0.08335353 0.08229727 0.08195063
 0.08217959 0.0825403 0.08269174 0.0825502 0.08226442 0.08215209 0.0824867 0.08316697 0.08369509 0.08365176
</values></Ydata></ScRf><Data_Parameters_AB><parameter name="DPF">1</parameter><parameter name="NPT">3497</parameter><parameter name="FXV">3996</parameter><parameter name="LXV">500</parameter><parameter name="CSF">1</parameter><parameter name="MXY">0.0740460827946663</parameter><parameter name="MNY">-0.0937303900718689</parameter><parameter name="DAT">31/05/2022</parameter><parameter name="TIM">14:23:57.562 (GMT+2)</parameter><parameter name="DXU">WN</parameter></Data_Parameters_AB><AB__Qtest><MainReport name="Quality Test Report"><Header><Line><Legend>Test result ok/not ok [1/0]: </Legend><Value>0</Value></Line><Line><Legend>Method file: </Legend><Value>C:\Users\Public\Documents\Bruker\OPUS_8.2.28\QT\IRBT_v3_default.QT</Value></Line></Header><Matrix><Line><Legend></Legend><Legend>min</Legend><Legend>max</Legend><Legend>measured</Legend></Line><Line><Value>Absorption (X-Range 1):</Value><Value>0.400000</Value><Value>2.000000</Value><Value>0.162504</Value></Line><Line><Value>Noise (X-Range 4):</Value><Value></Value><Value>0.000300</Value><Value>0.000051</Value></Line><Line><Value>Signal/Noise (X-Range 2):</Value><Value>200.000000</Value><Value></Value><Value>103.283424</Value></Line><Line><Value>Signal/Noise (X-Range 3):</Value><Value>40.000000</Value><Value></Value><Value>28.777357</Value></Line><Line><Value>Water vapour (X-Range 5):</Value><Value></Value><Value>0.000300</Value><Value>0.000023</Value></Line><Line><Value>Signal/Water (X-Range 2):</Value><Value>100.000000</Value><Value></Value><Value>227.068626</Value></Line><Line><Value>Signal/Water (X-Range 3):</Value><Value>20.000000</Value><Value></Value><Value>63.267025</Value></Line><Line><Value>Fringes (X-Range 6):</Value><Value></Value><Value>0.000100</Value><Value>0.000071</Value></Line></Matrix></MainReport></AB__Qtest><Data_Parameters_ScSm><parameter name="DPF">1</parameter><parameter name="NPT">1814</parameter><parameter name="FXV">3996.33169228125</parameter><parameter name="LXV">499.541461535156</parameter><parameter name="CSF">1</parameter><parameter name="MXY">0.291016638278961</parameter><parameter name="MNY">0.0360010117292404</parameter><parameter name="DAT">31/05/2022</parameter><parameter name="TIM">14:23:57.562 (GMT+2)</parameter><parameter name="DXU">WN</parameter></Data_Parameters_ScSm><Data_Parameters_ScRf><parameter name="DPF">1</parameter><parameter name="NPT">1820</parameter><parameter name="FXV">4004.04661832813</parameter><parameter name="LXV">495.683998511719</parameter><parameter name="CSF">1</parameter><parameter name="MXY">0.264951527118683</parameter><parameter name="MNY">0.0290119536221027</parameter><parameter name="DAT">31/05/2022</parameter><parameter name="TIM">14:23:31.344 (GMT+2)</parameter><parameter name="DXU">WN</parameter></Data_Parameters_ScRf><Optic_Parameters_Rf><parameter name="APR">0</parameter><parameter name="APT">Open</parameter><parameter name="BMS">KBr</parameter><parameter name="DTC">RT-DLaTGS_IR-Biotyper [Microplate reader]</parameter><parameter name="HPF">0</parameter><parameter name="LPF">10.0</parameter><parameter name="LPV">4000</parameter><parameter name="PGR">0</parameter><parameter name="RCH">Module port</parameter><parameter name="RDX">0</parameter><parameter name="SRC">MIR</parameter><parameter name="VEL">10.0</parameter><parameter name="SON">Off</parameter></Optic_Parameters_Rf><Acquisition_Parameters_Rf><parameter name="ADT">1</parameter><parameter name="AQM">DD</parameter><parameter name="CFE">0</parameter><parameter name="COR">0</parameter><parameter name="DEL">0</parameter><parameter name="DLY">0</parameter><parameter name="HFW">8000</parameter><parameter name="LFW">0</parameter><parameter name="NSR">32</parameter><parameter name="PLF">AB</parameter><parameter name="RES">6</parameter><parameter name="RGN">-1</parameter><parameter name="STR">0</parameter><parameter name="TCL">MakeCompatibleScalar (0, {WSV=1.000000, ARV=0});</parameter><parameter name="TDL">37</parameter><parameter name="RPO">0</parameter></Acquisition_Parameters_Rf><FT_-_Parameters_Rf><parameter name="APF">B3</parameter><parameter name="HFQ">500</parameter><parameter name="LFQ">4000</parameter><parameter name="NLI">0</parameter><parameter name="PHR">24</parameter><parameter name="PHZ">ML</parameter><parameter name="SPZ">NO</parameter><parameter name="ZFF">1</parameter></FT_-_Parameters_Rf><Optic_Parameters_><parameter name="APR">0</parameter><parameter name="APT">Open</parameter><parameter name="BMS">KBr</parameter><parameter name="CHN">Module port</parameter><parameter name="DTC">RT-DLaTGS_IR-Biotyper [Microplate reader]</parameter><parameter name="HPF">0</parameter><parameter name="LPF">10.0</parameter><parameter name="LPV">4000</parameter><parameter name="PGN">0</parameter><parameter name="RDX">0</parameter><parameter name="SRC">MIR</parameter><parameter name="VEL">10.0</parameter><parameter name="SON">Off</parameter></Optic_Parameters_><FT_-_Parameters_><parameter name="APF">B3</parameter><parameter name="HFQ">500</parameter><parameter name="LFQ">4000</parameter><parameter name="NLI">0</parameter><parameter name="PHR">24</parameter><parameter name="PHZ">ML</parameter><parameter name="SPZ">NO</parameter><parameter name="ZFF">1</parameter></FT_-_Parameters_><Acquisition_Parameters_><parameter name="ADT">1</parameter><parameter name="AQM">DD</parameter><parameter name="CFE">0</parameter><parameter name="COR">0</parameter><parameter name="DEL">0</parameter><parameter name="DLY">0</parameter><parameter name="HFW">8000</parameter><parameter name="LFW">0</parameter><parameter name="NSS">32</parameter><parameter name="PLF">AB</parameter><parameter name="RES">6</parameter><parameter name="SOT">0</parameter><parameter name="TCL">MakeCompatibleScalar (0, {WSV=1.000000, ARV=0});</parameter><parameter name="TDL">37</parameter><parameter name="SPO">0</parameter><parameter name="SGN">-1</parameter></Acquisition_Parameters_><Instrument_Parameters_Rf><parameter name="HFL">15800.168544</parameter><parameter name="LFL">0</parameter><parameter name="LWN">15800.168544</parameter><parameter name="ABP">32197</parameter><parameter name="SSP">1</parameter><parameter name="ARG">2</parameter><parameter name="ASG">2</parameter><parameter name="ASS">32</parameter><parameter name="GFW">16</parameter><parameter name="GBW">16</parameter><parameter name="BFW">0</parameter><parameter name="BBW">0</parameter><parameter name="PKA">7257</parameter><parameter name="PKL">4996</parameter><parameter name="PRA">7450</parameter><parameter name="PRL">5001</parameter><parameter name="P2A">1</parameter><parameter name="P2L">1</parameter><parameter name="P2R">1</parameter><parameter name="P2K">1</parameter><parameter name="DAQ">0</parameter><parameter name="AG2">1</parameter><parameter name="SSM">1</parameter><parameter name="RSN">25789</parameter><parameter name="CRR">0</parameter><parameter name="SRT">1654007011.344</parameter><parameter name="DUR">19.6379852294922</parameter><parameter name="TSC">29.1</parameter><parameter name="MVD">0.237913697957993</parameter><parameter name="AN1">0.225818825393713</parameter><parameter name="AN2">0</parameter><parameter name="VSN">2.485 Apr  4 2017</parameter><parameter name="SRN">0085</parameter><parameter name="CAM">0</parameter><parameter name="INS">IR-Biotyper</parameter><parameter name="FOC">69</parameter><parameter name="RDY">1</parameter><parameter name="ARS">32</parameter></Instrument_Parameters_Rf><Sample_Parameters_><parameter name="BLD"></parameter><parameter name="CNM">Admin</parameter><parameter name="CPY"></parameter><parameter name="DPM"></parameter><parameter name="EXP">IRBT_v3_32Scans.XPM</parameter><parameter name="LCT"></parameter><parameter name="SFM">Microplate, HTS-XT</parameter><parameter name="SNM">220531-1301_AJC34M (D_2)_B10_12bcc4b3-ecea-4c7f-9e24-dcd856d32732.0</parameter><parameter name="XPP">C:\Users\Public\Documents\Bruker\OPUS_8.2.28\XPM</parameter><parameter name="IST">OK</parameter><parameter name="CPG">1252</parameter><parameter name="UID">b5da8fb3-0331-4ec5-8564-23488e783260</parameter></Sample_Parameters_><Instrument_Parameters_><parameter name="HFL">15800.168544</parameter><parameter name="LFL">0</parameter><parameter name="LWN">15800.168544</parameter><parameter name="ABP">32197</parameter><parameter name="SSP">1</parameter><parameter name="ASG">2</parameter><parameter name="ARG">2</parameter><parameter name="ASS">32</parameter><parameter name="GFW">16</parameter><parameter name="GBW">16</parameter><parameter name="BFW">0</parameter><parameter name="BBW">0</parameter><parameter name="PKA">7977</parameter><parameter name="PKL">4988</parameter><parameter name="PRA">8238</parameter><parameter name="PRL">4993</parameter><parameter name="P2A">1</parameter><parameter name="P2L">1</parameter><parameter name="P2R">1</parameter><parameter name="P2K">1</parameter><parameter name="DAQ">0</parameter><parameter name="AG2">1</parameter><parameter name="SSM">1</parameter><parameter name="RSN">13520</parameter><parameter name="CRR">0</parameter><parameter name="SRT">1654007037.563</parameter><parameter name="DUR">19.6379852294922</parameter><parameter name="TSC">29.1</parameter><parameter name="MVD">0.86561381816864</parameter><parameter name="AN1">0.225809593770174</parameter><parameter name="AN2">0</parameter><parameter name="VSN">2.485 Apr  4 2017</parameter><parameter name="SRN">0085</parameter><parameter name="CAM">0</parameter><parameter name="INS">IR-Biotyper</parameter><parameter name="FOC">69</parameter><parameter name="RDY">1</parameter></Instrument_Parameters_><History/></OPUSDataFile>
