<?xml version="1.0" encoding="UTF-8" ?>
<OPUSDataFile><AB><Ydata ylabel="Absorbance Units"><values byteorder="INTEL" format="FLOAT32" numvalues="3497"> -0.06897094 -0.0689978 -0.06902585 -0.06905624 -0.06907182 -0.0690717 -0.06904581 -0.06899516 -0.06892889 -0.06885046
 -0.06878539 -0.06873454 -0.06871665 -0.06872527 -0.06875528 -0.06879935 -0.06884115 -0.06888312 -0.06892022 -0.06896086
 -0.0690126 -0.06907244 -0.069145 -0.06921046 -0.0692631 -0.06928682 -0.06927364 -0.06923217 -0.06916046 -0.06908484
 -0.06900758 -0.06894787 -0.06890684 -0.06888554 -0.06888348 -0.06889433 -0.06891793 -0.06895107 -0.06899261 -0.06903775
 -0.0690834 -0.06911924 -0.06914495 -0.06915342 -0.06915119 -0.06914227 -0.06913406 -0.06913513 -0.06914461 -0.0691658
 -0.06919066 -0.06921729 -0.06923846 -0.06925204 -0.06925373 -0.06924219 -0.06921758 -0.06917924 -0.06913508 -0.06908548
 -0.06904396 -0.06901089 -0.06899509 -0.0689953 -0.06900866 -0.06903362 -0.06906254 -0.06909642 -0.0691335 -0.06917598
 -0.06922752 -0.06928742 -0.06935804 -0.06943301 -0.06951024 -0.06957763 -0.06962889 -0.0696533 -0.06964349 -0.06960272
 -0.06952719 -0.06943956 -0.06934128 -0.06926188 -0.06920432 -0.06918985 -0.06921986 -0.06930093 -0.06943206 -0.06960323
 -0.06980968 -0.07001989 -0.07022544 -0.0703769 -0.07047403 -0.07048567 -0.0704305 -0.07032326 -0.07018623 -0.0700527
 -0.06993059 -0.06983986 -0.06977184 -0.06972861 -0.06969537 -0.0696653 -0.0696362 -0.069604 -0.06958225 -0.06957283
 -0.06958432 -0.06961893 -0.06966558 -0.06972381 -0.06977331 -0.06981383 -0.06983726 -0.06984594 -0.06984998 -0.0698521
 -0.0698687 -0.0698987 -0.06994984 -0.07001455 -0.07008462 -0.07015128 -0.07019936 -0.07022904 -0.07023506 -0.070221
 -0.07018819 -0.0701366 -0.07006399 -0.06998107 -0.06988551 -0.06981117 -0.06976132 -0.06977603 -0.06986156 -0.07002342
 -0.07026307 -0.07048482 -0.07068166 -0.07071855 -0.07061167 -0.07039634 -0.07009838 -0.06983858 -0.06961671 -0.06949433
 -0.06945606 -0.06950843 -0.06962315 -0.06977364 -0.06992634 -0.07004184 -0.07011209 -0.07011412 -0.07007942 -0.07001349
 -0.06994798 -0.06989571 -0.06985515 -0.06982902 -0.06980361 -0.06977685 -0.06975131 -0.06972693 -0.06971934 -0.06972878
 -0.06976224 -0.06981702 -0.06987973 -0.06994618 -0.06999239 -0.07001834 -0.07001065 -0.06997436 -0.06991149 -0.06982808
 -0.06973046 -0.06962755 -0.06952617 -0.0694405 -0.06937969 -0.06935495 -0.0693755 -0.0694345 -0.06953644 -0.06964925
 -0.06976976 -0.06986235 -0.06992183 -0.06993974 -0.06991503 -0.06986362 -0.06978638 -0.06969856 -0.06959973 -0.06949338
 -0.06937988 -0.0692609 -0.06914058 -0.06902926 -0.06893267 -0.06886709 -0.06883091 -0.06883272 -0.06885679 -0.06889503
 -0.06892829 -0.06894011 -0.06893186 -0.06889608 -0.06885626 -0.06881752 -0.06879574 -0.06879681 -0.06881142 -0.0688397
 -0.06886641 -0.0688905 -0.06891005 -0.06892537 -0.06894247 -0.06896081 -0.06898005 -0.068998 -0.06900529 -0.06900178
 -0.06898079 -0.06894728 -0.06890575 -0.06886347 -0.06883121 -0.06881328 -0.06881697 -0.06884363 -0.06889475 -0.06897523
 -0.06908738 -0.06923456 -0.06942225 -0.06962987 -0.0698586 -0.07006301 -0.07023821 -0.07035483 -0.07041062 -0.07039411
 -0.07030495 -0.07013328 -0.06988452 -0.06958751 -0.06925488 -0.06895265 -0.06868766 -0.06851416 -0.06842443 -0.06843733
 -0.06852159 -0.0686492 -0.06878684 -0.06889 -0.06896213 -0.06899018 -0.06899372 -0.06897914 -0.06895473 -0.06892465
 -0.068889 -0.06884887 -0.06880002 -0.06874224 -0.06866974 -0.06858193 -0.06848467 -0.06837932 -0.0682909 -0.06822134
 -0.06819934 -0.06821968 -0.06828213 -0.06836898 -0.06843172 -0.06846257 -0.06841572 -0.06831717 -0.06818053 -0.06803069
 -0.0678997 -0.06778242 -0.06768777 -0.0675959 -0.0674986 -0.06739078 -0.06726646 -0.0671408 -0.0670161 -0.06690104
 -0.06679838 -0.06669441 -0.06658862 -0.06645858 -0.06630443 -0.06612824 -0.06593456 -0.06575938 -0.06560277 -0.06548596
 -0.06540162 -0.06533882 -0.06529681 -0.06526726 -0.06525669 -0.06527208 -0.06531239 -0.06538547 -0.06546809 -0.06555334
 -0.06560645 -0.0656107 -0.06554836 -0.0654098 -0.06519486 -0.0649 -0.06454124 -0.06411777 -0.06366744 -0.06319245
 -0.06272968 -0.06228046 -0.06186588 -0.06148657 -0.06115779 -0.06087875 -0.06065762 -0.06048663 -0.06035115 -0.06023978
 -0.06012251 -0.05999882 -0.05985451 -0.05969659 -0.05953041 -0.05934886 -0.05915252 -0.0589228 -0.05864809 -0.05833362
 -0.0579754 -0.05759697 -0.05720227 -0.05680642 -0.05641184 -0.05602445 -0.05564481 -0.05527547 -0.05491671 -0.05457354
 -0.05424692 -0.05394809 -0.0536752 -0.05343141 -0.05320397 -0.05296186 -0.05269 -0.05233701 -0.0519194 -0.05143137
 -0.05090927 -0.05038647 -0.04987884 -0.04940852 -0.04897004 -0.04856861 -0.04818662 -0.04782059 -0.04745463 -0.04708406
 -0.04670788 -0.04632542 -0.0459382 -0.04554655 -0.04514014 -0.04471854 -0.04427291 -0.04380501 -0.04332455 -0.04283355
 -0.04234669 -0.04186253 -0.04138377 -0.04091034 -0.04044253 -0.03998268 -0.03953526 -0.0390981 -0.03867169 -0.03825093
 -0.03783161 -0.03741467 -0.03700059 -0.03658653 -0.03617558 -0.03574535 -0.03529235 -0.03479735 -0.03425424 -0.0336886
 -0.03310095 -0.03254211 -0.03201341 -0.03153286 -0.03109667 -0.03068365 -0.03028917 -0.02988116 -0.02946013 -0.02900833
 -0.02853509 -0.02804792 -0.02756001 -0.02709323 -0.02665208 -0.02625369 -0.02588068 -0.02553347 -0.02517419 -0.02478542
 -0.02434703 -0.02384299 -0.02329924 -0.02271555 -0.02213249 -0.02155596 -0.0210023 -0.02047373 -0.01995907 -0.01945766
 -0.01895462 -0.01845048 -0.01794367 -0.01743471 -0.01692578 -0.01641536 -0.01589867 -0.01537796 -0.01485263 -0.01433224
 -0.01382966 -0.01335081 -0.01290947 -0.01249561 -0.01210971 -0.01173245 -0.01135513 -0.01096671 -0.01055997 -0.01014119
 -0.009709353 -0.009278259 -0.008850156 -0.008427609 -0.008011326 -0.007590873 -0.007165899 -0.00673048 -0.006285872 -0.005840006
 -0.00539426 -0.004959542 -0.004534991 -0.004124216 -0.003724728 -0.003333951 -0.002948442 -0.002562133 -0.002173905 -0.001778835
 -0.001382595 -0.000987036 -0.0005980823 -0.0002214417 0.0001505228 0.0005167757 0.0008951051 0.001289563 0.001707695 0.00215207
 0.002614572 0.003095032 0.00358057 0.00407049 0.004552446 0.005025632 0.005477824 0.005908594 0.006308758 0.006679805
 0.007019724 0.007333763 0.007629307 0.007915638 0.008208198 0.00851395 0.008846864 0.009203716 0.009587793 0.009990206
 0.0104077 0.01083442 0.01126937 0.01170241 0.01213315 0.01254224 0.01292627 0.01328028 0.01360247 0.01392172
 0.01423969 0.01459354 0.01498159 0.01540734 0.01586317 0.0163158 0.01675959 0.01715807 0.0175164 0.01782429
 0.01809715 0.0183517 0.01860061 0.01886546 0.01914163 0.01943466 0.01973025 0.02002086 0.02030619 0.02058189
 0.02086361 0.02115433 0.02146267 0.02179158 0.02213107 0.02248091 0.02282498 0.02316271 0.02348715 0.02379966
 0.02410835 0.02441614 0.02474173 0.02508524 0.02545952 0.02585663 0.0262689 0.02668363 0.02707922 0.02744928
 0.02777728 0.02806969 0.0283237 0.02855399 0.02876602 0.02897218 0.02917783 0.02938772 0.02960384 0.02982707
 0.03005762 0.03029713 0.0305458 0.03080366 0.03107072 0.03134582 0.0316295 0.03192669 0.0322375 0.0325674
 0.03291139 0.03325896 0.03360177 0.03391533 0.03420107 0.03444595 0.03466774 0.03487711 0.03509467 0.03534007
 0.03561641 0.03593487 0.03627365 0.03663118 0.03697552 0.03729873 0.03758599 0.03783189 0.03805307 0.03825005
 0.03844618 0.03864195 0.03883027 0.03900852 0.03914674 0.03924713 0.03930091 0.03932014 0.03933584 0.03936034
 0.03943699 0.03956366 0.03976114 0.04000744 0.04029124 0.04058521 0.04086341 0.04112297 0.04134835 0.04157444
 0.04180739 0.04208337 0.0424173 0.04279231 0.04321344 0.04361234 0.04398415 0.0442733 0.04447812 0.04460663
 0.04466403 0.04470401 0.04472947 0.04478396 0.04486372 0.04497832 0.04512662 0.04530901 0.04552996 0.04580005
 0.04611112 0.04646662 0.04683413 0.04719396 0.04751771 0.04777971 0.04799474 0.04815527 0.0483112 0.04847176
 0.04867405 0.04892734 0.04922582 0.04957132 0.04992473 0.05028391 0.05060275 0.05088067 0.05109142 0.05124142
 0.05134521 0.05141664 0.05150629 0.05162397 0.05182 0.05208337 0.05242686 0.05281613 0.05322356 0.05361535
 0.05395374 0.05424039 0.0544584 0.05464913 0.05482027 0.05501395 0.0552431 0.05551774 0.0558417 0.05620966
 0.05662084 0.05708423 0.05760027 0.05818032 0.05882082 0.05949412 0.06018835 0.06082901 0.0614062 0.06184351
 0.06215217 0.0623091 0.06235476 0.06233282 0.06229259 0.06230545 0.06238602 0.06258015 0.06283936 0.06316344
 0.06346463 0.06371482 0.06385089 0.06384642 0.06371371 0.06344412 0.06311718 0.06273779 0.06238564 0.06206425
 0.06179303 0.06156841 0.06135869 0.06116206 0.06095072 0.06073068 0.06050715 0.06028561 0.06008475 0.0598959
 0.05972107 0.05953142 0.05930268 0.05899806 0.05858069 0.05803964 0.05734905 0.05655282 0.05565045 0.05472336
 0.05378779 0.05290946 0.05210241 0.05138366 0.05075771 0.05019906 0.04970616 0.04922725 0.04875961 0.04825278
 0.04771164 0.04713111 0.04652634 0.04594652 0.04539658 0.04492041 0.04449257 0.04409757 0.04370093 0.04325297
 0.04275595 0.04218461 0.04158793 0.04097946 0.04041337 0.03991501 0.03949785 0.03917625 0.038911 0.03870264
 0.03848241 0.03824454 0.03793668 0.03755644 0.03710822 0.03659693 0.03607857 0.03555807 0.03509322 0.03467962
 0.03433547 0.03404899 0.03380353 0.0335891 0.03338311 0.03318065 0.03296862 0.03274411 0.03250107 0.03223858
 0.03195288 0.03165115 0.03133299 0.03101388 0.03069712 0.03039457 0.03010985 0.0298377 0.02957878 0.02931422
 0.02904305 0.02874944 0.02843378 0.02809474 0.02773483 0.02736644 0.02699261 0.02663033 0.02628032 0.0259537
 0.02564664 0.02535955 0.02508435 0.02481343 0.02453806 0.02424889 0.02394272 0.02361333 0.02326877 0.02290867
 0.02254844 0.02219213 0.02184706 0.02151647 0.0211901 0.02086774 0.02053353 0.02018667 0.01982404 0.01944678
 0.0190673 0.01868713 0.01832182 0.01797066 0.01764043 0.01732737 0.01702697 0.01673469 0.016441 0.01614455
 0.01583908 0.01552835 0.01521152 0.01489777 0.01458951 0.01430129 0.0140386 0.0138117 0.0136279 0.01346995
 0.01334046 0.01318959 0.01301344 0.01276779 0.01245028 0.01206893 0.01162834 0.0111865 0.01074875 0.01037718
 0.01006844 0.009848319 0.009700817 0.009606491 0.009541113 0.009457577 0.009341001 0.009150249 0.008901604 0.008586882
 0.008248585 0.007907449 0.007590053 0.007316254 0.007071197 0.006855703 0.006649057 0.006444099 0.00626086 0.006098811
 0.006003811 0.005978266 0.006030182 0.006154855 0.006296104 0.006445759 0.006525273 0.006536485 0.006438987 0.006250938
 0.005990759 0.005683212 0.005378065 0.005085201 0.00484011 0.004627027 0.004446782 0.004278525 0.004106855 0.003936224
 0.003761622 0.003604784 0.003472738 0.003365597 0.003287023 0.00321197 0.003137756 0.003055088 0.002963333 0.002886794
 0.002826857 0.002809287 0.00283143 0.002891445 0.002984077 0.003089973 0.003205678 0.003313895 0.003412795 0.003492078
 0.003550722 0.003584779 0.003590782 0.003568003 0.00350333 0.003390987 0.003216559 0.002968233 0.002661466 0.002289983
 0.00191293 0.001536233 0.001223683 0.0009844275 0.0008261423 0.0007498218 0.0006950577 0.00065759 0.000563404 0.0004154341
 0.0001899483 -9.918241E-05 -0.0004154487 -0.0007468903 -0.001043676 -0.001309471 -0.001525272 -0.001706227 -0.001862002 -0.002005879
 -0.002151496 -0.002306299 -0.002478356 -0.002668864 -0.002882882 -0.00310674 -0.00334055 -0.003558543 -0.003755135 -0.003923703
 -0.004060734 -0.00419772 -0.00433625 -0.004511074 -0.004721067 -0.00495795 -0.005216546 -0.005458034 -0.005684829 -0.005882009
 -0.0060621 -0.006249915 -0.006449944 -0.006686475 -0.006943381 -0.007213817 -0.007476283 -0.007708779 -0.007906827 -0.008059795
 -0.008177364 -0.008261776 -0.00831697 -0.008345697 -0.00834189 -0.008304243 -0.008232726 -0.008125703 -0.00800377 -0.007867876
 -0.007758238 -0.007677046 -0.007664843 -0.007719703 -0.007853591 -0.008056327 -0.008298922 -0.008568574 -0.008818517 -0.009044833
 -0.009217925 -0.009344775 -0.009421932 -0.0094573 -0.009456947 -0.00942368 -0.009360364 -0.009269065 -0.009150241 -0.009009117
 -0.008846909 -0.008668361 -0.00847536 -0.008264191 -0.008035969 -0.007770623 -0.007467219 -0.007089184 -0.006634854 -0.006071265
 -0.005401791 -0.004628039 -0.003760932 -0.002841285 -0.001878896 -0.00092089 3.53514E-05 0.0009703361 0.001897497 0.002825265
 0.003764221 0.004727189 0.005715296 0.006732243 0.007778229 0.008852792 0.009961874 0.01110845 0.01228893 0.01350733
 0.01472906 0.01595356 0.01712145 0.01822927 0.01922521 0.0201078 0.02084978 0.02145072 0.02189372 0.02217912
 0.02229281 0.02224881 0.0220634 0.02177765 0.02146067 0.02116621 0.02098685 0.02095035 0.02111754 0.02147109
 0.02202217 0.02273289 0.02359041 0.02457109 0.02566493 0.02686752 0.02817649 0.02959296 0.03111722 0.03274585
 0.03447888 0.03629978 0.03820667 0.04016688 0.04217895 0.04421484 0.04627921 0.0483745 0.05050701 0.05270087
 0.05494214 0.05723657 0.05951765 0.06174102 0.06375289 0.06545148 0.06659669 0.06703999 0.06657279 0.06504648
 0.06249573 0.05884216 0.05446825 0.04938905 0.0441759 0.03888542 0.03397779 0.02948691 0.0255801 0.02225239
 0.01942252 0.01707124 0.01503326 0.01329746 0.011735 0.01034254 0.009049121 0.00785084 0.006709916 0.00562281
 0.004568956 0.003552565 0.002568325 0.00162819 0.0007370773 -9.426302E-05 -0.0008600623 -0.001555989 -0.002179891 -0.002729857
 -0.003205862 -0.003602683 -0.003920257 -0.004148738 -0.00428754 -0.004326075 -0.004264935 -0.004110653 -0.003870086 -0.003590085
 -0.003283764 -0.003030055 -0.002832699 -0.002750233 -0.00275793 -0.002848542 -0.002971982 -0.003068 -0.003087712 -0.002968198
 -0.002686285 -0.002207673 -0.001539117 -0.0006742808 0.0003703373 0.001587472 0.002986191 0.004563054 0.00635954 0.008385609
 0.01061527 0.01305275 0.0154239 0.01769866 0.0193213 0.02025967 0.01998376 0.01855602 0.01589414 0.01218503
 0.007850762 0.003090573 -0.001533944 -0.005945821 -0.009801794 -0.01316809 -0.0159736 -0.01834356 -0.02033129 -0.02203404
 -0.02350438 -0.02479236 -0.0259201 -0.02691741 -0.02779107 -0.02856898 -0.02925421 -0.02987287 -0.03042679 -0.03093495
 -0.03139801 -0.03182621 -0.03221997 -0.03258654 -0.03292744 -0.03325324 -0.03356433 -0.03386874 -0.03416204 -0.03443994
 -0.03469819 -0.03492639 -0.03513214 -0.03531519 -0.03549337 -0.03567819 -0.03587833 -0.0361038 -0.03634166 -0.03659253
 -0.03683294 -0.03705801 -0.03725643 -0.03742483 -0.03757474 -0.03770639 -0.03784333 -0.03798628 -0.03814789 -0.03832613
 -0.03851162 -0.03870238 -0.03888311 -0.0390581 -0.03923014 -0.0394062 -0.03960314 -0.0398178 -0.04005703 -0.04030405
 -0.04054731 -0.04077126 -0.040961 -0.04111607 -0.04123027 -0.04131695 -0.04137667 -0.04143013 -0.04148007 -0.04154877
 -0.0416395 -0.04176288 -0.04192034 -0.04209842 -0.04229586 -0.04248622 -0.04266923 -0.04282995 -0.0429711 -0.0430962
 -0.04320779 -0.04331488 -0.04341777 -0.04352131 -0.04362471 -0.04372915 -0.04383301 -0.04393591 -0.04403449 -0.04412676
 -0.04420983 -0.04428104 -0.04434305 -0.04439439 -0.04444657 -0.04450051 -0.0445717 -0.04466262 -0.04477793 -0.04491863
 -0.04506818 -0.0452254 -0.04536589 -0.04549021 -0.04559036 -0.0456703 -0.04574306 -0.04581089 -0.04588825 -0.04597145
 -0.04606126 -0.04615112 -0.04623193 -0.0463015 -0.04635238 -0.04639178 -0.04641945 -0.0464509 -0.04649216 -0.04655584
 -0.04664848 -0.04676829 -0.0469179 -0.0470809 -0.04725621 -0.0474254 -0.047587 -0.04773109 -0.04785752 -0.04796658
 -0.04805897 -0.04814028 -0.04821112 -0.04827688 -0.04833814 -0.04839858 -0.04846001 -0.04852736 -0.0486026 -0.04869166
 -0.04879168 -0.04890388 -0.04901986 -0.04913455 -0.0492428 -0.04933935 -0.04942968 -0.04951374 -0.04959967 -0.04969003
 -0.04978354 -0.049881 -0.0499735 -0.05006042 -0.05013659 -0.050202 -0.05025866 -0.05030673 -0.05034851 -0.05038364
 -0.05041103 -0.05043157 -0.05044599 -0.05045809 -0.05047514 -0.05050106 -0.05054518 -0.05060636 -0.0506881 -0.05078434
 -0.05089244 -0.05100717 -0.05112559 -0.05124508 -0.05136503 -0.05148063 -0.05159145 -0.05169012 -0.05177529 -0.05184593
 -0.0519015 -0.05195284 -0.0520006 -0.05205816 -0.05212522 -0.05220574 -0.05229785 -0.05239516 -0.05249641 -0.05259413
 -0.05268942 -0.05278068 -0.05286999 -0.05295999 -0.05305085 -0.05314491 -0.05323772 -0.05332816 -0.05340891 -0.05347605
 -0.0535264 -0.05355645 -0.053574 -0.05357862 -0.05358617 -0.0535985 -0.0536273 -0.05367391 -0.0537365 -0.05381469
 -0.05389735 -0.053984 -0.05406548 -0.05414288 -0.0542159 -0.0542866 -0.05436097 -0.05443974 -0.05452795 -0.0546233
 -0.05472561 -0.05483002 -0.0549321 -0.05502757 -0.05511174 -0.05518462 -0.05524402 -0.05529522 -0.05533886 -0.05538156
 -0.05542502 -0.05547173 -0.05552254 -0.05557498 -0.05562894 -0.05568124 -0.0557318 -0.05578129 -0.05583005 -0.05588125
 -0.05593514 -0.05599465 -0.05605956 -0.05613105 -0.05620809 -0.05628971 -0.05637357 -0.05645628 -0.05653539 -0.05660699
 -0.0566709 -0.05672547 -0.05677249 -0.05681234 -0.05684667 -0.05687577 -0.05690212 -0.05692554 -0.05695224 -0.05698259
 -0.057025 -0.05708027 -0.05715142 -0.05723832 -0.05733323 -0.05743492 -0.05752865 -0.0576144 -0.05768311 -0.05773792
 -0.0577831 -0.05782231 -0.05786599 -0.05791349 -0.05796937 -0.05802892 -0.05808897 -0.05814661 -0.05819825 -0.05824489
 -0.05828632 -0.058323 -0.05835512 -0.05838237 -0.05840394 -0.05842456 -0.05844422 -0.05847215 -0.05850926 -0.05855778
 -0.05861754 -0.05867865 -0.05874036 -0.05879106 -0.05883216 -0.05886383 -0.05888904 -0.05891774 -0.05895002 -0.05899205
 -0.05903967 -0.05908942 -0.05913809 -0.05918001 -0.05921746 -0.05924982 -0.05928112 -0.05931382 -0.05934754 -0.05938322
 -0.05941738 -0.059449 -0.05947841 -0.05950516 -0.05953365 -0.05956427 -0.05959859 -0.05963658 -0.05967378 -0.05970984
 -0.05973919 -0.05976239 -0.05977878 -0.05978999 -0.05980035 -0.0598115 -0.05982887 -0.05985323 -0.05988798 -0.05993318
 -0.0599903 -0.0600585 -0.06013835 -0.06022656 -0.06032287 -0.06042039 -0.06051794 -0.06060568 -0.06068128 -0.0607385
 -0.06077538 -0.06079622 -0.06080074 -0.06080306 -0.06080388 -0.06081598 -0.06083896 -0.06087441 -0.06092068 -0.06097044
 -0.06102268 -0.06107002 -0.06111364 -0.06115188 -0.06118773 -0.06122489 -0.06126539 -0.06131393 -0.06136721 -0.06142564
 -0.06148178 -0.06153152 -0.06157256 -0.06160144 -0.06162685 -0.06164951 -0.06167988 -0.0617203 -0.06177006 -0.06182972
 -0.06188849 -0.06194585 -0.0619931 -0.06203072 -0.06205989 -0.06208202 -0.06210491 -0.06212924 -0.06216188 -0.06220135
 -0.06224857 -0.0623002 -0.06235181 -0.06240081 -0.06244222 -0.06247707 -0.06250361 -0.06252657 -0.06254742 -0.06257095
 -0.06259936 -0.06263393 -0.06267588 -0.0627219 -0.06277191 -0.06282133 -0.06286976 -0.06291429 -0.06295476 -0.06298872
 -0.063016 -0.06303336 -0.06304129 -0.06303977 -0.06303115 -0.06302243 -0.0630165 -0.06302376 -0.06304362 -0.06308114
 -0.06313046 -0.06318818 -0.06324715 -0.06330074 -0.06334649 -0.06338049 -0.06340649 -0.06342454 -0.06343985 -0.06345378
 -0.06346839 -0.06348429 -0.06350124 -0.06351921 -0.06353897 -0.06356057 -0.06358574 -0.06361448 -0.0636479 -0.06368553
 -0.06372603 -0.0637681 -0.06380711 -0.0638415 -0.06386492 -0.06387832 -0.06387907 -0.06387238 -0.06386234 -0.06385414
 -0.06385407 -0.06386056 -0.06387597 -0.0638919 -0.063906 -0.06391232 -0.06390786 -0.06389707 -0.06387933 -0.06386646
 -0.06385947 -0.06386649 -0.06388785 -0.06392077 -0.06396459 -0.06401087 -0.06406011 -0.06410981 -0.06416266 -0.06422593
 -0.06430241 -0.06440227 -0.06452581 -0.06467876 -0.06485808 -0.06506306 -0.06528986 -0.06553464 -0.06579781 -0.06607687
 -0.06637969 -0.06670789 -0.06706961 -0.06746786 -0.0679021 -0.06837296 -0.06887569 -0.06940933 -0.069982 -0.07059406
 -0.07125507 -0.07196026 -0.07266758 -0.07335844 -0.07391159 -0.07431041 -0.07442534 -0.07427605 -0.07382525 -0.07314271
 -0.07230945 -0.07140703 -0.07055637 -0.06979432 -0.06918845 -0.06873786 -0.06845865 -0.06834271 -0.06839415 -0.06858951
 -0.06893528 -0.06934862 -0.0698263 -0.07023691 -0.07056616 -0.07076307 -0.0708252 -0.0708099 -0.07072038 -0.07061099
 -0.07047991 -0.07034394 -0.07020125 -0.07005477 -0.06990381 -0.06974875 -0.06958829 -0.06942057 -0.06924454 -0.06905749
 -0.06886175 -0.06865673 -0.06844944 -0.06824315 -0.06804322 -0.0678531 -0.06767118 -0.06749752 -0.06733087 -0.06717011
 -0.06702257 -0.06688873 -0.06677572 -0.06668386 -0.06660762 -0.06654607 -0.06648602 -0.06642749 -0.06636338 -0.06629533
 -0.06622516 -0.0661544 -0.06608768 -0.06602527 -0.06597008 -0.06592061 -0.06587649 -0.06583584 -0.06579643 -0.06575936
 -0.06572418 -0.06569377 -0.06567004 -0.06565036 -0.06563532 -0.06561742 -0.06559511 -0.06556717 -0.06553284 -0.06550019
 -0.06546963 -0.06544801 -0.06543514 -0.06543055 -0.06543384 -0.06544257 -0.06545674 -0.06547558 -0.06549823 -0.06552254
 -0.06554731 -0.06556916 -0.06558894 -0.06560598 -0.0656223 -0.06563985 -0.06565783 -0.06567729 -0.06569359 -0.06570538
 -0.06570908 -0.06570294 -0.06568867 -0.06566573 -0.06564041 -0.06561314 -0.06559024 -0.06557209 -0.06556167 -0.06555884
 -0.06556275 -0.06557293 -0.06558663 -0.0656031 -0.06561831 -0.06563152 -0.06563888 -0.06564039 -0.06563382 -0.06562111
 -0.06560288 -0.06558292 -0.06556412 -0.06554972 -0.06554299 -0.0655424 -0.06554905 -0.0655569 -0.06556465 -0.06556806
 -0.06556577 -0.0655596 -0.06554948 -0.06553888 -0.065528 -0.06551754 -0.06550756 -0.06549901 -0.06549225 -0.06549043
 -0.06549311 -0.06550082 -0.06551187 -0.06552232 -0.06553171 -0.06553674 -0.06553989 -0.06554274 -0.06554713 -0.06555602
 -0.06556691 -0.06557996 -0.06559028 -0.06559566 -0.06559489 -0.06558643 -0.06557483 -0.06556032 -0.06554872 -0.06554078
 -0.06553814 -0.06554092 -0.06554712 -0.0655566 -0.06556753 -0.06557981 -0.06559195 -0.06560366 -0.06561296 -0.06562003
 -0.06562387 -0.06562577 -0.06562744 -0.06562975 -0.06563464 -0.06564168 -0.06565127 -0.06566244 -0.06567495 -0.06568738
 -0.06569954 -0.06570879 -0.06571449 -0.06571474 -0.0657088 -0.06569862 -0.06568418 -0.0656694 -0.0656545 -0.06564187
 -0.06563154 -0.06562454 -0.06562091 -0.0656217 -0.06562635 -0.06563371 -0.06564225 -0.06564745 -0.06564878 -0.06564238
 -0.06563105 -0.06561577 -0.06560126 -0.0655922 -0.06558961 -0.06559684 -0.06560773 -0.0656213 -0.06563003 -0.06563084
 -0.06562459 -0.06560989 -0.06559687 -0.06558637 -0.06558629 -0.06559719 -0.0656158 -0.06564149 -0.06566416 -0.0656837
 -0.06569414 -0.06569664 -0.06569228 -0.06568211 -0.06566934 -0.06565422 -0.06563819 -0.06562231 -0.06560767 -0.06559703
 -0.06559328 -0.06559709 -0.06561095 -0.06562958 -0.06565233 -0.06567155 -0.06568463 -0.06568954 -0.06568475 -0.0656761
 -0.06566387 -0.0656547 -0.06564901 -0.06564766 -0.06565039 -0.06565318 -0.06565587 -0.06565518 -0.06565192 -0.06564726
 -0.06564239 -0.06564113 -0.06564324 -0.06565057 -0.06566102 -0.06567277 -0.06568447 -0.06569393 -0.06570216 -0.06570906
 -0.06571597 -0.06572393 -0.06573143 -0.06573853 -0.06574237 -0.06574222 -0.06573806 -0.06572958 -0.06571999 -0.06570947
 -0.06570081 -0.06569397 -0.06568881 -0.06568522 -0.06568225 -0.06568025 -0.06568015 -0.06568221 -0.06568795 -0.06569665
 -0.06570792 -0.06572062 -0.06573309 -0.06574489 -0.06575513 -0.06576361 -0.06576999 -0.06577422 -0.06577596 -0.06577646
 -0.06577568 -0.06577627 -0.06577873 -0.06578443 -0.06579376 -0.06580498 -0.06581804 -0.06582918 -0.06583825 -0.06584232
 -0.06584159 -0.06583594 -0.06582603 -0.0658145 -0.06580162 -0.06578972 -0.06577812 -0.06576643 -0.06575473 -0.06574225
 -0.06573138 -0.06572355 -0.06572156 -0.06572777 -0.06574228 -0.06576615 -0.0657968 -0.06583426 -0.06587383 -0.0659152
 -0.06595144 -0.06598179 -0.06600079 -0.06600793 -0.06600591 -0.06599525 -0.06598611 -0.06597879 -0.06598084 -0.06599054
 -0.06600539 -0.06602313 -0.06603591 -0.0660447 -0.06604666 -0.06604608 -0.06604752 -0.066053 -0.06606745 -0.06608602
 -0.06610802 -0.06612648 -0.06613758 -0.06614087 -0.0661345 -0.06612461 -0.06611195 -0.06610128 -0.06609346 -0.06608818
 -0.06608552 -0.06608307 -0.06608076 -0.06607733 -0.06607295 -0.06606816 -0.0660634 -0.06606074 -0.06606062 -0.06606564
 -0.06607519 -0.06608997 -0.06610768 -0.06612603 -0.06614246 -0.06615359 -0.06615935 -0.06615794 -0.06615286 -0.06614499
 -0.06613737 -0.06613167 -0.06612605 -0.06612079 -0.06611147 -0.06609736 -0.06607846 -0.06605462 -0.06603096 -0.0660077
 -0.065989 -0.06597459 -0.0659648 -0.0659589 -0.06595427 -0.06594998 -0.065942 -0.06593063 -0.06591367 -0.06589413
 -0.06587461 -0.0658585 -0.06585052 -0.06584971 -0.06585793 -0.06586961 -0.0658833 -0.06589331 -0.06589763 -0.06589372
 -0.06588055 -0.06585904 -0.06582893 -0.06579398 -0.06575438 -0.06571472 -0.06567518 -0.065639 -0.06560611 -0.065578
 -0.06555426 -0.06553424 -0.06551723 -0.06550076 -0.06548508 -0.06546896 -0.06545431 -0.06544343 -0.06543658 -0.06543598
 -0.06543754 -0.06543985 -0.06543814 -0.06542918 -0.06541415 -0.065392 -0.06536821 -0.06534365 -0.065322 -0.06530401
 -0.0652892 -0.06527767 -0.06526493 -0.06525078 -0.0652307 -0.06520521 -0.06517562 -0.06514326 -0.06511495 -0.06509055
 -0.06507394 -0.06506276 -0.06505451 -0.06504711 -0.06503648 -0.06502259 -0.06500396 -0.0649811 -0.06495355 -0.06492311
 -0.06488967 -0.06485776 -0.06482857 -0.06480563 -0.06479055 -0.06477982 -0.0647738 -0.06476231 -0.06474467 -0.06471377
 -0.06466975 -0.0646171 -0.06455718 -0.06450275 -0.06445422 -0.06442085 -0.06440031 -0.06439137 -0.06439088 -0.06439218
 -0.0643938 -0.06439113 -0.06438381 -0.06437027 -0.06434953 -0.06432055 -0.06428287 -0.06423564 -0.06418061 -0.06411763
 -0.06405058 -0.06397957 -0.06391123 -0.06384615 -0.06379098 -0.0637463 -0.06371334 -0.06369193 -0.06367695 -0.06366823
 -0.06366171 -0.0636581 -0.06365883 -0.06366362 -0.06367408 -0.06368578 -0.06369223 -0.06368676 -0.06365603 -0.06360154
 -0.06351653 -0.06341515 -0.06330286 -0.06319529 -0.06310174 -0.06302579 -0.06297226 -0.06293115 -0.06290166 -0.06287309
 -0.06284349 -0.06281219 -0.06277884 -0.06274974 -0.06272514 -0.06270969 -0.06270256 -0.06270024 -0.06269997 -0.06268745
 -0.06266155 -0.06260924 -0.06253709 -0.06245082 -0.06235816 -0.06227387 -0.06219609 -0.06212927 -0.06206695 -0.06200559
 -0.06194305 -0.06187738 -0.06180882 -0.0617375 -0.06166158 -0.06158051 -0.06149448 -0.06140313 -0.06131025 -0.06121612
 -0.06112238 -0.06102912 -0.0609373 -0.06084734 -0.06076367 -0.06068603 -0.06061625 -0.06055247 -0.06049017 -0.06042838
 -0.06036285 -0.06029403 -0.06022142 -0.06014366 -0.06005938 -0.05996742 -0.05986553 -0.0597573 -0.05964325 -0.05952838
 -0.0594148 -0.05930296 -0.05919351 -0.05908465 -0.05897617 -0.05886751 -0.05875862 -0.0586493 -0.05853947 -0.0584278
 -0.0583137 -0.05819177 -0.05806092 -0.05791201 -0.0577472 -0.0575664 -0.0573758 -0.05718853 -0.05700601 -0.05683764
 -0.05667695 -0.0565213 -0.05636454 -0.05620058 -0.05603076 -0.0558537 -0.05567357 -0.05549173 -0.05530919 -0.05512696
 -0.05494186 -0.05475476 -0.05455137 -0.054331 -0.05407352 -0.05377854 -0.05344744 -0.05308176 -0.05269756 -0.05229221
 -0.05186341 -0.05140471 -0.05089504 -0.05033262 -0.04970124 -0.0490091 -0.04825823 -0.04746351 -0.04663886 -0.04579749
 -0.04495364 -0.04410863 -0.04326829 -0.04242302 -0.04156723 -0.0407121 -0.03985324 -0.0390387 -0.03827434 -0.03759205
 -0.036996 -0.03647093 -0.03601583 -0.03560496 -0.03523816 -0.03490442 -0.03460355 -0.03432982 -0.03408069 -0.03384687
 -0.0336235 -0.03339839 -0.03316327 -0.03290128 -0.03260827 -0.03227247 -0.03189871 -0.03148716 -0.03104116 -0.03056287
 -0.03005175 -0.02950741 -0.02893271 -0.02832942 -0.0276927 -0.02702547 -0.02628973 -0.02548295 -0.02456844 -0.02354669
 -0.02247094 -0.02134657 -0.02025051 -0.01917298 -0.01810777 -0.01704193 -0.01593123 -0.01477492 -0.01355219 -0.01226224
 -0.01090591 -0.009451716 -0.007884154 -0.006131836 -0.004140439 -0.001870223 0.0007440862 0.003579241 0.006635926 0.009686507
 0.01267707 0.01550155 0.01813079 0.02059382 0.02288852 0.0250887 0.02719938 0.02933235 0.03149802 0.03385184
 0.03637884 0.03911537 0.04198694 0.04476787 0.04744473 0.04985431 0.05208568 0.05420033 0.05626567 0.05838059
 0.06055 0.06280778 0.06513988 0.06754503 0.07002217 0.07257985 0.07517204 0.07779609 0.08038034 0.08290922
 0.08539298 0.08783094 0.0902501 0.09264889 0.09493008 0.09708285 0.09896138 0.1005682 0.1018443 0.1027904
 0.1033768 0.1036073 0.1034475 0.1029775 0.1022924 0.1014701 0.1006426 0.09978886 0.09892374 0.098053
 0.09717058 0.09633083 0.09556211 0.09484237 0.094188 0.09347273 0.092687 0.09168387 0.09044597 0.08896941
 0.08725769 0.08551586 0.08374736 0.08207481 0.08046801 0.07883932 0.07716224 0.07530099 0.0732668 0.07099915
 0.06856754 0.06604011 0.06349302 0.06104529 0.05868566 0.05645363 0.05428413 0.0521397 0.05003733 0.04795447
 0.04601265 0.04423919 0.04269077 0.04138874 0.04026607 0.03931969 0.03848171 0.03774966 0.03712403 0.036607
 0.0362229 0.03596799 0.03583596 0.03582066 0.03589804 0.03606788 0.03631832 0.03665098 0.03706344 0.03755682
 0.03812881 0.03878867 0.03953821 0.04039808 0.04137544 0.04249655 0.04376897 0.04522136 0.04686263 0.04870341
 0.05075268 0.05295902 0.05532277 0.05773112 0.06017771 0.06253753 0.06480106 0.06683094 0.06861227 0.06998558
 0.07096218 0.07147613 0.07158767 0.07138593 0.07093988 0.07038246 0.0697771 0.06923618 0.06879733 0.06853192
 0.06841405 0.06845343 0.06860297 0.06884189 0.06917211 0.06958472 0.07012593 0.07080925 0.07159548 0.0724865
 0.07336818 0.07423561 0.07505442 0.07582694 0.07656729 0.07727547 0.07795838 0.07861304 0.07924055 0.07982231
 0.08034769 0.08072592 0.08084926 0.08055315 0.07957784 0.07797267 0.07563224 0.0728418 0.0697434 0.06642536
 0.06294623 0.05933476 0.05557687 0.05186865 0.04823034 0.04485856 0.04177983 0.03897876 0.03645407 0.03406662
 0.03181367 0.02961763 0.02748899 0.02544684 0.023495 0.02166188 0.0199311 0.01828255 0.01669573 0.01512959
 0.01357508 0.01201136 0.01042369 0.008809596 0.007109671 0.005297516 0.003315281 0.00109166 -0.001186538 -0.003520968
 -0.005562759 -0.007231107 -0.008560158 -0.00953415 -0.01041625 -0.0112189 -0.01209172 -0.01302813 -0.01400293 -0.01500105
 -0.01592189 -0.01677288 -0.01752674 -0.01819692 -0.01881103 -0.01934944 -0.01980043 -0.02012666 -0.02027616 -0.02024846
 -0.0200191 -0.01962258 -0.01906969 -0.01838865 -0.01759391 -0.01669101 -0.01568948 -0.01455604 -0.01329263 -0.01182145
 -0.01013254 -0.008213227 -0.006064271 -0.003903478 -0.001748374 0.0001192916 0.001710297 0.002939107 0.003830365 0.004419044
 0.004725856 0.004805679 0.004690117 0.004446566 0.004110389 0.003739504 0.003370531 0.003045089 0.002794436 0.002657037
 0.002599869 0.002628622 0.002670483 0.002705698 0.002707372 0.002665136 0.00259777 0.002504944 0.002421011 0.002347755
 0.002307086 0.002298057 0.002316192 0.002358393 0.00240524 0.002454754 0.002488784 0.002509924 0.002512671 0.002506523
 0.002502062 0.002512177 0.002552478 0.002638914 0.002784621 0.003011768 0.003335054 0.00376785 0.004322265 0.004984375
 0.005755858 0.006607833 0.007536775 0.008518802 0.009552519 0.01060651 0.01167891 0.01271351 0.01370772 0.01461206
 0.0154293 0.01615025 0.01677849 0.01732336 0.01778194 0.0181534 0.01843066 0.01860132 0.01866263 0.01860539
 0.01843346 0.01814771 0.01774898 0.01724019 0.01661268 0.01586275 0.01498873 0.01398204 0.01288552 0.01169782
 0.01050778 0.009323853 0.008205594 0.007156558 0.006162166 0.005219817 0.00428997 0.003374975 0.002467674 0.0015751
 0.0007211299 -9.606606E-05 -0.0008647713 -0.001599947 -0.00231924 -0.003038136 -0.00378249 -0.004555693 -0.00537284 -0.006218411
 -0.007093422 -0.007964579 -0.008822534 -0.00963341 -0.01038508 -0.01106983 -0.01168128 -0.01224585 -0.01276445 -0.01327338
 -0.01377474 -0.01427836 -0.01478195 -0.01525681 -0.01569989 -0.01607649 -0.01639018 -0.01663445 -0.01681627 -0.01694911
 -0.01703722 -0.01709333 -0.01711955 -0.01712211 -0.01710469 -0.01707077 -0.01702689 -0.01697626 -0.01692736 -0.01688392
 -0.01685126 -0.01683199 -0.01682526 -0.01683187 -0.01684595 -0.01686711 -0.01688936 -0.01691233 -0.01693548 -0.01695915
 -0.01698858 -0.01702346 -0.01706612 -0.01711295 -0.0171534 -0.01718168 -0.01717811 -0.01714063 -0.01705518 -0.01692734
 -0.01675629 -0.01655288 -0.01632391 -0.01608199 -0.01583435 -0.01559374 -0.01536591 -0.01516046 -0.014981 -0.01483165
 -0.01471415 -0.01462622 -0.01456835 -0.0145308 -0.01451306 -0.0145026 -0.0144993 -0.01449824 -0.01450086 -0.01451393
 -0.01453801 -0.01457977 -0.01463662 -0.01470583 -0.01478428 -0.01486524 -0.01494781 -0.01502873 -0.01510692 -0.01518164
 -0.01524844 -0.01530512 -0.0153471 -0.0153714 -0.01537887 -0.01536823 -0.01534613 -0.0153133 -0.01527619 -0.0152358
 -0.01519248 -0.01514632 -0.01509257 -0.01503096 -0.01495706 -0.0148711 -0.01477247 -0.01466146 -0.01453904 -0.01440489
 -0.01425883 -0.01410031 -0.01392802 -0.01374237 -0.01354293 -0.01333128 -0.0131087 -0.01287584 -0.01263388 -0.0123812
 -0.01211746 -0.01184125 -0.01155156 -0.01125081 -0.01093902 -0.01061999 -0.01029414 -0.009963372 -0.009627809 -0.009290914
 -0.008953189 -0.008622836 -0.008300412 -0.007993662 -0.007702499 -0.007430024 -0.007177344 -0.006947626 -0.006744628 -0.006575958
 -0.006444881 -0.006359217 -0.006317514 -0.006322344 -0.006367714 -0.006451144 -0.006567528 -0.006713562 -0.006889912 -0.007095664
 -0.007334889 -0.007608729 -0.007915851 -0.008256862 -0.008622141 -0.00901118 -0.009413635 -0.009829151 -0.01025147 -0.01068022
 -0.01110969 -0.01153982 -0.01196661 -0.01239175 -0.01281788 -0.01324533 -0.01367802 -0.01410968 -0.0145353 -0.01494691
 -0.01533441 -0.01569922 -0.01603744 -0.01635923 -0.01666806 -0.01696965 -0.01726739 -0.01755708 -0.01783874 -0.01810663
 -0.0183599 -0.01859813 -0.01882122 -0.01903059 -0.01922594 -0.01940308 -0.01956094 -0.01969014 -0.01979012 -0.01985356
 -0.01988103 -0.01987012 -0.019822 -0.01973665 -0.01961752 -0.01946775 -0.01929308 -0.01910079 -0.01888963 -0.01866475
 -0.01840952 -0.01812026 -0.01777729 -0.01737241 -0.01690576 -0.01637364 -0.01579734 -0.01517812 -0.01453958 -0.01388327
 -0.01322509 -0.01256582 -0.01191896 -0.01128531 -0.01067768 -0.01009534 -0.009543556 -0.009018498 -0.008513802 -0.008024343
 -0.00753788 -0.007052203 -0.006558682 -0.006060234 -0.00555571 -0.00505056 -0.004546483 -0.004051544 -0.003567414 -0.00310771
 -0.002676224 -0.002283138 -0.001933178 -0.001614985 -0.001329434 -0.001046901 -0.0007655092 -0.0004660283 -0.0001486165 0.0001826224
 0.0005267945 0.0008745395 0.001228309 0.001592152 0.00197072 0.002378439 0.002817594 0.003300119 0.003822873 0.00438828
 0.004988148 0.00561724 0.006266407 0.006929452 0.007598742 0.008270506 0.008937593 0.009597029 0.01024639 0.01088367
 0.01151639 0.01214498 0.01277813 0.01341663 0.01405696 0.01469849 0.01532997 0.01595027 0.01654748 0.01711871
 0.01764578 0.01812677 0.01854341 0.01890496 0.01921598 0.01949521 0.01976829 0.02004717 0.02035215 0.02068417
 0.02104939 0.02144569 0.02187564 0.02232824 0.0228039 0.02327854 0.02374755 0.02419657 0.0246217 0.02503587
 0.02543947 0.02585376 0.02627899 0.02671889 0.02717113 0.02762094 0.02806585 0.02848778 0.0288863 0.02925159
 0.02958292 0.02987688 0.03012668 0.0303239 0.03045891 0.0305175 0.03050365 0.03041136 0.0302619 0.03006184
 0.02982989 0.0295735 0.02929799 0.02900488 0.02869996 0.02838328 0.02806786 0.02775457 0.02745271 0.02716254
 0.02688716 0.02662656 0.02638315 0.02615541 0.02593985 0.02573184 0.0255173 0.02529265 0.02504331 0.02477189
 0.02447413 0.02415865 0.0238304 0.02349995 0.02317568 0.02286192 0.02256455 0.02227568 0.02199504 0.02171157
 0.0214226 0.02112509 0.02081837 0.02050181 0.02017544 0.01983364 0.01947635 0.01910271 0.01871364 0.01831666
 0.01791094 0.01749767 0.01707368 0.01662979 0.01616632 0.0156787 0.01517052 0.01464577 0.01410385 0.01354674
 0.01296975 0.01236978 0.01174632 0.01109677 0.01042846 0.009741574 0.009048968 0.008352843 0.007663869 0.006984423
 0.006311616 0.005645722 0.004972164 0.004290557 0.00359449 0.002886015 0.0021779 0.001473036 0.0007911453 0.0001323131
 -0.0004918642 -0.001085707 -0.001650652 -0.002194156 -0.002727435 -0.003253063 -0.003780089 -0.004299564 -0.004808632 -0.00529936
 -0.005764153 -0.006213508 -0.006647449 -0.007083045 -0.007525373 -0.007973104 -0.008427488 -0.008876381 -0.009318752 -0.009754714
 -0.01018446 -0.0106149 -0.01104484 -0.01146822 -0.01188261 -0.01227305 -0.0126403 -0.01297777 -0.0132897 -0.01358089
 -0.01385548 -0.01412158 -0.01437959 -0.01463352 -0.01487995 -0.01511692 -0.0153451 -0.01556188 -0.01577858 -0.01599742
 -0.01622976 -0.01647962 -0.016744 -0.01702373 -0.01730744 -0.01759432 -0.01787782 -0.01815763 -0.0184293 -0.01869211
 -0.0189377 -0.01916594 -0.01937113 -0.01955481 -0.01971857 -0.01986372 -0.01999358 -0.02010883 -0.02021153 -0.02030266
 -0.02038464 -0.02045544 -0.02051558 -0.02055917 -0.02058296 -0.02058627 -0.02056609 -0.0205339 -0.02049051 -0.0204513
 -0.02041895 -0.02039693 -0.02038624 -0.02037326 -0.02035724 -0.02032149 -0.02026688 -0.02019283 -0.02010241 -0.02001025
 -0.01991623 -0.01982916 -0.01974369 -0.01965302 -0.01955395 -0.01943725 -0.01930774 -0.01916505 -0.01901907 -0.0188747
 -0.01874365 -0.01863183 -0.01854827 -0.01849924 -0.01847778 -0.01848711 -0.0184969 -0.01850464 -0.01847867 -0.01841575
 -0.01831291 -0.01817064 -0.01800991 -0.01783124 -0.01764889 -0.01746012 -0.01725917 -0.01704479 -0.01680842 -0.01655502
 -0.01628977 -0.01601886 -0.01575407 -0.01549589 -0.01524923 -0.01501213 -0.01478319 -0.01456607 -0.01436173 -0.01417438
 -0.01400738 -0.0138538 -0.0137137 -0.01357488 -0.01343467 -0.01329545 -0.01315654 -0.01303775 -0.01293999 -0.01287982
 -0.01285557 -0.01286113 -0.01289101 -0.01291725 -0.01293431 -0.01291008 -0.01284549 -0.0127239 -0.01255704 -0.01235078
 -0.0121253 -0.01190098 -0.01169506 -0.01152788 -0.01139769 -0.01131342 -0.01125034 -0.01120412 -0.01114873 -0.01107587
 -0.01098423 -0.01087116 -0.01075348 -0.01063256 -0.01051436 -0.01039887 -0.01027805 -0.01015254 -0.0100245 -0.009896292
 -0.009782418 -0.009680301 -0.009591631 -0.0095085 -0.009413832 -0.00930682 -0.00917594 -0.009032097 -0.008882501 -0.008733758
 -0.008596059 -0.008459582 -0.008322255 -0.008175724 -0.008012659 -0.007849614 -0.007686784 -0.007551246 -0.007448601 -0.007378059
 -0.007341354 -0.00730397 -0.007264164 -0.007188543 -0.007077722 -0.006923578 -0.006729097 -0.00650338 -0.006250099 -0.005983533
 -0.005709056 -0.005444031 -0.005192759 -0.004970288 -0.004773519 -0.004607392 -0.004459732 -0.004324932 -0.004189849 -0.004045173
 -0.003890611 -0.003721298 -0.003553509 -0.003389792 -0.003243213 -0.003117753 -0.003002958 -0.002898886 -0.002783536 -0.00265606
 -0.002508488 -0.002341638 -0.002160568 -0.001965525 -0.001759469 -0.001543367 -0.001320903 -0.001094776 -0.0008736072 -0.0006559117
 -0.000443998 -0.0002335741 -1.910603E-05 0.000195839 0.0004119184 0.0006206958 0.0008166127 0.001001191 0.00117213 0.001339872
 0.00150641 0.001678229 0.001856742 0.002042976 0.002237191 0.002438557 0.002646976 0.002858462 0.003072962 0.003287971
 0.003504449 0.003726404 0.003953765 0.00418939 0.004430388 0.00467193 0.004911974 0.005144625 0.005371499 0.005591413
 0.005808301 0.006024768 0.006242853 0.006466723 0.006686897 0.006903298 0.007097665 0.007263126 0.007405079 0.007519449
 0.007649931 0.007799976 0.007999819 0.008250067 0.008519426 0.008804917 0.009059839 0.009291823 0.00951306 0.009738042
 0.01002304 0.01036714 0.01080132 0.0113043 0.01185962 0.01244468 0.01302762 0.01360332 0.01415725 0.01469483
 0.01522134 0.01571737 0.01618541 0.01657281 0.01686668 0.01704062 0.01708222 0.01704193 0.01692084 0.01679939
 0.01668142 0.01661504 0.01660065 0.01666056 0.01679283 0.01700474 0.0172848 0.01760312 0.01794351 0.01825293
 0.01853204 0.01875574 0.01893907 0.01909132 0.01921585 0.01932101 0.01939663 0.01943827 0.01944433 0.01941055
 0.01935025 0.01926371 0.01917282 0.01907989 0.0190076 0.01895877 0.0189361 0.0189395 0.0189462 0.01895599
 0.01895676 0.018953 0.01896307 0.01898946 0.01905135 0.01914488 0.01927144 0.01942535 0.01959994 0.01978747
 0.01997557 0.02016543 0.02034683 0.02054818 0.02078252 0.02106522 0.02142486 0.02176808 0.0220826 0.02227122
 0.02230354 0.02225278 0.02212019 0.02201325 0.02193684 0.02191666 0.02194882 0.02199782 0.02206152 0.02210808
 0.02214459 0.02217766 0.02221476 0.02227901 0.02236539 0.02248134 0.02260596 0.02272 0.02280754 0.02284448
 0.02284585 0.02280948 0.02276369 0.02272002 0.02268582 0.02266449 0.02265905 0.02266863 0.02271179 0.02279146
 0.02289923 0.02303426 0.02313558 0.0232006 0.02317682 0.02307082 0.02289024 0.0226449 0.02237309 0.02207595
 0.02177663 0.02146738 0.02114564 0.02080609 0.02043324 0.02005225 0.01966368 0.01933306 0.01909613 0.01898689
 0.01904039 0.0191967 0.01945366 0.01972837 0.02000439 0.02026207 0.02049743 0.02071561 0.02091661 0.0210879
 0.0212318 0.0213703 0.02150997 0.02170546 0.02194787 0.02224 0.02256089 0.02285967 0.02313473 0.02335584
 0.02354321 0.02370671 0.02386561 0.02403879 0.02423296 0.02445938 0.02470776 0.02497951 0.02525311 0.02552248
 0.02578078 0.02602482 0.02626459 0.02650174 0.02672763 0.02694177 0.027117 0.02725412 0.02735351 0.02742023
 0.02748442 0.02754723 0.02762912 0.02772675 0.02784354 0.02797359 0.02811269 0.0282462 0.02835565 0.02843376
 0.02846205 0.02846305 0.02844308 0.02842261 0.02841634 0.02840721 0.02839358 0.02836084 0.02830253 0.02824401
 0.02818673 0.02815587 0.02815275 0.02816826 0.0282011 0.02823237 0.02826201 0.02828007 0.02828764 0.02828214
 0.02826695 0.02825104 0.0282306 0.02820829 0.02816639 0.02808171 0.02795573 0.02777168 0.02757047 0.02737143
 0.02719567 0.02706507 0.02694136 0.02681841 0.02666961 0.02648494 0.02629284 0.02609607 0.02590322 0.02571486
 0.02548268 0.02520615 0.02486197 0.02445933 0.02404152 0.02361544 0.02323161 0.02288308 0.02258109 0.0223103
 0.02205072 0.02179161 0.02150779 0.02121134 0.02089732 0.0205989 0.02033562 0.02011783 0.01996195 0.01983161
 0.0197223 0.01959713 0.01944618 0.01927457 0.01908035 0.01889487 0.01871982</values></Ydata></AB><ScSm><Ydata ylabel="Single channel"><values byteorder="INTEL" format="FLOAT32" numvalues="1814"> 0.0715985 0.07161061 0.07168937 0.07185327 0.07207098 0.07227728 0.072419 0.07249003 0.07251114 0.07248712
 0.07242033 0.07236414 0.07240967 0.07259335 0.072842 0.07302484 0.07305843 0.0729804 0.0729294 0.07301266
 0.07316159 0.07315014 0.07280677 0.07221115 0.07164109 0.07131404 0.07125064 0.07143739 0.07196344 0.0727683
 0.07335874 0.07316323 0.07225202 0.07136573 0.07109216 0.07130362 0.07150845 0.07142077 0.07104332 0.07055102
 0.07034599 0.07095487 0.07250899 0.07431024 0.07508096 0.07377334 0.07032033 0.06587136 0.06236532 0.06148874
 0.06348639 0.06682687 0.0693526 0.06999993 0.06930541 0.06831135 0.06744651 0.06666273 0.06616037 0.06642837
 0.06756948 0.06884313 0.06904837 0.06755384 0.06505031 0.06305659 0.06253077 0.06327254 0.0647424 0.0666469
 0.06811012 0.06720829 0.06286985 0.05726548 0.05482947 0.05803988 0.06477387 0.0703854 0.07183398 0.06937893
 0.06522646 0.06170827 0.06040674 0.06172326 0.0648019 0.06824176 0.07094805 0.07218163 0.07136925 0.06860238
 0.06512776 0.06274511 0.06270283 0.06520503 0.06936389 0.07328454 0.07493438 0.07364647 0.07055721 0.06740531
 0.0653913 0.06519328 0.06713941 0.07086154 0.07526933 0.07918291 0.08181724 0.0828643 0.08255639 0.08151723
 0.08028789 0.0792411 0.07891206 0.0796642 0.08081971 0.08092297 0.07932803 0.07706392 0.0757734 0.07601361
 0.07681504 0.07685998 0.07581565 0.07410966 0.07162079 0.06765644 0.06254077 0.05803708 0.05558207 0.05519164
 0.0565096 0.05936265 0.06252959 0.06368632 0.06196074 0.05953747 0.05948905 0.06249938 0.06652354 0.06927432
 0.07033341 0.07097766 0.07254052 0.07505047 0.07706966 0.07678066 0.07378905 0.07012828 0.06881896 0.07090262
 0.07444052 0.07689649 0.07780986 0.07850537 0.07978331 0.08068028 0.07947467 0.07573313 0.07140595 0.06961921
 0.07194888 0.07684046 0.08073972 0.08072658 0.07647957 0.07033603 0.06546798 0.06369176 0.06499012 0.06872141
 0.07431732 0.08065011 0.08575264 0.08792435 0.08696909 0.08408364 0.08049177 0.0763159 0.0712432 0.06642115
 0.06466756 0.06780182 0.07431504 0.0806319 0.08429588 0.08518457 0.08411457 0.08132537 0.07671399 0.07129707
 0.06767993 0.06802763 0.07145256 0.0745274 0.07487296 0.07331995 0.07213396 0.07219447 0.07267741 0.07279538
 0.0729178 0.07394176 0.07601202 0.07817854 0.07931687 0.07915387 0.07831551 0.07759504 0.07723148 0.07674016
 0.07559579 0.07427892 0.07421596 0.07621648 0.07935933 0.08193872 0.08317323 0.08348878 0.08338232 0.08255475
 0.08035667 0.07702834 0.07419606 0.07366021 0.0756505 0.07868928 0.08112539 0.08231407 0.08244886 0.08196291
 0.08123733 0.0804784 0.07978727 0.07943362 0.07978286 0.08077865 0.08182646 0.08238871 0.08242482 0.08213147
 0.0815625 0.08069595 0.07970143 0.07895259 0.07876018 0.07913611 0.07983518 0.08057512 0.08113703 0.08132706
 0.08104745 0.08044132 0.07980448 0.07931586 0.07897977 0.07881336 0.07890612 0.07925111 0.07966331 0.07993723
 0.08001024 0.07993355 0.07975619 0.07948986 0.07915473 0.07882166 0.07860531 0.07859042 0.07873725 0.07890074
 0.07899007 0.07905608 0.07915876 0.07921979 0.07910809 0.07883026 0.07853934 0.07836948 0.0783302 0.07834804
 0.07834052 0.07822959 0.07794023 0.0774672 0.07695982 0.07666533 0.07673054 0.07709273 0.07757903 0.07803871
 0.07836396 0.07849418 0.07846124 0.07836145 0.07824185 0.07806311 0.07779354 0.0775007 0.07733163 0.07740004
 0.07768067 0.07802305 0.07827981 0.07840001 0.07840832 0.0783641 0.07834803 0.07840389 0.07846975 0.07843658
 0.07829231 0.07814859 0.07811199 0.07817131 0.07822211 0.07818294 0.07808091 0.0780188 0.07805894 0.07816356
 0.0782572 0.07831405 0.07836296 0.07842627 0.0784709 0.07842617 0.0782637 0.0780507 0.07788898 0.0778072
 0.07775927 0.07772234 0.07773463 0.07782035 0.07792743 0.07797209 0.07792777 0.07784478 0.07777967 0.07772288
 0.07761512 0.07742912 0.0772095 0.07702678 0.07691301 0.07684979 0.07679909 0.07673167 0.07663374 0.07650241
 0.07634219 0.07616252 0.0759729 0.075785 0.07562636 0.07553674 0.07552622 0.07553847 0.07548264 0.07531591
 0.07508639 0.07488479 0.07475622 0.07466687 0.07455687 0.07441142 0.07426751 0.0741628 0.07410118 0.07406671
 0.07404774 0.0740426 0.07406323 0.07414156 0.07430907 0.07455008 0.07478979 0.07495337 0.07503522 0.07509433
 0.07518762 0.07532588 0.07548697 0.0756518 0.07582604 0.07603337 0.07627794 0.07651579 0.07669015 0.0767992
 0.07690039 0.07704688 0.07725114 0.07750276 0.07777442 0.07800969 0.07815757 0.07823403 0.07831232 0.07844068
 0.07860116 0.07875717 0.07890703 0.07907254 0.07926077 0.0794629 0.07968164 0.07993754 0.08024408 0.08058494
 0.08091705 0.08119728 0.08141801 0.08162463 0.08188812 0.08224615 0.0826679 0.08308042 0.08343116 0.08372682
 0.08401231 0.08431567 0.08462694 0.08493762 0.08527685 0.08568048 0.08613539 0.08658697 0.08700037 0.08738823
 0.08777939 0.08818448 0.08859788 0.08901887 0.08946124 0.08993744 0.09042938 0.09088413 0.09125544 0.09155
 0.09182534 0.09214583 0.09253999 0.09297827 0.09338182 0.09368052 0.09388742 0.09409659 0.09438313 0.09472276
 0.09503895 0.09531294 0.09560588 0.09597081 0.09638033 0.09676073 0.09707542 0.09735268 0.09763801 0.09793708
 0.09820972 0.09841523 0.09855831 0.09868543 0.09883841 0.09902897 0.09926495 0.09957093 0.09995086 0.1003484
 0.1006825 0.1009194 0.1010856 0.1012229 0.1013604 0.101517 0.1016966 0.1018845 0.1020651 0.1022321
 0.1023737 0.1024787 0.1025726 0.1027131 0.1029311 0.1032051 0.1035096 0.1038531 0.1042413 0.1046394
 0.1050095 0.1053712 0.1057772 0.106224 0.1066269 0.1069077 0.1070755 0.1071955 0.1073109 0.1074379
 0.1076133 0.1078851 0.108253 0.1086593 0.1090474 0.1094027 0.1097335 0.1100385 0.1103009 0.1105026
 0.1106389 0.1107262 0.1107998 0.1109062 0.1110874 0.1113563 0.1116757 0.1119753 0.1121971 0.1123141
 0.1123103 0.1121756 0.1119393 0.1116786 0.111454 0.1112393 0.1109392 0.1104734 0.1098246 0.109012
 0.1080516 0.106959 0.1057765 0.1045831 0.103473 0.102526 0.1018005 0.1013521 0.1012473 0.1015261
 0.1021393 0.1029305 0.1036935 0.1042395 0.1044246 0.1041617 0.1034504 0.1023856 0.1011069 0.09973283
 0.0983363 0.09695123 0.09557587 0.09419446 0.09283756 0.09162585 0.09074161 0.09037007 0.09068418 0.09184568
 0.09393361 0.09681558 0.1001104 0.1033369 0.106144 0.1084258 0.1102642 0.1118076 0.1131862 0.1144719
 0.1156695 0.1167529 0.1177194 0.1185966 0.1194032 0.1201247 0.1207278 0.1211826 0.1214797 0.1216426
 0.1217166 0.1217365 0.1217175 0.1216768 0.1216297 0.1215486 0.1213453 0.1209128 0.1201824 0.1191443
 0.1178391 0.1163661 0.1149525 0.1140342 0.1141841 0.115806 0.1188064 0.1225834 0.1263714 0.1296193
 0.1321239 0.1339439 0.1352572 0.1362512 0.1370631 0.1377754 0.1384358 0.1390636 0.1396508 0.1401841
 0.1406717 0.1411435 0.1416295 0.1421368 0.142644 0.1431167 0.1435409 0.1439412 0.1443622 0.1448308
 0.1453334 0.145832 0.1463048 0.1467653 0.1472316 0.1476872 0.1480954 0.1484486 0.1487796 0.1491285
 0.1495179 0.1499513 0.1504082 0.1508436 0.1512183 0.1515343 0.1518285 0.1521337 0.1524576 0.152795
 0.153143 0.1534969 0.153848 0.1541955 0.1545537 0.1549319 0.1553081 0.1556411 0.1559134 0.1561527
 0.1564058 0.1566947 0.1570031 0.1573001 0.1575779 0.1578656 0.1582019 0.1585906 0.1589887 0.1593431
 0.1596347 0.1598866 0.1601348 0.160399 0.1606796 0.160971 0.1612677 0.1615618 0.1618485 0.1621355
 0.1624359 0.1627514 0.1630688 0.1633751 0.1636693 0.1639572 0.164242 0.164522 0.1647999 0.1650898
 0.1654088 0.1657562 0.1661061 0.1664253 0.1666986 0.1669339 0.1671522 0.1673757 0.1676179 0.1678794
 0.1681542 0.1684395 0.1687338 0.1690308 0.1693209 0.1696012 0.1698788 0.1701635 0.1704583 0.1707564
 0.1710494 0.1713379 0.1716306 0.171931 0.1722308 0.1725186 0.1727909 0.1730544 0.1733204 0.1735969
 0.1738819 0.1741642 0.1744353 0.174697 0.1749564 0.1752185 0.1754861 0.1757617 0.1760446 0.1763261
 0.1765952 0.1768491 0.1770992 0.1773623 0.1776449 0.1779378 0.1782271 0.1785058 0.1787735 0.1790324
 0.179286 0.17954 0.179802 0.1800774 0.1803634 0.1806484 0.1809234 0.1811906 0.1814565 0.181723
 0.1819886 0.1822535 0.1825172 0.1827761 0.183026 0.1832698 0.1835178 0.1837797 0.1840546 0.1843332
 0.1846124 0.1848979 0.1851894 0.1854749 0.1857443 0.1860021 0.18626 0.1865245 0.1867943 0.1870676
 0.1873451 0.1876273 0.1879083 0.1881796 0.1884388 0.1886888 0.1889313 0.189169 0.1894107 0.1896646
 0.1899286 0.1901942 0.1904529 0.1906992 0.1909351 0.1911736 0.1914262 0.1916908 0.191959 0.1922247
 0.1924858 0.1927455 0.1930124 0.1932883 0.1935639 0.1938346 0.1941092 0.1943938 0.1946821 0.1949636
 0.1952338 0.1954952 0.1957577 0.1960294 0.196306 0.1965785 0.1968474 0.1971179 0.1973911 0.1976671
 0.1979453 0.1982183 0.1984801 0.1987379 0.1989998 0.1992615 0.1995185 0.1997772 0.2000444 0.2003202
 0.2006005 0.200877 0.2011419 0.2014009 0.2016654 0.2019351 0.2022036 0.202473 0.2027459 0.2030189
 0.2032924 0.2035669 0.2038334 0.2040863 0.2043378 0.2045974 0.2048581 0.2051119 0.2053556 0.205572
 0.2057147 0.2056586 0.2050774 0.2033204 0.1994066 0.1922285 0.1809966 0.1657402 0.1474705 0.1278202
 0.1084457 0.09060198 0.07502355 0.0620259 0.05167337 0.04388497 0.03849209 0.03534051 0.03440911 0.03593887
 0.04056569 0.04894057 0.06030906 0.07125805 0.07704701 0.07535229 0.06848904 0.06129994 0.05712898 0.05620428
 0.05708654 0.05855222 0.06022114 0.06232536 0.06525212 0.06910852 0.07370857 0.07904817 0.08553139 0.09345499
 0.1023966 0.1113947 0.1197775 0.1276885 0.1357583 0.1443493 0.1531784 0.1615946 0.1690963 0.175585
 0.1812687 0.1864311 0.1912704 0.1958744 0.2002725 0.2044421 0.208231 0.2113249 0.2133908 0.214328
 0.2143944 0.2140645 0.2137499 0.213641 0.2137602 0.2140818 0.2145799 0.2152256 0.2159923 0.2168571
 0.2177894 0.2187532 0.21972 0.220668 0.2215748 0.2224241 0.2232099 0.22393 0.2245855 0.2251853
 0.2257384 0.2262459 0.2267085 0.227136 0.2275425 0.2279369 0.2283195 0.2286855 0.2290298 0.2293522
 0.2296544 0.2299348 0.2301938 0.2304398 0.2306818 0.2309214 0.2311586 0.2313979 0.2316422 0.2318885
 0.2321343 0.2323817 0.2326304 0.2328753 0.2331132 0.2333459 0.2335752 0.2338009 0.2340223 0.2342403
 0.2344585 0.2346822 0.2349115 0.2351382 0.2353543 0.2355615 0.2357701 0.23599 0.2362221 0.2364596
 0.2366989 0.2369474 0.2372116 0.2374819 0.2377433 0.2379958 0.2382488 0.2385018 0.2387467 0.2389813
 0.2392045 0.2394052 0.2395754 0.2397332 0.2399197 0.2401666 0.2404623 0.2407584 0.2410143 0.2412311
 0.2414366 0.2416508 0.2418718 0.2420855 0.2422859 0.2424954 0.2427501 0.2430551 0.2433741 0.2436749
 0.2439591 0.2442383 0.244515 0.2447896 0.245054 0.2452761 0.2454304 0.2455501 0.2457254 0.246034
 0.2464662 0.2469237 0.247306 0.2475964 0.2478493 0.2481217 0.2484394 0.2487756 0.249023 0.2490667
 0.2489603 0.2489555 0.249269 0.2498681 0.2505363 0.2510955 0.2515128 0.2518467 0.2521529 0.2524299
 0.2526225 0.252683 0.2526569 0.2527118 0.2530233 0.2535952 0.2542381 0.2547623 0.2551306 0.2554011
 0.2556251 0.2558324 0.2559795 0.2558911 0.2554455 0.2548889 0.254766 0.255393 0.2565029 0.2575331
 0.258183 0.2585656 0.2588906 0.2592044 0.2594531 0.259534 0.2591723 0.2580778 0.256516 0.2554672
 0.255818 0.2574678 0.2594921 0.2610633 0.2619724 0.2624273 0.2626954 0.2629275 0.2630442 0.2627365
 0.2618085 0.260643 0.2601096 0.2607569 0.2621949 0.2635191 0.2642391 0.2645329 0.2647578 0.2650493
 0.2652358 0.2647913 0.2631321 0.2604832 0.2583181 0.2583216 0.2607372 0.2640678 0.2665609 0.2677172
 0.2681388 0.2682261 0.2675893 0.2657477 0.2628536 0.2596174 0.2570799 0.2564687 0.2583859 0.2617952
 0.2646118 0.2657594 0.2660749 0.266927 0.2685809 0.270219 0.2710046 0.2707274 0.269648 0.2680346
 0.2660398 0.2641367 0.2633779 0.2646487 0.2675911 0.2707293 0.2728362 0.2738671 0.2743149 0.2737718
 0.2706398 0.264056 0.256293 0.2521259 0.2546096 0.2618806 0.2691636 0.2734726 0.2752395 0.2760574
 0.2765498 0.276206 0.2736788 0.2675212 0.2584659 0.2508519 0.2496888 0.2557063 0.2645276 0.2707506
 0.2716265 0.2673607 0.2601437 0.2534941 0.2508209 0.2533571 0.2596203 0.2668794 0.2727985 0.2760674
 0.2763785 0.2743099 0.2712908 0.2692437 0.2691878 0.2697308 0.2681314 0.2637625 0.2591622 0.2563114
 0.2535712 0.2487144 0.2438079 0.2438335 0.250208 0.2584146 0.2630774 0.2634007 0.2621983 0.2607765
 0.2567114 0.2473502 0.234842 0.2262191 0.2272299 0.2363649 0.2462013 0.2506482 0.2497654 0.2475941
 0.2467614 0.2458321 0.2414051 0.2326058 0.2233189 0.2189492 0.2207316 0.2246622 0.2262554 0.2241238
 0.2184304 0.2094537 0.2001442 0.1970486 0.204756 0.2202528 0.2352823 0.2431367 0.2411094 0.2290279
 0.210156 0.1930699 0.1874731 0.1955376 0.2092783 0.217899 0.2163669 0.2063078 0.1913465 0.1745838
 0.1600016 0.1529458 0.1569055 0.1699493 0.1848981 0.1929968 0.1887626 0.1741777 0.1588628 0.1531411
 0.1587362 0.1676865 0.1712699 0.1678683 0.1616853 0.1572513 0.1567732 0.1598711 0.1640309 0.166923
 0.1682681 0.1673556 0.1605704 0.1458914 0.1289283 0.1192321 0.1203384 0.12801 0.1380174 0.1498189
 0.1613947 0.1667179 0.1625904 0.1548056 0.1532272 0.1613503 0.1733038 0.1809773 0.1820439 0.1803775
 0.1800546 0.1809131 0.1807642 0.180385 0.1835964 0.191974 0.2020181 0.209029 0.2119631 0.2129511
 0.2137074 0.2142586 0.2141539 0.2132284 0.2115467 0.2095385 0.2078436 0.2065708 0.2051827 0.2032482
 0.2004588 0.1956247 0.1870074 0.1750263 0.163839 0.1581359 0.1582809 0.1607022 0.1629941 0.1652365
 0.1653647 0.1579078 0.1411631 0.1229845 0.1150365 0.121555 0.1362612 0.1495483 0.155845 0.1540528
 0.1446527 0.1298922 0.1160958 0.1117057 0.1204679 0.1379354 0.1562705 0.1708762 0.1808124 0.1852209
 0.18284 0.1748776 0.1660139 0.1617508 0.1651502 0.1754758 0.1883416 0.1967357 0.1944599 0.182389
 0.171359 0.1741264 0.1918184 0.2118583 0.2220892 0.2231173 0.2231838 0.2253808 0.2261936 0.2246305
 0.2257921 0.2338403 0.2458136 0.2545331 0.254913 0.2459437 0.2299268 0.2129118 0.2031663 0.2046532
 0.2126727 0.219101 0.2203024 0.2166046 0.2074772 0.1936497 0.1823109 0.1827353 0.1954917 0.211176
 0.2211229 0.2253143 0.2284513 0.2318098 0.231663 0.2249162 0.2143062 0.2067086 0.2063473 0.2110923
 0.2159994 0.2184717 0.2183287 0.2149237 0.2075515 0.1986808 0.1939297 0.1972177 0.2067464 0.216704
 0.2224653 0.2234811 0.2218964 0.2197955 0.2178126 0.2153183 0.2118108 0.2086888 0.2089559 0.2139678
 0.2211744 0.2266977 0.2297454 0.2328464 0.2378818 0.2434856 0.246702 0.2462144 0.2436085 0.242006
 0.2435596 0.247719 0.2516136 0.2524906 0.2503369 0.2481439 0.2491561 0.2537752 0.2595235 0.2638423
 0.2661755 0.2674298 0.2684616 0.2693453 0.2693292 0.2674121 0.2637725 0.26061 0.2605928 0.2642125
 0.2693145 0.2733157 0.2752745 0.2757641 0.275488 0.2745348 0.2727819 0.2705637 0.2686824 0.2677891
 0.2679242 0.2686852 0.2696488 0.270555 0.2712797 0.2718107 0.2722064 0.2725112 0.2727385 0.272922
 0.2730896 0.2731845 0.2731204 0.2729512 0.2728829 0.2730514 0.2733504 0.2735459 0.2734903 0.2731367
 0.2724157 0.2712498 0.2696953 0.2679322 0.2660668 0.2640586 0.2619572 0.2601681 0.2593378 0.2598673
 0.2615409 0.2636622 0.2655376 0.266826 0.2675309 0.2678167 0.2678753 0.267868 0.2678879 0.2679457
 0.2680082 0.2680523 0.2680817 0.2681069 0.2681348 0.2681876 0.2683052 0.2685097 0.2687737 0.2690323
 0.2692177 0.2692864 0.2692358 0.2691031 0.2689274 0.2687035 0.2683771 0.267891 0.2672332 0.2664497
 0.2656198 0.2648091 0.2640259 0.2632145 0.2623048 0.2612667 0.2600962 0.2587589 0.2572078 0.2554857
 0.2537529 0.2521619 0.2507325 0.2493802 0.2480235 0.2466244 0.2451653 0.2436396 0.2420599 0.2404447
 0.2387996 0.2371212 0.2354165 0.233705 0.2319962 0.2302649 0.2284643 0.2265702 0.2246043 0.2226005
 0.2205475 0.218363 0.215918 0.2130825 0.2097554 0.2058742 0.2014316 0.1965044 0.191258 0.1859042
 0.1806443 0.1756358 0.1709939 0.1668189 0.1632174 0.1602822 0.15805 0.1565022 0.1556062 0.1553433
 0.1557029 0.1566712 0.1582139 0.1602442 0.1626078 0.165115 0.1675894 0.1699032 0.1720016 0.1739177
 0.1757493 0.177587 0.1794439 0.1812561 0.1829521 0.1845051 0.1859113 0.1871501 0.1881991 0.1890715
 0.1898105 0.1904548 0.191031 0.1915653 0.1920819 0.1925874 0.1930686 0.1935097 0.193918 0.1943284
 0.1947764 0.1952749 0.1958248 0.1964367 0.197129 0.1979125 0.198783 0.1997238 0.2007185 0.2017674
 0.2028863 0.2040893 0.2053873 0.2068016 0.2083585 0.2100704 0.2119306 0.2139123 0.2159548 0.2179588
 0.2198108 0.2214189 0.2227399 0.2237825 0.2245791 0.2251562 0.2255408 0.2257791 0.2259176 0.2259744
 0.2259519 0.2258644 0.2257271 0.2255307 0.2252491 0.2248703 0.2244141 0.223924 0.2234389 0.2229665
 0.2224934 0.2220203 0.2215724 0.2211739 0.2208265 0.2205069 0.2201786 0.2198121 0.2194026 0.2189615
 0.2184931 0.2179811 0.2173914 0.2166826 0.2158283 0.214836 0.2137384 0.2125611 0.2113044 0.20995
 0.2084846 0.2069171 0.2052683 0.2035432 0.2017283 0.1998143 0.1977993 0.1956805 0.1934797 0.1912753
 0.1891668 0.1872017 0.1853623 0.1836168 0.1819496 0.1803487 0.1787967 0.1772836 0.1758148 0.1744059
 0.1730728 0.1718237 0.1706553 0.1695564 0.168518 0.1675491 0.1666819 0.1659483 0.1653474 0.1648449
 0.1643997 0.1639853 0.1636038 0.1632956 0.1631136 0.1630628 0.1630723 0.1630425 0.1629188 0.1627169
 0.1624904 0.1622793 0.1620926 0.1619334 0.1618086 0.1616891 0.1614832 0.1610781 0.1603938 0.1593888
 0.1580501 0.1564097 0.1545528 0.1525971 0.1506697 0.1488881 0.1473354 0.1460484 0.1450261 0.1442315
 0.1435974 0.1430637 0.142622 0.1423167 0.1422032 0.1422842 0.1424617 0.1425786 0.1425559 0.1424784
 0.1425164 0.1427819 0.1432656 0.1438697 0.1444746 0.1449973 0.1454057 0.1456884 0.1458379 0.1458638
 0.1457831 0.1455992 0.145318 0.1449674 0.1445757 0.1441512 0.1436882 0.143167 0.1425572 0.141854
 0.1410808 0.1402404 0.1393121 0.1382944 0.1371865 0.135958 0.1346338 0.1333986 0.132533 0.1322276
 0.1324618 0.1330304 0.1337017 0.1343764 0.1350304 0.1355043 0.1355571 0.1352783 0.1352796 0.1362369
 0.1382305 0.1406492 0.1427232 0.1440468 0.1446109 0.1445405 0.143944 0.1429034 0.1414354 0.1394951
 0.1371061 0.1344067 0.13153 0.1285746 0.1257045 0.1231177 0.1209223 0.1191358 0.117735 0.1167378
 0.1162689 0.1159865 0.1140927 0.1082653 0.09924446 0.09246627 0.09351476 0.1018396 0.1111056 0.1158825
 0.1159953 0.11433 0.1128903 0.1119711 0.1114487 0.1114498 0.1121088 0.1133033 0.1146583 0.1157751
 0.1164875 0.1168229 0.1167302 0.115888 0.1136535 0.1092436 0.1023531 0.09376613 0.08511896 0.0779299
 0.07289928 0.06991988 0.06840323 0.06762576 0.0670929 0.06676713 0.06695257 0.06794308 0.06977256 0.07226408
 0.07521278 0.07839679 0.08146375 0.08403645 0.08600159 0.08753105 0.08877034 0.08965674 0.09006867 0.09000379
 0.08957153 0.08891227 0.08815157 0.08736016 0.08651058 0.08550404 0.0843181 0.08314689 0.08229843 0.08189883
 0.08179259 0.08177122 0.08176985 0.08179872 0.08182974 0.08181793 0.08175662 0.08170049 0.08176912 0.08206519
 0.08254606 0.08303943 0.08340047 0.08360514 0.08371137 0.08375145 0.08362637 0.08317678 0.08246464 0.08183413
 0.08147714 0.08109297 0.08027206 0.07912099 0.07821715 0.07797409 0.07827147 0.0786862 0.07889288 0.07882658
 0.07864261 0.078622 0.07898808 0.0796465</values></Ydata></ScSm><ScRf><Ydata ylabel="Single channel"><values byteorder="INTEL" format="FLOAT32" numvalues="1820"> 0.06081253 0.06096736 0.06105994 0.0610912 0.06108602 0.06108906 0.06114883 0.06128903 0.06148768 0.06168403
 0.06181949 0.06187993 0.06188727 0.06185526 0.06178766 0.06172461 0.0617443 0.06188881 0.06210587 0.06228102
 0.06233002 0.06227473 0.0622324 0.06229756 0.06241374 0.06239145 0.06209049 0.06158191 0.06109815 0.06081799
 0.06075788 0.06091041 0.06135602 0.06204589 0.06255978 0.06240617 0.06163786 0.0608824 0.0606431 0.06081475
 0.06097846 0.06088848 0.06054707 0.06010797 0.05992219 0.06044577 0.0617907 0.06335174 0.06402349 0.06289978
 0.05992221 0.05608176 0.05304885 0.05227727 0.05398314 0.05685506 0.05903754 0.05961004 0.05902902 0.05819007
 0.05746083 0.05679453 0.05635802 0.0565725 0.05753406 0.05861549 0.05878932 0.05751009 0.05536406 0.05365093
 0.05319433 0.05382598 0.05508604 0.05672538 0.0579936 0.05723508 0.05351882 0.04869961 0.04659025 0.04933658
 0.05512756 0.05996462 0.06121717 0.05910168 0.05552667 0.05250919 0.05140417 0.05253962 0.05517235 0.05810802
 0.0604195 0.06147601 0.06078166 0.05841216 0.05543789 0.05340236 0.05337259 0.05552091 0.05908849 0.06245463
 0.06387419 0.06276762 0.0601074 0.05739349 0.05566502 0.055502 0.05717748 0.06037328 0.0641605 0.06753232
 0.06981054 0.0707192 0.07045221 0.06955416 0.06850383 0.06762157 0.06735098 0.0679922 0.06897034 0.06905121
 0.06768537 0.06574827 0.06464218 0.06484732 0.0655395 0.06559011 0.06470613 0.06324628 0.06110544 0.05769175
 0.05328439 0.04939879 0.04727424 0.04693116 0.04807013 0.05054989 0.05332256 0.05437483 0.05292936 0.05084689
 0.05077535 0.05332348 0.05675202 0.05910327 0.06001519 0.06057619 0.06192641 0.06409381 0.06584786 0.06562112
 0.06306107 0.05991168 0.05878235 0.06058297 0.06364668 0.06578305 0.06659211 0.06721736 0.06834915 0.06915519
 0.0681534 0.06497641 0.06130531 0.05982123 0.06186663 0.06610014 0.06946958 0.06946398 0.06580124 0.06049462
 0.05628943 0.05476623 0.05592143 0.05921179 0.0641532 0.06976495 0.07432608 0.0763378 0.07560519 0.07315687
 0.07006909 0.06646967 0.06209319 0.05793494 0.05645774 0.05926949 0.0650675 0.07072176 0.07406458 0.07497146
 0.0741477 0.07179337 0.06780615 0.06308353 0.05995296 0.06036581 0.06354783 0.06643471 0.06687875 0.06560682
 0.06465085 0.064812 0.0653566 0.06557719 0.06581068 0.06687257 0.06889401 0.07101034 0.07219648 0.07219645
 0.07157215 0.0710473 0.07084595 0.07052489 0.06960189 0.0685297 0.06863669 0.07066843 0.07375507 0.07630248
 0.07758993 0.07802917 0.07809114 0.07748374 0.07557277 0.07256711 0.07000817 0.06962755 0.07167174 0.07474305
 0.07725307 0.07856961 0.07887463 0.07858557 0.07806598 0.07751209 0.07702389 0.07686064 0.07736684 0.07848176
 0.07963497 0.08031797 0.08049938 0.08036645 0.07996128 0.07925868 0.07842997 0.07784598 0.07780987 0.07832965
 0.07916322 0.08003458 0.08073145 0.08106285 0.08092529 0.08045409 0.07994844 0.07959993 0.07941955 0.07942085
 0.07968676 0.08020336 0.08077603 0.0811901 0.08138077 0.08140752 0.08133492 0.08118722 0.08098552 0.08079538
 0.080729 0.08086635 0.08115448 0.08144094 0.08165028 0.08185823 0.08212772 0.08235335 0.08237284 0.08218806
 0.08197613 0.08189699 0.08196292 0.08208686 0.08218034 0.08217137 0.08198711 0.08161531 0.08120219 0.0810046
 0.081185 0.08169133 0.08234902 0.08298935 0.0834768 0.08373125 0.08378711 0.08375877 0.08370787 0.08359736
 0.08339445 0.08317247 0.08308937 0.08326757 0.08368411 0.08417993 0.08458601 0.08482753 0.084924 0.08495632
 0.08503608 0.08521946 0.08542474 0.08550835 0.08544393 0.08536288 0.08539674 0.08552848 0.08562452 0.08559278
 0.08548971 0.08546245 0.08559164 0.08581653 0.0860228 0.08617185 0.08631969 0.08651998 0.08672746 0.08681687
 0.08671722 0.08650836 0.08634129 0.08627917 0.0862788 0.08631678 0.08644263 0.08667713 0.08692976 0.08707502
 0.087088 0.08706143 0.08708832 0.0871563 0.08717158 0.08707047 0.08688585 0.08671181 0.08662613 0.08664636
 0.0867313 0.08680961 0.08682127 0.08675325 0.08664037 0.0865282 0.08643895 0.08638415 0.08640105 0.0865408
 0.08679205 0.08703316 0.08710328 0.08694482 0.08666702 0.08645129 0.08638741 0.0864049 0.08636098 0.08618175
 0.08591275 0.085652 0.0854598 0.08533196 0.08523394 0.08514559 0.08508547 0.08510237 0.08522561 0.08540185
 0.08549881 0.08541032 0.08516055 0.08488037 0.08468662 0.08460675 0.08459871 0.08460489 0.08459815 0.08460502
 0.08466711 0.08476312 0.08480736 0.08475041 0.08464304 0.08458111 0.0846262 0.08478371 0.08499886 0.08516181
 0.08518003 0.08507466 0.08496524 0.08494432 0.08500315 0.08508638 0.08517114 0.08526725 0.085375 0.08548218
 0.08559661 0.08575217 0.08597263 0.08623749 0.08648777 0.08666638 0.08676489 0.08684167 0.0869854 0.08724385
 0.08758214 0.0879126 0.08816773 0.08834885 0.08850867 0.0886889 0.08888553 0.08908312 0.08930112 0.0895747
 0.08989897 0.09022834 0.09053107 0.09081548 0.09110248 0.09139777 0.09169762 0.0920102 0.09236375 0.0927812
 0.09323178 0.09362321 0.09387416 0.09399816 0.09409991 0.09429371 0.09462576 0.09504173 0.0954112 0.09562326
 0.09569624 0.09576784 0.09594595 0.09619942 0.09643485 0.09664753 0.09693369 0.09735195 0.09782864 0.09822517
 0.0984742 0.09862837 0.09878634 0.0989881 0.09918658 0.09931859 0.09938836 0.09946045 0.09957911 0.09973751
 0.09993613 0.1002183 0.1006079 0.1010459 0.1014328 0.1017176 0.1019158 0.1020634 0.1021837 0.1022806
 0.1023416 0.1023629 0.1023798 0.1024414 0.1025439 0.1026271 0.1026562 0.1026722 0.1027416 0.1028885
 0.1031024 0.1033759 0.1036935 0.104007 0.1042748 0.1045276 0.1048408 0.1052177 0.1055494 0.1057304
 0.1057778 0.1057887 0.1058153 0.1058484 0.1059043 0.106046 0.1063047 0.1066371 0.1069818 0.1073201
 0.1076648 0.1080145 0.1083341 0.1085698 0.1086813 0.1086772 0.1086239 0.108615 0.1087217 0.1089578
 0.1092773 0.1096062 0.1098843 0.1100797 0.110172 0.1101541 0.1100733 0.1100383 0.1101366 0.1103374
 0.1105043 0.1105088 0.1103146 0.109953 0.1094567 0.1088454 0.1081618 0.1074908 0.1069253 0.1065187
 0.1062821 0.1062312 0.1064132 0.106857 0.107503 0.1082157 0.1088702 0.1093907 0.1097057 0.1097257
 0.1094093 0.1088217 0.1080968 0.1073556 0.106669 0.1060562 0.1054855 0.1049156 0.1043838 0.1040442
 0.1040924 0.104647 0.1056944 0.1071007 0.1086514 0.1101165 0.1113417 0.1123072 0.1130977 0.1138111
 0.1144973 0.1151716 0.1158468 0.1165234 0.1171637 0.1177189 0.1181858 0.1186077 0.11902 0.1194169
 0.1197697 0.1200561 0.1202776 0.1204676 0.1206608 0.1208389 0.1209331 0.1209052 0.120799 0.120687
 0.1205871 0.1204505 0.120212 0.1198418 0.1193815 0.1189604 0.1187687 0.1189779 0.1196501 0.1207035
 0.1219712 0.1233009 0.1245949 0.1257674 0.1267197 0.1273958 0.1278377 0.1281494 0.1284208 0.1286972
 0.1289949 0.1293113 0.1296273 0.1299221 0.1301915 0.130456 0.1307503 0.1310927 0.1314549 0.131779
 0.1320354 0.1322583 0.1325158 0.1328467 0.1332276 0.133599 0.1339277 0.1342368 0.1345577 0.1348693
 0.1351175 0.1352932 0.1354535 0.1356646 0.1359547 0.1363127 0.1366947 0.1370326 0.137278 0.1374471
 0.1376025 0.1377903 0.1380128 0.1382542 0.1385054 0.1387612 0.1390162 0.1392753 0.1395564 0.1398654
 0.1401689 0.140411 0.1405702 0.1406901 0.1408397 0.1410468 0.1412806 0.1414968 0.14169 0.1419014
 0.142175 0.1425058 0.1428328 0.1430882 0.1432543 0.1433705 0.1434913 0.1436469 0.1438375 0.1440515
 0.1442769 0.1445007 0.1447109 0.1449064 0.1451013 0.1453107 0.1455329 0.1457513 0.1459548 0.1461493
 0.1463473 0.1465538 0.1467692 0.1470037 0.147273 0.1475739 0.1478707 0.14812 0.1483049 0.1484413
 0.1485571 0.1486774 0.1488211 0.1489979 0.149204 0.149424 0.149641 0.1498448 0.1500354 0.1502196
 0.1504053 0.1505969 0.1507952 0.1510007 0.1512183 0.1514549 0.1517093 0.1519645 0.1521978 0.1524006
 0.1525835 0.1527632 0.1529493 0.1531407 0.153329 0.1535074 0.1536786 0.1538546 0.1540442 0.154245
 0.1544501 0.1546579 0.15487 0.1550828 0.1552855 0.1554717 0.1556476 0.1558268 0.1560175 0.1562186
 0.1564254 0.1566341 0.1568424 0.1570496 0.1572549 0.1574549 0.1576453 0.1578271 0.1580081 0.1581969
 0.1583967 0.1586015 0.1588017 0.158994 0.1591847 0.1593812 0.1595836 0.159788 0.159991 0.1601888
 0.1603786 0.1605662 0.1607632 0.160976 0.1612003 0.1614271 0.161649 0.1618628 0.1620692 0.1622711
 0.1624723 0.1626776 0.1628903 0.1631088 0.1633283 0.1635473 0.1637664 0.1639852 0.1642018 0.1644115
 0.164607 0.1647845 0.1649494 0.1651095 0.1652685 0.1654301 0.1656024 0.1657903 0.1659907 0.166196
 0.1663992 0.1665968 0.1667919 0.1669896 0.1671891 0.1673858 0.1675798 0.1677764 0.1679806 0.1681944
 0.168414 0.16863 0.1688364 0.1690385 0.1692436 0.1694522 0.1696614 0.1698686 0.1700706 0.1702687
 0.1704726 0.1706878 0.1709079 0.171124 0.1713325 0.1715311 0.1717212 0.1719136 0.1721191 0.1723381
 0.1725654 0.1727941 0.1730136 0.1732182 0.1734156 0.1736156 0.1738204 0.1740307 0.1742482 0.1744688
 0.1746867 0.1749024 0.175116 0.1753232 0.175527 0.1757363 0.1759529 0.1761739 0.1763983 0.1766204
 0.1768333 0.1770431 0.1772577 0.177457 0.1775843 0.1775195 0.1769849 0.1754307 0.1720136 0.1657681
 0.1560028 0.1427469 0.1268902 0.109859 0.09308817 0.07765493 0.06418702 0.05295506 0.04401148 0.03727645
 0.0325949 0.0298356 0.02899423 0.03029273 0.03428328 0.04152196 0.05135147 0.06082051 0.0658269 0.06435363
 0.05840068 0.05216485 0.04854758 0.04774645 0.04851238 0.04978569 0.05123677 0.0530623 0.05559319 0.05892381
 0.06289937 0.06751767 0.07312144 0.07996207 0.08767976 0.0954517 0.1026948 0.1095228 0.1164778 0.1238814
 0.1314978 0.1387662 0.1452494 0.1508579 0.1557705 0.160234 0.1644178 0.1683924 0.1721858 0.1757886
 0.1790729 0.1817575 0.1835453 0.1843499 0.1843965 0.1840952 0.1838046 0.1836941 0.183783 0.184045
 0.1844582 0.1850055 0.1856709 0.186433 0.1872563 0.1880997 0.188934 0.1897416 0.1905081 0.1912268
 0.1918993 0.192527 0.193107 0.1936374 0.194117 0.1945475 0.1949396 0.1953095 0.1956675 0.196016
 0.1963536 0.1966743 0.1969689 0.1972374 0.1974887 0.1977264 0.197946 0.198149 0.1983465 0.1985493
 0.198761 0.1989787 0.1991954 0.1994049 0.1996083 0.1998105 0.200014 0.2002177 0.2004199 0.2006182
 0.20081 0.2009949 0.2011741 0.2013514 0.201535 0.201733 0.2019426 0.2021505 0.2023456 0.2025273
 0.2027034 0.2028851 0.2030823 0.2032948 0.2035141 0.2037335 0.203953 0.2041746 0.2043999 0.2046293
 0.2048548 0.2050629 0.2052516 0.2054356 0.2056237 0.2058039 0.2059633 0.2061135 0.2062855 0.2064983
 0.2067383 0.2069731 0.2071828 0.2073736 0.2075605 0.2077498 0.207938 0.2081194 0.2082942 0.2084787
 0.2086967 0.2089505 0.2092138 0.2094641 0.2097019 0.2099347 0.2101667 0.2104034 0.2106383 0.2108386
 0.2109778 0.2110843 0.211237 0.2115008 0.2118652 0.212247 0.2125642 0.2128048 0.2130169 0.2132497
 0.213523 0.2138091 0.2140129 0.2140386 0.2139388 0.2139347 0.2142126 0.2147393 0.2153247 0.2158166
 0.2161864 0.2164786 0.2167329 0.2169461 0.2170755 0.2170889 0.2170388 0.2170787 0.2173547 0.2178527
 0.2183972 0.2188312 0.2191378 0.2193697 0.2195587 0.2197209 0.2198271 0.2197426 0.2193666 0.2189001
 0.218802 0.2193434 0.2202991 0.221188 0.2217507 0.2220801 0.2223513 0.2226045 0.2228008 0.2228616
 0.2225536 0.2216214 0.2202859 0.2193913 0.2197068 0.2211463 0.2229075 0.224272 0.2250599 0.2254552
 0.2256959 0.2259139 0.226032 0.2257724 0.2249655 0.2239517 0.2234912 0.2240617 0.2253274 0.2265045
 0.2271627 0.2274488 0.227667 0.2279359 0.2281124 0.2277457 0.2263274 0.2240486 0.2221856 0.2221992
 0.2242991 0.2271883 0.2293512 0.2303587 0.2307365 0.2308369 0.2303209 0.2287615 0.2262833 0.223505
 0.2213325 0.2208264 0.2225055 0.2254742 0.227928 0.2289314 0.229211 0.2299645 0.2314333 0.2329044
 0.2336324 0.2334183 0.2324911 0.2310985 0.2293838 0.2277598 0.227138 0.2282843 0.2308877 0.233668
 0.2355527 0.2364892 0.2368997 0.236441 0.2337404 0.2280505 0.221335 0.2177368 0.2199239 0.2262974
 0.232705 0.2365228 0.238105 0.2388446 0.2393023 0.2390392 0.2368775 0.2315567 0.2237205 0.2171521
 0.2162083 0.2215075 0.2292315 0.2346915 0.2355154 0.2318852 0.2256985 0.2200094 0.2177774 0.2200712
 0.2256047 0.2320052 0.2372337 0.2401462 0.2404831 0.2387547 0.236206 0.234515 0.2345749 0.2351673
 0.2338903 0.2301912 0.2262855 0.2239047 0.2216193 0.217485 0.2133175 0.2134923 0.2192558 0.2266327
 0.2308904 0.2313343 0.2304483 0.2293799 0.2259868 0.2179231 0.2070781 0.1996736 0.2008272 0.2092354
 0.2183319 0.2227222 0.2224761 0.2211975 0.2212133 0.2211967 0.2180294 0.2108692 0.2032201 0.1999948
 0.2022975 0.2064452 0.2083357 0.2067151 0.2017393 0.1936684 0.1852473 0.1825693 0.1899451 0.2046419
 0.2190192 0.2268226 0.2254833 0.2147657 0.197664 0.1822522 0.1777649 0.1863289 0.2003821 0.209628
 0.2092127 0.2006089 0.1872281 0.172084 0.1591887 0.1539925 0.1601297 0.1757296 0.1934187 0.2039656
 0.2013883 0.1876352 0.1730463 0.1689222 0.1772107 0.1891246 0.1949639 0.1929162 0.1877078 0.1845394
 0.1860853 0.1919762 0.1991917 0.2049116 0.2087621 0.2096211 0.2025995 0.1849181 0.1636662 0.1511221
 0.1520091 0.1610975 0.1730238 0.1870962 0.2008751 0.2068787 0.2010182 0.1903357 0.1869981 0.1953853
 0.2083518 0.2159673 0.2153367 0.2111325 0.2083902 0.2071577 0.2049688 0.2026134 0.2043594 0.2120517
 0.2218739 0.2286064 0.2310594 0.2315954 0.232132 0.2326847 0.2327164 0.2320206 0.230658 0.2290918
 0.2280414 0.2276796 0.22748 0.2270223 0.2259662 0.2228294 0.21532 0.203553 0.1920792 0.1862741
 0.1866421 0.1892004 0.1914002 0.1936082 0.1935814 0.1849143 0.1654989 0.1444683 0.1355473 0.1437859
 0.1617996 0.1781915 0.186284 0.1846831 0.1738727 0.1564317 0.1397525 0.1337079 0.1425874 0.1609795
 0.1795564 0.1931101 0.2011113 0.2032291 0.1983571 0.1878119 0.176607 0.1705717 0.1727987 0.1822943
 0.1943098 0.2015553 0.1977702 0.1839601 0.1711324 0.1721638 0.1882901 0.2070368 0.2162381 0.2163447
 0.2154633 0.2167501 0.2168606 0.2148205 0.2155648 0.2231847 0.2349236 0.2439018 0.2451612 0.23762
 0.2234286 0.2084635 0.2007952 0.2041791 0.213717 0.2211273 0.2227286 0.2189486 0.2094467 0.1951659
 0.1834978 0.1838347 0.1966937 0.2124994 0.2224652 0.2265939 0.2296774 0.2330413 0.2329317 0.226196
 0.2155493 0.2079051 0.2075447 0.2123761 0.2174862 0.2203287 0.2207557 0.2180724 0.2114668 0.2033568
 0.1994331 0.2037092 0.2143395 0.2253116 0.2317996 0.2331807 0.2316396 0.2293309 0.2269259 0.2237799
 0.2193695 0.2151574 0.2143078 0.2183091 0.2246107 0.2292494 0.2313862 0.2335794 0.2377552 0.2425495
 0.2449704 0.2436643 0.2401993 0.2376956 0.2383271 0.2416047 0.2447419 0.2450255 0.2423935 0.2397371
 0.2402401 0.2443389 0.2496511 0.253688 0.2558869 0.2571012 0.258137 0.2590441 0.2590749 0.2572499
 0.2537405 0.2506756 0.2506335 0.2540876 0.2589548 0.2627493 0.2645958 0.2650964 0.2649599 0.264263
 0.2628495 0.2609958 0.2594357 0.2587716 0.2590327 0.2598352 0.26079 0.2616716 0.2623695 0.2628572
 0.2631785 0.2633854 0.2635092 0.2635933 0.2636716 0.263703 0.2636182 0.2634697 0.2634422 0.2636524
 0.2639961 0.2642572 0.2643025 0.2640878 0.2635437 0.2625954 0.2612993 0.2598282 0.2582794 0.25661
 0.2548703 0.2534581 0.2530001 0.2538838 0.2558992 0.2583606 0.2605715 0.2621781 0.2631721 0.2637019
 0.2639319 0.2639993 0.2639925 0.2639378 0.2638179 0.2636115 0.2633145 0.26294 0.2625154 0.2620851
 0.261703 0.2614031 0.261166 0.260922 0.2606011 0.2601832 0.2596984 0.2591875 0.2586656 0.2581109
 0.2574781 0.2567244 0.2558403 0.2548687 0.2538949 0.2530015 0.2522113 0.2514755 0.2507232 0.2499113
 0.2490135 0.2479931 0.2468414 0.2456449 0.2445613 0.2436954 0.2430183 0.2424141 0.2417751 0.241039
 0.2401804 0.239211 0.2381735 0.237106 0.2360122 0.2348751 0.2336805 0.2324171 0.2310726 0.2296427
 0.2281352 0.2265616 0.2249369 0.2232798 0.2215893 0.2198124 0.2178402 0.215537 0.2127737 0.2094547
 0.2055456 0.2011037 0.1962892 0.1913291 0.1864432 0.1817899 0.1774735 0.173583 0.1702076 0.1674293
 0.1653119 0.1638934 0.1631845 0.1631816 0.1638767 0.1652433 0.1672151 0.1696813 0.1724956 0.1754863
 0.1784718 0.1812934 0.1838622 0.1861937 0.1883788 0.1904883 0.1925026 0.1943486 0.195985 0.1974202
 0.198665 0.1997093 0.200551 0.2012211 0.2017724 0.2022496 0.2026718 0.2030389 0.2033493 0.2036065
 0.2038168 0.203992 0.2041549 0.204331 0.2045378 0.2047811 0.2050593 0.2053745 0.2057449 0.2061924
 0.2067119 0.2072692 0.2078396 0.2084311 0.2090608 0.2097325 0.2104532 0.2112564 0.2121918 0.2132909
 0.2145421 0.2158933 0.2172728 0.2186044 0.2198124 0.2208275 0.221601 0.2221156 0.2223885 0.2224633
 0.2223883 0.2221934 0.2218925 0.2215026 0.2210461 0.2205382 0.2199843 0.2193882 0.2187516 0.2180732
 0.2173591 0.2166325 0.2159228 0.2152427 0.2145791 0.2139112 0.2132408 0.2125939 0.2119908 0.2114217
 0.2108606 0.2102937 0.2097255 0.2091633 0.2086036 0.2080256 0.207392 0.2066665 0.2058358 0.2049099
 0.2039005 0.2028053 0.2016177 0.2003415 0.1989896 0.1975693 0.1960761 0.1945025 0.1928502 0.1911253
 0.1893193 0.1874071 0.1853839 0.1833065 0.1812804 0.1793967 0.1776851 0.1761197 0.1746563 0.1732641
 0.1719343 0.1706671 0.1694552 0.1682924 0.1671859 0.1661447 0.1651607 0.1642168 0.1633131 0.162475
 0.1617312 0.1610882 0.1605255 0.1600212 0.1595765 0.159211 0.1589459 0.1587994 0.1587749 0.1588332
 0.1588975 0.1589036 0.1588369 0.1587189 0.1585825 0.1584584 0.1583637 0.1582976 0.1582494 0.1581923
 0.1580626 0.1577628 0.1571969 0.1563071 0.1550909 0.1535919 0.1518736 0.1500179 0.1481505 0.1464278
 0.1449704 0.1438233 0.1429724 0.1423607 0.1418964 0.1415001 0.1411617 0.1409439 0.140924 0.1411097
 0.141386 0.1415808 0.1416259 0.1416296 0.141771 0.1421564 0.1427732 0.1435185 0.1442621 0.1449198
 0.1454667 0.1458875 0.1461619 0.1462987 0.146327 0.146259 0.1461025 0.1458845 0.1456287 0.1453407
 0.1450195 0.144647 0.1441849 0.14362 0.1429758 0.1422612 0.1414592 0.1405568 0.139531 0.1383557
 0.1371032 0.135993 0.1352781 0.1351084 0.1354841 0.1362632 0.1372411 0.1382846 0.139316 0.1401451
 0.1405213 0.1405094 0.140679 0.1416979 0.1437015 0.1461445 0.1482889 0.1497442 0.1505058 0.1506546
 0.1502265 0.1492739 0.1478316 0.1458639 0.1433848 0.1405368 0.1374766 0.134335 0.1313088 0.1286064
 0.1263178 0.1244507 0.1230003 0.122004 0.1215914 0.1213941 0.1195123 0.1135035 0.104162 0.09719948
 0.09842568 0.1072015 0.1168946 0.1218813 0.1220127 0.1202923 0.1187982 0.1178499 0.1173409 0.1174052
 0.1181528 0.1194235 0.1208307 0.1219856 0.1227265 0.1230883 0.1230341 0.1222143 0.1198908 0.1151916
 0.1078165 0.09864466 0.0894262 0.08175291 0.07634749 0.07310848 0.07146133 0.07067387 0.07019638 0.06993964
 0.07020696 0.07130888 0.07327752 0.0759427 0.07912295 0.08258648 0.0859255 0.08871865 0.0908581 0.09254859
 0.09395643 0.09500907 0.09555867 0.09559342 0.09523374 0.09462115 0.09387013 0.0930581 0.09217949 0.09114468
 0.08993048 0.08873501 0.08786638 0.08744626 0.08732506 0.08729932 0.08729079 0.08729989 0.08731265 0.08729826
 0.08724412 0.0871954 0.08727243 0.08758369 0.08808957 0.08860311 0.08894692 0.08908936 0.08912697 0.08911821
 0.08893384 0.08838366 0.08755076 0.08680595 0.08632155 0.08576582 0.08473895 0.08339103 0.08233515 0.08198494
 0.08219163 0.08251426 0.08264014 0.0825157 0.08228111 0.08220351 0.08251662 0.08313977 0.08363648 0.08361962
</values></Ydata></ScRf><Data_Parameters_AB><parameter name="DPF">1</parameter><parameter name="NPT">3497</parameter><parameter name="FXV">3996</parameter><parameter name="LXV">500</parameter><parameter name="CSF">1</parameter><parameter name="MXY">0.103607326745987</parameter><parameter name="MNY">-0.0744253396987915</parameter><parameter name="DAT">31/05/2022</parameter><parameter name="TIM">14:31:21.724 (GMT+2)</parameter><parameter name="DXU">WN</parameter></Data_Parameters_AB><AB__Qtest><MainReport name="Quality Test Report"><Header><Line><Legend>Test result ok/not ok [1/0]: </Legend><Value>0</Value></Line><Line><Legend>Method file: </Legend><Value>C:\Users\Public\Documents\Bruker\OPUS_8.2.28\QT\IRBT_v3_default.QT</Value></Line></Header><Matrix><Line><Legend></Legend><Legend>min</Legend><Legend>max</Legend><Legend>measured</Legend></Line><Line><Value>Absorption (X-Range 1):</Value><Value>0.400000</Value><Value>2.000000</Value><Value>0.169767</Value></Line><Line><Value>Noise (X-Range 4):</Value><Value></Value><Value>0.000300</Value><Value>0.000046</Value></Line><Line><Value>Signal/Noise (X-Range 2):</Value><Value>200.000000</Value><Value></Value><Value>113.602842</Value></Line><Line><Value>Signal/Noise (X-Range 3):</Value><Value>40.000000</Value><Value></Value><Value>29.216558</Value></Line><Line><Value>Water vapour (X-Range 5):</Value><Value></Value><Value>0.000300</Value><Value>0.000049</Value></Line><Line><Value>Signal/Water (X-Range 2):</Value><Value>100.000000</Value><Value></Value><Value>108.114946</Value></Line><Line><Value>Signal/Water (X-Range 3):</Value><Value>20.000000</Value><Value></Value><Value>27.805172</Value></Line><Line><Value>Fringes (X-Range 6):</Value><Value></Value><Value>0.000100</Value><Value>0.000053</Value></Line></Matrix></MainReport></AB__Qtest><Data_Parameters_ScSm><parameter name="DPF">1</parameter><parameter name="NPT">1814</parameter><parameter name="FXV">3996.33169228125</parameter><parameter name="LXV">499.541461535156</parameter><parameter name="CSF">1</parameter><parameter name="MXY">0.276549816131592</parameter><parameter name="MNY">0.0344091132283211</parameter><parameter name="DAT">31/05/2022</parameter><parameter name="TIM">14:31:21.724 (GMT+2)</parameter><parameter name="DXU">WN</parameter></Data_Parameters_ScSm><Data_Parameters_ScRf><parameter name="DPF">1</parameter><parameter name="NPT">1820</parameter><parameter name="FXV">4004.04661832813</parameter><parameter name="LXV">495.683998511719</parameter><parameter name="CSF">1</parameter><parameter name="MXY">0.265096396207809</parameter><parameter name="MNY">0.028994232416153</parameter><parameter name="DAT">31/05/2022</parameter><parameter name="TIM">14:30:55.049 (GMT+2)</parameter><parameter name="DXU">WN</parameter></Data_Parameters_ScRf><Optic_Parameters_Rf><parameter name="APR">0</parameter><parameter name="APT">Open</parameter><parameter name="BMS">KBr</parameter><parameter name="DTC">RT-DLaTGS_IR-Biotyper [Microplate reader]</parameter><parameter name="HPF">0</parameter><parameter name="LPF">10.0</parameter><parameter name="LPV">4000</parameter><parameter name="PGR">0</parameter><parameter name="RCH">Module port</parameter><parameter name="RDX">0</parameter><parameter name="SRC">MIR</parameter><parameter name="VEL">10.0</parameter><parameter name="SON">Off</parameter></Optic_Parameters_Rf><Acquisition_Parameters_Rf><parameter name="ADT">1</parameter><parameter name="AQM">DD</parameter><parameter name="CFE">0</parameter><parameter name="COR">0</parameter><parameter name="DEL">0</parameter><parameter name="DLY">0</parameter><parameter name="HFW">8000</parameter><parameter name="LFW">0</parameter><parameter name="NSR">32</parameter><parameter name="PLF">AB</parameter><parameter name="RES">6</parameter><parameter name="RGN">-1</parameter><parameter name="STR">0</parameter><parameter name="TCL">MakeCompatibleScalar (0, {WSV=1.000000, ARV=0});</parameter><parameter name="TDL">37</parameter><parameter name="RPO">0</parameter></Acquisition_Parameters_Rf><FT_-_Parameters_Rf><parameter name="APF">B3</parameter><parameter name="HFQ">500</parameter><parameter name="LFQ">4000</parameter><parameter name="NLI">0</parameter><parameter name="PHR">24</parameter><parameter name="PHZ">ML</parameter><parameter name="SPZ">NO</parameter><parameter name="ZFF">1</parameter></FT_-_Parameters_Rf><Optic_Parameters_><parameter name="APR">0</parameter><parameter name="APT">Open</parameter><parameter name="BMS">KBr</parameter><parameter name="CHN">Module port</parameter><parameter name="DTC">RT-DLaTGS_IR-Biotyper [Microplate reader]</parameter><parameter name="HPF">0</parameter><parameter name="LPF">10.0</parameter><parameter name="LPV">4000</parameter><parameter name="PGN">0</parameter><parameter name="RDX">0</parameter><parameter name="SRC">MIR</parameter><parameter name="VEL">10.0</parameter><parameter name="SON">Off</parameter></Optic_Parameters_><FT_-_Parameters_><parameter name="APF">B3</parameter><parameter name="HFQ">500</parameter><parameter name="LFQ">4000</parameter><parameter name="NLI">0</parameter><parameter name="PHR">24</parameter><parameter name="PHZ">ML</parameter><parameter name="SPZ">NO</parameter><parameter name="ZFF">1</parameter></FT_-_Parameters_><Acquisition_Parameters_><parameter name="ADT">1</parameter><parameter name="AQM">DD</parameter><parameter name="CFE">0</parameter><parameter name="COR">0</parameter><parameter name="DEL">0</parameter><parameter name="DLY">0</parameter><parameter name="HFW">8000</parameter><parameter name="LFW">0</parameter><parameter name="NSS">32</parameter><parameter name="PLF">AB</parameter><parameter name="RES">6</parameter><parameter name="SOT">0</parameter><parameter name="TCL">MakeCompatibleScalar (0, {WSV=1.000000, ARV=0});</parameter><parameter name="TDL">37</parameter><parameter name="SPO">0</parameter><parameter name="SGN">-1</parameter></Acquisition_Parameters_><Instrument_Parameters_Rf><parameter name="HFL">15800.168544</parameter><parameter name="LFL">0</parameter><parameter name="LWN">15800.168544</parameter><parameter name="ABP">32197</parameter><parameter name="SSP">1</parameter><parameter name="ARG">2</parameter><parameter name="ASG">2</parameter><parameter name="ASS">32</parameter><parameter name="GFW">16</parameter><parameter name="GBW">16</parameter><parameter name="BFW">0</parameter><parameter name="BBW">0</parameter><parameter name="PKA">7261</parameter><parameter name="PKL">4996</parameter><parameter name="PRA">7451</parameter><parameter name="PRL">5001</parameter><parameter name="P2A">1</parameter><parameter name="P2L">1</parameter><parameter name="P2R">1</parameter><parameter name="P2K">1</parameter><parameter name="DAQ">0</parameter><parameter name="AG2">1</parameter><parameter name="SSM">1</parameter><parameter name="RSN">25805</parameter><parameter name="CRR">0</parameter><parameter name="SRT">1654007455.049</parameter><parameter name="DUR">19.6389923095703</parameter><parameter name="TSC">29.1</parameter><parameter name="MVD">1.12707817554474</parameter><parameter name="AN1">0.225789395386388</parameter><parameter name="AN2">0</parameter><parameter name="VSN">2.485 Apr  4 2017</parameter><parameter name="SRN">0085</parameter><parameter name="CAM">0</parameter><parameter name="INS">IR-Biotyper</parameter><parameter name="FOC">69</parameter><parameter name="RDY">1</parameter><parameter name="ARS">32</parameter></Instrument_Parameters_Rf><Sample_Parameters_><parameter name="BLD"></parameter><parameter name="CNM">Admin</parameter><parameter name="CPY"></parameter><parameter name="DPM"></parameter><parameter name="EXP">IRBT_v3_32Scans.XPM</parameter><parameter name="LCT"></parameter><parameter name="SFM">Microplate, HTS-XT</parameter><parameter name="SNM">220531-1301_AJC34M (D_2)_B11_63475dfb-ab55-4aca-9fc8-5562211ef955.0</parameter><parameter name="XPP">C:\Users\Public\Documents\Bruker\OPUS_8.2.28\XPM</parameter><parameter name="IST">OK</parameter><parameter name="CPG">1252</parameter><parameter name="UID">5f41988b-709e-495c-b18e-f80009960389</parameter></Sample_Parameters_><Instrument_Parameters_><parameter name="HFL">15800.168544</parameter><parameter name="LFL">0</parameter><parameter name="LWN">15800.168544</parameter><parameter name="ABP">32197</parameter><parameter name="SSP">1</parameter><parameter name="ASG">2</parameter><parameter name="ARG">2</parameter><parameter name="ASS">32</parameter><parameter name="GFW">16</parameter><parameter name="GBW">16</parameter><parameter name="BFW">0</parameter><parameter name="BBW">0</parameter><parameter name="PKA">7687</parameter><parameter name="PKL">4988</parameter><parameter name="PRA">7972</parameter><parameter name="PRL">4993</parameter><parameter name="P2A">1</parameter><parameter name="P2L">1</parameter><parameter name="P2R">1</parameter><parameter name="P2K">1</parameter><parameter name="DAQ">0</parameter><parameter name="AG2">1</parameter><parameter name="SSM">1</parameter><parameter name="RSN">13528</parameter><parameter name="CRR">0</parameter><parameter name="SRT">1654007481.725</parameter><parameter name="DUR">19.6379852294922</parameter><parameter name="TSC">29.1</parameter><parameter name="MVD">0.224803268909454</parameter><parameter name="AN1">0.225808364037189</parameter><parameter name="AN2">0</parameter><parameter name="VSN">2.485 Apr  4 2017</parameter><parameter name="SRN">0085</parameter><parameter name="CAM">0</parameter><parameter name="INS">IR-Biotyper</parameter><parameter name="FOC">69</parameter><parameter name="RDY">1</parameter></Instrument_Parameters_><History/></OPUSDataFile>
