<?xml version="1.0" encoding="UTF-8" ?>
<OPUSDataFile><AB><Ydata ylabel="Absorbance Units"><values byteorder="INTEL" format="FLOAT32" numvalues="3497"> -0.07015053 -0.07016066 -0.07015773 -0.07014148 -0.07011482 -0.07007793 -0.07004283 -0.07000992 -0.06998769 -0.06997494
 -0.06996891 -0.06996859 -0.06996806 -0.06996928 -0.0699736 -0.06998383 -0.07000677 -0.07003938 -0.07008296 -0.07012814
 -0.07016827 -0.07019656 -0.07020541 -0.07020036 -0.07017958 -0.07015848 -0.07014026 -0.07013702 -0.07015252 -0.07018252
 -0.07022805 -0.07026829 -0.07030214 -0.07031002 -0.07029264 -0.07025342 -0.07019637 -0.07014747 -0.07010864 -0.07010271
 -0.07012373 -0.07017099 -0.07023375 -0.07029368 -0.07034533 -0.07037248 -0.07038298 -0.07037475 -0.07036533 -0.0703644
 -0.07038045 -0.07042333 -0.07047524 -0.0705366 -0.0705753 -0.07058463 -0.07055603 -0.07048572 -0.07040444 -0.0703137
 -0.0702561 -0.07023188 -0.07025588 -0.07032266 -0.07040769 -0.07050526 -0.07057992 -0.07063446 -0.0706556 -0.07065403
 -0.07064115 -0.07062604 -0.07062589 -0.07063804 -0.07066944 -0.07070395 -0.07073577 -0.07074894 -0.07073312 -0.07069335
 -0.07062501 -0.07055686 -0.0704913 -0.07046123 -0.07047054 -0.07053526 -0.07065659 -0.07082406 -0.0710351 -0.07125311
 -0.07147303 -0.0716448 -0.07176738 -0.07180601 -0.07177249 -0.07167455 -0.07153116 -0.07137761 -0.07122514 -0.07110181
 -0.07100729 -0.07095336 -0.0709261 -0.07092426 -0.07092423 -0.07091551 -0.07088906 -0.07083645 -0.07077876 -0.07071683
 -0.0706787 -0.0706686 -0.07068639 -0.07073238 -0.0707797 -0.0708278 -0.07086255 -0.07088763 -0.07091945 -0.07096096
 -0.07103394 -0.07113361 -0.07126156 -0.07140651 -0.0715501 -0.07168463 -0.07179283 -0.07187489 -0.07192665 -0.07194591
 -0.07192958 -0.07187968 -0.07179014 -0.07169053 -0.0715825 -0.07151426 -0.07149457 -0.07155255 -0.07169572 -0.07189502
 -0.07214995 -0.07233398 -0.07244211 -0.07236502 -0.07212418 -0.07180497 -0.07142819 -0.07112149 -0.0708786 -0.07074841
 -0.07071521 -0.07077977 -0.07091364 -0.07108977 -0.07126904 -0.07140844 -0.07149258 -0.07149141 -0.07143977 -0.07134053
 -0.07123951 -0.07115247 -0.07108915 -0.07105509 -0.07103921 -0.07104047 -0.0710565 -0.07108706 -0.07113642 -0.0712041
 -0.07128403 -0.07137379 -0.07145463 -0.07152499 -0.07156812 -0.07158603 -0.07157528 -0.07153833 -0.07147718 -0.07139514
 -0.0712937 -0.07118507 -0.07107712 -0.07098702 -0.07092725 -0.07090546 -0.07093086 -0.0709906 -0.07108627 -0.0711892
 -0.07129512 -0.07138175 -0.07144552 -0.07148311 -0.07149407 -0.07148202 -0.07144707 -0.07139099 -0.07131409 -0.07121859
 -0.07110602 -0.07098198 -0.0708508 -0.07072479 -0.07061073 -0.07052717 -0.07047492 -0.07046682 -0.07048745 -0.07053168
 -0.0705755 -0.07060138 -0.0706032 -0.07056949 -0.07052248 -0.07046439 -0.07042128 -0.07039982 -0.07040266 -0.07043187
 -0.07047261 -0.07052406 -0.07057606 -0.07062864 -0.07068246 -0.07073734 -0.07079317 -0.07084776 -0.07089191 -0.07092488
 -0.07093854 -0.07093722 -0.0709246 -0.07090524 -0.07088652 -0.07087004 -0.07085793 -0.07085617 -0.07086595 -0.07090192
 -0.07097103 -0.07107913 -0.0712344 -0.0714103 -0.07160685 -0.0717779 -0.07191789 -0.07200333 -0.07203232 -0.07199579
 -0.07189377 -0.07172245 -0.07148796 -0.07122862 -0.0709547 -0.07072909 -0.07055299 -0.07046472 -0.07045209 -0.07051738
 -0.0706315 -0.07076094 -0.07088058 -0.07095052 -0.07098223 -0.0709677 -0.07093482 -0.0708947 -0.07085953 -0.07083824
 -0.07081706 -0.07079644 -0.07075251 -0.07068119 -0.07058351 -0.07045868 -0.07034002 -0.0702294 -0.07016201 -0.07013681
 -0.07016611 -0.07024203 -0.07034303 -0.07045516 -0.07052741 -0.0705599 -0.07052246 -0.07043928 -0.07033044 -0.07020985
 -0.07010131 -0.06999473 -0.06989115 -0.06977855 -0.06964874 -0.06950945 -0.0693586 -0.06921781 -0.06909129 -0.06898958
 -0.06891572 -0.06885929 -0.06882019 -0.06877131 -0.06871137 -0.06861518 -0.06848552 -0.0683295 -0.06815335 -0.06798729
 -0.06783294 -0.06770949 -0.06761654 -0.06756247 -0.06754524 -0.06757006 -0.0676212 -0.06769327 -0.06775266 -0.06777783
 -0.06774673 -0.0676401 -0.06747068 -0.0672372 -0.06695838 -0.06663761 -0.06628573 -0.06590356 -0.06550659 -0.06509574
 -0.0646876 -0.06428321 -0.06390008 -0.06354028 -0.06322851 -0.06296463 -0.06276496 -0.0626203 -0.06251573 -0.06243951
 -0.06236103 -0.06227938 -0.06218287 -0.06206821 -0.06193519 -0.06176022 -0.06152603 -0.06122743 -0.06084743 -0.06043335
 -0.05999493 -0.05956881 -0.05916639 -0.05878629 -0.05843003 -0.0580882 -0.05776003 -0.05744714 -0.05715001 -0.05688012
 -0.05663728 -0.05642884 -0.05624788 -0.0560742 -0.05589091 -0.05563814 -0.05531329 -0.05486967 -0.05434966 -0.05378758
 -0.05322294 -0.05271098 -0.05224732 -0.05184929 -0.0514896 -0.05116231 -0.05083984 -0.05051113 -0.05017005 -0.04981164
 -0.04945048 -0.04908882 -0.0487263 -0.04836379 -0.0479707 -0.04754588 -0.04706683 -0.04653809 -0.04598426 -0.04541123
 -0.04485933 -0.04432599 -0.04382456 -0.04335057 -0.04290103 -0.04247475 -0.04207131 -0.04168319 -0.04130578 -0.04092618
 -0.04053343 -0.0401256 -0.03969872 -0.03925614 -0.03880076 -0.03832107 -0.03781484 -0.03727536 -0.03669799 -0.0361187
 -0.03553905 -0.03500982 -0.03453208 -0.03411656 -0.03375891 -0.03343107 -0.03312733 -0.03280772 -0.03247082 -0.03208886
 -0.03167128 -0.03122073 -0.03075226 -0.03028939 -0.02983448 -0.02940379 -0.0289764 -0.02854586 -0.02808811 -0.02758556
 -0.02704802 -0.0264699 -0.02588796 -0.02530859 -0.02475638 -0.02423659 -0.02374733 -0.02328941 -0.02284092 -0.02240066
 -0.02194506 -0.02147456 -0.02098161 -0.02046843 -0.01994088 -0.0193999 -0.01885025 -0.01829376 -0.0177339 -0.01717797
 -0.01663698 -0.01611654 -0.0156286 -0.0151662 -0.01473023 -0.01430737 -0.01389047 -0.01347716 -0.01306333 -0.01265955
 -0.01226791 -0.01189266 -0.01153675 -0.01117945 -0.01082002 -0.01042528 -0.009994473 -0.009519796 -0.009005948 -0.00848816
 -0.007971506 -0.007500879 -0.007070114 -0.006688625 -0.006339201 -0.005992502 -0.005636781 -0.005238949 -0.004809107 -0.004339691
 -0.003859273 -0.003384321 -0.00293398 -0.002526551 -0.002146673 -0.001797795 -0.001442807 -0.001074205 -0.0006709054 -0.0002272802
 0.0002467603 0.0007515101 0.001261267 0.001774723 0.002268018 0.002740951 0.003180719 0.003589304 0.003967733 0.00432011
 0.004657825 0.004985924 0.005319833 0.005661956 0.006024402 0.006400235 0.006789721 0.007178249 0.007553859 0.007915922
 0.00825593 0.008598446 0.008949825 0.009325798 0.009735944 0.01015253 0.01057465 0.01096356 0.01131486 0.01163916
 0.01193817 0.01226522 0.01262062 0.01303325 0.01349317 0.01397065 0.01445434 0.0148922 0.01528736 0.01561699
 0.01589977 0.01615175 0.01638883 0.01663578 0.01688911 0.01715528 0.01742296 0.01768529 0.01794759 0.01820812
 0.01848253 0.0187757 0.01908547 0.0194139 0.01973979 0.02006156 0.02036672 0.02065521 0.02093569 0.02120984
 0.02149613 0.02179563 0.0221238 0.02247898 0.02286664 0.02327918 0.02370611 0.02413555 0.02454639 0.02493146
 0.02527473 0.02557857 0.02583885 0.02606282 0.02625173 0.0264152 0.0265543 0.02668585 0.02681183 0.02695419
 0.02711657 0.02730857 0.027532 0.02777331 0.02803175 0.02828901 0.02854628 0.02880692 0.02907351 0.02936311
 0.02967113 0.02999543 0.03032403 0.03062952 0.0309089 0.03114022 0.03134258 0.03152316 0.03170977 0.03192724
 0.03217919 0.03248162 0.03279844 0.03312477 0.03341661 0.03365983 0.03385254 0.0339886 0.03411243 0.03422722
 0.03436449 0.03452464 0.0346829 0.03483611 0.03494106 0.03500294 0.03502176 0.03501041 0.03500928 0.03502445
 0.03509023 0.03520051 0.03536253 0.0355645 0.03579864 0.0360518 0.03631198 0.03657391 0.03682763 0.03709036
 0.03736327 0.03767223 0.03802801 0.03841613 0.038842 0.03923415 0.03958775 0.03983769 0.03998213 0.04003447
 0.04000156 0.0399572 0.03990245 0.03988397 0.03989102 0.03991071 0.03994256 0.03997187 0.04002146 0.04012029
 0.04027997 0.04053571 0.04084968 0.04121455 0.04157056 0.04188116 0.04213442 0.04230816 0.04245571 0.04258212
 0.04274651 0.0429615 0.04322952 0.04355437 0.04387977 0.04420271 0.04445864 0.04464842 0.04475207 0.04478035
 0.04477352 0.04474672 0.04476942 0.04484691 0.04502954 0.04530057 0.04566401 0.04608276 0.04652341 0.04695054
 0.04732499 0.04764261 0.04788494 0.04808335 0.04824143 0.04839724 0.04855908 0.04875388 0.04898482 0.04928214
 0.04964797 0.05011778 0.0506928 0.05137202 0.05214785 0.05294692 0.05375446 0.05445435 0.05504284 0.05543781
 0.05566545 0.05573054 0.05568747 0.05561504 0.05556226 0.05561743 0.05577733 0.05608214 0.05646276 0.05690536
 0.05731868 0.05766876 0.05790246 0.05799576 0.05796171 0.05779368 0.05755582 0.05725168 0.05695284 0.05666273
 0.05641897 0.05622008 0.05606398 0.05594788 0.05585628 0.05578867 0.05573667 0.05569852 0.05567022 0.05564053
 0.05559663 0.05551355 0.05536396 0.0551206 0.05475111 0.05425631 0.05361749 0.05288466 0.05206242 0.05122728
 0.05039623 0.04962448 0.04892457 0.04830755 0.04777724 0.04730622 0.04689281 0.04648139 0.04606936 0.04560518
 0.04509573 0.04454621 0.04397377 0.04344129 0.04295034 0.04254525 0.04219397 0.0418696 0.0415377 0.04114188
 0.04069387 0.04017235 0.03963649 0.03910689 0.0386398 0.03826458 0.03798622 0.0378198 0.0377078 0.03764906
 0.03755452 0.03741615 0.03717382 0.03682477 0.03638185 0.03585086 0.03530008 0.03473482 0.03422048 0.033754
 0.03336133 0.03303328 0.03276379 0.03254155 0.03234873 0.03217209 0.03199282 0.03179728 0.03156919 0.03130323
 0.03098855 0.03064029 0.03025675 0.02987207 0.0294931 0.02914762 0.02884325 0.02857432 0.02834241 0.02811608
 0.02789379 0.02765292 0.02739443 0.02712231 0.02683904 0.02656073 0.02628726 0.02602737 0.02577796 0.02553714
 0.02530042 0.02506077 0.02481323 0.02454954 0.02426778 0.02396164 0.02363896 0.02329927 0.02296013 0.02262749
 0.02231338 0.02202434 0.02175064 0.0214934 0.0212291 0.02095535 0.0206611 0.02034578 0.02002023 0.0196854
 0.01935619 0.01903192 0.0187164 0.018408 0.01810304 0.01780085 0.01749829 0.0171948 0.01688842 0.01657815
 0.01626148 0.01594017 0.01561149 0.01528833 0.01497158 0.01469039 0.01445448 0.01428725 0.01420297 0.01417409
 0.01420575 0.01421241 0.01418756 0.0140538 0.01380698 0.01345016 0.01298968 0.01250339 0.01199912 0.01156359
 0.01119333 0.01092785 0.0107471 0.0106299 0.01054623 0.01043732 0.01028933 0.01005467 0.009761663 0.009409119
 0.009048946 0.008712375 0.008416092 0.008181538 0.00797175 0.007781615 0.007580752 0.007357784 0.007143972 0.006938859
 0.00680655 0.006750439 0.006790461 0.006921598 0.007087491 0.007277975 0.007403409 0.007463303 0.00740258 0.007239996
 0.006987138 0.006672767 0.006349967 0.006032166 0.00576057 0.005519904 0.005313485 0.005119069 0.00492135 0.004722789
 0.004518107 0.004325723 0.004151903 0.003993948 0.003854352 0.003711169 0.003561247 0.003407654 0.003250418 0.0031305
 0.003049242 0.003037455 0.003089125 0.003186033 0.003318242 0.003439688 0.00354799 0.003612683 0.003641115 0.00363154
 0.003591879 0.003533209 0.00345208 0.003353511 0.003219295 0.003041716 0.002805022 0.002496226 0.002131646 0.001705757
 0.001274117 0.0008423307 0.0004699522 0.0001650788 -5.831641E-05 -0.0001989489 -0.0003051015 -0.0003811892 -0.0005000859 -0.0006608023
 -0.0008988146 -0.00120064 -0.001538369 -0.001896952 -0.002223112 -0.002518623 -0.002758609 -0.002960972 -0.003136511 -0.003300317
 -0.003469611 -0.003646689 -0.003838792 -0.00403919 -0.004248985 -0.004453261 -0.004649521 -0.004821061 -0.004962187 -0.005082539
 -0.005179862 -0.005301997 -0.005451563 -0.005667455 -0.005947379 -0.006267974 -0.00662139 -0.006943991 -0.007238472 -0.007476139
 -0.007674968 -0.007865372 -0.008058142 -0.008291409 -0.008550255 -0.008835733 -0.009122118 -0.00938735 -0.009620597 -0.009808087
 -0.009954011 -0.01005789 -0.01012051 -0.0101428 -0.01012029 -0.01005092 -0.009942142 -0.009792659 -0.009633237 -0.009465425
 -0.009336568 -0.009248868 -0.009244191 -0.00932032 -0.009488083 -0.00973723 -0.01003849 -0.01037792 -0.01070698 -0.01101798
 -0.01127427 -0.01147991 -0.01162354 -0.01171721 -0.01176643 -0.01178231 -0.01177334 -0.01174267 -0.01169385 -0.01162498
 -0.01153532 -0.01142787 -0.01130265 -0.01116574 -0.01101902 -0.01085064 -0.01066027 -0.01040943 -0.01009637 -0.009685892
 -0.009182191 -0.008591903 -0.007925301 -0.007224913 -0.006496117 -0.005775638 -0.005058247 -0.004351911 -0.003649204 -0.002943052
 -0.002232224 -0.001513609 -0.0007866137 -5.248459E-05 0.0006980494 0.001467596 0.002265949 0.003099707 0.003955383 0.004836406
 0.005695855 0.006531067 0.007284128 0.007951348 0.008498964 0.008927263 0.009237294 0.009431587 0.009526093 0.009523184
 0.009436867 0.009275087 0.009058579 0.008808365 0.0085653 0.008356561 0.008231415 0.008203073 0.008302774 0.00851975
 0.008858742 0.00929883 0.00983279 0.01044699 0.01113624 0.01189506 0.01272225 0.01361236 0.01456549 0.01556948
 0.01662392 0.01769666 0.01878402 0.01982423 0.02081188 0.02167803 0.02242518 0.02302202 0.02348324 0.02383005
 0.02407468 0.02425506 0.0243574 0.02439158 0.02430765 0.0240773 0.02363094 0.02292166 0.02190482 0.02053929
 0.01886114 0.01685276 0.01465332 0.01227171 0.009899673 0.007557471 0.005388712 0.00340447 0.001633737 7.326736E-05
 -0.00133439 -0.002593928 -0.003765581 -0.004846198 -0.005853837 -0.00678623 -0.007642691 -0.008432338 -0.009169515 -0.009865655
 -0.01054383 -0.01120019 -0.01184233 -0.01245415 -0.01302752 -0.01355406 -0.01402692 -0.01444966 -0.01482276 -0.01514597
 -0.01542102 -0.01563509 -0.01578766 -0.01586078 -0.01585322 -0.01575395 -0.01556396 -0.01529724 -0.01496137 -0.0146125
 -0.01426292 -0.01399373 -0.01380643 -0.01375382 -0.01381226 -0.01397133 -0.01418941 -0.01441366 -0.01460718 -0.01471948
 -0.01473569 -0.01462945 -0.01441234 -0.01407846 -0.01365992 -0.01316116 -0.0126213 -0.01204607 -0.01147246 -0.01090254
 -0.01038758 -0.009929659 -0.009628856 -0.00949294 -0.00966626 -0.01015202 -0.01105505 -0.01234888 -0.01399944 -0.01594495
 -0.01801371 -0.02014547 -0.02214677 -0.02400649 -0.02562222 -0.02703814 -0.02825289 -0.0293247 -0.03028962 -0.03117917
 -0.03201729 -0.03280548 -0.03354966 -0.03424034 -0.03487624 -0.03545248 -0.03596726 -0.03643005 -0.03684101 -0.03722463
 -0.03758214 -0.03793636 -0.03828635 -0.03863665 -0.03898416 -0.03931852 -0.0396377 -0.03993051 -0.04019783 -0.04043495
 -0.0406466 -0.04083478 -0.04100981 -0.04118001 -0.04135679 -0.04155082 -0.04176274 -0.04199888 -0.04224201 -0.04249084
 -0.04272009 -0.0429241 -0.04309192 -0.0432196 -0.0433257 -0.04341079 -0.04350777 -0.0436174 -0.04375263 -0.04391009
 -0.04407018 -0.04423101 -0.04437101 -0.04449802 -0.04462053 -0.04475002 -0.04491486 -0.04511309 -0.04535885 -0.04563183
 -0.04592162 -0.04620364 -0.04645953 -0.04667639 -0.04684201 -0.04696224 -0.04703267 -0.04707937 -0.04710386 -0.04714352
 -0.04720302 -0.04730618 -0.04745553 -0.04764267 -0.04786626 -0.04809755 -0.0483352 -0.04855582 -0.04876037 -0.04894031
 -0.04909741 -0.04923131 -0.04934515 -0.0494433 -0.04953145 -0.04961899 -0.04970877 -0.04980914 -0.04991252 -0.05001891
 -0.05011336 -0.0501885 -0.05023883 -0.05025763 -0.05026219 -0.05025216 -0.05025907 -0.05028686 -0.05035463 -0.0504646
 -0.05060596 -0.05077733 -0.05094856 -0.0511187 -0.05126547 -0.05139184 -0.05149791 -0.0515883 -0.05167665 -0.05176364
 -0.05185859 -0.05195598 -0.05205277 -0.05214299 -0.05221789 -0.05228142 -0.05233046 -0.05238042 -0.05243668 -0.052512
 -0.05261314 -0.05273676 -0.05288488 -0.05304239 -0.05320801 -0.05336758 -0.05351993 -0.05365807 -0.05378195 -0.05389242
 -0.05399072 -0.05408651 -0.05418159 -0.05428974 -0.05440996 -0.05454832 -0.05469886 -0.05485405 -0.05500647 -0.05514209
 -0.05525987 -0.05535144 -0.05542608 -0.05548541 -0.05554356 -0.05560753 -0.05568413 -0.05577847 -0.05588432 -0.05600226
 -0.05612002 -0.05623601 -0.05634376 -0.05644251 -0.0565346 -0.05662015 -0.05670233 -0.05678037 -0.05684981 -0.05690918
 -0.05694841 -0.0569692 -0.05696881 -0.05695539 -0.0569421 -0.05693851 -0.0569648 -0.05702065 -0.05711645 -0.05723771
 -0.05737975 -0.05752574 -0.05766591 -0.05779558 -0.05790967 -0.05801647 -0.05811645 -0.05821881 -0.05832528 -0.05843609
 -0.0585516 -0.05866455 -0.05877463 -0.05887587 -0.05896875 -0.05905451 -0.0591344 -0.05921492 -0.05929647 -0.05938397
 -0.05947605 -0.05957256 -0.0596716 -0.05977026 -0.05986812 -0.05996362 -0.06005732 -0.06014981 -0.06023923 -0.06032562
 -0.0604046 -0.06047426 -0.06053467 -0.0605843 -0.06063213 -0.06067878 -0.06073439 -0.06080001 -0.0608758 -0.06096151
 -0.06104803 -0.06113495 -0.06121428 -0.06128689 -0.06135214 -0.0614118 -0.06147031 -0.06152949 -0.06159513 -0.06166771
 -0.06175101 -0.06184271 -0.06194277 -0.06204651 -0.06215134 -0.06225238 -0.06234697 -0.06243167 -0.06250449 -0.06256578
 -0.0626144 -0.06265707 -0.06269398 -0.06273563 -0.06278295 -0.06284031 -0.06290766 -0.06297913 -0.06305417 -0.06312492
 -0.06319211 -0.06325468 -0.06331453 -0.06337681 -0.06344254 -0.06351652 -0.06359793 -0.06368814 -0.0637846 -0.06388597
 -0.0639883 -0.06408887 -0.06418417 -0.06427164 -0.06435073 -0.06442018 -0.0644831 -0.06453972 -0.06459385 -0.06464618
 -0.06469747 -0.06474791 -0.06479553 -0.06484029 -0.06488141 -0.06491931 -0.06495747 -0.06499636 -0.06504039 -0.06508889
 -0.06514253 -0.06519947 -0.06525611 -0.06531172 -0.0653632 -0.06541203 -0.06545832 -0.06550416 -0.06555116 -0.06559999
 -0.06565144 -0.06570515 -0.06576128 -0.06581894 -0.06587823 -0.06593707 -0.06599535 -0.06605034 -0.06610174 -0.06614929
 -0.06619301 -0.06623586 -0.0662778 -0.0663205 -0.06636309 -0.06640233 -0.06643733 -0.06646292 -0.06648068 -0.06649023
 -0.06649634 -0.06650545 -0.06652159 -0.06655239 -0.0665954 -0.06665302 -0.06671618 -0.06678147 -0.0668416 -0.06689256
 -0.06693533 -0.06696894 -0.06699857 -0.06702492 -0.06705031 -0.06707497 -0.06709953 -0.06712406 -0.06715154 -0.06718218
 -0.06721969 -0.06726361 -0.06731392 -0.06736968 -0.06742797 -0.06748817 -0.06754778 -0.06760602 -0.06766086 -0.06771151
 -0.06775586 -0.06779544 -0.06782968 -0.06786355 -0.06789907 -0.06794047 -0.06799024 -0.06804728 -0.06811238 -0.06818035
 -0.06825066 -0.06831903 -0.0683851 -0.06844608 -0.06850179 -0.06854892 -0.06858741 -0.06861489 -0.06863242 -0.0686433
 -0.06864978 -0.06866071 -0.06867718 -0.06870653 -0.06874683 -0.06879905 -0.06885923 -0.06892373 -0.06898977 -0.06905378
 -0.06911635 -0.06917635 -0.06923701 -0.06929929 -0.06936482 -0.06943495 -0.06950525 -0.06957585 -0.06963794 -0.0696907
 -0.06972966 -0.0697548 -0.06977352 -0.06978693 -0.06980929 -0.06984041 -0.06988779 -0.06994823 -0.07001587 -0.07008716
 -0.07015086 -0.07020743 -0.07025198 -0.07028811 -0.07031788 -0.07034365 -0.07036808 -0.0703911 -0.07041309 -0.07043456
 -0.07045538 -0.07047772 -0.07050201 -0.07053006 -0.07056233 -0.07059853 -0.07063877 -0.07068015 -0.07072248 -0.07076073
 -0.0707949 -0.07082299 -0.07084599 -0.07086799 -0.07088969 -0.07091609 -0.07094578 -0.07097834 -0.07101194 -0.07104316
 -0.07107238 -0.07109859 -0.07112283 -0.07114591 -0.07116724 -0.07118676 -0.07120378 -0.0712176 -0.07122998 -0.07124089
 -0.07125337 -0.07126767 -0.07128747 -0.07131308 -0.07134734 -0.07139034 -0.07144073 -0.07149798 -0.07155581 -0.07161374
 -0.07166589 -0.07171266 -0.07175231 -0.07178541 -0.07181223 -0.07183345 -0.07184985 -0.07186289 -0.07187422 -0.07188547
 -0.07189829 -0.0719136 -0.07193208 -0.07195488 -0.07198256 -0.07201571 -0.07205513 -0.0720977 -0.07214351 -0.07218621
 -0.07222522 -0.07225683 -0.07228089 -0.07229987 -0.07231436 -0.07233158 -0.07235245 -0.07238566 -0.07243162 -0.07249641
 -0.07257951 -0.07268259 -0.07280511 -0.07294601 -0.07310765 -0.0732906 -0.07350142 -0.07374387 -0.07402632 -0.07435407
 -0.0747313 -0.07516202 -0.07564086 -0.07616813 -0.07673403 -0.0773369 -0.07797322 -0.07864296 -0.07933985 -0.08006304
 -0.08076507 -0.08143937 -0.08199572 -0.08243068 -0.08267643 -0.08273985 -0.08260863 -0.08228927 -0.08177976 -0.08111069
 -0.08031004 -0.07945343 -0.07863094 -0.07789692 -0.07732578 -0.0769196 -0.0767008 -0.07664966 -0.07676881 -0.07702037
 -0.0774072 -0.07783734 -0.07830437 -0.07868318 -0.07895891 -0.07910053 -0.07910658 -0.07904955 -0.07893244 -0.07881208
 -0.07868534 -0.07856333 -0.07844353 -0.07832318 -0.07820273 -0.0780823 -0.07796194 -0.07784329 -0.07772206 -0.07759552
 -0.07745617 -0.07729632 -0.07711553 -0.07690796 -0.07668919 -0.07646158 -0.07624523 -0.07604606 -0.07587194 -0.07572597
 -0.07560204 -0.07550022 -0.07540939 -0.07532895 -0.07524985 -0.07517205 -0.07509249 -0.07501163 -0.07493047 -0.0748495
 -0.07477059 -0.07469488 -0.07462538 -0.07456404 -0.07451592 -0.0744802 -0.07445943 -0.07444745 -0.07444128 -0.07443335
 -0.07441814 -0.07439437 -0.07435923 -0.07431838 -0.0742721 -0.07422803 -0.07418723 -0.07415566 -0.07413407 -0.07412448
 -0.074127 -0.07413931 -0.07416116 -0.07418878 -0.07422197 -0.07425773 -0.07429565 -0.07433275 -0.0743688 -0.07440139
 -0.0744317 -0.0744606 -0.07448902 -0.07451933 -0.07454897 -0.07457718 -0.07460035 -0.07461543 -0.07462405 -0.0746254
 -0.07462481 -0.07462376 -0.07462377 -0.07462574 -0.07462631 -0.07462522 -0.07462017 -0.07461102 -0.07460067 -0.07458959
 -0.07458433 -0.07458512 -0.0745972 -0.07461922 -0.07464984 -0.0746862 -0.07472105 -0.07475228 -0.07477285 -0.07478345
 -0.07478148 -0.07477032 -0.07475079 -0.07472873 -0.0747067 -0.07469137 -0.07468618 -0.0746928 -0.07471339 -0.07474151
 -0.07477684 -0.07481084 -0.07484242 -0.07486971 -0.07489258 -0.07491384 -0.07493346 -0.07495161 -0.0749679 -0.07497951
 -0.07498707 -0.07499098 -0.07499289 -0.07499723 -0.07500424 -0.07501709 -0.07503309 -0.07505067 -0.07506678 -0.07507785
 -0.07508437 -0.07508477 -0.07508351 -0.07508177 -0.07508329 -0.07508974 -0.07509997 -0.07511434 -0.07512899 -0.07514347
 -0.07515671 -0.07516862 -0.07518291 -0.07519972 -0.07522221 -0.07524966 -0.07527967 -0.07531073 -0.0753358 -0.0753547
 -0.07536265 -0.07536213 -0.07535453 -0.07534341 -0.07533339 -0.07532673 -0.07532708 -0.07533391 -0.07534835 -0.07536764
 -0.07539102 -0.07541625 -0.07544218 -0.0754703 -0.07550042 -0.07553615 -0.07557814 -0.07562508 -0.07567697 -0.07572436
 -0.07576667 -0.07579289 -0.0758037 -0.075797 -0.07577544 -0.07574715 -0.07571496 -0.0756901 -0.07567293 -0.07566981
 -0.07567799 -0.0756972 -0.07572348 -0.07575356 -0.075785 -0.07581529 -0.07584445 -0.0758718 -0.07589834 -0.07592441
 -0.07594977 -0.0759746 -0.0759974 -0.076018 -0.07603587 -0.07605099 -0.07606351 -0.07607336 -0.0760797 -0.07608241
 -0.07607982 -0.07607283 -0.07606336 -0.0760534 -0.07604901 -0.07605062 -0.07606257 -0.07608202 -0.0761076 -0.07613593
 -0.07616337 -0.07618948 -0.07621277 -0.07623465 -0.07625548 -0.07627588 -0.07629622 -0.07631604 -0.07633541 -0.0763533
 -0.07636964 -0.07638296 -0.07639316 -0.07639988 -0.07640328 -0.07640581 -0.07640789 -0.07641333 -0.07642224 -0.07643737
 -0.0764577 -0.07648274 -0.07650995 -0.07653513 -0.07655559 -0.07656559 -0.07656653 -0.07655612 -0.07654118 -0.07652449
 -0.07651249 -0.07650912 -0.07651411 -0.07652873 -0.0765483 -0.07657214 -0.07659747 -0.0766238 -0.07665144 -0.07668039
 -0.07671086 -0.07674269 -0.07677386 -0.07680393 -0.07682897 -0.07684878 -0.07685989 -0.0768636 -0.07686071 -0.07685436
 -0.07685044 -0.07685078 -0.07686105 -0.07687839 -0.07690319 -0.07692987 -0.07695501 -0.07697619 -0.07699099 -0.07700193
 -0.0770091 -0.07701532 -0.07702126 -0.07702751 -0.07703419 -0.07704132 -0.07704891 -0.07705639 -0.07706363 -0.07706879
 -0.07707196 -0.07707252 -0.07707162 -0.07707337 -0.07707886 -0.07709388 -0.07711661 -0.07714751 -0.07718183 -0.07721399
 -0.07724049 -0.07725528 -0.07726097 -0.07725583 -0.07724848 -0.07724162 -0.07724275 -0.07725544 -0.07727819 -0.07731234
 -0.07734787 -0.07738398 -0.07741163 -0.07743011 -0.07743893 -0.07743843 -0.07743496 -0.07742909 -0.0774278 -0.07743095
 -0.07744174 -0.07745931 -0.07748315 -0.07751238 -0.07754527 -0.07758099 -0.07761828 -0.07765523 -0.07769033 -0.07772066
 -0.07774366 -0.07775917 -0.07776573 -0.0777674 -0.07776491 -0.07776197 -0.07775969 -0.07775761 -0.07775581 -0.07775327
 -0.07774991 -0.07774724 -0.07774529 -0.07774479 -0.07774549 -0.07774584 -0.07774583 -0.0777444 -0.07774214 -0.07774019
 -0.07773879 -0.07773905 -0.07774067 -0.07774363 -0.077748 -0.07775375 -0.07776129 -0.07777097 -0.07778272 -0.07779709
 -0.07781187 -0.0778272 -0.07783827 -0.07784428 -0.07784164 -0.07782935 -0.07781113 -0.07778702 -0.07776608 -0.07774854
 -0.0777394 -0.07773782 -0.07774054 -0.07774624 -0.07774758 -0.07774465 -0.07773324 -0.07771578 -0.07769421 -0.07767193
 -0.07765438 -0.07764272 -0.07764066 -0.07764547 -0.07765707 -0.07767121 -0.07768623 -0.07769912 -0.07770862 -0.07771377
 -0.07771398 -0.07771058 -0.07770351 -0.07769564 -0.0776872 -0.07767798 -0.07766777 -0.07765205 -0.0776308 -0.0776014
 -0.07756509 -0.07752542 -0.07748402 -0.07744723 -0.0774155 -0.07739296 -0.07737836 -0.07737266 -0.07737193 -0.07737382
 -0.07737289 -0.07736457 -0.07734808 -0.07732045 -0.07728902 -0.07725476 -0.07722595 -0.07720479 -0.07719275 -0.07719073
 -0.0771936 -0.07720117 -0.07720565 -0.07720675 -0.07719845 -0.07718135 -0.0771562 -0.07712488 -0.07709547 -0.07706919
 -0.07705417 -0.07704876 -0.07705479 -0.07706751 -0.07708213 -0.07709333 -0.07709401 -0.07708353 -0.07705789 -0.07702361
 -0.07698191 -0.07694034 -0.07690217 -0.07686719 -0.07683656 -0.07680404 -0.07676899 -0.07672732 -0.07667856 -0.07662508
 -0.07656714 -0.07651068 -0.07645603 -0.07640909 -0.07636924 -0.07633758 -0.07631247 -0.07628983 -0.0762691 -0.07624684
 -0.07622444 -0.07620293 -0.07618148 -0.07616082 -0.07613643 -0.07610492 -0.07606616 -0.07601753 -0.07596722 -0.07591707
 -0.07587324 -0.07583832 -0.07580796 -0.07578239 -0.07575268 -0.0757181 -0.07567631 -0.07562757 -0.07557861 -0.07553022
 -0.07549187 -0.07546307 -0.07544787 -0.0754432 -0.07544363 -0.07544423 -0.07543276 -0.07540719 -0.0753579 -0.07529045
 -0.07520543 -0.07511161 -0.07501497 -0.07491992 -0.07483032 -0.07474547 -0.07466576 -0.07459062 -0.0745195 -0.0744555
 -0.07439891 -0.07435253 -0.07431671 -0.07428924 -0.07426992 -0.07425436 -0.07424216 -0.07422866 -0.0742125 -0.07418519
 -0.07414569 -0.07408488 -0.07400687 -0.07391402 -0.07381338 -0.07371602 -0.0736243 -0.07354442 -0.07347608 -0.07342043
 -0.07337809 -0.07335058 -0.0733341 -0.07333001 -0.07332417 -0.07331509 -0.07328547 -0.07323241 -0.07315083 -0.0730397
 -0.07291037 -0.07276364 -0.07261725 -0.07247162 -0.07233866 -0.07221697 -0.07210688 -0.07200652 -0.07191029 -0.0718184
 -0.07172865 -0.0716418 -0.07155916 -0.07147801 -0.07139674 -0.07131178 -0.0712195 -0.07112101 -0.07101537 -0.07090625
 -0.07079464 -0.0706827 -0.07057093 -0.07046104 -0.07035317 -0.07024996 -0.07015166 -0.0700594 -0.06997303 -0.06988942
 -0.06980717 -0.06971388 -0.06960712 -0.06946705 -0.06929677 -0.06909226 -0.06886408 -0.06863209 -0.06840114 -0.06818882
 -0.06798801 -0.06779889 -0.06761226 -0.06742039 -0.06722377 -0.0670189 -0.06681539 -0.06661558 -0.0664262 -0.06625107
 -0.06608056 -0.06591652 -0.06572405 -0.06550092 -0.06521337 -0.06486116 -0.06445893 -0.06400993 -0.06355111 -0.06307914
 -0.06259952 -0.06210371 -0.06156879 -0.06099123 -0.06035068 -0.05965397 -0.05889904 -0.05810168 -0.05727467 -0.05643409
 -0.05559584 -0.05476279 -0.05394191 -0.05312403 -0.0523032 -0.05149432 -0.05069293 -0.04995458 -0.0492859 -0.04872543
 -0.0482779 -0.04793267 -0.04768883 -0.04752043 -0.04742604 -0.04738446 -0.04739254 -0.04742657 -0.04747993 -0.04752313
 -0.0475465 -0.04751631 -0.04742848 -0.04725822 -0.04702044 -0.04671872 -0.04637257 -0.04599805 -0.04559989 -0.0451849
 -0.04475019 -0.04429571 -0.04382154 -0.04333036 -0.04280678 -0.04225443 -0.04160815 -0.04086356 -0.03995789 -0.03889148
 -0.03773643 -0.03650182 -0.03530835 -0.03414403 -0.03301629 -0.0319049 -0.03075148 -0.02954882 -0.02825538 -0.02686985
 -0.02538141 -0.02376689 -0.02201302 -0.02006109 -0.01786386 -0.01539707 -0.0126009 -0.00962167 -0.006466048 -0.003380897
 -0.0004271622 0.002289993 0.004739171 0.006966113 0.0089692 0.01084821 0.01260975 0.01439793 0.01622417 0.01826969
 0.02051389 0.02298196 0.02558845 0.0280645 0.03040005 0.03241681 0.03421416 0.03586394 0.03743558 0.03903413
 0.04066299 0.04235644 0.04410001 0.04589201 0.04773223 0.0496279 0.05154123 0.05347031 0.05535457 0.05718081
 0.05895841 0.06068672 0.06239089 0.06406986 0.06564838 0.06711865 0.06837106 0.06941203 0.07021604 0.0707944
 0.07116899 0.07134499 0.07133322 0.07116207 0.07087012 0.07049794 0.07010262 0.06969983 0.06931472 0.06895995
 0.06864887 0.06838126 0.06816582 0.06796955 0.06778862 0.06758722 0.06735791 0.06709731 0.0668032 0.06650762
 0.06621161 0.06592422 0.06563931 0.06530169 0.06490187 0.06436612 0.06368565 0.06279313 0.06168889 0.06032839
 0.05875007 0.05698062 0.05508206 0.05313385 0.05115308 0.04917957 0.04719908 0.04519632 0.04323022 0.04129877
 0.03953461 0.03797282 0.0366599 0.03561638 0.03477045 0.03411853 0.03359079 0.03318446 0.03288854 0.03270454
 0.03264526 0.03270839 0.03288911 0.03318269 0.03357133 0.03405296 0.03461541 0.03525662 0.03597007 0.03675002
 0.03758933 0.03848096 0.03941803 0.04039578 0.04141017 0.0424592 0.043541 0.04465707 0.04580775 0.04699286
 0.04821403 0.04945616 0.0507185 0.0519814 0.05324434 0.05451955 0.05580936 0.05714994 0.05853107 0.05992535
 0.06130757 0.06257277 0.06372736 0.06472551 0.06560507 0.06641036 0.06714926 0.06785584 0.06849898 0.06906533
 0.06953531 0.06989309 0.07014021 0.07027523 0.07029478 0.07019367 0.06999476 0.06969566 0.06936251 0.06900353
 0.06861237 0.06818806 0.06765951 0.06702441 0.06623361 0.06528986 0.06418196 0.06291342 0.06149644 0.05991702
 0.05816169 0.05618873 0.05390523 0.05135338 0.04847782 0.04552948 0.04269079 0.0400715 0.03782777 0.03577249
 0.03387283 0.03198685 0.03005974 0.0281147 0.02614353 0.02421897 0.02234958 0.02053204 0.01876588 0.01699502
 0.01521969 0.01342105 0.01160835 0.009822479 0.008068954 0.006392123 0.004780635 0.003233496 0.00173273 0.0002497985
 -0.001225237 -0.002710072 -0.004219513 -0.005758095 -0.007375101 -0.009095456 -0.01095714 -0.01301806 -0.01510819 -0.01722232
 -0.01907936 -0.02061121 -0.02186724 -0.02283701 -0.02373851 -0.02458197 -0.02547219 -0.02640298 -0.02733724 -0.02826574
 -0.02911417 -0.02989298 -0.03060027 -0.03124536 -0.03185768 -0.03241657 -0.03290603 -0.03329876 -0.03355014 -0.03367329
 -0.03365767 -0.03354036 -0.03334022 -0.03307195 -0.03274986 -0.03235558 -0.03189392 -0.03131124 -0.03060635 -0.02968664
 -0.02854227 -0.02712317 -0.02542792 -0.02361526 -0.02170261 -0.01995185 -0.01835664 -0.0170176 -0.01591149 -0.01501203
 -0.01430604 -0.01375601 -0.01334577 -0.01304179 -0.012812 -0.01261447 -0.0124122 -0.0121577 -0.0118548 -0.01147885
 -0.01109809 -0.01073294 -0.01042453 -0.0101931 -0.01001802 -0.009900576 -0.009807437 -0.009735627 -0.009663027 -0.009588403
 -0.009506558 -0.009418037 -0.009328692 -0.009237882 -0.009146579 -0.009050195 -0.008935022 -0.008794012 -0.008603716 -0.008361731
 -0.008053865 -0.007680806 -0.007241917 -0.006726285 -0.006127708 -0.005430886 -0.004621993 -0.003708972 -0.002687167 -0.001586281
 -0.0004149657 0.0008197867 0.002111372 0.003496062 0.004977245 0.006576918 0.008296077 0.0100575 0.01185287 0.01355304
 0.01515989 0.01661798 0.01793728 0.01912821 0.02018623 0.02111141 0.0218828 0.02246845 0.02284888 0.02298794
 0.02288306 0.02251751 0.02190549 0.02104746 0.01996554 0.01866415 0.01717334 0.01549256 0.01368921 0.01176538
 0.009835934 0.007911743 0.006075147 0.004331029 0.002666669 0.00107839 -0.0004875411 -0.002028743 -0.00356089 -0.00507272
 -0.006530818 -0.007931451 -0.009244951 -0.01048391 -0.01165354 -0.01277118 -0.0138588 -0.01492609 -0.01599026 -0.01704569
 -0.01809824 -0.01912452 -0.02011934 -0.02105658 -0.02192672 -0.02272647 -0.02345116 -0.02412463 -0.02474828 -0.02534755
 -0.02592394 -0.02647605 -0.02700196 -0.02747456 -0.0278932 -0.02823866 -0.02851567 -0.02873084 -0.02888901 -0.02900533
 -0.02908084 -0.02912313 -0.02913388 -0.02911592 -0.0290761 -0.02901832 -0.02895509 -0.02889251 -0.02884465 -0.02881797
 -0.02882072 -0.0288573 -0.02892464 -0.02902383 -0.02914373 -0.02928356 -0.02943251 -0.02958993 -0.02975374 -0.02992412
 -0.0301044 -0.03029312 -0.0304849 -0.03067431 -0.03083948 -0.03097498 -0.03105492 -0.03108213 -0.03104711 -0.03096169
 -0.03083509 -0.0306787 -0.03050476 -0.03031885 -0.03012633 -0.02993239 -0.02973844 -0.02955456 -0.02938247 -0.02923451
 -0.02911284 -0.02902601 -0.02897542 -0.02896181 -0.02898534 -0.02903888 -0.02912169 -0.02922186 -0.02933873 -0.02946217
 -0.0295924 -0.02972475 -0.02986006 -0.02999866 -0.03013981 -0.03028355 -0.03042598 -0.03056296 -0.03069049 -0.03080288
 -0.03090182 -0.03098572 -0.03106043 -0.03112851 -0.03119086 -0.03124943 -0.03129692 -0.03133253 -0.03134955 -0.03134676
 -0.03132618 -0.0312878 -0.03124096 -0.03118617 -0.0311325 -0.03107984 -0.03103231 -0.0309888 -0.03094765 -0.03090733
 -0.03086366 -0.03081471 -0.03075585 -0.03068456 -0.03059604 -0.03048894 -0.0303599 -0.03021094 -0.0300419 -0.02985612
 -0.02965508 -0.02943987 -0.02921092 -0.02896908 -0.02871377 -0.0284512 -0.02818145 -0.02791538 -0.02765362 -0.02740634
 -0.02717385 -0.02696235 -0.02677142 -0.02660231 -0.02645331 -0.02631906 -0.02619735 -0.02607922 -0.02596537 -0.0258512
 -0.02574308 -0.02564562 -0.02556739 -0.02551753 -0.02549921 -0.02551793 -0.02556962 -0.02565407 -0.02576712 -0.02590741
 -0.02607379 -0.02626643 -0.02648069 -0.02671666 -0.02696352 -0.02722065 -0.02747913 -0.02773893 -0.02799848 -0.02825805
 -0.02851844 -0.02877966 -0.02904183 -0.02930538 -0.02957159 -0.0298404 -0.03011324 -0.03038708 -0.03065946 -0.03092612
 -0.03118249 -0.03142677 -0.03165661 -0.03187186 -0.03207263 -0.03225618 -0.03242267 -0.03256555 -0.03268394 -0.0327716
 -0.03282742 -0.03285201 -0.03284521 -0.03281686 -0.03276762 -0.03270937 -0.03264196 -0.0325706 -0.03249396 -0.03241014
 -0.03231711 -0.03220948 -0.03208423 -0.03193385 -0.03175598 -0.03154412 -0.03129947 -0.03102073 -0.03070995 -0.03036926
 -0.0299953 -0.02958786 -0.02914145 -0.02865369 -0.02812578 -0.02755666 -0.02695445 -0.02631944 -0.0256629 -0.02498544
 -0.024301 -0.02361032 -0.0229268 -0.02225041 -0.02158747 -0.02093771 -0.02030289 -0.019684 -0.01908502 -0.01850566
 -0.01794883 -0.01740942 -0.01688292 -0.01636338 -0.01584292 -0.01532249 -0.01479846 -0.01428027 -0.01377004 -0.01327835
 -0.01280942 -0.01236476 -0.01194678 -0.01154413 -0.01115627 -0.01076897 -0.0103812 -0.009987914 -0.009589084 -0.009185188
 -0.00877574 -0.008357276 -0.00792939 -0.007488121 -0.007034463 -0.006569682 -0.006093155 -0.005605161 -0.005102699 -0.004580946
 -0.004041439 -0.003481905 -0.002910652 -0.002331873 -0.001751713 -0.001174889 -0.0005989561 -2.441347E-05 0.0005531435 0.00113552
 0.001718111 0.002301669 0.002869372 0.003420216 0.003938926 0.00442588 0.004888334 0.005329436 0.005776347 0.006229077
 0.006704273 0.007195112 0.007692013 0.008189141 0.008669875 0.009136004 0.009582194 0.01001423 0.01043464 0.0108503
 0.01126542 0.01168657 0.01211836 0.01256024 0.01301402 0.0134722 0.01393347 0.01439419 0.01485368 0.01531204
 0.01576938 0.01621996 0.01666343 0.01709217 0.01750648 0.01790545 0.01828879 0.01865613 0.0190041 0.01932452
 0.01961218 0.01985443 0.02004625 0.02017594 0.02024165 0.02023598 0.02016493 0.02002831 0.01983768 0.01959739
 0.01931651 0.01899716 0.0186505 0.01827683 0.01789805 0.01751619 0.01715258 0.01680902 0.01648982 0.01619481
 0.01591829 0.0156599 0.0154152 0.0151828 0.01495514 0.01472975 0.01449484 0.01425195 0.01399725 0.01373632
 0.0134753 0.01321687 0.01296676 0.01272186 0.0124832 0.01224312 0.01199989 0.01174292 0.01146846 0.01117195
 0.01085051 0.01051246 0.01015811 0.009797982 0.009432968 0.009064199 0.008691699 0.008315023 0.00793454 0.007553653
 0.007171618 0.006786973 0.006398897 0.006002609 0.005602065 0.005202375 0.004807195 0.004426113 0.004052738 0.003686174
 0.003315669 0.002932641 0.002536387 0.00212336 0.001700145 0.001268993 0.0008296033 0.0003836758 -7.956022E-05 -0.0005609532
 -0.001071364 -0.001611894 -0.002180356 -0.002775986 -0.003380665 -0.00399322 -0.004595206 -0.00518849 -0.005771114 -0.006346012
 -0.006921744 -0.007496536 -0.008072191 -0.008643183 -0.009203226 -0.009747491 -0.01026947 -0.01076634 -0.01123316 -0.01167376
 -0.01208593 -0.01248454 -0.0128725 -0.01326536 -0.01366786 -0.01408043 -0.01450441 -0.01493044 -0.01535786 -0.01578319
 -0.01620643 -0.01663018 -0.01705435 -0.01747953 -0.01790506 -0.01832857 -0.01874903 -0.01916243 -0.01956795 -0.01996113
 -0.02034437 -0.02071823 -0.02108744 -0.02145806 -0.02182839 -0.02220152 -0.02256635 -0.02291924 -0.02325032 -0.02355495
 -0.02383269 -0.0240818 -0.02430942 -0.0245157 -0.02471137 -0.02489721 -0.02508109 -0.02526299 -0.02543909 -0.0256084
 -0.02576021 -0.02589534 -0.02601115 -0.02611044 -0.02620061 -0.02628185 -0.02635911 -0.02642853 -0.02648705 -0.02653105
 -0.02655502 -0.02656032 -0.02654454 -0.02651556 -0.02647509 -0.0264337 -0.02639542 -0.02636413 -0.0263423 -0.02632425
 -0.02630998 -0.02629062 -0.02626554 -0.02622764 -0.02617662 -0.02610772 -0.02602149 -0.02591987 -0.02580469 -0.0256853
 -0.02556272 -0.02544478 -0.02533137 -0.02522504 -0.02512792 -0.02504386 -0.02497482 -0.02492645 -0.0248917 -0.02487041
 -0.024847 -0.02481509 -0.02476204 -0.02468201 -0.02457186 -0.02442916 -0.02425903 -0.02406116 -0.02384649 -0.02361572
 -0.02337946 -0.023138 -0.02289294 -0.02264363 -0.02238497 -0.0221171 -0.02183725 -0.02154773 -0.02125266 -0.02095682
 -0.02067078 -0.02039984 -0.02015727 -0.01994107 -0.01975746 -0.01959226 -0.01943927 -0.01928344 -0.01911444 -0.01893202
 -0.01873197 -0.01852678 -0.01831772 -0.0181179 -0.01792912 -0.01775998 -0.01761141 -0.01748568 -0.01738265 -0.01729508
 -0.01722207 -0.01715206 -0.01708545 -0.01701797 -0.01695066 -0.01688571 -0.01682066 -0.01675314 -0.01667669 -0.01658071
 -0.01646255 -0.01631283 -0.01614092 -0.01594771 -0.01575007 -0.01555687 -0.0153751 -0.01521163 -0.0150545 -0.01490342
 -0.01474146 -0.01456528 -0.0143743 -0.01416759 -0.01396163 -0.01375724 -0.01357048 -0.013401 -0.0132524 -0.01312301
 -0.01300737 -0.01290336 -0.01280275 -0.01270219 -0.01259137 -0.01246717 -0.01231908 -0.01215098 -0.01195992 -0.01175956
 -0.01155727 -0.01136597 -0.01119493 -0.01104489 -0.01091896 -0.01081072 -0.01071932 -0.01064015 -0.01057292 -0.01051094
 -0.01045396 -0.01039011 -0.01031884 -0.01023207 -0.01012999 -0.01001146 -0.009876409 -0.009723071 -0.009552407 -0.00936427
 -0.00916455 -0.00896424 -0.008770586 -0.00860036 -0.008452367 -0.008334778 -0.008234117 -0.008146164 -0.008051792 -0.007940683
 -0.007802418 -0.007628896 -0.007428825 -0.007201136 -0.006964103 -0.006720776 -0.00647662 -0.006232778 -0.005980731 -0.005720268
 -0.005450896 -0.005174075 -0.004904006 -0.004641603 -0.004399676 -0.004176057 -0.003971904 -0.003782164 -0.003598038 -0.003412986
 -0.003213147 -0.002996759 -0.002754261 -0.002494964 -0.002221025 -0.001944896 -0.001673896 -0.001411939 -0.00116171 -0.0009244911
 -0.0007001781 -0.0004945803 -0.0003089227 -0.0001433387 1.513614E-06 0.0001376233 0.0002656641 0.0004000517 0.0005412416 0.0006990786
 0.0008735288 0.001070521 0.001288168 0.001524822 0.001776232 0.002033241 0.002291473 0.00254134 0.002778501 0.002994203
 0.003189177 0.003356814 0.003514734 0.003666753 0.003837981 0.004041019 0.004273933 0.004542771 0.004815077 0.005087213
 0.005334768 0.005554631 0.00574787 0.005914613 0.006064686 0.006199452 0.00633455 0.00647346 0.006643101 0.006843995
 0.007094103 0.007386906 0.007717093 0.008079141 0.008462211 0.008864499 0.00928265 0.00970859 0.01013849 0.01055705
 0.01095664 0.01132491 0.01165507 0.01194591 0.01219387 0.01241308 0.01260401 0.01278727 0.0129651 0.01314204
 0.01331821 0.01348487 0.01364302 0.0137998 0.01395786 0.01413716 0.01433421 0.01454938 0.0147756 0.01499538
 0.01521034 0.01541503 0.01561348 0.01581141 0.01600056 0.0161781 0.01633297 0.01645743 0.0165515 0.01661363
 0.01664519 0.0166464 0.01661696 0.01655553 0.01647382 0.01637226 0.01626774 0.0161611 0.01606098 0.01596849
 0.01589792 0.01585105 0.01584786 0.01588342 0.01595328 0.01604961 0.01614989 0.01625794 0.01636923 0.01649062
 0.01663052 0.01678463 0.0169518 0.01713023 0.01731939 0.01751636 0.01772816 0.01791301 0.01806228 0.01814685
 0.01815354 0.01813704 0.0181 0.0181031 0.01814906 0.01824505 0.01838787 0.01854459 0.01871269 0.01886135
 0.01899232 0.01909583 0.01917319 0.01922227 0.01924428 0.01923894 0.01921051 0.01916192 0.01910101 0.01903322
 0.0189677 0.01891205 0.01886479 0.01882882 0.01879235 0.01875055 0.01871063 0.01867046 0.01866011 0.01868321
 0.01874208 0.01883649 0.0189188 0.01898593 0.01898703 0.01892322 0.01877378 0.01854299 0.01822828 0.01784585
 0.01742038 0.01699034 0.0166273 0.01635293 0.0162345 0.0162244 0.0163174 0.01644102 0.01654982 0.01662688
 0.01664962 0.01664998 0.01663018 0.0166243 0.01663888 0.016686 0.01676826 0.01687422 0.01700348 0.01715972
 0.01734616 0.01760608 0.01793726 0.01835691 0.01884557 0.01934535 0.01984277 0.02027261 0.02064762 0.0209591
 0.02122234 0.0214527 0.02165467 0.02183118 0.0220015 0.02217048 0.02237357 0.02262601 0.02294211 0.02333322
 0.02377382 0.0242658 0.02475364 0.02523357 0.02564636 0.0259889 0.02625362 0.02644568 0.02662817 0.02680337
 0.0270224 0.02727037 0.02752009 0.02776392 0.02796223 0.02813683 0.02830712 0.02848607 0.02870838 0.02893879
 0.02916763 0.02934536 0.02943826 0.02943706 0.02932215 0.02913631 0.0288801 0.02862359 0.02837926 0.02818208
 0.02804057 0.02790736 0.02778018 0.02759368 0.02735058 0.02706661 0.02675124 0.02647199 0.02622432 0.02603101
 0.0258757 0.02573037 0.02558648 0.02541732 0.02522227 0.02498795 0.02472465 0.02442999 0.0241334 0.02385025
 0.02359838 0.02339473 0.02321404 0.02305637 0.0228824 0.02268536 0.02244509 0.02215886 0.02181671 0.02141797
 0.02097158 0.02048073 0.0199901 0.01950189 0.01905502 0.01864231 0.01825755 0.01789651 0.01754191 0.0172038
 0.01689235 0.01661234 0.01637813 0.01617568 0.01599902 0.01583567 0.01567337 0.01552076 0.01537355 0.01526204
 0.01519251 0.01518962 0.01526442 0.01538144 0.01554224 0.01565427 0.01571233</values></Ydata></AB><ScSm><Ydata ylabel="Single channel"><values byteorder="INTEL" format="FLOAT32" numvalues="1814"> 0.07175803 0.07176256 0.07183139 0.07199088 0.07221395 0.07243154 0.07258114 0.07265045 0.07266362 0.07263447
 0.07256949 0.07251745 0.072563 0.07274267 0.07299025 0.07318245 0.07323684 0.07318246 0.07314439 0.07322277
 0.07335627 0.07333423 0.07299333 0.07240738 0.07184277 0.07151307 0.07144542 0.07163364 0.0721651 0.07297026
 0.07355101 0.07334213 0.07242541 0.07154691 0.07128999 0.07151744 0.07172957 0.07163805 0.07124911 0.07074386
 0.07052898 0.07113278 0.07268775 0.0744973 0.07528359 0.07399486 0.07055736 0.06611429 0.0626023 0.06171174
 0.06369546 0.06702869 0.06955504 0.07020803 0.06952064 0.06853165 0.06766635 0.0668755 0.06636268 0.06662169
 0.06775869 0.06903508 0.06925049 0.0677706 0.06528077 0.06329678 0.0627775 0.0635228 0.06499226 0.06689598
 0.06836459 0.0674727 0.06313543 0.05751367 0.05505069 0.05824489 0.06498298 0.07060988 0.07207187 0.06962483
 0.06547789 0.06196207 0.06065685 0.06196608 0.06504005 0.06848016 0.07118941 0.07242791 0.07162355 0.06886595
 0.06539723 0.06301459 0.06296712 0.06546154 0.0696154 0.07354021 0.07520251 0.07392463 0.07083362 0.06767097
 0.06564736 0.06544721 0.06739956 0.07113551 0.07556139 0.07949033 0.08213265 0.08318388 0.08288334 0.08185548
 0.08063474 0.07958776 0.07925154 0.07999734 0.08115251 0.08125858 0.07966327 0.07739425 0.07609932 0.07634132
 0.07715102 0.07720385 0.07615742 0.07443579 0.07192404 0.06793885 0.06280918 0.05829965 0.05584721 0.05546431
 0.05678905 0.05964898 0.0628293 0.06400436 0.06228919 0.0598601 0.05979812 0.06280283 0.06683585 0.06960405
 0.0706789 0.07133099 0.0728955 0.07540795 0.07743461 0.07715324 0.07416014 0.07048664 0.06916304 0.07124303
 0.07478984 0.07725807 0.07817827 0.0788755 0.0801566 0.08106278 0.0798696 0.07613533 0.07180458 0.07000777
 0.07233217 0.07722991 0.08114237 0.08113842 0.076888 0.07072844 0.06583987 0.06404701 0.0653352 0.06906401
 0.0746704 0.08102879 0.08616127 0.08834931 0.08738895 0.08448612 0.08088077 0.07670252 0.07162935 0.06679396
 0.06501383 0.06812649 0.07464035 0.08097976 0.08467662 0.08559961 0.08456086 0.08179405 0.07718773 0.07175334
 0.06810309 0.06842208 0.07184018 0.07492699 0.07528449 0.07373206 0.07254137 0.07260276 0.07309527 0.07322787
 0.07336487 0.074399 0.07647283 0.07863687 0.07976913 0.07960056 0.07876201 0.07804899 0.0776979 0.07721767
 0.07607616 0.07475165 0.07467744 0.07667549 0.07983075 0.08243312 0.08369449 0.08403803 0.08395855 0.08315139
 0.08095944 0.07761708 0.07475254 0.07418078 0.07615127 0.07919486 0.0816514 0.08285916 0.08299898 0.08250163
 0.08175711 0.08098387 0.08028556 0.07992357 0.0802581 0.08123815 0.08227705 0.08284038 0.08288847 0.08261733
 0.08207364 0.08122189 0.08022124 0.07944736 0.07922666 0.07958835 0.08028863 0.08102765 0.08157115 0.08173305
 0.0814376 0.08083753 0.08021647 0.07973582 0.07939421 0.07921523 0.07929659 0.07963443 0.08004218 0.08031199
 0.08037934 0.08029378 0.08010556 0.07983413 0.07950874 0.079198 0.07900074 0.07898901 0.07912891 0.07929174
 0.07939237 0.07947077 0.07957499 0.07962734 0.07950534 0.07922034 0.07892346 0.07874677 0.07870266 0.07872291
 0.07872663 0.07863224 0.07836024 0.0779034 0.07740953 0.0771233 0.07719082 0.07755248 0.07803824 0.07849656
 0.0788185 0.07894555 0.07891265 0.07881711 0.07870576 0.078539 0.07828352 0.07800439 0.07784823 0.07793069
 0.07822688 0.07858329 0.07885029 0.07897978 0.07900067 0.0789704 0.07896268 0.07902128 0.07909567 0.07908612
 0.07897342 0.07885263 0.07882409 0.07888524 0.07894115 0.0789105 0.07881728 0.0787663 0.07882404 0.07895074
 0.07906343 0.07913157 0.07918566 0.07925107 0.07929625 0.079254 0.07910134 0.07890667 0.0787684 0.07871544
 0.07870561 0.07871194 0.0787565 0.07885082 0.07894872 0.07898532 0.07894727 0.07888122 0.07883001 0.07877731
 0.07867363 0.0785078 0.07832774 0.07818973 0.07810819 0.07805717 0.07800137 0.07791899 0.07780589 0.0776687
 0.0775167 0.07735561 0.07718365 0.07699987 0.07682581 0.07670616 0.07666358 0.07665399 0.07659145 0.07642803
 0.07619947 0.07598571 0.07583077 0.07570819 0.07556477 0.0753874 0.0752143 0.07508689 0.07500957 0.07495781
 0.07490738 0.07485169 0.07481114 0.07483287 0.07495917 0.07517481 0.07539716 0.07554238 0.07560091 0.07563354
 0.07570021 0.07581238 0.0759486 0.07609242 0.07625062 0.07644255 0.07666657 0.07687871 0.07702798 0.07711713
 0.07720239 0.07733147 0.07751207 0.07773475 0.07797931 0.07819612 0.07833297 0.07839947 0.07846808 0.07859451
 0.07876496 0.07893369 0.07908417 0.07923473 0.07940532 0.07960273 0.07983231 0.08010393 0.08041958 0.0807596
 0.0810833 0.08134918 0.08154925 0.08173017 0.08196768 0.08230516 0.08271586 0.0831282 0.08348635 0.08378761
 0.08406602 0.08434679 0.08462815 0.08491187 0.08523059 0.08561837 0.08606117 0.08650474 0.08691242 0.08729331
 0.08767403 0.08806624 0.08846707 0.0888757 0.08929911 0.08974133 0.09018631 0.0905977 0.09094754 0.09124647
 0.09153927 0.0918729 0.09226827 0.09270301 0.09311132 0.09342693 0.09365375 0.09387608 0.09416939 0.09451707
 0.09484747 0.0951392 0.09544428 0.09580471 0.09618959 0.09653567 0.0968243 0.09709458 0.09738968 0.0977062
 0.09799588 0.09821424 0.09836826 0.09851161 0.09869117 0.0989139 0.09917516 0.09949008 0.09986632 0.1002627
 0.1006123 0.1008819 0.1010848 0.10125 0.1014056 0.1015782 0.1017767 0.1019864 0.1021917 0.1023882
 0.1025616 0.1026939 0.1028055 0.1029564 0.1031815 0.1034618 0.1037741 0.1041305 0.1045363 0.1049491
 0.1053232 0.1056777 0.1060721 0.1065125 0.1069229 0.1072277 0.1074272 0.1075714 0.1076966 0.1078256
 0.1080042 0.1082814 0.1086551 0.1090693 0.1094692 0.1098347 0.110166 0.1104608 0.1107107 0.1109086
 0.1110564 0.1111693 0.1112767 0.1114177 0.1116301 0.1119262 0.1122722 0.1126026 0.1128627 0.113026
 0.1130765 0.1130041 0.1128373 0.112652 0.1125098 0.1123864 0.1121832 0.1118113 0.1112485 0.1105195
 0.1096501 0.1086602 0.1075915 0.1065243 0.1055589 0.1047826 0.1042543 0.1040173 0.1041092 0.1045353
 0.105224 0.1060262 0.1067721 0.1073197 0.1075558 0.1073959 0.106825 0.1059261 0.1048388 0.1036875
 0.1025528 0.1014814 0.1004957 0.09961077 0.09887898 0.09842046 0.09839331 0.09892593 0.1000685 0.1017773
 0.1039137 0.1062599 0.1085728 0.1106658 0.1124656 0.1140002 0.1153392 0.1165496 0.1176834 0.1187682
 0.1197927 0.120725 0.1215548 0.1223034 0.1229889 0.1235988 0.1241 0.1244639 0.1246867 0.1247974
 0.1248429 0.1248569 0.124852 0.1248395 0.1248334 0.1248186 0.1247303 0.1244835 0.1240253 0.1233685
 0.122602 0.1218927 0.1214784 0.1216306 0.1225606 0.1242965 0.1266288 0.1291985 0.1316616 0.1337962
 0.1355111 0.1368176 0.1378035 0.138588 0.1392658 0.1398863 0.1404727 0.1410403 0.1415958 0.1421343
 0.1426473 0.1431353 0.143613 0.1440988 0.1445919 0.145066 0.1454966 0.1458951 0.1463039 0.1467559
 0.1472429 0.1477279 0.1481873 0.1486334 0.149086 0.1495346 0.1499467 0.150313 0.1506622 0.1510323
 0.1514431 0.1518922 0.1523545 0.152788 0.1531634 0.1534919 0.153811 0.154145 0.1544912 0.1548393
 0.1551891 0.1555446 0.1559028 0.1562594 0.1566192 0.1569868 0.1573466 0.1576683 0.1579416 0.1581961
 0.1584726 0.1587824 0.1591017 0.159403 0.1596868 0.159986 0.1603369 0.1607414 0.1611563 0.1615253
 0.1618242 0.1620734 0.1623133 0.1625733 0.1628624 0.1631779 0.1635126 0.1638531 0.1641832 0.1644938
 0.1647895 0.1650832 0.1653851 0.1656961 0.1660092 0.1663155 0.1666125 0.1669065 0.1672079 0.1675254
 0.1678625 0.1682128 0.1685578 0.1688769 0.169163 0.1694232 0.1696699 0.1699146 0.1701702 0.1704466
 0.170743 0.1710483 0.1713516 0.1716505 0.1719494 0.1722538 0.1725653 0.1728806 0.173193 0.1734965
 0.1737897 0.1740795 0.1743784 0.1746929 0.1750148 0.1753265 0.1756182 0.1758962 0.1761741 0.1764562
 0.1767346 0.1770031 0.1772695 0.1775462 0.1778339 0.1781214 0.1784005 0.1786747 0.1789524 0.1792364
 0.1795222 0.1798037 0.18008 0.1803572 0.1806416 0.1809334 0.1812274 0.1815171 0.1817985 0.1820735
 0.1823472 0.182622 0.1828955 0.1831675 0.1834425 0.1837234 0.1840077 0.1842905 0.1845679 0.1848389
 0.1851055 0.1853697 0.1856336 0.1859018 0.1861783 0.1864588 0.1867331 0.1869976 0.1872588 0.1875253
 0.1878015 0.1880873 0.1883783 0.1886679 0.1889529 0.1892312 0.1895006 0.1897642 0.1900324 0.190312
 0.1905993 0.1908893 0.1911812 0.1914729 0.1917568 0.1920254 0.1922772 0.1925193 0.1927632 0.1930132
 0.1932634 0.1935107 0.1937613 0.1940213 0.1942891 0.1945601 0.1948297 0.1950941 0.1953554 0.1956235
 0.1959041 0.1961918 0.1964774 0.1967562 0.1970306 0.1973087 0.1975955 0.1978839 0.1981636 0.1984354
 0.1987086 0.1989896 0.1992785 0.1995692 0.1998511 0.2001221 0.2003937 0.2006732 0.2009532 0.2012276
 0.2015029 0.2017857 0.2020748 0.2023663 0.2026535 0.2029295 0.2031973 0.2034661 0.2037353 0.2039991
 0.2042601 0.204523 0.2047875 0.205056 0.2053322 0.2056094 0.2058809 0.2061535 0.2064327 0.2067125
 0.2069893 0.2072673 0.2075443 0.2078162 0.2080878 0.2083615 0.2086329 0.2089062 0.2091869 0.209451
 0.209633 0.20959 0.2089912 0.2071893 0.2032016 0.1959072 0.1844981 0.1689967 0.1504273 0.1304485
 0.1107412 0.09257726 0.07670579 0.06345999 0.05291769 0.04499514 0.03950647 0.03628439 0.03531393 0.03685646
 0.04156858 0.05011024 0.06170624 0.07287585 0.07878718 0.0770685 0.07007378 0.06273589 0.0584673 0.0575103
 0.05840548 0.05990494 0.06161498 0.06376891 0.06676386 0.0707124 0.07542301 0.08088271 0.08749405 0.09555991
 0.1046611 0.1138279 0.1223748 0.1304419 0.1386696 0.1474276 0.156423 0.1649889 0.1726227 0.17924
 0.1850566 0.1903435 0.1952773 0.19994 0.2043806 0.2086012 0.2124559 0.2156147 0.2177273 0.2186894
 0.2187653 0.2184376 0.2181252 0.2180251 0.2181606 0.218501 0.2190168 0.2196809 0.2204681 0.2213517
 0.2222976 0.2232735 0.2242594 0.2252395 0.226191 0.2270904 0.2279218 0.2286756 0.2293513 0.2299618
 0.2305243 0.2310506 0.231548 0.2320213 0.2324727 0.2329051 0.2333202 0.2337107 0.2340647 0.2343811
 0.2346697 0.2349392 0.2351959 0.2354519 0.235718 0.2359937 0.2362705 0.2365417 0.2368043 0.2370593
 0.2373132 0.237572 0.2378339 0.2380933 0.2383472 0.2385949 0.2388353 0.2390704 0.2393041 0.2395385
 0.2397775 0.2400297 0.2402989 0.2405745 0.2408385 0.2410807 0.2413059 0.2415287 0.241761 0.2420039
 0.2422548 0.2425196 0.2428047 0.2431019 0.2433946 0.243676 0.2439491 0.2442176 0.2444852 0.2447526
 0.2450058 0.2452239 0.2454073 0.2455867 0.2457991 0.2460593 0.246351 0.2466407 0.2469075 0.2471604
 0.2474179 0.2476791 0.2479249 0.2481419 0.2483415 0.2485636 0.248847 0.2491838 0.249523 0.2498303
 0.2501175 0.2504045 0.2506924 0.2509807 0.2512673 0.2515252 0.2517238 0.2518867 0.2520995 0.2524393
 0.2528966 0.253373 0.2537681 0.2540654 0.2543215 0.2545976 0.2549231 0.2552722 0.255536 0.2555955
 0.2554985 0.2554957 0.2558137 0.256433 0.2571402 0.2577465 0.2582033 0.2585594 0.2588693 0.2591373
 0.2593177 0.2593725 0.2593556 0.2594353 0.2597783 0.260375 0.2610316 0.2615687 0.2619619 0.2622671
 0.2625208 0.2627434 0.2628967 0.2628128 0.2623691 0.2618107 0.2616923 0.2623415 0.2634876 0.2645513
 0.265222 0.2656173 0.2659538 0.2662784 0.2665365 0.2666259 0.2662656 0.2651549 0.2635627 0.2624917
 0.2628475 0.2645263 0.2665889 0.2681995 0.2691445 0.2696237 0.2698994 0.2701278 0.2702366 0.2699159
 0.2689688 0.2677898 0.2672685 0.2679628 0.269468 0.2708507 0.271599 0.2718906 0.2720992 0.2723796
 0.2725667 0.27212 0.2704296 0.2677151 0.2654839 0.2654703 0.2679372 0.2713603 0.2739431 0.2751616
 0.2756183 0.2757173 0.2750633 0.2731719 0.2702045 0.2668919 0.2642995 0.2636807 0.2656485 0.2691398
 0.2720181 0.2731774 0.2734761 0.2743247 0.2760046 0.2776805 0.2784911 0.2782142 0.2771142 0.275467
 0.2734303 0.2714844 0.2707 0.2719845 0.2749833 0.2781961 0.2803631 0.2814254 0.2818782 0.2813027
 0.2780665 0.271292 0.263315 0.259035 0.2615855 0.2690533 0.2765329 0.2809512 0.2827483 0.2835658
 0.2840524 0.283688 0.281093 0.2747862 0.2655149 0.2577147 0.2565087 0.262643 0.2716457 0.2780015
 0.2789088 0.2745756 0.2672294 0.2604548 0.2577294 0.2603142 0.2667016 0.2741075 0.2801428 0.2834643
 0.2837596 0.2816238 0.278518 0.2764094 0.2763472 0.2769094 0.2752825 0.2708139 0.2660988 0.2631719
 0.2603648 0.255398 0.2503781 0.2503965 0.2569062 0.2652912 0.2700498 0.270365 0.2691193 0.267655
 0.2634918 0.2539082 0.2410904 0.232224 0.233194 0.2424728 0.2524816 0.2569915 0.2560558 0.2538025
 0.2529225 0.2519609 0.24745 0.2384928 0.2290554 0.2246737 0.2266278 0.2308262 0.2326651 0.2307033
 0.2250856 0.2160784 0.2067027 0.203688 0.211761 0.2278284 0.2433957 0.2515564 0.2495227 0.2371148
 0.217689 0.2000772 0.1942868 0.2025724 0.2167114 0.2255648 0.2239218 0.2134414 0.1978654 0.1804164
 0.1652268 0.1578243 0.1618261 0.1752783 0.1908174 0.1994137 0.1953457 0.1805616 0.1649504 0.1592288
 0.1652652 0.1748544 0.178934 0.1757903 0.1697735 0.165602 0.1655992 0.1693846 0.1743138 0.1779221
 0.1799046 0.1794576 0.1726273 0.1571449 0.1389698 0.1284005 0.129347 0.1373108 0.1476935 0.1598706
 0.1717597 0.1770244 0.1722105 0.1633103 0.1606844 0.168102 0.1795394 0.1866 0.1868924 0.184472
 0.1836065 0.1841596 0.183842 0.1833419 0.1864574 0.1947531 0.2046819 0.2114958 0.214158 0.2148471
 0.2153057 0.2155531 0.2151322 0.2138934 0.211925 0.2096833 0.2078499 0.2065891 0.2054167 0.2039446
 0.201879 0.1979571 0.1902305 0.178841 0.167768 0.1617164 0.1611783 0.1627094 0.1640363 0.1654298
 0.1650218 0.1574185 0.1408421 0.1230246 0.1155804 0.1227891 0.1384309 0.1528895 0.1605 0.1600054
 0.151684 0.1376483 0.1243385 0.1205193 0.1300743 0.148243 0.1667315 0.1808587 0.1899998 0.1935982
 0.1904553 0.1817689 0.1723095 0.1677179 0.171117 0.1817114 0.1949474 0.2035691 0.2011682 0.1886317
 0.1771204 0.1798076 0.1979179 0.2185305 0.2290805 0.2301194 0.2301174 0.2323082 0.2331243 0.231554
 0.232842 0.2412974 0.2539235 0.26335 0.2642849 0.2555852 0.2395404 0.2223694 0.2126226 0.2143917
 0.2227734 0.2293039 0.230201 0.22586 0.2158362 0.2009728 0.1887518 0.1887819 0.2016503 0.2176135
 0.2276794 0.2318012 0.2348371 0.2381423 0.23791 0.2309373 0.2199704 0.2120032 0.2113409 0.2158097
 0.2203728 0.2224143 0.2218101 0.2179568 0.2101308 0.2007486 0.1953941 0.1979964 0.2068011 0.2160498
 0.2211716 0.2216782 0.2197765 0.2175946 0.2157809 0.2136839 0.2107375 0.2082618 0.2092114 0.2149258
 0.2228397 0.2290535 0.2327763 0.2365609 0.2422906 0.2485475 0.2522976 0.252182 0.2498174 0.2484038
 0.2501581 0.2545372 0.2586252 0.2596146 0.2574807 0.2552686 0.2562987 0.2610002 0.2668554 0.2712534
 0.2736225 0.2748863 0.2759216 0.276815 0.2768158 0.2749171 0.2713062 0.268223 0.2683786 0.2722614
 0.277659 0.2819192 0.2840667 0.284681 0.2844876 0.2835914 0.2818734 0.2796677 0.2777814 0.2768789
 0.277021 0.2778262 0.2788824 0.279919 0.2807831 0.2814354 0.281929 0.2823172 0.282618 0.2828622
 0.2830821 0.2832336 0.2832369 0.2831352 0.2831205 0.2833259 0.2836549 0.2838876 0.2838888 0.2836167
 0.2829937 0.2819254 0.2804512 0.2787417 0.2768994 0.2748848 0.2727576 0.2709494 0.2701449 0.2707779
 0.2726366 0.2749928 0.2771069 0.2786046 0.279473 0.2798653 0.2799677 0.2799525 0.2799364 0.2799455
 0.2799416 0.2798918 0.2798028 0.2796962 0.2795834 0.2794793 0.2794198 0.2794368 0.2795174 0.2795994
 0.2796052 0.2794843 0.2792393 0.2789156 0.278551 0.2781289 0.2775831 0.2768514 0.2759265 0.2748691
 0.273778 0.272737 0.271763 0.2707963 0.2697508 0.2685766 0.2672567 0.2657582 0.2640498 0.2621949
 0.2603636 0.2587002 0.2572064 0.255784 0.2543445 0.2528462 0.2512729 0.2496312 0.2479501 0.2462538
 0.2445419 0.2428046 0.2410399 0.2392475 0.2374165 0.2355297 0.233577 0.2315624 0.2294989 0.2273974
 0.2252467 0.2229852 0.2204934 0.2176276 0.2142731 0.2103691 0.2059093 0.2009555 0.1956549 0.1902248
 0.1848962 0.1798531 0.1752088 0.171032 0.167389 0.1643524 0.1619772 0.1602881 0.1592877 0.1589664
 0.1593063 0.1602809 0.161838 0.1638778 0.1662565 0.1688119 0.1713804 0.1738129 0.1760221 0.178029
 0.1799412 0.1818578 0.1837866 0.1856588 0.1874122 0.1890332 0.1905169 0.1918305 0.1929453 0.1938773
 0.1946691 0.1953546 0.1959588 0.1965097 0.1970276 0.1975145 0.1979627 0.1983727 0.1987677 0.1991902
 0.1996736 0.2002191 0.2008113 0.2014476 0.2021424 0.2029103 0.2037513 0.2046453 0.2055638 0.2064948
 0.2074524 0.2084611 0.2095507 0.2107652 0.2121527 0.2137379 0.215507 0.2174127 0.2193804 0.22132
 0.2231406 0.2247604 0.2261162 0.2271807 0.227966 0.2285084 0.2288568 0.2290647 0.2291725 0.2291988
 0.2291558 0.2290556 0.2288985 0.2286773 0.2283974 0.2280755 0.2277236 0.227353 0.2269814 0.2266175
 0.2262496 0.2258619 0.2254531 0.2250339 0.2246134 0.2241873 0.2237398 0.2232613 0.2227614 0.222254
 0.2217326 0.2211647 0.2205029 0.2197058 0.218765 0.21771 0.2165741 0.2153616 0.2140577 0.2126519
 0.2111424 0.2095347 0.2078451 0.2060922 0.2042851 0.2024188 0.2004701 0.1984026 0.1962067 0.1939371
 0.1916919 0.1895526 0.1875541 0.1856924 0.1839395 0.1822632 0.1806474 0.1790925 0.1776013 0.1761764
 0.1748232 0.1735456 0.1723427 0.1712143 0.1701639 0.1692005 0.1683411 0.1675997 0.1669666 0.1664128
 0.1659191 0.1654879 0.1651347 0.1648781 0.1647255 0.1646506 0.1645962 0.164506 0.1643487 0.1641209
 0.1638477 0.1635732 0.1633357 0.163153 0.1630185 0.1628882 0.162672 0.1622612 0.1615695 0.1605508
 0.1592024 0.1575656 0.1557175 0.1537623 0.1518292 0.1500469 0.1484989 0.1472114 0.1461805 0.1453817
 0.1447605 0.1442552 0.1438416 0.1435496 0.1434319 0.1434945 0.1436377 0.1437027 0.1436207 0.1434945
 0.1435055 0.1437647 0.1442571 0.1448746 0.1454819 0.1459855 0.1463524 0.146574 0.1466487 0.1466059
 0.1464923 0.1463237 0.1460872 0.1457797 0.1454118 0.1449912 0.14452 0.1439886 0.1433746 0.142674
 0.1419079 0.1410798 0.1401635 0.1391379 0.1379877 0.1366988 0.1353374 0.1341139 0.1332949 0.133041
 0.1333262 0.133971 0.1347623 0.1355788 0.1363528 0.1369076 0.1370199 0.1367873 0.1367956 0.1376943
 0.1395758 0.1418666 0.1438299 0.1450816 0.1456244 0.1455726 0.1450029 0.1439714 0.1424935 0.1405343
 0.138121 0.1353898 0.1324781 0.1294969 0.1266205 0.1240427 0.1218551 0.1200617 0.1186444 0.117641
 0.1171906 0.116941 0.1150639 0.1092235 0.1001866 0.09342637 0.09452256 0.1028816 0.1121405 0.1168838
 0.1169612 0.1152628 0.113787 0.112835 0.1122996 0.1123163 0.1130141 0.1142574 0.1156593 0.1168158
 0.1175616 0.1179284 0.1178648 0.1170342 0.11477 0.1102866 0.1033086 0.09464821 0.08593196 0.07864982
 0.07350308 0.07042349 0.06886095 0.0680957 0.06760575 0.06732091 0.06752519 0.06850539 0.07030036 0.07275536
 0.07569653 0.07891076 0.08201861 0.08461206 0.08657867 0.08810999 0.08935427 0.09023172 0.09060974 0.09049346
 0.09000696 0.08929597 0.08847465 0.08759704 0.08663918 0.085534 0.08428949 0.08309804 0.08224746 0.08186329
 0.08180937 0.08187299 0.08194037 0.08197348 0.08195752 0.08191696 0.08189967 0.08194961 0.0821349 0.08252027
 0.08305494 0.08356935 0.08392546 0.08412102 0.0842443 0.08433829 0.08428511 0.08390217 0.08324693 0.08266707
 0.08234536 0.08196712 0.08112914 0.07996785 0.07908566 0.07888886 0.07922272 0.0796362 0.07980463 0.07967742
 0.07941327 0.07929572 0.07957689 0.08020491</values></Ydata></ScSm><ScRf><Ydata ylabel="Single channel"><values byteorder="INTEL" format="FLOAT32" numvalues="1820"> 0.06078582 0.06094624 0.0610382 0.06106528 0.0610557 0.06105726 0.06112027 0.06126548 0.06146405 0.06165319
 0.06178105 0.06183984 0.06184883 0.06181622 0.06174868 0.06169474 0.06173236 0.06189079 0.06210539 0.06226423
 0.06229876 0.06224398 0.06221572 0.06229677 0.06242135 0.06239895 0.06209315 0.06157953 0.06109425 0.06081628
 0.06075739 0.06090536 0.06134235 0.06202582 0.06253807 0.0623837 0.06161077 0.0608477 0.06060426 0.06078146
 0.06095995 0.06088606 0.0605539 0.06011572 0.05992645 0.06044546 0.061785 0.06333925 0.06400344 0.06287448
 0.05989961 0.05607418 0.05306463 0.05231267 0.05402467 0.05689054 0.05906341 0.05962914 0.05904569 0.05820933
 0.05748774 0.05682999 0.05639623 0.05660583 0.05756006 0.05863707 0.05880939 0.05752908 0.05538138 0.0536652
 0.05320244 0.053825 0.05507702 0.05671327 0.05798313 0.05722819 0.05351555 0.04869967 0.04659338 0.04934294
 0.05513838 0.05998169 0.06124195 0.05913507 0.05556874 0.05255788 0.0514551 0.05258868 0.05521732 0.05814619
 0.06044605 0.06148914 0.06078858 0.05842569 0.05546524 0.05343857 0.05340489 0.05553857 0.05909042 0.06244972
 0.06387438 0.06277926 0.06012878 0.05741836 0.05568623 0.05551367 0.05717811 0.06036725 0.06415407 0.06752843
 0.06980972 0.0707238 0.07046615 0.06957854 0.06853566 0.06765687 0.06738699 0.0680264 0.06900001 0.06907491
 0.06770302 0.06575872 0.06464289 0.06483816 0.06552471 0.06557442 0.0646907 0.06323043 0.06109152 0.05768588
 0.05329291 0.04942524 0.04731832 0.04698834 0.04813159 0.05060539 0.05336667 0.05441017 0.05296119 0.05087456
 0.05079361 0.05333327 0.05676352 0.05912462 0.06004351 0.06060453 0.06195393 0.06412328 0.06587774 0.06564695
 0.06308205 0.05992879 0.05879152 0.06057697 0.06362537 0.06575657 0.06657138 0.06720459 0.06834085 0.06915081
 0.06815527 0.06498126 0.06130202 0.05980113 0.06183334 0.0660661 0.06944481 0.06945144 0.0658019 0.06051245
 0.05632893 0.05482556 0.05598864 0.05926938 0.06418931 0.06978151 0.07433411 0.0763438 0.07560529 0.07314584
 0.07005126 0.06645615 0.06208984 0.05793735 0.05645795 0.05926332 0.06505485 0.07070517 0.07404991 0.07496606
 0.07415392 0.07180594 0.06781875 0.06309529 0.05996569 0.06037764 0.06355306 0.06642835 0.06685911 0.06557545
 0.06461169 0.06476924 0.06531353 0.06553894 0.06578593 0.06686755 0.06890455 0.07102373 0.07220113 0.07218809
 0.07155312 0.07102453 0.07083027 0.07052759 0.06962761 0.06857109 0.06867763 0.07069415 0.07375987 0.07628874
 0.0775633 0.07799718 0.07806396 0.07747206 0.07558372 0.07260145 0.07005905 0.06968179 0.07171635 0.07477261
 0.07726917 0.0785728 0.07886074 0.07855189 0.07801919 0.0774659 0.07698715 0.07683004 0.07733357 0.07844365
 0.07959899 0.08029211 0.08048548 0.0803608 0.07995918 0.07925783 0.07843107 0.07784906 0.07781005 0.07831834
 0.079134 0.07998733 0.08067234 0.08100314 0.08087739 0.08042389 0.07993093 0.07958491 0.07940096 0.07939843
 0.07966009 0.08016795 0.08072685 0.08112843 0.08131611 0.08135188 0.08129454 0.08115929 0.08096159 0.0807675
 0.08069453 0.08082929 0.08112168 0.0814158 0.08163049 0.08184014 0.08211109 0.08234033 0.0823634 0.08217797
 0.0819586 0.08186588 0.08191703 0.08203368 0.08213402 0.08214343 0.08197784 0.0816156 0.08120282 0.08100213
 0.08118057 0.08168732 0.0823467 0.08298811 0.08347565 0.08373097 0.08378756 0.08375342 0.08368643 0.08355761
 0.08334746 0.08313229 0.08306 0.08324313 0.08365853 0.08415295 0.08456148 0.08480933 0.08491294 0.08494931
 0.08502817 0.0852071 0.08540694 0.08548538 0.08541639 0.0853312 0.08535944 0.08548227 0.08556922 0.08553524
 0.08543833 0.08541839 0.08555084 0.08578102 0.08600309 0.08617553 0.08634292 0.08655259 0.0867614 0.08684628
 0.08673654 0.08651689 0.08634651 0.08628872 0.0862886 0.08631149 0.08641076 0.08662335 0.08687034 0.08702327
 0.08704679 0.08702721 0.08705626 0.08712059 0.08712707 0.08701836 0.08683595 0.08667596 0.08660932 0.08664402
 0.08673391 0.08680996 0.0868195 0.08675436 0.08664587 0.08653133 0.08643198 0.08637009 0.08639386 0.08654992
 0.0868082 0.08703301 0.08707 0.08688347 0.08659931 0.08639643 0.08634889 0.08637456 0.08633241 0.08615647
 0.08589399 0.08563679 0.08544074 0.08530484 0.08520053 0.08510926 0.08504704 0.08506073 0.08517979 0.08535141
 0.08544426 0.0853547 0.08510952 0.08483855 0.08465414 0.0845798 0.0845726 0.0845756 0.08456287 0.08456371
 0.08462249 0.08471681 0.08475789 0.08469759 0.08459275 0.08454335 0.08460945 0.0847922 0.08503149 0.08521025
 0.08522861 0.08510616 0.08497023 0.08492748 0.08498034 0.08507167 0.08516443 0.08525586 0.08534707 0.08543555
 0.08553657 0.08568654 0.08590949 0.08618243 0.0864411 0.08662576 0.08673084 0.08681753 0.08697221 0.08723794
 0.08757834 0.08790853 0.08816464 0.08834957 0.08851442 0.08869706 0.08889005 0.08907863 0.08928861 0.08956261
 0.08989612 0.09023505 0.09053836 0.09081279 0.09108397 0.09136193 0.0916448 0.09194386 0.09229314 0.09271915
 0.093187 0.09359474 0.09385396 0.0939777 0.09407291 0.09425556 0.09457444 0.09497944 0.09534258 0.09555385
 0.09563439 0.0957242 0.0959257 0.09619693 0.09643953 0.09665354 0.09694025 0.09735674 0.09782533 0.09820826
 0.098444 0.09859101 0.09875003 0.09895825 0.09916304 0.09929667 0.09936377 0.09943314 0.09955161 0.09971006
 0.09990647 0.1001878 0.1005848 0.1010386 0.1014409 0.1017314 0.101924 0.1020589 0.1021643 0.102248
 0.1023008 0.102319 0.1023349 0.1023962 0.1025019 0.1025941 0.1026337 0.1026537 0.102718 0.102857
 0.1030675 0.1033438 0.1036671 0.1039864 0.1042609 0.1045235 0.1048487 0.1052348 0.1055674 0.1057404
 0.1057759 0.1057774 0.1058014 0.1058379 0.1058964 0.1060332 0.1062801 0.1066035 0.1069506 0.1073017
 0.1076608 0.1080188 0.10834 0.1085747 0.1086877 0.1086873 0.1086346 0.1086192 0.1087164 0.1089475
 0.1092674 0.1095971 0.1098769 0.1100815 0.1101926 0.1101954 0.110129 0.1101012 0.1102017 0.1103979
 0.110551 0.1105365 0.1103245 0.1099469 0.1094325 0.1088016 0.1081044 0.1074309 0.1068709 0.1064726
 0.1062473 0.1062113 0.1064052 0.1068497 0.107487 0.1081921 0.1088449 0.1093658 0.1096796 0.1096994
 0.1093864 0.1088057 0.1080892 0.1073567 0.1066775 0.1060695 0.105501 0.10493 0.1043905 0.1040361
 0.10407 0.1046219 0.1056784 0.1070916 0.1086349 0.1100851 0.1113077 0.1122959 0.1131247 0.1138661
 0.1145477 0.1151851 0.1158142 0.1164605 0.1170937 0.117656 0.1181342 0.1185684 0.1189907 0.1193889
 0.1197323 0.1200067 0.120227 0.1204311 0.1206465 0.1208444 0.1209511 0.1209282 0.1208181 0.1206911
 0.120568 0.1204081 0.1201558 0.119788 0.119346 0.1189498 0.1187767 0.1189917 0.1196591 0.1207022
 0.1219566 0.1232725 0.1245566 0.1257287 0.1266912 0.1273815 0.1278311 0.1281419 0.128411 0.1286905
 0.1289922 0.1293053 0.1296124 0.1299047 0.1301868 0.1304722 0.1307786 0.1311155 0.1314632 0.1317767
 0.1320284 0.1322473 0.1325017 0.1328355 0.133223 0.133596 0.1339206 0.1342287 0.1345593 0.1348878
 0.1351487 0.1353223 0.1354641 0.1356514 0.1359285 0.1362914 0.1366878 0.1370363 0.1372823 0.1374437
 0.1375862 0.1377584 0.1379678 0.1382046 0.1384601 0.1387227 0.1389793 0.1392343 0.139513 0.1398302
 0.1401536 0.140419 0.1405943 0.1407173 0.1408582 0.141052 0.141276 0.1414884 0.1416797 0.1418862
 0.1421533 0.1424807 0.1428088 0.1430683 0.1432385 0.1433551 0.1434712 0.1436214 0.1438124 0.1440295
 0.1442497 0.1444561 0.1446484 0.1448407 0.1450471 0.1452677 0.1454894 0.1457003 0.1458998 0.1460948
 0.1462915 0.1464935 0.1467072 0.1469462 0.1472253 0.1475384 0.1478459 0.1480984 0.1482783 0.1484118
 0.1485376 0.1486774 0.1488342 0.1490052 0.1491885 0.1493826 0.1495851 0.1497919 0.1499983 0.1502034
 0.1504096 0.1506187 0.1508274 0.1510304 0.1512292 0.1514361 0.1516624 0.1519031 0.1521384 0.1523525
 0.1525477 0.1527392 0.1529388 0.1531435 0.1533376 0.1535107 0.1536721 0.1538414 0.1540282 0.1542292
 0.1544378 0.1546487 0.1548558 0.155056 0.1552524 0.155449 0.1556459 0.1558407 0.156032 0.1562191
 0.1564022 0.1565837 0.1567674 0.1569571 0.1571537 0.1573539 0.1575545 0.1577575 0.1579672 0.1581817
 0.1583931 0.1585972 0.1587963 0.1589942 0.159191 0.1593844 0.1595743 0.1597649 0.1599605 0.1601605
 0.1603597 0.1605552 0.1607494 0.1609479 0.1611593 0.1613901 0.1616344 0.1618738 0.1620919 0.1622875
 0.1624728 0.1626635 0.1628694 0.1630897 0.163318 0.1635483 0.163776 0.1639947 0.1641983 0.1643848
 0.1645574 0.1647261 0.164904 0.1650929 0.1652794 0.1654529 0.1656192 0.1657902 0.1659709 0.1661614
 0.1663628 0.1665742 0.1667913 0.1670091 0.1672219 0.1674254 0.1676205 0.167811 0.168 0.16819
 0.1683823 0.1685766 0.1687762 0.1689877 0.1692087 0.1694252 0.1696282 0.1698229 0.170018 0.1702184
 0.1704284 0.1706481 0.1708696 0.1710867 0.1713016 0.1715171 0.1717325 0.1719484 0.1721662 0.1723822
 0.1725928 0.1727991 0.1730022 0.1732031 0.1734052 0.1736111 0.1738212 0.1740387 0.1742643 0.1744875
 0.1746975 0.1748957 0.1750892 0.1752817 0.1754791 0.1756875 0.175904 0.1761231 0.1763445 0.1765656
 0.1767799 0.1769886 0.177195 0.1773835 0.1775076 0.1774518 0.1769324 0.1753904 0.1719817 0.1657509
 0.1560182 0.142813 0.1270099 0.1100148 0.0932517 0.07780306 0.06431174 0.05306308 0.04411657 0.03739282
 0.0327346 0.03000506 0.029189 0.03049948 0.03449207 0.04173384 0.05157017 0.06104138 0.06604026 0.06455587
 0.0585957 0.05235664 0.04873715 0.04793545 0.04870424 0.04998219 0.05143645 0.05326304 0.0557944 0.05912568
 0.06310156 0.06771998 0.07332413 0.08016331 0.08787361 0.09563106 0.1028586 0.1096791 0.1166377 0.1240486
 0.1316648 0.1389222 0.1453914 0.1509925 0.1559038 0.1603626 0.1645326 0.1684885 0.1722652 0.175853
 0.1791189 0.1817804 0.1835447 0.1843296 0.1843631 0.1840572 0.1837686 0.1836609 0.1837505 0.1840159
 0.1844397 0.1849982 0.1856617 0.1864045 0.1872025 0.1880314 0.1888703 0.1896955 0.1904801 0.1912083
 0.1918807 0.1925024 0.1930769 0.1936086 0.194099 0.1945438 0.1949438 0.1953125 0.1956656 0.1960093
 0.1963413 0.1966556 0.1969461 0.19721 0.1974475 0.1976614 0.1978625 0.1980698 0.1982938 0.1985264
 0.1987529 0.1989685 0.1991768 0.1993802 0.1995788 0.1997729 0.1999662 0.200166 0.2003772 0.200594
 0.2008037 0.2009986 0.2011807 0.2013564 0.2015336 0.2017176 0.2019061 0.2020925 0.2022772 0.2024691
 0.2026743 0.202889 0.203102 0.203303 0.2034932 0.2036878 0.2039002 0.2041252 0.2043474 0.2045615
 0.2047724 0.204984 0.2051995 0.2054211 0.205639 0.2058308 0.2059852 0.2061209 0.2062744 0.206468
 0.206692 0.206916 0.2071212 0.2073158 0.2075171 0.2077268 0.2079293 0.2081089 0.2082686 0.2084375
 0.2086506 0.2089122 0.2091914 0.2094606 0.2097154 0.2099569 0.2101839 0.2104034 0.2106189 0.210808
 0.210945 0.2110536 0.2112124 0.2114916 0.2118795 0.2122801 0.212598 0.2128228 0.2130149 0.2132332
 0.213499 0.2137856 0.2140001 0.2140429 0.213955 0.2139494 0.214216 0.2147301 0.2153031 0.2157792
 0.2161334 0.2164211 0.2166862 0.2169146 0.2170513 0.2170649 0.2170177 0.2170668 0.2173529 0.2178568
 0.2184037 0.2188379 0.2191403 0.2193619 0.2195378 0.2196918 0.2198001 0.2197248 0.2193562 0.2188915
 0.2187945 0.2193403 0.2203004 0.2211894 0.2217501 0.2220826 0.2223655 0.2226359 0.2228481 0.2229163
 0.2226047 0.221662 0.2203172 0.2194177 0.2197271 0.2211528 0.2228941 0.2242435 0.2250291 0.2254317
 0.2256776 0.2258907 0.2259963 0.2257271 0.2249225 0.2239224 0.2234781 0.2240589 0.2253243 0.2264891
 0.2271256 0.2273905 0.2276 0.2278757 0.228066 0.2277103 0.2262988 0.2240265 0.2221706 0.2221875
 0.2242845 0.2271697 0.2293341 0.2303478 0.2307296 0.2308288 0.2303115 0.228755 0.2262788 0.2234947
 0.2213111 0.2207971 0.2224733 0.2254387 0.2278875 0.2288907 0.2291778 0.2299384 0.2314049 0.2328662
 0.2335885 0.2333843 0.2324836 0.2311247 0.2294378 0.2278275 0.2272037 0.2283314 0.2308985 0.233632
 0.2354801 0.2364091 0.2368394 0.2364057 0.2337176 0.2280313 0.221326 0.2177477 0.2199492 0.2263179
 0.2327088 0.2365194 0.2381154 0.2388777 0.2393465 0.2390775 0.2369121 0.2316101 0.2238118 0.2172721
 0.2163249 0.2215942 0.2292861 0.2347286 0.2355476 0.231913 0.2257136 0.2200052 0.2177576 0.2200489
 0.2255919 0.2320049 0.2372435 0.2401663 0.2405163 0.2387992 0.2362515 0.2345493 0.234595 0.2351837
 0.2339178 0.2302344 0.2263334 0.2239414 0.2216385 0.2174914 0.2133167 0.2134866 0.219251 0.2266398
 0.2309164 0.2313788 0.2305109 0.2294647 0.2260933 0.2180396 0.2071898 0.1997741 0.2009185 0.2093218
 0.2184167 0.2228051 0.2225507 0.2212541 0.22125 0.2212264 0.2180742 0.210947 0.2033359 0.2001435
 0.2024705 0.2066296 0.2085084 0.206847 0.201813 0.1936968 0.1852684 0.1826191 0.1900313 0.2047433
 0.2191064 0.2268769 0.2255024 0.2147642 0.197669 0.1822899 0.1778421 0.1864282 0.2004778 0.2097068
 0.2092805 0.2006846 0.1873291 0.1722144 0.1593365 0.1541377 0.1602555 0.1758283 0.1934922 0.2040258
 0.2014575 0.1877404 0.1732002 0.1691043 0.1773768 0.1892436 0.1950447 0.1929946 0.1878127 0.1846743
 0.1862345 0.19212 0.1993162 0.2050107 0.2088367 0.2096814 0.2026659 0.18501 0.163786 0.1512557
 0.1521431 0.161224 0.1731278 0.1871549 0.2008838 0.2068689 0.201035 0.1903996 0.1870928 0.195476
 0.2084092 0.2159815 0.2153242 0.2111293 0.2084274 0.2072392 0.2050742 0.2027176 0.2044461 0.2121135
 0.2219124 0.2286327 0.2310875 0.2316314 0.2321691 0.2327102 0.2327228 0.2320113 0.2306431 0.2290811
 0.2280417 0.2276934 0.2275007 0.2270339 0.2259574 0.222811 0.2153203 0.2035933 0.1921546 0.1863619
 0.1867238 0.189273 0.1914689 0.1936767 0.1936522 0.1849931 0.16559 0.1445661 0.1356394 0.1438681
 0.1618826 0.17829 0.1864019 0.1848147 0.1740165 0.1565939 0.1399328 0.1338894 0.1427495 0.1611193
 0.1796895 0.1932511 0.2012601 0.2033785 0.1985058 0.1879629 0.1767569 0.1707082 0.1729107 0.1823823
 0.1943868 0.2016394 0.1978765 0.1840942 0.1712849 0.172311 0.1884062 0.2071114 0.2162809 0.2163722
 0.2154848 0.2167703 0.2168909 0.2148767 0.2156535 0.2232968 0.2350414 0.2440087 0.2452478 0.2376915
 0.223505 0.2085596 0.2008986 0.2042616 0.2137696 0.2211727 0.222794 0.2190419 0.2095642 0.195305
 0.1836522 0.1839891 0.1968349 0.2126256 0.2225771 0.226682 0.229728 0.2330518 0.2329183 0.2261884
 0.2155753 0.2079732 0.2076407 0.2124801 0.2175896 0.2204307 0.220852 0.2181593 0.2115505 0.2034471
 0.1995259 0.2037848 0.2143793 0.2253141 0.2317821 0.2331686 0.2316523 0.2293726 0.2269876 0.2238497
 0.2194414 0.2152319 0.2143845 0.2183824 0.2246744 0.2293037 0.2314356 0.2336216 0.2377796 0.2425524
 0.2449687 0.2436879 0.2402688 0.237805 0.2384468 0.2417011 0.2447989 0.2450539 0.2424185 0.2397764
 0.2402901 0.2443805 0.2496684 0.2536812 0.2558692 0.257084 0.2581214 0.259023 0.2590445 0.2572188
 0.2537265 0.2506883 0.2506589 0.2540934 0.2589159 0.2626686 0.2645012 0.2650189 0.2649141 0.2642459
 0.2628541 0.2610207 0.2594798 0.2588277 0.2590938 0.2599022 0.2608644 0.2617422 0.2624179 0.2628776
 0.2631815 0.2633798 0.2634929 0.2635657 0.2636456 0.2636923 0.2636175 0.2634577 0.2634061 0.2636017
 0.2639509 0.2642296 0.2642922 0.264091 0.2635586 0.2626186 0.2613219 0.2598418 0.2582822 0.2566024
 0.2548487 0.2534198 0.2529544 0.2538491 0.2558869 0.258365 0.2605754 0.2621626 0.2631264 0.2636308
 0.2638571 0.2639459 0.2639734 0.263946 0.2638339 0.2636161 0.2633038 0.2629285 0.2625242 0.2621243
 0.2617666 0.2614791 0.2612489 0.2610149 0.2607035 0.2602789 0.2597609 0.2592012 0.2586375 0.2580612
 0.2574253 0.2566858 0.2558343 0.2549063 0.2539685 0.2530878 0.2522856 0.2515213 0.2507353 0.2498973
 0.2489928 0.247985 0.2468498 0.2456569 0.2445631 0.2436871 0.2430076 0.2424036 0.2417648 0.2410377
 0.2402018 0.2392544 0.2382207 0.2371409 0.2360373 0.2349041 0.2337198 0.2324597 0.2311079 0.2296682
 0.2281578 0.2265907 0.2249798 0.2233421 0.2216725 0.2199079 0.2179303 0.2156055 0.2128155 0.2094762
 0.205561 0.2011289 0.1963305 0.191374 0.1864665 0.1817757 0.1774332 0.173552 0.1702226 0.1675037
 0.1654295 0.1640238 0.163303 0.1632759 0.1639414 0.1652775 0.1672251 0.1696785 0.1724905 0.1754866
 0.178486 0.1813301 0.1839229 0.1862667 0.1884453 0.1905342 0.1925252 0.1943511 0.1959668 0.1973769
 0.1985974 0.1996316 0.2004867 0.2011897 0.2017772 0.202276 0.2026977 0.2030507 0.2033523 0.2036198
 0.2038574 0.2040627 0.2042442 0.2044241 0.204626 0.2048631 0.2051364 0.2054464 0.2058076 0.2062394
 0.2067382 0.2072777 0.2078411 0.2084333 0.2090577 0.2097126 0.2104196 0.2112324 0.2121988 0.2133239
 0.2145737 0.215903 0.217268 0.2186108 0.2198448 0.2208758 0.2216434 0.2221417 0.2224046 0.2224819
 0.2224174 0.2222342 0.2219399 0.2215486 0.2210876 0.2205755 0.2200094 0.2193821 0.2187042 0.2180006
 0.2172903 0.2165792 0.2158698 0.2151699 0.2144909 0.21384 0.2132199 0.2126283 0.2120548 0.2114821
 0.2109016 0.2103215 0.2097538 0.2091978 0.2086398 0.2080583 0.2074215 0.2066908 0.2058427 0.2048832
 0.2038338 0.2027068 0.2015033 0.2002255 0.1988784 0.1974623 0.1959756 0.1944219 0.1928034 0.1911066
 0.1893021 0.1873682 0.1853265 0.1832541 0.1812508 0.179386 0.1776756 0.1761002 0.1746311 0.1732445
 0.1719275 0.1706714 0.1694587 0.1682697 0.1671071 0.1659994 0.1649756 0.1640416 0.1631847 0.1623946
 0.1616757 0.1610387 0.1604844 0.1600001 0.1595732 0.1592045 0.1589161 0.1587451 0.158711 0.1587763
 0.1588574 0.158885 0.1588418 0.1587469 0.1586266 0.1585031 0.158393 0.1583095 0.1582544 0.1581988
 0.1580723 0.1577844 0.1572484 0.1563944 0.1551941 0.1536815 0.1519394 0.1500767 0.1482287 0.1465358
 0.1450889 0.1439154 0.1430133 0.1423554 0.1418708 0.1414749 0.1411379 0.140908 0.1408676 0.1410417
 0.1413255 0.141542 0.1416153 0.1416544 0.1418381 0.1422602 0.1428921 0.1436277 0.1443482 0.1449821
 0.1455083 0.1459066 0.1461548 0.1462724 0.1463021 0.1462529 0.1461113 0.1458883 0.1456119 0.1453016
 0.1449662 0.1445914 0.1441398 0.1435903 0.14295 0.1422192 0.1413951 0.1404919 0.1394959 0.1383567
 0.1371118 0.1359743 0.135227 0.1350536 0.13546 0.1362842 0.1373023 0.138376 0.139427 0.1402591
 0.1406168 0.1405777 0.1407384 0.1417839 0.1438353 0.1463098 0.1484399 0.1498377 0.1505272 0.1506225
 0.1501774 0.1492424 0.1478376 0.1459141 0.1434812 0.1406778 0.1376495 0.1345146 0.1314688 0.1287323
 0.1264107 0.1245231 0.1230674 0.1220741 0.1216635 0.1214674 0.1195955 0.1136117 0.1043004 0.09735028
 0.09855162 0.1072713 0.1169114 0.1218818 0.1220355 0.1203508 0.1188807 0.1179307 0.1173879 0.1173958
 0.1180965 0.1193602 0.1207963 0.1219845 0.1227411 0.1231056 0.1230529 0.1222326 0.119901 0.1151886
 0.1077989 0.09860392 0.08935332 0.08166705 0.07630073 0.07313846 0.07154674 0.07075724 0.07024358 0.06995389
 0.07019188 0.07125188 0.0731801 0.07584373 0.07907452 0.08261403 0.08601852 0.08885054 0.09100306 0.09268416
 0.09406868 0.09510653 0.09567442 0.09575789 0.09544125 0.09483141 0.09404497 0.09318686 0.09226629 0.09118833
 0.08993469 0.08873229 0.08791257 0.08758285 0.08754864 0.08756514 0.08753937 0.0874835 0.0874094 0.08731301
 0.08720285 0.08713795 0.08723682 0.08758107 0.08809194 0.0885653 0.08884452 0.08893465 0.08895738 0.08897826
 0.08885753 0.08837324 0.0875698 0.08680683 0.08628421 0.08570308 0.08466871 0.08332032 0.0822753 0.08196352
 0.08223064 0.08259713 0.0827135 0.08253175 0.08223827 0.08214454 0.08248941 0.08316195 0.08369368 0.08368868
</values></Ydata></ScRf><Data_Parameters_AB><parameter name="DPF">1</parameter><parameter name="NPT">3497</parameter><parameter name="FXV">3996</parameter><parameter name="LXV">500</parameter><parameter name="CSF">1</parameter><parameter name="MXY">0.0713449865579605</parameter><parameter name="MNY">-0.0827398523688316</parameter><parameter name="DAT">31/05/2022</parameter><parameter name="TIM">14:09:14.164 (GMT+2)</parameter><parameter name="DXU">WN</parameter></Data_Parameters_AB><AB__Qtest><MainReport name="Quality Test Report"><Header><Line><Legend>Test result ok/not ok [1/0]: </Legend><Value>0</Value></Line><Line><Legend>Method file: </Legend><Value>C:\Users\Public\Documents\Bruker\OPUS_8.2.28\QT\IRBT_v3_default.QT</Value></Line></Header><Matrix><Line><Legend></Legend><Legend>min</Legend><Legend>max</Legend><Legend>measured</Legend></Line><Line><Value>Absorption (X-Range 1):</Value><Value>0.400000</Value><Value>2.000000</Value><Value>0.149189</Value></Line><Line><Value>Noise (X-Range 4):</Value><Value></Value><Value>0.000300</Value><Value>0.000036</Value></Line><Line><Value>Signal/Noise (X-Range 2):</Value><Value>200.000000</Value><Value></Value><Value>134.138547</Value></Line><Line><Value>Signal/Noise (X-Range 3):</Value><Value>40.000000</Value><Value></Value><Value>35.050775</Value></Line><Line><Value>Water vapour (X-Range 5):</Value><Value></Value><Value>0.000300</Value><Value>0.000047</Value></Line><Line><Value>Signal/Water (X-Range 2):</Value><Value>100.000000</Value><Value></Value><Value>102.828734</Value></Line><Line><Value>Signal/Water (X-Range 3):</Value><Value>20.000000</Value><Value></Value><Value>26.869433</Value></Line><Line><Value>Fringes (X-Range 6):</Value><Value></Value><Value>0.000100</Value><Value>0.000064</Value></Line></Matrix></MainReport></AB__Qtest><Data_Parameters_ScSm><parameter name="DPF">1</parameter><parameter name="NPT">1814</parameter><parameter name="FXV">3996.33169228125</parameter><parameter name="LXV">499.541461535156</parameter><parameter name="CSF">1</parameter><parameter name="MXY">0.284680962562561</parameter><parameter name="MNY">0.0353139340877533</parameter><parameter name="DAT">31/05/2022</parameter><parameter name="TIM">14:09:14.164 (GMT+2)</parameter><parameter name="DXU">WN</parameter></Data_Parameters_ScSm><Data_Parameters_ScRf><parameter name="DPF">1</parameter><parameter name="NPT">1820</parameter><parameter name="FXV">4004.04661832813</parameter><parameter name="LXV">495.683998511719</parameter><parameter name="CSF">1</parameter><parameter name="MXY">0.265018910169601</parameter><parameter name="MNY">0.029188996180892</parameter><parameter name="DAT">31/05/2022</parameter><parameter name="TIM">14:08:48.311 (GMT+2)</parameter><parameter name="DXU">WN</parameter></Data_Parameters_ScRf><Optic_Parameters_Rf><parameter name="APR">0</parameter><parameter name="APT">Open</parameter><parameter name="BMS">KBr</parameter><parameter name="DTC">RT-DLaTGS_IR-Biotyper [Microplate reader]</parameter><parameter name="HPF">0</parameter><parameter name="LPF">10.0</parameter><parameter name="LPV">4000</parameter><parameter name="PGR">0</parameter><parameter name="RCH">Module port</parameter><parameter name="RDX">0</parameter><parameter name="SRC">MIR</parameter><parameter name="VEL">10.0</parameter><parameter name="SON">Off</parameter></Optic_Parameters_Rf><Acquisition_Parameters_Rf><parameter name="ADT">1</parameter><parameter name="AQM">DD</parameter><parameter name="CFE">0</parameter><parameter name="COR">0</parameter><parameter name="DEL">0</parameter><parameter name="DLY">0</parameter><parameter name="HFW">8000</parameter><parameter name="LFW">0</parameter><parameter name="NSR">32</parameter><parameter name="PLF">AB</parameter><parameter name="RES">6</parameter><parameter name="RGN">-1</parameter><parameter name="STR">0</parameter><parameter name="TCL">MakeCompatibleScalar (0, {WSV=1.000000, ARV=0});</parameter><parameter name="TDL">37</parameter><parameter name="RPO">0</parameter></Acquisition_Parameters_Rf><FT_-_Parameters_Rf><parameter name="APF">B3</parameter><parameter name="HFQ">500</parameter><parameter name="LFQ">4000</parameter><parameter name="NLI">0</parameter><parameter name="PHR">24</parameter><parameter name="PHZ">ML</parameter><parameter name="SPZ">NO</parameter><parameter name="ZFF">1</parameter></FT_-_Parameters_Rf><Optic_Parameters_><parameter name="APR">0</parameter><parameter name="APT">Open</parameter><parameter name="BMS">KBr</parameter><parameter name="CHN">Module port</parameter><parameter name="DTC">RT-DLaTGS_IR-Biotyper [Microplate reader]</parameter><parameter name="HPF">0</parameter><parameter name="LPF">10.0</parameter><parameter name="LPV">4000</parameter><parameter name="PGN">0</parameter><parameter name="RDX">0</parameter><parameter name="SRC">MIR</parameter><parameter name="VEL">10.0</parameter><parameter name="SON">Off</parameter></Optic_Parameters_><FT_-_Parameters_><parameter name="APF">B3</parameter><parameter name="HFQ">500</parameter><parameter name="LFQ">4000</parameter><parameter name="NLI">0</parameter><parameter name="PHR">24</parameter><parameter name="PHZ">ML</parameter><parameter name="SPZ">NO</parameter><parameter name="ZFF">1</parameter></FT_-_Parameters_><Acquisition_Parameters_><parameter name="ADT">1</parameter><parameter name="AQM">DD</parameter><parameter name="CFE">0</parameter><parameter name="COR">0</parameter><parameter name="DEL">0</parameter><parameter name="DLY">0</parameter><parameter name="HFW">8000</parameter><parameter name="LFW">0</parameter><parameter name="NSS">32</parameter><parameter name="PLF">AB</parameter><parameter name="RES">6</parameter><parameter name="SOT">0</parameter><parameter name="TCL">MakeCompatibleScalar (0, {WSV=1.000000, ARV=0});</parameter><parameter name="TDL">37</parameter><parameter name="SPO">0</parameter><parameter name="SGN">-1</parameter></Acquisition_Parameters_><Instrument_Parameters_Rf><parameter name="HFL">15800.168544</parameter><parameter name="LFL">0</parameter><parameter name="LWN">15800.168544</parameter><parameter name="ABP">32197</parameter><parameter name="SSP">1</parameter><parameter name="ARG">2</parameter><parameter name="ASG">2</parameter><parameter name="ASS">32</parameter><parameter name="GFW">16</parameter><parameter name="GBW">16</parameter><parameter name="BFW">0</parameter><parameter name="BBW">0</parameter><parameter name="PKA">7263</parameter><parameter name="PKL">4996</parameter><parameter name="PRA">7451</parameter><parameter name="PRL">5001</parameter><parameter name="P2A">1</parameter><parameter name="P2L">1</parameter><parameter name="P2R">1</parameter><parameter name="P2K">1</parameter><parameter name="DAQ">0</parameter><parameter name="AG2">1</parameter><parameter name="SSM">1</parameter><parameter name="RSN">25757</parameter><parameter name="CRR">0</parameter><parameter name="SRT">1654006128.311</parameter><parameter name="DUR">19.6379852294922</parameter><parameter name="TSC">29.1</parameter><parameter name="MVD">0.228533774614334</parameter><parameter name="AN1">0.225817104604308</parameter><parameter name="AN2">0</parameter><parameter name="VSN">2.485 Apr  4 2017</parameter><parameter name="SRN">0085</parameter><parameter name="CAM">0</parameter><parameter name="INS">IR-Biotyper</parameter><parameter name="FOC">69</parameter><parameter name="RDY">1</parameter><parameter name="ARS">32</parameter></Instrument_Parameters_Rf><Sample_Parameters_><parameter name="BLD"></parameter><parameter name="CNM">Admin</parameter><parameter name="CPY"></parameter><parameter name="DPM"></parameter><parameter name="EXP">IRBT_v3_32Scans.XPM</parameter><parameter name="LCT"></parameter><parameter name="SFM">Microplate, HTS-XT</parameter><parameter name="SNM">220531-1301_AJC34M (D_2)_B8_a9eba0a4-653c-4120-b956-9c50c5100919.0</parameter><parameter name="XPP">C:\Users\Public\Documents\Bruker\OPUS_8.2.28\XPM</parameter><parameter name="IST">OK</parameter><parameter name="CPG">1252</parameter><parameter name="UID">6b6b9bc4-a52d-46e4-954d-50b009658b5d</parameter></Sample_Parameters_><Instrument_Parameters_><parameter name="HFL">15800.168544</parameter><parameter name="LFL">0</parameter><parameter name="LWN">15800.168544</parameter><parameter name="ABP">32197</parameter><parameter name="SSP">1</parameter><parameter name="ASG">2</parameter><parameter name="ARG">2</parameter><parameter name="ASS">32</parameter><parameter name="GFW">16</parameter><parameter name="GBW">16</parameter><parameter name="BFW">0</parameter><parameter name="BBW">0</parameter><parameter name="PKA">7851</parameter><parameter name="PKL">4988</parameter><parameter name="PRA">8120</parameter><parameter name="PRL">4993</parameter><parameter name="P2A">1</parameter><parameter name="P2L">1</parameter><parameter name="P2R">1</parameter><parameter name="P2K">1</parameter><parameter name="DAQ">0</parameter><parameter name="AG2">1</parameter><parameter name="SSM">1</parameter><parameter name="RSN">13504</parameter><parameter name="CRR">0</parameter><parameter name="SRT">1654006154.164</parameter><parameter name="DUR">19.6379852294922</parameter><parameter name="TSC">29.1</parameter><parameter name="MVD">0.221057176589966</parameter><parameter name="AN1">0.225836504044354</parameter><parameter name="AN2">0</parameter><parameter name="VSN">2.485 Apr  4 2017</parameter><parameter name="SRN">0085</parameter><parameter name="CAM">0</parameter><parameter name="INS">IR-Biotyper</parameter><parameter name="FOC">69</parameter><parameter name="RDY">1</parameter></Instrument_Parameters_><History/></OPUSDataFile>
