<?xml version="1.0" encoding="UTF-8" ?>
<OPUSDataFile><AB><Ydata ylabel="Absorbance Units"><values byteorder="INTEL" format="FLOAT32" numvalues="3497"> -0.07133241 -0.07133202 -0.07134043 -0.07135809 -0.07137942 -0.07140408 -0.07141434 -0.07140936 -0.0713722 -0.07130561
 -0.07121491 -0.0711067 -0.07100755 -0.07091973 -0.07086408 -0.07083353 -0.07082693 -0.07083469 -0.07084456 -0.07085364
 -0.07085482 -0.07085106 -0.07084158 -0.07083126 -0.07082083 -0.07081754 -0.07082284 -0.07084404 -0.07088329 -0.07093865
 -0.07101101 -0.07108542 -0.07116111 -0.07121927 -0.07125947 -0.07127114 -0.07125589 -0.07121667 -0.07115695 -0.07108998
 -0.07101884 -0.07095776 -0.0709067 -0.07087266 -0.07085222 -0.07084411 -0.07084547 -0.07085352 -0.07086705 -0.07088617
 -0.07090487 -0.07092299 -0.07092722 -0.0709137 -0.07087638 -0.07081133 -0.07073507 -0.07064772 -0.07057869 -0.07052962
 -0.07051669 -0.07053868 -0.07058361 -0.07064746 -0.07069942 -0.0707384 -0.07074165 -0.07071621 -0.0706652 -0.07060103
 -0.07054599 -0.07050678 -0.07050391 -0.07052623 -0.07057576 -0.07062814 -0.07066982 -0.07068816 -0.07067131 -0.07063308
 -0.07057333 -0.0705125 -0.07045472 -0.07040626 -0.07036826 -0.07034086 -0.07032409 -0.07032643 -0.07034837 -0.07040048
 -0.07048019 -0.07057998 -0.07069189 -0.07078241 -0.07084719 -0.07085449 -0.07081565 -0.07073239 -0.07062408 -0.07051379
 -0.07041456 -0.0703463 -0.07030774 -0.07030661 -0.07032682 -0.07036447 -0.07040536 -0.07044297 -0.07048208 -0.0705222
 -0.07057216 -0.07063413 -0.07069518 -0.07075474 -0.07078829 -0.07079625 -0.07077913 -0.07074139 -0.07071201 -0.07069281
 -0.07070857 -0.07075229 -0.07082138 -0.07090379 -0.07097723 -0.07103631 -0.07106373 -0.0710654 -0.07104062 -0.07099486
 -0.07093073 -0.07085269 -0.0707596 -0.07066922 -0.07058302 -0.07052924 -0.07051278 -0.07055332 -0.07065557 -0.07080448
 -0.071 -0.0711547 -0.07126408 -0.07123663 -0.07108668 -0.07086108 -0.07057729 -0.07032956 -0.07011473 -0.06997269
 -0.06989192 -0.06987291 -0.06989969 -0.06995525 -0.07002352 -0.07008483 -0.07013383 -0.07016005 -0.07017156 -0.07016885
 -0.07016028 -0.07014914 -0.07013478 -0.07011762 -0.07009567 -0.0700682 -0.07004165 -0.07001629 -0.07000487 -0.07000769
 -0.07003181 -0.07007534 -0.07013087 -0.07019393 -0.07024395 -0.07027756 -0.07027436 -0.07023767 -0.07016148 -0.07005671
 -0.06993217 -0.06980197 -0.06968027 -0.06957686 -0.06950229 -0.06945628 -0.069443 -0.06945171 -0.06948097 -0.06951942
 -0.06956428 -0.06961396 -0.06966835 -0.06972428 -0.06978181 -0.06981913 -0.06983525 -0.06980988 -0.06974586 -0.06965152
 -0.0695319 -0.06941112 -0.06929086 -0.06918778 -0.06910031 -0.06903403 -0.06898481 -0.06895147 -0.06892577 -0.06890096
 -0.06886978 -0.06882378 -0.06876857 -0.06870221 -0.06864003 -0.06858654 -0.06854761 -0.068526 -0.06851561 -0.06851571
 -0.06852631 -0.0685473 -0.06858662 -0.06864379 -0.0687132 -0.0687912 -0.06884906 -0.0688857 -0.06887755 -0.06883439
 -0.06876744 -0.06869018 -0.06863348 -0.06859944 -0.06860676 -0.06864161 -0.06869967 -0.06876557 -0.06882555 -0.06888412
 -0.06893744 -0.06900249 -0.0690856 -0.06918555 -0.06930697 -0.06941827 -0.0695176 -0.06956876 -0.0695693 -0.06949767
 -0.06935431 -0.06914388 -0.06887346 -0.06859285 -0.0683107 -0.06808934 -0.0679284 -0.06786236 -0.06787715 -0.06797112
 -0.06811098 -0.06825622 -0.06837965 -0.06843599 -0.06844022 -0.06838457 -0.06830107 -0.06820212 -0.06810416 -0.0680158
 -0.06793503 -0.06786378 -0.06779069 -0.06771445 -0.06762969 -0.06753577 -0.06744106 -0.06734652 -0.06726972 -0.06721145
 -0.06718774 -0.0671949 -0.06723034 -0.06728212 -0.06731661 -0.06732798 -0.06728372 -0.06720129 -0.06708854 -0.06696424
 -0.06685075 -0.06674786 -0.06666393 -0.06658676 -0.06651332 -0.06643414 -0.06634495 -0.0662463 -0.06613741 -0.06602175
 -0.06590002 -0.06577003 -0.06563177 -0.06547764 -0.06530775 -0.0651235 -0.0649274 -0.06473932 -0.06455974 -0.06440259
 -0.06426363 -0.06413747 -0.06402333 -0.06391633 -0.06381968 -0.06373765 -0.06366631 -0.06360803 -0.06354471 -0.06346725
 -0.06335916 -0.06320882 -0.06301935 -0.06278896 -0.06252475 -0.06222831 -0.06190038 -0.06154073 -0.06115476 -0.06074262
 -0.06031555 -0.05987447 -0.05943628 -0.0590032 -0.05859976 -0.05822711 -0.05790566 -0.05762976 -0.05739661 -0.05719618
 -0.05700853 -0.0568277 -0.05663967 -0.05643706 -0.05621208 -0.05594928 -0.05563431 -0.05526835 -0.05484274 -0.05438665
 -0.05390729 -0.05342233 -0.05293768 -0.05245188 -0.05196523 -0.05147708 -0.05098721 -0.05050216 -0.05002256 -0.04956087
 -0.04911729 -0.04870216 -0.04830984 -0.04792692 -0.04753798 -0.04709079 -0.04658313 -0.04597424 -0.04530143 -0.04459598
 -0.04388977 -0.0432299 -0.04260804 -0.04203559 -0.04148825 -0.04095837 -0.04042841 -0.03989007 -0.03934336 -0.0387859
 -0.03822825 -0.03767228 -0.03711641 -0.03656123 -0.03598369 -0.03538274 -0.03473714 -0.03404915 -0.03332603 -0.03257224
 -0.0318108 -0.03104405 -0.03028891 -0.02954859 -0.02883713 -0.02815566 -0.02751475 -0.02690393 -0.02631936 -0.02574599
 -0.02517213 -0.02459315 -0.02400615 -0.02340262 -0.02278316 -0.02212296 -0.02141567 -0.02065507 -0.01983543 -0.01900261
 -0.01815898 -0.01735543 -0.01659275 -0.01587386 -0.01519515 -0.0145295 -0.01387488 -0.01320707 -0.01252921 -0.01183541
 -0.01113455 -0.01044111 -0.009760787 -0.009111814 -0.008482265 -0.007872911 -0.007255579 -0.006611853 -0.005926205 -0.005180784
 -0.004397874 -0.003576866 -0.002755404 -0.001941365 -0.001154961 -0.0004009012 0.0003238021 0.001018516 0.00170311 0.002378676
 0.003066451 0.003766365 0.004487082 0.005227969 0.005991157 0.006775821 0.007583559 0.008407175 0.009236134 0.01005788
 0.0108488 0.0116084 0.01232263 0.0130116 0.0136822 0.01435671 0.01504903 0.01576171 0.01650168 0.0172496
 0.01800345 0.0187433 0.01946458 0.0201741 0.02087123 0.02158653 0.02232103 0.02309123 0.02389397 0.02470995
 0.02553592 0.02634544 0.02714185 0.02792095 0.02868741 0.02944949 0.03020724 0.03096444 0.03171919 0.0324709
 0.03321825 0.0339598 0.03469627 0.03542616 0.03615656 0.03688875 0.03763098 0.03838677 0.03915009 0.03992171
 0.04068421 0.04143615 0.04217048 0.04288739 0.04359731 0.04430104 0.04501027 0.04572354 0.04644079 0.04715908
 0.04786927 0.04857101 0.04925783 0.04993451 0.05060452 0.05127314 0.05194824 0.05262761 0.0533127 0.05399865
 0.05468236 0.05536606 0.05605043 0.05673465 0.05742054 0.05809426 0.05875396 0.05939178 0.06000616 0.06061423
 0.06121691 0.06183504 0.0624671 0.06310923 0.06375764 0.06439155 0.06501151 0.06560638 0.06618341 0.06675085
 0.06731709 0.06789947 0.06849628 0.06911634 0.06974228 0.0703664 0.07097168 0.07154485 0.07209173 0.0726089
 0.07311627 0.0736182 0.07412296 0.07463297 0.07514359 0.07565446 0.07616614 0.07667893 0.07720332 0.07774009
 0.07830103 0.07888555 0.07949872 0.08013613 0.08078907 0.08144974 0.08209756 0.08272952 0.0833307 0.08390708
 0.08445951 0.08499258 0.08551136 0.08601214 0.08649382 0.08695561 0.08739455 0.08782277 0.08824117 0.08866607
 0.08910023 0.08954964 0.09001541 0.09049002 0.090973 0.09145267 0.09192946 0.09240213 0.0928727 0.09335143
 0.09383698 0.09433243 0.09483139 0.09532107 0.09580006 0.09625675 0.09670402 0.09714819 0.09760659 0.0980965
 0.09861524 0.09917304 0.09973501 0.1002955 0.1008126 0.1012727 0.1016725 0.1020054 0.1023163 0.1026082
 0.1029193 0.1032502 0.1035803 0.1039055 0.1041769 0.1043991 0.1045652 0.1046901 0.1048163 0.1049526
 0.1051415 0.1053747 0.1056619 0.1059836 0.1063245 0.106668 0.1069943 0.107309 0.1076031 0.1079108
 0.1082404 0.1086203 0.1090646 0.1095473 0.1100722 0.1105623 0.1110117 0.1113595 0.1116037 0.1117555
 0.111821 0.1118643 0.1118879 0.1119393 0.1120116 0.1121053 0.1122196 0.1123484 0.1125071 0.1127185
 0.1129855 0.1133317 0.1137159 0.1141227 0.1144996 0.114809 0.1150553 0.1152208 0.1153729 0.1155222
 0.115726 0.1159989 0.1163272 0.1167135 0.1170893 0.1174511 0.1177374 0.1179502 0.1180821 0.1181437
 0.1181812 0.1182061 0.1182794 0.1184021 0.1186097 0.1188874 0.1192341 0.1196208 0.1200208 0.1204038
 0.1207373 0.1210153 0.1212188 0.1213821 0.1215073 0.1216474 0.121814 0.1220434 0.1223428 0.122727
 0.1231976 0.1237665 0.1244342 0.1252 0.1260585 0.126958 0.1278821 0.1287197 0.129459 0.1299931
 0.1303452 0.1304977 0.1305159 0.130484 0.1304638 0.1305623 0.1307725 0.1311413 0.1315811 0.1320706
 0.1325058 0.1328436 0.1330386 0.1330642 0.1329568 0.1327122 0.1324167 0.1320764 0.1317644 0.1314839
 0.1312523 0.1310672 0.1309073 0.1307725 0.1306502 0.1305455 0.1304698 0.1304235 0.1304196 0.1304398
 0.1304713 0.130472 0.1303984 0.1302055 0.1298403 0.1293034 0.1285652 0.1277017 0.1267215 0.1257325
 0.1247615 0.1238713 0.1230788 0.1223801 0.1217782 0.1212353 0.1207496 0.1202718 0.1197997 0.1192899
 0.1187479 0.1181763 0.1175901 0.1170436 0.1165371 0.1161085 0.1157236 0.1153502 0.1149507 0.1144627
 0.1138984 0.1132318 0.1125351 0.1118296 0.1111991 0.110681 0.1103062 0.1101009 0.1100015 0.1100124
 0.1099943 0.1099363 0.1097222 0.1093468 0.1088153 0.1081374 0.1074226 0.1066789 0.1060089 0.1054041
 0.1048918 0.1044577 0.1040823 0.1037571 0.1034625 0.103189 0.1029221 0.1026466 0.1023462 0.1020148
 0.1016408 0.1012404 0.1008137 0.1003892 0.09997402 0.09958418 0.09922504 0.09888785 0.09857325 0.09825712
 0.09793826 0.0975995 0.09724143 0.09686509 0.09647287 0.09607828 0.09568299 0.09529991 0.09492846 0.09457413
 0.09423426 0.093908 0.09359049 0.09327745 0.09296154 0.09263667 0.09229591 0.09193327 0.09154874 0.09113953
 0.0907142 0.09027367 0.08982793 0.08937878 0.08893094 0.08848497 0.08804365 0.08760715 0.08718084 0.08676489
 0.08636398 0.08597711 0.0856019 0.08523608 0.08487073 0.08450431 0.08412824 0.08374403 0.0833494 0.08294874
 0.08254526 0.08214455 0.08174989 0.08137134 0.08101156 0.08069026 0.08041514 0.08019847 0.0800515 0.0799401
 0.07986746 0.07974891 0.07957735 0.07928421 0.07886583 0.07834125 0.07771798 0.07709333 0.07647518 0.0759621
 0.07554742 0.07526725 0.07509547 0.07499598 0.0749331 0.07483242 0.07467779 0.07441213 0.07406715 0.07363968
 0.07319043 0.07275397 0.07235591 0.07202192 0.0717188 0.07144321 0.07116535 0.07087369 0.07060382 0.07035553
 0.07019886 0.07013749 0.07018993 0.07035006 0.0705476 0.07076999 0.07090639 0.0709554 0.07084572 0.07060067
 0.07023189 0.06977911 0.06931239 0.06885457 0.06846626 0.0681294 0.06785321 0.06760456 0.06736264 0.06712705
 0.06688838 0.06667352 0.06649098 0.06633957 0.06622445 0.06610639 0.06598126 0.06583274 0.06565974 0.06550095
 0.06535877 0.06527735 0.06525176 0.06527692 0.06534234 0.06540673 0.0654669 0.06549232 0.06549098 0.06546196
 0.06541429 0.06536198 0.06529795 0.06522872 0.06512165 0.06496395 0.06472115 0.06436988 0.06392607 0.06337759
 0.06280925 0.06222875 0.06173108 0.06132932 0.06104177 0.06087026 0.0607364 0.06063417 0.06046052 0.06021887
 0.05987198 0.05943929 0.05896945 0.05848042 0.05804456 0.05765558 0.05734134 0.05707372 0.05683175 0.05659181
 0.05632429 0.05603045 0.05569813 0.05535222 0.05499629 0.05466281 0.05436188 0.05410708 0.05390675 0.05373016
 0.05357772 0.05338682 0.05315385 0.05284555 0.05246513 0.05205078 0.05160991 0.05121166 0.05085043 0.05054729
 0.05028185 0.05001291 0.04973167 0.04939705 0.04903049 0.04863796 0.04824802 0.04789059 0.04756616 0.04728704
 0.0470328 0.04679558 0.04657301 0.04635914 0.04617739 0.04603146 0.04593429 0.04589 0.04587256 0.04588088
 0.04586328 0.04581771 0.0457032 0.04552329 0.04527568 0.0449718 0.04464998 0.04432395 0.04404673 0.0438242
 0.04369175 0.04364432 0.04369064 0.0438211 0.04403115 0.04431213 0.04465923 0.04506296 0.04552054 0.04601813
 0.04655268 0.04710973 0.04768508 0.04827927 0.04888961 0.04954905 0.05025912 0.05107647 0.05200276 0.05307466
 0.05428594 0.05561813 0.05705899 0.05855264 0.06009277 0.06163397 0.06318076 0.06471981 0.066259 0.06780287
 0.0693564 0.07092445 0.0725122 0.07412208 0.07576365 0.07744047 0.07916154 0.0809323 0.08274497 0.08460342
 0.08646844 0.08833931 0.09015024 0.09189757 0.09350877 0.09498001 0.09624431 0.09729888 0.09808863 0.09861936
 0.09887226 0.09887895 0.09869373 0.09837924 0.09805915 0.0977983 0.09772718 0.0978662 0.09828676 0.09894827
 0.09985449 0.1009397 0.1021793 0.1035294 0.1049724 0.1064948 0.1080916 0.1097597 0.1114987 0.1133027
 0.1151715 0.1170946 0.1190714 0.1210906 0.123155 0.1252728 0.1274572 0.1297588 0.1321968 0.1348521
 0.137717 0.1408471 0.1441401 0.1475613 0.1508222 0.1537551 0.1558807 0.1569094 0.1564303 0.1541464
 0.1501478 0.1442918 0.137312 0.1292524 0.1211026 0.1129696 0.1055554 0.09891385 0.09322713 0.08848426
 0.08449747 0.08123876 0.0784336 0.07606956 0.07395565 0.07209023 0.07037688 0.06881028 0.06733993 0.06595808
 0.06463422 0.0633697 0.06215268 0.06099699 0.05990561 0.05889626 0.05797616 0.05715852 0.05644842 0.05585212
 0.05537196 0.05500701 0.05475746 0.05462139 0.05459866 0.05469251 0.05490189 0.05521407 0.05561937 0.05605009
 0.05648732 0.05681734 0.05703411 0.05705308 0.05690568 0.05659768 0.05618995 0.05575571 0.05535064 0.05504765
 0.05487354 0.05486521 0.05502529 0.05535972 0.05587799 0.05657282 0.05750755 0.0586828 0.06021838 0.06213423
 0.06445179 0.06718138 0.06996435 0.07275695 0.07474857 0.07588825 0.07537181 0.07329135 0.06951393 0.06431716
 0.05832993 0.05183025 0.0456292 0.03980397 0.03481104 0.03052054 0.02698988 0.02402763 0.02153397 0.01938324
 0.0174984 0.0158294 0.01434999 0.01303311 0.01187259 0.01083791 0.009926085 0.009105478 0.008374021 0.007702692
 0.007090167 0.006513336 0.005971911 0.005452353 0.004955664 0.00447802 0.004021763 0.003591188 0.003187854 0.002818696
 0.002478434 0.002166723 0.001868103 0.001570491 0.001258044 0.0009153367 0.0005430556 0.0001331108 -0.0002903732 -0.0007253598
 -0.001137096 -0.001518156 -0.001850635 -0.0021292 -0.002372524 -0.00258093 -0.002795046 -0.00301599 -0.00326355 -0.003533897
 -0.003807303 -0.004080777 -0.004327731 -0.004556193 -0.004772368 -0.004989056 -0.005236194 -0.005512255 -0.005832753 -0.006176914
 -0.006533458 -0.006880309 -0.007198963 -0.007483639 -0.007725309 -0.007933496 -0.00810732 -0.008264472 -0.008406651 -0.008556135
 -0.008715631 -0.008901075 -0.009114138 -0.009349247 -0.009605365 -0.009859751 -0.01011161 -0.01034358 -0.01055793 -0.01075485
 -0.01093726 -0.01111361 -0.01128437 -0.01145484 -0.01162312 -0.01178938 -0.01195045 -0.01210418 -0.01224628 -0.01237355
 -0.01248317 -0.01257192 -0.01264391 -0.0126973 -0.01274779 -0.01279633 -0.01286615 -0.01296038 -0.01309195 -0.0132626
 -0.01345739 -0.01367469 -0.01387929 -0.01407046 -0.0142242 -0.0143457 -0.01444289 -0.01452404 -0.01461743 -0.01472451
 -0.0148648 -0.01502689 -0.01520622 -0.01538541 -0.01554511 -0.01568061 -0.01577824 -0.01585707 -0.01591894 -0.01599217
 -0.0160868 -0.01621352 -0.01637846 -0.01656858 -0.01678388 -0.01700435 -0.01722855 -0.01744372 -0.01764944 -0.01784057
 -0.01801755 -0.01818094 -0.01833208 -0.01847713 -0.01861696 -0.01875785 -0.01889835 -0.01903898 -0.01917719 -0.01930894
 -0.01943525 -0.01955436 -0.01967176 -0.01979013 -0.01991428 -0.02004774 -0.02018972 -0.02034141 -0.0204977 -0.02065808
 -0.02081672 -0.02097292 -0.02112211 -0.02126393 -0.02139481 -0.02151461 -0.02162105 -0.02171406 -0.02179182 -0.02185452
 -0.02190114 -0.02193375 -0.0219563 -0.02197383 -0.02199767 -0.02203183 -0.02208747 -0.02216299 -0.02226174 -0.02237834
 -0.02251017 -0.02265383 -0.02280762 -0.0229681 -0.02313508 -0.0233005 -0.02346298 -0.02361545 -0.02375636 -0.02388718
 -0.02400776 -0.02412398 -0.02423597 -0.02434451 -0.02444932 -0.02454805 -0.02464146 -0.02473157 -0.02481985 -0.0249121
 -0.02500778 -0.02510911 -0.02521356 -0.02531844 -0.02542237 -0.02552252 -0.02562016 -0.0257153 -0.02580919 -0.02590295
 -0.02599494 -0.02608499 -0.02617107 -0.02625215 -0.0263308 -0.02640686 -0.02648632 -0.02656968 -0.02665972 -0.02675637
 -0.02685544 -0.02695658 -0.02705476 -0.02715073 -0.02724506 -0.02733935 -0.02743893 -0.0275439 -0.02765781 -0.02777785
 -0.02790201 -0.02802681 -0.02814752 -0.02826433 -0.02837483 -0.028484 -0.02859301 -0.02870762 -0.02883039 -0.02896208
 -0.02910412 -0.02925069 -0.02940165 -0.02954827 -0.0296899 -0.02981962 -0.0299372 -0.03004033 -0.03012939 -0.03020642
 -0.03027246 -0.03033296 -0.03038952 -0.03044973 -0.03051439 -0.03058944 -0.03067291 -0.03076513 -0.03086247 -0.03096125
 -0.03106008 -0.0311565 -0.03125198 -0.03134719 -0.03144119 -0.03153451 -0.03162274 -0.03170463 -0.03177963 -0.03184672
 -0.03191397 -0.03198183 -0.03205929 -0.03214656 -0.03224318 -0.03234833 -0.03245428 -0.03256096 -0.03266362 -0.03276348
 -0.03286225 -0.03295965 -0.0330569 -0.03315077 -0.03323727 -0.03331364 -0.03337451 -0.03342237 -0.0334561 -0.03348248
 -0.03350402 -0.03352675 -0.03355308 -0.03358625 -0.03362733 -0.033678 -0.03373861 -0.03381008 -0.03389259 -0.03398489
 -0.0340868 -0.03419377 -0.03430503 -0.03441226 -0.03451451 -0.03460226 -0.03467615 -0.03473188 -0.03477331 -0.03480547
 -0.03483361 -0.03486793 -0.0349099 -0.03496598 -0.03503156 -0.0351061 -0.03518335 -0.03525998 -0.03533321 -0.03540124
 -0.03546409 -0.03552158 -0.03557335 -0.03561927 -0.03565961 -0.0356942 -0.03572739 -0.03575946 -0.03579756 -0.03584196
 -0.03589833 -0.03596611 -0.03604595 -0.03613629 -0.036233 -0.03633438 -0.03643467 -0.03653356 -0.03662781 -0.0367186
 -0.0368061 -0.03689096 -0.03697383 -0.0370546 -0.03713276 -0.03721061 -0.03728826 -0.0373701 -0.0374575 -0.03755086
 -0.03765104 -0.03775186 -0.03785295 -0.03794836 -0.03803787 -0.03812061 -0.03819676 -0.03826794 -0.03833417 -0.03839615
 -0.0384544 -0.03851068 -0.03856585 -0.03862295 -0.03868143 -0.03874215 -0.03880328 -0.03886272 -0.03892086 -0.03897631
 -0.03903335 -0.03909369 -0.0391604 -0.03923615 -0.0393161 -0.03940061 -0.03947936 -0.03955054 -0.03961085 -0.03965935
 -0.03970551 -0.03974982 -0.03980434 -0.03986865 -0.03994371 -0.04002756 -0.04011049 -0.04019187 -0.04026361 -0.04032844
 -0.04038789 -0.04044534 -0.0405073 -0.04057325 -0.04064632 -0.04072133 -0.04079557 -0.04086521 -0.0409266 -0.04098249
 -0.04103282 -0.04108132 -0.04112977 -0.04117458 -0.04121589 -0.0412467 -0.04126614 -0.04127575 -0.04127574 -0.041277
 -0.04127996 -0.04129349 -0.04131672 -0.04135013 -0.04139215 -0.04143833 -0.04148728 -0.04153425 -0.04157775 -0.04161333
 -0.04164081 -0.04165728 -0.04166661 -0.04166947 -0.04167315 -0.04168145 -0.04169877 -0.0417286 -0.04176698 -0.04181452
 -0.04186204 -0.04190812 -0.04194809 -0.0419811 -0.04201105 -0.04203814 -0.04206725 -0.04209815 -0.04212969 -0.04216131
 -0.04218915 -0.04221351 -0.04223324 -0.04224933 -0.04226356 -0.04227632 -0.04228926 -0.04230154 -0.04231291 -0.04232245
 -0.0423288 -0.04233354 -0.04233639 -0.04234152 -0.0423505 -0.04236506 -0.04238694 -0.04240992 -0.04243366 -0.04245014
 -0.0424583 -0.04245822 -0.04244997 -0.04244246 -0.04243629 -0.04244077 -0.04245608 -0.04248771 -0.04253599 -0.04260443
 -0.042694 -0.04280829 -0.0429486 -0.04311841 -0.04331848 -0.0435511 -0.04381603 -0.04411351 -0.04444417 -0.04480671
 -0.04520836 -0.04564936 -0.04614426 -0.04669611 -0.04731685 -0.04801046 -0.04876884 -0.04959335 -0.0504485 -0.05133215
 -0.0521855 -0.05300347 -0.05371332 -0.05430759 -0.05470889 -0.05491151 -0.05485124 -0.05453704 -0.05394042 -0.05311619
 -0.05211903 -0.05104113 -0.05000324 -0.04905846 -0.04828906 -0.04769506 -0.04729785 -0.04708302 -0.04705323 -0.04718174
 -0.04747372 -0.04784703 -0.04829914 -0.04869297 -0.04901423 -0.04919845 -0.04924254 -0.04920274 -0.04908353 -0.04895471
 -0.04881467 -0.04869121 -0.04857773 -0.04846762 -0.04835457 -0.04821895 -0.04806348 -0.047882 -0.04768373 -0.04747786
 -0.04726653 -0.04705567 -0.04684034 -0.04661791 -0.04639068 -0.04615694 -0.04592797 -0.04570597 -0.04549976 -0.04531169
 -0.04514117 -0.04498889 -0.04484529 -0.04470987 -0.04456917 -0.04442321 -0.04426754 -0.04410423 -0.04394257 -0.04378437
 -0.04364106 -0.04351196 -0.04340087 -0.04330704 -0.04323038 -0.04317193 -0.0431336 -0.04311356 -0.04311301 -0.04312348
 -0.04314182 -0.04315854 -0.04316884 -0.04317079 -0.04316218 -0.04314828 -0.04312946 -0.04311104 -0.04309382 -0.0430773
 -0.04306148 -0.04304253 -0.04302064 -0.04299659 -0.0429717 -0.04295419 -0.04294484 -0.04295168 -0.04297246 -0.04300669
 -0.04305007 -0.04309547 -0.0431402 -0.043178 -0.04320952 -0.04323295 -0.04325054 -0.04326312 -0.04327192 -0.04327791
 -0.04327998 -0.04327793 -0.04327134 -0.04325954 -0.04324719 -0.0432345 -0.04322765 -0.04322698 -0.04323203 -0.04324228
 -0.04325056 -0.0432569 -0.0432572 -0.04325312 -0.04324834 -0.04324415 -0.04324605 -0.04325253 -0.04326429 -0.04327777
 -0.04328924 -0.04329623 -0.04329484 -0.04328668 -0.04327051 -0.04325216 -0.04323322 -0.04321887 -0.04321125 -0.04320985
 -0.04321547 -0.0432222 -0.04322962 -0.04323225 -0.04322976 -0.04322199 -0.04320926 -0.04319566 -0.04318152 -0.04317103
 -0.04316395 -0.04316178 -0.04316377 -0.04316907 -0.04317657 -0.04318434 -0.0431908 -0.04319353 -0.04319112 -0.04318094
 -0.04316495 -0.04314234 -0.04311939 -0.0430978 -0.04308377 -0.04307988 -0.04308566 -0.04310234 -0.0431214 -0.04314242
 -0.04315507 -0.04315875 -0.04315046 -0.04313084 -0.04310784 -0.04308283 -0.04306849 -0.04306439 -0.04307674 -0.04310222
 -0.0431365 -0.04317573 -0.04321123 -0.04324198 -0.04326309 -0.04327594 -0.04328017 -0.04327701 -0.04326724 -0.04325099
 -0.04322806 -0.04320044 -0.04316793 -0.04313577 -0.04310457 -0.0430796 -0.04306158 -0.04305173 -0.04305017 -0.04305403
 -0.04306303 -0.04307288 -0.04308313 -0.04308881 -0.04308954 -0.04308078 -0.04306347 -0.04303665 -0.04300377 -0.04296959
 -0.04293821 -0.04291686 -0.04290598 -0.04290967 -0.04292249 -0.04294328 -0.04296483 -0.0429836 -0.04299777 -0.04300558
 -0.04301058 -0.04301324 -0.04301548 -0.04301785 -0.04301663 -0.04301163 -0.04299942 -0.04298025 -0.04295674 -0.04292971
 -0.04290565 -0.04288491 -0.04287233 -0.04286748 -0.04287215 -0.04288476 -0.04290423 -0.04292712 -0.0429494 -0.04296733
 -0.04297585 -0.04297534 -0.0429634 -0.04294588 -0.04292419 -0.042904 -0.04288775 -0.0428748 -0.04286589 -0.04285596
 -0.04284442 -0.04282955 -0.04281117 -0.04279371 -0.04277731 -0.04276522 -0.04275661 -0.04274763 -0.04273726 -0.04271866
 -0.04269333 -0.04266065 -0.04262441 -0.04259104 -0.04256247 -0.04254468 -0.04253471 -0.04253288 -0.04253381 -0.04253421
 -0.04253188 -0.04252445 -0.04251467 -0.0425026 -0.04249186 -0.04248328 -0.04247745 -0.04247451 -0.04247457 -0.04247763
 -0.04248627 -0.04250054 -0.04252205 -0.04254991 -0.04257958 -0.0426094 -0.04263027 -0.04264197 -0.04263823 -0.04262236
 -0.04259638 -0.04256563 -0.04253757 -0.04251485 -0.04250345 -0.04249972 -0.0425039 -0.04251004 -0.04251501 -0.04251868
 -0.04251952 -0.04252328 -0.04253087 -0.04254542 -0.04256784 -0.04259378 -0.04262308 -0.04264794 -0.04266809 -0.04267818
 -0.04267877 -0.04267044 -0.04265479 -0.04263822 -0.04262213 -0.04261394 -0.04261244 -0.04261945 -0.04263187 -0.04264634
 -0.04266152 -0.04267462 -0.04268704 -0.04269909 -0.04271122 -0.04272415 -0.04273588 -0.04274582 -0.04275342 -0.04275796
 -0.04276343 -0.04277011 -0.04278198 -0.04279937 -0.04281935 -0.04284144 -0.04285698 -0.04286608 -0.04286435 -0.04285398
 -0.042841 -0.04282791 -0.04282495 -0.04283147 -0.04285211 -0.04288239 -0.04291908 -0.04295719 -0.04299091 -0.04301883
 -0.04303719 -0.04305104 -0.04306056 -0.04307406 -0.04309432 -0.04312405 -0.04316521 -0.04321065 -0.0432601 -0.04330426
 -0.04334244 -0.04337362 -0.04339806 -0.04342116 -0.04344289 -0.04346601 -0.04348939 -0.04351008 -0.04352715 -0.04353618
 -0.04353813 -0.04353177 -0.04352081 -0.04350873 -0.04350028 -0.04350118 -0.04351275 -0.04353891 -0.04357387 -0.04361759
 -0.04365935 -0.04369644 -0.04372045 -0.04372857 -0.04372237 -0.04370088 -0.0436759 -0.04364807 -0.04362901 -0.0436189
 -0.04362068 -0.04363372 -0.04365509 -0.04368409 -0.04371697 -0.04375245 -0.04378556 -0.04381479 -0.04383431 -0.04384564
 -0.04384729 -0.04384423 -0.04384054 -0.04383888 -0.0438431 -0.04385012 -0.04385974 -0.0438684 -0.04387455 -0.04387881
 -0.04388098 -0.0438825 -0.0438837 -0.04388277 -0.04387961 -0.04387297 -0.04386308 -0.04385404 -0.04384652 -0.04384784
 -0.04385778 -0.04387986 -0.04391238 -0.04395289 -0.04399954 -0.0440478 -0.04409682 -0.04414419 -0.04418823 -0.04422728
 -0.04425831 -0.04427865 -0.0442879 -0.04428391 -0.04427292 -0.04425541 -0.0442405 -0.04423025 -0.04422851 -0.04423648
 -0.04425027 -0.04426977 -0.04428812 -0.04430521 -0.04431907 -0.0443305 -0.04434464 -0.04436209 -0.04438872 -0.04442324
 -0.04446589 -0.04451365 -0.04456164 -0.04460613 -0.0446403 -0.0446622 -0.04466603 -0.04465697 -0.0446344 -0.04461073
 -0.04459151 -0.04458289 -0.04458999 -0.04460337 -0.04462299 -0.0446344 -0.04463518 -0.04462352 -0.04459883 -0.0445727
 -0.04454567 -0.04452816 -0.04451955 -0.04452044 -0.04452925 -0.0445395 -0.04455052 -0.04455633 -0.04455899 -0.04455906
 -0.04455991 -0.04456722 -0.04458 -0.04460092 -0.04462318 -0.04464316 -0.04465654 -0.04465878 -0.04465596 -0.04464804
 -0.04464487 -0.04464905 -0.04466191 -0.0446847 -0.04470839 -0.04473244 -0.04474931 -0.04475912 -0.04476677 -0.04477343
 -0.04479142 -0.04481956 -0.04486086 -0.04491011 -0.04495466 -0.04499001 -0.04499957 -0.04498745 -0.04494993 -0.04489867
 -0.04484293 -0.04479124 -0.04475258 -0.04472744 -0.0447191 -0.04472213 -0.04473632 -0.04475362 -0.04477249 -0.04478738
 -0.04479698 -0.04480289 -0.04480489 -0.04481132 -0.04482254 -0.04484606 -0.04488067 -0.04492148 -0.04496471 -0.04499038
 -0.0449979 -0.04497209 -0.04492214 -0.04485801 -0.04478909 -0.04473426 -0.04469203 -0.04466837 -0.04465744 -0.04465709
 -0.04466346 -0.04467548 -0.04468623 -0.04469442 -0.04469031 -0.04467088 -0.0446362 -0.04458497 -0.04452908 -0.04446929
 -0.04441495 -0.0443663 -0.04432467 -0.04428981 -0.04426062 -0.04423668 -0.04421561 -0.04419706 -0.04417865 -0.0441605
 -0.04414253 -0.04412275 -0.04409916 -0.04406814 -0.04402348 -0.04396989 -0.0439062 -0.04384538 -0.04379457 -0.04375517
 -0.04373174 -0.04370921 -0.04368493 -0.04365004 -0.04360162 -0.04355093 -0.04349857 -0.04345506 -0.04342013 -0.04338111
 -0.04333568 -0.04325727 -0.04314733 -0.04299504 -0.0428105 -0.04261728 -0.04242327 -0.04225906 -0.0421168 -0.0420008
 -0.0418954 -0.04178517 -0.04166618 -0.04152732 -0.04138323 -0.04123735 -0.04110321 -0.04098877 -0.040886 -0.04079789
 -0.04069494 -0.04057487 -0.04040439 -0.04017977 -0.03990677 -0.03958725 -0.03927882 -0.03898289 -0.03873949 -0.03854013
 -0.03836766 -0.03821242 -0.03803539 -0.03783729 -0.03759864 -0.03733007 -0.03703773 -0.03673159 -0.03642526 -0.03611841
 -0.03581975 -0.03550921 -0.03518505 -0.03481028 -0.03436978 -0.0338564 -0.0332582 -0.03262947 -0.0319758 -0.03133807
 -0.03072168 -0.03010116 -0.02947533 -0.02881704 -0.02812941 -0.02743223 -0.02672494 -0.02602178 -0.02530573 -0.02453138
 -0.02369031 -0.02272877 -0.02168693 -0.02059404 -0.01949683 -0.0184637 -0.01748071 -0.01656356 -0.01567595 -0.01480051
 -0.01393074 -0.01305979 -0.01219556 -0.01134598 -0.0104713 -0.00957509 -0.008546162 -0.007374581 -0.006012755 -0.004463855
 -0.002897471 -0.001322975 9.300715E-05 0.00137533 0.002555714 0.003660743 0.004789641 0.005944776 0.007175989 0.008481594
 0.00986663 0.01136716 0.01300149 0.01485615 0.01699696 0.01947177 0.02236003 0.0255102 0.02892261 0.03231946
 0.03563477 0.03873961 0.04159771 0.04425094 0.04669621 0.04904744 0.0513131 0.05369085 0.05620012 0.05912744
 0.0624434 0.06620748 0.07027721 0.07421718 0.07799923 0.08130431 0.08430111 0.08710197 0.089835 0.09268998
 0.09566529 0.09882324 0.1021122 0.1055188 0.1090195 0.1126175 0.1162337 0.1198589 0.1233898 0.1267999
 0.1301384 0.133406 0.1366831 0.1399685 0.1431142 0.1461041 0.1487067 0.1509483 0.1528256 0.1543949
 0.1558437 0.1571681 0.1584743 0.1596737 0.1606559 0.1614308 0.1619363 0.1622979 0.1625954 0.162878
 0.1632092 0.163522 0.1638082 0.1640084 0.1640975 0.164109 0.1640379 0.1639765 0.1639333 0.1639501
 0.1640263 0.1640574 0.1640354 0.1638385 0.1634745 0.1629217 0.1621865 0.1612778 0.1601954 0.1589351
 0.1575149 0.1559505 0.1542807 0.1525512 0.150785 0.1490124 0.1472412 0.1454733 0.1437464 0.1420659
 0.1404929 0.1390452 0.13774 0.1365851 0.1355553 0.134649 0.1338515 0.1331623 0.1325872 0.1321259
 0.1317805 0.1315483 0.1314174 0.1313845 0.1314335 0.1315629 0.1317612 0.1320293 0.1323621 0.1327655
 0.1332409 0.133802 0.1344554 0.1352229 0.1361115 0.1371543 0.1383569 0.139773 0.1414139 0.1433252
 0.1455226 0.1479671 0.1506627 0.1534665 0.1563703 0.1591915 0.1619142 0.1643196 0.16638 0.1678226
 0.1686588 0.1687506 0.1681947 0.1671181 0.165635 0.1639626 0.1621905 0.160491 0.1589044 0.1575238
 0.1563116 0.1552756 0.1543636 0.1535494 0.1528496 0.152257 0.1518345 0.1516024 0.1514929 0.1515067
 0.1514882 0.1514307 0.1513093 0.1511302 0.1509522 0.1507799 0.1506688 0.1506171 0.1506571 0.1507668
 0.1509512 0.1510943 0.1510864 0.1506562 0.1494503 0.1473816 0.1441778 0.1401871 0.1355129 0.1304246
 0.1250318 0.1194958 0.1138393 0.108346 0.1030562 0.09819376 0.09379153 0.08980361 0.08622726 0.08288713
 0.07978047 0.07681889 0.07401282 0.07137891 0.06891262 0.06661718 0.06446034 0.06237452 0.06033025 0.05824857
 0.05612899 0.05394169 0.05169439 0.04939405 0.04701212 0.04453646 0.04194283 0.03918101 0.03642637 0.03368803
 0.03124012 0.0291504 0.02736272 0.02588688 0.02450074 0.0231938 0.02185786 0.02049826 0.01914104 0.01779511
 0.01652383 0.01532375 0.01421073 0.01318984 0.012269 0.01148193 0.01088187 0.01049976 0.01039698 0.01056282
 0.01101235 0.01171712 0.01266735 0.01383935 0.0152253 0.01679933 0.01855017 0.02048505 0.02259748 0.02495504
 0.02756891 0.03040637 0.0334637 0.0364048 0.03921045 0.04153557 0.04340827 0.0448083 0.04577321 0.04642108
 0.0467617 0.04686463 0.04675071 0.04646473 0.04607023 0.04563818 0.0452569 0.04502439 0.04495703 0.0451199
 0.04538111 0.04570803 0.04600246 0.04622006 0.04639999 0.04653908 0.0467033 0.0469005 0.04714184 0.04742796
 0.04771747 0.04800907 0.04827137 0.04851182 0.04875286 0.04900888 0.04934424 0.04976001 0.05030171 0.05093502
 0.05162585 0.05234552 0.05303289 0.05372574 0.0544235 0.05519409 0.05607929 0.05709711 0.05827393 0.05956097
 0.06095365 0.06239951 0.06388799 0.06540421 0.06694724 0.06849151 0.07003532 0.07148288 0.07282801 0.0739632
 0.07489332 0.07559062 0.07606573 0.07634364 0.07642403 0.07632034 0.07602372 0.07552405 0.07481968 0.07390114
 0.07278056 0.07146228 0.06996226 0.06828924 0.06645554 0.06446322 0.06233713 0.06007414 0.05774463 0.05535197
 0.05300441 0.05071293 0.04854427 0.04650246 0.04457679 0.04276509 0.04103517 0.03938891 0.03782202 0.03633709
 0.03494551 0.03363796 0.03240358 0.03122013 0.03004997 0.02886932 0.02763704 0.02634045 0.02495186 0.02348423
 0.02192842 0.02033166 0.01870337 0.01710314 0.01554867 0.01406855 0.01267342 0.0113469 0.0100892 0.008872783
 0.007696117 0.006565202 0.005483082 0.004493027 0.00359662 0.002828187 0.002180252 0.001645964 0.001214202 0.0008559627
 0.0005630184 0.000309946 9.102317E-05 -0.0001089998 -0.0002949606 -0.0004742282 -0.0006527917 -0.0008348312 -0.001027024 -0.001233661
 -0.001454158 -0.001690669 -0.001932713 -0.002178626 -0.002422428 -0.002662053 -0.002913179 -0.003176545 -0.003481364 -0.003827892
 -0.004228241 -0.004677319 -0.005152655 -0.005645166 -0.006110263 -0.006542591 -0.006905054 -0.007202386 -0.007424224 -0.007581415
 -0.007681708 -0.007735707 -0.007751724 -0.007744741 -0.00772151 -0.007704583 -0.007703333 -0.007733679 -0.007803483 -0.007908477
 -0.008050341 -0.008213871 -0.0083976 -0.008592508 -0.008797968 -0.009014697 -0.009243169 -0.009490072 -0.009756206 -0.01004997
 -0.01037141 -0.01072558 -0.01111116 -0.01152791 -0.01197348 -0.01244506 -0.01293761 -0.01344604 -0.01396128 -0.0144754
 -0.01497949 -0.01546645 -0.01593208 -0.01637347 -0.01678813 -0.01717525 -0.01753174 -0.01785656 -0.01815103 -0.01841461
 -0.0186566 -0.0188775 -0.01908879 -0.01929083 -0.01949062 -0.01968771 -0.01988308 -0.02007567 -0.02026252 -0.02044212
 -0.02060984 -0.0207635 -0.02089797 -0.02101013 -0.0210939 -0.02114891 -0.02117084 -0.02116721 -0.02113972 -0.0210991
 -0.02105089 -0.02099696 -0.02093995 -0.02087314 -0.02079511 -0.02070577 -0.02060411 -0.02050235 -0.02040112 -0.02031171
 -0.02023396 -0.02016692 -0.02010934 -0.02005241 -0.0199961 -0.01993485 -0.01987106 -0.01980731 -0.0197471 -0.01969754
 -0.01966079 -0.01964188 -0.0196427 -0.01966528 -0.01971439 -0.01979226 -0.01990564 -0.02005814 -0.0202516 -0.02048873
 -0.0207613 -0.02106938 -0.02139857 -0.02174754 -0.02210452 -0.02246868 -0.02283651 -0.02320808 -0.02358485 -0.02396649
 -0.02435195 -0.02473965 -0.02512296 -0.02550044 -0.02586461 -0.02621611 -0.02655186 -0.02687505 -0.0271875 -0.02749425
 -0.02779999 -0.02810827 -0.0284233 -0.02874324 -0.02906884 -0.02939568 -0.02972195 -0.03004893 -0.0303757 -0.03071061
 -0.0310547 -0.03141152 -0.03178157 -0.03215186 -0.03252106 -0.03286504 -0.03318347 -0.03346071 -0.03370057 -0.03390906
 -0.03409091 -0.03426284 -0.03442303 -0.03457787 -0.03471889 -0.03483817 -0.0349297 -0.03498521 -0.03500364 -0.03498349
 -0.03492011 -0.03481351 -0.03465105 -0.03442983 -0.03413877 -0.03377457 -0.03333743 -0.03282592 -0.03225413 -0.03162259
 -0.03095817 -0.03026268 -0.02956809 -0.02887529 -0.02820702 -0.0275605 -0.02693814 -0.02633428 -0.02573544 -0.02513837
 -0.02452876 -0.02391241 -0.0232882 -0.02266962 -0.02206793 -0.02149178 -0.02095142 -0.02044266 -0.01996612 -0.01951725
 -0.01909309 -0.01870098 -0.01834152 -0.01802284 -0.01774707 -0.01750564 -0.01729845 -0.0171019 -0.01691454 -0.01671071
 -0.01648922 -0.01622947 -0.01593132 -0.01558285 -0.01518511 -0.01473508 -0.01423295 -0.01367764 -0.01306919 -0.01240535
 -0.0116919 -0.01093019 -0.01013401 -0.0093103 -0.008473836 -0.007631867 -0.006794099 -0.005964883 -0.005147342 -0.00434348
 -0.003548652 -0.002763137 -0.00197614 -0.001187001 -0.0003865341 0.0004252392 0.001248711 0.002081362 0.002908188 0.003722068
 0.004487294 0.005196358 0.005807859 0.006327123 0.006738777 0.007066607 0.007330444 0.007560622 0.007789005 0.008038003
 0.00833016 0.008674476 0.009081397 0.009545962 0.01007053 0.01064025 0.01125351 0.01189474 0.01256214 0.01324424
 0.01394012 0.01464359 0.01535471 0.01607583 0.01680747 0.01755595 0.01831908 0.0190929 0.0198713 0.02063726
 0.02138318 0.02208927 0.02274587 0.02333507 0.0238446 0.02425725 0.02456759 0.0247643 0.02485836 0.02484791
 0.0247585 0.0245934 0.02438821 0.02414749 0.02391161 0.02368557 0.02349727 0.02334929 0.02324322 0.02317837
 0.02313895 0.0231237 0.02311632 0.0231162 0.02311104 0.02310346 0.02309143 0.02308437 0.02309721 0.02314122
 0.02323837 0.02339099 0.02361072 0.02388983 0.02422891 0.02461366 0.02504143 0.02548914 0.02595275 0.02640202
 0.02683223 0.02721433 0.02754562 0.02779513 0.02796105 0.02800536 0.02792642 0.02769443 0.0273112 0.02677478
 0.02609094 0.02528158 0.02435353 0.02333503 0.02223339 0.02107395 0.01986395 0.01862194 0.0173545 0.01607258
 0.01478315 0.01349315 0.01220748 0.01093073 0.009660937 0.008398909 0.007139653 0.005881824 0.00462568 0.003370942
 0.002120081 0.0008733076 -0.000369831 -0.0016093 -0.002844586 -0.004075185 -0.005296846 -0.006509172 -0.007708464 -0.008894169
 -0.01006316 -0.0112144 -0.01234392 -0.01345254 -0.01453995 -0.01560648 -0.01665488 -0.01767689 -0.01867028 -0.01962111
 -0.02052184 -0.02136805 -0.02215478 -0.02289204 -0.02357954 -0.02423451 -0.02485794 -0.02547248 -0.02607955 -0.02670396
 -0.02734647 -0.0280181 -0.02871664 -0.02943041 -0.0301556 -0.0308696 -0.03156999 -0.03223783 -0.03287424 -0.03347033
 -0.03403413 -0.03457029 -0.03509246 -0.03561534 -0.03614607 -0.03669658 -0.03725772 -0.0378304 -0.03839756 -0.03895337
 -0.03949123 -0.04000654 -0.04051257 -0.04100926 -0.04151957 -0.04204543 -0.04259463 -0.04316669 -0.04374345 -0.04432329
 -0.04488375 -0.0454268 -0.04594925 -0.0464543 -0.04695074 -0.04743715 -0.04791534 -0.04838198 -0.0488328 -0.04926701
 -0.0496827 -0.05007889 -0.05045474 -0.05080861 -0.05113867 -0.05144789 -0.05173634 -0.05200902 -0.05226742 -0.05251145
 -0.05274133 -0.05295543 -0.05315343 -0.05333965 -0.05351447 -0.05368651 -0.05385617 -0.05403104 -0.05421025 -0.05439566
 -0.05458277 -0.05476091 -0.05492342 -0.05505041 -0.05514279 -0.05518964 -0.05520527 -0.05519789 -0.05518337 -0.05517653
 -0.05517885 -0.05519704 -0.0552189 -0.05524282 -0.0552556 -0.05525431 -0.0552308 -0.05518358 -0.05510893 -0.0550063
 -0.05487778 -0.05472372 -0.05455353 -0.05436773 -0.05417568 -0.05397583 -0.0537661 -0.05354445 -0.05330114 -0.05304172
 -0.05276956 -0.05249813 -0.05224958 -0.05202657 -0.05184583 -0.05168568 -0.05153896 -0.05138093 -0.05119381 -0.05098322
 -0.05074223 -0.05050443 -0.05027489 -0.05008205 -0.04993169 -0.04982622 -0.0497671 -0.04973309 -0.04972275 -0.04970387
 -0.04967565 -0.04961606 -0.04952871 -0.04941816 -0.0492894 -0.04916222 -0.04903289 -0.0489058 -0.04876943 -0.04860724
 -0.04841769 -0.04818843 -0.04793662 -0.04766987 -0.04740197 -0.04714531 -0.04688967 -0.04663557 -0.04636712 -0.04607825
 -0.04577736 -0.04546326 -0.04515951 -0.04486817 -0.0445981 -0.04434937 -0.04411393 -0.04389147 -0.04367607 -0.04346792
 -0.04326571 -0.04306787 -0.04286886 -0.04266762 -0.0424581 -0.04224338 -0.04202467 -0.04180663 -0.04159504 -0.04139043
 -0.04119616 -0.0410072 -0.0408222 -0.04063657 -0.04044748 -0.04025783 -0.04006714 -0.03988241 -0.03970547 -0.03953187
 -0.039362 -0.03917737 -0.03897719 -0.03874968 -0.03849594 -0.03822182 -0.03792805 -0.03762187 -0.03730121 -0.03696201
 -0.03660567 -0.03622975 -0.03584508 -0.03546442 -0.03510085 -0.0347745 -0.03448472 -0.03424247 -0.03402518 -0.03382829
 -0.03362151 -0.03339275 -0.03313063 -0.03282787 -0.0324988 -0.03214383 -0.03178076 -0.03141147 -0.03103844 -0.03066164
 -0.03027283 -0.02987172 -0.02945171 -0.02901429 -0.02856228 -0.0280994 -0.027639 -0.0271826 -0.02674199 -0.02631108
 -0.02588612 -0.02546144 -0.02502637 -0.02458943 -0.02415114 -0.02372646 -0.02332505 -0.0229464 -0.0225944 -0.02225625
 -0.02192912 -0.02160826 -0.02129182 -0.02098595 -0.02069101 -0.02041208 -0.0201493 -0.01990096 -0.0196662 -0.01943619
 -0.01920986 -0.01897644 -0.01873727 -0.01849 -0.01823842 -0.01798965 -0.01774564 -0.0175125 -0.01729011 -0.01708082
 -0.01688308 -0.01669885 -0.01651854 -0.01633983 -0.01614854 -0.01593738 -0.01570825 -0.01545802 -0.01520502 -0.01495192
 -0.0147069 -0.01447145 -0.01423718 -0.01400379 -0.01376744 -0.01352832 -0.01328876 -0.01304598 -0.01278887 -0.01251075
 -0.01218512 -0.0118067 -0.0113491 -0.01081672 -0.0101987 -0.009518365 -0.008789454 -0.008049482 -0.007327046 -0.006652523
 -0.006046977 -0.005528497 -0.005106341 -0.004794187 -0.004600833 -0.004508455 -0.004522249 -0.004567597 -0.004640112 -0.004656956
 -0.004614439 -0.004485295 -0.004272311 -0.003994026 -0.003654167 -0.003278982 -0.002873654 -0.002466576 -0.002064884 -0.001698265
 -0.001368872 -0.001092963 -0.0008688055 -0.0006993269 -0.0005859002 -0.0005311828 -0.0005330662 -0.0005942343 -0.0007005795 -0.000850388
 -0.001022441 -0.001214157 -0.001397301 -0.001569078 -0.001696493 -0.001775918 -0.001795437 -0.001754718 -0.001674046 -0.001554534
 -0.001415102 -0.001254901 -0.001077121 -0.0008843771 -0.0006874909 -0.0004879257 -0.000297605 -0.0001076091 9.193515E-05 0.0003040713
 0.0005394628 0.000786651 0.001037392 0.001294159 0.001553385 0.001829908 0.002138108 0.002439473 0.00273273 0.002955538
 0.003091343 0.003166308 0.003179637 0.003186161 0.0031883 0.003197675 0.003212391 0.003214609 0.003203771 0.003167063
 0.003107609 0.003027325 0.002932942 0.002838804 0.002753124 0.002698248 0.002668264 0.002669804 0.002681525 0.002687138
 0.002681168 0.002651419 0.002618516 0.00258661 0.002573148 0.002583958 0.002622688 0.002691558 0.002785058 0.002904701
 0.003015765 0.003116177 0.003143763 0.003097356 0.002941425 0.002682239 0.002334917 0.001906728 0.001427582 0.0009052689
 0.0003663062 -0.0001715067 -0.0006696818 -0.001115492 -0.001474644 -0.001762103 -0.001977233 -0.00213797 -0.002254173 -0.002333404
 -0.002375163 -0.002407485 -0.002435506 -0.002487328 -0.002573148 -0.00266438 -0.002761522 -0.002803316 -0.002786718 -0.002685606
 -0.002501859 -0.002248721 -0.001930455 -0.001576164 -0.001189788 -0.0008030182 -0.0004101541 -1.640012E-05 0.0003912855 0.0008358643
 0.001312585 0.001829809 0.002365822 0.002903197 0.003439665 0.003965385 0.004498682 0.005045813 0.005611223 0.006197391
 0.006802965 0.007426055 0.008083656 0.008777796 0.009512565 0.01028802 0.01106177 0.01182945 0.01252718 0.01315146
 0.01364871 0.01402103 0.01424113 0.01432655 0.01429954 0.01418564 0.0140412 0.01386415 0.01367964 0.01346058
 0.01318634 0.01286374 0.01248034 0.01208647 0.01169758 0.01134784 0.0110515 0.01080717 0.01061839 0.01046692
 0.01035374 0.01022957 0.01009167 0.009863667 0.009545246 0.009105164 0.008557634 0.007964442 0.007346276 0.006811316
 0.006361387 0.006064558 0.005886806 0.005811038 0.005786672 0.00574486 0.005671844 0.00552475 0.005339806 0.00512909
 0.004906834 0.004691943 0.004437742 0.004133665 0.003758296 0.003297586 0.002818537 0.002324787 0.001891379 0.001522532
 0.001204501 0.0009319714 0.0006301986 0.0002978511 -0.0001155888 -0.0005964927 -0.001130543 -0.00168947 -0.002200828 -0.002644089
 -0.002942875 -0.00312126 -0.003165541 -0.00313727 -0.003077874 -0.00303693 -0.003056938 -0.003143345 -0.003316731 -0.003529751
 -0.003783006 -0.003990218 -0.004136791 -0.004170752 -0.004080153 -0.003925595 -0.003709974</values></Ydata></AB><ScSm><Ydata ylabel="Single channel"><values byteorder="INTEL" format="FLOAT32" numvalues="1814"> 0.0718748 0.07188631 0.07195792 0.07211547 0.07233097 0.07253626 0.0726736 0.07273608 0.07274908 0.07272396
 0.07266471 0.07261728 0.07266183 0.07283232 0.07306707 0.07325161 0.07330841 0.07326274 0.07322951 0.07330091
 0.07342051 0.07339696 0.07308476 0.07255398 0.07204683 0.07175473 0.07169816 0.07186967 0.07235357 0.07309403
 0.07363647 0.0734552 0.07261737 0.07180765 0.07156649 0.07177147 0.07196461 0.07187974 0.07151952 0.07104999
 0.07085237 0.0714229 0.07288392 0.07457739 0.07529941 0.07405959 0.07078963 0.06657166 0.06324216 0.06240711
 0.06430627 0.06748563 0.06988883 0.07049951 0.06982842 0.06887349 0.06805439 0.06733599 0.06690494 0.0672033
 0.06830683 0.06951366 0.06970073 0.06827417 0.06587981 0.06395924 0.0634409 0.06415032 0.06557121 0.06740849
 0.06880383 0.06789085 0.06363413 0.0581516 0.0557632 0.05887835 0.06542443 0.0708866 0.07232699 0.07000314
 0.06603196 0.06264259 0.06136221 0.06260037 0.06555122 0.06886898 0.07149424 0.072707 0.07194691 0.06929808
 0.06595995 0.06365877 0.06358567 0.0659388 0.06988594 0.07362996 0.07522245 0.07400817 0.07106344 0.06805566
 0.06614511 0.06598683 0.06788497 0.07146409 0.07566616 0.07937481 0.08186948 0.08287579 0.08261114 0.08165196
 0.08049783 0.07949843 0.07916862 0.07986356 0.08094553 0.08103554 0.07952371 0.07738616 0.07617533 0.07641514
 0.07718858 0.07725114 0.07628526 0.07467878 0.0722869 0.06843828 0.06346753 0.05909548 0.05670554 0.05630185
 0.05754799 0.0603023 0.06340115 0.06458373 0.06296537 0.0606139 0.06048574 0.06327569 0.06707006 0.06970316
 0.07076319 0.07143753 0.07297517 0.07540125 0.07735195 0.07709371 0.07423972 0.07071958 0.06941572 0.07133622
 0.07465304 0.07696153 0.07782056 0.07848199 0.07970431 0.08057596 0.07945934 0.07592943 0.07182677 0.07012507
 0.07233965 0.07700878 0.08075295 0.08077614 0.07674813 0.07088375 0.06621617 0.06449659 0.06571734 0.06925944
 0.07457115 0.08057651 0.08540622 0.08744386 0.08650476 0.08373505 0.08031169 0.07635894 0.0715701 0.06701128
 0.06533642 0.06826501 0.07436962 0.08026887 0.08364769 0.084405 0.08332163 0.08061989 0.07619093 0.07098758
 0.06747475 0.06771277 0.07088087 0.07375079 0.07407223 0.07261921 0.07151616 0.07157472 0.07200028 0.07204351
 0.07205692 0.07289376 0.07470003 0.07659747 0.07754956 0.07731354 0.0764718 0.07574819 0.07535363 0.07484274
 0.07373682 0.07247218 0.07234429 0.07408787 0.07686665 0.07913481 0.08018421 0.08039657 0.08022168 0.0794013
 0.07736023 0.07430632 0.07168266 0.0710986 0.07276741 0.07537321 0.07744162 0.07839939 0.0784229 0.07790013
 0.07717282 0.0764273 0.07574892 0.07536042 0.07556743 0.07631785 0.07710221 0.07746306 0.07736953 0.07699469
 0.07639049 0.07553962 0.07458057 0.07382464 0.07353452 0.07371944 0.07416949 0.07464869 0.07498054 0.07500755
 0.07464727 0.07401778 0.07336625 0.07284372 0.07245642 0.07221795 0.07219543 0.07237409 0.07259674 0.07269504
 0.07262291 0.07243232 0.07217266 0.07185457 0.0714879 0.07112327 0.07085036 0.07073707 0.07075046 0.07077337
 0.07073925 0.07070397 0.07072531 0.07072835 0.07058028 0.07026745 0.06991665 0.06965563 0.06951228 0.0694364
 0.06935754 0.06920364 0.06890699 0.06845836 0.06797461 0.06765568 0.06762494 0.06783788 0.0681596 0.0684687
 0.06867141 0.06871033 0.06861135 0.06845962 0.06829583 0.06808427 0.06779777 0.06749457 0.06729589 0.06729287
 0.06746437 0.06768742 0.06783935 0.0678762 0.0678196 0.06772153 0.06764996 0.06764175 0.06764863 0.06758308
 0.06743129 0.06727591 0.06719904 0.06719579 0.06718926 0.06711644 0.06699736 0.0669146 0.06692111 0.06698777
 0.06705 0.06707989 0.06709607 0.06711932 0.06713132 0.06708126 0.06694403 0.0667659 0.0666257 0.06655413
 0.06652358 0.06651111 0.06652825 0.06658114 0.06663687 0.06664892 0.06660649 0.06654298 0.06649148 0.06644105
 0.06635181 0.06621058 0.06605142 0.06591901 0.06582882 0.0657663 0.06570876 0.06564136 0.065559 0.06546046
 0.06534371 0.06520658 0.06504841 0.06487493 0.0647077 0.06458084 0.0645103 0.0644656 0.06438672 0.06423642
 0.06403378 0.0638345 0.06367874 0.06356001 0.06344628 0.06332368 0.06320769 0.0631165 0.06305124 0.06300335
 0.06296474 0.06292984 0.062905 0.06291926 0.06300691 0.06316622 0.06334545 0.06348547 0.06357399 0.06364791
 0.06374555 0.06387091 0.06400461 0.06413537 0.06427415 0.06444034 0.06463248 0.06481595 0.06495476 0.06505626
 0.06516595 0.06531542 0.06549721 0.06568982 0.06587882 0.06604932 0.06618762 0.06630268 0.0664253 0.06657408
 0.06673665 0.06689227 0.06704006 0.06719579 0.06737057 0.06756535 0.06778301 0.06803321 0.06832007 0.06862778
 0.06892215 0.06917043 0.0693697 0.06955906 0.06979553 0.07010727 0.07046887 0.07082456 0.0711361 0.07141049
 0.07168265 0.07197363 0.07227403 0.07257338 0.07288969 0.07324943 0.07364556 0.07404025 0.07440878 0.07476111
 0.07511824 0.07548596 0.07585683 0.07622688 0.07660311 0.07699473 0.07739657 0.07778528 0.07813825 0.0784555
 0.07875911 0.07907526 0.0794185 0.07977978 0.08012213 0.08040577 0.08063564 0.0808703 0.0811612 0.0814922
 0.08180401 0.08207322 0.08233768 0.08263895 0.08296784 0.08328357 0.08356914 0.08384631 0.08413909 0.08443747
 0.08470276 0.0849048 0.08505303 0.08518966 0.08535284 0.08555294 0.0857881 0.08606677 0.0863927 0.08673552
 0.08704285 0.08728471 0.08746897 0.08761971 0.08776215 0.0879228 0.08811773 0.0883384 0.08856141 0.08876613
 0.08893777 0.08907532 0.0892093 0.0893873 0.089626 0.08990103 0.0901963 0.09053141 0.09091841 0.09132066
 0.09169057 0.09203501 0.09240511 0.09281608 0.09321108 0.09352101 0.09373473 0.09389044 0.09402676 0.09417544
 0.09438027 0.09467662 0.09505195 0.09545566 0.09584817 0.09622157 0.09657846 0.09691207 0.09720714 0.09744855
 0.09762961 0.09775871 0.09785904 0.09796142 0.09809374 0.09826348 0.09844317 0.09858194 0.09863792 0.09859213
 0.09843303 0.09815111 0.09776411 0.09732798 0.09689289 0.09644556 0.09591408 0.09523489 0.09440044 0.09343866
 0.09236921 0.09119958 0.08995633 0.08870193 0.08751693 0.08647332 0.08562967 0.08504947 0.08480754 0.08495001
 0.0854298 0.08608724 0.08670718 0.08709877 0.08713815 0.08677788 0.08604936 0.08504897 0.08389476 0.0826824
 0.08147141 0.08028738 0.07912056 0.07793916 0.07673372 0.07555693 0.07452519 0.07381529 0.0736938 0.07450609
 0.07651603 0.07965733 0.08344686 0.08720872 0.09043542 0.0929742 0.09494241 0.09653962 0.09792791 0.0991972
 0.10037 0.1014342 0.1023861 0.1032406 0.1040048 0.1046607 0.1051793 0.1055426 0.1057537 0.1058382
 0.1058388 0.1058044 0.1057814 0.1058073 0.1058903 0.105985 0.1059999 0.1058384 0.1054353 0.1047598
 0.1037958 0.1025585 0.1012093 0.1002069 0.1002609 0.1019424 0.1052157 0.1093733 0.1134846 0.1169205
 0.1195192 0.1214126 0.1228088 0.1238887 0.124781 0.1255628 0.126275 0.126938 0.1275594 0.1281399
 0.1286824 0.1291983 0.1297085 0.1302313 0.1307647 0.1312843 0.1317708 0.1322339 0.1327039 0.1331996
 0.1337112 0.134212 0.1346878 0.1351509 0.1356173 0.1360775 0.136506 0.1368981 0.1372784 0.1376742
 0.138098 0.1385487 0.1390093 0.139447 0.1398362 0.140183 0.140516 0.1408556 0.1412027 0.1415528
 0.1419058 0.1422614 0.1426145 0.1429631 0.1433138 0.1436706 0.1440201 0.1443402 0.1446272 0.1449024
 0.1451893 0.145491 0.145793 0.1460841 0.1463707 0.1466743 0.1470129 0.1473807 0.1477484 0.1480853
 0.1483824 0.1486568 0.1489345 0.1492314 0.1495474 0.1498737 0.150201 0.1505217 0.1508333 0.15114
 0.1514485 0.1517608 0.1520733 0.152384 0.1526943 0.1530051 0.1533141 0.1536177 0.1539163 0.1542183
 0.1545353 0.1548662 0.1551905 0.1554834 0.1557404 0.1559796 0.1562222 0.1564763 0.1567403 0.1570122
 0.157292 0.1575786 0.157869 0.1581603 0.1584507 0.1587397 0.1590276 0.1593151 0.1596034 0.1598938
 0.1601864 0.1604811 0.1607767 0.161071 0.1613603 0.1616418 0.1619173 0.1621948 0.1624824 0.162779
 0.1630745 0.1633601 0.1636377 0.1639159 0.1642002 0.1644916 0.1647893 0.1650907 0.1653898 0.1656803
 0.1659598 0.1662302 0.1664954 0.1667612 0.1670339 0.1673161 0.167605 0.1678936 0.1681752 0.1684471
 0.1687121 0.1689757 0.1692443 0.1695233 0.1698119 0.1701033 0.1703902 0.1706707 0.1709446 0.1712102
 0.1714671 0.1717182 0.1719673 0.1722159 0.1724657 0.1727194 0.172982 0.1732596 0.1735512 0.1738445
 0.1741256 0.1743932 0.1746579 0.17493 0.1752124 0.1754995 0.1757831 0.1760595 0.1763326 0.1766073
 0.1768832 0.1771584 0.1774341 0.1777142 0.1779999 0.1782854 0.1785602 0.1788198 0.1790713 0.1793239
 0.179581 0.1798437 0.1801131 0.1803872 0.1806628 0.1809402 0.1812182 0.1814918 0.1817608 0.1820325
 0.1823098 0.182587 0.1828595 0.1831292 0.1834011 0.1836805 0.1839679 0.1842543 0.1845313 0.1848033
 0.1850794 0.1853591 0.1856355 0.1859062 0.1861753 0.1864493 0.1867313 0.1870143 0.1872884 0.1875555
 0.1878225 0.1880856 0.1883374 0.1885832 0.1888339 0.1890915 0.189355 0.1896254 0.1898967 0.190158
 0.190407 0.1906505 0.1908966 0.1911528 0.1914192 0.191684 0.1919394 0.1921918 0.1924463 0.1926991
 0.1929514 0.1932079 0.1934631 0.1937099 0.1939543 0.1942023 0.1944507 0.1946989 0.1949442 0.195161
 0.195295 0.1952285 0.1946661 0.1930051 0.1893154 0.182529 0.1718703 0.1573444 0.1399032 0.1211063
 0.1025495 0.08545278 0.07053921 0.05812322 0.04826231 0.04086024 0.03573729 0.03274018 0.03185188 0.03330385
 0.03769986 0.0456576 0.05645674 0.06684546 0.07231154 0.07064921 0.06406963 0.05718542 0.05317951 0.05227223
 0.05310276 0.05451415 0.05613933 0.05818195 0.06099894 0.06470056 0.06912632 0.07427184 0.08050084 0.08808018
 0.0966175 0.1052198 0.1132543 0.1208407 0.128558 0.1367453 0.1451407 0.1531326 0.1602461 0.1663907
 0.1717712 0.1766613 0.1812429 0.1855901 0.1897346 0.1936689 0.197256 0.2001874 0.2021324 0.2029929
 0.2030239 0.2026887 0.2023836 0.2022844 0.2024005 0.2027021 0.203172 0.2037933 0.204538 0.2053725
 0.2062626 0.2071811 0.2081064 0.2090132 0.209874 0.2106749 0.2114179 0.2121068 0.2127406 0.2133199
 0.2138472 0.2143274 0.2147709 0.2151895 0.2155868 0.2159619 0.2163194 0.2166632 0.2169873 0.2172835
 0.2175533 0.2178051 0.2180449 0.2182747 0.2184955 0.2187125 0.2189355 0.2191713 0.2194146 0.2196529
 0.2198797 0.2200975 0.220311 0.2205255 0.2207465 0.2209727 0.2211971 0.221415 0.2216286 0.2218396
 0.2220461 0.2222484 0.2224495 0.2226498 0.2228461 0.2230373 0.2232285 0.2234281 0.2236386 0.2238545
 0.2240734 0.2243048 0.2245548 0.2248112 0.2250571 0.225291 0.2255215 0.2257501 0.2259739 0.226193
 0.2264018 0.2265867 0.226746 0.2269019 0.2270852 0.2273092 0.2275584 0.2278015 0.2280208 0.2282231
 0.2284223 0.2286209 0.2288142 0.2289995 0.2291801 0.2293734 0.2296043 0.2298762 0.2301611 0.2304343
 0.2306964 0.2309533 0.2312049 0.2314571 0.2317116 0.231943 0.2321208 0.2322605 0.2324316 0.232702
 0.2330731 0.2334715 0.2338164 0.2340909 0.2343361 0.234596 0.2348903 0.2351986 0.2354367 0.235512
 0.2354664 0.2355019 0.235794 0.2363181 0.2369055 0.2374181 0.2378263 0.2381658 0.2384703 0.2387336
 0.238911 0.2389694 0.2389606 0.2390372 0.239345 0.2398724 0.2404496 0.2409248 0.2412829 0.241574
 0.241823 0.2420374 0.2421826 0.242127 0.2417814 0.2413569 0.2413115 0.2419076 0.242914 0.2438493
 0.2444546 0.2448224 0.245129 0.2454194 0.2456616 0.2457763 0.2455188 0.2446193 0.2432958 0.2424033
 0.2427248 0.2441824 0.2459745 0.247382 0.2482271 0.2486916 0.2489963 0.2492519 0.2493828 0.2491392
 0.2483742 0.2474211 0.2470177 0.2476293 0.2489209 0.250111 0.2507729 0.2510647 0.2513058 0.251619
 0.2518503 0.2515301 0.2501371 0.2478614 0.2459955 0.2460283 0.248188 0.2511684 0.2534254 0.2545063
 0.2549294 0.2550487 0.2545353 0.2529768 0.2504972 0.2476935 0.2454645 0.2449147 0.2466274 0.2497193
 0.2523254 0.2534384 0.2537647 0.2545298 0.2560092 0.2575057 0.2582735 0.2581032 0.2572103 0.2558329
 0.2541119 0.2524699 0.2518434 0.2530233 0.2556984 0.2585608 0.2605146 0.2615064 0.2619642 0.2615265
 0.2587764 0.2529433 0.2460501 0.2423668 0.2446418 0.251224 0.2578377 0.2617918 0.2634546 0.2642466
 0.2647372 0.2644879 0.2622911 0.2568085 0.2486529 0.2417436 0.2406787 0.2461881 0.254308 0.2600902
 0.2610071 0.2572447 0.2507929 0.2448365 0.2424646 0.2448003 0.250507 0.257119 0.2625283 0.265553
 0.2659234 0.2641687 0.2615603 0.2597997 0.2598036 0.2603488 0.2589791 0.2551129 0.2510257 0.2485011
 0.2460375 0.2415976 0.2370757 0.2370558 0.2428759 0.250427 0.2547785 0.2551755 0.2541714 0.2529397
 0.2492293 0.2405884 0.2290048 0.2209933 0.2219109 0.2304211 0.2396938 0.2440897 0.2436451 0.2420881
 0.2418341 0.2415185 0.2379453 0.2302687 0.222078 0.2183765 0.2202502 0.2238682 0.2249923 0.2223897
 0.2163485 0.2072355 0.1978482 0.1943086 0.2008878 0.2147356 0.2281355 0.2348977 0.2326125 0.2211709
 0.2035313 0.1875092 0.1820117 0.1890841 0.2014521 0.2092336 0.2077864 0.1985165 0.1846432 0.1689791
 0.1552439 0.1484186 0.151719 0.1633734 0.1768382 0.1841154 0.1801147 0.1665019 0.1519602 0.1459455
 0.1501768 0.1575294 0.1600954 0.1563932 0.1502313 0.1456474 0.144516 0.1464743 0.1493724 0.1511852
 0.1516424 0.1501995 0.1438337 0.1307393 0.1155834 0.1065728 0.1068934 0.1129154 0.120784 0.1299046
 0.1388021 0.1427144 0.1389218 0.1319087 0.1296433 0.1351536 0.1439098 0.1494217 0.1497304 0.1478641
 0.1470989 0.1473742 0.1469598 0.1463915 0.148625 0.1549458 0.1626801 0.1681309 0.1704009 0.171112
 0.1716193 0.1719702 0.1718342 0.1711075 0.1698476 0.1683547 0.167077 0.1660767 0.1649364 0.1633073
 0.1609211 0.1568611 0.1498464 0.1402915 0.1314974 0.1271821 0.1276933 0.1302322 0.1328036 0.1353359
 0.1361255 0.1308067 0.1179809 0.1038862 0.09792363 0.1036345 0.1160572 0.1274008 0.1330345 0.1319547
 0.1244924 0.1124744 0.1011648 0.09772837 0.1055617 0.1211749 0.1379782 0.1518509 0.1617157 0.1666838
 0.1656145 0.1595039 0.1523916 0.1491352 0.1525233 0.1619949 0.1737595 0.1817023 0.1803315 0.1702456
 0.1608444 0.1634648 0.1793629 0.1975532 0.2071368 0.2084605 0.2088532 0.2112246 0.2124888 0.2115799
 0.2128078 0.2197978 0.229987 0.2370942 0.2366821 0.2279386 0.2129637 0.1970964 0.1876209 0.1881231
 0.1946065 0.1999534 0.2008896 0.1976615 0.1897941 0.1778136 0.1678438 0.1679701 0.1788199 0.1922688
 0.2006977 0.2039991 0.2062822 0.2087789 0.2083607 0.2023206 0.1928912 0.1859183 0.185085 0.1886435
 0.1923534 0.1939431 0.1932683 0.1898588 0.1831798 0.1753111 0.1709472 0.1733765 0.1811403 0.189441
 0.1944551 0.1957356 0.1950629 0.1941498 0.1934914 0.1925216 0.1907565 0.1892943 0.1906268 0.1959193
 0.2030344 0.2086501 0.2120457 0.2153816 0.2203226 0.2257537 0.2291586 0.2294104 0.2278935 0.2273267
 0.2295714 0.2341092 0.2383881 0.2399674 0.2388147 0.2375368 0.2389748 0.2434901 0.2489215 0.253038
 0.2553766 0.2567683 0.2579916 0.2591195 0.2594833 0.2581822 0.2553463 0.252903 0.2532326 0.2568211
 0.2617946 0.2658431 0.2680713 0.2689366 0.2690478 0.2684914 0.2671736 0.2654176 0.2639702 0.2634302
 0.2638261 0.2647786 0.265901 0.2669709 0.2678986 0.268696 0.2694333 0.2701554 0.2708633 0.2715659
 0.2722669 0.2729021 0.273383 0.2737383 0.2741293 0.2746661 0.2752638 0.2757381 0.2759833 0.2759709
 0.2756329 0.2748768 0.2737219 0.2723013 0.2706975 0.268892 0.2669839 0.2654144 0.2648346 0.2656404
 0.2676203 0.2700768 0.2722927 0.2738905 0.2748492 0.2753254 0.2755086 0.2755607 0.2755878 0.2756307
 0.2756875 0.2757502 0.2758176 0.2758843 0.275941 0.2759957 0.2760826 0.2762278 0.2764076 0.2765549
 0.2766074 0.276548 0.2764071 0.2762342 0.2760584 0.275865 0.2756047 0.2752312 0.2747332 0.2741389
 0.2734996 0.2728664 0.2722617 0.2716603 0.271007 0.2702539 0.2693587 0.2682542 0.2668829 0.2652922
 0.2636445 0.2620834 0.26062 0.2591745 0.2576819 0.2561217 0.2544894 0.2527905 0.251048 0.2492895
 0.247528 0.2457616 0.2439853 0.2422008 0.2404166 0.2386314 0.2368225 0.2349605 0.233033 0.2310386
 0.2289472 0.2266669 0.2240561 0.2209767 0.2173408 0.2131167 0.2083223 0.2030413 0.1974415 0.1917452
 0.1861604 0.1808378 0.1758863 0.1714196 0.1675719 0.1644606 0.1621373 0.1605812 0.1597345 0.1595378
 0.1599465 0.160926 0.1624263 0.1643563 0.1665817 0.1689395 0.1712514 0.1733598 0.1751931 0.1768042
 0.1783244 0.1798632 0.1814449 0.1830289 0.1845687 0.1860318 0.1873711 0.1885186 0.1894353 0.1901475
 0.190716 0.1911887 0.1915911 0.1919297 0.1921862 0.1923255 0.1923256 0.1921993 0.1919943 0.1917784
 0.1916193 0.1915737 0.1916989 0.1920645 0.1927316 0.1937141 0.1949665 0.1964116 0.1979827 0.1996453
 0.2013823 0.2031776 0.2050342 0.2069938 0.2091115 0.211406 0.2138493 0.2163908 0.2189703 0.221511
 0.2239183 0.226101 0.2280068 0.2296376 0.2310171 0.2321461 0.2330057 0.2335983 0.2339668 0.2341822
 0.2343217 0.2344423 0.2345569 0.2346421 0.234669 0.2346176 0.2344844 0.2342994 0.2341186 0.2339746
 0.2338458 0.233693 0.233512 0.2333405 0.2332205 0.2331584 0.2331209 0.2330702 0.2329938 0.2328952
 0.2327662 0.2325794 0.2322933 0.2318613 0.2312553 0.230487 0.2295889 0.2285749 0.2274372 0.2261732
 0.2247992 0.2233388 0.2218002 0.2201616 0.2183878 0.2164683 0.2144259 0.2122854 0.2100623 0.2077945
 0.2055548 0.2034118 0.2013889 0.1994666 0.1976177 0.1958325 0.1941165 0.1924682 0.1908771 0.1893477
 0.1879017 0.1865457 0.1852574 0.184019 0.1828521 0.1818102 0.1809388 0.1802348 0.179639 0.1790832
 0.1785473 0.1780568 0.177636 0.1772937 0.1770388 0.1768679 0.1767322 0.1765521 0.1762768 0.1759214
 0.1755467 0.1752094 0.1749286 0.1746895 0.1744645 0.1742164 0.1738844 0.1733807 0.1726084 0.1714924
 0.1700087 0.1681972 0.1661493 0.1639897 0.161861 0.1598937 0.1581723 0.1567312 0.1555677 0.1546362
 0.1538569 0.1531711 0.1525927 0.1521921 0.1520264 0.1520663 0.1521668 0.1521482 0.1519496 0.1516895
 0.151557 0.1516711 0.1520339 0.1525528 0.153086 0.1535138 0.1537876 0.1539101 0.1539005 0.1537865
 0.1535929 0.1533243 0.1529813 0.1525816 0.1521436 0.1516723 0.1511657 0.1506062 0.1499572 0.1492019
 0.1483623 0.1474591 0.1464887 0.1454367 0.1442678 0.1429395 0.1415056 0.1401848 0.1392633 0.1389268
 0.1391646 0.139775 0.1404959 0.141187 0.1418187 0.1422609 0.1422962 0.1420166 0.1420394 0.1430548
 0.1451315 0.1476052 0.1496589 0.1508962 0.1513569 0.1511947 0.1505118 0.149383 0.1478318 0.1458159
 0.1433468 0.1405469 0.1375405 0.1344273 0.1313789 0.1285983 0.1261975 0.1242105 0.1226482 0.1215594
 0.1210692 0.1207835 0.1187974 0.1127015 0.1033025 0.09627077 0.09738083 0.1060188 0.115603 0.1205363
 0.1206673 0.1189815 0.1175336 0.1166262 0.1161456 0.116231 0.1170134 0.1183486 0.1198281 0.1210258
 0.1217752 0.122127 0.1220442 0.1211865 0.11887 0.1142847 0.1071394 0.0982639 0.08933882 0.08190668
 0.07668272 0.07357515 0.07199866 0.07121244 0.070702 0.07042404 0.07068029 0.07175204 0.07366488 0.07625797
 0.079347 0.08269124 0.08588076 0.08849922 0.09045097 0.09194928 0.09315283 0.09398112 0.09429294 0.09407522
 0.09343251 0.09251566 0.09148508 0.09045744 0.08943902 0.08834074 0.08712877 0.08598006 0.08519747 0.08491233
 0.084961 0.085099 0.08521449 0.0852946 0.08533727 0.0853648 0.08542854 0.08557358 0.08584344 0.08626829
 0.08679669 0.08729738 0.08766414 0.08788621 0.08802504 0.08812332 0.08809556 0.08777982 0.08720428 0.08666116
 0.08631493 0.08589081 0.08503234 0.08387068 0.0829602 0.08268099 0.08291048 0.08325338 0.08340955 0.0833142
 0.08310203 0.08303151 0.08332159 0.08390205</values></Ydata></ScSm><ScRf><Ydata ylabel="Single channel"><values byteorder="INTEL" format="FLOAT32" numvalues="1820"> 0.06067862 0.06083258 0.06093349 0.06097924 0.0609877 0.06099727 0.06105343 0.0611812 0.06136557 0.06155658
 0.06170127 0.06177914 0.06180106 0.06177926 0.06172628 0.06168624 0.06172673 0.0618738 0.06207073 0.06221613
 0.0622449 0.06218607 0.06214675 0.06221037 0.06232692 0.06232613 0.06207608 0.06163245 0.06120256 0.06095161
 0.06089846 0.06104041 0.06145652 0.06210335 0.0625871 0.06244595 0.06172881 0.06102473 0.06080889 0.06098767
 0.06116789 0.06110832 0.06079944 0.06038661 0.06020971 0.0607006 0.06195842 0.06341372 0.06403819 0.06298809
 0.06020119 0.05659533 0.05373921 0.05301288 0.05463159 0.05735756 0.05942787 0.05996198 0.05938953 0.05856745
 0.05786112 0.05723961 0.05685799 0.0570974 0.05803242 0.05906615 0.05923032 0.05800886 0.05595523 0.05430822
 0.05386462 0.05447514 0.05569879 0.05728274 0.05848856 0.05771413 0.05407076 0.04937244 0.04732328 0.04999552
 0.05561954 0.06032264 0.06157635 0.05959591 0.05619953 0.05330154 0.05220722 0.05326164 0.0557752 0.05860283
 0.06084391 0.0618824 0.06123474 0.05896981 0.05611423 0.05414754 0.05409136 0.05611627 0.0595092 0.06272905
 0.06410407 0.0630713 0.06055351 0.05797891 0.05633778 0.05618952 0.05780199 0.06086518 0.06447631 0.06767246
 0.06982812 0.07070412 0.07048748 0.06967756 0.06870772 0.06787419 0.06760757 0.06820719 0.06913094 0.06920101
 0.06789336 0.0660467 0.06500189 0.06521611 0.06589766 0.06596385 0.06513286 0.06374374 0.06168579 0.05838675
 0.05412523 0.05037057 0.04831401 0.04797085 0.04906266 0.05146962 0.05418127 0.05523504 0.05385408 0.05181496
 0.0516744 0.05404989 0.05730776 0.05958356 0.06051297 0.0611093 0.06244614 0.0645487 0.06624573 0.06604192
 0.06359689 0.060569 0.05944731 0.06111015 0.06398539 0.06599592 0.0667567 0.06734665 0.06842332 0.06920531
 0.06828347 0.0652905 0.06180896 0.06039624 0.06235348 0.06642052 0.06968649 0.06973776 0.06628269 0.06123436
 0.05722477 0.05577884 0.05689465 0.0600415 0.06475004 0.07009214 0.07443799 0.07635999 0.07566658 0.07333769
 0.0704056 0.06699499 0.0628479 0.05890781 0.05752075 0.060215 0.06573962 0.07110721 0.07426073 0.07509586
 0.07428956 0.07202287 0.06818663 0.06363991 0.06062189 0.06101085 0.06406621 0.06685081 0.06731027 0.06614552
 0.06529732 0.06551258 0.06606512 0.06626914 0.0664591 0.06743492 0.0693353 0.07133825 0.07246433 0.07246669
 0.07187694 0.07138018 0.07119019 0.07089382 0.07004208 0.06906016 0.06918843 0.07111922 0.0740374 0.07645473
 0.0776955 0.07813533 0.07820754 0.07764383 0.07586278 0.07306644 0.07069335 0.07035331 0.07226704 0.07512386
 0.07744345 0.07864447 0.07890566 0.07862358 0.07814499 0.0776583 0.07724917 0.077135 0.07761341 0.07862905
 0.0796746 0.08029628 0.08046366 0.08034097 0.07996612 0.07932235 0.07857165 0.07805108 0.07802872 0.07850317
 0.07925323 0.08003477 0.08066089 0.08095907 0.08083528 0.08041397 0.07996673 0.07966442 0.07951186 0.0795147
 0.07974414 0.0801924 0.08069406 0.08106126 0.08123454 0.08126664 0.08121629 0.08110183 0.08093398 0.08076604
 0.08070096 0.08081658 0.08106796 0.08131659 0.08149633 0.08168396 0.08194328 0.08217382 0.08221436 0.08205619
 0.08186077 0.08178113 0.08183672 0.08195274 0.08204733 0.0820484 0.08188185 0.08153361 0.08114259 0.08095463
 0.08112678 0.08161056 0.08223747 0.08284488 0.08330734 0.08355593 0.0836254 0.08361678 0.08357874 0.08347571
 0.08328575 0.0830847 0.0830173 0.08318959 0.08357648 0.08403322 0.08440817 0.08463544 0.08473453 0.08478142
 0.08488053 0.08508095 0.08529678 0.0853842 0.08531934 0.08523542 0.08526193 0.08537927 0.08545832 0.08541766
 0.08531694 0.08529338 0.0854178 0.08563307 0.0858352 0.08598766 0.08613972 0.08634162 0.08655384 0.08665712
 0.08657545 0.08637631 0.08620682 0.08614013 0.08614183 0.08618195 0.08629662 0.08650528 0.08672979 0.08685686
 0.0868652 0.08684547 0.08688541 0.08696467 0.08698405 0.08688342 0.08670439 0.08654261 0.08646578 0.08648001
 0.08654614 0.08660833 0.08661938 0.08656252 0.08645864 0.08634679 0.08625656 0.08620889 0.08624075 0.08639437
 0.08664954 0.08688109 0.08693212 0.08675584 0.08647163 0.08626036 0.08620203 0.08622093 0.08618073 0.08601526
 0.08576573 0.08551721 0.08532339 0.08518606 0.08508098 0.08499287 0.08493853 0.08496198 0.08508624 0.08525243
 0.08532946 0.08522279 0.08497187 0.08471239 0.08454859 0.08448783 0.08447883 0.08447199 0.08445334 0.08445387
 0.08451113 0.08460017 0.08463585 0.0845709 0.08445832 0.0843972 0.08445235 0.08462942 0.08487006 0.08505858
 0.08509603 0.08499757 0.08487923 0.08483626 0.08487055 0.08493856 0.08501944 0.08511461 0.08521747 0.08531871
 0.08543219 0.08559193 0.08581656 0.08608145 0.08632731 0.0865013 0.08660094 0.0866854 0.08683546 0.08708967
 0.08741406 0.08773276 0.0879891 0.08818343 0.08835721 0.08854236 0.08873504 0.08892657 0.0891415 0.08941598
 0.08974425 0.09007768 0.09037887 0.0906532 0.09092535 0.09120736 0.09149766 0.09180273 0.09214982 0.0925623
 0.09300931 0.09339847 0.09365003 0.09377883 0.09388708 0.09408222 0.09440462 0.09480178 0.09515352 0.09536119
 0.0954483 0.09554642 0.09575117 0.09602321 0.09626862 0.09648525 0.09677048 0.09718601 0.09766307 0.09806261
 0.0983093 0.09845078 0.09859186 0.09878211 0.09897625 0.09910682 0.0991779 0.09925945 0.09939702 0.09957319
 0.09977293 0.1000356 0.1003991 0.1008217 0.1012061 0.101491 0.1016873 0.1018363 0.1019634 0.1020649
 0.1021204 0.1021278 0.1021314 0.1021895 0.1023032 0.1024079 0.1024548 0.102472 0.1025264 0.1026559
 0.1028618 0.1031339 0.1034467 0.1037491 0.1040083 0.1042644 0.1045907 0.1049798 0.1053151 0.1054916
 0.1055306 0.1055334 0.1055565 0.1055934 0.1056572 0.1058046 0.1060621 0.1063847 0.1067117 0.1070296
 0.1073608 0.1077096 0.1080375 0.1082822 0.1084012 0.1084052 0.108361 0.108358 0.108464 0.1086945
 0.1090097 0.1093415 0.1096315 0.109843 0.1099477 0.1099344 0.1098514 0.1098108 0.1098991 0.1100809
 0.1102183 0.110191 0.1099746 0.1096054 0.1091122 0.108509 0.1078361 0.1071758 0.1066189 0.1062201
 0.105997 0.1059688 0.1061745 0.1066291 0.1072686 0.1079658 0.1086045 0.1091113 0.1094155 0.1094339
 0.109129 0.1085615 0.1078552 0.1071226 0.1064327 0.1058085 0.1052289 0.1046635 0.1041502 0.1038326
 0.1038926 0.1044443 0.1054779 0.1068669 0.1084021 0.1098566 0.111077 0.1120418 0.1128318 0.11354
 0.1142138 0.1148684 0.1155211 0.1161803 0.1168155 0.1173779 0.1178548 0.1182796 0.1186856 0.1190718
 0.1194162 0.1197008 0.1199289 0.1201312 0.1203377 0.1205273 0.1206319 0.1206133 0.1205112 0.1203935
 0.1202784 0.1201239 0.1198739 0.1195051 0.11906 0.118663 0.1184974 0.1187275 0.1194092 0.1204584
 0.1217117 0.123024 0.1243012 0.1254573 0.1263934 0.1270533 0.1274785 0.1277771 0.1280452 0.1283288
 0.1286359 0.1289562 0.1292727 0.129572 0.129854 0.130136 0.1304457 0.1307945 0.131153 0.1314676
 0.1317127 0.131925 0.1321754 0.1325056 0.1328878 0.1332533 0.133568 0.1338656 0.1341883 0.134514
 0.1347793 0.1349666 0.1351297 0.1353354 0.1356123 0.1359516 0.1363155 0.1366453 0.1368973 0.1370834
 0.1372564 0.1374551 0.1376797 0.1379153 0.1381553 0.1384009 0.1386529 0.1389174 0.1392063 0.1395197
 0.1398254 0.1400746 0.1402479 0.1403829 0.1405421 0.140754 0.1409919 0.1412089 0.1413896 0.1415699
 0.1418028 0.1421004 0.1424131 0.1426726 0.1428522 0.1429808 0.1431068 0.1432614 0.1434508 0.1436656
 0.1438889 0.1441061 0.1443152 0.1445258 0.1447448 0.1449656 0.1451764 0.1453745 0.1455673 0.1457633
 0.1459663 0.1461775 0.1464002 0.1466448 0.1469224 0.1472244 0.147513 0.147748 0.1479219 0.1480595
 0.1481872 0.1483187 0.1484633 0.1486284 0.1488131 0.1490099 0.1492149 0.1494274 0.1496426 0.1498526
 0.1500556 0.1502571 0.1504629 0.1506733 0.1508866 0.1511045 0.1513284 0.1515535 0.1517692 0.1519693
 0.1521604 0.1523559 0.152562 0.1527704 0.1529678 0.1531509 0.1533301 0.1535158 0.1537064 0.1538936
 0.1540747 0.1542541 0.1544375 0.1546278 0.1548263 0.1550314 0.1552387 0.1554428 0.1556416 0.1558387
 0.1560393 0.1562414 0.1564375 0.1566265 0.1568167 0.1570143 0.1572154 0.1574138 0.1576094 0.1578054
 0.158001 0.1581923 0.1583792 0.1585682 0.1587674 0.1589782 0.1591932 0.1594033 0.159604 0.1597949
 0.1599791 0.1601641 0.1603555 0.1605535 0.160758 0.1609722 0.1611952 0.1614189 0.1616359 0.1618464
 0.1620536 0.1622604 0.1624714 0.1626917 0.1629204 0.1631498 0.1633715 0.1635815 0.1637808 0.1639708
 0.164151 0.1643223 0.1644904 0.1646625 0.1648414 0.1650246 0.1652068 0.1653851 0.1655643 0.1657526
 0.1659505 0.1661515 0.166354 0.1665615 0.1667723 0.1669807 0.1671862 0.1673911 0.1675931 0.1677913
 0.1679922 0.1682017 0.1684174 0.168631 0.1688354 0.1690293 0.1692202 0.1694166 0.169618 0.1698192
 0.1700201 0.170223 0.1704274 0.1706325 0.1708394 0.1710488 0.1712631 0.1714853 0.1717103 0.171928
 0.1721372 0.1723463 0.1725585 0.172772 0.1729883 0.1732071 0.1734219 0.1736301 0.1738358 0.1740417
 0.1742478 0.1744553 0.1746626 0.1748677 0.1750771 0.1752965 0.1755176 0.1757317 0.1759452 0.1761657
 0.1763882 0.1766051 0.1768106 0.1769898 0.1771053 0.1770503 0.1765443 0.1750269 0.1716468 0.1654327
 0.155682 0.1424063 0.1264815 0.1093367 0.09242889 0.07686362 0.06328975 0.05198775 0.04301069 0.03627313
 0.03161117 0.02888235 0.0280682 0.02937871 0.03336596 0.04059675 0.05042119 0.0598845 0.06487791 0.06338333
 0.05740355 0.05113773 0.04749117 0.04666971 0.04743307 0.04872306 0.05020144 0.05205406 0.05461027 0.05797336
 0.06199638 0.06667412 0.07233784 0.0792302 0.08699399 0.09481773 0.1021273 0.109035 0.1160736 0.1235543
 0.1312321 0.1385401 0.1450402 0.1506462 0.1555379 0.159963 0.1640986 0.1680287 0.1717881 0.1753646
 0.1786262 0.1812939 0.1830728 0.1838719 0.1839087 0.1835914 0.1832826 0.183156 0.1832329 0.1834888
 0.183905 0.1844633 0.1851399 0.1859046 0.1867199 0.187552 0.1883821 0.1891977 0.1899794 0.1907079
 0.1913764 0.1919891 0.1925548 0.1930827 0.1935745 0.1940242 0.1944312 0.1948057 0.1951598 0.1955015
 0.1958355 0.1961586 0.1964588 0.1967263 0.1969647 0.1971864 0.1974034 0.1976225 0.1978424 0.1980557
 0.1982594 0.1984587 0.1986621 0.198875 0.1990961 0.199314 0.1995126 0.1996878 0.1998547 0.2000304
 0.2002183 0.2004146 0.2006187 0.2008312 0.2010468 0.2012566 0.2014542 0.2016374 0.201808 0.2019725
 0.2021443 0.2023384 0.2025566 0.2027815 0.2029945 0.2031972 0.2034047 0.2036213 0.2038372 0.2040466
 0.2042539 0.2044659 0.2046853 0.2049073 0.2051157 0.2052895 0.205425 0.2055466 0.2056941 0.2058928
 0.2061312 0.2063707 0.2065837 0.2067757 0.2069672 0.2071635 0.2073534 0.20753 0.2077034 0.2079002
 0.2081418 0.2084167 0.2086878 0.2089361 0.2091742 0.2094146 0.2096535 0.2098897 0.2101229 0.2103296
 0.2104777 0.2105795 0.2107073 0.2109394 0.2112866 0.2116749 0.2120116 0.2122681 0.2124859 0.2127172
 0.2129823 0.2132534 0.2134483 0.21349 0.21343 0.2134603 0.2137381 0.2142283 0.2147644 0.2152194
 0.2155752 0.2158706 0.2161351 0.2163617 0.2165134 0.2165615 0.2165463 0.2165994 0.2168582 0.2173268
 0.2178577 0.2183005 0.2186218 0.21886 0.219049 0.2192128 0.219328 0.219267 0.2189321 0.2185077
 0.2184202 0.2189229 0.2198087 0.2206334 0.2211584 0.2214735 0.2217465 0.2220182 0.2222475 0.2223458
 0.2220839 0.2212282 0.2199985 0.2191855 0.219496 0.2208395 0.2224703 0.223732 0.2244693 0.2248549
 0.2250999 0.2253162 0.2254355 0.2252181 0.2245213 0.2236506 0.2232803 0.2238309 0.2249976 0.2260767
 0.2266842 0.226955 0.2271643 0.2274175 0.2275816 0.2272431 0.2259387 0.2238478 0.2221467 0.2221822
 0.2241488 0.2268492 0.2288795 0.2298369 0.2302016 0.2302969 0.2298158 0.2283757 0.226091 0.2235149
 0.221476 0.2209819 0.2225499 0.2253558 0.2276995 0.2286865 0.2289816 0.2296954 0.2310566 0.2324173
 0.2331031 0.2329385 0.2321289 0.2308852 0.2293217 0.227818 0.227235 0.2282988 0.2307189 0.2332958
 0.2350358 0.2359067 0.2363084 0.2359051 0.2333971 0.2280889 0.2218355 0.2185179 0.2206132 0.2266033
 0.2326035 0.2361758 0.2376606 0.2383564 0.2387888 0.2385604 0.2365664 0.2315879 0.2241921 0.2179512
 0.2170314 0.2220658 0.2294393 0.2346746 0.2354996 0.2320931 0.2262673 0.2209149 0.2188237 0.2209888
 0.2261892 0.2321963 0.2371077 0.2398601 0.2402142 0.2386492 0.2363216 0.2347817 0.2348505 0.2353927
 0.2341793 0.2307107 0.2270623 0.2248293 0.2226372 0.2186657 0.2146729 0.214822 0.2202852 0.2272862
 0.2313486 0.2318264 0.2310587 0.230084 0.2268218 0.2190484 0.2086212 0.2015241 0.2026394 0.2106844
 0.2193659 0.2235492 0.2233321 0.2221582 0.2222209 0.2222334 0.2192407 0.2124891 0.2053486 0.2024644
 0.2047897 0.2087273 0.2103624 0.2085604 0.2035311 0.1955778 0.1874002 0.1848755 0.1920684 0.2062312
 0.2199832 0.2273845 0.2260436 0.2157455 0.1993536 0.1846284 0.1804281 0.1887383 0.2022546 0.2111226
 0.2107342 0.2024775 0.1895408 0.1748028 0.1622227 0.1571491 0.1630841 0.1781774 0.1953096 0.2055806
 0.2031785 0.189942 0.1758735 0.1719203 0.1799351 0.1913739 0.1968902 0.1948389 0.1898495 0.1868871
 0.1884225 0.1940542 0.2009103 0.2063293 0.2099745 0.210748 0.203891 0.1866948 0.1660568 0.1539581
 0.1550191 0.1640694 0.1757295 0.1892714 0.2024704 0.2082488 0.2026602 0.1923991 0.1891447 0.1971571
 0.2096151 0.216977 0.2164351 0.2124514 0.2098344 0.2086016 0.2063845 0.2039917 0.205592 0.2129885
 0.2224883 0.2290222 0.2314025 0.2318814 0.2323084 0.2327241 0.2326474 0.231912 0.2305842 0.2290815
 0.2280501 0.2276337 0.2273403 0.2267958 0.2256979 0.2226371 0.2154099 0.2041101 0.1931031 0.1875749
 0.188034 0.1906448 0.1929209 0.195166 0.1951639 0.1867113 0.1678191 0.1474054 0.1388065 0.1468961
 0.1644597 0.1804003 0.188237 0.1866561 0.1761689 0.1592745 0.1431107 0.1372618 0.14596 0.1640082
 0.1823093 0.1957085 0.2036521 0.2058598 0.2012856 0.1911749 0.1803681 0.1745604 0.1767896 0.186058
 0.1977155 0.2047284 0.2010891 0.1877337 0.1752124 0.1759729 0.1913322 0.209337 0.2182034 0.2182798
 0.217391 0.2186762 0.2189635 0.217218 0.2180133 0.2252012 0.2362223 0.2446338 0.2457706 0.2385785
 0.2250423 0.2107111 0.2032723 0.2063443 0.2153025 0.2222723 0.2237455 0.220118 0.2110303 0.1973495
 0.186148 0.1864495 0.1987703 0.2139209 0.2234463 0.2273252 0.2301548 0.2332385 0.2330258 0.2265283
 0.216348 0.2090833 0.2088014 0.2134686 0.218371 0.2210881 0.2215013 0.2189506 0.2126505 0.204911
 0.2011709 0.2052476 0.2153531 0.2257484 0.2318668 0.2331598 0.2317251 0.2296002 0.2274088 0.2245386
 0.2204854 0.2165994 0.2158351 0.2195981 0.2255169 0.2298842 0.2319098 0.2339913 0.2379468 0.2425141
 0.24489 0.2437875 0.2406511 0.2383853 0.2390153 0.2420818 0.2449926 0.2452413 0.2427922 0.2403368
 0.2408196 0.2446356 0.2495792 0.2533499 0.2554263 0.2565984 0.2576162 0.2585292 0.2586503 0.2570826
 0.253982 0.251281 0.2513092 0.2544805 0.2589026 0.2623397 0.2640216 0.264497 0.2643892 0.2637523
 0.2624507 0.2607498 0.2593183 0.2586993 0.258923 0.2596463 0.2605091 0.261292 0.2618925 0.2623039
 0.2625841 0.2627795 0.2629028 0.2629859 0.2630683 0.2631214 0.2630779 0.2629752 0.2629761 0.2631832
 0.2634949 0.2637104 0.2637133 0.2634755 0.2629409 0.262035 0.2607929 0.2593595 0.2578195 0.2561365
 0.254375 0.2529465 0.2524831 0.2533641 0.2553651 0.2577991 0.2599832 0.2615747 0.2625638 0.2630904
 0.2633149 0.2633753 0.2633614 0.2632962 0.2631583 0.2629327 0.2626354 0.2622932 0.2619239 0.2615441
 0.2611844 0.2608733 0.2606043 0.2603314 0.2600012 0.2595884 0.259103 0.2585769 0.2580386 0.2574842
 0.2568659 0.2561246 0.2552439 0.254278 0.2533244 0.2524599 0.2516881 0.2509488 0.250182 0.24937
 0.2485005 0.2475212 0.246391 0.2451808 0.2440644 0.2431742 0.242491 0.2418851 0.2412309 0.2404642
 0.2395793 0.2386126 0.2376145 0.2366024 0.2355476 0.2344166 0.2332068 0.2319298 0.230582 0.2291486
 0.2276248 0.2260274 0.2243938 0.2227613 0.2211221 0.219391 0.2174294 0.2150988 0.2122909 0.2089322
 0.2049956 0.2005335 0.1956994 0.1907187 0.1858153 0.1811539 0.1768441 0.1729771 0.1696379 0.1668958
 0.1648029 0.1633994 0.162709 0.1627336 0.1634581 0.1648496 0.1668425 0.1693259 0.1721492 0.1751378
 0.1781117 0.180914 0.1834587 0.1857655 0.187927 0.1900109 0.1919948 0.193807 0.1954084 0.196807
 0.1980161 0.199035 0.1998726 0.2005624 0.201144 0.2016404 0.2020585 0.2024079 0.2027065 0.2029667
 0.203189 0.2033771 0.2035513 0.2037366 0.2039472 0.2041882 0.2044644 0.2047844 0.2051627 0.2056109
 0.206119 0.2066594 0.2072149 0.2077932 0.2084079 0.2090662 0.2097856 0.2106074 0.2115771 0.2127106
 0.2139809 0.2153353 0.2167145 0.2180505 0.2192592 0.2202617 0.2210191 0.2215383 0.2218455 0.2219643
 0.2219136 0.2217131 0.2213897 0.2209788 0.2205109 0.219995 0.2194251 0.2188029 0.2181458 0.2174726
 0.2167931 0.2161144 0.2154436 0.2147814 0.21412 0.2134569 0.2128044 0.2121759 0.2115705 0.2109807
 0.2104069 0.2098517 0.2093084 0.2087653 0.2082134 0.2076382 0.2070085 0.2062866 0.205452 0.2045106
 0.2034822 0.2023783 0.2011937 0.1999187 0.1985536 0.1971075 0.1955878 0.1939988 0.192345 0.190629
 0.1888397 0.1869574 0.1849838 0.1829702 0.1810028 0.179156 0.1774555 0.1758802 0.1743916 0.1729687
 0.1716198 0.1703546 0.1691505 0.1679705 0.1668143 0.1657216 0.1647193 0.1637916 0.1629126 0.1620888
 0.161356 0.1607396 0.1602294 0.1597919 0.159401 0.1590539 0.1587715 0.1585899 0.1585308 0.1585659
 0.1586248 0.158645 0.1586021 0.1585007 0.1583664 0.158238 0.158142 0.158073 0.1580091 0.1579251
 0.1577731 0.1574688 0.1569125 0.1560311 0.1548085 0.1532876 0.1515486 0.1496965 0.1478669 0.1462004
 0.1447874 0.143653 0.1427876 0.142154 0.1416773 0.1412789 0.140939 0.140714 0.1406862 0.1408718
 0.1411569 0.1413617 0.1414088 0.1414038 0.1415318 0.1419117 0.1425418 0.1433192 0.1440979 0.1447734
 0.1453127 0.1457084 0.1459544 0.1460725 0.1461002 0.1460487 0.1459121 0.1457012 0.1454361 0.1451323
 0.1448005 0.1444248 0.1439596 0.1433792 0.1427015 0.1419478 0.1411284 0.1402492 0.1392761 0.1381479
 0.1369057 0.1357689 0.1350195 0.134839 0.1352346 0.1360467 0.1370547 0.1381286 0.1392004 0.1400713
 0.140465 0.1404338 0.1405662 0.1415652 0.1435832 0.1460603 0.1482261 0.1496688 0.1503903 0.1504979
 0.1500468 0.1490853 0.1476308 0.1456382 0.1431238 0.1402319 0.1371179 0.1339175 0.1308371 0.1280888
 0.1257609 0.1238667 0.1224113 0.1214316 0.1210439 0.1208691 0.1190089 0.1130292 0.103725 0.09679531
 0.09803135 0.1067889 0.1164532 0.1214251 0.1215638 0.1198602 0.1183732 0.1174125 0.1168827 0.1169472
 0.1177381 0.1190821 0.1205544 0.1217452 0.1225081 0.1229008 0.1228796 0.1220653 0.1197084 0.1149675
 0.1075845 0.09844965 0.08929405 0.08169509 0.07637454 0.07321684 0.07161498 0.07082023 0.07030186 0.06999949
 0.07022741 0.07129865 0.07325637 0.07593798 0.07914652 0.08262559 0.0859661 0.08876932 0.09093955 0.09266675
 0.09410029 0.09517017 0.09573656 0.09578274 0.09542312 0.09480955 0.09407036 0.09327447 0.0923879 0.09130454
 0.09001927 0.08876821 0.08788181 0.08747329 0.08737335 0.08736897 0.08737662 0.08738653 0.08738326 0.08735333
 0.08729651 0.08724095 0.08728085 0.08752886 0.08797852 0.08846807 0.08881756 0.08897804 0.0890336 0.0890431
 0.08888877 0.0883907 0.087624 0.08693478 0.08647786 0.08592602 0.08489172 0.08352796 0.08244985 0.08208825
 0.0823135 0.08267318 0.08281237 0.0826507 0.08235317 0.08223713 0.08255687 0.08321152 0.08373978 0.08374917
</values></Ydata></ScRf><Data_Parameters_AB><parameter name="DPF">1</parameter><parameter name="NPT">3497</parameter><parameter name="FXV">3996</parameter><parameter name="LXV">500</parameter><parameter name="CSF">1</parameter><parameter name="MXY">0.168750613927841</parameter><parameter name="MNY">-0.0714143365621567</parameter><parameter name="DAT">27/05/2022</parameter><parameter name="TIM">12:31:13.726 (GMT+2)</parameter><parameter name="DXU">WN</parameter></Data_Parameters_AB><AB__Qtest><MainReport name="Quality Test Report"><Header><Line><Legend>Test result ok/not ok [1/0]: </Legend><Value>0</Value></Line><Line><Legend>Method file: </Legend><Value>C:\Users\Public\Documents\Bruker\OPUS_8.2.28\QT\IRBT_v3_default.QT</Value></Line></Header><Matrix><Line><Legend></Legend><Legend>min</Legend><Legend>max</Legend><Legend>measured</Legend></Line><Line><Value>Absorption (X-Range 1):</Value><Value>0.400000</Value><Value>2.000000</Value><Value>0.209109</Value></Line><Line><Value>Noise (X-Range 4):</Value><Value></Value><Value>0.000300</Value><Value>0.000061</Value></Line><Line><Value>Signal/Noise (X-Range 2):</Value><Value>200.000000</Value><Value></Value><Value>88.249029</Value></Line><Line><Value>Signal/Noise (X-Range 3):</Value><Value>40.000000</Value><Value></Value><Value>34.575583</Value></Line><Line><Value>Water vapour (X-Range 5):</Value><Value></Value><Value>0.000300</Value><Value>0.000053</Value></Line><Line><Value>Signal/Water (X-Range 2):</Value><Value>100.000000</Value><Value></Value><Value>102.066317</Value></Line><Line><Value>Signal/Water (X-Range 3):</Value><Value>20.000000</Value><Value></Value><Value>39.989137</Value></Line><Line><Value>Fringes (X-Range 6):</Value><Value></Value><Value>0.000100</Value><Value>0.000062</Value></Line></Matrix></MainReport></AB__Qtest><Data_Parameters_ScSm><parameter name="DPF">1</parameter><parameter name="NPT">1814</parameter><parameter name="FXV">3996.33169228125</parameter><parameter name="LXV">499.541461535156</parameter><parameter name="CSF">1</parameter><parameter name="MXY">0.276607394218445</parameter><parameter name="MNY">0.0318518839776516</parameter><parameter name="DAT">27/05/2022</parameter><parameter name="TIM">12:31:13.726 (GMT+2)</parameter><parameter name="DXU">WN</parameter></Data_Parameters_ScSm><Data_Parameters_ScRf><parameter name="DPF">1</parameter><parameter name="NPT">1820</parameter><parameter name="FXV">4004.04661832813</parameter><parameter name="LXV">495.683998511719</parameter><parameter name="CSF">1</parameter><parameter name="MXY">0.264497041702271</parameter><parameter name="MNY">0.0280681997537613</parameter><parameter name="DAT">27/05/2022</parameter><parameter name="TIM">12:30:46.742 (GMT+2)</parameter><parameter name="DXU">WN</parameter></Data_Parameters_ScRf><Optic_Parameters_Rf><parameter name="APR">0</parameter><parameter name="APT">Open</parameter><parameter name="BMS">KBr</parameter><parameter name="DTC">RT-DLaTGS_IR-Biotyper [Microplate reader]</parameter><parameter name="HPF">0</parameter><parameter name="LPF">10.0</parameter><parameter name="LPV">4000</parameter><parameter name="PGR">0</parameter><parameter name="RCH">Module port</parameter><parameter name="RDX">0</parameter><parameter name="SRC">MIR</parameter><parameter name="VEL">10.0</parameter><parameter name="SON">Off</parameter></Optic_Parameters_Rf><Acquisition_Parameters_Rf><parameter name="ADT">1</parameter><parameter name="AQM">DD</parameter><parameter name="CFE">0</parameter><parameter name="COR">0</parameter><parameter name="DEL">0</parameter><parameter name="DLY">0</parameter><parameter name="HFW">8000</parameter><parameter name="LFW">0</parameter><parameter name="NSR">32</parameter><parameter name="PLF">AB</parameter><parameter name="RES">6</parameter><parameter name="RGN">-1</parameter><parameter name="STR">0</parameter><parameter name="TCL">MakeCompatibleScalar (0, {WSV=1.000000, ARV=0});</parameter><parameter name="TDL">37</parameter><parameter name="RPO">0</parameter></Acquisition_Parameters_Rf><FT_-_Parameters_Rf><parameter name="APF">B3</parameter><parameter name="HFQ">500</parameter><parameter name="LFQ">4000</parameter><parameter name="NLI">0</parameter><parameter name="PHR">24</parameter><parameter name="PHZ">ML</parameter><parameter name="SPZ">NO</parameter><parameter name="ZFF">1</parameter></FT_-_Parameters_Rf><Optic_Parameters_><parameter name="APR">0</parameter><parameter name="APT">Open</parameter><parameter name="BMS">KBr</parameter><parameter name="CHN">Module port</parameter><parameter name="DTC">RT-DLaTGS_IR-Biotyper [Microplate reader]</parameter><parameter name="HPF">0</parameter><parameter name="LPF">10.0</parameter><parameter name="LPV">4000</parameter><parameter name="PGN">0</parameter><parameter name="RDX">0</parameter><parameter name="SRC">MIR</parameter><parameter name="VEL">10.0</parameter><parameter name="SON">Off</parameter></Optic_Parameters_><FT_-_Parameters_><parameter name="APF">B3</parameter><parameter name="HFQ">500</parameter><parameter name="LFQ">4000</parameter><parameter name="NLI">0</parameter><parameter name="PHR">24</parameter><parameter name="PHZ">ML</parameter><parameter name="SPZ">NO</parameter><parameter name="ZFF">1</parameter></FT_-_Parameters_><Acquisition_Parameters_><parameter name="ADT">1</parameter><parameter name="AQM">DD</parameter><parameter name="CFE">0</parameter><parameter name="COR">0</parameter><parameter name="DEL">0</parameter><parameter name="DLY">0</parameter><parameter name="HFW">8000</parameter><parameter name="LFW">0</parameter><parameter name="NSS">32</parameter><parameter name="PLF">AB</parameter><parameter name="RES">6</parameter><parameter name="SOT">0</parameter><parameter name="TCL">MakeCompatibleScalar (0, {WSV=1.000000, ARV=0});</parameter><parameter name="TDL">37</parameter><parameter name="SPO">0</parameter><parameter name="SGN">-1</parameter></Acquisition_Parameters_><Instrument_Parameters_Rf><parameter name="HFL">15800.168544</parameter><parameter name="LFL">0</parameter><parameter name="LWN">15800.168544</parameter><parameter name="ABP">32197</parameter><parameter name="SSP">1</parameter><parameter name="ARG">2</parameter><parameter name="ASG">2</parameter><parameter name="ASS">32</parameter><parameter name="GFW">16</parameter><parameter name="GBW">16</parameter><parameter name="BFW">0</parameter><parameter name="BBW">0</parameter><parameter name="PKA">7268</parameter><parameter name="PKL">4996</parameter><parameter name="PRA">7455</parameter><parameter name="PRL">5001</parameter><parameter name="P2A">1</parameter><parameter name="P2L">1</parameter><parameter name="P2R">1</parameter><parameter name="P2K">1</parameter><parameter name="DAQ">0</parameter><parameter name="AG2">1</parameter><parameter name="SSM">1</parameter><parameter name="RSN">24986</parameter><parameter name="CRR">0</parameter><parameter name="SRT">1653654646.742</parameter><parameter name="DUR">19.6369934082031</parameter><parameter name="TSC">28</parameter><parameter name="MVD">0.319450825452805</parameter><parameter name="AN1">0.225803248984104</parameter><parameter name="AN2">0</parameter><parameter name="VSN">2.485 Apr  4 2017</parameter><parameter name="SRN">0085</parameter><parameter name="CAM">0</parameter><parameter name="INS">IR-Biotyper</parameter><parameter name="FOC">69</parameter><parameter name="RDY">1</parameter><parameter name="ARS">32</parameter></Instrument_Parameters_Rf><Sample_Parameters_><parameter name="BLD"></parameter><parameter name="CNM">Admin</parameter><parameter name="CPY"></parameter><parameter name="DPM"></parameter><parameter name="EXP">IRBT_v3_32Scans.XPM</parameter><parameter name="LCT"></parameter><parameter name="SFM">Microplate, HTS-XT</parameter><parameter name="SNM">220527-1039(v.2)_AMA28F (D_2)_E12_849d2f1b-be40-436e-8ae6-3f29f7476ca9.0</parameter><parameter name="XPP">C:\Users\Public\Documents\Bruker\OPUS_8.2.28\XPM</parameter><parameter name="IST">OK</parameter><parameter name="CPG">1252</parameter><parameter name="UID">36927aa1-378c-486c-9eb5-734b3b89d876</parameter></Sample_Parameters_><Instrument_Parameters_><parameter name="HFL">15800.168544</parameter><parameter name="LFL">0</parameter><parameter name="LWN">15800.168544</parameter><parameter name="ABP">32197</parameter><parameter name="SSP">1</parameter><parameter name="ASG">2</parameter><parameter name="ARG">2</parameter><parameter name="ASS">32</parameter><parameter name="GFW">16</parameter><parameter name="GBW">16</parameter><parameter name="BFW">0</parameter><parameter name="BBW">0</parameter><parameter name="PKA">7316</parameter><parameter name="PKL">4988</parameter><parameter name="PRA">7632</parameter><parameter name="PRL">4993</parameter><parameter name="P2A">1</parameter><parameter name="P2L">1</parameter><parameter name="P2R">1</parameter><parameter name="P2K">1</parameter><parameter name="DAQ">0</parameter><parameter name="AG2">1</parameter><parameter name="SSM">1</parameter><parameter name="RSN">13119</parameter><parameter name="CRR">0</parameter><parameter name="SRT">1653654673.727</parameter><parameter name="DUR">19.635986328125</parameter><parameter name="TSC">28</parameter><parameter name="MVD">0.405840992927551</parameter><parameter name="AN1">0.225812123775597</parameter><parameter name="AN2">0</parameter><parameter name="VSN">2.485 Apr  4 2017</parameter><parameter name="SRN">0085</parameter><parameter name="CAM">0</parameter><parameter name="INS">IR-Biotyper</parameter><parameter name="FOC">69</parameter><parameter name="RDY">1</parameter></Instrument_Parameters_><History/></OPUSDataFile>
