<?xml version="1.0" encoding="UTF-8" ?>
<OPUSDataFile><AB><Ydata ylabel="Absorbance Units"><values byteorder="INTEL" format="FLOAT32" numvalues="3497"> -0.07484086 -0.07485137 -0.07485496 -0.0748524 -0.0748312 -0.07479076 -0.07473323 -0.07465976 -0.07458512 -0.0745111
 -0.07445643 -0.07442044 -0.07441223 -0.07442681 -0.07445773 -0.07449936 -0.07453879 -0.07457589 -0.07460465 -0.07462944
 -0.07465214 -0.07467496 -0.07469996 -0.07472663 -0.07475523 -0.07478521 -0.07481717 -0.07484697 -0.07487494 -0.07489032
 -0.07489206 -0.07487313 -0.07483314 -0.07477903 -0.07471188 -0.07464721 -0.07458578 -0.07454007 -0.07450955 -0.07449977
 -0.07450806 -0.07453248 -0.07456689 -0.07460073 -0.07462899 -0.07463973 -0.0746379 -0.07462117 -0.07460259 -0.07458947
 -0.0745869 -0.07460147 -0.07462045 -0.07464329 -0.07465155 -0.07464092 -0.07460964 -0.07455583 -0.07449949 -0.07444166
 -0.0744063 -0.0743933 -0.07440729 -0.07444498 -0.07448868 -0.07453665 -0.07457193 -0.0745981 -0.07461499 -0.0746273
 -0.07464288 -0.07466403 -0.07469678 -0.07474063 -0.07479928 -0.07486446 -0.07493655 -0.07499443 -0.0750308 -0.07502955
 -0.074981 -0.0749011 -0.07478742 -0.07468259 -0.07459006 -0.07454682 -0.07455521 -0.07462485 -0.07475384 -0.07491999
 -0.07511696 -0.07529577 -0.07545076 -0.07553102 -0.07554475 -0.07548124 -0.07536265 -0.07522093 -0.0750723 -0.07494982
 -0.07485521 -0.07480305 -0.074782 -0.07479274 -0.07481389 -0.0748376 -0.07484978 -0.07484253 -0.07482529 -0.07479693
 -0.07477867 -0.07477328 -0.07478484 -0.07481382 -0.07484214 -0.07486942 -0.0748852 -0.07489262 -0.07490666 -0.07492943
 -0.07497946 -0.07505032 -0.07513799 -0.07522994 -0.07530135 -0.07534949 -0.07535754 -0.07533889 -0.07529931 -0.07524816
 -0.07519408 -0.07513467 -0.07506845 -0.07500325 -0.07493685 -0.07489721 -0.07488779 -0.07493594 -0.07504722 -0.07520985
 -0.07542414 -0.07559036 -0.07570323 -0.0756548 -0.07546202 -0.07517979 -0.07482974 -0.0745262 -0.07426774 -0.07410894
 -0.07403713 -0.07406 -0.07415254 -0.07429326 -0.07444832 -0.07458151 -0.074678 -0.07471299 -0.07470855 -0.0746659
 -0.07461212 -0.07455716 -0.07450251 -0.0744503 -0.07439473 -0.07433438 -0.07427871 -0.07422814 -0.07419758 -0.07418693
 -0.07419691 -0.07422542 -0.07425918 -0.07429661 -0.07432461 -0.07434306 -0.07434545 -0.07433142 -0.07429595 -0.07424286
 -0.07417165 -0.07409527 -0.0740225 -0.07396798 -0.07394362 -0.0739529 -0.07400347 -0.07407916 -0.0741807 -0.07427595
 -0.07436001 -0.07440738 -0.07441374 -0.07437827 -0.07430049 -0.07419674 -0.07406817 -0.07393408 -0.07379563 -0.07366989
 -0.07355733 -0.07346971 -0.07340533 -0.07336693 -0.07334996 -0.07334866 -0.07335725 -0.07336702 -0.07337283 -0.07336768
 -0.07334833 -0.07331065 -0.07325498 -0.07317943 -0.07308963 -0.0729847 -0.07287966 -0.07277543 -0.07269415 -0.07263832
 -0.07262252 -0.07264803 -0.07270942 -0.07280525 -0.07291096 -0.07302405 -0.07311491 -0.07318408 -0.07321668 -0.07321739
 -0.07319035 -0.07314011 -0.0730761 -0.07300206 -0.07292451 -0.07285082 -0.07278691 -0.07274551 -0.07273498 -0.0727653
 -0.07284607 -0.07296599 -0.07313003 -0.07329438 -0.07345372 -0.07356436 -0.07361858 -0.07362016 -0.07356871 -0.07347918
 -0.07335104 -0.07317152 -0.07294291 -0.07267138 -0.07236724 -0.07207449 -0.07180138 -0.07159265 -0.07144801 -0.07139283
 -0.0714083 -0.0714872 -0.07159556 -0.07169905 -0.0717855 -0.07183382 -0.07185849 -0.07186106 -0.0718525 -0.07183883
 -0.07181177 -0.07177202 -0.07170219 -0.07159942 -0.07146309 -0.07129248 -0.07111253 -0.07092506 -0.07076423 -0.0706307
 -0.07054804 -0.07051086 -0.07051433 -0.07054395 -0.07055772 -0.07054938 -0.0704813 -0.07037283 -0.0702334 -0.07007967
 -0.06993415 -0.06979013 -0.06965205 -0.06950377 -0.06933752 -0.06915159 -0.06894077 -0.06872325 -0.06850072 -0.06829295
 -0.06810338 -0.06793325 -0.06778334 -0.06763072 -0.06747419 -0.06728879 -0.06707769 -0.06685211 -0.06661689 -0.06640069
 -0.06619935 -0.06601634 -0.06584602 -0.06567868 -0.06551366 -0.06534759 -0.06517687 -0.06499956 -0.06480569 -0.0645886
 -0.06434268 -0.06406429 -0.06375034 -0.06340167 -0.06300372 -0.06255288 -0.06204602 -0.06147993 -0.06088281 -0.06025603
 -0.05963197 -0.05901181 -0.05841455 -0.05784089 -0.05730598 -0.05680878 -0.05635604 -0.05594024 -0.05554559 -0.05516373
 -0.05477044 -0.05436554 -0.05394073 -0.05349297 -0.05302022 -0.05250949 -0.05194896 -0.05134289 -0.05068585 -0.0500027
 -0.04930163 -0.04858795 -0.04786488 -0.04712601 -0.04636972 -0.0456047 -0.04483104 -0.04407142 -0.04332697 -0.04261864
 -0.04194554 -0.04131469 -0.04071807 -0.04013116 -0.03953569 -0.03886557 -0.03811831 -0.03724472 -0.03628733 -0.03528047
 -0.03426139 -0.03328259 -0.03234053 -0.03145031 -0.03059294 -0.02976603 -0.0289456 -0.0281258 -0.02728341 -0.02641159
 -0.02550772 -0.02457 -0.0236077 -0.02262157 -0.02160897 -0.02056993 -0.019503 -0.01841126 -0.01731843 -0.01622683
 -0.01516114 -0.0141167 -0.01309265 -0.01208535 -0.01108661 -0.01009717 -0.009116407 -0.008140316 -0.007164991 -0.006187866
 -0.005203282 -0.004221302 -0.003247372 -0.002278862 -0.001322546 -0.0003408075 0.0006724705 0.001745884 0.002888413 0.004063284
 0.005269499 0.006443589 0.00758394 0.008670708 0.009707575 0.01071388 0.01169376 0.01267573 0.01365977 0.01466333
 0.01567763 0.01669481 0.01770562 0.01868998 0.01965652 0.02060068 0.02154899 0.02251747 0.02352205 0.0245795
 0.02567119 0.026798 0.02792802 0.02905479 0.03015999 0.03123961 0.0322942 0.03332311 0.03434057 0.03534725
 0.03635515 0.03736404 0.03837584 0.03939224 0.04042133 0.04146586 0.04254139 0.04364074 0.04476066 0.04588529
 0.04698973 0.04807021 0.0491106 0.05012436 0.05111507 0.05209512 0.05307196 0.054048 0.0550261 0.05600269
 0.05697765 0.05794671 0.05890847 0.05986882 0.06082771 0.06180203 0.06279213 0.06380085 0.06482564 0.06584512
 0.06685929 0.06785489 0.06883783 0.06981982 0.07080224 0.07179543 0.07279298 0.07378942 0.07478238 0.07576644
 0.07674502 0.07771929 0.07869013 0.07965825 0.08062363 0.08158589 0.08254754 0.08350941 0.0844705 0.08543099
 0.08638779 0.08734056 0.08829147 0.08924059 0.09018871 0.09113511 0.09207346 0.09300365 0.09392189 0.09482867
 0.09572418 0.09660707 0.09747369 0.09832565 0.09916108 0.09998936 0.1008189 0.101656 0.102509 0.1033734
 0.1042493 0.1051317 0.1060189 0.1069093 0.1078034 0.1086938 0.1095798 0.110454 0.1113154 0.1121679
 0.1130117 0.1138528 0.1146905 0.1155216 0.116346 0.1171604 0.1179656 0.1187631 0.1195532 0.120337
 0.1211163 0.1218939 0.1226724 0.1234574 0.1242449 0.1250349 0.1258201 0.1265958 0.1273637 0.1281237
 0.1288774 0.1296273 0.1303611 0.1310772 0.1317692 0.1324357 0.1330984 0.1337585 0.1344435 0.1351526
 0.1358913 0.1366582 0.1374499 0.1382665 0.1391099 0.139974 0.140851 0.1417257 0.1425742 0.1433848
 0.1441351 0.1448278 0.1454546 0.1460337 0.1465677 0.1470847 0.1475926 0.1481154 0.1486604 0.1492336
 0.1498381 0.1504629 0.1511076 0.1517573 0.1524114 0.1530629 0.1537132 0.1543699 0.1550342 0.1557181
 0.1564158 0.1571187 0.1578148 0.1584728 0.1590922 0.159652 0.1601764 0.1606782 0.1611883 0.1617366
 0.162324 0.1629672 0.1636246 0.1642899 0.1649132 0.165479 0.1659803 0.1664097 0.1668108 0.1671863
 0.1675725 0.16797 0.1683586 0.1687354 0.1690601 0.1693389 0.1695776 0.1697901 0.1700244 0.1702854
 0.1706102 0.170987 0.1714178 0.1718821 0.1723614 0.1728372 0.1732876 0.1737168 0.174113 0.1745174
 0.1749383 0.1754178 0.1759742 0.1765842 0.1772543 0.1778907 0.178487 0.1789631 0.1793169 0.1795601
 0.1797006 0.1798184 0.1799157 0.1800484 0.1802069 0.1803858 0.1805855 0.1807968 0.1810429 0.1813569
 0.1817461 0.1822457 0.1828054 0.18341 0.1839885 0.1844946 0.1849212 0.1852434 0.1855302 0.1857899
 0.1860888 0.186442 0.186846 0.1873046 0.1877547 0.1881933 0.188557 0.1888473 0.1890506 0.1891791
 0.1892819 0.1893763 0.1895433 0.1897895 0.1901753 0.1906797 0.1913078 0.1920082 0.1927361 0.1934371
 0.1940542 0.1945755 0.19497 0.1952855 0.1955246 0.1957576 0.1959996 0.1963017 0.1966729 0.1971443
 0.1977194 0.1984189 0.1992431 0.2001791 0.2012187 0.2022824 0.2033538 0.2043053 0.2051296 0.2057259
 0.2061206 0.2063078 0.20635 0.2063316 0.2063133 0.2063972 0.2065874 0.2069348 0.2073682 0.2078784
 0.2083588 0.2087728 0.2090473 0.2091516 0.2090982 0.2088768 0.2085803 0.208214 0.2078757 0.2075695
 0.2073231 0.2071323 0.2069622 0.2068107 0.2066464 0.2064757 0.2063039 0.2061349 0.2059862 0.2058416
 0.2056934 0.2055003 0.2052213 0.2048124 0.2042226 0.2034518 0.2024722 0.2013528 0.2001001 0.1988157
 0.1975222 0.1962935 0.1951455 0.1941011 0.1931656 0.1923174 0.1915549 0.1908196 0.1901077 0.1893552
 0.1885674 0.187735 0.1868748 0.18604 0.185234 0.1844994 0.183808 0.183138 0.1824589 0.1817212
 0.1809381 0.1800918 0.1792412 0.1784069 0.1776477 0.1769932 0.176454 0.1760478 0.175714 0.1754532
 0.1751565 0.1748147 0.1743476 0.1737518 0.1730448 0.1722344 0.171412 0.1705826 0.1698233 0.1691277
 0.1685153 0.1679768 0.167502 0.1670817 0.1667017 0.1663429 0.1659828 0.1655991 0.1651645 0.164681
 0.164136 0.1635629 0.1629684 0.1623876 0.1618322 0.1613085 0.1608212 0.1603499 0.1598936 0.1594281
 0.1589522 0.1584561 0.1579405 0.1574109 0.1568684 0.1563221 0.1557718 0.1552209 0.1546699 0.1541207
 0.1535754 0.1530395 0.1525109 0.1519926 0.1514705 0.1509365 0.1503743 0.14977 0.1491286 0.1484439
 0.1477461 0.1470402 0.1463526 0.1456899 0.1450513 0.1444381 0.1438318 0.1432313 0.1426211 0.1420009
 0.1413645 0.1407126 0.1400464 0.1393688 0.1386901 0.138014 0.137355 0.1367127 0.1360946 0.1354947
 0.1349092 0.1343327 0.1337568 0.1331901 0.1326296 0.1321022 0.1316167 0.1311929 0.1308447 0.1305392
 0.1302808 0.1299804 0.1296307 0.1291586 0.1285602 0.1278532 0.1270452 0.1262335 0.1254261 0.1247216
 0.1241138 0.1236398 0.1232745 0.1229841 0.1227335 0.12245 0.1221176 0.1216796 0.1211695 0.1205847
 0.1199898 0.1194215 0.1189078 0.1184765 0.1180917 0.1177508 0.1174159 0.1170747 0.1167536 0.1164515
 0.1162343 0.1161053 0.1160826 0.1161598 0.1162638 0.1163824 0.116403 0.116328 0.1160971 0.1157395
 0.1152879 0.1147799 0.1142951 0.1138411 0.1134655 0.1131376 0.1128481 0.1125728 0.1122871 0.1120147
 0.1117555 0.1115465 0.1114042 0.1113099 0.1112684 0.1112158 0.1111448 0.1110351 0.1108852 0.1107533
 0.1106429 0.1106163 0.1106662 0.1107831 0.1109525 0.1111148 0.111267 0.111369 0.1114333 0.1114632
 0.1114688 0.111469 0.1114508 0.1114179 0.1113312 0.1111723 0.1109079 0.1105117 0.1100108 0.1093934
 0.108762 0.1081267 0.1075964 0.1071864 0.1069129 0.1067776 0.1066848 0.1066273 0.106484 0.1062585
 0.1059062 0.1054483 0.1049347 0.1043868 0.1038841 0.1034253 0.1030498 0.1027322 0.1024615 0.1022069
 0.1019393 0.1016444 0.1013024 0.1009258 0.1005097 0.1000898 0.09967272 0.09929096 0.09895476 0.09865252
 0.09838754 0.09809724 0.09777822 0.09737863 0.09690115 0.09637153 0.09579992 0.09526592 0.09476683 0.09434211
 0.09396714 0.09360164 0.09322727 0.09278648 0.09229713 0.09175103 0.09118758 0.09063718 0.09012155 0.08966406
 0.08926084 0.08891491 0.08862226 0.08838126 0.08819616 0.08806913 0.0879913 0.08796437 0.0879496 0.08794501
 0.08789337 0.08779259 0.08759983 0.08731972 0.0869551 0.08651999 0.08606484 0.08560534 0.08520525 0.08487112
 0.08464357 0.0845194 0.08451103 0.08461143 0.08482016 0.08512708 0.08552859 0.0860099 0.08656559 0.08718217
 0.0878545 0.08857855 0.08935114 0.09018397 0.09107599 0.09206133 0.09314168 0.09436978 0.09574753 0.09731502
 0.09906671 0.1009919 0.1030755 0.105257 0.1075222 0.109804 0.1120993 0.114371 0.116627 0.1188606
 0.1210856 0.1233074 0.1255492 0.1278192 0.1301549 0.1325693 0.1351008 0.1377655 0.1405668 0.1435153
 0.1465516 0.1496763 0.1527755 0.155843 0.1587387 0.1614538 0.1638381 0.1658822 0.1674448 0.1685328
 0.1690756 0.1691312 0.1687784 0.168139 0.1674394 0.1668124 0.1665126 0.1665905 0.1671943 0.1682509
 0.1697745 0.171635 0.1737839 0.1761398 0.1786655 0.1813577 0.1842076 0.1872451 0.1904724 0.1939105
 0.1975609 0.2014298 0.2055183 0.2098388 0.2144002 0.21926 0.224441 0.2300611 0.2361371 0.242793
 0.2499789 0.2577277 0.2658144 0.274105 0.2820442 0.2892877 0.2949161 0.2983754 0.2988499 0.2957594
 0.2892608 0.279071 0.2666117 0.2519714 0.2370394 0.2220214 0.2082416 0.1958015 0.1850776 0.1760527
 0.1684335 0.1621692 0.1567852 0.1522543 0.1482245 0.1446865 0.1414465 0.1384905 0.1357096 0.1330904
 0.1305708 0.128157 0.1258296 0.1236133 0.1215162 0.1195602 0.1177568 0.1161136 0.1146348 0.1133237
 0.1121801 0.1112156 0.1104305 0.1098454 0.1094616 0.1092935 0.1093391 0.1095687 0.1099683 0.1104321
 0.1109373 0.1113329 0.1116164 0.1116883 0.1115974 0.1113672 0.1110894 0.1108788 0.1108237 0.1110372
 0.1115692 0.112478 0.1137869 0.1155063 0.1176927 0.1203388 0.1236112 0.12752 0.132327 0.1380765
 0.1448159 0.1525676 0.1605625 0.1686995 0.1751192 0.1796822 0.1803801 0.177408 0.1703004 0.1597109
 0.1470496 0.1329629 0.1193023 0.1062762 0.09494507 0.08510217 0.07695714 0.07015067 0.06453487 0.05981702
 0.05584753 0.05244856 0.04954926 0.04703186 0.04486913 0.04296769 0.04131579 0.03983908 0.03853227 0.03733424
 0.03624229 0.03520977 0.03423662 0.03329935 0.03240044 0.03153727 0.03071229 0.02993118 0.02919388 0.0285042
 0.02785777 0.02725313 0.02667907 0.0261277 0.02558353 0.02503494 0.02447312 0.0238882 0.02329192 0.02268206
 0.02208813 0.02151514 0.02098442 0.02050113 0.02005298 0.01964004 0.01922725 0.01881356 0.01838004 0.0179298
 0.01747751 0.0170258 0.01659613 0.01618262 0.01578186 0.01538401 0.01496711 0.01453108 0.01406288 0.01357738
 0.01308092 0.01259309 0.01212754 0.01169641 0.01130965 0.01096551 0.01066863 0.01039882 0.01015591 0.009904661
 0.009641217 0.009338172 0.008992807 0.008610288 0.008192047 0.007769854 0.007345444 0.006947226 0.006573465 0.006232243
 0.005920336 0.005633393 0.005368658 0.005119668 0.004883195 0.004652507 0.004425651 0.004197096 0.003971155 0.003747725
 0.003534966 0.00333779 0.003155332 0.002991624 0.002827478 0.00266148 0.002468155 0.002243177 0.001981941 0.001683024
 0.001374045 0.001056783 0.0007676068 0.0005056721 0.000282751 9.31023E-05 -8.130142E-05 -0.0002454924 -0.0004240679 -0.0006151075
 -0.0008284476 -0.001055178 -0.001288477 -0.001518681 -0.001732923 -0.001931195 -0.002106096 -0.002273283 -0.002435225 -0.00261424
 -0.002818094 -0.003056887 -0.003336209 -0.003643964 -0.003980815 -0.004320751 -0.004662063 -0.004983645 -0.005285106 -0.005563941
 -0.005821954 -0.006072319 -0.006316268 -0.006566872 -0.006822358 -0.007084822 -0.007351298 -0.007616973 -0.007880218 -0.008136942
 -0.008386405 -0.008626612 -0.008857149 -0.009076588 -0.009287114 -0.009488647 -0.00968584 -0.009880142 -0.01007417 -0.01026914
 -0.01046307 -0.01065602 -0.01084457 -0.01102839 -0.01120793 -0.01138331 -0.01155839 -0.01173281 -0.01190607 -0.01207645
 -0.01223557 -0.01238311 -0.0125118 -0.01262696 -0.01273443 -0.01284156 -0.01296212 -0.0130962 -0.01325078 -0.01341748
 -0.0135929 -0.01377077 -0.01394632 -0.01412139 -0.01429536 -0.01447161 -0.01465117 -0.01483292 -0.0150169 -0.01520132
 -0.01538595 -0.01557209 -0.0157598 -0.01595041 -0.01614339 -0.01633514 -0.01652459 -0.01670456 -0.01687537 -0.01703341
 -0.0171816 -0.01732342 -0.0174627 -0.01760649 -0.01775599 -0.01791551 -0.01808293 -0.01825886 -0.01843865 -0.0186211
 -0.01879995 -0.01897308 -0.01913647 -0.01928812 -0.01943165 -0.01956657 -0.01970319 -0.01984217 -0.01999267 -0.02015495
 -0.02033094 -0.0205199 -0.02071707 -0.02092094 -0.02112229 -0.02132 -0.02150506 -0.02167974 -0.02184277 -0.02200053
 -0.02216104 -0.02232953 -0.02251544 -0.02271601 -0.02293405 -0.02315953 -0.02338902 -0.02361378 -0.0238297 -0.02403562
 -0.02422994 -0.02441771 -0.02459926 -0.02477983 -0.02495992 -0.02514097 -0.02532298 -0.02550489 -0.0256867 -0.02586791
 -0.02604856 -0.02622859 -0.02640773 -0.02658497 -0.02676031 -0.02693287 -0.02710386 -0.02727453 -0.02744611 -0.02762083
 -0.02779735 -0.02797607 -0.02815349 -0.02832796 -0.02849778 -0.02866146 -0.02882139 -0.02897773 -0.02913293 -0.0292877
 -0.02943983 -0.02958931 -0.02973127 -0.02986558 -0.02999129 -0.03010914 -0.03022522 -0.03034055 -0.03046337 -0.0305935
 -0.03073529 -0.03088675 -0.03104639 -0.03121141 -0.03137743 -0.03154211 -0.03170148 -0.03185487 -0.03200016 -0.03213914
 -0.03227169 -0.03240105 -0.03252819 -0.03265531 -0.0327832 -0.03291172 -0.03304091 -0.03317064 -0.0333008 -0.03343385
 -0.03356988 -0.03371078 -0.0338562 -0.03400389 -0.03415317 -0.03429953 -0.03444284 -0.03458048 -0.03471243 -0.03483747
 -0.03495559 -0.03506567 -0.03516959 -0.03526806 -0.0353651 -0.03546375 -0.03556616 -0.0356749 -0.03578734 -0.03590357
 -0.03601937 -0.03613359 -0.03624535 -0.03635403 -0.03646281 -0.03657178 -0.03668612 -0.03680606 -0.03693505 -0.0370727
 -0.03721715 -0.03736734 -0.03751706 -0.03766609 -0.03781002 -0.03795052 -0.03808858 -0.03822658 -0.03836863 -0.03851548
 -0.03867022 -0.0388302 -0.03899556 -0.03916044 -0.03932235 -0.03947648 -0.03961983 -0.03975439 -0.039879 -0.0400027
 -0.04012636 -0.04025855 -0.04040027 -0.04055233 -0.04071461 -0.04087912 -0.04104512 -0.04120192 -0.04134994 -0.04148494
 -0.04160937 -0.0417284 -0.04184451 -0.04196607 -0.04209242 -0.04222699 -0.04236597 -0.04250691 -0.04264634 -0.04278083
 -0.04290951 -0.04303065 -0.04314621 -0.04325607 -0.04336374 -0.04346974 -0.0435777 -0.04368816 -0.04380376 -0.04392485
 -0.04405178 -0.04418452 -0.04432026 -0.04445858 -0.04459419 -0.04472696 -0.04485295 -0.04497316 -0.04508833 -0.04520039
 -0.0453138 -0.04542983 -0.04555291 -0.04568147 -0.0458166 -0.04595334 -0.04608899 -0.04621845 -0.04633765 -0.04644754
 -0.04654637 -0.0466417 -0.04673477 -0.04683171 -0.04693406 -0.04704056 -0.04715144 -0.04726141 -0.04737023 -0.04747446
 -0.04757418 -0.04766884 -0.04775877 -0.04784522 -0.04792884 -0.04801225 -0.04809627 -0.04818381 -0.04827569 -0.04837431
 -0.04848025 -0.04859559 -0.04871851 -0.04884975 -0.0489828 -0.0491155 -0.04924015 -0.04935304 -0.04945285 -0.04953761
 -0.0496139 -0.04968207 -0.04975013 -0.04981888 -0.04989177 -0.04996895 -0.05004954 -0.05013326 -0.05021699 -0.05030065
 -0.05038199 -0.05046182 -0.05054131 -0.05062203 -0.05070855 -0.05080041 -0.05090015 -0.05100314 -0.05110606 -0.05120353
 -0.05128957 -0.05136492 -0.0514271 -0.05148317 -0.05153483 -0.05158804 -0.05164494 -0.05170576 -0.05177094 -0.05183869
 -0.05190887 -0.05198042 -0.05205329 -0.05212766 -0.05220376 -0.05228372 -0.05236838 -0.0524633 -0.05256923 -0.05269147
 -0.05283044 -0.05298914 -0.0531689 -0.05337212 -0.0536024 -0.05386388 -0.05416069 -0.05449622 -0.05487585 -0.05530071
 -0.05578329 -0.05632575 -0.05694763 -0.05765505 -0.05845384 -0.05935051 -0.06030615 -0.06132098 -0.06231221 -0.06327538
 -0.06412725 -0.06486683 -0.06545677 -0.06589919 -0.06618965 -0.06632227 -0.06627559 -0.06604157 -0.06557631 -0.06491624
 -0.06407845 -0.06315206 -0.06223832 -0.06139912 -0.06071727 -0.06020059 -0.05987542 -0.0597288 -0.05976592 -0.05995543
 -0.06030197 -0.06071874 -0.061201 -0.06162147 -0.06196598 -0.06218866 -0.06228724 -0.06231562 -0.06227662 -0.0622188
 -0.06214071 -0.0620589 -0.06197116 -0.0618797 -0.06178169 -0.06167133 -0.06154827 -0.06140839 -0.0612553 -0.06109266
 -0.06091936 -0.06073713 -0.06053974 -0.06032243 -0.0600889 -0.05983584 -0.05958366 -0.05933518 -0.05911313 -0.05892206
 -0.05877041 -0.05866038 -0.05857953 -0.05852719 -0.05847789 -0.05843089 -0.05836887 -0.0582943 -0.05821168 -0.05812483
 -0.05804984 -0.05798719 -0.05794689 -0.05792515 -0.05792122 -0.05792938 -0.05794335 -0.05795834 -0.05796826 -0.05797248
 -0.05796814 -0.05795972 -0.05794773 -0.0579378 -0.05793162 -0.05793112 -0.05793699 -0.05794833 -0.05796504 -0.05798763
 -0.05801613 -0.05805295 -0.05809801 -0.05815108 -0.05821106 -0.05827161 -0.05833135 -0.05838166 -0.05842321 -0.05845227
 -0.05847267 -0.05848865 -0.05850388 -0.05852498 -0.05855105 -0.0585847 -0.05862034 -0.05865595 -0.05868651 -0.05870889
 -0.0587243 -0.05873143 -0.05873813 -0.05874521 -0.05876028 -0.05878453 -0.05881689 -0.05885736 -0.05889755 -0.05893708
 -0.05896857 -0.05899255 -0.05900804 -0.05901642 -0.05902169 -0.0590256 -0.05903441 -0.05904873 -0.05907339 -0.05910525
 -0.05914363 -0.05918269 -0.05921732 -0.05924515 -0.05926257 -0.05927286 -0.0592762 -0.05927659 -0.05927509 -0.05927381
 -0.05927302 -0.05927529 -0.05928086 -0.05929185 -0.05930839 -0.05932852 -0.05935195 -0.05937414 -0.05939497 -0.05941135
 -0.05942346 -0.05943005 -0.05943201 -0.05943016 -0.05942677 -0.05942591 -0.05942909 -0.05944059 -0.05945798 -0.05948135
 -0.05950641 -0.05953043 -0.05955244 -0.05957106 -0.05958828 -0.05960459 -0.05962026 -0.05963552 -0.05964925 -0.0596612
 -0.05967253 -0.05968327 -0.05969641 -0.05971182 -0.05972889 -0.05974684 -0.05976044 -0.05976966 -0.05977065 -0.05976594
 -0.05975931 -0.05975361 -0.05975635 -0.0597659 -0.05978468 -0.05980628 -0.05982628 -0.05984064 -0.05984456 -0.05984168
 -0.05983136 -0.05982119 -0.05981305 -0.05981156 -0.0598181 -0.05983233 -0.05985461 -0.05988076 -0.05991058 -0.05993813
 -0.05996318 -0.05998118 -0.05999258 -0.05999752 -0.0599972 -0.05999603 -0.05999495 -0.05999876 -0.06000694 -0.06002128
 -0.06003963 -0.06006048 -0.06008117 -0.06009895 -0.06011275 -0.06012093 -0.06012449 -0.0601233 -0.06011888 -0.06011164
 -0.06010231 -0.06009091 -0.06007891 -0.06006621 -0.06005721 -0.06005216 -0.06005723 -0.06007244 -0.06009986 -0.06013845
 -0.06018288 -0.06023181 -0.06027715 -0.06031899 -0.06035316 -0.06038112 -0.06040349 -0.06042143 -0.06043658 -0.06044946
 -0.06046108 -0.06047138 -0.06048081 -0.06048837 -0.06049348 -0.06049656 -0.06049674 -0.0604994 -0.06050494 -0.06052017
 -0.06054627 -0.06058194 -0.06062725 -0.06067111 -0.06071297 -0.06074263 -0.06076094 -0.06076802 -0.06076598 -0.06076292
 -0.06075978 -0.06076355 -0.06077274 -0.06078821 -0.06080763 -0.06082799 -0.0608493 -0.06086977 -0.06089257 -0.06091892
 -0.06095145 -0.06099235 -0.06103905 -0.0610922 -0.06114456 -0.06119512 -0.06123788 -0.06127179 -0.06129724 -0.06131415
 -0.06132871 -0.0613413 -0.06135872 -0.06138086 -0.06141068 -0.0614471 -0.06148786 -0.06153125 -0.06157177 -0.06160852
 -0.06163672 -0.06165843 -0.06167321 -0.06168634 -0.06170174 -0.06172427 -0.06175861 -0.06180421 -0.0618631 -0.06192869
 -0.06200028 -0.06206943 -0.06213444 -0.062191 -0.06223811 -0.06227826 -0.06231146 -0.06234465 -0.06237805 -0.0624161
 -0.06245819 -0.06250253 -0.06254811 -0.06258988 -0.06262793 -0.06265935 -0.06268608 -0.0627096 -0.06273296 -0.06276052
 -0.06279399 -0.06283738 -0.06288753 -0.06294516 -0.06300188 -0.06305463 -0.06309733 -0.06312634 -0.06314623 -0.0631561
 -0.06316867 -0.0631853 -0.06321381 -0.06325492 -0.06330346 -0.06335881 -0.06340892 -0.06345391 -0.0634881 -0.06351342
 -0.06353412 -0.06355213 -0.06357495 -0.06360239 -0.06363793 -0.06367948 -0.06372605 -0.06377506 -0.0638238 -0.06387134
 -0.0639158 -0.06395914 -0.06400145 -0.06404562 -0.06409304 -0.06414245 -0.06419443 -0.06424343 -0.06428883 -0.06432746
 -0.06435898 -0.06438655 -0.0644104 -0.06443509 -0.0644604 -0.06448698 -0.06451435 -0.06454064 -0.0645662 -0.06459083
 -0.06461561 -0.06464273 -0.06467193 -0.06470435 -0.06473771 -0.06477035 -0.06480101 -0.06482759 -0.06485301 -0.06487788
 -0.06490494 -0.0649361 -0.06496722 -0.06499827 -0.0650224 -0.06503835 -0.06504726 -0.06504898 -0.06505245 -0.06505797
 -0.06507098 -0.06509081 -0.06511547 -0.06514403 -0.06517176 -0.06519836 -0.06522056 -0.06523872 -0.06525168 -0.06526069
 -0.06526691 -0.06527106 -0.06527464 -0.06527625 -0.06527553 -0.06527107 -0.06526138 -0.0652492 -0.06523445 -0.06522225
 -0.06521375 -0.06521086 -0.06521426 -0.0652209 -0.06523068 -0.06523925 -0.06524653 -0.06525055 -0.06525164 -0.06525117
 -0.06524959 -0.06524949 -0.06525094 -0.06525521 -0.06526273 -0.0652748 -0.06529205 -0.06531677 -0.06534643 -0.06538127
 -0.06541371 -0.06543952 -0.06545258 -0.06544756 -0.06542904 -0.06539575 -0.06536022 -0.06532462 -0.06529725 -0.06527983
 -0.06527063 -0.06526972 -0.06527142 -0.06527561 -0.06528094 -0.06528787 -0.06529946 -0.06531532 -0.06533582 -0.06535939
 -0.06538179 -0.06540249 -0.06541842 -0.0654301 -0.06543738 -0.06543958 -0.06543587 -0.06542651 -0.06540998 -0.06539196
 -0.06537402 -0.0653621 -0.06535943 -0.065363 -0.0653738 -0.06538148 -0.06538501 -0.0653764 -0.06535489 -0.06532065
 -0.06527402 -0.06522251 -0.06516706 -0.06511826 -0.06507645 -0.06504902 -0.06503499 -0.06503559 -0.06504922 -0.06507398
 -0.0651072 -0.06514585 -0.06518435 -0.06521726 -0.06523889 -0.06524279 -0.06523114 -0.06520158 -0.06516435 -0.06512162
 -0.0650823 -0.06504901 -0.06502272 -0.06500426 -0.06498864 -0.0649756 -0.06496053 -0.06494352 -0.06492796 -0.0649149
 -0.06491488 -0.06492743 -0.06495774 -0.06500138 -0.06504974 -0.06509701 -0.06512707 -0.06513985 -0.06512663 -0.06509534
 -0.06504942 -0.06499779 -0.06494752 -0.06490209 -0.06486518 -0.06483557 -0.06481356 -0.06479789 -0.06478832 -0.06478452
 -0.06478678 -0.06479108 -0.06479726 -0.06479818 -0.06479376 -0.06478401 -0.06476967 -0.06475784 -0.06474733 -0.06473736
 -0.06472483 -0.0646989 -0.06466126 -0.0646087 -0.0645472 -0.06448431 -0.06442173 -0.06436387 -0.06431021 -0.0642608
 -0.06421801 -0.06418329 -0.06415661 -0.06413967 -0.06412487 -0.06411139 -0.06409124 -0.06406316 -0.06402397 -0.06397333
 -0.06390966 -0.06383304 -0.06374581 -0.06364902 -0.06355239 -0.06345666 -0.06337087 -0.0632937 -0.06322646 -0.06316687
 -0.06311174 -0.06305791 -0.06300022 -0.06293552 -0.06285781 -0.06276979 -0.06266978 -0.06256662 -0.06246445 -0.06236671
 -0.06227668 -0.06218823 -0.06210091 -0.06200835 -0.06190956 -0.06180237 -0.06168649 -0.06156224 -0.06142965 -0.06129034
 -0.06114384 -0.06098785 -0.06082037 -0.0606298 -0.06041729 -0.06017765 -0.05991879 -0.05965427 -0.05938875 -0.05913638
 -0.0588924 -0.05865745 -0.05842619 -0.05819384 -0.05796234 -0.05773101 -0.05750361 -0.0572819 -0.05706483 -0.05685388
 -0.05663898 -0.05642085 -0.0561734 -0.05589479 -0.05556323 -0.055179 -0.05476518 -0.05432493 -0.0538982 -0.05348105
 -0.05307797 -0.05268 -0.05226253 -0.05182184 -0.05133725 -0.05081331 -0.05024595 -0.04964537 -0.04901926 -0.04837712
 -0.04773215 -0.04707262 -0.04640541 -0.0456825 -0.04489117 -0.04399404 -0.04297278 -0.0418649 -0.04067064 -0.0394466
 -0.03819856 -0.03692421 -0.03562338 -0.03428338 -0.03290822 -0.03153085 -0.03015292 -0.0288054 -0.02747447 -0.0261336
 -0.02477408 -0.02335523 -0.021903 -0.02043508 -0.01897848 -0.01757562 -0.01620968 -0.01488544 -0.01357316 -0.01225687
 -0.0109317 -0.009591332 -0.008245463 -0.006901021 -0.005528831 -0.00413341 -0.002614745 -0.0009644044 0.0008719802 0.002891849
 0.004944147 0.007018917 0.008951851 0.01076577 0.0124833 0.0141313 0.01580436 0.01750785 0.01929403 0.02116765
 0.02314203 0.02526314 0.02756024 0.03013127 0.03305173 0.03638007 0.04020476 0.0443725 0.04888958 0.0534515
 0.05799022 0.06234134 0.06646361 0.07037663 0.07407495 0.0776642 0.08115254 0.0847384 0.08844157 0.09255262
 0.09704129 0.1019648 0.1071799 0.1122442 0.1171367 0.1215475 0.1256559 0.129596 0.1334953 0.1375559
 0.1417574 0.1461536 0.150678 0.1553026 0.1600196 0.1648334 0.169682 0.1745642 0.1793602 0.1840439
 0.1886379 0.1931409 0.197615 0.2020581 0.2063013 0.2103271 0.2138858 0.2169972 0.2196273 0.2218085
 0.2236364 0.2250958 0.2261914 0.2269236 0.2272632 0.2273071 0.2271359 0.2268388 0.2265019 0.2261694
 0.2258858 0.2256558 0.2255014 0.2253621 0.2252368 0.2250269 0.22472 0.2242351 0.2235615 0.2227145
 0.2216967 0.2206199 0.2194822 0.2183168 0.2171014 0.2157426 0.2142185 0.2124058 0.2103105 0.2078652
 0.2051385 0.2021902 0.1991076 0.196018 0.1929188 0.1898579 0.1867747 0.1836278 0.1804684 0.1772758
 0.1742368 0.1713946 0.1688385 0.1665992 0.1645963 0.162826 0.1612167 0.1597665 0.1585069 0.1574419
 0.1566295 0.1560624 0.1557359 0.1556371 0.1557209 0.1559857 0.1564033 0.1569833 0.1577236 0.1586449
 0.1597593 0.1611077 0.1627132 0.1646342 0.1668953 0.1695672 0.1726677 0.1762906 0.1804592 0.1852404
 0.1906636 0.1966214 0.203121 0.2098209 0.2167 0.2232651 0.2294715 0.2346914 0.2388774 0.2414041
 0.2423575 0.2416272 0.2394457 0.2362432 0.2322274 0.2278536 0.2233404 0.2190582 0.2151893 0.2120163
 0.2094727 0.2076275 0.2062651 0.2053162 0.2046823 0.2043078 0.2042874 0.2046343 0.2053689 0.2065033
 0.2078564 0.2094205 0.211126 0.2129815 0.2150577 0.2173613 0.2199662 0.2228635 0.2260807 0.2295663
 0.2333055 0.2370393 0.2405317 0.2431224 0.24399 0.2428321 0.2389266 0.2330748 0.2254719 0.2168291
 0.2074284 0.1976727 0.1876368 0.1779184 0.168606 0.1601607 0.1526498 0.1459957 0.1401931 0.1348898
 0.1300764 0.1255353 0.1212822 0.1172959 0.1135777 0.110132 0.1069243 0.1038837 0.1009729 0.09810106
 0.09525775 0.09240366 0.08952346 0.08661796 0.08359624 0.08042058 0.07699553 0.07321045 0.06934453 0.06539127
 0.06189324 0.05897209 0.05660699 0.05482445 0.05324679 0.05185635 0.05044508 0.04902187 0.04762091 0.04625968
 0.04505388 0.04399875 0.04312943 0.04245388 0.0419876 0.04178828 0.04194817 0.04251913 0.04360733 0.04518763
 0.04728492 0.04983254 0.05281087 0.0561422 0.05980642 0.06370442 0.06781001 0.07206181 0.07644546 0.08095487
 0.08559982 0.09019803 0.09473772 0.09873305 0.1021722 0.1047516 0.1065155 0.1075595 0.1079136 0.1077199
 0.1069976 0.1058352 0.1043 0.1025213 0.1005838 0.0986155 0.09670272 0.0949349 0.0934079 0.09221448
 0.09132128 0.09076209 0.09037326 0.09011825 0.08990677 0.08971334 0.08954898 0.08941116 0.08933592 0.08932497
 0.08938733 0.0895222 0.08972023 0.08998376 0.09032142 0.09073647 0.09125355 0.09185416 0.09252083 0.09320445
 0.09381235 0.09433265 0.09469122 0.09497325 0.09520049 0.09550686 0.09596778 0.09666645 0.09766509 0.09892606
 0.1004663 0.1021591 0.103994 0.1058298 0.107655 0.1093353 0.1108629 0.1121325 0.1131441 0.113868
 0.1143114 0.1145003 0.1144374 0.1141456 0.1136226 0.1128721 0.1118959 0.1106941 0.1092816 0.1076698
 0.1058861 0.1039531 0.1018945 0.09973113 0.09746464 0.09509929 0.09263454 0.09006014 0.08743701 0.08476261
 0.08217034 0.07967263 0.07736256 0.07524566 0.07330512 0.071537 0.06988449 0.06834865 0.06690829 0.06556698
 0.06433233 0.06319272 0.06213317 0.06112114 0.06010342 0.05904047 0.0578682 0.05656222 0.05507477 0.05342631
 0.05159907 0.0496769 0.04767578 0.04570356 0.04379233 0.04199285 0.04032503 0.03875237 0.03727536 0.03582854
 0.03440824 0.03300527 0.03162502 0.03033792 0.0291502 0.02813896 0.02729596 0.02663536 0.02614035 0.0257797
 0.0255385 0.02538124 0.02529298 0.02524555 0.02522427 0.02520892 0.02519183 0.02516185 0.02512372 0.02507464
 0.02502957 0.02499171 0.02497227 0.02497644 0.024988 0.02500837 0.02498768 0.0249232 0.02476792 0.02452266
 0.02418634 0.02376676 0.02330775 0.02282015 0.02236441 0.02194976 0.0216287 0.0214032 0.02130281 0.02131671
 0.02144942 0.02167308 0.02197486 0.02230862 0.022651 0.02295364 0.02319114 0.02334638 0.02340423 0.02339498
 0.02331789 0.02322535 0.02312254 0.02304472 0.02299431 0.0229727 0.0229782 0.02298773 0.02299849 0.02298228
 0.02293741 0.02284309 0.02269846 0.02249036 0.02222084 0.02188358 0.02149194 0.02105356 0.02059562 0.02014062
 0.01971217 0.01933258 0.01900101 0.0187256 0.01848532 0.01827656 0.01808205 0.01789675 0.01772315 0.01756006
 0.01742416 0.01731639 0.01724781 0.01721751 0.01721436 0.01723497 0.01725153 0.01726377 0.01725315 0.01722772
 0.01719547 0.0171696 0.01717604 0.01722315 0.01733361 0.017502 0.01773505 0.01801365 0.01833032 0.01866636
 0.01901091 0.0193626 0.01971722 0.02008736 0.02047538 0.02088489 0.02131808 0.02175539 0.0221959 0.02261083
 0.02299956 0.02334816 0.02365929 0.02394261 0.02420185 0.0244572 0.02470806 0.02496513 0.02522113 0.02546952
 0.0257012 0.02590243 0.02606869 0.02619167 0.02627034 0.02630339 0.02628561 0.02621677 0.02608439 0.02588533
 0.02561012 0.02525495 0.02482721 0.02432591 0.02377504 0.02317587 0.02255446 0.02191181 0.02126646 0.02061892
 0.01998192 0.01935573 0.01874849 0.01815967 0.01759172 0.01704481 0.01651999 0.01601826 0.01554328 0.01508932
 0.01465679 0.01422779 0.0137946 0.01333636 0.01284216 0.01230435 0.01171659 0.01108884 0.01042005 0.009731996
 0.00902598 0.008328141 0.007640093 0.006984237 0.00636136 0.005785478 0.005256921 0.004784608 0.004369174 0.004018677
 0.00373188 0.003511552 0.003351712 0.003244856 0.003181723 0.003147643 0.003138175 0.003140873 0.00316742 0.003215547
 0.003316087 0.003477497 0.003734756 0.004099934 0.004588107 0.005206944 0.005939551 0.006787261 0.007707606 0.008698346
 0.009708738 0.01073656 0.01174143 0.01272373 0.01366504 0.01456878 0.01543712 0.01627537 0.01709749 0.01790866
 0.01872541 0.01954738 0.02038363 0.02122332 0.02206201 0.02288545 0.02368286 0.0244502 0.02518194 0.02588412
 0.02655788 0.02720544 0.02782835 0.0284202 0.0289804 0.02950419 0.02999099 0.03045029 0.0308837 0.0313194
 0.03176089 0.03224626 0.03277719 0.03338154 0.03405711 0.03481224 0.03564435 0.0365527 0.03753519 0.03859118
 0.03971217 0.04089389 0.04211948 0.04337922 0.04465736 0.04594523 0.04723468 0.0485215 0.04980397 0.05108005
 0.05235709 0.05363437 0.05493287 0.05625369 0.05762283 0.05904039 0.06051158 0.06202871 0.06354597 0.06504435
 0.06642432 0.06766901 0.06867576 0.0694574 0.06997687 0.0702877 0.07043202 0.07048282 0.07051303 0.07058336
 0.07075223 0.07104184 0.07148185 0.0720452 0.07273617 0.07349759 0.07432062 0.0751597 0.07600749 0.07685059
 0.07768736 0.07852424 0.07936179 0.0802111 0.08107245 0.08195467 0.08285474 0.08376783 0.08468509 0.0855829
 0.08644886 0.08725104 0.08797758 0.08860125 0.08911424 0.08949957 0.08975774 0.08988218 0.0898835 0.0897617
 0.08953706 0.08921131 0.08881868 0.08836297 0.08788637 0.08739446 0.08691145 0.0864398 0.08597387 0.08551332
 0.08504919 0.08458362 0.08412847 0.08368706 0.08328024 0.08290793 0.08258116 0.08229684 0.08205516 0.08185127
 0.08167928 0.08153491 0.08141008 0.08131006 0.08123402 0.08119339 0.08119598 0.08123571 0.08131762 0.08140834
 0.08150493 0.08156657 0.08158898 0.08153746 0.08140968 0.08117189 0.0808225 0.08033321 0.07970478 0.07892872
 0.07800888 0.07695591 0.0757746 0.07448214 0.07308403 0.07159669 0.07002795 0.0683919 0.06670149 0.06497004
 0.06321576 0.06145357 0.05969426 0.05794931 0.05620836 0.05447206 0.05272326 0.05095672 0.04917559 0.04737849
 0.04558303 0.04379065 0.04200391 0.0402223 0.03843141 0.03663173 0.03481884 0.03299748 0.03118534 0.02938756
 0.02762884 0.02590816 0.02423727 0.02260752 0.02101245 0.0194445 0.01789073 0.01635944 0.01484695 0.01337987
 0.01196688 0.01063415 0.009393645 0.008247428 0.007202138 0.006226548 0.005320405 0.004430837 0.003554239 0.002647872
 0.001711036 0.0007414139 -0.0002563628 -0.001247381 -0.002226415 -0.003152304 -0.004023248 -0.0048127 -0.005522435 -0.006141325
 -0.006677757 -0.007135062 -0.007529956 -0.007877812 -0.008193715 -0.0084935 -0.008778063 -0.009053075 -0.009309609 -0.009544768
 -0.009758272 -0.009946752 -0.01013008 -0.01030874 -0.01051407 -0.01074842 -0.01103222 -0.01136573 -0.0117456 -0.01217
 -0.01262271 -0.0131024 -0.01359548 -0.01410002 -0.01460488 -0.01510601 -0.01559061 -0.01605566 -0.01649173 -0.01689795
 -0.01727153 -0.01760845 -0.01790633 -0.01815904 -0.01836144 -0.01851769 -0.01862458 -0.01870357 -0.01875662 -0.01881087
 -0.01887043 -0.01894792 -0.01904516 -0.0191526 -0.01926961 -0.01938032 -0.01948532 -0.01958302 -0.0196746 -0.0197672
 -0.01985575 -0.01993101 -0.0199839 -0.01998866 -0.01994926 -0.01985339 -0.01972784 -0.01958967 -0.01947157 -0.01940253
 -0.01939159 -0.01945641 -0.01956983 -0.0197326 -0.01989523 -0.02004902 -0.02015345 -0.0202004 -0.02018489 -0.02010491
 -0.01998835 -0.01983663 -0.01967844 -0.01951205 -0.01933646 -0.01914556 -0.01891006 -0.01862739 -0.01827059 -0.01785061
 -0.01737191 -0.01685674 -0.01633726 -0.01582971 -0.01536436 -0.01493765 -0.0145588 -0.01421139 -0.01388981 -0.01358353
 -0.01328581 -0.01300304 -0.01273324 -0.0124967 -0.01229525 -0.01214897 -0.01206004 -0.01202954 -0.01205684 -0.01211938
 -0.01221447 -0.01230969 -0.01240292 -0.01246743 -0.01250243 -0.01249121 -0.01243521 -0.01232789 -0.01217519 -0.01198087
 -0.01175483 -0.01150751 -0.01124693 -0.0109828 -0.01071428 -0.01044476 -0.01016599 -0.009875324 -0.009570247 -0.009248078
 -0.008919422 -0.00858509 -0.008255738 -0.007932616 -0.007613352 -0.007297791 -0.006980592 -0.006662392 -0.006347237 -0.006035646
 -0.005733002 -0.005437561 -0.005146372 -0.00485887 -0.004571777 -0.004287117 -0.004006999 -0.003731309 -0.003461679 -0.003194503
 -0.002927184 -0.002659441 -0.002389115 -0.002122279 -0.001859745 -0.001609319 -0.001373266 -0.001153648 -0.0009523187 -0.0007576528
 -0.0005694628 -0.0003651922 -0.0001438715 0.0001086144 0.000390887 0.000695681 0.001021178 0.001353532 0.001695007 0.00204507
 0.002407169 0.002790631 0.003190971 0.00361008 0.004030666 0.004438489 0.004814101 0.005136315 0.005407343 0.005615758
 0.005796677 0.005956074 0.006134006 0.00634282 0.006588981 0.006877595 0.00718271 0.007502677 0.00781674 0.008124429
 0.008434529 0.008749106 0.009092478 0.009463816 0.009873055 0.0103151 0.01077851 0.01126143 0.01175329 0.01225739
 0.01277733 0.01330647 0.01384543 0.01436964 0.01486273 0.01530671 0.01568325 0.01600726 0.01627583 0.01652204
 0.01675245 0.01698969 0.01723815 0.01750657 0.01779627 0.01810687 0.01843811 0.01877728 0.01912301 0.01945688
 0.01977878 0.02007817 0.02035681 0.02061359 0.02085254 0.02108008 0.02130291 0.02153414 0.02177613 0.02203771
 0.02231365 0.02260086 0.02290225 0.02321512 0.02355586 0.0239313 0.02434302 0.0247966 0.0252652 0.0257465
 0.02621438 0.02666581 0.02709742 0.02750922 0.02791209 0.02830883 0.02872743 0.02917662 0.02971393 0.0303491
 0.03114761 0.03210279 0.03324268 0.03452962 0.03593011 0.03738502 0.03882105 0.04020199 0.04147257 0.04264547
 0.04371916 0.04468729 0.04556767 0.04625672 0.04673966 0.04690705 0.04672596 0.04626773 0.0455266 0.04474116
 0.04392327 0.04327 0.04277878 0.04249551 0.04240565 0.04246091 0.0426493 0.04290932 0.04323362 0.0435787
 0.04393785 0.0442856 0.0446105 0.04489345 0.04512166 0.04527745 0.04536428 0.0453746 0.04533304 0.04524472
 0.04513434 0.04500812 0.04488115 0.04475524 0.04464892 0.0445635 0.04451977 0.04451879 0.04457197 0.04467954
 0.04484923 0.04507947 0.04536882 0.04571066 0.04608182 0.04647931 0.04688273 0.04729918 0.04773391 0.04818418
 0.04865243 0.04912497 0.04958672 0.05004923 0.05051087 0.0509971 0.05153114 0.05205771 0.05257647 0.05299115
 0.05327827 0.05346075 0.05353623 0.05357235 0.05357211 0.05355364 0.05351546 0.05344605 0.05334606 0.05321297
 0.05304983 0.05286397 0.05266054 0.05245162 0.05224771 0.05207225 0.0519257 0.05182328 0.05174362 0.05167546
 0.05160367 0.05151117 0.0514167 0.05131931 0.05125282 0.05122574 0.05125518 0.0513476 0.05148872 0.05167995
 0.05187314 0.05206564 0.05219912 0.05227292 0.05225934 0.05216309 0.0519946 0.0517594 0.05148007 0.05116155
 0.05082582 0.05047503 0.05012494 0.04976698 0.04939511 0.04901055 0.04860229 0.0482076 0.04784366 0.04753262
 0.04729513 0.04709654 0.04693 0.04678086 0.04663966 0.04655708 0.04653822 0.04659932 0.0467409 0.04689788
 0.04706858 0.04721163 0.04733385 0.04745592 0.04757755 0.04770832 0.04784427 0.04797537 0.04811322 0.0482716
 0.04846035 0.0487013 0.04898071 0.04929736 0.0496315 0.04997218 0.05030885 0.05063694 0.05094468 0.05122866
 0.05148087 0.05169842 0.05188762 0.05204889 0.05218539 0.05229726 0.05237976 0.05243346 0.0524646 0.05247323
 0.05246395 0.05243385 0.05237074 0.05228248 0.05217639 0.05207214 0.05201059 0.05198613 0.05201794 0.05206591
 0.05210295 0.05210931 0.05205839 0.05197895 0.05187246 0.05177717 0.05170368 0.05166978 0.05168254 0.05172832
 0.0518094 0.05186768 0.05190007 0.05184229 0.05169622 0.05146496 0.05115948 0.05084546 0.05052841 0.0502642
 0.05004656 0.04989095 0.0497834 0.04971303 0.04965613 0.04958392 0.04947547 0.04930137 0.049066 0.04876195
 0.04840512 0.04800269 0.04755174 0.04705312 0.04650039 0.04588897 0.04524399 0.044565 0.04390785 0.04327559
 0.04272168 0.04224518 0.04185195 0.04153081 0.04122024 0.04090897 0.0405183 0.04005941 0.03951399 0.03891031
 0.03828917 0.03766201 0.03705894 0.036478 0.03592162 0.03540452 0.03493414 0.0345241 0.03418581 0.03390388
 0.03367705 0.03348933 0.03333587 0.03322526 0.03315828 0.03313549 0.03315697</values></Ydata></AB><ScSm><Ydata ylabel="Single channel"><values byteorder="INTEL" format="FLOAT32" numvalues="1814"> 0.07244456 0.07245433 0.07252322 0.07267436 0.07288045 0.0730807 0.07322507 0.07330495 0.07333627 0.073324
 0.07327293 0.07323068 0.07327653 0.07344602 0.07368233 0.07387151 0.07392899 0.07387525 0.07383139 0.07390057
 0.07402906 0.07401738 0.07371005 0.07317378 0.0726556 0.07235546 0.07229988 0.07248195 0.07298259 0.07374033
 0.07429358 0.07411258 0.07326847 0.07245465 0.07221583 0.07242721 0.07262681 0.07254544 0.07218382 0.0717105
 0.07151356 0.07209203 0.0735623 0.07526013 0.07598206 0.07473908 0.07145897 0.06722191 0.06387374 0.06303561
 0.06495269 0.06816053 0.07058685 0.0712077 0.07053651 0.06957453 0.06874026 0.06799962 0.06754902 0.06784271
 0.06895861 0.07018378 0.07037942 0.06894302 0.06652638 0.06458752 0.06406772 0.06479114 0.06623179 0.0680874
 0.06949328 0.06857113 0.06427813 0.05874811 0.05633561 0.05947101 0.0660674 0.07157557 0.07303429 0.07070087
 0.06670574 0.06329407 0.06200613 0.06325483 0.06622455 0.06955602 0.07218568 0.07339773 0.07263321 0.06997283
 0.06661692 0.06430145 0.06423023 0.06660803 0.07059691 0.07438138 0.07599391 0.07477465 0.07180938 0.0687745
 0.06683477 0.0666551 0.06855479 0.07216302 0.07640886 0.08015791 0.08267919 0.08369579 0.08342782 0.08245857
 0.08129379 0.08028402 0.07994318 0.08062942 0.08170867 0.08179912 0.08028422 0.0781395 0.07692486 0.07716882
 0.07794754 0.07800465 0.07701956 0.07538698 0.07296658 0.06908394 0.06407274 0.05966175 0.05724453 0.05683001
 0.05808177 0.06085223 0.06396201 0.06513362 0.0634849 0.06110833 0.0609825 0.06380032 0.06762835 0.07028356
 0.07134865 0.07201524 0.0735421 0.07596269 0.07791139 0.07764412 0.07476917 0.07122609 0.06991178 0.07183626
 0.07515945 0.07746594 0.07831655 0.0789704 0.08018538 0.08104149 0.07989624 0.0763284 0.07218699 0.07045562
 0.0726579 0.07733028 0.08107665 0.08108094 0.07700667 0.07107995 0.0663517 0.06458414 0.06576733 0.06926995
 0.07452866 0.08046624 0.08522349 0.08719812 0.08621246 0.08340481 0.07993867 0.07593759 0.07110566 0.06650567
 0.06476499 0.06758194 0.07354035 0.07929046 0.08253957 0.08319079 0.08202481 0.07927191 0.07483152 0.069639
 0.06610718 0.06624991 0.06926057 0.0719797 0.07220888 0.07070614 0.06954174 0.06949939 0.06980305 0.06972957
 0.06962445 0.0703119 0.07193339 0.07364844 0.07446416 0.07414386 0.07323712 0.07243021 0.07192799 0.07131806
 0.0701548 0.06885163 0.06862836 0.07017083 0.07268175 0.07470292 0.07557479 0.07566176 0.07538395 0.07449794
 0.07247289 0.06951386 0.06697127 0.06633763 0.06779775 0.0701182 0.07193127 0.07271454 0.07263903 0.0720661
 0.07131032 0.07053993 0.06982926 0.06938083 0.0694745 0.0700624 0.0706827 0.0709257 0.07076599 0.07035437
 0.06973039 0.06887816 0.0679297 0.06717442 0.06685153 0.06696124 0.06730295 0.06766209 0.06788781 0.06784458
 0.06745687 0.06682667 0.06617455 0.06563818 0.06522633 0.06495143 0.06487074 0.06497017 0.06511164 0.06514546
 0.06502822 0.06480456 0.06451738 0.0641742 0.0637853 0.0634021 0.06310709 0.06295414 0.06290665 0.06286241
 0.06277103 0.06268685 0.06265597 0.06260233 0.06240594 0.06206362 0.06169704 0.0614184 0.06124422 0.06112394
 0.06099433 0.06079582 0.06047771 0.06003956 0.05958167 0.059269 0.05920202 0.05934097 0.05956858 0.05977874
 0.05989326 0.05987093 0.05974133 0.05957706 0.05940599 0.05919126 0.05890821 0.05860802 0.05839574 0.05835
 0.05845172 0.05859413 0.05867468 0.05866324 0.05858357 0.05847703 0.05839391 0.05836157 0.05834039 0.05825914
 0.05810753 0.05795505 0.05787038 0.05784836 0.05782147 0.0577339 0.05760337 0.05750275 0.05747771 0.05750221
 0.05752312 0.05752079 0.05751107 0.05750555 0.05748348 0.05740387 0.05725356 0.05707805 0.05694217 0.05686381
 0.05681326 0.056771 0.05674988 0.05675803 0.05676999 0.05674838 0.05668389 0.05660337 0.05653455 0.05646867
 0.05637145 0.05622992 0.05607173 0.05593431 0.05582841 0.05573587 0.05563311 0.05551174 0.05537974 0.05524725
 0.05511542 0.05497736 0.05482281 0.05464607 0.05446159 0.0543062 0.054207 0.05414542 0.05406837 0.05393952
 0.05377205 0.05360901 0.05347675 0.05336338 0.0532441 0.05311864 0.05301146 0.0529395 0.05289643 0.05286826
 0.05284841 0.05283687 0.05284262 0.05289055 0.05300808 0.0531922 0.05339921 0.05358009 0.0537242 0.05385902
 0.05401146 0.05418232 0.05435749 0.05453128 0.05471539 0.05492755 0.05516677 0.05540037 0.05559047 0.05573703
 0.05587827 0.05604668 0.05624445 0.05646031 0.05668224 0.05688858 0.05705571 0.0571875 0.05731797 0.05747338
 0.05764553 0.05781185 0.05796907 0.05813469 0.05832218 0.05852983 0.05875499 0.05900603 0.05929143 0.05960041
 0.05990085 0.06016026 0.06037472 0.06058104 0.06083372 0.06115915 0.06153175 0.06189946 0.06223223 0.06254184
 0.06285578 0.06318027 0.06349917 0.06380844 0.06413553 0.06451155 0.06493288 0.06536505 0.06577933 0.06617245
 0.06655499 0.06693606 0.0673207 0.0677122 0.06811313 0.06852397 0.06893799 0.06933864 0.06970948 0.0700497
 0.07037735 0.07071686 0.07108235 0.07146338 0.07182343 0.07212645 0.07237814 0.07263006 0.07292533 0.07324854
 0.07355049 0.07381576 0.07408021 0.0743795 0.07470536 0.07502349 0.07531545 0.07558942 0.07585912 0.07612321
 0.07636249 0.0765546 0.07669681 0.0768147 0.07694302 0.07710166 0.07729657 0.07753235 0.0778043 0.07808279
 0.0783274 0.07851917 0.07866746 0.0787918 0.07891398 0.07905927 0.07924315 0.079456 0.07967144 0.07986349
 0.08001406 0.08012517 0.08023469 0.08039606 0.08062732 0.08089954 0.08118665 0.08149976 0.08185424 0.08222985
 0.08259454 0.08295333 0.08333815 0.08374803 0.08413213 0.0844434 0.08468272 0.08487739 0.0850471 0.08521721
 0.08543883 0.08575661 0.08616069 0.08659411 0.0870036 0.0873685 0.08769159 0.0879823 0.08824701 0.08848374
 0.08868475 0.08884791 0.08898486 0.0891184 0.08926906 0.0894365 0.08959085 0.08968869 0.08969808 0.08960088
 0.08937721 0.08901051 0.08851664 0.08794829 0.08734941 0.08670896 0.08597385 0.08510467 0.08410545 0.08300088
 0.08180307 0.08050992 0.07912919 0.07769788 0.07628101 0.0749556 0.07380012 0.07290378 0.07237342 0.07229555
 0.07265762 0.07329901 0.07395053 0.07434061 0.07429413 0.07377183 0.07284601 0.07163844 0.07026001 0.06878355
 0.06724806 0.0656645 0.0640099 0.06223556 0.06031196 0.05828296 0.05628928 0.05457858 0.05353723 0.05367719
 0.05544655 0.05889904 0.06351168 0.06839521 0.07276362 0.07626598 0.07896449 0.08110222 0.08290796 0.08452329
 0.08600622 0.08736648 0.08860658 0.08973598 0.09075566 0.0916459 0.09237428 0.0929095 0.09323582 0.09337083
 0.0933713 0.0933151 0.09327319 0.09328306 0.09332117 0.09329301 0.09306496 0.09251755 0.09157069 0.09016301
 0.08821604 0.08566998 0.0826962 0.08000207 0.07882699 0.08032142 0.08468637 0.09091478 0.09744425 0.1030817
 0.1074039 0.1105447 0.1128212 0.1145244 0.1158654 0.1169784 0.117944 0.1188122 0.1196133 0.1203619
 0.1210641 0.1217265 0.1223619 0.1229835 0.1235921 0.1241752 0.1247303 0.1252791 0.1258509 0.126454
 0.1270691 0.1276684 0.1282397 0.1287937 0.1293423 0.129875 0.1303698 0.1308266 0.1312731 0.131738
 0.1322306 0.1327434 0.133257 0.133745 0.1341908 0.1346006 0.1349961 0.135394 0.1357987 0.136207
 0.1366123 0.1370083 0.1373933 0.137776 0.1381709 0.138582 0.1389908 0.1393688 0.1397053 0.1400191
 0.1403403 0.1406835 0.1410385 0.1413853 0.1417199 0.142064 0.1424438 0.1428586 0.1432776 0.1436693
 0.1440269 0.1443669 0.1447091 0.145063 0.1454298 0.1458065 0.1461867 0.1465619 0.1469284 0.1472911
 0.1476574 0.1480269 0.1483913 0.1487425 0.1490794 0.1494071 0.1497324 0.1500601 0.1503957 0.1507475
 0.151121 0.1515058 0.1518773 0.1522133 0.1525103 0.1527817 0.1530464 0.1533192 0.1536074 0.1539127
 0.1542339 0.1545672 0.1549049 0.1552362 0.1555552 0.1558668 0.1561823 0.1565093 0.1568449 0.1571821
 0.1575184 0.1578583 0.1582049 0.1585528 0.1588922 0.1592204 0.1595462 0.1598803 0.1602225 0.1605605
 0.160884 0.1611983 0.161521 0.1618649 0.1622273 0.1625948 0.1629556 0.1633041 0.1636408 0.1639704
 0.1642981 0.1646265 0.1649565 0.1652894 0.1656264 0.1659676 0.1663113 0.1666537 0.166989 0.1673154
 0.1676381 0.1679639 0.168293 0.1686204 0.168942 0.1692586 0.1695743 0.1698918 0.1702105 0.1705277
 0.1708432 0.171158 0.1714727 0.171788 0.1721042 0.1724203 0.1727357 0.1730535 0.1733761 0.1737031
 0.1740366 0.1743794 0.1747262 0.1750626 0.1753803 0.1756841 0.1759864 0.1762968 0.1766163 0.1769384
 0.1772599 0.177588 0.1779304 0.1782802 0.1786212 0.1789444 0.1792528 0.1795562 0.179864 0.1801781
 0.1804924 0.1808012 0.1811054 0.1814088 0.1817173 0.1820393 0.1823757 0.182716 0.1830512 0.1833851
 0.1837232 0.1840631 0.1843995 0.1847293 0.1850501 0.185364 0.1856786 0.1860006 0.1863326 0.1866752
 0.1870242 0.1873699 0.1877056 0.1880323 0.1883559 0.1886845 0.189024 0.1893675 0.1896994 0.1900171
 0.1903319 0.1906492 0.1909647 0.1912775 0.1915897 0.1918997 0.192209 0.1925236 0.1928426 0.1931613
 0.1934836 0.1938138 0.1941447 0.1944668 0.1947799 0.1950898 0.1954049 0.1957307 0.1960597 0.1963758
 0.1966771 0.1969761 0.1972815 0.1975944 0.1979154 0.1982379 0.1985519 0.1988587 0.1991603 0.1994355
 0.199633 0.1996316 0.1991231 0.1974854 0.1937656 0.1868694 0.1759986 0.1611576 0.143326 0.1241057
 0.1051304 0.08764654 0.07239281 0.05968909 0.04959101 0.04199959 0.03673672 0.03365552 0.03274613 0.03424641
 0.03877212 0.04695695 0.05806762 0.06877065 0.07442708 0.07275593 0.06601472 0.0589416 0.05481952 0.05388881
 0.05475429 0.05622001 0.05790269 0.06001326 0.06292295 0.06674545 0.07131436 0.07662733 0.08306277 0.09089575
 0.09971873 0.1086102 0.1169231 0.1247894 0.1328072 0.1413145 0.1500273 0.1583149 0.1656994 0.1720915
 0.1776892 0.1827593 0.187493 0.1919878 0.1962934 0.2004003 0.2041517 0.2072202 0.2092674 0.210195
 0.2102597 0.2099312 0.2096204 0.2095188 0.2096447 0.209968 0.210468 0.2111257 0.2119175 0.2128147
 0.213779 0.2147676 0.2157475 0.2166978 0.2176033 0.2184563 0.2192565 0.2200014 0.2206856 0.2213071
 0.2218685 0.222374 0.2228336 0.2232651 0.2236831 0.2240921 0.2244891 0.2248669 0.2252173 0.2255372
 0.2258311 0.2261052 0.2263654 0.2266198 0.2268764 0.2271377 0.2274006 0.2276621 0.2279206 0.228176
 0.2284281 0.2286728 0.228906 0.229132 0.2293625 0.2296012 0.229838 0.2300628 0.2302785 0.2304962
 0.2307254 0.2309681 0.2312182 0.2314648 0.2317003 0.2319252 0.2321458 0.2323721 0.2326114 0.2328595
 0.2331066 0.2333518 0.2336016 0.2338534 0.2340961 0.234329 0.2345639 0.2348101 0.2350695 0.2353383
 0.2356033 0.235845 0.2360553 0.2362496 0.2364579 0.2367018 0.2369765 0.2372536 0.2375099 0.2377494
 0.2379899 0.2382374 0.2384811 0.2387093 0.2389245 0.2391527 0.2394251 0.2397413 0.2400672 0.2403784
 0.2406817 0.2409872 0.2412939 0.2416045 0.2419162 0.2421976 0.2424143 0.2425869 0.2427961 0.2431173
 0.2435459 0.2439951 0.244376 0.2446782 0.2449567 0.2452641 0.2456172 0.2459855 0.246274 0.2463859
 0.2463697 0.2464436 0.2467963 0.2474015 0.2480722 0.2486516 0.2491085 0.2494929 0.2498493 0.2501656
 0.2503832 0.2504648 0.2504725 0.2505741 0.2509246 0.2515097 0.2521478 0.2526733 0.2530648 0.2533784
 0.2536525 0.2539033 0.2540888 0.2540577 0.2537075 0.2532617 0.2532116 0.2538461 0.2549287 0.255946
 0.2566112 0.2570156 0.2573535 0.2576841 0.2579723 0.2581226 0.2578697 0.256936 0.2555619 0.2546476
 0.2550062 0.2565484 0.258435 0.2599145 0.2607953 0.2612612 0.2615506 0.2617964 0.2619258 0.2616656
 0.2608505 0.2598334 0.2593982 0.2600371 0.2613956 0.2626504 0.2633496 0.2636544 0.2638988 0.2642156
 0.2644452 0.2640966 0.2626266 0.2602375 0.2582786 0.2582989 0.2605333 0.2636211 0.2659566 0.2670715
 0.2675087 0.2676392 0.2671177 0.2655022 0.2629042 0.2599402 0.2575634 0.2569519 0.2587249 0.2619486
 0.2646621 0.2658155 0.2661557 0.2669587 0.2684935 0.270021 0.2707731 0.2705544 0.2696046 0.2681688
 0.2663786 0.2646618 0.2639943 0.2652094 0.267987 0.2709601 0.2729824 0.2740008 0.2744647 0.273992
 0.2710962 0.2649755 0.2577608 0.2539273 0.2563353 0.2632288 0.270122 0.2742122 0.2759046 0.2766989
 0.277198 0.2769355 0.2746233 0.2688486 0.2602767 0.2530408 0.251944 0.2577076 0.2661575 0.2721299
 0.2730125 0.2690248 0.2622586 0.25604 0.25358 0.2560272 0.2619659 0.2688193 0.2744006 0.2774934
 0.2778238 0.2759425 0.273174 0.2712927 0.2712489 0.2717552 0.2702501 0.2661446 0.2618234 0.2591293
 0.2564756 0.2517505 0.246959 0.2468745 0.2528495 0.260579 0.2649526 0.2652252 0.2640687 0.2626847
 0.2587132 0.2496207 0.2375093 0.2291467 0.2300326 0.2387087 0.2480807 0.252352 0.2516068 0.2497072
 0.2491247 0.2484414 0.2443925 0.2361429 0.2273671 0.2231337 0.2245039 0.2275663 0.2280372 0.2247097
 0.2179386 0.2081684 0.1982665 0.1943625 0.2006383 0.2141272 0.2270719 0.233328 0.2305608 0.2187394
 0.2008679 0.1846899 0.1789203 0.1854621 0.1971124 0.2042142 0.2023008 0.1927978 0.1788486 0.163172
 0.1493547 0.142161 0.1445918 0.1548547 0.1666916 0.1726072 0.1679598 0.1544549 0.1402366 0.1340044
 0.1372161 0.1432371 0.1448352 0.1407278 0.1344377 0.129618 0.1278923 0.1288767 0.1306664 0.1315221
 0.1312518 0.1294219 0.123473 0.1119333 0.0988861 0.09134105 0.09189485 0.09733942 0.1043866 0.112545
 0.120468 0.1239865 0.1208358 0.1150541 0.1135979 0.1190004 0.1272102 0.1325623 0.133424 0.1325085
 0.1326558 0.1337088 0.1341018 0.1344078 0.1373679 0.144091 0.1520238 0.1577338 0.1604055 0.1615134
 0.1622592 0.1626695 0.1624597 0.1615545 0.1600117 0.1580974 0.1561841 0.1542584 0.1518677 0.1486503
 0.1443816 0.1384039 0.1299407 0.1198068 0.1111974 0.1073731 0.1084514 0.111774 0.1153698 0.1188612
 0.1204228 0.1160804 0.1047343 0.09210391 0.08656554 0.09115098 0.1013524 0.1102667 0.1138979 0.1115289
 0.1036847 0.09219696 0.08173424 0.07842185 0.08515681 0.0991347 0.1149447 0.1289632 0.1397661 0.1460396
 0.1465572 0.1422458 0.1367983 0.1346403 0.1383658 0.1475535 0.1588115 0.1665631 0.1657663 0.1570067
 0.1490042 0.1521843 0.1675403 0.1847714 0.1938226 0.1951392 0.1955482 0.1976702 0.1985715 0.1972389
 0.1976137 0.2029332 0.2107313 0.2152735 0.2127413 0.2027634 0.187553 0.1720399 0.1627066 0.1626597
 0.1683012 0.1733474 0.1749268 0.1731591 0.1673984 0.157914 0.1500712 0.1510507 0.1613999 0.1738889
 0.181781 0.185046 0.1873582 0.189749 0.1893401 0.1837147 0.1750033 0.1686282 0.1680023 0.1715302
 0.1752718 0.1770171 0.1764946 0.1732398 0.1668857 0.15953 0.1555876 0.1580497 0.1655018 0.1735122
 0.1785862 0.1803072 0.1802585 0.1799488 0.179785 0.1792266 0.1778507 0.1767288 0.1782052 0.1833333
 0.1900673 0.1952919 0.1983641 0.2013389 0.2057908 0.2106968 0.2137522 0.2139702 0.2126876 0.2124313
 0.2148733 0.2194482 0.2237246 0.2254385 0.2246153 0.2237239 0.225389 0.2298747 0.2350982 0.238958
 0.2410487 0.2421912 0.2431472 0.2439975 0.2441136 0.2426483 0.2397355 0.2372103 0.2373353 0.2405821
 0.2451899 0.2489711 0.2510442 0.2517791 0.251698 0.2508798 0.2492906 0.2473156 0.2457211 0.2450836
 0.2453829 0.2461812 0.247052 0.2477825 0.2483352 0.248775 0.2492005 0.2496729 0.2502047 0.2507887
 0.2513749 0.2518427 0.252094 0.2521976 0.2523618 0.2527092 0.2531295 0.2534065 0.2534322 0.2532137
 0.2527216 0.2518619 0.2506113 0.2490644 0.2473075 0.2453547 0.2433147 0.2415817 0.2407278 0.2411038
 0.2425324 0.2444103 0.24611 0.2472908 0.2479214 0.2481373 0.2481166 0.2480125 0.2479128 0.2478405
 0.2478008 0.2478205 0.2479339 0.2481414 0.24841 0.2487178 0.2490753 0.2494906 0.249929 0.2503192
 0.2505931 0.2507225 0.2507389 0.2507249 0.2507637 0.2508766 0.251004 0.2510492 0.2509442 0.2506879
 0.2503325 0.2499324 0.2494939 0.248973 0.2483279 0.2475587 0.2466694 0.245602 0.2442666 0.2426603
 0.2409065 0.2391468 0.2374334 0.2357477 0.2340709 0.2323938 0.2306952 0.2289519 0.2271599 0.2253298
 0.2234764 0.2216163 0.2197618 0.2179146 0.2160684 0.2142154 0.2123456 0.210445 0.2084966 0.2064764
 0.2043389 0.2020015 0.1993499 0.1962707 0.1926868 0.1885695 0.1839425 0.1788995 0.1736052 0.1682498
 0.1629873 0.15792 0.1531433 0.1488032 0.145098 0.1422013 0.1401667 0.1389095 0.1382806 0.138156
 0.1384775 0.1392376 0.1404289 0.1419936 0.1438154 0.1457491 0.1476492 0.1493898 0.1509055 0.1522318
 0.1534852 0.1547787 0.1561497 0.1575676 0.1589895 0.1603825 0.1617014 0.1628886 0.1639169 0.1648107
 0.1656082 0.1663228 0.1669494 0.1674849 0.1679297 0.1682833 0.1685467 0.1687245 0.1688324 0.1689094
 0.1690133 0.1692002 0.169522 0.1700395 0.1708139 0.1718728 0.1731919 0.1747155 0.1763951 0.1782041
 0.1801182 0.1821039 0.1841508 0.1863009 0.1886178 0.1911253 0.1937966 0.1965885 0.1994537 0.2023154
 0.2050602 0.2075802 0.2098262 0.2118128 0.2135675 0.2150844 0.2163327 0.2172986 0.2180101 0.2185377
 0.2189741 0.2193887 0.2197862 0.2201153 0.2203124 0.220332 0.2201623 0.2198448 0.21946 0.2190685
 0.218669 0.2182299 0.2177508 0.2172827 0.2168938 0.2166221 0.2164559 0.2163536 0.2162726 0.2161793
 0.2160434 0.2158326 0.2155068 0.2150188 0.2143367 0.2134689 0.2124574 0.2113473 0.2101657 0.2089222
 0.2076168 0.2062448 0.20479 0.2032181 0.2014975 0.199634 0.1976703 0.195652 0.1936097 0.1915716
 0.1895706 0.187636 0.1857879 0.1840296 0.18234 0.1806825 0.1790297 0.1773755 0.175736 0.1741483
 0.1726563 0.1712798 0.1700062 0.1688201 0.1677328 0.1667806 0.1659943 0.1653698 0.1648644 0.1644246
 0.164012 0.1636075 0.1632166 0.1628807 0.162652 0.1625291 0.1624331 0.1622638 0.1619753 0.1615961
 0.1611926 0.1608202 0.1604995 0.1602249 0.1599791 0.1597256 0.1593968 0.1589007 0.1581446 0.157063
 0.1556475 0.1539513 0.1520588 0.1500655 0.1480886 0.1462563 0.1446574 0.1433189 0.1422282 0.1413447
 0.1406018 0.1399465 0.1393937 0.1390191 0.1388851 0.1389551 0.1390745 0.1390701 0.1389055 0.1387148
 0.13867 0.1388458 0.1392069 0.1396562 0.1400801 0.1404003 0.1406037 0.1407102 0.1407327 0.1406806
 0.1405603 0.1403564 0.1400506 0.1396578 0.1392175 0.1387565 0.1382754 0.1377486 0.137135 0.1364132
 0.1355965 0.1347004 0.1337242 0.1326583 0.1314743 0.1301397 0.1287149 0.1274124 0.1264922 0.1260884
 0.1261273 0.1263754 0.1266037 0.1267582 0.1268986 0.1269428 0.1266774 0.1261925 0.1261318 0.1272139
 0.129481 0.1321817 0.1344159 0.1357652 0.1362963 0.1361925 0.1355656 0.134495 0.1330292 0.1311621
 0.1289186 0.1264017 0.1237083 0.120915 0.1181663 0.1156391 0.1134332 0.1115783 0.1100842 0.1090022
 0.1084578 0.1081071 0.1062468 0.1007223 0.09225196 0.0858946 0.08680709 0.09445772 0.1029909 0.1074087
 0.1075539 0.1060739 0.1048057 0.1040316 0.1036539 0.1037871 0.1045367 0.1057717 0.1071336 0.1082406
 0.1089289 0.1092296 0.1091112 0.108278 0.106124 0.1019348 0.095469 0.08748294 0.07948206 0.07285096
 0.06823714 0.06554681 0.0642249 0.06358685 0.0631711 0.06293896 0.06315777 0.06409277 0.06579575 0.06813918
 0.07095165 0.07400837 0.07694375 0.07938421 0.08122778 0.08264533 0.08377889 0.08458248 0.0849637 0.08493121
 0.08457626 0.08400835 0.08332767 0.0825968 0.08180572 0.08088659 0.0798216 0.07876223 0.0779686 0.0775731
 0.07747123 0.07748036 0.07750571 0.07752155 0.07751355 0.0774896 0.0774792 0.07752171 0.07768666 0.07803638
 0.07852406 0.07899939 0.0793447 0.07956014 0.07972018 0.07985975 0.07987729 0.07961448 0.07911393 0.07866117
 0.07840038 0.07806308 0.0773223 0.07631187 0.07554948 0.07538693 0.07571281 0.07615563 0.07641837 0.07642488
 0.07630362 0.07630983 0.07664973 0.07723711</values></Ydata></ScSm><ScRf><Ydata ylabel="Single channel"><values byteorder="INTEL" format="FLOAT32" numvalues="1820"> 0.06066853 0.06082566 0.06092915 0.06097388 0.06097757 0.06098321 0.06104259 0.06118064 0.06137329 0.0615617
 0.06169417 0.06175936 0.06177541 0.06175461 0.06170427 0.06166247 0.06169407 0.06182882 0.06201917 0.06217144
 0.06221995 0.0621854 0.06216619 0.0622412 0.0623587 0.06234806 0.06208071 0.0616206 0.06118302 0.06093505
 0.06089079 0.06103998 0.0614565 0.06209831 0.06257849 0.062441 0.0617337 0.06103915 0.06082553 0.06099578
 0.06116009 0.06108649 0.06077167 0.06035671 0.06017309 0.06065301 0.06190484 0.06336406 0.0639958 0.06294615
 0.06015113 0.05653743 0.053684 0.05297194 0.05460688 0.05734096 0.05941086 0.05994375 0.05937498 0.05856003
 0.0578601 0.05724305 0.05686466 0.05710524 0.05803779 0.05906633 0.0592252 0.05799977 0.05594429 0.05429979
 0.05386411 0.05448313 0.05570842 0.05728585 0.05848397 0.05770759 0.05406766 0.04937267 0.04732338 0.04999442
 0.05562074 0.06032993 0.06158746 0.05960301 0.0561978 0.05329566 0.05220632 0.05326832 0.05578271 0.05860268
 0.06083412 0.06186881 0.06122761 0.05897852 0.05614099 0.05418465 0.05412662 0.05614178 0.05952347 0.06273247
 0.06409594 0.06305154 0.06052479 0.05794723 0.05631215 0.05617955 0.05781257 0.06089217 0.06450764 0.06769402
 0.06983086 0.07068807 0.07045925 0.06964415 0.06867386 0.06784479 0.06758794 0.068198 0.06912644 0.06919532
 0.06788662 0.0660411 0.06499359 0.06519693 0.06586714 0.06593587 0.06512512 0.06376003 0.06171171 0.05840414
 0.05412881 0.05036929 0.04831785 0.04797859 0.04906304 0.05145382 0.05415406 0.0552138 0.05385596 0.05184301
 0.05171446 0.05408087 0.05731564 0.05956609 0.06047338 0.06105078 0.0623744 0.06447513 0.06618268 0.06599511
 0.0635647 0.06054695 0.05943004 0.06109094 0.06395885 0.06596406 0.06673042 0.06733899 0.06843922 0.06923706
 0.06831559 0.06530939 0.06180961 0.06038256 0.06233402 0.06640296 0.06967399 0.06972905 0.06627473 0.06122413
 0.05720936 0.05575694 0.05686947 0.06002065 0.06473956 0.07009045 0.07443808 0.07635753 0.07566366 0.07333828
 0.07041126 0.06700601 0.06286415 0.05892528 0.05753037 0.06021005 0.06572357 0.07109129 0.07425328 0.07509542
 0.07428738 0.07201032 0.06815971 0.06359825 0.0605667 0.06094699 0.06400436 0.0668021 0.06727658 0.06611849
 0.06526875 0.06548369 0.06604469 0.06626497 0.06647067 0.0674516 0.06934199 0.07132706 0.07244224 0.07244951
 0.07187507 0.07139196 0.07120731 0.07090909 0.07005187 0.06906439 0.06919025 0.07112211 0.07404061 0.07645345
 0.07768554 0.07811567 0.07817897 0.07760864 0.07582663 0.07303673 0.07067288 0.07033692 0.0722454 0.07509114
 0.07740217 0.078604 0.07887501 0.07860441 0.07813188 0.07764598 0.07723719 0.07712486 0.07760444 0.07861929
 0.07966363 0.08028498 0.08045273 0.08033139 0.07995994 0.07932074 0.07857309 0.07805252 0.07802799 0.07849924
 0.07924484 0.08002084 0.08064324 0.08094396 0.08082989 0.08041948 0.07997574 0.07966702 0.07950532 0.07950602
 0.0797427 0.08020115 0.08070892 0.08107772 0.08125123 0.08128081 0.08121995 0.08108728 0.08090338 0.08073147
 0.08067328 0.08079749 0.08105414 0.08130765 0.08149467 0.08168876 0.08194836 0.08217238 0.08220343 0.08203658
 0.0818343 0.08174963 0.08180364 0.08192382 0.08202589 0.08203031 0.0818599 0.08150884 0.08112617 0.08095434
 0.08113687 0.08162049 0.08224607 0.08285786 0.08332264 0.08355969 0.08360427 0.08357055 0.08352062 0.08342249
 0.08324714 0.08305968 0.08299915 0.08317432 0.08356526 0.08402736 0.08440398 0.08462562 0.0847137 0.08474946
 0.08484107 0.08503804 0.08525383 0.08534463 0.08528554 0.08520577 0.08523045 0.08533959 0.08540884 0.08536334
 0.08526628 0.08525232 0.08538546 0.08560345 0.08580287 0.08595186 0.08610448 0.0863122 0.08653082 0.08663382
 0.08654481 0.08634076 0.08617564 0.08611535 0.08611263 0.08613747 0.08624109 0.08645627 0.08670316 0.08685511
 0.08687828 0.0868597 0.08689244 0.08696453 0.08698052 0.08687627 0.08668786 0.08651417 0.08643597 0.08646885
 0.08656614 0.08665266 0.08666917 0.08660374 0.08648955 0.08637171 0.08627702 0.08622209 0.0862439 0.08638806
 0.08663669 0.0868652 0.08691779 0.08674811 0.08647101 0.08626 0.08619341 0.08620126 0.08615158 0.08597723
 0.08571978 0.08547007 0.08528602 0.08516507 0.08507366 0.08499121 0.08493648 0.08495839 0.08508222 0.08524902
 0.08532912 0.08522925 0.08498298 0.08471517 0.08452874 0.08444507 0.08442757 0.08442648 0.0844175 0.08442514
 0.08448698 0.08457858 0.08461507 0.0845525 0.08444798 0.08439906 0.08446269 0.08463757 0.08486585 0.08503889
 0.0850652 0.08496299 0.08484685 0.08480949 0.08485182 0.08493021 0.08502223 0.08512484 0.08522716 0.08532041
 0.08542474 0.08558097 0.08580904 0.0860801 0.08633079 0.08650723 0.0866078 0.0866921 0.08684098 0.08709379
 0.08741768 0.08773731 0.08799557 0.08819143 0.08836409 0.08854443 0.08873107 0.08891995 0.08913669 0.0894127
 0.0897375 0.09006463 0.09036359 0.09064224 0.09092049 0.09120543 0.0914968 0.0918049 0.09215669 0.09257175
 0.0930182 0.09340657 0.09365872 0.09378727 0.09389225 0.09408277 0.09440179 0.09479596 0.09514236 0.09534298
 0.09542546 0.09552433 0.09573408 0.09601255 0.09626462 0.09648809 0.09677899 0.09719577 0.09766756 0.09805846
 0.09830047 0.09844492 0.09859109 0.0987799 0.09896588 0.09909122 0.0991677 0.09926115 0.09940539 0.09957677
 0.09976615 0.100024 0.1003916 0.10082 0.1012049 0.1014878 0.1016867 0.1018435 0.1019764 0.1020752
 0.1021201 0.1021159 0.1021157 0.1021807 0.1023045 0.1024122 0.1024531 0.1024624 0.1025131 0.1026428
 0.1028507 0.1031273 0.1034477 0.1037592 0.104027 0.10429 0.104619 0.1050054 0.1053339 0.1055039
 0.1055408 0.1055469 0.1055747 0.1056114 0.1056659 0.1057975 0.1060433 0.1063696 0.1067157 0.1070543
 0.1073924 0.1077333 0.1080506 0.108291 0.1084083 0.108407 0.1083545 0.1083451 0.1084471 0.1086728
 0.1089818 0.1093093 0.1095992 0.1098131 0.1099203 0.1099095 0.1098298 0.1097918 0.1098826 0.1100725
 0.1102299 0.1102308 0.1100367 0.1096719 0.109165 0.1085396 0.107845 0.107169 0.1066046 0.1062078
 0.105993 0.1059714 0.1061752 0.1066198 0.1072471 0.1079366 0.1085769 0.1090953 0.1094153 0.1094427
 0.1091333 0.108552 0.1078339 0.1071009 0.1064228 0.1058153 0.1052476 0.1046849 0.1041673 0.1038417
 0.103893 0.1044381 0.1054711 0.1068647 0.1084043 0.1098576 0.1110723 0.1120334 0.1128255 0.1135387
 0.1142136 0.1148654 0.1155174 0.1161801 0.1168163 0.1173717 0.117839 0.118262 0.1186769 0.1190766
 0.1194302 0.1197142 0.1199323 0.1201206 0.1203164 0.1205039 0.1206158 0.1206099 0.1205202 0.1204121
 0.1203059 0.120161 0.1199185 0.1195522 0.1191045 0.1187006 0.118523 0.1187381 0.119408 0.1204525
 0.1217047 0.1230143 0.1242898 0.1254521 0.1264036 0.1270829 0.1275266 0.1278404 0.1281188 0.1284067
 0.1287124 0.1290253 0.1293291 0.1296154 0.129889 0.1301641 0.1304581 0.1307787 0.1311064 0.1314016
 0.1316448 0.1318696 0.1321398 0.1324893 0.1328867 0.1332669 0.1335979 0.1339068 0.1342279 0.1345421
 0.1347981 0.1349838 0.1351483 0.1353546 0.1356353 0.135985 0.1363612 0.1366964 0.1369417 0.1371089
 0.1372548 0.1374286 0.1376438 0.1378907 0.1381528 0.1384127 0.1386615 0.1389123 0.1391912 0.1395032
 0.1398075 0.1400453 0.1401997 0.1403202 0.1404773 0.1406976 0.1409474 0.1411767 0.1413716 0.141569
 0.1418169 0.1421213 0.142432 0.1426865 0.1428619 0.142987 0.1431111 0.1432689 0.1434642 0.1436787
 0.1438907 0.1440903 0.1442812 0.144475 0.1446827 0.1449056 0.1451331 0.1453512 0.1455545 0.14575
 0.1459482 0.1461533 0.1463667 0.1465982 0.1468634 0.1471591 0.1474497 0.1476922 0.1478751 0.1480222
 0.1481633 0.1483122 0.1484724 0.1486461 0.1488341 0.1490314 0.1492294 0.1494229 0.149615 0.1498139
 0.1500237 0.1502398 0.150453 0.1506576 0.1508585 0.1510696 0.1513001 0.1515411 0.1517705 0.1519746
 0.1521592 0.1523412 0.1525329 0.1527339 0.1529331 0.1531198 0.1532951 0.1534709 0.153659 0.1538613
 0.1540702 0.1542749 0.1544692 0.1546554 0.1548394 0.1550244 0.1552115 0.1554033 0.1556015 0.1558035
 0.1560046 0.1562021 0.1563962 0.1565885 0.1567817 0.1569789 0.1571827 0.1573944 0.157611 0.157825
 0.1580291 0.1582208 0.1584029 0.1585816 0.1587645 0.1589561 0.1591554 0.159358 0.1595606 0.1597618
 0.1599613 0.1601587 0.1603542 0.1605507 0.1607561 0.1609771 0.1612107 0.1614446 0.1616674 0.1618755
 0.1620749 0.1622772 0.1624892 0.1627067 0.1629228 0.1631372 0.1633527 0.1635658 0.1637702 0.1639634
 0.1641454 0.1643176 0.1644844 0.1646508 0.1648214 0.1649999 0.1651856 0.1653701 0.1655467 0.1657217
 0.1659066 0.1661061 0.1663169 0.1665335 0.1667483 0.1669551 0.1671561 0.1673567 0.1675585 0.1677611
 0.1679663 0.1681744 0.1683838 0.1685944 0.1688065 0.1690188 0.1692301 0.1694396 0.1696445 0.1698453
 0.1700482 0.1702564 0.1704669 0.1706778 0.170889 0.1710959 0.1712952 0.1714934 0.1716969 0.1719053
 0.1721178 0.1723354 0.1725517 0.1727582 0.172955 0.1731486 0.1733442 0.1735475 0.1737623 0.1739855
 0.1742127 0.1744436 0.1746723 0.1748891 0.1750949 0.1752985 0.1755002 0.1756993 0.1759063 0.176129
 0.1763607 0.1765922 0.1768147 0.1770076 0.1771278 0.1770692 0.1765584 0.1750406 0.1716646 0.1654565
 0.1557125 0.142444 0.1265265 0.1093871 0.09247948 0.07690652 0.06331763 0.05199831 0.04300959 0.03627226
 0.03162237 0.02891036 0.02810823 0.02941928 0.03339408 0.0406036 0.05040758 0.05986177 0.06486161 0.06338376
 0.05742071 0.05116346 0.04751544 0.04668632 0.04744182 0.04872759 0.05020522 0.05205745 0.0546101 0.05796552
 0.06197959 0.06665286 0.07232212 0.07923084 0.08701484 0.09485146 0.1021612 0.1090618 0.1160946 0.123571
 0.1312394 0.1385297 0.1450097 0.1506017 0.1554903 0.1599216 0.1640678 0.1680095 0.1717811 0.1753699
 0.1786392 0.1813011 0.1830562 0.18382 0.1838281 0.183505 0.1832141 0.1831127 0.1832037 0.1834581
 0.1838673 0.1844251 0.1851105 0.1858869 0.1867088 0.1875396 0.188363 0.1891717 0.1899535 0.1906943
 0.1913823 0.192008 0.1925718 0.1930869 0.1935639 0.1940025 0.1944046 0.1947812 0.1951404 0.1954832
 0.1958099 0.1961213 0.1964156 0.1966918 0.1969505 0.1971883 0.1974026 0.1976032 0.1978065 0.1980182
 0.1982332 0.198448 0.1986626 0.1988754 0.1990817 0.1992797 0.1994741 0.1996736 0.1998797 0.2000819
 0.2002702 0.2004503 0.2006369 0.2008355 0.2010409 0.2012456 0.2014438 0.2016328 0.201816 0.2020007
 0.2021918 0.2023898 0.2025922 0.2027933 0.2029897 0.2031887 0.2034003 0.2036214 0.2038397 0.2040527
 0.2042679 0.204486 0.2046986 0.2048994 0.2050869 0.2052584 0.2054139 0.205565 0.2057334 0.2059355
 0.2061665 0.2064034 0.2066254 0.2068267 0.2070116 0.2071867 0.2073613 0.2075414 0.2077281 0.2079291
 0.2081591 0.2084177 0.2086816 0.2089322 0.2091693 0.2093953 0.2096129 0.2098372 0.2100769 0.2103045
 0.2104799 0.2106094 0.2107584 0.2109974 0.2113337 0.2117005 0.212018 0.2122628 0.2124681 0.2126775
 0.2129171 0.2131764 0.213382 0.2134464 0.2134002 0.213425 0.2136877 0.2141746 0.2147282 0.2152074
 0.2155736 0.2158618 0.2161153 0.2163412 0.2165031 0.2165627 0.2165515 0.2166005 0.2168521 0.2173142
 0.217839 0.2182746 0.2185877 0.2188205 0.2190107 0.2191803 0.2192975 0.2192289 0.2188802 0.2184461
 0.2183597 0.2188759 0.2197852 0.2206375 0.2211843 0.2215075 0.2217743 0.2220313 0.2222471 0.2223452
 0.2221015 0.2212722 0.2200587 0.2192427 0.2195363 0.220861 0.222479 0.2237341 0.2244649 0.2248392
 0.2250687 0.2252696 0.2253758 0.2251492 0.22445 0.223585 0.2232243 0.2237815 0.2249473 0.226018
 0.2266126 0.2268732 0.2270848 0.2273562 0.2275473 0.2272321 0.2259399 0.2238508 0.222145 0.2221713
 0.2241261 0.2268162 0.2288427 0.2298038 0.230176 0.2302812 0.2298172 0.2284043 0.226148 0.2235851
 0.2215361 0.2210163 0.2225582 0.2253473 0.227683 0.2286657 0.2289569 0.2296698 0.2310364 0.2324063
 0.2330976 0.2329275 0.2321003 0.2308336 0.2292533 0.2277475 0.227175 0.2282527 0.2306856 0.2332781
 0.2350387 0.2359299 0.2363466 0.2359524 0.2334478 0.2281368 0.2218785 0.2185594 0.2206545 0.2266374
 0.2326224 0.2361812 0.2376605 0.2383539 0.2387818 0.2385504 0.2365631 0.2316022 0.2242287 0.2180068
 0.2170945 0.222118 0.229465 0.2346723 0.2354824 0.2320762 0.2262562 0.2209063 0.2188126 0.2209745
 0.2261762 0.2321908 0.2371118 0.2398688 0.2402207 0.2386516 0.2363215 0.23478 0.2348476 0.2353912
 0.234181 0.2307144 0.2270692 0.2248487 0.2226766 0.2187159 0.2147116 0.2148356 0.2202819 0.2272834
 0.2313526 0.2318306 0.2310577 0.2300816 0.2268253 0.2190602 0.2086392 0.2015464 0.2026664 0.2107153
 0.2193955 0.2235701 0.2233396 0.2221544 0.222213 0.2222282 0.2192391 0.212485 0.205334 0.2024381
 0.2047618 0.2087089 0.2103527 0.2085464 0.2035018 0.1955356 0.1873581 0.1848466 0.1920588 0.2062361
 0.2199891 0.2273783 0.2260245 0.2157275 0.1993549 0.1846578 0.1804788 0.1887925 0.2022946 0.211143
 0.2107456 0.2024933 0.1895622 0.1748171 0.1622177 0.157124 0.1630466 0.1781368 0.195277 0.2055672
 0.2031871 0.1899644 0.1759 0.171951 0.1799774 0.1914327 0.1969626 0.1949156 0.1899177 0.186933
 0.1884342 0.1940259 0.2008472 0.2062502 0.2099052 0.2107075 0.2038856 0.186724 0.166118 0.1540392
 0.1550951 0.1641143 0.1757338 0.1892445 0.2024289 0.2082036 0.2026102 0.1923352 0.1890617 0.1970631
 0.2095253 0.2169001 0.2163715 0.2124021 0.2098018 0.2085804 0.2063613 0.2039594 0.2055602 0.2129734
 0.2224951 0.2290418 0.2314258 0.2319114 0.2323533 0.2327798 0.2326939 0.23193 0.2305723 0.2290562
 0.2280319 0.2276329 0.2273544 0.2268169 0.2257235 0.2226727 0.2154592 0.2041662 0.1931522 0.1876068
 0.188047 0.190645 0.1929206 0.1951796 0.1951972 0.1867542 0.1678504 0.1474107 0.1387894 0.1468711
 0.1644355 0.1803732 0.1882029 0.1866187 0.1761335 0.1592391 0.1430699 0.1372175 0.1459225 0.1639883
 0.1823104 0.1957234 0.2036658 0.2058596 0.2012716 0.1911573 0.1803559 0.1745545 0.1767885 0.1860655
 0.1977384 0.204767 0.2011327 0.1877663 0.1752191 0.1759416 0.1912574 0.2092295 0.2180918 0.218193
 0.2173355 0.2186361 0.2189192 0.2171615 0.2179479 0.2251366 0.2361708 0.2446028 0.2457553 0.2385644
 0.2250183 0.2106784 0.2032395 0.2063173 0.2152799 0.2222482 0.2237163 0.2200869 0.2110056 0.1973391
 0.186153 0.1864621 0.198779 0.2139197 0.2234405 0.2273227 0.2301528 0.2332222 0.2329824 0.2264608
 0.216274 0.209023 0.2087653 0.213452 0.2183589 0.2210667 0.2214631 0.2188922 0.2125744 0.2048329
 0.2011165 0.2052342 0.2153777 0.2257972 0.2319317 0.2332396 0.2318132 0.2296775 0.2274535 0.2245433
 0.2204647 0.2165788 0.215833 0.2196183 0.2255512 0.2299176 0.2319265 0.2339835 0.2379197 0.2424802
 0.2448606 0.2437674 0.2406386 0.2383721 0.2389921 0.2420463 0.2449528 0.2452088 0.2427758 0.240342
 0.2408488 0.2446854 0.2496413 0.2534191 0.2555027 0.256675 0.25767 0.2585335 0.258602 0.2570117
 0.2539301 0.2512677 0.2513198 0.2544881 0.2588984 0.2623345 0.2640207 0.2644885 0.2643618 0.2637115
 0.2624091 0.2607094 0.2592743 0.258654 0.2588847 0.2596159 0.2604764 0.2612471 0.2618389 0.2622557
 0.2625518 0.2627604 0.2628894 0.2629782 0.2630736 0.2631392 0.2630907 0.2629572 0.2629142 0.2630901
 0.2634036 0.2636514 0.2636952 0.2634819 0.2629454 0.2620184 0.2607515 0.2593027 0.2577628 0.2560951
 0.254357 0.2529479 0.2524922 0.2533711 0.255366 0.2577879 0.2599465 0.261502 0.2624631 0.2629909
 0.2632482 0.2633527 0.2633682 0.2633085 0.2631637 0.2629321 0.2626262 0.2622607 0.261852 0.2614341
 0.26106 0.2607673 0.2605375 0.2603027 0.2599962 0.2595947 0.2591155 0.2585924 0.2580506 0.2574844
 0.2568503 0.256097 0.2552136 0.2542486 0.2532869 0.2524034 0.2516202 0.2508931 0.2501525 0.2493541
 0.2484728 0.2474717 0.2463348 0.245143 0.244058 0.2431895 0.2425027 0.2418753 0.2412058 0.240449
 0.2395911 0.238643 0.2376387 0.2366033 0.2355262 0.2343829 0.2331692 0.2318961 0.230563 0.2291516
 0.2276444 0.2260472 0.2243972 0.2227405 0.2210783 0.2193328 0.2173705 0.2150509 0.2122535 0.2088898
 0.2049332 0.200456 0.1956301 0.1906777 0.1858042 0.1811624 0.1768615 0.1729937 0.1696456 0.1668935
 0.1647954 0.1633854 0.1626794 0.1626872 0.163411 0.1648224 0.16684 0.1693335 0.1721452 0.1751111
 0.1780733 0.1808911 0.1834705 0.1858046 0.187966 0.1900279 0.1919911 0.193802 0.1954187 0.1968343
 0.1980522 0.1990743 0.1999115 0.2005898 0.2011454 0.2016166 0.2020341 0.2024135 0.2027535 0.2030383
 0.2032535 0.2034113 0.2035536 0.2037206 0.2039248 0.2041601 0.2044251 0.2047327 0.2051064 0.2055627
 0.2060883 0.2066473 0.2072158 0.2077988 0.208412 0.209068 0.2097868 0.2106024 0.2115532 0.2126636
 0.2139267 0.2152964 0.2166961 0.2180372 0.2192354 0.220228 0.2209892 0.221521 0.2218302 0.2219273
 0.2218441 0.2216326 0.2213371 0.220977 0.2205508 0.2200519 0.2194828 0.2188588 0.2181967 0.217504
 0.2167876 0.2160676 0.2153708 0.2147062 0.2140587 0.2134107 0.2127631 0.2121314 0.2115271 0.2109519
 0.2103996 0.2098584 0.2093137 0.2087574 0.2081884 0.2075974 0.2069557 0.20623 0.2054041 0.2044805
 0.2034615 0.2023418 0.2011245 0.199833 0.1984915 0.1970984 0.1956307 0.1940775 0.1924531 0.1907683
 0.1890006 0.1871096 0.1850911 0.1830125 0.1809869 0.1791083 0.177405 0.1758402 0.174354 0.1729152
 0.1715405 0.1702573 0.1690592 0.1679145 0.1668072 0.1657469 0.1647462 0.1638102 0.1629449 0.1621591
 0.1614569 0.1608339 0.1602799 0.1597876 0.1593573 0.1589938 0.1587089 0.1585312 0.158487 0.1585544
 0.1586528 0.1586947 0.1586396 0.1585022 0.1583335 0.1581898 0.1580973 0.1580456 0.1580116 0.1579637
 0.1578385 0.1575415 0.1569789 0.1560905 0.1548688 0.1533575 0.1516291 0.1497756 0.1479288 0.1462431
 0.1448233 0.1436879 0.1428092 0.1421482 0.1416486 0.1412519 0.1409399 0.1407499 0.1407393 0.140914
 0.1411706 0.1413468 0.1413783 0.141378 0.1415313 0.1419422 0.1425856 0.1433489 0.1441032 0.1447697
 0.1453228 0.1457391 0.1459954 0.1461129 0.1461394 0.1460908 0.1459606 0.1457639 0.1455258 0.1452521
 0.1449309 0.1445357 0.1440355 0.1434283 0.1427396 0.1419809 0.1411538 0.1402682 0.1392971 0.1381755
 0.136936 0.1357999 0.1350596 0.1348973 0.1353082 0.1361216 0.1371151 0.1381581 0.1391807 0.1399926
 0.1403452 0.1403216 0.1405133 0.1415894 0.1436593 0.1461446 0.1482853 0.1496902 0.1503781 0.150466
 0.1500087 0.1490461 0.1475902 0.1456014 0.1431067 0.1402549 0.1371902 0.1340203 0.1309269 0.1281269
 0.1257406 0.1238053 0.1223257 0.1213326 0.1209474 0.120794 0.1189638 0.1130097 0.1037223 0.09680182
 0.09804431 0.1068161 0.1165083 0.1215079 0.1216521 0.1199273 0.1184116 0.1174339 0.1169006 0.116968
 0.1177651 0.1191197 0.1206037 0.1218025 0.122569 0.1229602 0.1229276 0.1220882 0.1196996 0.1149324
 0.1075378 0.09840837 0.08927139 0.08169492 0.07639265 0.07324958 0.0716622 0.07087845 0.07036384 0.07006505
 0.07030469 0.07138698 0.07333732 0.07599209 0.07917169 0.08263183 0.08596088 0.08875631 0.09092239 0.09264237
 0.09405458 0.09509262 0.09563881 0.09569328 0.09536119 0.09476782 0.09402367 0.09320414 0.09230089 0.09123123
 0.08998814 0.08877775 0.08789903 0.08746273 0.08732444 0.08729521 0.08729889 0.08732273 0.08734153 0.08732335
 0.08725795 0.08719411 0.08725834 0.0875614 0.08805965 0.08856821 0.0889201 0.08908249 0.08913401 0.08912528
 0.08894324 0.08840954 0.08759271 0.08685045 0.08637735 0.08587683 0.08494268 0.08366913 0.08261926 0.08221301
 0.0823515 0.08263473 0.08275458 0.08264299 0.08243142 0.0823843 0.08272777 0.08336958 0.08386722 0.08383761
</values></Ydata></ScRf><Data_Parameters_AB><parameter name="DPF">1</parameter><parameter name="NPT">3497</parameter><parameter name="FXV">3996</parameter><parameter name="LXV">500</parameter><parameter name="CSF">1</parameter><parameter name="MXY">0.298849910497665</parameter><parameter name="MNY">-0.0757032334804535</parameter><parameter name="DAT">27/05/2022</parameter><parameter name="TIM">12:30:18.198 (GMT+2)</parameter><parameter name="DXU">WN</parameter></Data_Parameters_AB><AB__Qtest><MainReport name="Quality Test Report"><Header><Line><Legend>Test result ok/not ok [1/0]: </Legend><Value>0</Value></Line><Line><Legend>Method file: </Legend><Value>C:\Users\Public\Documents\Bruker\OPUS_8.2.28\QT\IRBT_v3_default.QT</Value></Line></Header><Matrix><Line><Legend></Legend><Legend>min</Legend><Legend>max</Legend><Legend>measured</Legend></Line><Line><Value>Absorption (X-Range 1):</Value><Value>0.400000</Value><Value>2.000000</Value><Value>0.292760</Value></Line><Line><Value>Noise (X-Range 4):</Value><Value></Value><Value>0.000300</Value><Value>0.000043</Value></Line><Line><Value>Signal/Noise (X-Range 2):</Value><Value>200.000000</Value><Value></Value><Value>182.515361</Value></Line><Line><Value>Signal/Noise (X-Range 3):</Value><Value>40.000000</Value><Value></Value><Value>75.310901</Value></Line><Line><Value>Water vapour (X-Range 5):</Value><Value></Value><Value>0.000300</Value><Value>0.000038</Value></Line><Line><Value>Signal/Water (X-Range 2):</Value><Value>100.000000</Value><Value></Value><Value>209.998894</Value></Line><Line><Value>Signal/Water (X-Range 3):</Value><Value>20.000000</Value><Value></Value><Value>86.651369</Value></Line><Line><Value>Fringes (X-Range 6):</Value><Value></Value><Value>0.000100</Value><Value>0.000056</Value></Line></Matrix></MainReport></AB__Qtest><Data_Parameters_ScSm><parameter name="DPF">1</parameter><parameter name="NPT">1814</parameter><parameter name="FXV">3996.33169228125</parameter><parameter name="LXV">499.541461535156</parameter><parameter name="CSF">1</parameter><parameter name="MXY">0.277823805809021</parameter><parameter name="MNY">0.0327461324632168</parameter><parameter name="DAT">27/05/2022</parameter><parameter name="TIM">12:30:18.198 (GMT+2)</parameter><parameter name="DXU">WN</parameter></Data_Parameters_ScSm><Data_Parameters_ScRf><parameter name="DPF">1</parameter><parameter name="NPT">1820</parameter><parameter name="FXV">4004.04661832813</parameter><parameter name="LXV">495.683998511719</parameter><parameter name="CSF">1</parameter><parameter name="MXY">0.264488518238068</parameter><parameter name="MNY">0.0281082279980183</parameter><parameter name="DAT">27/05/2022</parameter><parameter name="TIM">12:29:51.200 (GMT+2)</parameter><parameter name="DXU">WN</parameter></Data_Parameters_ScRf><Optic_Parameters_Rf><parameter name="APR">0</parameter><parameter name="APT">Open</parameter><parameter name="BMS">KBr</parameter><parameter name="DTC">RT-DLaTGS_IR-Biotyper [Microplate reader]</parameter><parameter name="HPF">0</parameter><parameter name="LPF">10.0</parameter><parameter name="LPV">4000</parameter><parameter name="PGR">0</parameter><parameter name="RCH">Module port</parameter><parameter name="RDX">0</parameter><parameter name="SRC">MIR</parameter><parameter name="VEL">10.0</parameter><parameter name="SON">Off</parameter></Optic_Parameters_Rf><Acquisition_Parameters_Rf><parameter name="ADT">1</parameter><parameter name="AQM">DD</parameter><parameter name="CFE">0</parameter><parameter name="COR">0</parameter><parameter name="DEL">0</parameter><parameter name="DLY">0</parameter><parameter name="HFW">8000</parameter><parameter name="LFW">0</parameter><parameter name="NSR">32</parameter><parameter name="PLF">AB</parameter><parameter name="RES">6</parameter><parameter name="RGN">-1</parameter><parameter name="STR">0</parameter><parameter name="TCL">MakeCompatibleScalar (0, {WSV=1.000000, ARV=0});</parameter><parameter name="TDL">37</parameter><parameter name="RPO">0</parameter></Acquisition_Parameters_Rf><FT_-_Parameters_Rf><parameter name="APF">B3</parameter><parameter name="HFQ">500</parameter><parameter name="LFQ">4000</parameter><parameter name="NLI">0</parameter><parameter name="PHR">24</parameter><parameter name="PHZ">ML</parameter><parameter name="SPZ">NO</parameter><parameter name="ZFF">1</parameter></FT_-_Parameters_Rf><Optic_Parameters_><parameter name="APR">0</parameter><parameter name="APT">Open</parameter><parameter name="BMS">KBr</parameter><parameter name="CHN">Module port</parameter><parameter name="DTC">RT-DLaTGS_IR-Biotyper [Microplate reader]</parameter><parameter name="HPF">0</parameter><parameter name="LPF">10.0</parameter><parameter name="LPV">4000</parameter><parameter name="PGN">0</parameter><parameter name="RDX">0</parameter><parameter name="SRC">MIR</parameter><parameter name="VEL">10.0</parameter><parameter name="SON">Off</parameter></Optic_Parameters_><FT_-_Parameters_><parameter name="APF">B3</parameter><parameter name="HFQ">500</parameter><parameter name="LFQ">4000</parameter><parameter name="NLI">0</parameter><parameter name="PHR">24</parameter><parameter name="PHZ">ML</parameter><parameter name="SPZ">NO</parameter><parameter name="ZFF">1</parameter></FT_-_Parameters_><Acquisition_Parameters_><parameter name="ADT">1</parameter><parameter name="AQM">DD</parameter><parameter name="CFE">0</parameter><parameter name="COR">0</parameter><parameter name="DEL">0</parameter><parameter name="DLY">0</parameter><parameter name="HFW">8000</parameter><parameter name="LFW">0</parameter><parameter name="NSS">32</parameter><parameter name="PLF">AB</parameter><parameter name="RES">6</parameter><parameter name="SOT">0</parameter><parameter name="TCL">MakeCompatibleScalar (0, {WSV=1.000000, ARV=0});</parameter><parameter name="TDL">37</parameter><parameter name="SPO">0</parameter><parameter name="SGN">-1</parameter></Acquisition_Parameters_><Instrument_Parameters_Rf><parameter name="HFL">15800.168544</parameter><parameter name="LFL">0</parameter><parameter name="LWN">15800.168544</parameter><parameter name="ABP">32197</parameter><parameter name="SSP">1</parameter><parameter name="ARG">2</parameter><parameter name="ASG">2</parameter><parameter name="ASS">32</parameter><parameter name="GFW">16</parameter><parameter name="GBW">16</parameter><parameter name="BFW">0</parameter><parameter name="BBW">0</parameter><parameter name="PKA">7267</parameter><parameter name="PKL">4996</parameter><parameter name="PRA">7456</parameter><parameter name="PRL">5001</parameter><parameter name="P2A">1</parameter><parameter name="P2L">1</parameter><parameter name="P2R">1</parameter><parameter name="P2K">1</parameter><parameter name="DAQ">0</parameter><parameter name="AG2">1</parameter><parameter name="SSM">1</parameter><parameter name="RSN">24984</parameter><parameter name="CRR">0</parameter><parameter name="SRT">1653654591.2</parameter><parameter name="DUR">19.635986328125</parameter><parameter name="TSC">28</parameter><parameter name="MVD">0.37463915348053</parameter><parameter name="AN1">0.225791626423238</parameter><parameter name="AN2">0</parameter><parameter name="VSN">2.485 Apr  4 2017</parameter><parameter name="SRN">0085</parameter><parameter name="CAM">0</parameter><parameter name="INS">IR-Biotyper</parameter><parameter name="FOC">69</parameter><parameter name="RDY">1</parameter><parameter name="ARS">32</parameter></Instrument_Parameters_Rf><Sample_Parameters_><parameter name="BLD"></parameter><parameter name="CNM">Admin</parameter><parameter name="CPY"></parameter><parameter name="DPM"></parameter><parameter name="EXP">IRBT_v3_32Scans.XPM</parameter><parameter name="LCT"></parameter><parameter name="SFM">Microplate, HTS-XT</parameter><parameter name="SNM">220527-1039(v.2)_AMA28F (D_2)_D12_50a7da80-f80e-498f-bb3c-f54fd6f74650.0</parameter><parameter name="XPP">C:\Users\Public\Documents\Bruker\OPUS_8.2.28\XPM</parameter><parameter name="IST">OK</parameter><parameter name="CPG">1252</parameter><parameter name="UID">42a86014-68dd-44a3-b07c-1a248b6e90e1</parameter></Sample_Parameters_><Instrument_Parameters_><parameter name="HFL">15800.168544</parameter><parameter name="LFL">0</parameter><parameter name="LWN">15800.168544</parameter><parameter name="ABP">32197</parameter><parameter name="SSP">1</parameter><parameter name="ASG">2</parameter><parameter name="ARG">2</parameter><parameter name="ASS">32</parameter><parameter name="GFW">16</parameter><parameter name="GBW">16</parameter><parameter name="BFW">0</parameter><parameter name="BBW">0</parameter><parameter name="PKA">7102</parameter><parameter name="PKL">4988</parameter><parameter name="PRA">7387</parameter><parameter name="PRL">4993</parameter><parameter name="P2A">1</parameter><parameter name="P2L">1</parameter><parameter name="P2R">1</parameter><parameter name="P2K">1</parameter><parameter name="DAQ">0</parameter><parameter name="AG2">1</parameter><parameter name="SSM">1</parameter><parameter name="RSN">13118</parameter><parameter name="CRR">0</parameter><parameter name="SRT">1653654618.199</parameter><parameter name="DUR">19.635986328125</parameter><parameter name="TSC">28</parameter><parameter name="MVD">0.557294845581055</parameter><parameter name="AN1">0.225803994330205</parameter><parameter name="AN2">0</parameter><parameter name="VSN">2.485 Apr  4 2017</parameter><parameter name="SRN">0085</parameter><parameter name="CAM">0</parameter><parameter name="INS">IR-Biotyper</parameter><parameter name="FOC">69</parameter><parameter name="RDY">1</parameter></Instrument_Parameters_><History/></OPUSDataFile>
